# TIPE ECG 2021 - Enregistrements réalisés au lycée
# [N° de la personne, N° de l'enregistrement, Période d'échantillonnage, Prénom, Age, Sexe, Date de l'enregistrement]
[0, 1, 0.003, "Clément", 20, "H", "13.10.2020"]
-0.132368206279352
-0.221940886462107
-0.147296986309811
-0.172178286360577
-0.11992755625397
-0.162225766340271
-0.189595196396112
-0.189595196396112
-0.134856336284429
-0.100022516213357
-0.122415686259046
-0.127391946269199
-0.0353311360813677
-0.132368206279352
-0.0751412161625922
-0.0328430060762912
-0.0353311360813677
-0.114951296243817
-0.11246316623874
0.0467771540861577
-0.0701649561524391
0.0816109741572291
0.0840991041623056
0.0517534140963107
0.00945520401000977
0.00447894399985671
-0.0253786160610616
-0.012937966035679
0.0940516241826117
0.0641940641216934
0.0666821941267699
-0.000497316010296345
-0.0154260960407555
0.00696707400493324
0.118932924233377
0.0194077240303159
-0.060212436132133
0.0318483740556985
0.0144314640201628
-0.0278667460661381
0.0144314640201628
0.029360244050622
0.0218958540353924
0.0641940641216934
0.0218958540353924
-0.05523617612198
-0.0850937361828983
-0.00298544601537287
-0.000497316010296345
0.128885444253683
-0.0104498360306025
0.0617059341166168
0.0169195940252393
0.0144314640201628
0.0741465841419995
0.128885444253683
0.034336504060775
-0.0104498360306025
0.00447894399985671
0.00945520401000977
0.00447894399985671
0.0218958540353924
0.029360244050622
0.0318483740556985
0.0194077240303159
0.0393127640709281
0.0418008940760046
0.0791228441521525
0.128885444253683
0.0641940641216934
-0.0054735760204494
0.0666821941267699
-0.00796170602552593
0.106492274207994
0.0791228441521525
0.118932924233377
0.071658454136923
0.0467771540861577
0.0840991041623056
0.0243839840404689
0.128885444253683
0.196064954390749
0.176159914350137
0.203529344405979
0.18860056437552
0.191088694380596
0.280661374563351
0.210993734421209
0.265732594532892
0.248315684497356
0.375210314756259
0.320471454644576
0.173671784345061
0.240851294482127
0.283149504568428
0.243339424487203
0.18113617436029
0.136349834268913
0.1164447942283
0.206017474411055
0.18113617436029
0.133861704263836
0.118932924233377
0.0592178041115403
-0.0328430060762912
-0.0801174761727452
-0.0925581261981279
0.0318483740556985
0.00696707400493324
-0.0328430060762912
-0.0502599161118269
0.0194077240303159
-0.0627005661372095
-0.0627005661372095
0.0119433340150863
0.0840991041623056
0.0243839840404689
-0.0676768261473626
-0.0950462562032044
-0.000497316010296345
-0.0975343862082809
0.00199081399478018
0.029360244050622
0.0418008940760046
0.0567296741064638
0.00945520401000977
0.0169195940252393
0.00945520401000977
-0.0527480461169034
-0.162225766340271
-0.28414413658902
-0.393621856812388
-0.438408196903765
-0.40606250683777
-0.331418606685475
-0.109975036233664
0.108980404213071
0.385162834776565
0.71857225545682
1.18882882641628
1.75861059757881
2.20647399849258
2.4702157790307
2.51002585911192
1.99747107806616
1.24854394653812
0.517033725045621
-0.229405276477337
-0.769329487578943
-1.05546443816274
-1.35155190876685
-1.33911125874147
-1.13010833831504
-1.1027389082592
-0.871342817787081
-0.465777626959607
-0.174666416365653
-0.0104498360306025
0.0119433340150863
0.0492652840912342
-0.0204023560509086
-0.00298544601537287
-0.000497316010296345
-0.0228904860559851
0.0542415441013873
-0.0054735760204494
0.0517534140963107
0.0467771540861577
0.12390918424353
0.133861704263836
0.0144314640201628
0.101516014197841
0.0243839840404689
0.113956664223224
0.1164447942283
0.0840991041623056
0.0816109741572291
0.118932924233377
0.203529344405979
0.13137357425876
0.0218958540353924
0.12390918424353
0.126397314248607
0.0890753641724586
0.113956664223224
0.0890753641724586
0.18860056437552
0.161231134319678
0.143814224284142
0.168695524334908
0.161231134319678
0.148790484294295
0.0567296741064638
0.126397314248607
0.206017474411055
0.12390918424353
0.206017474411055
0.201041214400902
0.111468534218147
0.18113617436029
0.173671784345061
0.191088694380596
0.233386904466897
0.293102024588734
0.151278614299372
0.0990278841927648
0.203529344405979
0.225922514451668
0.235875034471974
0.148790484294295
0.104004144202918
0.0567296741064638
0.0940516241826117
0.138837964273989
0.118932924233377
0.0542415441013873
0.0816109741572291
0.071658454136923
0.029360244050622
-0.00298544601537287
-0.114951296243817
-0.0204023560509086
-0.0477717861067504
-0.0427955260965973
-0.0950462562032044
-0.129880076274276
-0.114951296243817
-0.129880076274276
-0.17715454637073
-0.154761376325041
-0.187107066391036
-0.152273246319965
-0.0826056061778218
-0.152273246319965
-0.189595196396112
-0.0627005661372095
-0.0875818661879748
-0.0776293461676687
-0.221940886462107
-0.129880076274276
-0.142320726299658
-0.0676768261473626
-0.0875818661879748
-0.000497316010296345
-0.137344466289505
-0.0925581261981279
-0.129880076274276
-0.100022516213357
-0.127391946269199
0.00199081399478018
-0.0875818661879748
-0.0676768261473626
-0.05523617612198
0.0243839840404689
-0.0278667460661381
-0.0477717861067504
-0.0378192660864443
-0.0651886961422861
-0.0452836561016738
-0.0850937361828983
-0.05523617612198
0.0368246340658516
-0.00796170602552593
-0.0154260960407555
0.0617059341166168
0.0940516241826117
0.0965397541876882
-0.0228904860559851
-0.0477717861067504
0.0542415441013873
0.118932924233377
0.0641940641216934
-0.012937966035679
0.034336504060775
0.1164447942283
0.12390918424353
0.0542415441013873
-0.0054735760204494
0.0467771540861577
0.0169195940252393
0.0542415441013873
0.029360244050622
0.0418008940760046
0.00199081399478018
0.034336504060775
0.034336504060775
-0.0154260960407555
0.076634714147076
0.0990278841927648
0.0492652840912342
0.0243839840404689
-0.000497316010296345
0.0243839840404689
0.0840991041623056
0.0915634941775352
0.0368246340658516
-0.017914226045832
0.071658454136923
-0.0427955260965973
-0.0875818661879748
0.128885444253683
0.1164447942283
0.00945520401000977
0.034336504060775
0.0393127640709281
-0.0104498360306025
-0.060212436132133
0.0169195940252393
0.0318483740556985
-0.0154260960407555
0.0517534140963107
0.0940516241826117
0.00696707400493324
0.0442890240810812
-0.000497316010296345
0.0492652840912342
0.076634714147076
0.0218958540353924
0.0144314640201628
-0.0502599161118269
-0.0154260960407555
-0.0154260960407555
0.0592178041115403
0.0144314640201628
0.0691703241318464
0.106492274207994
0.12390918424353
0.0617059341166168
0.0965397541876882
0.148790484294295
0.0816109741572291
0.00199081399478018
0.228410644456744
0.183624304365367
0.223434384446591
0.305542674614117
0.288125764578581
0.201041214400902
0.161231134319678
0.101516014197841
0.148790484294295
0.206017474411055
0.0741465841419995
0.138837964273989
0.0990278841927648
0.126397314248607
0.0940516241826117
-0.0328430060762912
-0.0278667460661381
0.0592178041115403
0.0567296741064638
-0.0925581261981279
-0.0651886961422861
-0.144808856304735
-0.0776293461676687
-0.114951296243817
-0.127391946269199
-0.0577243061270565
-0.060212436132133
-0.012937966035679
-0.0353311360813677
-0.000497316010296345
0.00696707400493324
-0.0527480461169034
-0.117439426248893
-0.117439426248893
-0.0801174761727452
-0.0378192660864443
-0.0328430060762912
-0.00298544601537287
0.0542415441013873
-0.0925581261981279
-0.199547716416419
-0.179642676375806
-0.261750966543332
-0.383669336792082
-0.493147057015449
-0.480706406990066
-0.602624777238816
-0.363764296751469
-0.152273246319965
0.113956664223224
0.467271124944091
0.900205745827407
1.37046231678687
1.93775595794432
2.32590423873626
2.6394086193759
2.24130781856366
1.67899043741636
0.8479550157208
0.161231134319678
-0.639946727314964
-1.10025077825412
-1.24456231854856
-1.33164686872624
-1.36150442878716
-1.19728784845211
-1.0703932181932
-0.667316157370806
-0.271703486563638
-0.157249506330118
0.029360244050622
0.0119433340150863
-0.0452836561016738
-0.0801174761727452
-0.0701649561524391
-0.05523617612198
0.0144314640201628
0.0169195940252393
-0.0826056061778218
-0.0228904860559851
-0.0502599161118269
0.0393127640709281
0.071658454136923
0.108980404213071
0.108980404213071
0.0791228441521525
-0.00796170602552593
0.0840991041623056
0.0194077240303159
0.0542415441013873
0.0791228441521525
0.0840991041623056
0.0467771540861577
0.106492274207994
0.108980404213071
0.138837964273989
0.0542415441013873
0.0940516241826117
0.156254874309525
0.161231134319678
0.128885444253683
0.104004144202918
0.0915634941775352
0.143814224284142
0.143814224284142
0.104004144202918
0.0467771540861577
0.118932924233377
0.178648044355214
0.230898774461821
0.193576824385673
0.235875034471974
0.0641940641216934
0.206017474411055
0.300566414603963
0.076634714147076
0.223434384446591
0.233386904466897
0.268220724537969
0.213481864426285
0.0940516241826117
0.0791228441521525
0.166207394329831
0.18860056437552
0.136349834268913
0.126397314248607
0.029360244050622
0.0542415441013873
0.143814224284142
0.136349834268913
0.0442890240810812
0.0144314640201628
-0.0154260960407555
-0.0726530861575156
-0.174666416365653
-0.0701649561524391
-0.0627005661372095
-0.117439426248893
-0.0676768261473626
-0.189595196396112
-0.231893406482413
-0.154761376325041
-0.0452836561016738
-0.0900699961930513
-0.1696901563555
-0.0850937361828983
-0.189595196396112
-0.149785116314888
-0.224429016467184
-0.124903816264123
-0.167202026350424
-0.129880076274276
-0.0751412161625922
-0.22691714647226
-0.192083326401189
-0.164713896345347
-0.132368206279352
-0.102510646218434
-0.0875818661879748
-0.0403073960915208
-0.0925581261981279
-0.0850937361828983
-0.05523617612198
0.0567296741064638
0.0318483740556985
-0.000497316010296345
-0.0154260960407555
-0.0527480461169034
0.0218958540353924
-0.00298544601537287
0.0243839840404689
0.0318483740556985
-0.0154260960407555
-0.05523617612198
-0.05523617612198
0.00199081399478018
0.00447894399985671
0.00199081399478018
0.00945520401000977
0.00945520401000977
-0.129880076274276
-0.05523617612198
-0.0054735760204494
0.106492274207994
-0.012937966035679
-0.0154260960407555
-0.00298544601537287
-0.0303548760712147
0.0169195940252393
0.00945520401000977
0.0169195940252393
0.0691703241318464
-0.0378192660864443
-0.05523617612198
-0.00298544601537287
-0.0278667460661381
0.0816109741572291
0.0940516241826117
-0.00298544601537287
0.0691703241318464
-0.0278667460661381
-0.0278667460661381
-0.000497316010296345
0.0194077240303159
0.0393127640709281
0.0243839840404689
0.0542415441013873
0.0890753641724586
-0.0228904860559851
0.0243839840404689
0.0816109741572291
-0.192083326401189
-0.0154260960407555
-0.0452836561016738
0.0243839840404689
-0.012937966035679
0.0691703241318464
-0.017914226045832
0.0218958540353924
-0.0328430060762912
0.034336504060775
-0.0154260960407555
0.0567296741064638
0.0741465841419995
0.0368246340658516
0.0442890240810812
0.0517534140963107
0.0393127640709281
0.0542415441013873
0.0940516241826117
0.1164447942283
0.0816109741572291
0.0890753641724586
0.034336504060775
-0.00796170602552593
0.0940516241826117
0.034336504060775
0.0617059341166168
0.0268721140455455
-0.017914226045832
-0.0328430060762912
-0.0875818661879748
-0.0403073960915208
-0.0154260960407555
0.00696707400493324
0.0940516241826117
0.0965397541876882
-0.149785116314888
0.225922514451668
0.18113617436029
0.198553084395826
0.18113617436029
0.18113617436029
0.158743004314601
-0.0054735760204494
0.275685114553198
0.322959584649652
0.290613894583657
0.270708854543045
0.0840991041623056
0.208505604416132
0.146302354289219
0.215969994431362
0.148790484294295
0.146302354289219
0.0865872341673821
0.034336504060775
0.00199081399478018
0.00696707400493324
-0.00796170602552593
-0.0427955260965973
0.0865872341673821
-0.0651886961422861
-0.0403073960915208
-0.107486906228587
-0.060212436132133
-0.149785116314888
-0.174666416365653
-0.139832596294582
-0.0228904860559851
-0.060212436132133
-0.0577243061270565
-0.0900699961930513
0.0318483740556985
-0.0577243061270565
-0.0925581261981279
-0.0801174761727452
-0.0502599161118269
-0.0850937361828983
-0.0228904860559851
-0.0801174761727452
-0.0054735760204494
-0.0801174761727452
-0.184618936385959
-0.0527480461169034
-0.129880076274276
-0.28414413658902
-0.401086246827617
-0.473242016974837
-0.612577297259122
-0.545397787122056
-0.391133726807311
-0.162225766340271
0.0915634941775352
0.447366084903479
0.658857135334983
1.25849646655843
1.61429905728437
2.1517351383809
2.47768016904593
2.42542943893932
1.90043400786817
1.15399500634521
0.3602815347258
-0.498123317025602
-1.0181424880866
-1.17738280841149
-1.36896881880239
-1.44610084895976
-1.32418247871101
-1.13259646832012
-0.941010457929224
-0.542909657116979
-0.187107066391036
-0.00796170602552593
-0.0452836561016738
-0.139832596294582
-0.0303548760712147
-0.0452836561016738
-0.0278667460661381
-0.012937966035679
-0.0527480461169034
-0.0975343862082809
0.0144314640201628
-0.0403073960915208
0.0467771540861577
0.0592178041115403
0.151278614299372
0.034336504060775
-0.0452836561016738
-0.0826056061778218
0.136349834268913
0.0915634941775352
0.111468534218147
0.118932924233377
0.0691703241318464
0.0368246340658516
0.0318483740556985
0.146302354289219
0.121421054238454
0.0816109741572291
0.1164447942283
0.113956664223224
0.0791228441521525
0.121421054238454
0.101516014197841
0.0940516241826117
0.201041214400902
0.178648044355214
0.191088694380596
0.126397314248607
0.0990278841927648
0.113956664223224
0.121421054238454
0.143814224284142
0.218458124436438
0.141326094279066
0.141326094279066
0.158743004314601
0.176159914350137
0.163719264324754
0.133861704263836
0.166207394329831
0.133861704263836
0.183624304365367
0.128885444253683
0.151278614299372
0.158743004314601
0.173671784345061
0.108980404213071
0.0666821941267699
0.0567296741064638
0.076634714147076
0.071658454136923
0.034336504060775
-0.0204023560509086
-0.0378192660864443
-0.0378192660864443
-0.129880076274276
-0.0253786160610616
-0.0427955260965973
-0.0627005661372095
-0.0950462562032044
-0.0328430060762912
-0.0278667460661381
-0.134856336284429
-0.0676768261473626
-0.0452836561016738
-0.107486906228587
-0.192083326401189
-0.162225766340271
-0.152273246319965
-0.214476496446878
-0.109975036233664
-0.060212436132133
-0.11246316623874
-0.197059586411342
-0.139832596294582
-0.11992755625397
-0.0676768261473626
-0.122415686259046
-0.114951296243817
-0.167202026350424
-0.132368206279352
-0.0776293461676687
-0.147296986309811
0.0243839840404689
-0.0104498360306025
-0.0154260960407555
-0.0726530861575156
-0.012937966035679
-0.0253786160610616
-0.0452836561016738
0.0243839840404689
0.0368246340658516
-0.0427955260965973
-0.0228904860559851
-0.144808856304735
-0.017914226045832
-0.0054735760204494
0.00696707400493324
0.0467771540861577
-0.0204023560509086
0.0467771540861577
0.071658454136923
-0.0328430060762912
-0.0751412161625922
0.0119433340150863
0.00447894399985671
0.00696707400493324
-0.0403073960915208
-0.0204023560509086
0.0492652840912342
0.034336504060775
-0.107486906228587
-0.0577243061270565
-0.0154260960407555
-0.0651886961422861
-0.0054735760204494
-0.0253786160610616
0.0617059341166168
-0.0253786160610616
-0.0502599161118269
-0.0403073960915208
0.0393127640709281
-0.0925581261981279
0.0194077240303159
0.0268721140455455
-0.0477717861067504
-0.0353311360813677
-0.0353311360813677
-0.012937966035679
0.0492652840912342
0.0467771540861577
-0.00796170602552593
-0.0403073960915208
-0.0054735760204494
-0.0452836561016738
-0.0204023560509086
-0.0577243061270565
0.00199081399478018
0.0816109741572291
-0.127391946269199
0.0418008940760046
0.0318483740556985
-0.0403073960915208
-0.000497316010296345
-0.0054735760204494
0.0517534140963107
0.0890753641724586
0.0268721140455455
-0.00298544601537287
-0.00796170602552593
0.029360244050622
0.0592178041115403
0.0194077240303159
-0.00796170602552593
-0.0278667460661381
-0.0204023560509086
0.0194077240303159
0.0218958540353924
-0.0427955260965973
0.0467771540861577
-0.0303548760712147
0.0567296741064638
0.029360244050622
0.121421054238454
0.153766744304448
0.255780074512586
0.101516014197841
0.133861704263836
0.230898774461821
0.18113617436029
0.24582755449228
0.327935844659805
0.148790484294295
0.206017474411055
0.168695524334908
0.215969994431362
0.24582755449228
0.218458124436438
0.146302354289219
0.113956664223224
0.0915634941775352
0.12390918424353
0.0791228441521525
0.0617059341166168
0.0268721140455455
-0.0701649561524391
-0.00796170602552593
-0.142320726299658
-0.0303548760712147
-0.209500236436725
-0.0826056061778218
-0.0253786160610616
-0.107486906228587
-0.0975343862082809
-0.109975036233664
0.00447894399985671
-0.0403073960915208
-0.109975036233664
-0.0403073960915208
-0.0104498360306025
-0.0676768261473626
-0.0477717861067504
0.00199081399478018
0.0791228441521525
-0.134856336284429
0.0890753641724586
0.034336504060775
-0.0676768261473626
-0.132368206279352
-0.192083326401189
-0.162225766340271
-0.351323646726087
-0.408550636842847
-0.505587707040831
-0.468265756964684
-0.137344466289505
-0.0726530861575156
0.196064954390749
0.586701365187764
0.994754686020315
1.46501125697978
1.83574262773618
2.25623659859411
2.58466975926422
2.10197253827937
1.50979759707116
0.780775505583733
0.118932924233377
-0.590184127213433
-1.10522703826427
-1.28686052863486
-1.4311720689293
-1.35901629878208
-1.25949109857902
-1.07536947820336
-0.903688507853076
-0.493147057015449
-0.202035846421495
-0.0701649561524391
-0.00298544601537287
-0.0054735760204494
0.00945520401000977
0.071658454136923
0.0169195940252393
0.0965397541876882
0.0218958540353924
0.0666821941267699
0.029360244050622
0.0816109741572291
0.143814224284142
0.0641940641216934
0.0492652840912342
0.076634714147076
0.163719264324754
0.0119433340150863
0.0915634941775352
0.121421054238454
0.178648044355214
0.161231134319678
0.128885444253683
0.0418008940760046
0.121421054238454
0.076634714147076
0.0666821941267699
0.138837964273989
0.121421054238454
0.191088694380596
0.143814224284142
0.106492274207994
0.168695524334908
0.148790484294295
0.215969994431362
0.106492274207994
0.206017474411055
0.208505604416132
0.223434384446591
0.201041214400902
0.138837964273989
0.215969994431362
0.213481864426285
0.263244464527816
0.118932924233377
0.206017474411055
0.208505604416132
0.163719264324754
0.176159914350137
0.118932924233377
0.0791228441521525
0.0641940641216934
0.0393127640709281
0.191088694380596
0.156254874309525
0.0592178041115403
0.0641940641216934
-0.0054735760204494
-0.109975036233664
-0.000497316010296345
0.029360244050622
0.0641940641216934
-0.0403073960915208
-0.11992755625397
-0.0651886961422861
-0.0452836561016738
-0.0154260960407555
0.00447894399985671
-0.0975343862082809
-0.0378192660864443
-0.172178286360577
-0.124903816264123
-0.142320726299658
-0.060212436132133
-0.221940886462107
-0.24184592650272
-0.0925581261981279
-0.11246316623874
-0.221940886462107
-0.0900699961930513
-0.0228904860559851
-0.0776293461676687
-0.142320726299658
-0.107486906228587
-0.124903816264123
-0.137344466289505
-0.17715454637073
-0.184618936385959
-0.239357796497643
-0.0527480461169034
-0.246822186512873
-0.129880076274276
-0.0477717861067504
-0.0751412161625922
-0.0627005661372095
-0.0801174761727452
-0.0378192660864443
-0.0204023560509086
