# TIPE ECG 2021 - ECG-ID Database v1.0.0 par Physionet
# [Numéro de la personne, Période d'échantillonnage, Prénom, Age, Sexe, Date de l'enregistrement]
[01, 0.002, Paul, 25, H, 26.04.2005]
0.37
0.19
0.065
0.045
0.07
0.045
0.255
0.33
0.295
0.38
0.195
0.2
0.175
0.01
0.0
0.115
0.155
0.285
0.385
0.31
0.255
0.295
0.12
-0.045
0.0
0.155
0.12
0.38
0.31
0.39
0.305
0.205
0.16
0.05
-0.12
0.085
0.18
0.355
0.245
0.295
0.26
0.215
0.145
0.05
-0.01
0.145
0.075
0.305
0.295
0.395
0.32
0.15
0.135
0.005
0.005
0.16
0.23
0.32
0.325
0.37
0.275
0.105
-0.035
0.025
0.05
0.065
0.175
0.335
0.45
0.295
0.175
0.13
-0.03
-0.085
0.06
0.135
0.175
0.38
0.35
0.375
0.2
0.095
0.055
0.03
-0.035
0.16
0.21
0.455
0.31
0.275
0.205
0.09
-0.01
-0.095
-0.035
0.145
0.285
0.3
0.33
0.31
0.215
0.075
0.055
0.105
0.045
0.015
0.125
0.375
0.535
0.39
0.225
0.17
0.025
0.01
0.07
0.2
0.255
0.3
0.41
0.235
0.195
0.02
0.22
-0.015
0.005
0.105
0.34
0.31
0.3
0.37
0.21
0.265
0.155
-0.005
0.175
0.185
0.24
0.31
0.295
0.285
0.215
0.07
0.13
-0.005
-0.015
0.075
0.205
0.275
0.46
0.145
0.12
0.12
-0.07
-0.05
0.16
0.06
0.14
0.335
0.41
0.275
0.135
0.11
0.03
-0.105
-0.055
0.125
0.215
0.23
0.36
0.275
0.205
0.05
-0.025
-0.005
0.025
0.075
0.175
0.29
0.375
0.275
0.145
0.04
-0.07
-0.13
0.095
0.115
0.115
0.38
0.31
0.18
0.11
0.015
-0.04
0.0
0.23
0.335
0.34
0.58
0.635
0.655
0.605
0.59
0.535
0.665
0.715
0.925
0.885
0.9
0.925
0.71
0.47
0.235
0.05
-0.14
-0.16
0.13
0.235
0.285
0.175
0.06
0.06
0.085
0.005
0.035
0.125
0.185
0.185
0.34
0.335
0.29
0.04
-0.05
0.11
-0.03
0.08
0.23
0.205
0.295
0.285
0.315
0.075
0.095
0.04
-0.015
0.085
0.295
0.31
0.225
0.325
0.31
0.13
0.015
0.045
0.11
0.055
0.275
0.225
0.315
0.4
0.385
0.215
0.045
-0.01
0.045
0.12
0.3
0.34
0.405
0.195
0.2
0.085
0.005
0.09
0.19
0.27
0.225
0.255
0.5
0.355
0.22
0.11
0.075
0.08
0.085
0.33
0.22
0.37
0.475
0.29
0.265
0.275
0.08
-0.045
0.1
0.185
0.37
0.435
0.535
0.445
0.36
0.3
0.175
0.075
0.16
0.32
0.42
0.605
0.585
0.355
0.41
0.3
0.19
0.07
0.11
0.425
0.7
0.535
0.475
0.555
0.455
0.24
0.215
0.15
0.285
0.395
0.48
0.53
0.385
0.245
0.215
0.27
0.27
0.165
0.22
0.32
0.45
0.46
0.39
0.29
0.235
0.265
0.145
0.055
0.055
0.225
0.35
0.395
0.34
0.215
0.355
0.145
0.005
0.025
-0.02
0.2
0.175
0.2
0.305
0.305
0.09
0.055
0.145
-0.065
0.035
0.1
0.27
0.36
0.405
0.265
0.07
0.09
-0.045
-0.02
0.085
0.24
0.22
0.255
0.23
0.2
0.175
0.11
-0.075
0.02
0.09
0.13
0.185
0.34
0.29
0.18
0.135
0.18
-0.165
-0.065
0.26
0.255
0.29
0.34
0.35
0.28
0.115
0.01
-0.09
0.02
0.1
0.175
0.32
0.4
0.25
0.415
0.08
0.03
-0.07
0.01
0.135
0.215
0.325
0.43
0.275
0.285
0.07
0.025
-0.04
0.145
0.15
0.315
0.355
0.26
0.16
0.16
0.18
-0.075
0.055
0.125
0.205
0.275
0.25
0.385
0.35
0.26
0.115
-0.04
-0.17
0.065
0.255
0.155
0.37
0.48
0.35
0.195
0.055
-0.035
-0.13
0.045
0.25
0.305
0.385
0.39
0.195
0.145
0.06
-0.07
-0.105
0.105
0.245
0.26
0.275
0.315
0.255
0.2
0.095
0.0
-0.185
0.025
0.27
0.26
0.135
0.385
0.35
0.135
0.2
0.09
-0.05
0.115
0.18
0.16
0.285
0.315
0.24
0.13
0.105
-0.005
-0.075
0.07
0.175
0.27
0.255
0.335
0.195
0.2
0.085
-0.045
-0.24
-0.065
0.305
0.29
0.325
0.49
0.26
0.175
-0.05
-0.09
-0.105
0.06
0.3
0.345
0.3
0.385
0.305
0.185
-0.005
-0.125
-0.13
0.045
0.215
0.325
0.33
0.365
0.295
0.165
0.045
-0.095
-0.035
0.135
0.235
0.295
0.45
0.445
0.295
0.175
0.03
0.1
0.09
0.055
0.155
0.445
0.32
0.305
0.16
0.175
0.265
0.02
-0.02
0.19
0.255
0.32
0.405
0.3
0.355
0.15
-0.02
-0.105
0.095
0.18
0.27
0.315
0.35
0.18
0.14
0.185
0.025
-0.065
-0.005
0.155
0.21
0.27
0.415
0.165
0.15
0.145
0.085
-0.05
0.055
0.12
0.215
0.245
0.39
0.22
0.185
0.02
-0.085
-0.065
-0.015
0.175
0.235
0.355
0.35
0.235
0.145
0.04
0.02
-0.045
0.115
0.055
0.24
0.365
0.44
0.21
0.12
0.045
-0.105
-0.095
-0.06
0.085
0.245
0.295
0.385
0.41
0.3
0.185
0.305
0.25
0.24
0.4
0.665
0.95
1.145
1.0
0.89
0.82
0.64
0.58
0.585
0.66
0.385
0.445
0.54
0.265
0.01
-0.08
-0.04
0.01
0.015
0.235
0.27
0.255
0.405
0.345
0.175
-0.01
0.065
0.01
0.17
0.18
0.125
0.185
0.46
0.245
0.145
0.1
-0.085
-0.03
0.1
0.255
0.32
0.36
0.375
0.335
0.12
0.05
0.015
0.055
0.14
0.24
0.305
0.345
0.415
0.34
0.155
-0.01
-0.04
0.03
0.2
0.065
0.32
0.47
0.355
0.325
0.165
0.135
0.055
0.12
0.04
0.205
0.345
0.445
0.345
0.22
0.19
0.205
0.105
0.04
0.185
0.315
0.4
0.425
0.395
0.33
0.265
0.075
-0.02
0.085
0.14
0.235
0.535
0.5
0.435
0.315
0.245
0.18
0.1
0.165
0.335
0.47
0.385
0.64
0.515
0.36
0.315
0.23
0.23
0.255
0.41
0.405
0.515
0.56
0.435
0.395
0.34
0.245
0.09
0.255
0.52
0.515
0.595
0.65
0.575
0.41
0.3
0.165
0.02
0.26
0.37
0.505
0.59
0.52
0.505
0.41
0.215
0.19
0.175
0.175
0.245
0.345
0.38
0.45
0.34
0.315
0.085
0.135
0.055
0.13
0.12
0.325
0.295
0.3
0.25
0.155
0.22
0.125
-0.025
0.13
0.13
0.295
0.31
0.48
0.265
0.14
0.165
-0.05
-0.04
0.1
0.135
0.25
0.245
0.325
0.345
0.185
0.12
0.11
-0.05
-0.04
0.1
0.2
0.32
0.455
0.355
0.1
0.035
0.06
-0.01
0.125
0.2
0.26
0.23
0.325
0.29
0.255
-0.035
0.07
-0.01
-0.09
0.14
0.325
0.315
0.325
0.25
0.19
0.09
-0.095
0.01
0.11
0.28
0.34
0.35
0.27
0.24
0.17
0.16
0.06
-0.025
0.05
0.3
0.34
0.21
0.215
0.22
0.12
0.03
0.08
0.02
0.18
0.36
0.305
0.29
0.325
0.235
0.06
-0.045
0.035
0.155
0.115
0.315
0.425
0.285
0.17
0.255
0.145
0.075
0.005
0.03
0.105
0.195
0.245
0.38
0.205
0.2
0.01
-0.04
-0.01
0.155
0.185
0.16
0.35
0.315
0.26
0.255
0.03
0.03
0.025
0.11
0.085
0.245
0.355
0.365
0.295
0.17
0.15
0.005
-0.065
-0.005
-0.065
0.285
0.435
0.35
0.135
0.14
0.035
-0.045
0.015
0.075
0.11
0.31
0.415
0.485
0.28
0.13
0.075
0.11
-0.035
0.075
0.115
0.255
0.21
0.355
0.25
0.15
0.025
-0.135
-0.085
0.075
0.275
0.235
0.335
0.215
0.15
0.0
-0.02
0.095
-0.035
0.145
0.265
0.325
0.325
0.32
0.15
0.12
0.155
0.135
0.035
0.11
0.23
0.27
0.28
0.365
0.22
0.095
0.06
-0.04
0.08
0.12
0.13
0.16
0.23
0.42
0.375
0.165
0.055
0.05
0.135
0.205
0.21
0.32
0.395
0.36
0.255
0.055
0.07
0.05
0.02
0.225
0.31
0.275
0.32
0.335
0.22
0.16
-0.125
-0.03
-0.02
0.085
0.23
0.185
0.235
0.385
0.27
0.12
-0.015
-0.105
-0.085
0.05
0.15
0.405
0.34
0.245
0.185
0.125
0.15
-0.185
0.01
0.075
0.21
0.075
0.325
0.315
0.17
0.125
0.085
-0.11
-0.075
0.1
0.1
0.215
0.48
0.37
0.285
0.065
-0.16
-0.19
-0.01
0.175
0.275
0.18
0.315
0.14
0.205
0.115
0.165
0.03
0.15
0.36
0.415
0.66
0.9
0.76
0.845
0.805
0.715
0.615
0.76
0.66
0.645
0.69
0.69
0.355
0.305
0.185
-0.04
-0.135
-0.155
0.025
0.235
0.16
0.395
0.24
0.225
0.025
-0.06
0.01
0.02
0.08
0.255
0.35
0.43
0.27
0.205
0.13
0.06
0.04
0.125
0.17
0.29
0.225
0.325
0.135
0.08
0.16
0.1
0.07
0.135
0.175
0.265
0.355
0.335
0.155
0.235
0.14
-0.09
-0.02
0.05
0.21
0.27
0.375
0.48
0.345
0.205
-0.04
-0.1
0.08
0.115
0.19
0.41
0.485
0.44
0.28
0.145
0.005
-0.04
-0.125
0.115
0.35
0.4
0.32
0.415
0.375
0.165
0.07
0.085
0.045
0.215
0.335
0.36
0.415
0.395
0.26
0.17
0.13
0.13
0.225
0.185
0.325
0.355
0.495
0.47
0.405
0.285
0.165
-0.055
0.07
0.445
0.565
0.52
0.58
0.545
0.425
0.335
0.245
0.165
0.22
0.22
0.37
0.375
0.57
0.535
0.495
0.425
0.215
0.26
0.16
0.215
0.38
0.515
0.495
0.425
0.435
0.2
0.2
0.165
0.3
0.265
0.31
0.305
0.435
0.38
0.305
0.195
0.115
0.045
0.0
0.215
0.33
0.39
0.375
0.29
0.28
0.05
0.015
-0.13
0.015
0.195
0.085
0.27
0.475
0.39
0.155
0.065
-0.01
-0.135
0.015
0.18
0.3
0.37
0.4
0.25
0.145
0.125
-0.055
-0.1
-0.085
0.1
0.28
0.38
0.495
0.275
0.125
-0.015
-0.09
-0.05
0.105
0.09
0.11
0.36
0.425
0.245
0.235
-0.005
-0.02
0.035
0.06
0.15
0.3
0.325
0.35
0.285
0.16
0.07
0.05
-0.07
0.055
0.2
0.26
0.35
0.315
0.225
0.175
0.085
-0.035
0.045
0.12
0.22
0.175
0.155
0.465
0.305
0.095
-0.05
0.06
0.11
0.065
0.37
0.32
0.37
0.36
0.305
0.115
0.03
-0.04
-0.14
-0.045
0.33
0.375
0.365
0.46
0.195
0.05
-0.02
-0.255
-0.11
0.27
0.345
0.38
0.29
0.31
0.265
0.125
0.03
-0.035
0.035
0.135
0.205
0.28
0.295
0.23
0.305
0.185
0.055
-0.09
-0.09
-0.05
0.29
0.23
0.25
0.345
0.355
0.175
0.09
-0.04
-0.03
0.03
0.22
0.275
0.45
0.37
0.09
0.06
0.035
-0.1
-0.04
0.1
0.225
0.435
0.37
0.285
0.135
0.125
-0.11
-0.15
0.05
0.185
0.125
0.21
0.455
0.285
0.195
0.07
-0.055
0.035
-0.005
0.185
0.31
0.24
0.35
0.235
0.155
0.07
-0.04
0.065
0.1
0.115
0.19
0.42
0.305
0.25
0.195
0.165
0.045
-0.02
0.105
0.09
0.18
0.36
0.3
0.385
0.215
0.11
0.15
0.075
0.06
0.25
0.31
0.395
0.415
0.19
0.155
0.01
0.12
0.1
0.17
0.305
0.265
0.42
0.375
0.21
-0.01
0.085
-0.035
-0.005
0.025
0.175
0.37
0.21
0.345
0.185
0.15
0.09
-0.125
-0.015
0.18
0.225
0.285
0.345
0.305
0.135
0.105
0.0
-0.105
-0.1
0.09
0.24
0.4
0.29
0.335
0.155
0.14
-0.005
-0.015
-0.115
0.105
0.2
0.17
0.315
0.225
0.205
0.18
0.015
-0.065
-0.075
0.11
0.11
0.17
0.375
0.33
0.19
0.13
-0.15
-0.095
-0.06
0.17
0.21
0.37
0.475
0.46
0.535
0.635
0.59
0.39
0.535
0.77
0.955
1.01
0.935
0.965
0.79
0.55
0.44
0.255
0.22
0.18
0.19
0.215
0.255
0.24
0.07
-0.14
-0.11
-0.09
0.13
0.165
0.195
0.325
0.42
0.31
0.285
0.13
0.03
-0.015
0.03
0.125
0.15
0.095
0.37
0.46
0.235
0.095
-0.01
-0.02
0.1
0.125
0.225
0.305
0.335
0.155
0.16
0.075
0.16
0.02
0.085
0.095
0.195
0.38
0.4
0.35
0.22
0.12
0.07
-0.05
0.115
0.23
0.22
0.295
0.365
0.32
0.225
0.14
0.075
-0.015
0.11
0.155
0.285
0.31
0.385
0.365
0.195
0.01
0.105
0.105
0.125
0.165
0.35
0.425
0.49
0.42
0.23
0.09
0.025
-0.035
0.115
0.39
0.39
0.385
0.645
0.315
0.3
0.19
0.235
0.205
0.2
0.36
0.43
0.475
0.54
0.45
0.19
0.105
0.2
0.18
0.355
0.47
0.505
0.52
0.575
0.275
0.31
0.295
0.215
0.23
0.345
0.505
0.51
0.51
0.545
0.425
0.345
0.2
0.07
0.11
0.245
0.315
0.445
0.635
0.415
0.31
0.22
0.11
0.03
0.04
0.12
0.29
0.275
0.405
0.535
0.37
0.105
0.115
0.055
0.06
0.13
0.245
0.295
0.275
0.375
0.25
0.14
0.025
-0.035
0.04
0.075
0.15
0.165
0.45
0.49
0.23
0.015
-0.105
-0.07
0.07
0.12
0.21
0.21
0.295
0.3
0.255
0.1
-0.155
0.065
0.155
0.14
0.33
0.29
0.33
0.285
0.29
0.145
0.04
-0.16
0.005
0.075
0.12
0.05
0.355
0.375
0.195
0.105
0.07
0.025
0.035
0.115
0.21
0.34
0.365
0.21
0.175
0.085
0.005
0.09
0.1
0.195
0.275
0.37
0.425
0.3
0.21
0.02
0.15
-0.1
-0.06
0.125
0.25
0.305
0.33
0.255
0.14
-0.005
-0.035
-0.03
0.155
0.3
0.305
0.195
0.405
0.27
0.2
0.065
0.03
-0.1
0.11
0.3
0.235
0.38
0.35
0.23
0.175
0.06
0.09
-0.04
0.095
0.165
0.235
0.34
0.25
0.22
0.075
-0.04
-0.02
0.07
0.095
0.13
0.25
0.335
0.475
0.15
0.185
-0.005
-0.05
-0.095
0.06
0.29
0.275
0.38
0.415
0.25
0.115
0.015
-0.11
-0.08
0.085
0.14
0.21
0.3
0.43
0.335
0.02
0.04
-0.025
0.015
0.02
0.185
0.285
0.245
0.355
0.255
0.095
-0.01
-0.18
-0.15
0.11
0.285
0.295
0.405
0.31
0.195
0.17
-0.075
-0.05
-0.06
0.06
0.18
0.21
0.43
0.29
0.12
0.045
0.025
-0.01
0.15
0.19
0.135
0.28
0.345
0.165
0.105
0.145
0.05
-0.025
-0.085
0.015
0.215
0.34
0.375
0.165
0.175
0.095
0.04
-0.08
0.055
0.135
0.185
0.34
0.385
0.255
0.15
0.05
-0.015
-0.09
0.095
0.275
0.335
0.3
0.36
0.215
0.23
0.115
0.105
-0.1
0.02
0.145
0.28
0.335
0.445
0.44
0.295
0.09
0.025
-0.025
0.2
0.16
0.12
0.25
0.405
0.315
0.09
-0.015
-0.07
-0.02
0.04
0.105
0.13
0.185
0.35
0.33
0.08
0.05
0.045
-0.08
0.02
0.115
0.295
0.365
0.325
0.27
0.03
-0.05
-0.035
-0.1
-0.02
0.125
0.165
0.285
0.3
0.26
0.105
0.005
-0.06
-0.045
0.085
0.065
0.15
0.295
0.325
0.19
-0.06
0.03
0.01
-0.02
-0.01
0.085
0.25
0.285
0.315
0.165
-0.01
-0.14
0.0
0.105
0.19
0.275
0.36
0.535
0.61
0.495
0.43
0.595
0.705
0.56
0.77
0.945
0.885
0.895
0.81
0.76
0.53
0.185
0.065
-0.08
-0.11
0.035
0.1
0.3
0.29
0.24
0.07
-0.075
-0.095
0.09
0.16
0.165
0.145
0.24
0.22
0.185
0.085
0.145
-0.005
0.105
0.095
0.14
0.12
0.205
0.405
0.3
0.16
0.035
0.01
0.06
0.04
-0.165
0.295
0.53
0.365
0.155
0.12
0.055
-0.025
0.035
0.15
0.205
0.28
0.345
0.28
0.14
-0.015
-0.02
-0.03
0.13
0.225
0.245
0.23
0.34
0.28
0.215
0.18
0.08
0.055
0.145
0.125
0.19
0.295
0.425
0.33
0.28
0.025
0.005
0.11
0.195
0.285
0.315
0.405
0.29
0.19
0.225
0.245
-0.005
0.03
0.215
0.295
0.36
0.34
0.38
0.405
0.315
0.165
0.185
0.22
0.265
0.34
0.37
0.46
0.44
0.56
0.36
0.205
0.14
0.13
0.22
0.38
0.495
0.49
0.555
0.425
0.365
0.38
0.265
0.2
0.265
0.49
0.41
0.495
0.42
0.33
0.32
0.23
0.035
0.105
0.33
0.23
0.26
0.445
0.625
0.515
0.25
0.315
0.13
0.005
0.08
0.17
0.24
0.325
0.41
0.3
0.18
0.13
0.055
-0.035
0.08
0.12
0.385
0.455
0.27
0.205
0.055
0.065
-0.09
-0.07
0.11
0.275
0.215
0.31
0.23
0.09
-0.065
-0.04
0.095
0.025
0.175
0.235
0.325
0.35
0.275
0.135
0.035
0.02
-0.06
-0.125
0.1
0.185
0.295
0.365
0.39
0.185
0.065
0.0
-0.015
0.0
-0.005
0.225
0.38
0.365
0.145
0.145
0.03
0.05
-0.01
0.195
0.2
0.095
0.21
0.37
0.26
0.225
0.055
-0.035
-0.07
-0.06
0.085
0.365
0.325
0.395
0.18
0.2
0.01
0.085
0.045
-0.055
-0.035
0.195
0.58
0.43
0.29
0.215
0.12
0.085
-0.06
0.065
0.2
0.235
0.28
0.28
0.145
0.105
0.045
-0.01
0.01
0.085
0.235
0.275
0.33
0.31
0.235
0.12
0.13
-0.035
-0.045
0.11
0.13
0.205
0.395
0.43
0.285
0.08
0.09
0.025
-0.065
0.075
0.095
0.125
0.32
0.38
0.265
0.12
-0.13
-0.125
-0.015
0.105
0.145
0.23
0.315
0.265
0.29
0.12
0.115
0.06
-0.085
0.075
0.125
0.325
0.35
0.345
0.295
0.12
0.05
-0.04
-0.18
-0.03
0.07
0.295
0.415
0.365
0.205
0.09
0.01
-0.215
-0.24
0.025
0.195
0.33
0.35
0.415
0.255
0.11
-0.08
-0.025
0.05
-0.045
0.13
0.31
0.27
0.295
0.235
0.06
-0.005
-0.025
0.05
0.11
0.12
0.33
0.455
0.365
0.195
0.08
-0.035
-0.23
-0.165
0.165
0.18
0.29
0.405
0.175
0.19
0.12
0.01
-0.125
-0.175
0.08
0.235
0.285
0.41
0.375
0.215
0.17
0.055
-0.155
0.095
0.095
0.205
0.24
0.34
0.36
0.175
0.19
0.115
-0.025
0.06
0.075
0.26
0.21
0.25
0.26
0.21
0.14
0.065
0.04
0.14
0.22
0.26
0.255
0.38
0.36
0.215
-0.005
0.16
0.035
-0.02
0.1
0.2
0.335
0.52
0.345
0.19
0.0
-0.035
-0.02
-0.03
0.045
0.17
0.275
0.295
0.105
0.08
0.11
-0.065
-0.125
0.045
0.08
0.315
0.295
0.28
0.24
0.205
-0.135
-0.09
0.0
0.005
0.28
0.41
0.26
0.255
0.16
0.07
-0.02
-0.11
-0.125
0.2
0.135
0.225
0.36
0.245
0.16
0.125
-0.07
-0.025
-0.095
-0.065
0.06
0.21
0.22
0.285
0.135
-0.01
0.01
0.015
0.11
0.17
0.38
0.485
0.715
0.94
0.925
0.85
0.785
0.66
0.655
0.675
0.76
0.845
0.7
0.7
0.445
0.18
0.005
-0.23
-0.27
-0.115
0.045
0.2
0.26
0.25
0.18
0.07
0.03
-0.015
-0.145
0.085
0.165
0.2
0.37
0.355
0.145
0.105
-0.005
-0.045
0.015
0.14
0.055
0.275
0.325
0.365
0.21
0.15
0.025
-0.05
0.045
0.125
0.29
0.255
0.35
0.275
0.135
-0.13
-0.125
0.07
0.08
0.265
0.305
0.245
0.41
0.295
0.19
0.135
-0.01
0.115
0.115
0.095
0.195
0.33
0.3
0.3
0.23
0.095
0.065
-0.025
0.02
0.115
0.365
0.345
0.405
0.295
0.295
0.075
-0.02
-0.035
0.17
0.235
0.24
0.425
0.535
0.21
0.135
0.17
0.23
0.07
0.195
0.225
0.37
0.475
0.465
0.42
0.485
0.145
0.04
0.055
0.265
0.295
0.47
0.625
0.595
0.445
0.35
0.205
0.175
0.055
0.335
0.4
0.405
0.49
0.51
0.495
0.365
0.155
0.22
0.09
0.165
0.365
0.545
0.62
0.59
0.455
0.245
0.055
0.075
0.145
0.095
0.315
0.47
0.415
0.405
0.305
0.23
0.23
0.165
0.025
0.135
0.2
0.225
0.36
0.4
0.175
0.125
-0.065
-0.135
0.1
-0.025
0.13
0.185
0.315
0.53
0.265
0.11
-0.005
-0.03
-0.105
0.065
0.22
0.375
0.21
0.215
0.24
0.165
0.045
-0.115
-0.035
0.11
0.11
0.24
0.25
0.29
0.215
0.12
0.07
-0.05
-0.125
0.005
0.1
0.17
0.3
0.325
0.32
0.15
0.035
-0.055
-0.01
0.025
0.055
0.38
0.295
0.3
0.25
0.03
0.075
-0.015
-0.105
0.0
0.125
0.325
0.45
0.32
0.19
0.21
0.12
-0.125
0.055
0.18
0.115
0.24
0.305
0.25
0.255
0.1
-0.035
-0.11
0.07
0.08
0.175
0.24
0.39
0.4
0.275
0.055
0.0
-0.105
-0.16
0.24
0.265
0.215
0.375
0.14
0.235
0.1
-0.07
-0.075
0.055
0.07
0.35
0.35
0.345
0.255
0.195
0.03
0.0
-0.04
0.12
0.095
0.13
0.185
0.215
0.325
0.235
-0.01
0.075
0.015
-0.04
0.05
0.115
0.245
0.365
0.165
0.155
0.01
-0.01
-0.03
0.105
0.125
0.165
0.28
0.35
0.17
0.07
0.025
-0.015
-0.085
-0.075
0.02
0.225
0.435
0.4
0.255
0.055
-0.005
0.025
-0.065
0.01
0.09
0.305
0.2
0.235
0.2
0.09
0.08
0.02
-0.11
-0.045
0.09
0.21
0.265
0.22
0.11
0.005
0.035
0.015
-0.09
0.055
0.15
0.25
0.4
0.395
0.215
0.14
-0.11
-0.1
-0.055
0.005
0.125
0.325
0.295
0.275
0.195
0.14
0.18
0.005
-0.03
0.13
0.22
0.3
0.3
0.23
0.145
0.06
0.025
-0.07
0.01
0.145
0.29
0.315
0.41
0.355
0.23
0.13
0.04
-0.09
0.035
0.095
0.175
0.195
0.325
0.23
0.24
0.095
0.005
-0.03
-0.015
0.085
0.26
0.315
0.3
0.215
-0.05
-0.09
-0.09
-0.055
0.065
0.135
0.165
0.2
0.31
0.2
0.25
0.09
-0.055
-0.075
0.06
-0.01
0.09
0.265
0.335
0.33
0.07
0.005
-0.075
-0.19
-0.015
0.075
0.225
0.235
0.22
0.295
0.2
-0.015
-0.125
-0.16
-0.075
0.025
0.305
0.325
0.275
0.16
-0.08
-0.005
-0.085
-0.015
-0.015
0.12
0.375
0.54
0.645
0.435
0.45
0.655
0.465
0.515
0.725
0.85
0.795
0.95
0.88
0.715
0.54
0.215
0.0
-0.01
0.0
0.03
0.0
0.02
0.145
-0.005
0.035
0.085
0.06
-0.07
-0.005
0.1
0.235
0.32
0.24
0.255
0.12
0.03
-0.035
-0.1
-0.14
0.225
0.275
0.33
0.345
0.205
0.05
-0.025
-0.105
-0.09
0.11
0.185
0.185
0.175
0.395
0.28
0.205
0.01
-0.045
-0.1
0.015
0.195
0.26
0.335
0.32
0.16
0.105
0.035
-0.03
-0.01
0.09
0.205
0.175
0.365
0.42
0.24
0.065
0.005
-0.01
-0.02
-0.045
0.23
0.395
0.425
0.295
0.19
0.275
0.085
0.095
0.12
0.06
0.18
0.25
0.34
0.375
0.265
0.135
0.025
0.03
0.13
0.185
0.36
0.465
0.41
0.405
0.335
0.33
0.085
0.025
0.015
0.205
0.36
0.505
0.59
0.425
0.345
0.295
0.22
0.19
0.185
0.34
0.44
0.465
0.54
0.48
0.41
0.25
0.235
0.09
0.115
0.19
0.295
0.585
0.59
0.275
0.345
0.145
0.13
0.145
0.215
0.375
0.31
0.38
0.43
0.275
0.18
0.265
0.18
0.055
0.08
0.17
0.29
0.31
0.41
0.275
0.14
0.015
-0.02
-0.135
-0.05
0.05
0.295
0.32
0.33
0.27
0.15
0.025
-0.03
-0.105
0.01
0.165
0.205
0.25
0.285
0.265
0.06
0.015
-0.025
-0.12
-0.07
0.125
0.265
0.3
0.3
0.29
0.2
-0.06
-0.22
-0.095
0.105
0.175
0.275
0.335
0.37
0.195
0.035
-0.02
-0.185
-0.245
0.165
0.25
0.175
0.33
0.395
0.24
0.13
0.035
-0.06
-0.01
0.02
0.16
0.225
0.2
0.335
0.195
0.05
0.105
-0.01
0.11
0.12
0.19
0.31
0.29
0.27
0.09
0.075
0.035
0.03
0.105
0.065
0.125
0.28
0.355
0.185
0.195
0.11
0.005
-0.085
-0.095
0.175
0.225
0.22
0.26
0.38
0.195
0.13
-0.09
-0.02
0.115
0.095
0.145
0.175
0.26
0.27
0.22
0.12
-0.05
-0.065
0.075
0.035
0.155
0.285
0.245
0.135
0.225
0.125
-0.02
-0.11
-0.05
0.05
0.125
0.17
0.43
0.43
0.13
0.02
-0.005
-0.07
0.03
0.07
0.145
0.23
0.335
0.22
0.155
-0.005
-0.025
-0.03
0.005
0.13
0.135
0.245
0.415
0.225
0.06
0.05
-0.01
-0.17
0.02
0.135
0.17
0.26
0.27
0.29
0.18
0.025
-0.05
-0.135
-0.035
0.12
0.25
0.195
0.305
0.255
0.015
0.02
-0.01
-0.085
0.06
0.12
0.26
0.27
0.24
0.165
0.06
-0.11
-0.04
-0.075
0.07
0.135
0.255
0.375
0.3
0.085
0.045
0.035
0.04
-0.14
-0.01
0.15
0.23
0.205
0.255
0.245
0.06
0.09
0.085
-0.005
0.035
0.18
0.245
0.31
0.295
0.195
0.05
0.09
0.01
-0.21
0.03
0.28
0.3
0.39
0.375
0.2
0.195
0.235
0.1
-0.165
0.01
0.195
0.31
0.3
0.32
0.235
0.085
-0.065
0.08
-0.095
0.205
0.305
0.32
0.24
0.3
0.17
0.05
0.04
-0.06
-0.055
-0.04
0.13
0.155
0.31
0.355
0.295
0.18
0.065
-0.1
0.02
0.035
0.195
0.265
0.305
0.245
0.11
-0.17
-0.13
0.1
0.145
0.04
0.26
0.225
0.29
0.24
0.185
0.045
0.015
-0.18
-0.075
-0.065
0.005
0.19
0.355
0.325
0.18
0.01
0.1
-0.02
-0.02
0.04
0.24
0.215
0.2
-0.02
0.155
0.065
0.015
0.07
0.185
0.34
0.395
0.495
0.67
0.53
0.77
0.67
0.655
0.7
0.625
0.695
0.86
0.945
0.805
0.53
0.38
0.2
-0.085
-0.2
-0.16
-0.005
0.025
0.25
0.255
0.23
0.16
0.085
0.04
-0.02
0.025
0.13
0.19
0.275
0.275
0.2
-0.075
0.005
-0.02
-0.01
0.03
0.255
0.24
0.33
0.38
0.1
-0.01
0.005
0.025
-0.04
0.02
0.19
0.315
0.275
0.28
0.315
0.17
0.145
-0.005
-0.17
0.02
0.165
0.235
0.33
0.31
0.165
0.19
0.005
0.065
0.005
0.035
0.16
0.33
0.35
0.395
0.235
-0.035
0.08
0.1
0.015
0.15
0.155
0.345
0.405
0.38
0.26
0.185
0.015
0.05
0.085
0.01
0.24
0.295
0.32
0.4
0.31
0.22
0.115
-0.04
0.185
0.24
0.335
0.355
0.36
0.415
0.34
0.1
0.165
0.11
0.195
0.245
0.43
0.4
0.585
0.55
0.39
0.295
0.25
0.14
0.14
0.24
0.375
0.49
0.555
0.455
0.485
0.325
0.24
0.17
0.24
0.26
0.305
0.485
0.465
0.49
0.47
0.255
0.115
0.025
0.13
0.245
0.315
0.38
0.445
0.335
0.365
0.165
-0.055
-0.035
0.11
0.225
0.25
0.23
0.37
0.435
0.235
0.05
-0.01
-0.015
0.1
0.135
0.165
0.335
0.285
0.26
0.12
0.01
-0.03
-0.07
-0.015
0.125
0.305
0.345
0.42
0.225
0.125
0.07
-0.005
-0.135
-0.02
0.095
0.32
0.22
0.295
0.175
0.065
0.055
0.13
-0.165
0.03
0.18
0.295
0.355
0.355
0.245
0.16
0.045
-0.07
-0.135
-0.045
-0.01
0.065
0.39
0.45
0.275
0.175
0.025
0.11
0.085
-0.02
0.14
0.18
0.3
0.34
0.235
0.035
0.005
0.01
0.04
0.13
0.24
0.21
0.325
0.365
0.21
0.105
0.09
-0.15
-0.02
0.02
0.13
0.29
0.48
0.385
0.145
0.08
0.125
-0.025
-0.035
0.105
0.2
0.28
0.265
0.07
0.215
0.175
0.13
0.1
0.03
0.08
0.17
0.24
0.265
0.32
0.25
0.095
0.08
-0.04
-0.08
-0.045
0.125
0.255
0.325
0.31
0.18
0.145
0.14
-0.075
0.05
-0.03
0.19
0.33
0.19
0.175
0.09
-0.02
0.29
-0.1
0.01
0.18
0.15
0.345
0.375
0.25
0.195
0.095
0.01
-0.035
-0.04
0.13
0.13
0.215
0.385
0.23
0.14
0.145
-0.12
-0.155
0.19
0.12
0.165
0.225
0.245
0.18
0.155
0.0
0.025
-0.05
0.11
0.105
0.27
0.28
0.315
0.23
0.15
0.155
0.0
-0.09
0.025
0.125
0.14
0.25
0.355
0.205
0.14
-0.035
0.04
-0.07
0.025
0.195
0.225
0.455
0.315
0.155
0.06
-0.05
0.115
0.065
-0.035
0.04
0.28
0.43
0.45
0.245
0.17
0.045
0.045
0.005
0.05
0.065
0.12
0.195
0.285
0.34
0.275
0.07
0.005
0.075
0.065
0.16
0.35
0.325
0.43
0.245
0.12
0.08
0.045
-0.045
0.1
0.2
0.305
0.29
0.31
0.285
0.08
0.055
-0.075
-0.075
-0.015
0.065
0.195
0.19
0.27
0.3
0.16
0.1
-0.01
-0.09
-0.005
0.11
0.215
0.39
0.285
0.05
0.07
-0.03
-0.105
-0.04
0.13
0.2
0.29
0.33
0.19
0.18
-0.025
-0.145
-0.155
0.045
0.065
0.05
0.22
0.4
0.205
0.13
0.115
0.03
-0.085
-0.045
0.07
0.22
0.17
0.26
0.22
0.145
-0.02
0.015
0.05
0.265
0.3
0.35
0.45
0.675
0.68
0.705
0.62
0.575
0.68
0.815
0.76
0.845
0.75
0.745
0.45
0.28
0.21
0.1
-0.065
-0.13
-0.02
0.275
0.12
0.15
0.115
0.045
0.015
0.05
-0.065
0.045
0.15
0.21
0.165
0.315
0.32
0.205
-0.04
-0.14
-0.14
-0.01
0.215
0.245
0.25
0.34
0.215
0.19
0.09
-0.17
-0.025
0.205
0.015
0.255
0.415
0.29
0.26
0.09
-0.035
-0.005
-0.03
0.07
0.175
0.26
0.23
0.295
0.23
0.19
0.045
-0.11
-0.18
0.015
0.35
0.3
0.33
0.36
0.375
0.165
0.025
0.04
-0.04
0.195
0.3
0.265
0.355
0.265
0.285
0.21
0.155
0.09
-0.09
0.11
0.23
0.255
0.35
0.425
0.35
0.18
0.13
0.07
0.095
0.175
0.105
0.245
0.49
0.44
0.32
0.295
0.315
0.185
0.18
0.325
0.38
0.495
0.375
0.49
0.45
0.4
0.22
0.155
0.255
0.28
0.385
0.425
0.445
0.545
0.39
0.41
0.165
0.175
0.2
0.225
0.395
0.49
0.485
0.345
0.42
0.245
0.155
0.02
0.09
0.2
0.25
0.405
0.55
0.475
0.3
0.15
0.18
0.035
0.145
0.19
0.255
0.22
0.285
0.21
0.135
0.115
-0.02
0.09
0.15
0.185
0.24
0.18
0.315
0.205
0.13
0.175
0.095
0.025
0.015
0.16
0.16
0.225
0.245
0.16
0.03
0.185
0.03
-0.12
0.16
0.265
0.275
0.35
0.345
0.185
0.14
0.08
-0.02
-0.075
0.135
0.135
0.125
0.21
0.23
0.125
0.17
0.05
0.07
0.045
0.08
0.205
0.29
0.355
0.315
0.18
0.1
-0.01
-0.075
-0.025
0.085
0.25
0.375
0.29
0.39
0.22
0.165
-0.015
-0.065
-0.055
0.1
0.28
0.26
0.3
0.225
0.245
0.185
-0.01
-0.025
0.03
0.155
0.26
0.23
0.255
0.26
0.205
0.105
-0.075
-0.075
-0.03
0.025
0.13
0.36
0.32
0.355
0.31
0.14
0.08
0.025
-0.055
0.075
0.24
0.225
0.33
0.295
0.185
0.12
-0.06
-0.205
-0.06
0.125
0.205
0.285
0.255
0.315
0.13
0.14
0.21
0.025
-0.02
0.05
0.13
0.155
0.32
0.285
0.205
0.075
-0.055
-0.035
0.01
0.06
0.255
0.28
0.285
0.285
0.285
0.07
-0.03
-0.045
-0.005
0.085
0.11
0.12
0.235
0.205
0.17
0.045
0.12
-0.04
0.01
0.065
0.135
0.18
0.31
0.36
0.155
-0.01
0.055
-0.04
-0.025
0.105
0.255
0.33
0.33
0.285
0.105
0.015
0.05
-0.07
0.07
0.205
0.135
0.285
0.41
0.22
0.115
0.165
0.005
-0.115
-0.09
0.16
0.335
0.36
0.48
0.305
0.175
0.15
0.045
-0.06
-0.095
0.1
0.34
0.315
0.26
0.225
0.1
0.065
-0.015
-0.07
-0.015
0.19
0.24
0.29
0.355
0.2
0.0
0.01
-0.075
-0.015
0.145
0.06
0.165
0.23
0.275
0.09
0.1
0.01
-0.1
-0.19
0.08
0.095
0.26
0.25
0.245
0.165
0.005
-0.03
-0.005
-0.17
0.09
0.115
0.215
0.255
0.265
0.225
0.09
0.035
-0.07
-0.155
0.105
0.01
-0.035
0.05
0.23
0.315
0.195
-0.02
-0.155
-0.155
-0.015
0.145
0.16
0.385
0.575
0.33
0.25
0.215
0.29
0.375
0.54
0.84
0.925
0.985
0.98
0.905
0.745
0.51
0.36
0.335
0.355
0.265
0.235
0.23
0.04
-0.01
-0.075
-0.105
-0.14
-0.11
-0.035
0.16
0.29
0.295
0.16
0.27
0.075
-0.08
-0.065
-0.115
0.065
0.27
0.315
0.255
0.225
0.175
0.055
0.07
-0.115
0.1
0.085
0.17
0.245
0.285
0.235
0.205
0.115
0.105
0.01
0.005
0.11
0.22
0.26
0.41
0.2
0.055
-0.015
0.08
-0.035
0.005
0.215
0.14
0.275
0.42
0.235
0.155
-0.035
-0.07
-0.155
0.04
0.19
0.385
0.36
0.41
0.32
0.19
0.045
0.005
-0.095
0.11
0.32
0.32
0.365
0.35
0.23
0.205
0.09
-0.085
0.08
0.175
0.32
0.465
0.41
0.34
0.29
0.275
0.045
-0.1
-0.02
0.21
0.26
0.3
0.395
0.475
0.415
0.32
0.23
0.21
0.225
0.245
0.31
0.335
0.485
0.5
0.365
0.375
0.335
0.215
0.17
0.25
0.325
0.475
0.455
0.525
0.305
0.315
0.17
0.025
0.015
0.205
0.36
0.55
0.525
0.41
0.37
0.2
0.06
0.07
0.13
0.105
0.215
0.265
0.3
0.28
0.045
-0.055
0.145
0.12
0.07
0.285
0.245
0.21
0.34
0.33
0.21
0.045
-0.115
-0.095
-0.065
0.105
0.155
0.235
0.41
0.395
0.255
0.12
-0.025
-0.155
-0.24
0.045
0.17
0.16
0.305
0.33
0.23
0.02
-0.02
-0.04
-0.085
0.0
0.205
0.195
0.36
0.195
0.16
0.06
0.07
-0.04
0.0
0.025
0.09
0.295
0.4
0.25
0.185
0.16
0.055
-0.005
0.065
0.03
0.085
0.13
0.27
0.19
0.145
0.12
0.065
0.06
0.04
0.06
0.16
0.195
0.41
0.375
0.18
-0.03
0.04
-0.015
0.125
0.095
0.12
0.29
0.38
0.37
0.18
0.055
-0.01
-0.05
0.11
0.155
0.235
0.22
0.345
0.25
0.07
-0.06
-0.045
-0.01
-0.005
0.2
0.265
0.2
0.215
0.225
0.095
0.08
0.03
0.06
0.05
0.125
0.19
0.24
0.32
0.265
0.09
-0.01
-0.045
0.045
-0.025
0.12
0.275
0.13
0.18
0.245
0.105
0.105
0.085
-0.01
-0.035
0.195
0.285
0.155
0.175
0.085
0.11
0.08
-0.045
-0.03
0.11
0.17
0.115
0.265
0.325
0.225
0.16
0.015
-0.13
-0.03
0.105
0.16
0.2
0.155
0.155
0.28
0.28
0.005
-0.055
-0.025
-0.005
0.19
0.18
0.28
0.255
0.195
0.065
-0.14
-0.04
-0.1
0.095
0.225
0.265
0.345
0.28
0.175
-0.09
0.095
0.035
0.04
0.105
0.22
0.35
0.29
0.235
0.14
0.06
0.01
-0.095
-0.015
0.14
0.27
0.365
0.425
0.25
0.185
0.2
0.075
-0.065
0.03
0.19
0.285
0.305
0.415
0.26
0.165
0.045
0.09
-0.01
0.075
0.11
0.075
0.21
0.305
0.245
0.195
-0.005
-0.04
0.075
-0.085
-0.02
0.15
0.26
0.285
0.225
0.15
0.045
0.0
-0.045
-0.035
0.085
0.175
0.26
0.38
0.255
0.185
0.035
-0.025
-0.245
-0.035
0.085
0.17
0.265
0.34
0.21
0.08
-0.07
-0.085
-0.23
0.035
0.115
0.245
0.295
0.305
0.225
0.135
0.105
-0.125
-0.245
-0.06
0.1
0.18
0.185
0.26
0.17
0.085
0.115
0.12
0.09
0.22
0.315
0.525
0.72
0.885
0.92
0.855
0.805
0.705
0.605
0.66
0.665
0.715
0.585
0.46
0.285
0.055
-0.305
-0.18
-0.07
0.03
0.12
0.135
0.1
0.12
0.225
0.245
0.06
-0.035
-0.045
-0.05
0.16
0.225
0.25
0.42
0.2
0.005
0.07
0.015
-0.03
0.025
0.02
0.25
0.36
0.29
0.26
0.125
-0.015
-0.12
-0.14
-0.015
0.075
0.255
0.315
0.25
0.245
0.13
0.01
-0.035
-0.06
0.135
0.13
0.285
0.36
0.315
0.2
0.045
0.085
-0.09
-0.1
0.06
0.33
0.305
0.305
0.3
0.25
0.145
0.02
-0.045
0.075
0.085
0.27
0.235
0.34
0.285
0.245
0.135
0.02
0.06
0.105
0.17
0.245
0.33
0.355
0.35
0.215
0.12
-0.02
0.06
0.255
0.325
0.365
0.44
0.425
0.43
0.185
-0.03
0.21
0.26
0.225
0.34
0.445
0.485
0.495
0.365
0.41
0.29
0.145
0.115
0.235
0.27
0.23
0.59
0.61
0.425
0.34
0.265
0.16
0.095
0.19
0.275
0.39
0.385
0.41
0.265
0.4
0.28
0.175
0.03
0.16
0.27
0.475
0.425
0.34
0.305
0.145
0.07
0.07
0.075
0.05
0.095
0.305
0.215
0.255
0.25
0.2
-0.03
-0.115
-0.2
0.165
0.195
0.185
0.2
0.245
0.225
0.11
0.085
0.005
-0.1
0.12
0.32
0.215
0.27
0.325
0.095
-0.015
-0.025
-0.17
-0.145
-0.065
0.075
0.245
0.38
0.405
0.285
0.075
-0.045
-0.04
-0.145
-0.105
0.06
0.215
0.165
0.395
0.265
0.155
0.075
-0.165
-0.035
0.045
0.14
0.16
0.345
0.285
0.195
0.07
-0.01
-0.14
-0.085
0.12
0.075
0.255
0.28
0.22
0.025
-0.01
0.015
-0.045
-0.1
0.12
0.18
0.305
0.35
0.26
0.195
-0.025
-0.01
-0.085
-0.07
0.12
0.15
0.26
0.385
0.22
-0.015
0.05
0.09
-0.065
-0.035
0.035
0.175
0.215
0.28
0.255
0.05
-0.04
-0.015
-0.145
0.02
0.145
0.06
0.245
0.285
0.2
-0.005
-0.01
0.005
-0.02
0.04
0.015
0.17
0.245
0.305
0.21
0.195
0.13
-0.01
-0.09
-0.035
0.05
0.095
0.16
0.22
0.175
0.125
-0.045
-0.14
-0.19
-0.08
0.16
0.265
0.115
0.315
0.11
0.095
0.04
0.005
-0.105
-0.02
0.07
0.185
0.295
0.29
0.125
0.075
0.02
0.075
-0.155
-0.05
0.095
0.08
0.12
0.18
0.165
0.15
-0.08
-0.14
-0.04
0.035
-0.01
0.115
0.28
0.265
0.16
0.115
0.0
-0.15
-0.155
-0.03
0.12
0.265
0.245
0.25
0.19
0.12
0.005
-0.035
-0.04
0.025
0.155
0.165
0.14
0.315
0.18
0.07
0.015
-0.085
-0.075
0.035
0.185
0.285
0.355
0.32
0.18
-0.035
-0.15
-0.155
0.05
0.175
0.295
0.26
0.275
0.265
0.17
0.055
-0.055
-0.175
-0.025
0.025
0.03
0.245
0.315
0.205
0.125
0.095
-0.055
-0.115
-0.08
-0.005
0.1
0.21
0.24
0.195
0.005
0.005
-0.07
-0.12
-0.23
-0.03
0.12
0.235
0.18
0.11
0.255
-0.09
-0.16
-0.145
-0.07
0.085
0.12
0.145
0.18
0.215
0.09
-0.145
-0.15
-0.095
-0.08
0.155
0.145
0.185
0.255
0.095
0.025
-0.155
-0.18
-0.135
-0.21
-0.105
0.02
0.26
0.215
0.155
0.29
0.195
0.235
0.22
0.225
0.37
0.615
0.85
0.975
1.005
0.78
0.695
0.515
0.435
0.495
0.545
0.425
0.335
0.3
0.075
-0.105
-0.185
-0.1
-0.315
-0.005
0.01
0.065
0.175
0.22
0.14
-0.05
0.07
-0.075
-0.08
0.015
0.125
0.285
0.18
0.16
0.06
0.1
-0.035
-0.035
-0.11
0.015
0.17
0.105
0.16
0.36
0.195
0.04
0.0
-0.005
-0.185
-0.035
0.09
0.295
0.19
0.13
0.2
0.09
-0.205
-0.15
-0.09
0.05
0.2
0.275
0.41
0.3
0.235
0.09
0.04
-0.055
-0.115
-0.005
0.125
0.205
0.35
0.37
0.28
0.05
-0.16
-0.125
-0.065
0.165
0.09
0.3
0.34
0.38
0.18
0.16
0.05
-0.02
-0.065
0.115
0.24
0.315
0.33
0.45
0.34
0.18
0.08
0.09
0.15
0.13
0.275
0.345
0.535
0.455
0.315
0.195
0.24
0.025
0.09
0.195
0.4
0.365
0.49
0.45
0.49
0.27
0.17
0.14
0.185
0.27
0.475
0.4
0.415
0.41
0.175
0.2
0.25
0.245
0.15
0.22
0.405
0.47
0.505
0.41
0.305
0.24
0.1
-0.105
0.11
0.23
0.235
0.51
0.605
0.35
0.26
0.245
0.13
-0.09
0.035
0.115
0.275
0.39
0.305
0.19
0.155
0.125
0.035
-0.095
0.07
0.045
0.24
0.35
0.375
0.15
0.0
0.025
0.035
-0.02
0.115
0.12
0.27
0.31
0.395
0.265
0.245
0.03
-0.06
-0.11
0.01
0.255
0.325
0.355
0.3
0.24
0.23
0.075
-0.14
-0.16
0.095
0.21
0.325
0.435
0.35
0.24
0.18
0.08
-0.1
-0.19
0.03
0.105
0.15
0.62
0.38
0.23
0.26
0.05
0.005
0.04
0.075
0.16
0.315
0.4
0.47
0.33
0.04
0.07
0.045
0.095
0.065
0.125
0.225
0.36
0.37
0.28
0.205
0.045
-0.005
-0.015
0.15
0.25
0.285
0.33
0.33
0.07
0.195
0.115
0.005
0.03
0.1
0.225
0.19
0.305
0.415
0.365
0.255
0.025
-0.01
0.1
0.205
0.315
0.215
0.405
0.305
0.215
0.04
0.0
-0.025
-0.015
0.075
0.2
0.31
0.425
0.365
0.195
0.055
0.085
-0.02
-0.065
0.05
0.18
0.31
0.46
0.225
0.115
0.165
0.165
0.015
0.065
0.13
0.255
0.355
0.405
0.305
0.24
0.1
-0.025
-0.11
0.02
-0.01
0.185
0.25
0.41
0.29
0.28
0.09
0.02
-0.11
0.02
0.05
0.235
0.34
0.585
0.33
0.205
0.075
-0.075
-0.05
0.0
0.175
0.38
0.445
0.335
0.215
0.16
0.1
0.185
0.005
0.1
0.235
0.25
0.31
0.305
0.195
0.155
0.17
0.115
-0.12
-0.075
0.335
0.215
0.32
0.475
0.365
0.275
0.185
0.12
0.025
0.135
0.22
0.35
0.46
0.245
0.29
0.285
0.16
0.03
0.0
0.11
0.19
0.285
0.35
0.185
0.32
0.175
0.025
-0.075
0.065
0.01
0.155
0.4
0.325
0.205
0.18
0.25
0.145
-0.16
0.04
0.105
0.09
0.125
0.33
0.475
0.325
0.11
-0.045
-0.015
-0.01
0.08
0.15
0.155
0.26
0.26
0.205
0.105
0.02
0.065
0.045
0.185
0.335
0.225
0.295
0.325
0.165
-0.065
-0.02
-0.135
-0.01
-0.03
0.22
0.375
0.435
0.26
0.085
0.145
0.19
0.18
0.255
0.395
0.54
0.635
0.92
1.065
0.93
0.935
0.825
0.775
0.585
0.615
0.62
0.615
0.52
0.41
0.21
-0.025
-0.105
-0.12
-0.17
0.0
0.165
0.115
0.345
0.18
0.24
0.11
-0.025
-0.135
-0.005
0.23
0.14
0.235
0.45
0.26
0.245
0.105
0.075
-0.05
0.135
0.165
0.31
0.45
0.385
0.29
0.265
0.155
0.07
0.05
0.07
0.125
0.295
0.405
0.39
0.28
0.115
0.1
0.09
-0.12
0.05
0.135
0.24
0.385
0.425
0.345
0.29
0.015
-0.045
0.115
0.145
0.155
0.33
0.49
0.42
0.34
0.27
0.14
0.085
0.0
0.11
0.21
0.37
0.44
0.45
0.345
0.18
0.11
0.07
0.015
0.17
0.365
0.425
0.475
0.46
0.265
0.225
0.16
0.08
0.175
0.345
0.35
0.37
0.54
0.605
0.465
0.305
0.27
0.4
0.13
0.205
0.53
0.5
0.56
0.59
0.415
0.25
0.25
0.145
0.22
0.29
0.39
0.395
0.345
0.635
0.515
0.345
0.315
0.15
0.3
0.43
0.34
0.465
0.475
0.485
0.415
0.38
0.325
0.155
0.155
0.255
0.245
0.505
0.41
0.44
0.34
0.195
0.12
0.035
-0.01
0.1
0.3
0.26
0.38
0.39
0.24
0.125
0.085
0.06
-0.055
0.095
0.24
0.395
0.455
0.37
0.22
0.215
0.075
-0.115
0.185
0.28
0.235
0.3
0.34
0.22
0.12
0.03
0.055
-0.03
0.055
0.145
0.205
0.29
0.335
0.325
0.22
0.155
0.035
0.035
0.1
0.195
0.155
0.28
0.385
0.185
0.185
0.1
0.085
0.075
0.22
0.25
0.33
0.315
0.335
0.305
0.17
0.075
0.165
0.005
0.02
0.175
0.265
0.405
0.39
0.33
0.275
0.17
0.01
-0.01
0.02
0.05
0.31
0.405
0.425
0.21
0.21
0.22
0.065
0.01
0.195
0.135
0.35
0.47
0.39
0.31
0.095
0.065
-0.015
0.185
0.165
0.2
0.295
0.365
0.38
0.31
0.21
0.06
-0.075
-0.03
0.19
0.19
0.29
0.31
0.435
0.24
0.245
0.05
0.01
0.05
0.02
0.24
0.28
0.255
0.27
0.27
0.24
0.125
0.03
0.04
0.105
0.185
0.19
0.24
0.375
0.285
0.17
0.16
0.06
0.03
0.22
0.29
0.215
0.29
0.34
0.11
0.07
0.07
0.07
0.01
0.045
0.075
0.245
0.345
0.32
0.135
0.26
0.16
-0.02
0.065
0.08
0.215
0.33
0.445
0.255
0.19
0.13
0.105
0.04
0.08
0.1
0.225
0.315
0.325
0.275
0.18
0.06
0.2
0.075
0.1
0.065
0.195
0.41
0.49
0.33
0.22
0.155
0.12
0.08
0.07
0.21
0.27
0.37
0.46
0.29
0.155
0.12
0.045
0.07
0.165
0.235
0.2
0.23
0.375
0.23
0.215
0.04
-0.07
-0.19
-0.02
-0.04
0.26
0.415
0.42
0.165
0.22
0.11
-0.025
-0.03
0.155
0.19
0.295
0.3
0.27
0.08
0.12
0.17
0.105
-0.055
-0.085
-0.005
0.355
0.385
0.315
0.245
0.16
0.0
-0.045
-0.19
0.055
0.175
0.31
0.395
0.26
0.23
0.065
0.04
-0.045
-0.11
0.075
0.05
0.19
0.26
0.32
0.295
0.23
0.17
0.15
0.1
0.32
0.515
0.745
0.925
1.005
0.93
0.67
0.62
0.565
0.455
0.545
0.535
0.48
0.52
0.515
0.27
0.04
-0.11
-0.18
-0.155
-0.005
0.095
0.23
0.305
0.225
0.225
0.11
0.01
0.015
0.015
0.08
0.185
0.35
0.3
0.23
0.1
0.08
0.06
0.05
0.01
0.165
0.245
0.32
0.4
0.325
0.275
0.13
0.085
0.015
-0.115
0.055
0.28
0.255
0.235
0.315
0.3
0.165
-0.09
-0.13
0.055
0.225
0.3
0.35
0.41
0.295
0.065
0.18
0.13
0.05
0.03
0.205
0.305
0.325
0.45
0.37
0.225
0.12
0.0
0.015
0.1
0.19
0.305
0.325
0.355
0.37
0.245
0.11
0.045
-0.02
0.14
0.295
0.29
0.32
0.49
0.39
0.38
0.09
0.11
0.265
0.155
0.18
0.42
0.45
0.485
0.365
0.28
0.415
0.315
0.14
0.22
0.34
0.42
0.455
0.45
0.27
0.4
0.315
0.175
0.155
0.22
0.225
0.38
0.46
0.625
0.495
0.41
0.285
0.155
0.09
0.24
0.295
0.45
0.395
0.42
0.29
0.35
0.155
0.185
-0.005
0.13
0.395
0.35
0.37
0.405
0.265
0.145
0.07
-0.025
0.095
0.165
0.19
0.335
0.34
0.35
0.255
0.14
0.005
-0.005
0.01
0.085
0.08
0.265
0.265
0.295
0.24
0.17
0.025
-0.105
-0.2
0.02
0.22
0.28
0.345
0.21
0.225
0.11
0.02
-0.06
-0.01
-0.03
0.15
0.315
0.355
0.375
0.13
0.085
0.03
-0.215
-0.02
0.17
0.15
0.305
0.335
0.255
0.175
0.005
-0.055
-0.05
-0.115
-0.05
0.245
0.335
0.455
0.24
0.13
0.2
0.035
-0.01
0.06
0.07
0.075
0.22
0.25
0.2
0.26
0.29
0.075
-0.25
-0.08
0.175
0.22
0.275
0.42
0.305
0.235
0.125
-0.025
-0.22
0.0
0.17
0.18
0.165
0.41
0.34
0.19
0.015
0.08
-0.005
0.02
0.1
0.14
0.11
0.365
0.285
0.235
0.015
-0.05
0.03
0.04
0.15
0.235
0.24
0.455
0.335
0.195
0.0
-0.185
-0.07
0.03
0.165
0.375
0.315
0.38
0.215
0.095
0.025
-0.105
0.01
0.075
0.135
0.19
0.26
0.355
0.22
0.115
0.12
0.03
-0.11
0.03
-0.01
0.29
0.285
0.34
0.365
0.22
0.0
-0.09
-0.035
0.01
0.165
0.295
0.28
0.47
0.335
0.02
-0.155
-0.155
0.025
0.115
0.225
0.27
0.27
0.44
0.3
0.02
0.005
0.04
-0.115
0.06
0.085
0.24
0.295
0.295
0.315
0.125
0.025
-0.15
-0.165
0.045
0.155
0.285
0.31
0.315
0.24
0.09
-0.025
0.04
0.18
0.09
0.11
0.195
0.375
0.355
0.28
0.18
-0.01
-0.02
0.14
0.11
0.25
0.305
0.43
0.455
0.21
0.125
-0.005
0.02
0.05
0.15
0.16
0.255
0.405
0.14
0.25
0.235
0.025
-0.135
0.045
0.145
0.32
0.375
0.4
0.355
0.235
0.07
-0.065
-0.085
0.035
0.11
0.29
0.255
0.275
0.25
0.16
0.035
-0.01
0.025
0.11
0.045
0.16
0.145
0.23
0.2
0.13
0.045
0.105
-0.04
0.105
0.07
0.22
0.275
0.335
0.2
0.33
0.13
0.045
-0.04
-0.025
0.085
0.255
0.25
0.33
0.26
0.18
-0.01
-0.08
-0.15
-0.03
0.1
0.115
0.12
0.23
0.28
0.26
0.135
0.22
0.21
0.4
0.36
0.575
0.75
0.9
0.76
0.795
0.585
0.525
0.47
0.47
0.55
0.455
0.465
0.315
0.22
0.095
-0.085
-0.05
-0.155
-0.03
0.11
0.16
0.275
0.35
0.23
0.135
0.02
0.0
-0.065
0.055
0.335
0.27
0.225
0.28
0.235
0.18
0.04
0.045
-0.015
0.09
0.205
0.26
0.22
0.215
0.285
0.26
0.145
0.14
0.06
0.12
0.08
0.16
0.26
0.245
0.225
0.17
0.165
0.11
-0.01
0.17
0.185
0.295
0.385
0.29
0.235
0.24
-0.04
-0.05
0.08
0.065
0.315
0.26
0.25
0.3
0.34
0.22
0.095
0.0
-0.085
0.085
0.3
0.36
0.445
0.45
0.345
0.165
0.095
0.085
0.095
0.22
0.29
0.375
0.435
0.255
0.285
0.33
0.16
0.065
0.145
0.245
0.295
0.42
0.505
0.45
0.415
0.205
0.135
0.035
0.005
0.45
0.42
0.475
0.605
0.5
0.32
0.315
0.35
0.18
0.23
0.3
0.47
0.58
0.545
0.44
0.38
0.275
0.215
0.17
0.12
0.265
0.38
0.475
0.435
0.375
0.215
0.175
0.075
0.095
0.16
0.21
0.28
0.5
0.4
0.27
0.17
0.09
0.07
0.13
0.185
0.105
0.26
0.36
0.47
0.23
0.31
0.12
0.06
-0.03
0.03
0.05
0.22
0.145
0.325
0.385
0.19
-0.045
-0.025
0.02
0.115
0.215
0.255
0.24
0.31
0.205
-0.005
0.07
0.025
0.005
0.03
0.18
0.275
0.34
0.225
0.185
0.06
0.075
0.04
-0.07
0.035
0.15
0.435
0.39
0.325
0.185
0.035
0.07
0.005
-0.095
0.02
0.16
0.34
0.305
0.28
0.2
0.18
0.065
-0.06
-0.125
0.1
0.31
0.35
0.375
0.33
0.29
0.165
-0.055
-0.055
-0.095
-0.045
0.18
0.445
0.37
0.415
0.255
0.17
0.01
-0.065
-0.035
0.08
0.16
0.245
0.23
0.31
0.245
0.15
0.075
0.015
0.045
0.08
0.14
0.19
0.205
0.19
0.22
0.15
0.085
-0.06
0.0
0.11
0.205
0.22
0.235
0.26
0.315
0.12
0.055
-0.09
0.03
0.12
0.245
0.26
0.45
0.215
0.255
0.075
0.04
-0.055
0.05
0.11
0.23
0.09
0.205
0.305
0.185
0.12
0.025
0.0
0.155
0.105
0.22
0.28
0.345
0.135
-0.01
0.05
0.02
0.025
0.16
0.12
0.195
0.26
0.34
0.275
0.165
0.195
0.005
0.0
0.105
0.1
0.125
0.135
0.31
0.285
0.15
0.015
-0.015
-0.035
0.08
0.13
0.255
0.38
0.295
0.2
0.15
0.07
-0.005
-0.095
0.06
0.24
0.295
0.25
0.31
0.3
0.28
0.1
-0.01
-0.01
0.055
0.1
0.295
0.21
0.325
0.18
0.33
0.15
-0.025
-0.07
0.075
0.12
0.28
0.43
0.535
0.38
0.19
0.145
0.08
0.0
0.05
0.195
0.285
0.285
0.245
0.26
0.2
-0.07
-0.045
0.0
0.175
0.135
0.215
0.38
0.42
0.28
0.085
0.015
0.05
0.075
-0.06
0.14
0.445
0.38
0.325
0.335
0.145
0.015
-0.17
-0.075
0.095
0.265
0.3
0.325
0.285
0.285
0.235
0.115
-0.11
-0.03
0.015
0.205
0.27
0.22
0.33
0.235
0.045
0.045
-0.035
0.065
0.08
0.115
0.385
0.265
0.005
0.105
0.185
0.07
-0.03
0.06
0.15
0.27
0.4
0.605
0.555
0.455
0.305
0.39
0.495
0.56
0.815
0.94
0.935
0.88
0.81
0.695
0.505
0.235
0.14
0.12
0.14
0.21
0.21
0.16
0.05
0.005
0.105
0.15
0.07
0.065
0.145
0.245
0.37
0.38
0.275
0.195
0.09
0.0
0.0
-0.01
0.075
0.25
0.18
0.33
0.34
0.24
0.215
0.025
0.05
0.12
0.16
0.2
0.25
0.265
0.21
0.165
0.105
0.095
-0.125
0.09
0.295
0.36
0.215
0.37
0.425
0.26
0.09
-0.005
-0.055
0.13
0.17
0.34
0.425
0.325
0.305
0.15
0.13
0.03
0.06
0.2
0.24
0.28
0.235
0.345
0.32
0.33
0.125
-0.065
0.03
0.25
0.385
0.2
0.425
0.535
0.32
0.2
0.18
0.105
-0.005
0.24
0.305
0.415
0.455
0.435
0.435
0.33
0.085
0.16
0.23
0.32
0.305
0.435
0.425
0.59
0.43
0.245
0.24
0.155
0.14
0.35
0.45
0.49
0.56
0.58
0.54
0.37
0.38
0.175
0.075
0.235
0.385
0.39
0.525
0.615
0.475
0.27
0.25
0.1
0.13
0.1
0.38
0.51
0.41
0.475
0.32
0.25
0.225
0.07
0.06
0.255
0.32
0.33
0.445
0.315
0.235
0.04
0.015
0.01
0.15
0.235
0.335
0.305
0.36
0.26
0.2
0.025
-0.115
-0.105
0.095
0.27
0.295
0.295
0.345
0.25
0.045
-0.085
0.125
0.155
0.06
0.075
0.185
0.41
0.49
0.345
0.275
0.12
-0.03
-0.155
-0.055
0.025
0.225
0.425
0.375
0.305
0.125
0.075
-0.08
-0.095
0.075
0.125
0.315
0.35
0.25
0.285
0.255
0.165
0.035
-0.07
0.06
0.09
0.14
0.195
0.41
0.44
0.215
0.145
0.04
0.045
0.17
0.21
0.245
0.32
0.405
0.25
0.14
0.005
-0.095
-0.12
0.085
0.23
0.205
0.215
0.455
0.35
0.14
0.045
0.045
0.005
0.195
0.2
0.11
0.34
0.485
0.23
0.09
0.2
0.12
0.01
0.135
0.2
0.28
0.43
0.355
0.35
0.15
-0.005
-0.06
-0.01
0.015
0.15
0.295
0.43
0.41
0.25
0.08
0.035
0.03
-0.015
0.145
0.24
0.255
0.375
0.47
0.33
0.195
0.025
-0.07
-0.125
-0.09
0.28
0.285
0.405
0.375
0.17
0.135
0.11
0.015
-0.175
0.03
0.325
0.385
0.405
0.385
0.3
0.14
0.01
-0.075
0.045
0.13
0.125
0.32
0.375
0.265
0.255
0.135
0.06
-0.055
0.095
0.115
0.195
0.345
0.435
0.215
0.27
0.005
0.0
0.005
0.1
0.125
0.245
0.365
0.3
0.19
0.145
0.2
0.155
0.01
0.1
0.16
0.185
0.185
0.26
0.35
0.2
0.13
0.05
-0.01
0.055
0.185
0.205
0.41
0.33
0.425
0.495
0.245
0.13
0.025
0.13
0.18
0.325
0.24
0.185
0.365
0.305
0.255
0.17
0.01
0.12
0.17
0.14
0.265
0.595
0.425
0.285
0.195
0.09
0.005
0.055
0.165
0.35
0.425
0.465
0.355
0.22
-0.035
0.025
-0.095
0.07
0.275
0.305
0.385
0.265
0.3
0.2
0.025
-0.075
0.01
0.035
0.285
0.295
0.44
0.34
0.275
0.25
0.0
-0.065
-0.08
0.03
0.205
0.305
0.36
0.415
0.31
0.16
0.11
0.065
-0.04
0.01
0.23
0.225
0.26
0.285
0.22
0.09
0.01
0.04
-0.16
0.02
0.325
0.375
0.39
0.345
0.19
0.195
0.045
-0.07
-0.07
-0.005
0.235
0.365
0.475
0.6
0.535
0.27
0.16
0.465
0.455
0.585
0.835
0.99
0.995
1.04
0.945
0.73
0.575
0.41
0.32
0.43
0.345
0.31
0.365
0.405
0.295
0.165
0.01
-0.105
0.07
0.19
0.315
0.495
0.5
0.395
0.385
0.145
0.0
-0.025
0.22
0.16
0.175
0.28
0.495
0.345
0.325
0.165
0.18
0.015
0.12
0.175
0.42
0.495
0.5
0.38
0.265
0.18
0.065
0.025
0.125
0.17
0.335
0.49
0.455
0.405
0.295
0.2
0.11
0.01
0.18
0.23
0.285
0.46
0.56
0.38
0.31
0.255
0.145
0.065
0.185
0.285
0.49
0.515
0.42
0.27
0.185
0.18
0.21
0.015
0.185
0.39
0.435
0.52
0.555
0.44
0.31
0.205
0.195
0.11
0.25
0.325
0.545
0.585
0.605
0.48
0.4
0.28
0.16
0.125
0.27
0.39
0.53
0.5
0.51
0.53
0.475
0.43
0.32
0.235
0.34
0.465
0.555
0.54
0.545
0.73
0.505
0.22
0.215
0.27
0.365
0.58
0.605
0.635
0.665
0.58
0.455
0.23
0.205
0.14
0.255
0.425
0.565
0.625
0.515
0.44
0.425
0.235
0.095
0.305
0.37
0.445
0.435
0.48
0.38
0.47
0.305
0.015
-0.045
0.075
0.185
0.255
0.235
0.42
0.53
0.475
0.21
0.065
-0.065
0.09
0.2
0.255
0.42
0.37
0.375
0.295
0.205
0.115
0.04
0.095
0.25
0.335
0.425
0.39
0.275
0.27
0.12
0.26
0.08
0.055
0.185
0.26
0.305
0.395
0.23
0.05
0.12
0.16
0.33
0.27
0.16
0.3
0.35
0.475
0.425
0.3
0.075
0.125
0.045
0.035
0.145
0.38
0.29
0.52
0.365
0.3
0.175
0.075
0.15
0.2
0.225
0.34
0.32
0.36
0.13
0.15
0.19
0.22
0.15
0.165
0.205
0.265
0.475
0.625
0.41
0.19
0.17
0.065
-0.07
-0.005
0.11
0.355
0.395
0.465
0.35
0.325
0.07
-0.03
-0.025
0.085
0.245
0.34
0.46
0.49
0.28
0.23
0.17
0.08
0.035
0.05
0.195
0.315
0.43
0.415
0.215
0.35
0.165
-0.07
0.025
0.13
0.32
0.38
0.43
0.4
0.27
0.19
0.055
0.025
0.01
0.17
0.195
0.3
0.345
0.495
0.295
0.15
0.115
0.07
-0.02
0.11
0.18
0.255
0.235
0.33
0.465
0.24
0.1
0.06
0.095
0.125
0.205
0.32
0.4
0.395
0.285
0.11
0.08
0.075
0.0
0.145
0.255
0.365
0.455
0.185
0.445
0.18
0.115
0.015
0.01
0.14
0.22
0.395
0.39
0.36
0.25
0.135
0.135
0.02
-0.035
0.145
0.345
0.43
0.41
0.27
0.235
0.235
0.135
0.055
0.15
0.21
0.295
0.225
0.33
0.41
0.395
0.245
0.085
-0.035
0.155
0.175
0.315
0.425
0.565
0.485
0.31
0.13
0.14
0.08
0.055
0.325
0.41
0.395
0.64
0.4
0.255
0.195
0.005
-0.04
0.125
0.23
0.29
0.35
0.37
0.335
0.255
0.13
0.06
-0.01
-0.015
0.14
0.33
0.405
0.42
0.375
0.285
0.135
0.0
0.04
0.06
0.14
0.32
0.38
0.36
0.345
0.245
-0.015
0.015
0.03
0.135
0.1
0.195
0.345
0.46
0.355
0.095
-0.055
0.19
0.17
0.085
0.17
0.3
0.42
0.4
0.25
0.07
0.165
-0.01
-0.085
0.085
0.225
0.205
0.315
0.43
0.33
0.27
0.17
0.125
0.175
0.365
0.485
0.57
0.85
0.94
1.075
1.065
0.76
0.745
0.725
0.695
0.66
0.76
0.75
0.53
0.31
0.22
-0.15
-0.185
-0.095
-0.02
0.13
0.26
0.435
0.47
0.275
0.15
0.12
-0.02
-0.035
0.14
0.42
0.285
0.33
0.345
0.35
0.285
0.075
0.095
0.09
0.275
0.395
0.34
0.53
0.28
0.26
0.19
0.065
0.07
0.045
0.13
0.36
0.43
0.34
0.16
0.19
0.295
0.195
0.02
0.105
0.23
0.35
0.38
0.465
0.355
0.26
0.135
0.18
0.14
-0.035
0.155
0.375
0.425
0.585
0.535
0.31
0.26
0.14
0.01
0.125
0.29
0.335
0.395
0.47
0.385
0.39
0.255
0.13
0.03
0.12
0.315
0.425
0.475
0.51
0.41
0.32
0.195
0.225
0.235
0.32
0.385
0.455
0.52
0.575
0.545
0.345
0.305
0.385
0.27
0.38
0.385
0.375
0.41
0.495
0.56
0.425
0.26
0.375
0.465
0.385
0.35
0.495
0.635
0.56
0.385
0.35
0.275
0.385
0.24
0.245
0.44
0.455
0.58
0.62
0.48
0.355
0.26
0.165
0.17
0.295
0.4
0.53
0.485
0.51
0.365
0.385
0.175
0.075
0.085
0.215
0.21
0.32
0.51
0.475
0.345
0.2
0.06
0.01
0.045
0.095
0.265
0.32
0.395
0.43
0.415
0.125
0.155
0.085
0.06
0.125
0.15
0.295
0.4
0.525
0.29
0.18
0.235
0.16
-0.065
0.07
0.26
0.41
0.335
0.45
0.36
0.175
0.185
-0.03
-0.005
0.085
0.17
0.32
0.37
0.445
0.36
0.09
0.2
0.11
0.21
0.205
0.245
0.365
0.45
0.47
0.195
0.045
0.17
0.19
0.075
0.13
0.265
0.325
0.45
0.46
0.38
0.155
0.09
0.06
0.115
0.175
0.325
0.32
0.42
0.345
0.225
0.105
0.115
0.015
-0.03
0.065
0.51
0.505
0.41
0.28
0.32
0.12
0.075
0.11
0.205
0.285
0.29
0.36
0.405
0.225
0.205
0.125
0.085
0.14
0.175
0.275
0.25
0.3
0.455
0.31
0.165
0.025
0.065
0.085
0.12
0.115
0.295
0.305
0.315
0.245
0.205
0.26
0.245
-0.115
0.065
0.3
0.3
0.41
0.425
0.28
0.15
0.055
-0.045
-0.22
0.2
0.385
0.42
0.375
0.45
0.3
0.15
0.1
0.055
-0.07
0.135
0.225
0.34
0.395
0.305
0.29
0.205
0.18
0.085
0.055
0.17
0.235
0.265
0.32
0.285
0.145
0.21
0.065
-0.035
0.035
0.225
0.315
0.24
0.35
0.38
0.265
0.045
0.13
0.095
0.11
0.125
0.135
0.27
0.35
0.53
0.29
0.31
0.23
0.01
-0.025
0.135
0.24
0.215
0.285
0.335
0.315
0.08
0.245
0.15
0.085
0.165
0.3
0.36
0.295
0.31
0.17
0.08
0.135
0.09
0.205
0.255
0.285
0.495
0.61
0.445
0.245
0.2
0.075
0.0
0.09
0.195
0.24
0.41
0.45
0.44
0.42
0.21
0.04
0.025
0.04
0.21
0.265
0.29
0.34
0.23
0.355
0.085
0.055
-0.03
0.025
0.195
0.385
0.315
0.435
0.305
0.195
0.13
0.105
-0.02
-0.015
0.155
0.305
0.255
0.355
0.39
0.195
0.125
-0.005
-0.05
0.07
0.125
0.13
0.245
0.46
0.37
0.25
0.28
0.125
-0.235
0.09
0.105
0.28
0.32
0.405
0.33
0.16
0.115
0.035
-0.06
0.02
0.085
0.18
0.37
0.605
0.61
0.415
0.425
0.345
0.455
0.59
0.83
0.885
1.045
1.075
0.985
0.595
0.515
0.335
0.135
0.15
0.235
0.26
0.295
0.26
0.195
0.03
-0.085
-0.12
-0.09
0.145
-0.05
0.26
0.405
0.43
0.25
0.165
-0.015
-0.11
-0.005
0.13
0.185
0.34
0.425
0.415
0.305
0.185
0.05
0.025
0.115
0.2
0.205
0.245
0.45
0.54
0.155
0.04
0.055
0.015
0.045
0.205
0.27
0.36
0.33
0.415
0.27
0.105
0.065
-0.1
-0.09
0.175
0.505
0.54
0.475
0.37
0.31
0.25
0.02
-0.03
0.095
0.135
0.405
0.355
0.41
0.385
0.23
0.115
0.115
0.01
0.17
0.185
0.39
0.39
0.54
0.39
0.335
0.18
0.12
0.115
0.145
0.3
0.3
0.36
0.385
0.375
0.395
0.18
0.21
0.18
0.245
0.275
0.44
0.51
0.525
0.47
0.385
0.285
0.305
0.055
0.27
0.43
0.52
0.57
0.42
0.505
0.425
0.305
0.255
0.145
0.23
0.185
0.4
0.565
0.635
0.425
0.335
0.205
0.08
0.1
0.33
0.325
0.395
0.42
0.615
0.45
0.245
0.11
0.07
0.01
0.185
0.2
0.42
0.52
0.52
0.275
0.195
0.075
0.075
-0.02
0.045
0.2
0.34
0.315
0.4
0.275
0.21
0.09
-0.02
-0.05
0.04
0.12
0.1
0.2
0.48
0.29
0.23
0.19
0.235
0.03
0.005
0.14
0.34
0.395
0.32
0.255
0.2
0.025
-0.055
0.055
0.145
0.145
0.19
0.435
0.475
0.2
0.165
0.09
0.035
-0.025
0.05
0.3
0.365
0.37
0.365
0.33
0.245
-0.01
0.1
0.115
0.17
0.255
0.26
0.21
0.26
0.275
0.18
0.14
0.17
0.12
0.15
0.235
0.375
0.395
0.465
0.205
0.17
0.15
-0.015
0.025
0.165
0.21
0.365
0.335
0.32
0.325
0.175
0.035
0.095
0.095
0.16
0.28
0.35
0.32
0.185
0.235
0.355
0.06
0.095
0.135
0.105
0.225
0.405
0.275
0.355
0.28
0.145
0.085
-0.06
0.255
0.165
0.16
0.245
0.455
0.395
0.245
0.165
0.055
-0.06
-0.025
0.07
0.13
0.25
0.42
0.385
0.195
0.155
0.14
-0.04
0.105
0.16
0.25
0.27
0.29
0.335
0.295
0.17
0.12
-0.04
0.11
0.145
0.2
0.24
0.45
0.35
0.155
0.015
-0.185
-0.14
0.27
0.415
0.265
0.215
0.435
0.405
0.115
0.02
0.115
0.0
0.15
0.28
0.26
0.235
0.365
0.27
0.28
0.045
0.01
-0.02
0.175
0.24
0.295
0.265
0.345
0.28
0.155
0.085
0.085
0.005
0.115
0.205
0.325
0.49
0.48
0.25
0.23
0.17
0.02
0.005
0.12
0.145
0.275
0.43
0.615
0.275
0.205
0.2
-0.005
-0.01
0.02
0.0
0.165
0.3
0.43
0.255
0.215
0.055
-0.03
0.03
0.07
0.245
0.26
0.29
0.28
0.32
0.15
-0.09
-0.12
-0.055
0.155
0.29
0.335
0.365
0.35
0.17
-0.01
-0.015
-0.03
-0.07
0.275
0.29
0.29
0.285
0.17
0.255
0.19
0.045
0.1
-0.03
-0.02
0.225
0.265
0.325
0.275
0.28
-0.005
-0.11
-0.075
-0.06
0.015
0.13
0.27
0.48
0.33
0.315
0.285
0.255
0.215
0.22
0.26
0.725
0.955
0.99
0.905
0.755
0.49
0.485
0.385
0.385
0.31
0.385
0.32
0.445
0.21
0.035
-0.065
-0.185
-0.17
-0.07
0.095
0.275
0.39
0.435
0.325
0.165
0.01
0.095
-0.075
-0.02
0.115
0.275
0.4
0.355
0.18
0.14
0.05
0.0
-0.025
0.105
0.11
0.245
0.365
0.295
0.235
0.195
-0.01
-0.015
-0.01
0.145
0.205
0.22
0.505
0.48
0.195
0.15
0.015
0.06
0.04
0.055
0.135
0.33
0.385
0.32
0.22
0.145
0.12
0.015
-0.01
0.16
0.125
0.365
0.44
0.28
0.2
0.175
0.01
0.135
0.105
0.15
0.255
0.29
0.455
0.44
0.34
0.215
0.105
0.025
0.01
0.305
0.36
0.3
0.52
0.52
0.33
0.145
0.15
0.17
0.13
0.06
0.08
0.39
0.55
0.52
0.35
0.4
0.165
0.18
0.13
0.34
0.395
0.355
0.395
0.56
0.545
0.435
0.195
0.06
0.105
0.285
0.47
0.52
0.47
0.515
0.405
0.325
0.205
0.17
0.065
0.295
0.35
0.375
0.37
0.375
0.41
0.42
0.31
0.07
0.135
0.15
0.19
0.285
0.365
0.375
0.38
0.195
-0.22
-0.15
0.0
0.345
0.305
0.305
0.44
0.345
0.22
0.1
0.02
-0.165
0.13
0.195
0.14
0.295
0.315
0.285
0.195
-0.005
-0.01
-0.075
0.03
-0.03
0.36
0.345
0.355
0.315
0.18
-0.04
-0.06
-0.145
-0.095
0.075
0.295
0.385
0.35
0.25
0.245
0.14
0.055
-0.08
-0.01
0.235
0.26
0.3
0.43
0.275
0.165
-0.04
-0.055
-0.095
-0.015
0.165
0.245
0.355
0.305
0.345
0.215
0.055
0.115
-0.015
-0.015
0.02
0.255
0.365
0.39
0.315
0.17
-0.015
0.035
0.065
0.1
0.12
0.175
0.325
0.365
0.26
0.14
-0.115
-0.015
0.075
0.16
0.115
0.185
0.29
0.295
0.225
0.07
-0.085
-0.09
0.135
-0.005
0.26
0.39
0.335
0.285
0.15
0.125
0.04
0.045
-0.045
0.04
0.235
0.275
0.345
0.31
0.115
0.0
-0.095
-0.055
0.02
0.17
0.265
0.26
0.255
0.205
0.11
0.0
0.03
-0.005
-0.025
0.155
0.295
0.355
0.38
0.21
0.095
-0.015
-0.055
-0.02
-0.015
0.01
0.225
0.295
0.35
0.225
0.135
0.21
0.135
-0.025
-0.145
0.0
0.03
0.39
0.38
0.36
0.29
0.1
0.02
-0.085
-0.02
0.055
0.205
0.305
0.44
0.235
0.25
0.13
0.035
-0.125
0.005
0.11
0.2
0.27
0.405
0.365
0.315
0.19
0.07
-0.075
0.055
0.085
0.315
0.38
0.29
0.265
0.205
0.09
-0.01
-0.08
0.045
0.215
0.18
0.295
0.42
0.275
0.12
0.07
0.0
-0.135
-0.14
0.13
0.33
0.305
0.355
0.185
0.06
-0.115
0.005
0.025
0.085
0.15
0.24
0.225
0.21
0.215
0.11
-0.135
-0.03
-0.03
-0.11
0.09
0.2
0.225
0.305
0.24
0.14
0.035
-0.09
-0.14
-0.02
0.015
0.125
0.35
0.415
0.29
0.115
0.03
-0.16
-0.145
0.055
0.08
0.185
0.19
0.33
0.225
0.025
0.005
0.095
0.23
0.35
0.535
0.65
0.75
0.935
0.98
0.81
0.6
0.5
0.665
0.59
0.745
0.77
0.59
0.52
0.345
-0.005
-0.03
-0.225
-0.205
-0.04
-0.035
0.045
0.28
0.345
0.285
0.11
0.055
-0.045
-0.06
0.035
0.15
0.215
0.31
0.23
0.215
0.11
0.06
0.01
0.03
0.17
0.14
0.22
0.25
0.12
0.16
0.09
0.075
0.065
0.075
0.075
-0.015
0.29
0.48
0.415
0.195
0.105
0.06
-0.135
0.01
0.085
0.27
0.26
0.35
0.29
0.255
0.085
-0.01
-0.05
0.055
0.17
0.21
0.295
0.275
0.225
0.23
0.19
0.05
-0.01
0.085
0.13
0.275
0.385
0.365
0.285
0.28
0.11
0.145
0.025
0.035
0.185
0.405
0.24
0.255
0.355
0.31
0.35
0.135
0.2
0.19
0.115
0.335
0.445
0.525
0.48
0.325
0.165
0.17
0.105
0.13
0.28
0.44
0.53
0.4
0.475
0.355
0.185
0.14
0.22
0.315
0.215
0.43
0.61
0.56
0.48
0.43
0.24
0.23
0.14
0.245
0.19
0.395
0.41
0.39
0.505
0.335
0.125
0.09
0.085
0.155
0.27
0.385
0.4
0.42
0.18
0.125
0.065
0.07
-0.05
0.07
0.195
0.405
0.395
0.275
0.22
0.09
0.0
0.0
-0.075
0.02
0.15
0.225
0.325
0.37
0.16
0.05
0.04
-0.05
-0.085
0.02
0.18
0.24
0.34
0.295
0.15
0.0
-0.055
-0.07
-0.145
0.0
0.24
0.21
0.265
0.48
0.225
0.055
0.135
-0.06
-0.08
0.025
0.195
0.265
0.31
0.265
0.185
0.09
0.075
-0.145
-0.105
0.09
0.23
0.26
0.34
0.2
0.015
0.015
-0.05
-0.05
0.005
0.135
0.135
0.265
0.395
0.225
0.22
0.175
0.035
-0.145
0.005
0.16
0.105
0.11
0.325
0.27
0.165
0.125
0.005
-0.1
0.025
0.05
0.14
0.23
0.22
-0.08
-0.035
0.13
-0.045
0.03
0.14
0.095
0.145
0.285
0.215
0.145
0.155
0.015
-0.11
-0.035
0.025
0.215
0.24
0.235
0.23
0.16
0.05
0.03
-0.055
-0.24
-0.045
0.175
0.225
0.21
0.29
0.19
0.17
0.025
-0.085
-0.18
-0.095
-0.135
-0.06
0.275
0.49
0.24
0.075
-0.105
0.015
-0.025
0.0
0.08
0.23
0.305
0.355
0.165
0.05
0.0
-0.03
-0.21
-0.395
0.14
0.33
0.405
0.41
0.205
-0.01
-0.005
0.0
-0.025
-0.045
0.105
0.245
0.37
0.35
0.19
0.16
0.11
0.025
-0.105
0.04
0.2
0.355
0.29
0.285
0.175
0.125
0.055
-0.06
-0.155
-0.1
-0.22
0.05
0.345
0.44
0.255
0.1
-0.085
-0.12
-0.095
-0.125
0.11
0.24
0.2
0.145
0.315
0.11
-0.065
-0.11
-0.155
0.01
0.1
0.205
0.275
0.265
0.125
0.005
-0.14
-0.215
-0.185
-0.12
0.17
0.215
0.275
0.22
0.065
0.095
-0.235
-0.205
-0.08
-0.08
0.125
0.21
0.24
0.14
0.17
0.1
0.07
-0.195
-0.175
-0.005
0.07
0.135
0.26
0.14
0.02
0.17
0.125
0.17
0.255
0.37
0.515
0.74
0.955
0.99
0.855
0.825
0.735
0.485
0.51
0.53
0.495
0.32
0.395
0.28
0.03
-0.12
-0.1
-0.17
-0.16
-0.205
0.165
0.26
0.345
0.165
0.01
0.005
-0.01
-0.235
0.045
0.035
0.085
0.255
0.43
0.075
0.075
0.015
-0.09
-0.1
0.02
0.08
0.26
0.18
0.205
0.27
0.165
0.045
0.0
-0.115
-0.03
0.015
0.27
0.265
0.25
0.1
0.09
0.005
-0.02
-0.12
0.125
0.12
0.2
0.295
0.265
0.01
0.11
0.02
-0.075
-0.07
0.035
0.185
0.335
0.345
0.365
0.24
0.165
-0.07
-0.005
-0.055
0.09
0.19
0.21
0.335
0.37
0.19
0.135
0.055
0.06
0.04
0.065
0.145
0.265
0.345
0.34
0.27
0.18
0.13
0.065
0.125
0.255
0.25
0.385
0.42
0.53
0.3
0.245
0.16
0.1
0.165
0.215
0.25
0.41
0.485
0.515
0.345
0.195
0.255
0.08
0.06
0.18
0.405
0.38
0.51
0.51
0.395
0.29
0.13
-0.04
0.055
0.115
0.42
0.385
0.48
0.41
0.31
0.275
0.185
0.045
0.08
0.12
0.06
0.195
0.37
0.365
0.185
0.225
0.1
-0.035
0.005
0.025
0.205
0.205
0.29
0.31
0.195
0.01
-0.06
-0.02
-0.055
-0.16
0.27
0.29
0.37
0.235
0.1
0.145
0.07
-0.175
0.005
0.025
0.165
0.21
0.08
0.14
0.22
0.16
0.02
-0.055
0.01
0.15
0.17
0.25
0.38
0.125
0.05
-0.095
-0.055
-0.155
-0.03
0.13
0.205
0.275
0.33
0.27
0.195
0.0
-0.04
-0.07
-0.02
0.09
0.055
0.15
0.435
0.225
0.01
0.065
0.005
-0.055
-0.005
0.215
0.23
0.265
0.37
0.255
0.095
0.015
-0.145
-0.14
-0.09
-0.01
0.225
0.4
0.41
0.21
0.075
-0.075
-0.015
-0.06
0.015
0.185
0.105
0.19
0.32
0.16
0.08
0.06
-0.03
-0.04
-0.025
0.12
0.32
0.24
0.195
0.19
0.045
-0.01
0.025
-0.035
-0.005
0.115
0.255
0.295
0.305
0.165
-0.02
-0.2
-0.065
-0.14
-0.03
0.185
0.335
0.315
0.315
0.18
0.055
-0.025
-0.105
0.0
0.05
0.145
0.305
0.165
0.345
0.32
0.11
0.04
-0.115
-0.02
-0.01
0.07
0.2
0.315
0.35
0.305
0.12
-0.005
-0.025
0.07
0.18
0.225
0.035
0.28
0.345
0.37
0.155
0.03
0.005
0.095
0.13
0.18
0.29
0.355
0.285
0.185
-0.005
-0.145
-0.03
0.165
0.045
0.175
0.165
0.345
0.235
0.21
0.065
-0.135
-0.15
-0.075
0.005
0.12
0.225
0.405
0.405
0.175
0.035
-0.11
-0.115
0.01
0.125
0.205
0.17
0.38
0.195
0.04
-0.11
-0.185
-0.18
0.0
0.1
0.195
0.345
0.425
0.165
0.04
-0.025
0.04
-0.03
-0.075
0.17
0.18
0.16
0.255
0.055
0.085
0.09
-0.045
-0.135
0.055
0.075
0.095
0.33
0.375
0.37
0.23
0.145
0.13
0.32
0.52
0.795
0.88
1.07
1.07
0.9
0.685
0.47
0.455
0.34
0.205
0.215
0.495
0.245
0.175
0.125
-0.05
-0.04
-0.09
-0.205
-0.085
0.125
0.22
0.395
0.215
0.12
0.155
-0.015
-0.075
-0.02
-0.035
0.135
0.08
0.205
0.34
0.24
0.065
-0.035
-0.15
-0.005
0.105
0.215
0.27
0.27
0.335
0.065
0.08
0.03
0.075
-0.01
0.025
0.195
0.13
0.205
0.345
0.325
0.06
0.02
-0.075
0.08
0.075
0.065
0.25
0.575
0.28
0.205
0.085
-0.115
-0.26
-0.085
0.195
0.285
0.24
0.37
0.405
0.265
0.14
-0.045
0.03
0.165
0.19
0.27
0.25
0.495
0.305
0.29
0.205
0.08
-0.06
0.075
0.23
0.305
0.295
0.5
0.425
0.305
0.16
0.065
0.085
0.18
0.155
0.335
0.535
0.545
0.495
0.375
0.34
0.215
0.09
0.19
0.335
0.525
0.52
0.575
0.43
0.315
0.29
0.175
0.175
0.065
0.38
0.475
0.395
0.515
0.47
0.36
0.245
0.1
0.055
0.13
0.265
0.42
0.375
0.485
0.47
0.38
0.15
-0.045
0.03
0.095
0.26
0.36
0.35
0.38
0.265
0.15
0.085
0.025
0.01
0.05
0.17
0.36
0.29
0.34
0.275
0.175
0.015
-0.15
-0.04
0.105
0.235
0.27
0.27
0.285
0.075
0.02
0.06
0.02
0.06
0.125
0.245
0.365
0.29
0.225
0.125
0.26
-0.015
0.015
-0.035
0.015
0.165
0.33
0.225
0.245
0.175
0.145
0.09
0.03
-0.055
-0.01
0.195
0.285
0.265
0.295
0.135
0.135
0.11
0.01
0.0
0.135
0.165
0.185
0.23
0.395
0.325
0.155
0.1
0.015
-0.065
0.13
0.27
0.235
0.315
0.365
0.205
0.125
0.06
0.005
0.005
0.095
0.28
0.3
0.205
0.24
0.095
0.09
0.145
-0.12
0.145
0.095
0.135
0.3
0.42
0.305
0.26
0.15
-0.155
-0.04
0.04
0.06
0.25
0.33
0.28
0.31
0.185
0.135
0.08
-0.025
0.125
0.095
0.13
0.17
0.23
0.28
0.195
0.06
-0.085
0.04
0.015
0.11
0.305
0.385
0.4
0.325
0.045
0.035
0.035
0.0
0.005
0.16
0.305
0.3
0.39
0.42
0.175
0.045
-0.055
-0.105
0.015
0.16
0.285
0.375
0.31
0.37
0.155
-0.045
-0.02
0.005
0.125
0.245
0.34
0.32
0.48
0.36
0.13
-0.03
0.005
-0.005
0.065
0.135
0.205
0.23
0.3
0.31
0.075
-0.05
-0.1
-0.08
0.12
0.23
0.36
0.3
0.365
0.29
0.15
0.045
-0.1
-0.115
-0.13
-0.07
0.16
0.415
0.41
0.185
0.205
0.03
0.015
-0.05
-0.015
0.14
0.18
0.39
0.27
0.055
-0.005
0.005
-0.155
-0.03
0.05
0.24
0.21
0.25
0.38
0.255
0.055
0.035
0.0
-0.075
-0.125
0.03
0.245
0.24
0.345
0.35
0.13
0.14
0.1
0.195
0.33
0.535
0.74
0.875
0.965
0.92
0.84
0.705
0.59
0.64
0.5
0.635
0.62
0.585
0.28
0.085
-0.055
-0.14
-0.12
-0.045
-0.04
0.16
0.35
0.395
0.275
0.155
0.04
-0.015
-0.02
-0.08
-0.04
0.07
0.235
0.295
0.355
0.265
0.08
-0.01
-0.065
0.115
0.04
0.25
0.245
0.29
0.4
0.185
0.04
0.025
-0.095
0.07
0.12
0.21
0.285
0.2
0.175
0.4
0.13
-0.025
0.055
0.025
0.12
0.165
0.265
0.39
0.325
0.285
0.04
0.035
-0.04
0.065
0.115
0.19
0.285
0.46
0.33
0.225
0.17
0.015
-0.13
0.025
0.195
0.37
0.415
0.415
0.34
0.15
0.08
0.0
-0.03
0.105
0.15
0.43
0.46
0.42
0.305
0.27
0.185
0.01
0.09
0.125
0.265
0.345
0.565
0.47
0.38
0.34
0.39
0.125
0.055
0.15
0.385
0.52
0.43
0.56
0.525
0.27
0.1
-0.05
-0.065
0.325
0.4
0.475
0.5
0.53
0.49
0.35
0.095
-0.025
0.135
0.32
0.54
0.39
0.455
0.48
0.37
0.17
0.085
-0.045
0.085
0.22
0.28
0.295
0.365
0.36
0.245
0.155
-0.025
-0.14
-0.04
0.075
0.16
0.275
0.4
0.295
0.17
0.19
-0.005
-0.025
0.045
0.035
0.13
0.24
0.345
0.35
0.14
0.01
0.04
0.07
-0.005
0.13
0.175
0.13
0.275
0.09
-0.005
0.24
0.165
-0.135
0.02
0.045
0.16
0.22
0.29
0.19
0.3
0.015
-0.02
-0.105
0.035
0.08
0.265
0.275
0.305
0.15
0.14
-0.065
0.065
-0.01
0.11
0.145
0.18
0.355
0.37
0.205
-0.015
-0.12
-0.08
0.06
0.19
0.19
0.1
0.3
0.385
0.205
0.135
0.05
-0.015
-0.12
-0.065
0.02
0.395
0.345
0.36
0.275
0.145
0.03
-0.01
-0.1
-0.035
0.155
0.145
0.17
0.34
0.26
0.09
0.095
0.025
-0.055
0.085
0.165
0.21
0.24
0.215
0.2
0.155
-0.025
-0.095
-0.135
0.125
0.25
0.21
0.25
0.235
0.085
0.275
0.09
-0.09
-0.08
0.125
0.125
0.04
0.11
0.32
0.26
0.15
-0.01
-0.115
-0.185
-0.095
0.1
0.28
0.455
0.485
0.25
-0.025
-0.14
-0.115
-0.065
0.06
0.08
0.235
0.205
0.125
0.365
0.285
0.025
-0.12
-0.085
0.055
0.055
0.055
0.32
0.54
0.24
0.075
-0.055
-0.195
-0.08
0.12
0.23
0.235
0.36
0.415
0.195
0.05
0.09
-0.035
0.125
0.07
0.045
0.19
0.345
0.42
0.22
0.11
0.045
-0.15
-0.05
0.065
0.26
0.345
0.27
0.17
0.155
-0.11
-0.115
0.08
0.01
-0.03
0.24
0.22
0.3
0.21
0.145
0.01
-0.085
-0.03
-0.145
-0.09
0.15
0.125
0.275
0.115
0.165
0.29
0.07
0.01
-0.025
-0.005
0.065
0.225
0.2
0.06
0.05
0.0
0.0
-0.125
0.025
