# TIPE ECG 2021 - ECG-ID Database v1.0.0 par Physionet
# [Numéro de la personne, Période d'échantillonnage, Prénom, Age, Sexe, Date de l'enregistrement]
[02, 0.002, Tammy, 23, F, 28.12.2004]
0.11
0.115
0.025
-0.04
-0.115
-0.155
-0.175
-0.12
-0.01
0.085
0.12
0.105
0.03
-0.015
-0.095
-0.185
-0.175
-0.11
-0.01
0.055
0.11
0.125
0.05
-0.035
-0.125
-0.155
-0.115
-0.1
-0.02
0.075
0.13
0.135
0.075
-0.01
-0.095
-0.135
-0.11
-0.055
0.035
0.11
0.175
0.16
0.12
-0.025
-0.11
-0.135
-0.12
-0.06
0.06
0.135
0.17
0.12
0.085
-0.035
-0.135
-0.165
-0.145
-0.11
0.005
0.1
0.135
0.105
0.03
-0.095
-0.175
-0.205
-0.155
-0.09
0.02
0.13
0.12
0.1
0.025
-0.095
-0.18
-0.2
-0.165
-0.1
0.035
0.105
0.1
0.1
0.015
-0.105
-0.185
-0.195
-0.16
-0.11
0.015
0.08
0.105
0.06
-0.01
-0.13
-0.21
-0.245
-0.235
-0.15
-0.045
0.02
0.075
0.08
0.085
0.07
0.065
0.13
0.225
0.38
0.54
0.605
0.58
0.455
0.295
0.175
0.085
0.02
-0.03
-0.12
-0.165
-0.09
-0.06
-0.12
-0.18
-0.275
-0.335
-0.345
-0.27
-0.185
-0.055
0.035
0.065
0.025
-0.045
-0.13
-0.165
-0.17
-0.12
-0.045
0.075
0.12
0.12
0.065
0.02
-0.09
-0.155
-0.145
-0.085
0.005
0.085
0.15
0.135
0.08
-0.02
-0.09
-0.14
-0.15
-0.075
0.015
0.09
0.145
0.13
0.105
0.005
-0.085
-0.14
-0.11
-0.075
0.03
0.135
0.195
0.17
0.095
0.005
-0.09
-0.1
-0.095
-0.05
0.08
0.16
0.19
0.175
0.11
0.015
-0.075
-0.115
-0.085
-0.02
0.095
0.16
0.215
0.2
0.13
0.03
-0.06
-0.08
-0.05
-0.025
0.15
0.235
0.235
0.22
0.17
0.055
0.02
-0.025
-0.01
0.05
0.185
0.28
0.305
0.265
0.23
0.16
0.045
0.045
0.08
0.13
0.26
0.355
0.375
0.37
0.29
0.215
0.15
0.08
0.105
0.19
0.325
0.425
0.445
0.42
0.355
0.22
0.135
0.115
0.14
0.2
0.31
0.39
0.395
0.36
0.295
0.15
0.065
0.04
0.065
0.095
0.215
0.27
0.255
0.205
0.145
0.01
-0.075
-0.115
-0.07
0.01
0.11
0.18
0.155
0.115
0.025
-0.09
-0.16
-0.195
-0.135
-0.065
0.065
0.115
0.13
0.07
-0.015
-0.13
-0.205
-0.2
-0.165
-0.09
0.035
0.085
0.1
0.015
-0.035
-0.18
-0.215
-0.21
-0.145
-0.085
0.025
0.075
0.075
0.01
-0.065
-0.165
-0.22
-0.24
-0.18
-0.045
0.035
0.05
0.07
0.05
-0.045
-0.135
-0.205
-0.19
-0.16
-0.09
0.015
0.1
0.095
0.035
-0.055
-0.165
-0.215
-0.2
-0.155
-0.045
0.04
0.09
0.06
0.015
-0.065
-0.15
-0.21
-0.185
-0.12
-0.02
0.05
0.09
0.08
0.02
-0.095
-0.17
-0.21
-0.18
-0.12
-0.03
0.075
0.1
0.095
0.025
-0.1
-0.17
-0.215
-0.19
-0.135
-0.025
0.065
0.095
0.065
0.005
-0.105
-0.165
-0.19
-0.19
-0.125
-0.025
0.06
0.095
0.05
0.0
-0.125
-0.18
-0.2
-0.18
-0.12
-0.01
0.07
0.095
0.05
-0.015
-0.13
-0.2
-0.23
-0.19
-0.125
-0.015
0.06
0.075
0.045
-0.03
-0.155
-0.185
-0.225
-0.195
-0.135
-0.035
0.07
0.07
0.055
-0.02
-0.155
-0.22
-0.235
-0.175
-0.11
0.015
0.065
0.07
0.04
-0.01
-0.155
-0.19
-0.205
-0.17
-0.09
0.03
0.1
0.105
0.065
0.0
-0.125
-0.185
-0.195
-0.145
-0.085
0.035
0.1
0.115
0.06
-0.01
-0.135
-0.205
-0.185
-0.15
-0.085
0.035
0.08
0.08
0.01
-0.07
-0.185
-0.205
-0.22
-0.2
-0.1
-0.01
0.075
0.07
0.0
-0.08
-0.17
-0.245
-0.245
-0.18
-0.095
0.005
0.04
0.045
-0.005
-0.08
-0.2
-0.255
-0.245
-0.17
-0.085
0.0
0.045
0.02
-0.045
-0.115
-0.175
-0.24
-0.24
-0.18
-0.09
-0.015
-0.005
-0.025
-0.085
-0.185
-0.28
-0.31
-0.265
-0.16
-0.01
0.165
0.295
0.365
0.37
0.37
0.335
0.34
0.315
0.29
0.295
0.35
0.39
0.27
0.105
-0.155
-0.385
-0.415
-0.4
-0.33
-0.2
-0.105
-0.055
-0.085
-0.12
-0.21
-0.275
-0.3
-0.26
-0.2
-0.045
0.055
0.08
0.065
0.01
-0.135
-0.21
-0.23
-0.185
-0.13
0.0
0.09
0.095
0.05
-0.01
-0.135
-0.17
-0.19
-0.165
-0.115
0.0
0.09
0.105
0.08
-0.005
-0.115
-0.185
-0.185
-0.175
-0.095
0.02
0.1
0.11
0.05
0.005
-0.115
-0.17
-0.17
-0.125
-0.08
0.035
0.085
0.115
0.085
0.025
-0.07
-0.13
-0.165
-0.11
-0.03
0.09
0.135
0.15
0.1
0.04
-0.095
-0.13
-0.14
-0.09
-0.03
0.11
0.14
0.17
0.13
0.06
-0.045
-0.12
-0.1
-0.025
0.03
0.145
0.205
0.225
0.175
0.11
-0.015
-0.055
-0.055
-0.005
0.07
0.215
0.27
0.28
0.24
0.185
0.06
0.025
0.04
0.085
0.175
0.275
0.31
0.345
0.29
0.185
0.095
0.07
0.065
0.135
0.225
0.32
0.345
0.345
0.3
0.195
0.095
0.045
0.04
0.09
0.19
0.26
0.29
0.26
0.2
0.11
-0.005
-0.06
-0.07
-0.035
0.045
0.15
0.155
0.145
0.075
-0.05
-0.135
-0.19
-0.17
-0.12
-0.005
0.06
0.08
0.075
0.005
-0.09
-0.195
-0.245
-0.215
-0.15
-0.03
0.045
0.11
0.05
0.0
-0.135
-0.22
-0.26
-0.22
-0.16
-0.055
0.03
0.055
0.045
-0.015
-0.14
-0.215
-0.25
-0.22
-0.155
-0.04
0.04
0.06
0.01
-0.04
-0.155
-0.22
-0.25
-0.21
-0.15
-0.02
0.045
0.055
0.045
-0.02
-0.16
-0.25
-0.22
-0.21
-0.155
-0.005
0.055
0.09
0.03
-0.04
-0.145
-0.225
-0.22
-0.195
-0.12
-0.005
0.065
0.08
0.05
-0.035
-0.145
-0.195
-0.22
-0.185
-0.115
0.01
0.06
0.065
0.025
-0.045
-0.145
-0.185
-0.205
-0.155
-0.095
0.025
0.075
0.085
0.04
-0.03
-0.145
-0.21
-0.215
-0.165
-0.085
0.03
0.06
0.085
0.03
-0.02
-0.155
-0.21
-0.195
-0.155
-0.085
0.045
0.065
0.07
0.035
-0.035
-0.145
-0.205
-0.21
-0.155
-0.095
0.05
0.1
0.1
0.04
-0.075
-0.205
-0.19
-0.205
-0.135
-0.045
0.045
0.08
0.08
0.01
-0.07
-0.17
-0.21
-0.225
-0.16
-0.05
0.04
0.085
0.085
0.02
-0.1
-0.17
-0.21
-0.205
-0.145
-0.045
0.045
0.055
0.065
0.0
-0.09
-0.18
-0.22
-0.19
-0.135
-0.05
0.045
0.09
0.05
-0.005
-0.1
-0.185
-0.21
-0.2
-0.115
0.0
0.06
0.105
0.06
0.005
-0.11
-0.18
-0.2
-0.185
-0.13
-0.02
0.065
0.1
0.075
0.01
-0.08
-0.15
-0.175
-0.145
-0.095
0.04
0.105
0.14
0.09
0.035
-0.07
-0.13
-0.175
-0.125
-0.09
0.015
0.08
0.13
0.08
0.025
-0.105
-0.18
-0.185
-0.155
-0.085
0.01
0.07
0.09
0.075
-0.02
-0.14
-0.195
-0.22
-0.175
-0.12
0.01
0.065
0.075
0.03
-0.02
-0.15
-0.225
-0.245
-0.175
-0.11
0.02
0.055
0.09
0.035
-0.05
-0.165
-0.225
-0.225
-0.195
-0.135
0.02
0.075
0.075
0.03
-0.05
-0.165
-0.23
-0.24
-0.225
-0.165
-0.06
-0.005
0.02
-0.04
-0.08
-0.16
-0.135
-0.06
0.07
0.27
0.465
0.585
0.64
0.61
0.475
0.3
0.13
0.12
0.145
0.145
0.155
0.055
-0.1
-0.165
-0.265
-0.365
-0.395
-0.355
-0.285
-0.2
-0.055
0.04
0.015
-0.015
-0.1
-0.17
-0.21
-0.185
-0.135
-0.05
0.04
0.11
0.095
0.03
-0.075
-0.165
-0.18
-0.17
-0.125
0.0
0.08
0.11
0.09
0.045
-0.06
-0.155
-0.185
-0.16
-0.115
0.0
0.09
0.145
0.1
0.055
-0.045
-0.13
-0.165
-0.14
-0.08
0.02
0.11
0.115
0.11
0.07
-0.03
-0.115
-0.145
-0.13
-0.07
0.065
0.135
0.15
0.13
0.06
-0.045
-0.1
-0.135
-0.135
-0.045
0.075
0.145
0.17
0.16
0.08
-0.03
-0.09
-0.11
-0.1
-0.02
0.105
0.185
0.215
0.175
0.12
-0.005
-0.07
-0.06
-0.035
0.03
0.155
0.24
0.265
0.235
0.185
0.06
0.0
0.02
0.045
0.11
0.235
0.295
0.31
0.305
0.25
0.125
0.07
0.055
0.115
0.17
0.285
0.335
0.365
0.32
0.285
0.175
0.095
0.1
0.16
0.205
0.32
0.375
0.38
0.325
0.26
0.105
0.05
0.035
0.09
0.14
0.26
0.3
0.3
0.24
0.145
0.01
-0.07
-0.07
-0.025
0.04
0.135
0.17
0.15
0.105
0.015
-0.1
-0.14
-0.15
-0.095
-0.035
0.06
0.105
0.09
0.04
-0.065
-0.18
-0.205
-0.18
-0.1
-0.045
0.035
0.055
0.075
0.015
-0.06
-0.18
-0.22
-0.21
-0.15
-0.05
0.04
0.07
0.06
0.015
-0.08
-0.17
-0.24
-0.175
-0.14
-0.05
0.025
0.06
0.05
0.025
-0.105
-0.185
-0.215
-0.195
-0.14
-0.025
0.065
0.07
0.06
0.035
-0.095
-0.175
-0.21
-0.185
-0.12
-0.015
0.06
0.1
0.065
0.015
-0.105
-0.17
-0.205
-0.165
-0.115
0.005
0.07
0.115
0.075
0.025
-0.08
-0.175
-0.21
-0.16
-0.1
0.005
0.105
0.13
0.08
0.02
-0.09
-0.17
-0.185
-0.16
-0.11
0.02
0.115
0.13
0.095
0.02
-0.09
-0.17
-0.195
-0.15
-0.07
0.04
0.095
0.13
0.08
0.015
-0.115
-0.185
-0.205
-0.165
-0.1
0.035
0.105
0.12
0.055
-0.025
-0.16
-0.17
-0.2
-0.16
-0.085
0.015
0.09
0.095
0.035
-0.025
-0.135
-0.19
-0.205
-0.135
-0.08
0.035
0.085
0.095
0.045
-0.025
-0.135
-0.21
-0.185
-0.15
-0.065
0.055
0.08
0.095
0.05
-0.055
-0.15
-0.19
-0.21
-0.16
-0.07
0.065
0.1
0.095
0.015
-0.05
-0.16
-0.185
-0.195
-0.145
-0.065
0.035
0.085
0.09
0.065
-0.025
-0.135
-0.19
-0.19
-0.13
-0.055
0.045
0.095
0.085
0.03
-0.055
-0.15
-0.19
-0.18
-0.13
-0.035
0.05
0.085
0.08
0.04
-0.055
-0.13
-0.19
-0.165
-0.125
-0.015
0.04
0.055
0.045
0.015
-0.05
-0.195
-0.2
-0.175
-0.11
0.0
0.085
0.12
0.085
0.015
-0.08
-0.17
-0.185
-0.165
-0.12
0.005
0.075
0.09
0.075
0.03
-0.08
-0.17
-0.2
-0.17
-0.105
0.015
0.095
0.1
0.105
0.04
-0.075
-0.155
-0.185
-0.135
-0.08
0.055
0.105
0.135
0.125
0.07
-0.055
-0.155
-0.16
-0.135
-0.075
0.06
0.12
0.125
0.065
0.04
-0.095
-0.16
-0.21
-0.145
-0.09
0.035
0.1
0.11
0.05
-0.005
-0.11
-0.18
-0.23
-0.2
-0.1
0.03
0.065
0.1
0.04
-0.035
-0.145
-0.185
-0.215
-0.165
-0.1
0.03
0.075
0.09
0.04
-0.045
-0.155
-0.2
-0.2
-0.15
-0.095
0.01
0.055
0.065
0.025
-0.05
-0.155
-0.235
-0.225
-0.185
-0.125
-0.015
0.035
0.07
0.075
0.04
0.005
0.055
0.135
0.26
0.42
0.6
0.7
0.665
0.51
0.325
0.17
0.115
0.035
-0.02
-0.06
-0.12
-0.1
-0.095
-0.16
-0.215
-0.27
-0.31
-0.295
-0.22
-0.09
0.01
0.07
0.075
0.015
-0.065
-0.15
-0.19
-0.17
-0.11
0.005
0.08
0.125
0.095
0.06
-0.045
-0.105
-0.145
-0.135
-0.075
0.015
0.105
0.13
0.135
0.07
-0.045
-0.135
-0.15
-0.13
-0.065
0.02
0.105
0.18
0.145
0.1
-0.05
-0.12
-0.155
-0.11
-0.03
0.055
0.14
0.165
0.145
0.08
-0.005
-0.095
-0.145
-0.105
-0.035
0.065
0.155
0.18
0.15
0.105
-0.01
-0.08
-0.11
-0.08
-0.005
0.115
0.19
0.195
0.19
0.135
0.025
-0.06
-0.08
-0.06
0.0
0.165
0.2
0.25
0.205
0.185
0.055
-0.02
-0.02
0.025
0.095
0.215
0.3
0.315
0.29
0.22
0.09
0.025
0.03
0.085
0.165
0.285
0.355
0.395
0.345
0.275
0.16
0.1
0.095
0.15
0.225
0.35
0.415
0.435
0.365
0.285
0.2
0.135
0.115
0.185
0.26
0.375
0.415
0.41
0.38
0.295
0.16
0.09
0.1
0.125
0.19
0.295
0.315
0.305
0.22
0.15
0.03
-0.02
-0.025
-0.015
0.06
0.155
0.21
0.185
0.135
0.065
-0.055
-0.125
-0.13
-0.085
-0.005
0.105
0.15
0.15
0.09
0.005
-0.1
-0.145
-0.155
-0.095
0.005
0.075
0.13
0.13
0.075
-0.005
-0.1
-0.175
-0.165
-0.11
-0.005
0.105
0.14
0.11
0.06
-0.025
-0.13
-0.175
-0.14
-0.09
0.0
0.12
0.145
0.125
0.075
-0.02
-0.11
-0.18
-0.125
-0.085
0.015
0.11
0.145
0.12
0.055
-0.055
-0.12
-0.15
-0.105
-0.045
0.04
0.13
0.135
0.12
0.085
-0.02
-0.12
-0.125
-0.12
-0.065
0.07
0.155
0.175
0.15
0.075
-0.03
-0.11
-0.13
-0.105
-0.045
0.09
0.16
0.18
0.16
0.115
-0.03
-0.115
-0.13
-0.075
-0.045
0.075
0.135
0.165
0.135
0.07
-0.05
-0.135
-0.135
-0.115
-0.035
0.115
0.17
0.17
0.11
0.05
-0.07
-0.125
-0.145
-0.095
-0.03
0.105
0.145
0.135
0.1
0.065
-0.045
-0.125
-0.13
-0.1
-0.02
0.09
0.145
0.155
0.115
0.065
-0.045
-0.095
-0.13
-0.075
-0.005
0.1
0.145
0.165
0.135
0.08
-0.025
-0.105
-0.115
-0.045
0.055
0.155
0.21
0.215
0.17
0.07
-0.02
-0.1
-0.075
-0.03
0.06
0.155
0.2
0.2
0.155
0.095
-0.04
-0.065
-0.085
-0.03
0.035
0.15
0.225
0.225
0.175
0.075
-0.045
-0.07
-0.085
-0.03
0.08
0.195
0.205
0.195
0.16
0.065
-0.05
-0.075
-0.055
-0.025
0.1
0.17
0.225
0.21
0.155
0.04
-0.055
-0.085
-0.06
-0.01
0.105
0.205
0.215
0.165
0.135
0.055
-0.03
-0.075
-0.075
0.01
0.12
0.18
0.21
0.19
0.15
0.03
-0.04
-0.07
-0.055
-0.005
0.12
0.22
0.25
0.225
0.155
0.035
-0.035
-0.06
-0.03
0.035
0.15
0.23
0.23
0.21
0.205
0.065
-0.02
-0.04
-0.015
0.05
0.165
0.215
0.275
0.25
0.2
0.025
-0.015
-0.04
0.01
0.07
0.165
0.25
0.26
0.24
0.185
0.05
-0.03
-0.07
-0.025
0.04
0.17
0.255
0.265
0.2
0.145
0.005
-0.055
-0.06
-0.015
0.05
0.16
0.23
0.22
0.155
0.105
-0.01
-0.075
-0.09
-0.015
0.065
0.18
0.205
0.23
0.16
0.09
-0.025
-0.065
-0.065
-0.03
0.055
0.155
0.215
0.25
0.18
0.09
-0.02
-0.075
-0.09
-0.08
0.03
0.115
0.185
0.16
0.145
0.09
0.045
0.055
0.155
0.28
0.465
0.615
0.74
0.765
0.69
0.545
0.32
0.25
0.24
0.2
0.215
0.195
0.085
0.025
-0.015
-0.09
-0.175
-0.225
-0.225
-0.155
-0.035
0.085
0.17
0.16
0.135
0.065
-0.01
-0.055
-0.04
0.02
0.12
0.225
0.26
0.23
0.19
0.1
0.0
-0.005
-0.02
0.075
0.16
0.245
0.275
0.255
0.19
0.105
0.01
-0.045
0.035
0.09
0.19
0.26
0.28
0.275
0.215
0.1
0.015
-0.005
0.035
0.06
0.205
0.265
0.32
0.27
0.215
0.14
0.055
0.02
0.035
0.09
0.23
0.31
0.335
0.305
0.23
0.14
0.065
0.015
0.045
0.14
0.265
0.335
0.35
0.315
0.245
0.155
0.08
0.05
0.1
0.145
0.315
0.34
0.38
0.365
0.315
0.195
0.12
0.095
0.125
0.2
0.32
0.42
0.425
0.38
0.36
0.235
0.18
0.155
0.195
0.27
0.4
0.47
0.485
0.44
0.4
0.28
0.245
0.225
0.275
0.36
0.46
0.53
0.525
0.505
0.42
0.32
0.27
0.26
0.32
0.41
0.49
0.525
0.52
0.485
0.395
0.265
0.225
0.205
0.245
0.33
0.4
0.475
0.43
0.385
0.28
0.14
0.105
0.08
0.135
0.205
0.275
0.345
0.335
0.27
0.175
0.02
0.0
-0.01
0.05
0.125
0.23
0.265
0.255
0.195
0.11
0.0
-0.045
-0.05
0.0
0.11
0.205
0.245
0.235
0.17
0.08
-0.035
-0.06
-0.045
0.005
0.095
0.2
0.25
0.205
0.15
0.05
-0.06
-0.095
-0.06
-0.005
0.11
0.195
0.215
0.22
0.15
0.045
-0.02
-0.06
-0.07
-0.015
0.12
0.2
0.235
0.215
0.145
0.07
-0.055
-0.08
-0.04
0.045
0.125
0.22
0.255
0.22
0.15
0.03
-0.035
-0.07
-0.035
0.025
0.135
0.23
0.235
0.205
0.15
0.045
-0.045
-0.04
-0.02
0.03
0.15
0.255
0.255
0.225
0.17
0.055
-0.03
-0.075
-0.005
0.05
0.205
0.23
0.235
0.22
0.155
0.04
-0.04
-0.04
-0.035
0.035
0.14
0.24
0.25
0.2
0.135
-0.01
-0.095
-0.04
0.0
0.055
0.165
0.23
0.24
0.18
0.14
0.025
-0.04
-0.07
-0.02
0.035
0.165
0.24
0.235
0.175
0.125
0.01
-0.03
-0.06
-0.025
0.05
0.175
0.24
0.25
0.175
0.1
-0.005
-0.05
-0.065
-0.005
0.055
0.15
0.22
0.225
0.17
0.105
-0.02
-0.075
-0.075
0.01
0.085
0.18
0.215
0.22
0.155
0.065
0.005
-0.065
-0.105
-0.015
0.07
0.185
0.23
0.22
0.17
0.045
-0.035
-0.085
-0.07
-0.01
0.085
0.175
0.23
0.235
0.15
0.085
-0.04
-0.09
-0.065
0.02
0.105
0.185
0.205
0.22
0.135
0.045
-0.055
-0.09
-0.06
0.015
0.105
0.19
0.24
0.22
0.16
0.06
-0.04
-0.075
-0.035
0.025
0.12
0.215
0.235
0.23
0.15
0.04
-0.025
-0.095
0.0
0.055
0.15
0.22
0.255
0.235
0.21
0.06
0.0
-0.025
0.0
0.065
0.18
0.255
0.25
0.265
0.165
0.08
-0.03
-0.06
-0.015
0.055
0.17
0.24
0.24
0.2
0.15
0.015
-0.075
-0.085
-0.035
-0.005
0.115
0.21
0.23
0.19
0.115
-0.01
-0.075
-0.09
-0.05
0.015
0.135
0.17
0.205
0.165
0.095
-0.01
-0.08
-0.115
-0.03
0.01
0.13
0.195
0.225
0.155
0.105
-0.02
-0.095
-0.085
-0.065
0.01
0.11
0.15
0.14
0.095
0.055
-0.02
-0.04
0.0
0.13
0.275
0.47
0.6
0.7
0.685
0.64
0.48
0.35
0.255
0.285
0.34
0.365
0.31
0.19
-0.01
-0.13
-0.23
-0.245
-0.22
-0.14
-0.05
0.04
0.12
0.13
0.1
0.055
-0.04
-0.09
-0.075
-0.03
0.09
0.185
0.255
0.225
0.165
0.085
-0.02
-0.045
-0.045
0.02
0.125
0.185
0.24
0.24
0.18
0.095
0.01
-0.035
-0.03
0.065
0.13
0.225
0.26
0.255
0.2
0.09
0.015
-0.025
-0.01
0.06
0.15
0.235
0.27
0.235
0.2
0.085
-0.01
-0.035
-0.015
0.065
0.175
0.255
0.29
0.26
0.23
0.12
0.025
0.0
0.03
0.075
0.205
0.275
0.315
0.29
0.235
0.145
0.04
0.02
0.045
0.095
0.24
0.315
0.335
0.295
0.25
0.15
0.085
0.04
0.095
0.15
0.275
0.37
0.385
0.35
0.305
0.19
0.1
0.105
0.15
0.22
0.345
0.415
0.44
0.435
0.37
0.25
0.22
0.205
0.235
0.29
0.415
0.48
0.5
0.46
0.425
0.285
0.245
0.225
0.275
0.355
0.46
0.52
0.545
0.47
0.395
0.295
0.22
0.185
0.215
0.305
0.41
0.45
0.445
0.365
0.31
0.165
0.075
0.075
0.115
0.2
0.3
0.34
0.34
0.245
0.15
0.035
-0.02
-0.03
0.0
0.095
0.195
0.25
0.245
0.175
0.11
-0.025
-0.075
-0.06
0.01
0.065
0.175
0.23
0.22
0.14
0.07
-0.005
-0.055
-0.09
0.0
0.095
0.16
0.22
0.215
0.16
0.05
-0.045
-0.08
-0.065
0.0
0.07
0.175
0.215
0.21
0.16
0.045
-0.03
-0.065
-0.07
-0.02
0.07
0.19
0.235
0.205
0.17
0.045
-0.045
-0.085
-0.065
-0.015
0.105
0.195
0.24
0.21
0.16
0.05
-0.02
-0.07
-0.06
0.02
0.16
0.235
0.24
0.225
0.195
0.04
-0.03
-0.055
-0.035
0.01
0.15
0.235
0.25
0.23
0.155
0.015
-0.05
-0.065
-0.035
0.03
0.175
0.22
0.23
0.22
0.17
0.04
-0.03
-0.065
-0.04
0.01
0.16
0.205
0.24
0.225
0.12
0.035
-0.02
-0.065
-0.015
0.045
0.15
0.26
0.245
0.205
0.16
0.015
-0.07
-0.075
-0.02
0.03
0.155
0.21
0.235
0.19
0.12
-0.01
-0.065
-0.075
-0.04
0.025
0.17
0.22
0.225
0.17
0.115
-0.015
-0.085
-0.08
-0.045
0.035
0.155
0.205
0.225
0.165
0.1
-0.025
-0.065
-0.105
-0.02
0.04
0.165
0.205
0.26
0.16
0.09
-0.025
-0.075
-0.07
-0.03
0.02
0.155
0.2
0.18
0.16
0.1
-0.015
-0.065
-0.075
-0.015
0.055
0.17
0.205
0.22
0.15
0.055
-0.045
-0.085
-0.07
-0.025
0.06
0.165
0.205
0.205
0.135
0.04
-0.055
-0.075
-0.07
-0.025
0.075
0.175
0.185
0.2
0.15
0.065
-0.04
-0.08
-0.055
-0.01
0.08
0.155
0.21
0.185
0.135
0.035
-0.035
-0.105
-0.075
-0.015
0.095
0.19
0.225
0.19
0.155
0.03
-0.045
-0.08
-0.04
-0.025
0.105
0.195
0.22
0.23
0.15
0.03
-0.06
-0.085
-0.04
0.01
0.125
0.195
0.225
0.205
0.155
0.075
-0.005
-0.035
-0.035
0.03
0.155
0.225
0.265
0.225
0.17
0.07
-0.01
-0.045
-0.02
0.025
0.165
0.23
0.235
0.185
0.145
0.015
-0.06
-0.06
-0.03
0.0
0.145
0.195
0.215
0.16
0.11
-0.01
-0.095
-0.1
-0.085
-0.005
0.12
0.17
0.18
0.145
0.11
-0.045
-0.1
-0.115
-0.08
-0.005
0.115
0.195
0.19
0.145
0.085
-0.05
-0.11
-0.115
-0.075
-0.015
0.115
0.16
0.17
0.12
0.055
-0.06
-0.13
-0.15
-0.095
-0.05
0.06
0.105
0.165
0.13
0.11
0.06
0.105
0.19
0.29
0.46
0.685
0.725
0.74
0.625
0.45
0.235
0.195
0.135
0.065
0.075
-0.005
-0.06
-0.04
-0.1
-0.155
-0.24
-0.275
-0.255
-0.16
-0.055
0.08
0.125
0.145
0.12
0.005
-0.08
-0.12
-0.095
-0.05
0.05
0.17
0.205
0.205
0.14
0.04
-0.065
-0.09
-0.09
-0.02
0.06
0.165
0.23
0.2
0.14
0.035
-0.045
-0.085
-0.065
-0.015
0.09
0.18
0.22
0.225
0.155
0.04
-0.055
-0.09
-0.04
0.01
0.11
0.195
0.225
0.195
0.16
0.045
-0.035
-0.07
-0.05
0.01
0.12
0.215
0.225
0.19
0.165
0.05
-0.04
-0.055
-0.02
0.045
0.16
0.24
0.255
0.21
0.16
0.05
-0.015
-0.035
-0.005
0.065
0.23
0.295
0.315
0.255
0.205
0.075
0.025
0.005
0.065
0.11
0.23
0.335
0.35
0.315
0.265
0.145
0.08
0.08
0.105
0.175
0.325
0.38
0.415
0.365
0.31
0.2
0.14
0.135
0.2
0.25
0.38
0.45
0.47
0.415
0.365
0.235
0.165
0.18
0.215
0.275
0.395
0.445
0.46
0.39
0.325
0.205
0.135
0.105
0.145
0.22
0.355
0.365
0.35
0.29
0.205
0.085
0.015
-0.02
0.03
0.1
0.195
0.215
0.225
0.17
0.055
-0.04
-0.085
-0.095
-0.02
0.05
0.125
0.17
0.165
0.105
0.035
-0.07
-0.145
-0.135
-0.1
0.015
0.12
0.15
0.145
0.09
-0.005
-0.12
-0.165
-0.13
-0.08
0.02
0.1
0.115
0.13
0.09
-0.005
-0.115
-0.165
-0.15
-0.055
0.015
0.1
0.135
0.125
0.08
-0.045
-0.115
-0.155
-0.14
-0.09
0.04
0.125
0.16
0.145
0.07
-0.015
-0.095
-0.14
-0.11
-0.04
0.05
0.13
0.135
0.12
0.085
-0.025
-0.135
-0.15
-0.12
-0.07
0.07
0.14
0.175
0.13
0.085
-0.05
-0.135
-0.13
-0.12
-0.06
0.065
0.135
0.165
0.13
0.095
-0.05
-0.11
-0.145
-0.105
-0.065
0.09
0.155
0.15
0.135
0.06
-0.06
-0.13
-0.145
-0.1
-0.035
0.08
0.14
0.16
0.12
0.06
-0.095
-0.11
-0.14
-0.11
-0.06
0.065
0.13
0.145
0.105
0.045
-0.07
-0.12
-0.145
-0.12
-0.04
0.095
0.145
0.135
0.095
0.035
-0.105
-0.12
-0.115
-0.1
-0.02
0.09
0.135
0.15
0.1
0.055
-0.11
-0.155
-0.16
-0.12
-0.02
0.09
0.15
0.16
0.1
0.02
-0.1
-0.15
-0.165
-0.105
-0.025
0.1
0.145
0.14
0.09
0.015
-0.09
-0.155
-0.13
-0.075
-0.01
0.12
0.15
0.145
0.105
0.02
-0.09
-0.15
-0.145
-0.085
0.03
0.11
0.14
0.145
0.095
0.02
-0.1
-0.165
-0.13
-0.08
0.02
0.1
0.115
0.115
0.06
-0.03
-0.155
-0.145
-0.135
-0.08
0.015
0.095
0.12
0.14
0.07
-0.015
-0.13
-0.175
-0.15
-0.085
0.015
0.09
0.135
0.135
0.065
-0.05
-0.105
-0.145
-0.13
-0.07
0.055
0.13
0.145
0.125
0.06
-0.035
-0.12
-0.145
-0.11
-0.075
0.04
0.14
0.165
0.145
0.06
-0.025
-0.095
-0.12
-0.1
-0.03
0.1
0.175
0.18
0.16
0.095
-0.005
-0.09
-0.105
-0.05
-0.03
0.125
0.195
0.2
0.16
0.095
-0.005
-0.065
-0.11
-0.07
-0.03
0.1
0.16
0.17
0.125
0.07
-0.055
-0.13
-0.15
-0.105
-0.04
0.08
0.13
0.145
0.105
0.055
-0.07
-0.125
-0.14
-0.125
-0.055
0.055
0.12
0.135
0.09
0.03
-0.075
-0.14
-0.145
-0.12
-0.06
0.085
0.15
0.18
0.085
0.01
-0.105
-0.145
-0.145
-0.09
-0.025
0.085
0.1
0.12
0.055
-0.045
-0.155
-0.165
-0.13
-0.005
0.155
0.33
0.455
0.56
0.605
0.595
0.52
0.425
0.33
0.27
0.31
0.41
0.405
0.28
0.095
-0.145
-0.31
-0.33
-0.31
-0.24
-0.13
-0.04
-0.005
0.055
0.01
-0.045
-0.13
-0.145
-0.12
-0.065
0.025
0.145
0.195
0.185
0.145
0.045
-0.04
-0.105
-0.095
-0.025
0.09
0.17
0.205
0.19
0.135
0.065
-0.055
-0.095
-0.06
-0.005
0.12
0.205
0.22
0.21
0.145
0.035
-0.045
-0.08
-0.055
-0.01
0.135
0.205
0.25
0.225
0.17
0.055
-0.045
-0.065
-0.04
0.0
0.155
0.23
0.27
0.23
0.18
0.05
-0.01
-0.04
-0.04
0.03
0.17
0.25
0.295
0.235
0.18
0.06
-0.01
-0.02
0.005
0.095
0.215
0.275
0.31
0.255
0.205
0.085
0.03
0.025
0.04
0.11
0.25
0.325
0.345
0.32
0.245
0.12
0.07
0.06
0.105
0.175
0.295
0.405
0.395
0.385
0.32
0.22
0.155
0.145
0.195
0.28
0.41
0.465
0.5
0.435
0.38
0.235
0.195
0.175
0.24
0.32
0.445
0.505
0.52
0.46
0.38
0.25
0.2
0.17
0.265
0.305
0.4
0.445
0.425
0.39
0.275
0.15
0.085
0.095
0.13
0.195
0.28
0.33
0.29
0.26
0.175
0.055
-0.005
-0.02
0.02
0.12
0.22
0.235
0.245
0.16
0.075
-0.025
-0.08
-0.08
-0.035
0.05
0.185
0.2
0.18
0.13
0.04
-0.055
-0.11
-0.095
-0.05
0.045
0.13
0.18
0.16
0.1
-0.005
-0.08
-0.105
-0.15
-0.045
0.065
0.14
0.155
0.14
0.105
0.005
-0.085
-0.13
-0.075
-0.05
0.04
0.135
0.17
0.165
0.1
-0.01
-0.095
-0.105
-0.09
-0.01
0.07
0.155
0.195
0.16
0.125
-0.005
-0.09
-0.125
-0.085
-0.03
0.105
0.18
0.195
0.19
0.135
0.025
-0.055
-0.115
-0.085
-0.03
0.105
0.17
0.19
0.155
0.11
0.03
-0.06
-0.1
-0.07
-0.02
0.11
0.19
0.2
0.16
0.1
-0.01
-0.085
-0.1
-0.06
-0.01
0.1
0.18
0.185
0.175
0.09
-0.02
-0.11
-0.11
-0.065
-0.01
0.11
0.185
0.175
0.155
0.065
-0.06
-0.115
-0.09
-0.08
-0.015
0.11
0.155
0.175
0.135
0.075
-0.05
-0.095
-0.095
-0.065
0.025
0.13
0.175
0.19
0.12
0.085
-0.05
-0.125
-0.135
-0.075
-0.01
0.115
0.165
0.16
0.115
0.055
-0.065
-0.11
-0.115
-0.075
0.015
0.11
0.165
0.145
0.085
0.045
-0.06
-0.135
-0.115
-0.05
0.025
0.12
0.185
0.17
0.1
0.035
-0.07
-0.11
-0.12
-0.05
0.045
0.12
0.17
0.17
0.1
0.02
-0.1
-0.135
-0.125
-0.065
0.04
0.135
0.17
0.16
0.105
0.03
-0.065
-0.105
-0.095
-0.035
0.075
0.16
0.2
0.18
0.13
0.05
-0.06
-0.09
-0.075
-0.02
0.09
0.175
0.19
0.175
0.12
0.03
-0.045
-0.1
-0.08
-0.03
0.065
0.155
0.215
0.165
0.09
0.0
-0.105
-0.13
-0.115
-0.06
0.05
0.135
0.145
0.12
0.085
-0.04
-0.105
-0.15
-0.115
-0.08
0.055
0.14
0.145
0.12
0.065
-0.03
-0.135
-0.15
-0.115
-0.065
0.065
0.14
0.165
0.13
0.055
-0.055
-0.13
-0.17
-0.1
-0.05
0.035
0.085
0.105
0.08
0.02
-0.125
-0.2
-0.215
-0.115
0.01
0.2
0.33
0.45
0.5
0.53
0.47
0.445
0.395
0.395
0.325
0.395
0.44
0.385
0.235
0.04
-0.25
-0.37
-0.38
-0.325
-0.25
-0.095
-0.03
0.0
-0.035
-0.065
-0.18
-0.195
-0.19
-0.135
-0.045
0.06
0.15
0.135
0.095
0.04
-0.065
-0.125
-0.125
-0.09
0.0
0.12
0.185
0.16
0.12
0.05
-0.075
-0.12
-0.12
-0.07
0.03
0.14
0.17
0.16
0.11
0.04
-0.05
-0.095
-0.125
-0.055
0.05
0.14
0.2
0.185
0.13
0.045
-0.055
-0.095
-0.105
-0.03
0.06
0.16
0.22
0.215
0.145
0.04
-0.035
-0.055
-0.055
0.01
0.12
0.2
0.235
0.225
0.175
0.075
-0.015
-0.05
-0.03
0.02
0.13
0.21
0.27
0.26
0.21
0.09
0.01
-0.015
0.01
0.075
0.17
0.27
0.315
0.28
0.22
0.115
0.045
0.02
0.05
0.125
0.235
0.32
0.315
0.32
0.295
0.195
0.13
0.115
0.145
0.19
0.33
0.405
0.435
0.405
0.355
0.23
0.165
0.135
0.155
0.235
0.36
0.425
0.44
0.415
0.37
0.235
0.165
0.14
0.19
0.24
0.345
0.395
0.405
0.35
0.275
0.135
0.055
0.035
0.055
0.115
0.195
0.27
0.25
0.2
0.14
0.005
-0.08
-0.105
-0.05
0.005
0.125
0.155
0.18
0.12
0.075
-0.05
-0.125
-0.17
-0.125
-0.065
0.085
0.14
0.11
0.09
0.02
-0.11
-0.165
-0.175
-0.12
-0.055
0.07
0.13
0.12
0.07
0.015
-0.105
-0.18
-0.17
-0.125
-0.06
0.075
0.135
0.125
0.075
-0.02
-0.14
-0.17
-0.165
-0.115
-0.025
0.07
0.145
0.135
0.06
0.005
-0.1
-0.165
-0.165
-0.09
-0.03
0.09
0.135
0.115
0.065
-0.005
-0.125
-0.165
-0.155
-0.07
0.015
0.115
0.145
0.145
0.105
-0.01
-0.095
-0.16
-0.12
-0.085
0.02
0.105
0.16
0.13
0.075
-0.01
-0.105
-0.14
-0.135
-0.075
0.05
0.13
0.155
0.13
0.075
-0.035
-0.14
-0.175
-0.13
-0.045
0.035
0.115
0.15
0.11
0.06
-0.035
-0.12
-0.165
-0.14
-0.095
0.045
0.11
0.155
0.13
0.06
-0.07
-0.145
-0.175
-0.155
-0.085
0.04
0.125
0.13
0.105
0.045
-0.075
-0.135
-0.15
-0.125
-0.1
0.04
0.105
0.115
0.095
0.02
-0.105
-0.17
-0.16
-0.125
-0.04
0.05
0.11
0.13
0.08
0.01
-0.085
-0.165
-0.19
-0.14
-0.085
0.07
0.125
0.15
0.085
0.02
-0.105
-0.165
-0.17
-0.145
-0.085
0.08
0.1
0.12
0.085
0.045
-0.105
-0.18
-0.175
-0.125
-0.035
0.06
0.125
0.135
0.08
0.02
-0.09
-0.15
-0.16
-0.11
-0.025
0.07
0.14
0.145
0.105
0.0
-0.065
-0.13
-0.11
-0.09
0.02
0.105
0.195
0.185
0.11
0.02
-0.055
-0.105
-0.105
-0.055
0.025
0.11
0.165
0.16
0.13
0.025
-0.075
-0.14
-0.14
-0.095
-0.01
0.11
0.145
0.13
0.06
-0.035
-0.14
-0.185
-0.165
-0.12
-0.02
0.065
0.1
0.085
0.02
-0.05
-0.14
-0.205
-0.185
-0.11
-0.025
0.06
0.085
0.08
0.02
-0.065
-0.155
-0.2
-0.185
-0.12
-0.005
0.06
0.09
0.07
0.01
-0.07
-0.18
-0.21
-0.19
-0.14
-0.05
0.02
0.065
0.015
0.01
-0.03
-0.025
0.075
0.16
0.28
0.49
0.655
0.71
0.695
0.56
0.315
0.17
0.13
0.13
0.03
0.025
-0.075
-0.115
-0.125
-0.185
-0.275
-0.335
-0.335
-0.315
-0.23
-0.08
0.025
0.07
0.06
0.0
-0.11
-0.165
-0.205
-0.155
-0.095
0.055
0.13
0.145
0.105
0.055
-0.095
-0.145
-0.155
-0.115
-0.045
0.085
0.17
0.165
0.135
0.08
-0.065
-0.125
-0.155
-0.095
-0.005
0.105
0.145
0.17
0.13
0.055
-0.065
-0.125
-0.11
-0.095
-0.02
0.125
0.2
0.18
0.125
0.06
-0.06
-0.145
-0.14
-0.075
0.025
0.14
0.19
0.2
0.14
0.06
-0.045
-0.095
-0.125
-0.04
0.045
0.15
0.18
0.19
0.13
0.095
-0.015
-0.035
-0.07
-0.025
0.085
0.18
0.225
0.23
0.21
0.125
0.015
-0.045
-0.02
0.05
0.145
0.235
0.27
0.275
0.24
0.15
0.04
0.04
0.035
0.12
0.21
0.315
0.38
0.345
0.295
0.22
0.135
0.085
0.095
0.18
0.295
0.385
0.415
0.41
0.35
0.26
0.155
0.14
0.175
0.23
0.325
0.4
0.435
0.415
0.345
0.225
0.135
0.11
0.105
0.16
0.265
0.325
0.33
0.3
0.21
0.11
0.005
-0.04
-0.03
0.01
0.11
0.175
0.2
0.16
0.1
-0.035
-0.125
-0.16
-0.11
-0.065
0.065
0.105
0.145
0.11
0.05
-0.08
-0.16
-0.175
-0.165
-0.07
0.025
0.105
0.13
0.075
0.02
-0.095
-0.17
-0.195
-0.155
-0.11
0.01
0.09
0.12
0.07
0.005
-0.115
-0.185
-0.21
-0.165
-0.09
0.04
0.1
0.095
0.065
0.005
-0.115
-0.185
-0.2
-0.15
-0.1
0.025
0.125
0.125
0.08
0.03
-0.105
-0.185
-0.185
-0.135
-0.075
0.045
0.105
0.125
0.115
-0.005
-0.115
-0.17
-0.18
-0.13
-0.05
0.07
0.125
0.12
0.075
0.01
-0.095
-0.16
-0.15
-0.105
-0.03
0.08
0.135
0.14
0.085
0.0
-0.115
-0.17
-0.16
-0.11
-0.01
0.08
0.13
0.13
0.1
-0.015
-0.135
-0.195
-0.16
-0.11
-0.01
0.075
0.12
0.12
0.085
-0.02
-0.125
-0.165
-0.165
-0.135
-0.025
0.08
0.135
0.11
0.065
-0.02
-0.14
-0.175
-0.175
-0.12
-0.01
0.085
0.115
0.1
0.05
-0.055
-0.19
-0.22
-0.18
-0.09
0.0
0.07
0.095
0.08
0.04
-0.065
-0.175
-0.205
-0.19
-0.13
-0.035
0.075
0.1
0.07
-0.01
-0.06
-0.165
-0.185
-0.175
-0.11
0.02
0.085
0.095
0.1
0.04
-0.08
-0.155
-0.155
-0.13
-0.075
0.045
0.12
0.155
0.115
0.06
-0.05
-0.13
-0.175
-0.11
-0.055
0.065
0.14
0.16
0.14
0.065
-0.06
-0.135
-0.155
-0.12
-0.065
0.07
0.125
0.115
0.065
0.035
-0.07
-0.14
-0.195
-0.14
-0.105
0.02
0.075
0.1
0.055
0.005
-0.13
-0.19
-0.2
-0.165
-0.1
0.05
0.095
0.105
0.055
-0.01
-0.135
-0.2
-0.21
-0.155
-0.08
0.025
0.08
0.085
0.035
-0.03
-0.115
-0.195
-0.195
-0.145
-0.105
0.035
0.095
0.04
-0.01
-0.115
-0.21
-0.265
-0.24
-0.17
-0.055
0.095
0.245
0.335
0.4
0.375
0.365
0.37
0.415
0.395
0.395
0.38
0.4
0.385
0.245
0.035
-0.21
-0.41
-0.425
-0.33
-0.23
-0.125
-0.07
-0.055
-0.115
-0.18
-0.255
-0.255
-0.235
-0.16
-0.075
0.03
0.075
0.09
0.045
-0.05
-0.135
-0.175
-0.155
-0.11
0.005
0.12
0.12
0.13
0.06
-0.03
-0.11
-0.135
-0.14
-0.085
0.035
0.11
0.15
0.125
0.08
-0.015
-0.1
-0.145
-0.115
-0.06
0.055
0.14
0.18
0.145
0.08
-0.02
-0.09
-0.135
-0.09
-0.045
0.08
0.165
0.19
0.165
0.095
0.0
-0.085
-0.1
-0.085
-0.025
0.115
0.195
0.2
0.18
0.135
0.005
-0.08
-0.08
-0.05
0.01
0.15
0.215
0.24
0.205
0.165
0.035
-0.06
-0.075
-0.03
0.055
0.18
0.255
0.28
0.255
0.185
0.085
0.01
-0.02
0.05
0.1
0.24
0.315
0.325
0.29
0.25
0.125
0.065
0.08
0.12
0.185
0.295
0.395
0.385
0.365
0.305
0.18
0.135
0.13
0.155
0.235
0.365
0.425
0.435
0.385
0.315
0.175
0.11
0.1
0.155
0.245
0.37
0.375
0.375
0.305
0.22
0.11
0.03
0.01
0.045
0.12
0.205
0.26
0.245
0.17
0.095
-0.02
-0.095
-0.1
-0.06
0.015
0.1
0.135
0.13
0.1
0.015
-0.115
-0.17
-0.155
-0.1
-0.035
0.055
0.105
0.115
0.065
-0.025
-0.15
-0.195
-0.19
-0.14
-0.015
0.07
0.125
0.09
0.01
-0.075
-0.15
-0.195
-0.19
-0.145
0.0
0.07
0.105
0.085
0.01
-0.1
-0.185
-0.175
-0.16
-0.115
0.0
0.055
0.11
0.11
0.025
-0.095
-0.18
-0.205
-0.18
-0.145
-0.005
0.07
0.12
0.08
0.025
-0.095
-0.17
-0.2
-0.16
-0.12
0.0
0.065
0.11
0.08
0.035
-0.085
-0.17
-0.2
-0.16
-0.13
0.025
0.06
0.105
0.095
0.015
-0.085
-0.145
-0.165
-0.175
-0.11
0.01
0.08
0.1
0.095
0.015
-0.095
-0.175
-0.2
-0.165
-0.115
0.035
0.085
0.11
0.055
0.005
-0.125
-0.195
-0.22
-0.155
-0.08
0.045
0.075
0.105
0.05
-0.005
-0.14
-0.22
-0.215
-0.18
-0.07
0.07
0.11
0.09
0.045
-0.035
-0.145
-0.165
-0.215
-0.16
-0.045
0.04
0.095
0.09
0.045
-0.01
-0.115
-0.185
-0.19
-0.14
-0.07
0.08
0.1
0.08
0.045
-0.025
-0.13
-0.165
-0.17
-0.09
-0.025
0.075
0.115
0.12
0.075
-0.04
-0.125
-0.17
-0.155
-0.115
-0.035
0.085
0.145
0.13
0.07
-0.03
-0.165
-0.19
-0.16
-0.135
-0.075
0.02
0.08
0.07
0.02
-0.065
-0.155
-0.225
-0.21
-0.15
-0.05
0.02
0.065
0.05
-0.005
-0.095
-0.195
-0.23
-0.21
-0.15
-0.045
0.03
0.085
0.06
-0.015
-0.065
-0.18
-0.23
-0.235
-0.175
-0.03
0.035
0.075
0.065
0.005
-0.105
-0.2
-0.23
-0.235
-0.18
-0.085
0.015
0.02
-0.01
-0.045
-0.175
-0.235
-0.225
-0.13
0.005
0.195
0.31
0.405
0.45
0.48
0.395
0.275
0.165
0.09
0.1
0.215
0.21
0.165
-0.025
-0.205
-0.36
-0.4
-0.43
-0.38
-0.31
-0.18
-0.105
-0.08
-0.105
-0.145
-0.225
-0.265
-0.27
-0.235
-0.17
-0.04
0.055
0.07
0.055
-0.005
-0.12
-0.215
-0.225
-0.18
-0.11
0.02
0.105
0.1
0.05
-0.005
-0.12
-0.2
-0.205
-0.17
-0.08
0.05
0.09
0.12
0.04
0.01
-0.09
-0.175
-0.19
-0.13
-0.06
0.055
0.09
0.105
0.08
0.005
-0.095
-0.165
-0.155
-0.13
-0.02
0.095
0.12
0.115
0.09
0.035
-0.095
-0.15
-0.155
-0.095
-0.065
0.07
0.16
0.16
0.09
0.02
-0.09
-0.125
-0.125
-0.08
0.01
0.125
0.15
0.195
0.13
0.05
-0.05
-0.085
-0.075
-0.03
0.095
0.18
0.23
0.245
0.16
0.09
-0.005
-0.025
-0.025
0.055
0.145
0.26
0.29
0.28
0.23
0.15
0.06
0.005
0.06
0.1
0.23
0.325
0.365
0.35
0.3
0.2
0.095
0.055
0.075
0.145
0.26
0.35
0.36
0.34
0.28
0.16
0.085
0.045
0.05
0.09
0.21
0.295
0.26
0.27
0.185
0.045
-0.04
-0.06
-0.065
-0.045
0.075
0.13
0.155
0.11
0.07
-0.07
-0.165
-0.185
-0.165
-0.1
0.0
0.065
0.115
0.035
-0.005
-0.135
-0.2
-0.23
-0.21
-0.165
-0.015
0.055
0.05
0.03
-0.03
-0.155
-0.26
-0.255
-0.23
-0.165
-0.04
0.03
0.055
0.01
-0.055
-0.185
-0.25
-0.265
-0.22
-0.15
-0.045
0.015
0.035
-0.01
-0.065
-0.175
-0.255
-0.265
-0.205
-0.16
-0.03
0.015
0.03
0.01
-0.06
-0.18
-0.235
-0.245
-0.21
-0.14
-0.01
0.065
0.055
-0.01
-0.07
-0.18
-0.22
-0.23
-0.215
-0.14
0.0
0.04
0.04
0.0
-0.065
-0.18
-0.245
-0.25
-0.19
-0.115
-0.015
0.035
0.04
-0.005
-0.09
-0.195
-0.26
-0.28
-0.18
-0.085
-0.015
0.025
0.015
-0.03
-0.13
-0.205
-0.255
-0.27
-0.195
-0.105
-0.005
0.02
0.01
-0.04
-0.13
-0.22
-0.27
-0.255
-0.225
-0.11
-0.01
0.015
0.015
-0.045
-0.175
-0.225
-0.275
-0.265
-0.185
-0.11
-0.02
0.01
-0.005
-0.06
-0.16
-0.255
-0.265
-0.24
-0.19
-0.105
-0.015
0.02
-0.015
-0.06
-0.16
-0.23
-0.27
-0.255
-0.17
-0.045
0.025
0.04
0.025
-0.04
-0.15
-0.225
-0.24
-0.225
-0.17
-0.065
0.025
0.04
0.015
-0.025
-0.155
-0.21
-0.25
-0.26
-0.225
-0.1
-0.005
0.0
-0.01
-0.09
-0.225
-0.285
-0.295
-0.275
-0.225
-0.09
-0.03
-0.01
-0.04
-0.1
-0.23
-0.3
-0.295
-0.27
-0.215
-0.09
-0.03
-0.015
-0.055
-0.115
-0.235
-0.285
-0.285
-0.295
-0.215
-0.09
-0.035
-0.025
-0.075
-0.13
-0.255
-0.305
-0.325
-0.275
-0.215
-0.12
-0.065
-0.065
-0.14
-0.225
-0.315
-0.39
-0.385
-0.31
-0.17
0.015
0.185
0.26
0.29
0.285
0.25
0.24
0.245
0.225
0.19
0.23
0.29
0.25
0.115
-0.095
-0.375
-0.51
-0.48
-0.425
-0.345
-0.225
-0.175
-0.145
-0.205
-0.265
-0.305
-0.385
-0.345
-0.285
-0.195
-0.065
0.0
-0.02
-0.055
-0.135
-0.235
-0.31
-0.285
-0.22
-0.125
-0.015
0.03
0.015
-0.04
-0.125
-0.21
-0.265
-0.255
-0.19
-0.095
0.01
0.055
0.01
-0.05
-0.135
-0.22
-0.25
-0.23
-0.18
-0.055
0.035
0.05
0.04
-0.025
-0.09
-0.21
-0.245
-0.215
-0.18
-0.04
0.045
0.085
0.05
0.0
-0.1
-0.195
-0.22
-0.2
-0.125
-0.025
0.06
0.095
0.055
0.005
-0.1
-0.16
-0.2
-0.165
-0.095
0.03
0.105
0.125
0.085
0.04
-0.075
-0.17
-0.185
-0.14
-0.08
0.065
0.145
0.16
0.155
0.1
-0.02
-0.1
-0.125
-0.065
-0.01
0.115
0.195
0.225
0.195
0.135
0.01
-0.01
-0.04
0.025
0.08
0.2
0.28
0.285
0.24
0.195
0.075
0.04
0.0
0.065
0.105
0.215
0.28
0.305
0.26
0.2
0.06
-0.02
-0.035
0.03
0.08
0.17
0.205
0.215
0.185
0.095
-0.04
-0.135
-0.155
-0.105
-0.055
0.06
0.09
0.07
0.025
-0.045
-0.17
-0.235
-0.27
-0.205
-0.13
-0.035
0.02
0.0
-0.035
-0.105
-0.23
-0.295
-0.305
-0.25
-0.185
-0.07
-0.01
-0.035
-0.05
-0.145
-0.265
-0.305
-0.31
-0.275
-0.205
-0.08
-0.005
-0.025
-0.08
-0.17
-0.27
-0.315
-0.315
-0.26
-0.155
-0.065
-0.025
-0.05
-0.095
-0.185
-0.285
-0.325
-0.33
-0.27
-0.165
-0.085
-0.02
-0.035
-0.085
-0.17
-0.28
-0.335
-0.315
-0.255
-0.145
-0.07
-0.025
-0.02
-0.085
-0.175
-0.285
-0.325
-0.315
-0.225
-0.12
-0.015
-0.005
-0.035
-0.075
-0.19
-0.275
-0.315
-0.27
-0.22
-0.105
-0.035
-0.01
-0.03
-0.085
-0.21
-0.26
-0.3
-0.285
-0.215
-0.08
0.0
0.0
-0.03
-0.08
-0.18
-0.29
-0.315
-0.29
-0.195
-0.075
-0.025
-0.02
-0.04
-0.105
-0.2
-0.29
-0.31
-0.265
-0.215
-0.11
-0.05
-0.015
-0.02
-0.07
-0.22
-0.3
-0.32
-0.28
-0.215
-0.11
-0.01
-0.005
-0.04
-0.115
-0.22
-0.29
-0.3
-0.275
-0.205
-0.085
-0.02
-0.035
-0.06
-0.095
-0.24
-0.285
-0.315
-0.275
-0.195
-0.085
-0.03
-0.01
-0.055
-0.095
-0.23
-0.31
-0.3
-0.25
-0.2
-0.09
-0.02
-0.01
-0.03
-0.105
-0.225
-0.29
-0.3
-0.265
-0.16
-0.045
0.025
0.015
-0.055
-0.115
-0.225
-0.275
-0.26
-0.21
-0.135
-0.02
0.015
0.03
0.0
-0.095
-0.215
-0.26
-0.275
-0.18
-0.115
-0.01
0.025
0.03
-0.06
-0.11
-0.225
-0.27
-0.275
-0.225
-0.125
-0.04
-0.01
-0.02
-0.06
-0.16
-0.275
-0.295
-0.31
-0.26
-0.16
-0.05
-0.02
-0.05
-0.09
-0.165
-0.285
-0.33
-0.31
-0.25
-0.145
-0.055
-0.03
-0.05
-0.095
-0.17
-0.29
-0.32
-0.325
-0.265
-0.125
-0.045
-0.015
-0.05
-0.12
-0.23
-0.305
-0.335
-0.31
-0.275
-0.135
-0.08
-0.07
-0.12
-0.17
-0.255
-0.355
-0.36
-0.315
-0.19
0.03
0.2
0.32
0.365
0.37
0.345
0.285
0.24
0.205
0.165
0.225
0.27
0.23
0.095
-0.09
-0.37
-0.5
-0.5
-0.455
-0.39
-0.235
-0.12
-0.125
-0.125
-0.16
-0.25
-0.32
-0.34
-0.285
-0.19
-0.065
-0.02
-0.005
-0.01
-0.08
-0.215
-0.285
-0.275
-0.225
-0.175
-0.035
0.025
0.045
-0.01
-0.08
-0.22
-0.265
-0.265
-0.23
-0.155
-0.03
0.025
0.045
0.005
-0.07
-0.18
-0.245
-0.245
-0.195
-0.125
0.015
0.085
0.06
0.02
-0.04
-0.16
-0.235
-0.24
-0.17
-0.065
0.02
0.07
0.075
0.055
-0.04
-0.165
-0.19
-0.19
-0.14
-0.07
0.05
0.12
0.1
0.045
-0.035
-0.15
-0.19
-0.19
-0.135
-0.025
0.09
0.135
0.13
0.08
0.005
-0.13
-0.16
-0.14
-0.08
0.015
0.105
0.17
0.175
0.085
0.005
-0.06
-0.08
-0.095
-0.02
0.135
0.19
0.24
0.225
0.165
0.085
-0.01
-0.04
0.005
0.05
0.175
0.24
0.31
0.27
0.255
0.155
0.075
0.045
0.06
0.075
0.195
0.285
0.35
0.32
0.265
0.165
0.065
0.015
0.025
0.06
0.18
0.27
0.265
0.22
0.175
0.04
-0.065
-0.11
-0.06
-0.02
0.055
0.13
0.15
0.095
0.035
-0.09
-0.16
-0.2
-0.18
-0.105
-0.03
0.05
0.065
0.025
-0.025
-0.125
-0.22
-0.255
-0.225
-0.17
-0.05
0.02
0.015
-0.02
-0.05
-0.175
-0.27
-0.295
-0.24
-0.165
-0.03
0.045
0.035
0.015
-0.04
-0.18
-0.27
-0.295
-0.215
-0.18
-0.07
0.03
0.045
-0.01
-0.08
-0.195
-0.25
-0.245
-0.215
-0.16
-0.02
0.03
0.035
-0.01
-0.085
-0.2
-0.26
-0.25
-0.22
-0.165
-0.03
0.045
0.045
-0.005
-0.1
-0.18
-0.245
-0.275
-0.19
-0.12
-0.02
0.055
0.03
-0.01
-0.105
-0.185
-0.245
-0.25
-0.23
-0.14
0.005
0.055
0.05
-0.02
-0.075
-0.19
-0.255
-0.24
-0.2
-0.095
0.02
0.05
0.045
-0.005
-0.08
-0.175
-0.245
-0.22
-0.185
-0.085
0.025
0.045
0.045
0.0
-0.095
-0.21
-0.245
-0.245
-0.175
-0.085
-0.005
0.06
0.035
-0.025
-0.13
-0.195
-0.23
-0.225
-0.185
-0.09
0.0
0.045
0.055
-0.03
-0.105
-0.205
-0.25
-0.225
-0.17
-0.03
0.01
0.045
0.04
-0.01
-0.12
-0.22
-0.245
-0.225
-0.17
-0.065
0.015
0.065
0.045
0.0
-0.125
-0.21
-0.235
-0.225
-0.175
-0.06
0.04
0.05
0.035
-0.01
-0.135
-0.19
-0.24
-0.215
-0.165
-0.055
0.06
0.075
0.015
-0.015
-0.155
-0.22
-0.235
-0.21
-0.155
-0.035
0.05
0.075
0.03
-0.045
-0.14
-0.215
-0.225
-0.195
-0.13
-0.01
0.075
0.09
0.025
-0.04
-0.13
-0.185
-0.215
-0.17
-0.12
0.025
0.11
0.12
0.04
-0.02
-0.11
-0.185
-0.2
-0.145
-0.075
0.035
0.085
0.13
0.06
-0.01
-0.14
-0.16
-0.19
-0.125
-0.08
0.06
0.115
0.11
0.035
-0.045
-0.145
-0.21
-0.235
-0.21
-0.075
0.025
0.04
0.04
0.015
-0.06
-0.165
-0.215
-0.235
-0.18
-0.115
0.0
0.05
0.06
-0.005
-0.115
-0.16
-0.23
-0.24
-0.18
-0.085
-0.01
0.045
0.06
0.005
-0.1
-0.2
-0.24
-0.225
-0.16
-0.09
0.015
0.05
0.03
-0.005
-0.12
-0.245
-0.29
-0.275
-0.21
-0.14
-0.06
0.01
0.065
0.07
0.065
0.04
0.04
0.15
0.29
0.455
0.585
0.56
0.47
0.305
0.16
0.065
-0.03
-0.085
-0.17
-0.215
-0.185
-0.135
-0.15
-0.19
-0.275
-0.37
-0.4
-0.34
-0.27
-0.12
-0.06
0.02
0.005
-0.045
-0.14
-0.215
-0.24
-0.205
-0.155
-0.03
0.04
0.08
0.05
0.0
-0.12
-0.18
-0.205
-0.2
-0.135
0.01
0.08
0.1
0.07
0.0
-0.085
-0.175
-0.215
-0.175
-0.125
0.02
0.08
0.1
0.08
0.03
-0.095
-0.18
-0.17
-0.15
-0.095
0.04
0.11
0.115
0.065
0.02
-0.085
-0.145
-0.195
-0.14
-0.07
0.045
0.115
0.14
0.105
0.035
-0.07
-0.15
-0.145
-0.1
-0.035
0.065
0.16
0.19
0.12
0.045
-0.06
-0.11
-0.115
-0.045
0.025
0.125
0.185
0.17
0.155
0.075
-0.035
-0.075
-0.105
-0.025
0.07
0.18
0.24
0.255
0.2
0.14
0.06
-0.02
0.0
0.075
0.155
0.3
0.315
0.305
0.265
0.195
0.12
0.075
0.06
0.125
0.19
0.32
0.375
0.39
0.335
0.245
0.125
0.075
0.07
0.14
0.215
0.305
0.355
0.335
0.28
0.18
0.055
0.025
0.02
0.075
0.16
0.225
0.25
0.22
0.17
0.05
-0.08
-0.105
-0.1
-0.045
0.03
0.095
0.155
0.125
0.055
-0.07
-0.145
-0.165
-0.175
-0.135
-0.02
0.04
0.09
0.08
0.01
-0.095
-0.195
-0.225
-0.205
-0.15
-0.045
0.05
0.07
0.03
-0.015
-0.12
-0.22
-0.235
-0.21
-0.155
-0.03
0.05
0.06
0.045
-0.01
-0.135
-0.23
-0.24
-0.215
-0.155
-0.05
0.06
0.11
0.04
-0.025
-0.13
-0.21
-0.225
-0.21
-0.14
-0.005
0.065
0.08
0.035
-0.04
-0.13
-0.21
-0.21
-0.145
-0.13
-0.005
0.06
0.085
0.045
-0.03
-0.16
-0.235
-0.225
-0.18
-0.1
0.025
0.07
0.085
0.02
-0.04
-0.145
-0.215
-0.195
-0.17
-0.11
0.02
0.11
0.095
0.05
-0.015
-0.14
-0.21
-0.19
-0.18
-0.11
0.02
0.065
0.1
0.04
-0.03
-0.16
-0.21
-0.225
-0.15
-0.1
0.03
0.1
0.08
0.035
-0.04
-0.145
-0.215
-0.21
-0.16
-0.08
0.01
0.085
0.08
0.015
-0.065
-0.155
-0.195
-0.215
-0.155
-0.08
0.02
0.075
0.07
0.01
-0.06
-0.18
-0.22
-0.205
-0.15
-0.07
0.005
0.085
0.04
-0.01
-0.09
-0.19
-0.225
-0.22
-0.17
-0.05
0.03
0.05
0.065
0.005
-0.1
-0.18
-0.2
-0.21
-0.155
-0.04
0.03
0.06
0.04
-0.025
-0.1
-0.18
-0.235
-0.21
-0.165
-0.05
0.035
0.08
0.07
-0.02
-0.13
-0.215
-0.24
-0.21
-0.165
-0.05
0.045
0.075
0.045
0.005
-0.13
-0.225
-0.25
-0.185
-0.155
-0.045
0.035
0.075
0.035
-0.015
-0.115
-0.195
-0.225
-0.185
-0.13
-0.015
0.06
0.085
0.045
-0.015
-0.125
-0.205
-0.22
-0.16
-0.105
-0.005
0.095
0.115
0.105
0.025
-0.115
-0.175
-0.195
-0.155
-0.105
0.025
0.095
0.095
0.055
-0.01
-0.13
-0.165
-0.22
-0.195
-0.12
-0.005
0.05
0.07
0.03
-0.035
-0.165
-0.22
-0.235
-0.185
-0.125
0.0
0.06
0.05
0.005
-0.065
-0.165
-0.22
-0.25
-0.195
-0.12
-0.015
0.025
0.06
0.0
-0.05
-0.18
-0.24
-0.25
-0.2
-0.115
0.005
0.05
0.04
-0.02
-0.075
-0.18
-0.235
-0.225
-0.21
-0.15
-0.055
0.0
0.015
-0.025
-0.14
-0.255
-0.275
-0.21
-0.085
0.08
0.26
0.39
0.47
0.485
0.455
0.37
0.26
0.18
0.145
0.23
0.31
0.235
0.145
-0.05
-0.28
-0.375
-0.425
-0.42
-0.34
-0.195
-0.1
-0.05
-0.07
-0.095
-0.15
-0.23
-0.26
-0.245
-0.17
-0.05
0.03
0.05
0.045
-0.005
-0.105
-0.17
-0.2
-0.19
-0.145
-0.045
0.055
0.085
0.065
0.01
-0.08
-0.18
-0.215
-0.165
-0.12
-0.005
0.075
0.105
0.1
0.025
-0.09
-0.145
-0.175
-0.17
-0.11
0.03
0.085
0.12
0.1
0.04
-0.095
-0.175
-0.17
-0.15
-0.085
0.025
0.085
0.145
0.115
0.05
-0.07
-0.145
-0.165
-0.135
-0.065
0.045
0.115
0.165
0.14
0.075
-0.05
-0.115
-0.135
-0.095
-0.035
0.085
0.15
0.19
0.14
0.085
-0.045
-0.08
-0.07
-0.06
0.005
0.125
0.205
0.235
0.195
0.145
0.025
-0.055
-0.045
-0.015
0.08
0.195
0.255
0.265
0.225
0.18
0.085
0.015
0.02
0.06
0.145
0.285
0.325
0.36
0.3
0.225
0.095
0.045
0.05
0.11
0.175
0.285
0.35
0.36
0.305
0.22
0.105
0.035
0.06
0.095
0.16
0.255
0.295
0.27
0.205
0.11
-0.02
-0.07
-0.08
-0.02
0.05
0.15
0.165
0.16
0.095
-0.015
-0.125
-0.18
-0.18
-0.12
-0.03
0.055
0.075
0.095
0.005
-0.075
-0.19
-0.23
-0.185
-0.15
-0.08
0.005
0.055
0.05
0.0
-0.105
-0.215
-0.26
-0.24
-0.17
-0.075
0.01
0.05
0.03
-0.025
-0.125
-0.24
-0.18
-0.21
-0.16
-0.04
0.035
0.075
0.045
-0.025
-0.115
-0.205
-0.24
-0.19
-0.155
-0.04
0.06
0.07
0.035
-0.005
-0.135
-0.215
-0.23
-0.215
-0.145
-0.03
0.055
0.09
0.07
-0.01
-0.12
-0.205
-0.23
-0.215
-0.145
0.0
0.075
0.095
0.065
0.005
-0.125
-0.19
-0.23
-0.205
-0.125
0.01
0.08
0.1
0.085
0.035
-0.125
-0.19
-0.23
-0.175
-0.11
0.005
0.085
0.075
0.035
-0.025
-0.11
-0.195
-0.21
-0.16
-0.115
0.03
0.105
0.09
0.055
-0.02
-0.12
-0.19
-0.22
-0.165
-0.095
0.035
0.105
0.095
0.05
-0.02
-0.135
-0.205
-0.21
-0.17
-0.09
0.015
0.075
0.09
0.035
-0.06
-0.145
-0.205
-0.2
-0.135
-0.065
0.025
0.08
0.075
0.015
-0.05
-0.15
-0.205
-0.205
-0.155
-0.075
0.02
0.08
0.075
0.01
-0.06
-0.17
-0.205
-0.215
-0.165
-0.06
0.025
0.085
0.09
0.035
-0.04
-0.17
-0.225
-0.195
-0.13
-0.04
0.06
0.08
0.07
0.005
-0.055
-0.15
-0.22
-0.18
-0.12
-0.03
0.07
0.1
0.08
0.01
-0.075
-0.19
-0.21
-0.18
-0.135
-0.025
0.05
0.1
0.085
0.015
-0.08
-0.16
-0.2
-0.19
-0.115
0.005
0.075
0.085
0.095
0.025
-0.09
-0.175
-0.21
-0.17
-0.11
0.01
0.055
0.08
0.065
0.01
-0.115
-0.185
-0.195
-0.185
-0.13
-0.015
0.075
0.11
0.085
0.01
-0.11
-0.17
-0.195
-0.155
-0.115
0.005
0.075
0.1
0.075
0.015
-0.095
-0.18
-0.205
-0.17
-0.095
0.015
0.08
0.1
0.06
0.02
-0.105
-0.17
-0.2
-0.185
-0.11
0.02
0.1
0.115
0.085
0.025
-0.08
-0.19
-0.19
-0.15
-0.085
0.07
0.105
0.09
0.095
0.035
-0.06
-0.145
-0.15
-0.115
-0.04
0.08
0.13
0.125
0.095
0.01
-0.075
-0.115
-0.145
-0.1
-0.02
0.085
0.12
0.13
0.075
-0.01
-0.1
-0.165
-0.185
-0.13
-0.08
0.045
0.075
0.09
0.03
-0.045
-0.165
-0.215
-0.19
-0.165
-0.075
0.03
0.08
0.095
0.01
-0.06
-0.185
-0.225
-0.2
-0.165
-0.065
0.025
0.08
0.065
-0.015
-0.08
-0.18
-0.24
-0.225
-0.165
-0.065
0.03
0.055
0.075
0.025
-0.105
-0.21
-0.245
-0.255
-0.205
-0.125
-0.04
0.015
0.005
-0.035
-0.075
-0.135
-0.105
0.03
0.15
0.35
0.525
0.64
0.64
0.565
0.4
0.215
0.1
0.115
0.115
0.1
0.095
-0.035
-0.15
-0.205
-0.31
-0.37
-0.37
-0.335
-0.26
-0.1
0.01
0.025
0.025
-0.045
-0.13
-0.195
-0.205
-0.17
-0.125
-0.01
0.065
0.12
0.08
0.01
-0.1
-0.18
-0.195
-0.17
-0.1
0.01
0.075
0.105
0.075
0.01
-0.1
-0.16
-0.17
-0.145
-0.085
0.045
0.1
0.125
0.09
0.025
-0.1
-0.175
-0.195
-0.125
-0.06
0.06
0.115
0.125
0.095
0.03
-0.075
-0.125
-0.17
-0.1
-0.045
0.09
0.17
0.18
0.085
0.045
-0.045
-0.15
-0.14
-0.085
-0.01
0.1
0.145
0.17
0.15
0.07
-0.03
-0.1
-0.11
-0.065
0.03
0.135
0.21
0.225
0.17
0.105
-0.015
-0.07
-0.075
-0.01
0.08
0.205
0.25
0.255
0.23
0.16
0.035
0.0
0.0
0.06
0.15
0.245
0.325
0.33
0.285
0.2
0.115
0.06
0.065
0.12
0.225
0.345
0.38
0.36
0.315
0.23
0.15
0.105
0.095
0.17
0.275
0.35
0.39
0.385
0.32
0.245
0.12
0.085
0.08
0.14
0.21
0.28
0.32
0.295
0.23
0.125
0.005
-0.055
-0.05
0.01
0.095
0.16
0.175
0.17
0.125
-0.01
-0.105
-0.155
-0.15
-0.1
0.015
0.115
0.14
0.11
0.06
-0.07
-0.16
-0.195
-0.17
-0.1
0.015
0.065
0.1
0.08
-0.01
-0.085
-0.185
-0.22
-0.175
-0.11
0.0
0.07
0.08
0.075
0.0
-0.13
-0.2
-0.235
-0.165
-0.115
-0.005
0.075
0.12
0.07
0.0
-0.12
-0.19
-0.2
-0.17
-0.145
-0.01
0.085
0.11
0.085
0.005
-0.12
-0.18
-0.195
-0.15
-0.095
0.035
0.095
0.11
0.075
0.015
-0.12
-0.185
-0.22
-0.155
-0.08
0.035
0.12
0.125
0.075
-0.005
-0.115
-0.18
-0.2
-0.145
-0.07
0.055
0.085
0.1
0.065
0.015
-0.145
-0.195
-0.165
-0.125
-0.05
0.07
0.115
0.11
0.05
-0.03
-0.13
-0.185
-0.195
-0.135
-0.06
0.06
0.1
0.14
0.075
-0.025
-0.135
-0.2
-0.185
-0.15
-0.065
0.04
0.095
0.115
0.055
-0.035
-0.145
-0.185
-0.18
-0.145
-0.05
0.065
0.11
0.085
0.045
-0.05
-0.15
-0.2
-0.18
-0.13
-0.06
0.05
0.09
0.085
0.035
-0.08
-0.16
-0.2
-0.17
-0.125
-0.04
0.055
0.1
0.09
0.02
-0.07
-0.16
-0.195
-0.19
-0.12
-0.02
0.1
0.11
0.07
0.01
-0.075
-0.175
-0.19
-0.17
-0.125
-0.015
0.075
0.125
0.09
0.025
-0.085
-0.17
-0.185
-0.19
-0.11
0.02
0.075
0.1
0.08
0.035
-0.085
-0.165
-0.205
-0.18
-0.105
0.02
0.105
0.13
0.085
0.0
-0.1
-0.145
-0.15
-0.14
-0.11
0.005
0.09
0.125
0.08
0.025
-0.08
-0.15
-0.195
-0.16
-0.095
0.025
0.09
0.125
0.11
0.035
-0.105
-0.17
-0.2
-0.155
-0.08
0.045
0.085
0.115
0.075
0.025
-0.11
-0.185
-0.18
-0.14
-0.065
0.05
0.09
0.14
0.08
0.015
-0.11
-0.2
-0.2
-0.15
-0.07
0.045
0.11
0.13
0.09
-0.01
-0.14
-0.16
-0.19
-0.145
-0.045
0.065
0.14
0.13
0.07
0.0
-0.135
-0.185
-0.18
-0.125
-0.04
0.06
0.125
0.115
0.05
0.01
-0.105
-0.17
-0.18
-0.13
-0.035
0.08
0.135
0.13
0.08
-0.01
-0.125
-0.175
-0.16
-0.11
-0.025
0.085
0.105
0.145
0.09
-0.025
-0.1
-0.14
-0.145
-0.085
0.0
0.105
0.16
0.145
0.08
0.025
-0.095
-0.13
-0.125
-0.08
0.025
0.09
0.17
0.13
0.06
-0.02
-0.095
-0.155
-0.155
-0.095
0.03
0.09
0.105
0.105
0.035
-0.055
-0.145
-0.19
-0.175
-0.125
-0.03
0.07
0.125
0.11
0.02
-0.075
-0.155
-0.185
-0.175
-0.115
0.0
0.065
0.095
0.075
0.04
-0.08
-0.155
-0.2
-0.175
-0.125
0.05
0.105
0.12
0.085
0.005
-0.09
-0.185
-0.195
-0.205
-0.14
-0.04
0.025
0.06
0.015
-0.06
-0.135
-0.15
-0.09
0.025
0.18
0.36
0.51
0.625
0.645
0.555
0.35
0.2
0.12
0.15
0.19
0.195
0.185
0.04
-0.13
-0.195
-0.325
-0.36
-0.375
-0.28
-0.23
-0.085
0.01
0.04
0.01
-0.055
-0.175
-0.205
-0.225
-0.135
-0.085
0.03
0.095
0.125
0.07
0.02
-0.115
-0.155
-0.135
-0.095
0.005
0.085
0.135
0.16
0.11
0.01
-0.08
-0.115
-0.15
-0.1
-0.025
0.11
0.145
0.165
0.11
0.02
-0.085
-0.12
-0.11
-0.1
0.0
0.125
0.17
0.16
0.12
0.04
-0.06
-0.12
-0.11
-0.06
0.045
0.135
0.2
0.185
0.13
0.055
-0.055
-0.1
-0.105
-0.02
0.055
0.17
0.21
0.205
0.155
0.08
-0.035
-0.085
-0.065
0.01
0.105
0.185
0.245
0.23
0.21
0.11
0.005
-0.045
-0.015
0.055
0.175
0.27
0.29
0.285
0.21
0.125
0.075
0.035
0.065
0.125
0.235
0.335
0.365
0.335
0.275
0.185
0.12
0.115
0.115
0.17
0.3
0.395
0.405
0.415
0.37
0.235
0.175
0.12
0.175
0.205
0.335
0.425
0.425
0.395
0.345
0.22
0.17
0.11
0.15
0.185
0.285
0.37
0.365
0.31
0.26
0.11
0.02
0.05
0.055
0.05
0.19
0.235
0.24
0.18
0.135
0.005
-0.08
-0.105
-0.07
-0.04
0.1
0.155
0.155
0.105
0.075
-0.08
-0.135
-0.13
-0.1
-0.065
0.07
0.14
0.13
0.075
0.04
-0.1
-0.155
-0.145
-0.085
-0.025
0.065
0.1
0.1
0.085
0.02
-0.1
-0.17
-0.185
-0.12
-0.07
0.07
0.105
0.14
0.08
-0.02
-0.115
-0.19
-0.18
-0.13
-0.05
0.05
0.12
0.14
0.08
-0.015
-0.12
-0.17
-0.175
-0.115
-0.03
0.08
0.14
0.145
0.095
0.01
-0.115
-0.165
-0.15
-0.075
0.005
0.09
0.145
0.14
0.07
-0.02
-0.1
-0.16
-0.135
-0.09
0.02
0.125
0.145
0.135
0.07
-0.04
-0.12
-0.15
-0.14
-0.065
0.015
0.125
0.17
0.135
0.09
-0.045
-0.12
-0.14
-0.135
-0.08
0.0
0.125
0.13
0.105
0.08
-0.035
-0.12
-0.16
-0.125
-0.09
0.03
0.11
0.12
0.115
0.065
-0.04
-0.155
-0.175
-0.135
-0.065
0.02
0.105
0.135
0.095
0.04
-0.06
-0.14
-0.175
-0.11
-0.09
0.015
0.13
0.165
0.12
0.07
-0.055
-0.135
-0.185
-0.125
-0.07
0.06
0.14
0.14
0.105
0.055
-0.05
-0.105
-0.165
-0.125
-0.055
0.065
0.125
0.15
0.105
0.045
-0.07
-0.155
-0.175
-0.14
-0.065
0.06
0.145
0.17
0.105
0.045
-0.095
-0.15
-0.14
-0.105
-0.07
0.08
0.135
0.115
0.095
0.055
-0.09
-0.13
-0.155
-0.105
-0.01
0.065
0.13
0.145
0.11
0.045
-0.075
-0.155
-0.175
-0.1
-0.005
0.095
0.145
0.155
0.085
0.04
-0.11
-0.14
-0.15
-0.095
-0.025
0.095
0.12
0.17
0.115
0.035
-0.085
-0.135
-0.135
-0.07
-0.005
0.075
0.125
0.155
0.12
0.015
-0.03
-0.125
-0.13
-0.065
0.035
0.12
0.17
0.175
0.11
0.035
-0.05
-0.1
-0.085
-0.035
0.06
0.135
0.17
0.17
0.095
0.02
-0.065
-0.13
-0.125
-0.065
0.015
0.125
0.17
0.12
0.095
-0.01
-0.115
-0.155
-0.125
-0.085
0.04
0.105
0.145
0.115
0.08
-0.025
-0.125
-0.155
-0.135
-0.07
0.055
0.12
0.135
0.12
0.085
-0.065
-0.125
-0.17
-0.115
-0.055
0.03
0.115
0.17
0.11
0.035
-0.06
-0.14
-0.15
-0.12
-0.12
0.04
0.095
0.095
0.065
0.005
-0.11
-0.125
-0.1
0.005
0.135
0.305
0.44
0.55
0.58
0.535
0.39
0.26
0.155
0.135
0.17
0.265
0.295
0.165
-0.045
-0.16
-0.26
-0.305
-0.32
-0.26
-0.225
-0.1
0.01
-0.005
0.0
-0.055
-0.16
-0.195
-0.18
-0.155
-0.06
0.09
0.155
0.17
0.11
0.065
-0.045
-0.09
-0.14
-0.065
-0.01
0.13
0.18
0.2
0.145
0.085
-0.06
-0.13
-0.1
-0.065
0.015
0.11
0.18
0.2
0.15
0.08
-0.04
-0.09
-0.09
-0.055
0.035
0.155
0.2
0.19
0.15
0.055
-0.04
-0.09
-0.085
-0.03
0.095
0.16
0.21
0.21
0.145
0.07
-0.025
-0.06
-0.07
-0.01
0.09
0.19
0.24
0.235
0.175
0.075
-0.035
-0.055
-0.035
0.03
0.125
0.205
0.26
0.265
0.19
0.105
-0.005
-0.02
0.045
0.055
0.17
0.25
0.305
0.295
0.25
0.165
0.06
0.03
0.075
0.12
0.215
0.31
0.375
0.355
0.305
0.215
0.14
0.105
0.14
0.195
0.29
0.415
0.455
0.43
0.375
0.255
0.18
0.135
0.185
0.24
0.345
0.435
0.465
0.435
0.41
0.255
0.145
0.135
0.165
0.205
0.325
0.38
0.39
0.345
0.305
0.145
0.055
0.025
0.035
0.12
0.225
0.265
0.26
0.23
0.135
0.015
-0.065
-0.075
-0.055
-0.015
0.11
0.18
0.195
0.17
0.07
-0.045
-0.115
-0.135
-0.08
-0.035
0.1
0.145
0.17
0.12
0.075
-0.075
-0.135
-0.14
-0.11
-0.06
0.06
0.18
0.145
0.085
0.06
-0.095
-0.145
-0.125
-0.11
-0.045
0.085
0.115
0.17
0.125
0.03
-0.085
-0.13
-0.135
-0.085
-0.01
0.08
0.13
0.155
0.12
0.055
-0.07
-0.13
-0.135
-0.075
-0.02
0.115
0.145
0.17
0.135
0.035
-0.075
-0.11
-0.135
-0.055
0.05
0.135
0.145
0.18
0.12
0.04
-0.06
-0.11
-0.11
-0.055
0.05
0.125
0.175
0.17
0.11
0.04
-0.08
-0.11
-0.1
-0.06
0.04
0.135
0.18
0.145
0.08
-0.005
-0.09
-0.14
-0.11
-0.065
0.035
0.145
0.16
0.14
0.095
0.0
-0.1
-0.14
-0.135
-0.075
0.06
0.125
0.165
0.135
0.11
-0.03
-0.12
-0.155
-0.105
-0.045
0.085
0.155
0.185
0.14
0.08
-0.05
-0.105
-0.135
-0.095
-0.07
0.065
0.145
0.165
0.15
0.105
-0.01
-0.1
-0.125
-0.11
-0.035
0.06
0.145
0.17
0.14
0.06
-0.035
-0.105
-0.13
-0.1
-0.045
0.09
0.145
0.175
0.125
0.065
-0.035
-0.1
-0.15
-0.1
-0.025
0.095
0.15
0.18
0.14
0.075
-0.035
-0.11
-0.14
-0.105
-0.025
0.12
0.16
0.18
0.125
0.065
-0.02
-0.075
-0.095
-0.045
0.02
0.155
0.185
0.19
0.16
0.08
-0.015
-0.075
-0.08
-0.01
0.07
0.155
0.185
0.195
0.18
0.095
-0.03
-0.08
-0.105
-0.05
0.045
0.095
0.185
0.18
0.12
0.045
-0.065
-0.125
-0.135
-0.08
-0.015
0.135
0.17
0.16
0.105
0.025
-0.085
-0.125
-0.125
-0.075
0.005
0.1
0.145
0.15
0.095
-0.005
-0.085
-0.145
-0.125
-0.085
0.01
0.115
0.165
0.145
0.1
0.01
-0.12
-0.145
-0.14
-0.1
0.03
0.085
0.1
0.1
0.04
-0.095
-0.18
-0.19
-0.135
-0.01
0.165
0.31
0.455
0.495
0.535
0.495
0.425
0.36
0.3
0.255
0.33
0.43
0.405
0.27
0.06
-0.195
-0.31
-0.315
-0.265
-0.22
-0.105
-0.015
0.02
0.005
-0.035
-0.12
-0.17
-0.185
-0.135
-0.085
0.06
0.145
0.155
0.13
0.085
-0.025
-0.095
-0.125
-0.08
-0.03
0.1
0.175
0.2
0.165
0.12
-0.005
-0.08
-0.105
-0.08
-0.01
0.105
0.175
0.215
0.2
0.105
0.01
-0.07
-0.11
-0.06
0.005
0.135
0.235
0.225
0.185
0.12
-0.005
-0.06
-0.06
-0.02
0.03
0.175
0.23
0.245
0.205
0.125
0.005
-0.055
-0.065
-0.02
0.05
0.17
0.25
0.27
0.225
0.165
0.03
-0.035
-0.05
0.0
0.11
0.22
0.27
0.285
0.22
0.165
0.05
-0.01
-0.03
0.02
0.13
0.25
0.3
0.31
0.26
0.19
0.105
0.045
0.035
0.1
0.2
0.3
0.38
0.365
0.33
0.255
0.125
0.11
0.125
0.2
0.28
0.38
0.44
0.43
0.37
0.295
0.205
0.16
0.175
0.235
0.35
0.435
0.48
0.47
0.42
0.3
0.195
0.15
0.17
0.225
0.3
0.4
0.43
0.41
0.3
0.205
0.125
0.07
0.06
0.095
0.195
0.27
0.315
0.27
0.185
0.065
-0.02
-0.045
-0.05
0.005
0.1
0.185
0.21
0.165
0.135
0.015
-0.09
-0.145
-0.11
-0.06
0.075
0.155
0.18
0.14
0.075
-0.025
-0.08
-0.125
-0.115
-0.065
0.06
0.175
0.165
0.115
0.075
-0.025
-0.12
-0.16
-0.12
-0.07
0.065
0.16
0.15
0.12
0.03
-0.03
-0.125
-0.165
-0.125
-0.07
0.065
0.125
0.155
0.12
0.06
-0.045
-0.125
-0.135
-0.115
-0.045
0.07
0.145
0.17
0.11
0.055
-0.045
-0.1
-0.12
-0.1
-0.02
0.085
0.145
0.185
0.115
0.04
-0.06
-0.12
-0.115
-0.095
-0.005
0.135
0.155
0.185
0.155
0.095
-0.08
-0.145
-0.13
-0.07
0.015
0.1
0.185
0.185
0.135
0.06
-0.065
-0.13
-0.125
-0.085
0.02
0.11
0.155
0.145
0.105
0.065
-0.045
-0.105
-0.135
-0.075
0.005
0.115
0.17
0.155
0.11
0.03
-0.095
-0.12
-0.11
-0.045
0.025
0.12
0.14
0.155
0.105
0.015
-0.1
-0.145
-0.125
-0.065
0.02
0.12
0.14
0.125
0.07
0.04
-0.09
-0.135
-0.13
-0.06
0.045
0.11
0.15
0.125
0.08
-0.01
-0.105
-0.125
-0.115
-0.08
0.035
0.12
0.145
0.135
0.085
-0.02
-0.095
-0.165
-0.125
-0.05
0.055
0.12
0.16
0.15
0.075
-0.025
-0.12
-0.11
-0.125
-0.035
0.07
0.14
0.165
0.165
0.085
-0.015
-0.105
-0.14
-0.09
-0.03
0.09
0.16
0.19
0.16
0.11
-0.005
-0.075
-0.1
-0.075
0.0
0.12
0.195
0.225
0.205
0.12
0.0
-0.065
-0.07
-0.035
-0.005
0.1
0.21
0.23
0.18
0.1
0.0
-0.095
-0.1
-0.08
-0.02
0.125
0.195
0.22
0.135
0.055
-0.04
-0.12
-0.14
-0.09
-0.045
0.065
0.145
0.15
0.1
0.05
-0.08
-0.145
-0.14
-0.115
-0.045
0.085
0.15
0.155
0.1
0.035
-0.055
-0.12
-0.115
-0.085
-0.025
0.09
0.12
0.135
0.085
0.015
-0.08
-0.165
-0.205
-0.155
-0.095
0.015
0.105
0.175
0.145
0.12
0.1
0.135
0.225
0.35
0.535
0.67
0.71
0.67
0.505
0.325
0.24
0.165
0.04
0.015
-0.08
-0.085
-0.07
-0.03
-0.085
-0.155
-0.22
-0.245
-0.235
-0.155
-0.045
0.08
0.135
0.14
0.105
0.01
-0.085
-0.145
-0.125
-0.05
0.04
0.135
0.17
0.175
0.12
0.03
-0.06
-0.12
-0.1
-0.03
0.07
0.18
0.2
0.155
0.12
0.035
-0.075
-0.08
-0.06
-0.025
0.09
0.18
0.19
0.2
0.13
0.025
-0.055
-0.07
-0.04
0.005
0.105
0.185
0.225
0.215
0.15
0.035
-0.045
-0.065
-0.06
0.01
0.15
0.215
0.24
0.21
0.17
0.045
-0.025
-0.055
-0.01
0.065
0.165
0.26
0.275
0.255
0.175
0.055
-0.01
-0.04
0.015
0.08
0.205
0.285
0.31
0.26
0.205
0.105
0.015
0.01
0.085
0.155
0.28
0.34
0.355
0.34
0.275
0.155
0.105
0.085
0.13
0.19
0.34
0.41
0.425
0.39
0.31
0.195
0.15
0.145
0.225
0.265
0.38
0.455
0.46
0.435
0.355
0.25
0.185
0.16
0.24
0.29
0.395
0.46
0.45
0.405
0.31
0.18
0.13
0.115
0.165
0.23
0.335
0.36
0.37
0.295
0.195
0.07
0.02
0.01
0.03
0.11
0.19
0.25
0.245
0.18
0.095
-0.03
-0.085
-0.085
-0.025
0.05
0.14
0.185
0.18
0.11
0.04
-0.075
-0.095
-0.105
-0.055
0.04
0.13
0.16
0.145
0.1
0.015
-0.07
-0.105
-0.13
-0.06
0.04
0.13
0.155
0.155
0.11
-0.015
-0.095
-0.125
-0.105
-0.055
0.05
0.14
0.16
0.18
0.1
0.01
-0.1
-0.115
-0.105
-0.05
0.06
0.12
0.16
0.165
0.1
-0.025
-0.11
-0.11
-0.08
-0.04
0.085
0.16
0.17
0.165
0.085
-0.01
-0.08
-0.12
-0.075
-0.03
0.105
0.175
0.18
0.145
0.08
-0.01
-0.1
-0.12
-0.075
-0.03
0.085
0.175
0.2
0.165
0.105
-0.015
-0.08
-0.125
-0.04
-0.015
0.095
0.175
0.215
0.16
0.095
-0.03
-0.1
-0.115
-0.07
-0.02
0.1
0.16
0.17
0.12
0.085
-0.02
-0.11
-0.135
-0.07
-0.01
0.105
0.175
0.19
0.14
0.07
-0.045
-0.135
-0.135
-0.09
-0.005
0.1
0.18
0.17
0.135
0.06
-0.06
-0.11
-0.095
-0.08
-0.02
0.12
0.155
0.17
0.15
0.045
-0.065
-0.125
-0.12
-0.065
0.0
0.115
0.155
0.14
0.1
0.01
-0.085
-0.15
-0.145
-0.065
0.015
0.125
0.15
0.16
0.12
0.02
-0.08
-0.125
-0.11
-0.065
0.04
0.09
0.15
0.165
0.1
0.0
-0.095
-0.135
-0.115
-0.075
0.04
0.13
0.17
0.15
0.08
-0.005
-0.065
-0.12
-0.11
-0.06
0.04
0.165
0.175
0.155
0.145
0.02
-0.075
-0.11
-0.09
-0.04
0.065
0.145
0.17
0.19
0.13
0.045
-0.065
-0.11
-0.05
0.015
0.105
0.185
0.24
0.195
0.12
0.01
-0.07
-0.095
-0.09
-0.03
0.09
0.175
0.16
0.15
0.095
-0.03
-0.105
-0.15
-0.12
-0.065
0.07
0.125
0.145
0.12
0.08
-0.055
-0.14
-0.15
-0.115
-0.065
0.055
0.125
0.15
0.1
0.055
-0.055
-0.13
-0.165
-0.115
-0.055
0.055
0.125
0.16
0.11
0.055
-0.065
-0.1
-0.17
-0.11
-0.065
0.035
0.095
0.11
0.06
0.0
-0.12
-0.19
-0.15
-0.055
0.07
0.295
0.44
0.535
0.57
0.595
0.505
0.45
0.37
0.31
0.28
0.41
0.415
0.305
0.15
-0.075
-0.29
-0.35
-0.36
-0.275
-0.195
-0.04
0.0
0.055
0.02
-0.04
-0.125
-0.165
-0.16
-0.095
-0.01
0.115
0.16
0.165
0.12
0.03
-0.075
-0.135
-0.115
-0.045
0.025
0.125
0.185
0.165
0.125
0.035
-0.055
-0.105
-0.12
-0.055
0.035
0.14
0.17
0.175
0.15
0.045
-0.05
-0.11
-0.11
-0.03
0.08
0.18
0.205
0.185
0.125
0.03
-0.055
-0.08
-0.085
-0.05
0.085
0.18
0.215
0.18
0.15
0.085
-0.06
-0.09
-0.05
0.01
0.11
0.175
0.225
0.225
0.18
0.07
-0.01
-0.05
-0.05
0.035
0.145
0.23
0.26
0.255
0.185
0.085
0.005
-0.03
0.005
0.075
0.19
0.26
0.305
0.305
0.235
0.135
0.06
0.03
0.075
0.12
0.26
0.35
0.405
0.38
0.295
0.21
0.13
0.11
0.145
0.215
0.365
0.43
0.455
0.41
0.355
0.26
0.17
0.175
0.21
0.245
0.39
0.45
0.485
0.43
0.375
0.235
0.16
0.15
0.175
0.245
0.37
0.415
0.435
0.37
0.305
0.155
0.08
0.05
0.075
0.135
0.235
0.285
0.295
0.215
0.155
0.045
-0.035
-0.075
-0.025
0.04
0.15
0.205
0.2
0.14
0.09
-0.05
-0.115
-0.125
-0.125
0.025
0.11
0.15
0.165
0.11
0.035
-0.085
-0.14
-0.145
-0.085
0.0
0.1
0.15
0.135
0.095
0.015
-0.095
-0.165
-0.15
-0.065
0.0
0.095
0.15
0.16
0.095
0.0
-0.1
-0.135
-0.125
-0.07
0.01
0.11
0.165
0.14
0.08
-0.01
-0.075
-0.125
-0.105
-0.06
0.01
0.12
0.155
0.145
0.085
-0.015
-0.1
-0.125
-0.1
-0.06
0.025
0.13
0.18
0.145
0.1
-0.015
-0.09
-0.125
-0.105
-0.035
0.055
0.125
0.165
0.15
0.11
0.0
-0.085
-0.125
-0.085
-0.04
0.075
0.18
0.195
0.15
0.11
0.0
-0.085
-0.125
-0.095
-0.065
0.065
0.145
0.205
0.18
0.1
-0.02
-0.08
-0.125
-0.08
-0.065
0.065
0.17
0.215
0.18
0.1
-0.02
-0.11
-0.125
-0.095
-0.05
0.1
0.165
0.17
0.14
0.095
-0.06
-0.115
-0.105
-0.08
-0.035
0.105
0.175
0.18
0.135
0.08
-0.025
-0.11
-0.135
-0.115
-0.045
0.085
0.15
0.185
0.12
0.06
-0.07
-0.105
-0.145
-0.105
-0.035
0.085
0.145
0.145
0.115
0.035
-0.05
-0.135
-0.155
-0.085
-0.03
0.1
0.145
0.145
0.12
0.07
-0.06
-0.12
-0.14
-0.095
-0.015
0.105
0.155
0.155
0.095
0.03
-0.075
-0.12
-0.12
-0.075
0.0
0.12
0.19
0.175
0.14
0.025
-0.075
-0.1
-0.105
-0.08
0.03
0.145
0.205
0.19
0.155
0.065
-0.035
-0.105
-0.095
-0.03
0.05
0.18
0.21
0.19
0.115
0.045
-0.06
-0.085
-0.11
-0.03
0.075
0.14
0.17
0.155
0.115
0.04
-0.08
-0.125
-0.11
-0.06
0.04
0.14
0.17
0.14
0.08
-0.015
-0.1
-0.145
-0.13
-0.075
0.04
0.11
0.135
0.115
0.075
-0.015
-0.13
-0.125
-0.115
-0.07
0.045
0.12
0.175
0.145
0.075
-0.035
-0.13
-0.16
-0.125
-0.06
0.04
0.115
0.145
0.09
0.025
-0.1
-0.17
-0.16
-0.075
0.06
0.26
0.4
0.49
0.56
0.61
0.515
0.44
0.34
0.29
0.25
0.365
0.435
0.365
0.23
-0.005
-0.245
-0.325
-0.33
-0.285
-0.205
-0.085
0.025
0.02
0.005
-0.035
-0.13
-0.19
-0.18
-0.115
-0.035
0.085
0.155
0.18
0.15
0.07
-0.05
-0.105
-0.105
-0.05
0.005
0.12
0.22
0.225
0.155
0.095
-0.03
-0.1
-0.105
-0.055
0.005
0.19
0.2
0.21
0.155
0.095
-0.03
-0.08
-0.08
-0.035
0.05
0.155
0.23
0.245
0.165
0.115
0.005
-0.065
-0.075
-0.04
0.075
0.195
0.245
0.235
0.185
0.125
0.02
-0.045
-0.06
-0.02
0.09
0.215
0.26
0.245
0.195
0.12
0.025
-0.03
-0.025
0.05
0.14
0.23
0.285
0.285
0.23
0.14
0.06
-0.005
0.05
0.07
0.175
0.275
0.33
0.34
0.285
0.19
0.105
0.06
0.085
0.155
0.26
0.365
0.41
0.41
0.345
0.235
0.165
0.135
0.15
0.225
0.33
0.415
0.475
0.445
0.41
0.305
0.205
0.18
0.195
0.25
0.39
0.465
0.49
0.475
0.43
0.305
0.21
0.17
0.215
0.25
0.355
0.445
0.46
0.43
0.35
0.205
0.115
0.065
0.09
0.12
0.225
0.295
0.315
0.28
0.21
0.085
0.005
-0.045
-0.02
0.035
0.16
0.24
0.215
0.21
0.15
0.01
-0.08
-0.12
-0.08
0.0
0.105
0.165
0.195
0.185
0.11
-0.05
-0.1
-0.115
-0.095
-0.02
0.09
0.155
0.175
0.14
0.075
-0.06
-0.12
-0.135
-0.085
0.0
0.105
0.155
0.17
0.145
0.07
-0.055
-0.105
-0.12
-0.085
-0.015
0.1
0.175
0.18
0.14
0.06
-0.05
-0.115
-0.125
-0.035
0.01
0.125
0.175
0.18
0.12
0.045
-0.04
-0.09
-0.085
-0.06
-0.005
0.125
0.19
0.195
0.135
0.065
-0.07
-0.11
-0.09
-0.035
0.01
0.15
0.18
0.19
0.12
0.03
-0.07
-0.095
-0.08
-0.035
0.03
0.13
0.16
0.17
0.135
0.015
-0.085
-0.13
-0.125
-0.07
0.06
0.135
0.165
0.17
0.1
0.01
-0.085
-0.13
-0.125
-0.085
0.05
0.13
0.17
0.145
0.105
0.005
-0.11
-0.105
-0.09
-0.045
0.04
0.125
0.155
0.165
0.095
-0.035
-0.115
-0.14
-0.135
-0.115
0.1
0.16
0.165
0.14
0.1
-0.03
-0.11
-0.135
-0.125
-0.075
0.095
0.14
0.165
0.15
0.07
-0.03
-0.11
-0.13
-0.13
-0.055
0.075
0.14
0.17
0.155
0.105
-0.01
-0.085
-0.11
-0.08
-0.04
0.075
0.175
0.205
0.165
0.105
-0.015
-0.07
-0.085
-0.055
0.0
0.125
0.2
0.23
0.185
0.13
0.01
-0.075
-0.1
-0.045
0.025
0.135
0.185
0.195
0.125
0.11
-0.025
-0.095
-0.13
-0.08
-0.02
0.105
0.175
0.18
0.15
0.07
-0.065
-0.14
-0.125
-0.08
-0.03
0.09
0.13
0.165
0.11
0.055
-0.07
-0.13
-0.14
-0.1
-0.015
0.09
0.16
0.14
0.1
0.025
-0.075
-0.14
-0.125
-0.075
0.02
0.1
0.155
0.175
0.1
-0.015
-0.15
-0.205
-0.155
-0.135
-0.055
0.03
0.11
0.16
0.195
0.165
0.13
0.155
0.24
0.37
0.545
0.64
0.65
0.58
0.395
0.285
0.185
0.055
-0.02
-0.13
-0.17
-0.095
-0.035
-0.035
-0.06
-0.135
-0.275
-0.315
-0.29
-0.21
-0.08
0.025
0.1
0.085
0.045
-0.015
-0.11
-0.14
-0.115
-0.065
0.06
0.125
0.16
0.175
0.11
0.01
-0.09
-0.115
-0.12
-0.045
0.07
0.16
0.195
0.165
0.11
0.0
-0.07
-0.12
-0.105
-0.035
0.095
0.185
0.205
0.185
0.13
0.01
-0.055
-0.08
-0.07
0.005
0.105
0.195
0.22
0.19
0.14
0.0
-0.065
-0.06
-0.03
0.035
0.135
0.225
0.245
0.195
0.16
0.04
-0.035
-0.055
-0.01
0.03
0.175
0.245
0.275
0.225
0.18
0.055
-0.025
-0.045
0.01
0.075
0.19
0.28
0.3
0.255
0.19
0.085
0.025
0.02
0.085
0.14
0.265
0.335
0.355
0.315
0.235
0.14
0.1
0.1
0.13
0.19
0.335
0.415
0.415
0.39
0.35
0.22
0.155
0.11
0.235
0.295
0.415
0.47
0.465
0.415
0.355
0.255
0.18
0.17
0.225
0.29
0.41
0.445
0.45
0.39
0.335
0.19
0.105
0.1
0.15
0.22
0.305
0.345
0.32
0.26
0.18
0.03
-0.02
-0.04
0.0
0.08
0.195
0.215
0.225
0.17
0.04
-0.085
-0.105
-0.1
-0.04
0.04
0.115
0.165
0.17
0.1
-0.02
-0.095
-0.145
-0.14
-0.1
0.02
0.13
0.165
0.14
0.07
-0.025
-0.125
-0.17
-0.145
-0.075
0.03
0.105
0.145
0.115
0.07
-0.055
-0.125
-0.16
-0.155
-0.09
0.025
0.11
0.155
0.15
0.055
-0.065
-0.13
-0.15
-0.14
-0.075
0.05
0.125
0.135
0.12
0.08
-0.035
-0.11
-0.13
-0.115
-0.07
0.06
0.135
0.17
0.13
0.07
-0.045
-0.13
-0.155
-0.12
-0.065
0.06
0.135
0.165
0.13
0.09
-0.03
-0.12
-0.12
-0.105
-0.03
0.1
0.155
0.18
0.145
0.075
-0.04
-0.12
-0.135
-0.08
-0.025
0.105
0.155
0.175
0.14
0.065
-0.05
-0.12
-0.13
-0.085
-0.03
0.1
0.145
0.16
0.13
0.07
-0.07
-0.12
-0.135
-0.11
-0.045
0.095
0.17
0.155
0.13
0.06
-0.065
-0.115
-0.11
-0.085
-0.02
0.105
0.16
0.19
0.1
0.055
-0.08
-0.12
-0.15
-0.07
0.015
0.11
0.16
0.175
0.12
0.055
-0.05
-0.13
-0.125
-0.075
-0.005
0.14
0.18
0.17
0.11
0.015
-0.07
-0.1
-0.115
-0.06
0.04
0.12
0.18
0.185
0.135
0.065
-0.05
-0.08
-0.06
-0.03
0.055
0.17
0.235
0.22
0.14
0.045
-0.05
-0.1
-0.095
-0.04
0.065
0.17
0.205
0.175
0.12
0.01
-0.07
-0.12
-0.095
-0.045
0.055
0.12
0.155
0.165
0.095
-0.015
-0.115
-0.145
-0.135
