# TIPE ECG 2021 - ECG-ID Database v1.0.0 par Physionet
# [Numéro de la personne, Période d'échantillonnage, Prénom, Age, Sexe, Date de l'enregistrement]
[02, 0.002, Tammy, 23, F, 05.04.2005]
0.59
0.61
0.635
0.615
0.565
0.495
0.48
0.465
0.485
0.57
0.665
0.69
0.68
0.655
0.605
0.525
0.505
0.47
0.505
0.54
0.62
0.62
0.63
0.595
0.505
0.425
0.415
0.4
0.415
0.485
0.525
0.515
0.545
0.51
0.44
0.375
0.35
0.335
0.365
0.44
0.49
0.575
0.53
0.485
0.43
0.365
0.355
0.365
0.405
0.47
0.515
0.555
0.565
0.54
0.48
0.425
0.4
0.39
0.44
0.505
0.585
0.615
0.61
0.57
0.54
0.485
0.46
0.475
0.52
0.595
0.66
0.655
0.665
0.64
0.57
0.54
0.535
0.54
0.57
0.66
0.695
0.73
0.73
0.705
0.63
0.605
0.59
0.59
0.625
0.715
0.76
0.79
0.78
0.735
0.675
0.645
0.645
0.66
0.7
0.775
0.805
0.845
0.835
0.79
0.73
0.71
0.68
0.705
0.76
0.855
0.87
0.885
0.885
0.84
0.75
0.735
0.715
0.74
0.795
0.865
0.9
0.905
0.94
0.875
0.77
0.745
0.755
0.765
0.82
0.935
0.93
0.97
0.935
0.89
0.82
0.82
0.805
0.835
0.905
1.005
1.01
1.035
1.005
0.935
0.87
0.85
0.84
0.89
0.995
1.15
1.255
1.325
1.365
1.4
1.42
1.46
1.435
1.395
1.37
1.305
1.285
1.23
1.12
0.95
0.75
0.645
0.645
0.75
0.845
0.93
0.995
1.02
1.03
1.0
0.96
0.975
0.99
1.045
1.165
1.25
1.295
1.305
1.275
1.215
1.18
1.185
1.2
1.235
1.32
1.41
1.42
1.42
1.39
1.33
1.3
1.295
1.28
1.335
1.425
1.46
1.5
1.525
1.48
1.43
1.395
1.38
1.405
1.435
1.525
1.6
1.6
1.62
1.59
1.545
1.48
1.475
1.5
1.545
1.63
1.685
1.725
1.73
1.68
1.655
1.62
1.6
1.645
1.685
1.785
1.82
1.865
1.865
1.83
1.78
1.765
1.75
1.765
1.86
1.945
1.97
2.0
2.02
1.96
1.89
1.885
1.87
1.905
1.93
2.02
2.035
2.05
2.045
2.01
1.92
1.89
1.87
1.885
1.92
1.97
2.03
2.035
2.025
1.97
1.86
1.815
1.79
1.83
1.84
1.935
1.955
1.95
1.92
1.87
1.8
1.77
1.76
1.81
1.82
1.91
1.93
1.93
1.935
1.895
1.79
1.805
1.79
1.825
1.88
1.96
1.99
2.01
1.985
1.935
1.865
1.855
1.87
1.855
1.925
2.005
2.02
2.03
2.03
1.98
1.905
1.885
1.89
1.91
1.965
2.035
2.04
2.06
2.055
2.005
1.94
1.925
1.93
1.99
2.035
2.085
2.11
2.12
2.09
2.035
1.975
1.97
1.975
2.005
2.075
2.125
2.145
2.165
2.125
2.065
2.03
1.99
1.995
2.015
2.1
2.19
2.17
2.11
2.105
2.075
2.06
2.035
2.02
2.08
2.125
2.16
2.185
2.19
2.14
2.075
2.015
2.005
2.0
2.035
2.09
2.12
2.16
2.165
2.115
2.045
2.0
1.99
2.015
2.035
2.115
2.135
2.16
2.16
2.115
2.03
2.015
2.0
2.01
2.06
2.105
2.135
2.145
2.155
2.115
2.05
2.055
2.075
2.18
2.285
2.4
2.485
2.6
2.65
2.615
2.455
2.34
2.165
2.095
2.085
2.085
2.01
1.92
1.81
1.8
1.745
1.735
1.735
1.795
1.885
1.985
2.035
2.1
2.095
2.09
2.025
2.02
2.015
2.065
2.145
2.205
2.225
2.235
2.205
2.185
2.13
2.085
2.065
2.1
2.155
2.23
2.255
2.265
2.255
2.195
2.12
2.11
2.085
2.135
2.21
2.25
2.265
2.285
2.25
2.2
2.135
2.145
2.145
2.17
2.22
2.315
2.305
2.305
2.29
2.255
2.185
2.165
2.19
2.185
2.25
2.32
2.365
2.385
2.35
2.305
2.285
2.285
2.25
2.28
2.375
2.435
2.435
2.46
2.445
2.395
2.35
2.335
2.335
2.385
2.455
2.49
2.505
2.52
2.5
2.435
2.38
2.345
2.335
2.365
2.435
2.455
2.47
2.485
2.42
2.34
2.295
2.28
2.275
2.285
2.34
2.36
2.37
2.33
2.28
2.2
2.12
2.11
2.1
2.135
2.185
2.215
2.23
2.225
2.19
2.09
2.05
2.05
2.035
2.065
2.14
2.175
2.2
2.19
2.135
2.04
2.02
2.0
2.015
2.065
2.145
2.165
2.19
2.17
2.115
2.025
2.015
2.0
2.035
2.065
2.135
2.18
2.205
2.18
2.11
2.01
1.99
1.975
1.995
2.04
2.125
2.14
2.16
2.13
2.12
2.015
2.005
1.985
2.0
2.065
2.115
2.14
2.16
2.14
2.08
1.985
1.97
1.97
2.0
2.045
2.12
2.12
2.14
2.105
2.055
1.945
1.95
1.92
1.95
2.025
2.09
2.115
2.12
2.06
2.05
1.975
1.94
1.925
1.96
1.995
2.08
2.1
2.115
2.06
1.97
1.915
1.895
1.855
1.9
1.955
2.02
2.045
2.07
1.99
1.95
1.865
1.84
1.85
1.905
1.94
1.995
2.015
2.005
1.985
1.89
1.825
1.815
1.8
1.805
1.88
1.93
1.965
1.97
1.91
1.85
1.87
1.885
1.945
2.09
2.245
2.36
2.415
2.46
2.375
2.175
2.005
1.84
1.775
1.73
1.735
1.675
1.605
1.56
1.505
1.445
1.45
1.465
1.515
1.595
1.71
1.76
1.81
1.85
1.81
1.745
1.74
1.715
1.725
1.78
1.87
1.89
1.93
1.92
1.865
1.77
1.74
1.73
1.73
1.79
1.875
1.935
1.92
1.905
1.845
1.785
1.765
1.71
1.74
1.785
1.855
1.9
1.92
1.89
1.825
1.755
1.72
1.71
1.735
1.78
1.865
1.905
1.92
1.895
1.85
1.785
1.765
1.74
1.755
1.83
1.9
1.92
1.95
1.925
1.915
1.825
1.81
1.8
1.835
1.875
1.97
2.0
2.025
1.995
1.945
1.865
1.84
1.86
1.885
1.95
2.04
2.04
2.035
2.01
1.915
1.88
1.87
1.85
1.835
1.89
1.96
1.965
1.995
1.96
1.855
1.77
1.72
1.695
1.725
1.79
1.82
1.845
1.82
1.765
1.675
1.61
1.57
1.535
1.595
1.63
1.685
1.685
1.695
1.635
1.58
1.525
1.48
1.465
1.525
1.57
1.64
1.645
1.655
1.585
1.54
1.475
1.445
1.44
1.505
1.565
1.605
1.625
1.605
1.575
1.51
1.465
1.405
1.4
1.475
1.535
1.59
1.59
1.6
1.55
1.47
1.41
1.41
1.42
1.46
1.54
1.565
1.555
1.565
1.545
1.445
1.415
1.38
1.365
1.41
1.515
1.545
1.535
1.575
1.485
1.42
1.4
1.325
1.27
1.425
1.58
1.535
1.57
1.555
1.505
1.4
1.315
1.29
1.32
1.44
1.5
1.49
1.485
1.475
1.5
1.37
1.34
1.33
1.33
1.39
1.43
1.445
1.465
1.42
1.39
1.285
1.255
1.22
1.245
1.3
1.38
1.41
1.425
1.365
1.315
1.235
1.205
1.195
1.21
1.255
1.365
1.355
1.39
1.33
1.31
1.205
1.205
1.195
1.22
1.255
1.285
1.31
1.335
1.32
1.235
1.16
1.115
1.135
1.215
1.345
1.485
1.545
1.65
1.675
1.69
1.615
1.535
1.43
1.33
1.22
1.25
1.215
1.115
0.97
0.8
0.695
0.675
0.735
0.82
0.925
1.03
1.025
1.095
1.11
1.075
1.04
1.025
1.04
1.07
1.155
1.205
1.25
1.245
1.24
1.14
1.08
1.09
1.075
1.115
1.19
1.25
1.245
1.255
1.2
1.145
1.055
1.025
1.03
1.155
1.175
1.28
1.275
1.26
1.185
1.13
1.07
1.055
1.055
1.125
1.23
1.225
1.285
1.245
1.205
1.095
1.08
1.03
1.06
1.125
1.225
1.265
1.285
1.235
1.205
1.13
1.095
1.095
1.14
1.205
1.28
1.315
1.335
1.32
1.275
1.205
1.18
1.165
1.21
1.25
1.38
1.385
1.38
1.365
1.325
1.215
1.165
1.15
1.165
1.235
1.315
1.33
1.34
1.31
1.24
1.135
1.125
1.085
1.095
1.13
1.215
1.215
1.205
1.17
1.095
0.98
0.94
0.89
0.915
0.975
1.075
1.06
1.045
1.02
0.93
0.85
0.84
0.82
0.83
0.905
0.98
0.995
1.03
0.97
0.9
0.805
0.78
0.78
0.82
0.875
0.95
0.965
0.95
0.935
0.845
0.78
0.795
0.785
0.815
0.87
0.93
0.915
0.935
0.905
0.865
0.775
0.745
0.725
0.765
0.84
0.91
0.92
0.91
0.895
0.805
0.725
0.7
0.705
0.77
0.795
0.87
0.855
0.89
0.855
0.77
0.72
0.67
0.685
0.695
0.78
0.85
0.845
0.835
0.8
0.745
0.69
0.645
0.665
0.72
0.79
0.85
0.87
0.855
0.825
0.72
0.665
0.63
0.64
0.71
0.77
0.805
0.865
0.835
0.77
0.68
0.65
0.63
0.645
0.66
0.755
0.795
0.795
0.775
0.7
0.61
0.57
0.545
0.575
0.605
0.7
0.71
0.71
0.72
0.67
0.57
0.53
0.535
0.55
0.565
0.65
0.675
0.7
0.69
0.63
0.54
0.505
0.485
0.515
0.535
0.61
0.66
0.665
0.665
0.61
0.51
0.49
0.555
0.665
0.77
0.905
1.015
1.09
1.13
1.06
0.855
0.715
0.56
0.53
0.51
0.465
0.37
0.3
0.24
0.155
0.115
0.145
0.17
0.22
0.27
0.365
0.45
0.485
0.515
0.485
0.405
0.375
0.415
0.455
0.505
0.565
0.6
0.61
0.56
0.51
0.465
0.435
0.435
0.45
0.5
0.595
0.61
0.61
0.56
0.52
0.465
0.445
0.45
0.47
0.51
0.595
0.63
0.605
0.575
0.51
0.435
0.425
0.43
0.465
0.555
0.595
0.62
0.62
0.59
0.52
0.485
0.48
0.47
0.53
0.6
0.645
0.68
0.66
0.585
0.57
0.535
0.52
0.525
0.575
0.675
0.705
0.735
0.73
0.665
0.625
0.59
0.555
0.58
0.615
0.705
0.73
0.765
0.755
0.705
0.605
0.565
0.555
0.56
0.58
0.67
0.72
0.72
0.705
0.63
0.58
0.5
0.47
0.49
0.5
0.575
0.585
0.575
0.555
0.495
0.405
0.35
0.325
0.33
0.36
0.445
0.475
0.475
0.46
0.385
0.28
0.275
0.255
0.27
0.31
0.405
0.42
0.425
0.39
0.33
0.225
0.225
0.215
0.255
0.29
0.37
0.385
0.405
0.365
0.32
0.245
0.22
0.22
0.225
0.28
0.36
0.36
0.38
0.36
0.295
0.215
0.2
0.18
0.205
0.26
0.325
0.34
0.355
0.305
0.255
0.195
0.17
0.145
0.18
0.24
0.295
0.295
0.325
0.275
0.215
0.14
0.125
0.12
0.155
0.215
0.255
0.29
0.295
0.26
0.2
0.155
0.115
0.1
0.14
0.215
0.28
0.295
0.27
0.255
0.185
0.13
0.11
0.1
0.145
0.21
0.26
0.295
0.275
0.22
0.155
0.115
0.09
0.075
0.14
0.2
0.24
0.25
0.26
0.21
0.16
0.09
0.065
0.09
0.125
0.175
0.225
0.245
0.205
0.15
0.085
0.045
0.025
0.03
0.06
0.125
0.17
0.17
0.17
0.125
0.065
0.025
0.005
-0.005
0.045
0.12
0.15
0.165
0.16
0.105
0.03
0.015
-0.02
-0.055
-0.005
0.08
0.125
0.13
0.12
0.135
0.115
0.14
0.19
0.27
0.385
0.555
0.605
0.585
0.47
0.29
0.12
0.055
-0.03
-0.12
-0.2
-0.25
-0.275
-0.235
-0.225
-0.25
-0.285
-0.285
-0.295
-0.26
-0.17
-0.04
-0.02
0.02
0.025
-0.01
-0.07
-0.055
-0.075
-0.045
0.005
0.085
0.1
0.13
0.105
0.055
-0.03
-0.045
-0.04
-0.025
0.025
0.085
0.105
0.125
0.09
0.04
-0.035
-0.075
-0.05
-0.03
0.025
0.09
0.11
0.14
0.11
0.07
-0.035
-0.035
-0.05
0.01
0.07
0.145
0.15
0.135
0.11
0.055
0.005
0.0
-0.01
0.03
0.09
0.16
0.19
0.195
0.175
0.115
0.065
0.045
0.05
0.085
0.165
0.225
0.255
0.265
0.23
0.15
0.09
0.09
0.085
0.14
0.2
0.26
0.27
0.265
0.22
0.16
0.1
0.075
0.065
0.12
0.17
0.21
0.21
0.205
0.16
0.065
0.025
-0.005
-0.025
-0.025
0.05
0.08
0.09
0.065
0.025
-0.07
-0.13
-0.16
-0.155
-0.11
-0.06
-0.02
-0.02
-0.03
-0.06
-0.16
-0.175
-0.21
-0.205
-0.17
-0.1
-0.065
-0.025
-0.035
-0.075
-0.165
-0.185
-0.21
-0.195
-0.16
-0.09
-0.085
-0.04
-0.06
-0.11
-0.185
-0.205
-0.225
-0.23
-0.185
-0.1
-0.08
-0.055
-0.08
-0.14
-0.215
-0.23
-0.265
-0.23
-0.185
-0.105
-0.07
-0.075
-0.095
-0.165
-0.24
-0.25
-0.265
-0.25
-0.22
-0.115
-0.12
-0.09
-0.13
-0.19
-0.28
-0.28
-0.285
-0.265
-0.23
-0.16
-0.13
-0.12
-0.145
-0.23
-0.3
-0.305
-0.295
-0.27
-0.215
-0.14
-0.125
-0.12
-0.145
-0.205
-0.275
-0.3
-0.32
-0.29
-0.23
-0.175
-0.16
-0.12
-0.175
-0.21
-0.28
-0.285
-0.31
-0.285
-0.24
-0.195
-0.175
-0.165
-0.18
-0.22
-0.305
-0.325
-0.33
-0.3
-0.25
-0.18
-0.185
-0.165
-0.215
-0.31
-0.35
-0.375
-0.365
-0.335
-0.285
-0.23
-0.22
-0.22
-0.275
-0.335
-0.38
-0.405
-0.4
-0.36
-0.305
-0.245
-0.245
-0.25
-0.31
-0.365
-0.415
-0.445
-0.41
-0.38
-0.33
-0.315
-0.305
-0.295
-0.345
-0.44
-0.475
-0.48
-0.41
-0.305
-0.165
-0.065
0.045
0.105
0.14
0.1
0.02
-0.1
-0.235
-0.225
-0.17
-0.23
-0.27
-0.49
-0.645
-0.71
-0.7
-0.7
-0.695
-0.65
-0.575
-0.555
-0.5
-0.495
-0.475
-0.52
-0.535
-0.535
-0.49
-0.435
-0.34
-0.31
-0.315
-0.31
-0.355
-0.415
-0.435
-0.465
-0.435
-0.38
-0.315
-0.29
-0.27
-0.3
-0.355
-0.415
-0.44
-0.47
-0.435
-0.365
-0.32
-0.3
-0.25
-0.29
-0.35
-0.395
-0.4
-0.445
-0.4
-0.39
-0.265
-0.265
-0.255
-0.275
-0.31
-0.385
-0.415
-0.405
-0.405
-0.36
-0.265
-0.245
-0.225
-0.255
-0.295
-0.35
-0.37
-0.375
-0.33
-0.28
-0.18
-0.17
-0.165
-0.18
-0.22
-0.28
-0.305
-0.29
-0.245
-0.205
-0.135
-0.075
-0.105
-0.13
-0.2
-0.25
-0.29
-0.31
-0.275
-0.195
-0.15
-0.135
-0.14
-0.18
-0.24
-0.31
-0.365
-0.355
-0.31
-0.27
-0.235
-0.24
-0.24
-0.315
-0.395
-0.455
-0.48
-0.49
-0.47
-0.4
-0.365
-0.365
-0.37
-0.415
-0.49
-0.545
-0.56
-0.57
-0.535
-0.465
-0.43
-0.4
-0.42
-0.455
-0.53
-0.565
-0.555
-0.55
-0.53
-0.475
-0.455
-0.415
-0.42
-0.47
-0.53
-0.585
-0.595
-0.59
-0.52
-0.465
-0.44
-0.425
-0.415
-0.47
-0.52
-0.56
-0.585
-0.59
-0.54
-0.445
-0.45
-0.435
-0.46
-0.495
-0.535
-0.58
-0.62
-0.605
-0.55
-0.49
-0.46
-0.43
-0.44
-0.5
-0.59
-0.615
-0.61
-0.6
-0.55
-0.505
-0.49
-0.475
-0.5
-0.55
-0.61
-0.63
-0.65
-0.62
-0.595
-0.52
-0.48
-0.48
-0.485
-0.545
-0.615
-0.625
-0.66
-0.645
-0.59
-0.5
-0.47
-0.48
-0.5
-0.535
-0.61
-0.63
-0.645
-0.6
-0.575
-0.51
-0.48
-0.465
-0.485
-0.555
-0.63
-0.645
-0.67
-0.625
-0.54
-0.495
-0.475
-0.465
-0.52
-0.59
-0.65
-0.685
-0.68
-0.65
-0.595
-0.545
-0.54
-0.535
-0.55
-0.645
-0.695
-0.72
-0.72
-0.715
-0.665
-0.565
-0.565
-0.56
-0.585
-0.65
-0.71
-0.735
-0.74
-0.72
-0.66
-0.615
-0.61
-0.595
-0.645
-0.71
-0.78
-0.77
-0.72
-0.615
-0.48
-0.36
-0.285
-0.185
-0.145
-0.185
-0.265
-0.38
-0.495
-0.495
-0.455
-0.5
-0.58
-0.735
-0.915
-0.96
-0.99
-1.01
-0.985
-0.95
-0.85
-0.815
-0.78
-0.735
-0.745
-0.79
-0.815
-0.82
-0.78
-0.735
-0.655
-0.615
-0.585
-0.58
-0.66
-0.715
-0.75
-0.74
-0.75
-0.685
-0.62
-0.58
-0.555
-0.565
-0.625
-0.71
-0.73
-0.745
-0.75
-0.68
-0.61
-0.61
-0.58
-0.575
-0.615
-0.685
-0.73
-0.755
-0.73
-0.66
-0.585
-0.57
-0.545
-0.57
-0.615
-0.68
-0.705
-0.72
-0.695
-0.63
-0.54
-0.52
-0.5
-0.52
-0.575
-0.64
-0.66
-0.66
-0.64
-0.565
-0.49
-0.465
-0.405
-0.465
-0.51
-0.565
-0.575
-0.6
-0.565
-0.5
-0.415
-0.385
-0.37
-0.4
-0.445
-0.53
-0.535
-0.585
-0.565
-0.495
-0.42
-0.41
-0.405
-0.445
-0.515
-0.595
-0.615
-0.635
-0.61
-0.58
-0.52
-0.515
-0.525
-0.57
-0.64
-0.745
-0.76
-0.78
-0.755
-0.71
-0.635
-0.625
-0.635
-0.7
-0.77
-0.825
-0.855
-0.855
-0.83
-0.76
-0.73
-0.71
-0.685
-0.71
-0.785
-0.84
-0.885
-0.875
-0.84
-0.75
-0.705
-0.71
-0.695
-0.73
-0.795
-0.83
-0.845
-0.88
-0.83
-0.75
-0.7
-0.685
-0.705
-0.725
-0.795
-0.835
-0.85
-0.86
-0.83
-0.735
-0.705
-0.69
-0.695
-0.74
-0.82
-0.83
-0.845
-0.845
-0.81
-0.745
-0.725
-0.695
-0.695
-0.72
-0.805
-0.865
-0.875
-0.87
-0.845
-0.75
-0.725
-0.71
-0.71
-0.76
-0.84
-0.865
-0.89
-0.9
-0.83
-0.725
-0.7
-0.72
-0.715
-0.8
-0.85
-0.875
-0.89
-0.88
-0.825
-0.765
-0.735
-0.72
-0.73
-0.775
-0.84
-0.855
-0.875
-0.865
-0.83
-0.75
-0.735
-0.715
-0.735
-0.78
-0.845
-0.885
-0.895
-0.89
-0.81
-0.725
-0.72
-0.71
-0.72
-0.805
-0.875
-0.885
-0.91
-0.875
-0.84
-0.775
-0.775
-0.75
-0.785
-0.86
-0.92
-0.925
-0.95
-0.935
-0.86
-0.775
-0.79
-0.765
-0.785
-0.87
-0.935
-0.94
-0.955
-0.94
-0.88
-0.835
-0.84
-0.81
-0.87
-0.95
-0.98
-1.01
-0.965
-0.865
-0.72
-0.6
-0.49
-0.4
-0.35
-0.345
-0.405
-0.53
-0.675
-0.74
-0.705
-0.73
-0.805
-0.93
-1.105
-1.195
-1.215
-1.24
-1.21
-1.155
-1.09
-1.04
-0.99
-0.945
-0.96
-0.985
-1.01
-1.025
-0.985
-0.955
-0.88
-0.825
-0.815
-0.79
-0.85
-0.92
-0.945
-0.97
-0.96
-0.91
-0.84
-0.82
-0.795
-0.795
-0.845
-0.885
-0.93
-0.93
-0.94
-0.895
-0.82
-0.785
-0.765
-0.775
-0.795
-0.875
-0.905
-0.925
-0.93
-0.885
-0.81
-0.78
-0.745
-0.745
-0.795
-0.855
-0.865
-0.9
-0.89
-0.83
-0.76
-0.73
-0.685
-0.71
-0.76
-0.82
-0.825
-0.825
-0.82
-0.765
-0.67
-0.65
-0.61
-0.625
-0.675
-0.745
-0.76
-0.74
-0.735
-0.675
-0.585
-0.555
-0.535
-0.57
-0.605
-0.68
-0.705
-0.715
-0.7
-0.64
-0.575
-0.555
-0.545
-0.595
-0.65
-0.74
-0.75
-0.79
-0.77
-0.725
-0.67
-0.66
-0.66
-0.705
-0.775
-0.85
-0.89
-0.91
-0.895
-0.86
-0.805
-0.79
-0.77
-0.805
-0.89
-0.94
-0.98
-0.995
-0.97
-0.905
-0.86
-0.835
-0.84
-0.86
-0.925
-0.99
-1.005
-1.015
-0.98
-0.92
-0.865
-0.86
-0.85
-0.865
-0.92
-0.995
-0.995
-1.025
-0.98
-0.905
-0.855
-0.83
-0.825
-0.86
-0.93
-0.97
-1.0
-1.0
-0.95
-0.89
-0.845
-0.83
-0.83
-0.87
-0.945
-0.98
-1.025
-1.02
-0.97
-0.895
-0.865
-0.845
-0.845
-0.895
-0.975
-1.01
-1.03
-1.03
-1.0
-0.925
-0.885
-0.87
-0.87
-0.94
-0.99
-1.025
-1.035
-1.015
-0.995
-0.915
-0.895
-0.845
-0.87
-0.93
-1.005
-1.025
-1.03
-1.015
-0.975
-0.905
-0.885
-0.85
-0.865
-0.92
-1.0
-1.04
-1.045
-1.03
-0.975
-0.92
-0.905
-0.875
-0.89
-0.925
-0.985
-1.015
-1.045
-1.015
-0.975
-0.9
-0.885
-0.86
-0.885
-0.945
-1.02
-1.03
-1.08
-1.05
-0.995
-0.905
-0.92
-0.915
-0.935
-0.97
-1.06
-1.075
-1.1
-1.07
-1.02
-0.945
-0.92
-0.925
-0.95
-1.005
-1.06
-1.06
-1.07
-1.085
-1.035
-0.995
-0.945
-0.95
-0.985
-1.055
-1.11
-1.125
-1.12
-1.025
-0.915
-0.755
-0.66
-0.55
-0.515
-0.465
-0.52
-0.58
-0.695
-0.84
-0.87
-0.85
-0.915
-1.015
-1.185
-1.36
-1.43
-1.42
-1.39
-1.33
-1.255
-1.165
-1.135
-1.1
-1.105
-1.15
-1.17
-1.155
-1.16
-1.105
-1.005
-0.965
-0.935
-0.925
-0.955
-1.01
-1.055
-1.075
-1.075
-1.035
-0.97
-0.925
-0.905
-0.9
-0.95
-1.005
-1.04
-1.06
-1.055
-1.02
-0.96
-0.91
-0.875
-0.875
-0.925
-0.985
-1.03
-1.045
-1.035
-0.995
-0.925
-0.9
-0.865
-0.87
-0.92
-0.955
-0.99
-0.985
-1.01
-0.935
-0.875
-0.85
-0.805
-0.815
-0.845
-0.915
-0.94
-0.95
-0.935
-0.875
-0.79
-0.74
-0.725
-0.72
-0.775
-0.81
-0.84
-0.85
-0.825
-0.77
-0.685
-0.65
-0.625
-0.64
-0.68
-0.755
-0.785
-0.8
-0.79
-0.75
-0.66
-0.66
-0.65
-0.65
-0.715
-0.815
-0.845
-0.855
-0.855
-0.825
-0.775
-0.755
-0.73
-0.76
-0.865
-0.94
-0.965
-1.0
-0.995
-0.96
-0.89
-0.88
-0.87
-0.895
-0.98
-1.055
-1.075
-1.11
-1.08
-1.03
-0.965
-0.95
-0.925
-0.96
-1.02
-1.095
-1.105
-1.125
-1.105
-1.04
-0.99
-0.955
-0.945
-0.98
-1.045
-1.07
-1.11
-1.115
-1.1
-1.02
-0.975
-0.955
-0.94
-0.96
-1.03
-1.09
-1.085
-1.105
-1.075
-1.015
-0.965
-0.94
-0.92
-0.955
-1.02
-1.08
-1.095
-1.095
-1.075
-1.015
-0.965
-0.95
-0.935
-0.955
-1.045
-1.1
-1.125
-1.12
-1.085
-1.04
-0.975
-0.97
-0.97
-0.985
-1.065
-1.115
-1.145
-1.125
-1.075
-1.02
-0.98
-0.96
-0.97
-0.98
-1.035
-1.085
-1.125
-1.11
-1.075
-1.01
-0.97
-0.95
-0.96
-1.005
-1.055
-1.1
-1.11
-1.11
-1.045
-0.975
-0.96
-0.925
-0.935
-0.985
-1.055
-1.11
-1.125
-1.105
-1.045
-0.98
-0.94
-0.915
-0.935
-0.97
-1.035
-1.075
-1.105
-1.1
-1.055
-1.005
-0.97
-0.945
-0.96
-1.01
-1.1
-1.13
-1.165
-1.145
-1.1
-1.005
-0.995
-0.98
-0.995
-1.055
-1.13
-1.14
-1.15
-1.155
-1.105
-1.03
-1.005
-0.995
-1.01
-1.06
-1.145
-1.185
-1.23
-1.195
-1.165
-1.085
-1.05
-0.985
-0.93
-0.885
-0.895
-0.825
-0.755
-0.64
-0.545
-0.465
-0.53
-0.655
-0.825
-0.93
-1.07
-1.185
-1.335
-1.445
-1.45
-1.35
-1.325
-1.265
-1.255
-1.285
-1.335
-1.325
-1.315
-1.26
-1.16
-1.09
-1.04
-1.005
-1.03
-1.075
-1.125
-1.13
-1.155
-1.11
-1.06
-1.0
-0.97
-0.97
-0.99
-1.045
-1.11
-1.13
-1.135
-1.1
-1.035
-0.965
-0.94
-0.935
-0.975
-1.025
-1.085
-1.095
-1.105
-1.075
-0.985
-0.94
-0.92
-0.91
-0.955
-1.025
-1.05
-1.07
-1.06
-1.03
-0.95
-0.905
-0.89
-0.88
-0.91
-0.97
-1.015
-1.03
-1.005
-0.975
-0.89
-0.855
-0.82
-0.805
-0.845
-0.925
-0.945
-0.93
-0.915
-0.88
-0.79
-0.735
-0.72
-0.71
-0.745
-0.825
-0.84
-0.865
-0.85
-0.805
-0.73
-0.695
-0.67
-0.69
-0.735
-0.805
-0.855
-0.875
-0.875
-0.83
-0.76
-0.75
-0.72
-0.74
-0.815
-0.9
-0.95
-0.98
-1.0
-0.95
-0.845
-0.84
-0.85
-0.89
-0.96
-1.025
-1.075
-1.09
-1.08
-1.045
-0.97
-0.945
-0.93
-0.95
-1.02
-1.085
-1.105
-1.14
-1.13
-1.07
-0.975
-0.985
-0.965
-0.96
-1.03
-1.11
-1.135
-1.16
-1.12
-1.05
-0.985
-0.955
-0.955
-0.975
-1.03
-1.095
-1.1
-1.105
-1.1
-1.05
-0.98
-0.96
-0.94
-0.985
-1.035
-1.08
-1.1
-1.115
-1.09
-1.035
-0.955
-0.945
-0.95
-0.96
-1.02
-1.1
-1.12
-1.125
-1.08
-1.02
-0.96
-0.945
-0.93
-0.975
-1.03
-1.09
-1.1
-1.125
-1.085
-1.03
-0.965
-0.96
-0.95
-0.985
-1.045
-1.085
-1.12
-1.125
-1.08
-1.01
-0.955
-0.95
-0.945
-0.975
-1.035
-1.09
-1.11
-1.12
-1.08
-1.0
-0.975
-0.965
-0.925
-0.96
-1.015
-1.065
-1.1
-1.1
-1.045
-0.98
-0.925
-0.915
-0.925
-0.97
-1.035
-1.08
-1.085
-1.085
-1.03
-0.95
-0.915
-0.905
-0.885
-0.96
-1.04
-1.065
-1.09
-1.075
-1.035
-0.965
-0.95
-0.93
-0.945
-0.995
-1.045
-1.115
-1.13
-1.1
-1.06
-0.99
-0.97
-0.94
-0.95
-1.005
-1.075
-1.115
-1.135
-1.12
-1.06
-0.965
-0.96
-0.93
-0.975
-1.055
-1.13
-1.15
-1.18
-1.15
-1.105
-0.985
-0.92
-0.82
-0.755
-0.735
-0.73
-0.66
-0.61
-0.565
-0.555
-0.59
-0.72
-0.74
-0.805
-0.95
-1.13
-1.295
-1.38
-1.37
-1.305
-1.205
-1.17
-1.15
-1.165
-1.205
-1.255
-1.23
-1.195
-1.15
-1.07
-0.995
-0.945
-0.915
-0.935
-0.99
-1.045
-1.06
-1.06
-1.05
-0.99
-0.915
-0.9
-0.89
-0.915
-0.965
-1.02
-1.035
-1.05
-1.025
-0.95
-0.895
-0.87
-0.85
-0.865
-0.945
-1.0
-0.99
-1.0
-0.975
-0.895
-0.845
-0.82
-0.825
-0.855
-0.9
-0.95
-0.985
-0.98
-0.925
-0.845
-0.795
-0.77
-0.775
-0.805
-0.875
-0.91
-0.905
-0.91
-0.855
-0.785
-0.755
-0.68
-0.68
-0.72
-0.79
-0.82
-0.81
-0.8
-0.755
-0.69
-0.645
-0.6
-0.61
-0.64
-0.705
-0.73
-0.755
-0.745
-0.7
-0.63
-0.59
-0.575
-0.59
-0.64
-0.71
-0.755
-0.78
-0.775
-0.75
-0.68
-0.645
-0.655
-0.68
-0.715
-0.815
-0.875
-0.89
-0.885
-0.85
-0.78
-0.765
-0.725
-0.765
-0.815
-0.895
-0.94
-0.965
-0.95
-0.92
-0.845
-0.82
-0.785
-0.815
-0.875
-0.95
-0.985
-1.0
-0.99
-0.95
-0.85
-0.825
-0.805
-0.805
-0.87
-0.955
-0.98
-1.01
-0.985
-0.91
-0.835
-0.79
-0.785
-0.81
-0.865
-0.94
-0.945
-0.96
-0.945
-0.875
-0.795
-0.795
-0.78
-0.765
-0.845
-0.91
-0.935
-0.94
-0.91
-0.855
-0.79
-0.8
-0.76
-0.78
-0.835
-0.91
-0.925
-0.95
-0.915
-0.835
-0.76
-0.76
-0.75
-0.78
-0.84
-0.905
-0.915
-0.935
-0.9
-0.84
-0.795
-0.78
-0.76
-0.805
-0.85
-0.915
-0.93
-0.95
-0.905
-0.84
-0.795
-0.77
-0.755
-0.795
-0.84
-0.91
-0.925
-0.935
-0.895
-0.81
-0.77
-0.75
-0.755
-0.79
-0.835
-0.875
-0.885
-0.885
-0.86
-0.795
-0.765
-0.735
-0.72
-0.755
-0.84
-0.86
-0.88
-0.895
-0.84
-0.775
-0.73
-0.7
-0.7
-0.735
-0.805
-0.835
-0.85
-0.88
-0.835
-0.765
-0.72
-0.7
-0.72
-0.765
-0.815
-0.855
-0.895
-0.89
-0.85
-0.785
-0.75
-0.72
-0.735
-0.765
-0.855
-0.88
-0.895
-0.89
-0.84
-0.79
-0.755
-0.74
-0.72
-0.79
-0.865
-0.895
-0.92
-0.91
-0.865
-0.785
-0.775
-0.755
-0.76
-0.83
-0.875
-0.865
-0.82
-0.72
-0.61
-0.46
-0.35
-0.24
-0.215
-0.29
-0.45
-0.58
-0.655
-0.68
-0.695
-0.72
-0.825
-0.905
-0.95
-0.99
-1.055
-1.05
-1.07
-1.035
-0.965
-0.87
-0.815
-0.775
-0.775
-0.79
-0.835
-0.83
-0.82
-0.805
-0.76
-0.67
-0.635
-0.625
-0.655
-0.705
-0.765
-0.77
-0.795
-0.775
-0.71
-0.645
-0.615
-0.615
-0.635
-0.685
-0.735
-0.755
-0.77
-0.73
-0.665
-0.605
-0.595
-0.575
-0.6
-0.675
-0.735
-0.72
-0.755
-0.72
-0.645
-0.585
-0.565
-0.55
-0.585
-0.65
-0.68
-0.695
-0.685
-0.64
-0.57
-0.52
-0.495
-0.49
-0.505
-0.585
-0.625
-0.62
-0.6
-0.575
-0.485
-0.435
-0.405
-0.395
-0.41
-0.47
-0.515
-0.52
-0.52
-0.455
-0.395
-0.345
-0.325
-0.335
-0.365
-0.425
-0.47
-0.505
-0.505
-0.475
-0.39
-0.345
-0.33
-0.345
-0.4
-0.47
-0.525
-0.545
-0.56
-0.52
-0.45
-0.445
-0.445
-0.47
-0.525
-0.625
-0.635
-0.68
-0.68
-0.64
-0.57
-0.545
-0.535
-0.555
-0.6
-0.695
-0.71
-0.755
-0.72
-0.7
-0.61
-0.59
-0.565
-0.585
-0.62
-0.73
-0.73
-0.755
-0.735
-0.69
-0.61
-0.59
-0.56
-0.585
-0.63
-0.71
-0.74
-0.74
-0.71
-0.67
-0.595
-0.56
-0.52
-0.545
-0.615
-0.69
-0.71
-0.705
-0.695
-0.635
-0.555
-0.53
-0.535
-0.565
-0.615
-0.675
-0.705
-0.74
-0.7
-0.655
-0.555
-0.545
-0.535
-0.55
-0.605
-0.68
-0.695
-0.725
-0.685
-0.635
-0.545
-0.54
-0.51
-0.54
-0.6
-0.68
-0.69
-0.72
-0.67
-0.615
-0.545
-0.53
-0.52
-0.565
-0.61
-0.68
-0.69
-0.705
-0.65
-0.6
-0.545
-0.53
-0.51
-0.555
-0.605
-0.675
-0.685
-0.705
-0.655
-0.58
-0.535
-0.51
-0.505
-0.545
-0.615
-0.655
-0.67
-0.675
-0.625
-0.57
-0.505
-0.485
-0.485
-0.525
-0.585
-0.635
-0.66
-0.645
-0.605
-0.545
-0.485
-0.49
-0.48
-0.52
-0.595
-0.635
-0.655
-0.675
-0.62
-0.57
-0.545
-0.52
-0.525
-0.565
-0.625
-0.67
-0.695
-0.685
-0.65
-0.565
-0.535
-0.505
-0.51
-0.56
-0.635
-0.66
-0.685
-0.675
-0.62
-0.56
-0.53
-0.53
-0.55
-0.595
-0.675
-0.725
-0.75
-0.68
-0.56
-0.405
-0.31
-0.205
-0.145
-0.11
-0.135
-0.145
-0.25
-0.365
-0.42
-0.365
-0.4
-0.47
-0.605
-0.79
-0.93
-0.92
-0.93
-0.9
-0.84
-0.75
-0.715
-0.655
-0.665
-0.675
-0.725
-0.715
-0.72
-0.655
-0.595
-0.51
-0.47
-0.445
-0.485
-0.535
-0.595
-0.6
-0.62
-0.615
-0.55
-0.48
-0.45
-0.425
-0.46
-0.52
-0.59
-0.6
-0.63
-0.57
-0.52
-0.445
-0.425
-0.4
-0.435
-0.5
-0.555
-0.58
-0.6
-0.55
-0.49
-0.41
-0.395
-0.37
-0.41
-0.465
-0.51
-0.52
-0.54
-0.495
-0.45
-0.37
-0.35
-0.32
-0.355
-0.425
-0.44
-0.47
-0.48
-0.43
-0.35
-0.28
-0.255
-0.235
-0.265
-0.315
-0.37
-0.385
-0.38
-0.34
-0.255
-0.19
-0.165
-0.145
-0.19
-0.27
-0.3
-0.33
-0.32
-0.275
-0.21
-0.17
-0.145
-0.155
-0.2
-0.28
-0.32
-0.345
-0.35
-0.325
-0.27
-0.245
-0.23
-0.245
-0.29
-0.365
-0.435
-0.46
-0.465
-0.44
-0.36
-0.33
-0.325
-0.335
-0.4
-0.475
-0.5
-0.55
-0.525
-0.495
-0.395
-0.385
-0.38
-0.405
-0.44
-0.515
-0.55
-0.585
-0.58
-0.535
-0.43
-0.395
-0.38
-0.395
-0.445
-0.52
-0.545
-0.565
-0.54
-0.465
-0.405
-0.38
-0.355
-0.37
-0.415
-0.485
-0.525
-0.525
-0.51
-0.465
-0.38
-0.335
-0.34
-0.355
-0.415
-0.48
-0.49
-0.52
-0.475
-0.425
-0.35
-0.35
-0.32
-0.335
-0.395
-0.465
-0.48
-0.51
-0.48
-0.41
-0.35
-0.345
-0.315
-0.355
-0.415
-0.48
-0.485
-0.51
-0.5
-0.425
-0.335
-0.325
-0.3
-0.33
-0.4
-0.455
-0.475
-0.485
-0.455
-0.39
-0.33
-0.31
-0.28
-0.325
-0.38
-0.43
-0.45
-0.455
-0.41
-0.335
-0.275
-0.26
-0.245
-0.295
-0.33
-0.4
-0.405
-0.425
-0.38
-0.31
-0.26
-0.24
-0.23
-0.27
-0.335
-0.39
-0.38
-0.385
-0.34
-0.275
-0.215
-0.195
-0.21
-0.235
-0.3
-0.365
-0.385
-0.385
-0.34
-0.28
-0.235
-0.205
-0.21
-0.265
-0.325
-0.375
-0.41
-0.41
-0.36
-0.29
-0.235
-0.245
-0.24
-0.26
-0.325
-0.365
-0.395
-0.38
-0.35
-0.26
-0.24
-0.185
-0.2
-0.245
-0.33
-0.385
-0.405
-0.405
-0.35
-0.27
-0.26
-0.2
-0.15
-0.13
-0.095
-0.06
0.0
0.1
0.25
0.34
0.36
0.26
0.085
-0.03
-0.165
-0.25
-0.375
-0.485
-0.575
-0.47
-0.43
-0.38
-0.365
-0.405
-0.46
-0.47
-0.465
-0.365
-0.305
-0.21
-0.17
-0.12
-0.14
-0.175
-0.24
-0.235
-0.26
-0.22
-0.155
-0.07
-0.045
-0.025
-0.045
-0.105
-0.16
-0.18
-0.2
-0.165
-0.09
-0.025
-0.005
0.0
-0.005
-0.06
-0.125
-0.135
-0.16
-0.115
-0.045
0.02
0.065
0.085
0.055
-0.02
-0.055
-0.09
-0.08
-0.06
0.015
0.07
0.115
0.15
0.125
0.07
0.01
0.0
0.0
0.04
0.11
0.185
0.22
0.23
0.2
0.145
0.11
0.09
0.11
0.16
0.26
0.325
0.355
0.38
0.35
0.295
0.25
0.24
0.24
0.285
0.35
0.415
0.445
0.455
0.4
0.34
0.29
0.27
0.27
0.325
0.38
0.41
0.425
0.435
0.375
0.3
0.245
0.23
0.215
0.265
0.315
0.355
0.355
0.35
0.295
0.215
0.15
0.14
0.165
0.2
0.28
0.315
0.33
0.315
0.27
0.195
0.155
0.14
0.15
0.19
0.265
0.29
0.32
0.32
0.28
0.23
0.18
0.175
0.18
0.245
0.3
0.345
0.37
0.365
0.31
0.245
0.22
0.195
0.245
0.29
0.395
0.405
0.43
0.42
0.385
0.315
0.295
0.265
0.29
0.375
0.435
0.455
0.475
0.46
0.41
0.35
0.32
0.325
0.36
0.395
0.48
0.495
0.525
0.515
0.465
0.375
0.355
0.375
0.37
0.435
0.515
0.54
0.57
0.545
0.475
0.395
0.385
0.37
0.41
0.46
0.545
0.575
0.58
0.54
0.51
0.45
0.435
0.43
0.46
0.51
0.575
0.6
0.62
0.61
0.57
0.5
0.49
0.48
0.51
0.585
0.625
0.635
0.645
0.63
0.6
0.545
0.535
0.535
0.56
0.625
0.685
0.725
0.725
0.695
0.645
0.6
0.585
0.585
0.63
0.7
0.735
0.77
0.78
0.73
0.66
0.635
0.63
0.64
0.67
0.755
0.79
0.815
0.825
0.795
0.72
0.68
0.65
0.635
0.685
0.74
0.79
0.83
0.84
0.775
0.705
0.69
0.67
0.68
0.725
0.8
0.825
0.86
0.865
0.8
0.75
0.72
0.715
0.7
0.775
0.86
0.86
0.875
0.875
0.82
0.735
0.705
0.69
0.71
0.77
0.86
0.94
1.03
1.135
1.18
1.205
1.265
1.35
1.4
1.395
1.39
1.23
1.2
1.13
1.0
0.81
0.655
0.525
0.53
0.6
0.69
0.75
0.805
0.81
0.785
0.77
0.785
0.79
0.845
0.935
1.005
1.035
1.075
1.055
1.025
0.975
0.945
0.94
0.98
1.035
1.1
1.11
1.135
1.12
1.08
1.025
1.005
0.99
1.035
1.08
1.135
1.155
1.19
1.17
1.125
1.085
1.06
1.05
1.095
1.145
1.21
1.23
1.23
1.225
1.17
1.13
1.13
1.14
1.155
1.205
1.275
1.305
1.31
1.305
1.265
1.21
1.205
1.205
1.245
1.315
1.37
1.39
1.415
1.4
1.375
1.33
1.32
1.34
1.385
1.435
1.495
1.53
1.53
1.515
1.47
1.46
1.44
1.45
1.485
1.535
1.57
1.58
1.59
1.545
1.495
1.46
1.45
1.435
1.47
1.52
1.54
1.545
1.53
1.5
1.45
1.4
1.385
1.36
1.395
1.435
1.425
1.445
1.435
1.385
1.325
1.3
1.28
1.29
1.315
1.365
1.39
1.42
1.415
1.38
1.31
1.3
1.27
1.27
1.29
1.38
1.385
1.405
1.415
1.365
1.31
1.305
1.29
1.3
1.335
1.39
1.415
1.44
1.445
1.395
1.335
1.33
1.31
1.335
1.39
1.435
1.445
1.47
1.46
1.43
1.375
1.355
1.34
1.365
1.405
1.44
1.45
1.47
1.475
1.425
1.365
1.345
1.33
1.355
1.405
1.465
1.465
1.49
1.47
1.435
1.385
1.375
1.355
1.375
1.42
1.46
1.45
1.48
1.485
1.44
1.4
1.375
1.345
1.38
1.42
1.46
1.465
1.495
1.465
1.43
1.4
1.385
1.355
1.4
1.45
1.48
1.485
1.505
1.48
1.435
1.39
1.385
1.38
1.425
1.47
1.495
1.52
1.54
1.51
1.46
1.45
1.415
1.405
1.445
1.505
1.53
1.55
1.555
1.525
1.475
1.445
1.43
1.415
1.47
1.515
1.55
1.565
1.585
1.54
1.475
1.455
1.42
1.415
1.46
1.505
1.535
1.54
1.535
1.51
1.445
1.43
1.41
1.41
1.44
1.465
1.495
1.525
1.525
1.5
1.445
1.415
1.415
1.415
1.435
1.495
1.5
1.52
1.515
1.495
1.45
1.43
1.4
1.38
1.41
1.455
1.455
1.515
1.47
1.45
1.435
1.48
1.545
1.62
1.73
1.865
1.955
2.045
2.07
1.995
1.84
1.68
1.64
1.615
1.545
1.505
1.375
1.3
1.28
1.26
1.205
1.205
1.21
1.22
1.29
1.39
1.42
1.475
1.495
1.46
1.42
1.435
1.435
1.46
1.51
1.575
1.57
1.6
1.58
1.55
1.49
1.485
1.465
1.48
1.52
1.57
1.595
1.615
1.605
1.555
1.51
1.505
1.49
1.485
1.56
1.615
1.615
1.625
1.615
1.575
1.53
1.515
1.505
1.525
1.585
1.625
1.645
1.665
1.635
1.595
1.555
1.55
1.53
1.56
1.635
1.665
1.69
1.715
1.68
1.635
1.62
1.615
1.615
1.655
1.69
1.735
1.78
1.8
1.77
1.745
1.705
1.715
1.69
1.725
1.79
1.835
1.85
1.855
1.82
1.775
1.73
1.705
1.7
1.735
1.8
1.81
1.83
1.83
1.785
1.705
1.675
1.645
1.615
1.65
1.7
1.72
1.72
1.71
1.665
1.58
1.53
1.505
1.505
1.52
1.575
1.605
1.63
1.605
1.56
1.485
1.45
1.43
1.425
1.475
1.52
1.535
1.545
1.55
1.51
1.45
1.43
1.4
1.41
1.45
1.52
1.515
1.55
1.535
1.505
1.47
1.42
1.395
1.405
1.455
1.535
1.545
1.57
1.555
1.515
1.43
1.41
1.38
1.41
1.47
1.54
1.55
1.575
1.565
1.495
1.425
1.41
1.4
1.405
1.445
1.525
1.54
1.545
1.525
1.485
1.4
1.39
1.36
1.375
1.435
1.51
1.53
1.54
1.505
1.465
1.39
1.365
1.36
1.385
1.44
1.5
1.5
1.53
1.495
1.445
1.385
1.35
1.34
1.385
1.44
1.495
1.51
1.515
1.485
1.445
1.375
1.37
1.34
1.36
1.43
1.5
1.505
1.505
1.475
1.44
1.375
1.34
1.335
1.365
1.43
1.51
1.53
1.53
1.485
1.415
1.36
1.345
1.325
1.365
1.445
1.485
1.5
1.505
1.475
1.415
1.375
1.36
1.35
1.385
1.435
1.48
1.49
1.49
1.43
1.355
1.31
1.29
1.3
1.33
1.37
1.41
1.445
1.45
1.4
1.335
1.285
1.26
1.26
1.32
1.39
1.42
1.45
1.43
1.385
1.305
1.265
1.25
1.265
1.3
1.365
1.38
1.405
1.375
1.325
1.235
1.215
1.23
1.32
1.405
1.58
1.67
1.77
1.855
1.865
1.765
1.67
1.535
1.445
1.49
1.505
1.42
1.335
1.22
1.07
1.005
1.01
1.005
1.035
1.095
1.18
1.205
1.245
1.265
1.23
1.165
1.175
1.19
1.21
1.295
1.375
1.385
1.42
1.37
1.335
1.26
1.24
1.23
1.245
1.29
1.37
1.385
1.42
1.38
1.33
1.25
1.235
1.21
1.25
1.32
1.38
1.4
1.425
1.43
1.345
1.285
1.255
1.24
1.285
1.34
1.41
1.445
1.435
1.405
1.36
1.285
1.27
1.255
1.3
1.375
1.42
1.455
1.46
1.445
1.375
1.33
1.31
1.3
1.35
1.42
1.49
1.525
1.53
1.485
1.42
1.385
1.385
1.385
1.415
1.505
1.545
1.555
1.575
1.52
1.455
1.395
1.385
1.375
1.445
1.495
1.53
1.535
1.545
1.51
1.43
1.37
1.32
1.325
1.36
1.41
1.465
1.465
1.44
1.375
1.275
1.245
1.215
1.18
1.23
1.31
1.315
1.335
1.315
1.255
1.16
1.12
1.1
1.12
1.155
1.22
1.25
1.27
1.25
1.205
1.105
1.08
1.055
1.06
1.12
1.2
1.23
1.25
1.24
1.175
1.1
1.06
1.03
1.06
1.1
1.195
1.21
1.25
1.225
1.17
1.095
1.065
1.035
1.065
1.125
1.19
1.21
1.25
1.215
1.17
1.09
1.05
1.04
1.065
1.125
1.19
1.215
1.23
1.205
1.155
1.065
1.055
1.035
1.065
1.11
1.17
1.185
1.205
1.175
1.105
1.045
1.035
0.99
1.045
1.09
1.145
1.165
1.18
1.155
1.095
1.015
1.005
0.98
1.015
1.085
1.14
1.165
1.17
1.13
1.07
1.02
1.005
0.99
1.025
1.095
1.145
1.16
1.17
1.14
1.08
0.995
0.98
0.975
1.05
1.095
1.15
1.16
1.19
1.125
1.07
1.0
1.0
0.98
1.025
1.095
1.13
1.145
1.155
1.13
1.07
0.97
0.95
0.97
0.98
1.025
1.09
1.135
1.095
1.04
0.965
0.96
0.925
0.92
0.915
0.99
1.05
1.08
1.06
1.02
0.965
0.91
0.88
0.885
0.95
1.025
1.06
1.04
1.05
1.0
0.915
0.87
0.815
0.795
0.89
0.96
0.925
1.0
1.025
1.025
1.03
1.05
1.125
1.275
1.385
1.53
1.555
1.49
1.34
1.195
1.105
1.01
0.9
0.775
0.685
0.765
0.805
0.85
0.82
0.78
0.67
0.715
0.685
0.72
0.84
0.895
0.955
1.0
1.0
0.96
0.875
0.865
0.855
0.88
0.905
0.975
1.015
1.025
1.005
0.96
0.9
0.845
0.845
0.84
0.875
0.98
1.03
1.01
1.01
0.95
0.885
0.875
0.87
0.87
0.93
1.03
1.04
1.075
1.09
0.995
0.895
0.83
0.825
0.875
0.99
1.005
1.015
1.01
1.04
0.975
0.92
0.915
0.895
0.945
0.945
1.035
1.08
1.075
1.095
1.055
0.965
0.955
0.97
1.015
1.075
1.16
1.195
1.225
1.175
1.115
1.08
1.04
1.02
1.055
1.15
1.235
1.245
1.235
1.19
1.155
1.09
1.07
1.04
1.075
1.15
1.145
1.18
1.165
1.115
1.06
0.995
0.92
0.91
0.955
0.99
1.055
1.04
1.01
0.97
0.855
0.825
0.78
0.79
0.835
0.895
0.92
0.93
0.935
0.88
0.79
0.765
0.73
0.775
0.795
0.855
0.87
0.88
0.87
0.835
0.755
0.705
0.69
0.74
0.745
0.835
0.885
0.89
0.855
0.8
0.735
0.74
0.735
0.715
0.78
0.815
0.86
0.89
0.87
0.83
0.745
0.745
0.72
0.71
0.78
0.87
0.865
0.91
0.85
0.845
0.725
0.705
0.685
0.715
0.745
0.83
0.85
0.875
0.835
0.79
0.705
0.68
0.665
0.69
0.76
0.825
0.85
0.845
0.775
0.74
0.635
0.655
0.65
0.665
0.675
0.78
0.805
0.835
0.82
0.75
0.67
0.655
0.63
0.67
0.745
0.785
0.805
0.83
0.805
0.725
0.63
0.64
0.6
0.67
0.74
0.795
0.805
0.83
0.8
0.735
0.645
0.625
0.67
0.7
0.8
0.82
0.84
0.85
0.81
0.745
0.645
0.625
0.6
0.68
0.76
0.81
0.795
0.835
0.76
0.67
0.625
0.595
0.605
0.61
0.69
0.735
0.77
0.76
0.69
0.62
0.585
0.57
0.545
0.585
0.67
0.72
0.76
0.735
0.68
0.59
0.56
0.545
0.55
0.59
0.68
0.7
0.72
0.69
0.615
0.52
0.46
0.445
0.435
0.485
0.57
0.67
0.77
0.87
0.91
0.97
1.025
1.105
1.185
1.215
1.25
1.19
1.06
0.97
0.835
0.56
0.385
0.21
0.175
0.24
0.34
0.39
0.435
0.445
0.4
0.38
0.36
0.37
0.43
0.5
0.6
0.64
0.67
0.655
0.61
0.555
0.525
0.43
0.5
0.565
0.655
0.68
0.68
0.67
0.64
0.55
0.53
0.52
0.53
0.585
0.675
0.71
0.71
0.695
0.64
0.555
0.52
0.505
0.555
0.605
0.685
0.715
0.72
0.72
0.645
0.57
0.57
0.525
0.56
0.66
0.715
0.73
0.775
0.74
0.68
0.61
0.605
0.615
0.64
0.72
0.795
0.805
0.83
0.82
0.76
0.715
0.695
0.69
0.73
0.82
0.91
0.935
0.945
0.935
0.855
0.83
0.785
0.785
0.82
0.91
0.955
1.015
0.98
0.925
0.85
0.805
0.755
0.76
0.785
0.855
0.905
0.925
0.895
0.835
0.72
0.695
0.63
0.61
0.635
0.715
0.775
0.755
0.75
0.7
0.605
0.535
0.505
0.505
0.53
0.62
0.65
0.65
0.635
0.61
0.52
0.465
0.435
0.445
0.495
0.57
0.615
0.61
0.59
0.56
0.485
0.435
0.41
0.41
0.455
0.595
0.625
0.62
0.62
0.55
0.485
0.44
0.405
0.42
0.465
0.55
0.605
0.605
0.595
0.565
0.455
0.45
0.41
0.42
0.5
0.56
0.59
0.6
0.525
0.515
0.46
0.43
0.38
0.39
0.48
0.555
0.53
0.575
0.58
0.52
0.39
0.4
0.345
0.42
0.54
0.565
0.57
0.61
0.57
0.515
0.455
0.41
0.395
0.425
0.48
0.59
0.585
0.61
0.56
0.48
0.4
0.41
0.395
0.445
0.52
0.59
0.595
0.635
0.58
0.535
0.46
0.435
0.385
0.43
0.495
0.595
0.6
0.6
0.595
0.53
0.44
0.42
0.39
0.445
0.5
0.555
0.575
0.595
0.51
0.46
0.415
0.38
0.34
0.365
0.405
0.475
0.51
0.51
0.47
0.38
0.345
0.315
0.3
0.365
0.42
0.465
0.5
0.495
0.47
0.385
0.345
0.285
0.28
0.335
0.385
0.435
0.425
0.405
0.385
0.285
0.27
0.275
0.385
0.535
0.715
0.855
0.985
1.09
1.085
0.99
0.86
0.715
0.6
0.61
0.57
0.45
0.34
0.165
0.065
0.015
-0.015
0.0
0.005
0.085
0.18
0.235
0.325
0.355
0.31
0.26
0.27
0.235
0.25
0.325
0.44
0.46
0.505
0.465
0.415
0.345
0.295
0.29
0.315
0.375
0.47
0.485
0.505
0.475
0.445
0.36
0.345
0.315
0.36
0.4
0.51
0.5
0.525
0.52
0.46
0.365
0.355
0.33
0.37
0.43
0.515
0.565
0.585
0.565
0.505
0.4
0.385
0.385
0.41
0.47
0.555
0.59
0.62
0.61
0.55
0.5
0.425
0.445
0.49
0.535
0.655
0.67
0.695
0.665
0.62
0.585
0.575
0.57
0.605
0.69
0.745
0.79
0.8
0.775
0.665
0.645
0.6
0.585
0.61
0.655
0.74
0.785
0.74
0.72
0.68
0.595
0.54
0.525
0.53
0.605
0.675
0.685
0.635
0.58
0.5
0.435
0.38
0.35
0.425
0.485
0.515
0.51
0.505
0.475
0.375
0.325
0.28
0.25
0.305
0.39
0.45
0.465
0.45
0.41
0.31
0.255
0.2
0.255
0.31
0.385
0.41
0.455
0.435
0.39
0.31
0.255
0.23
0.215
0.305
0.335
0.395
0.43
0.435
0.37
0.295
0.275
0.235
0.265
0.29
0.38
0.385
0.455
0.42
0.375
0.28
0.265
0.24
0.225
0.285
0.37
0.41
0.405
0.405
0.375
0.26
0.205
0.205
0.255
0.275
0.37
0.38
0.415
0.405
0.35
0.215
0.23
0.195
0.2
0.265
0.355
0.39
0.405
0.355
0.325
0.25
0.225
0.195
0.205
0.265
0.355
0.365
0.39
0.385
0.31
0.235
0.22
0.205
0.225
0.3
0.385
0.405
0.46
0.4
0.34
0.245
0.245
0.195
0.205
0.275
0.37
0.395
0.405
0.375
0.32
0.21
0.19
0.18
0.19
0.265
0.315
0.35
0.355
0.31
0.23
0.17
0.125
0.115
0.145
0.23
0.285
0.31
0.315
0.26
0.215
0.14
0.12
0.105
0.135
0.215
0.29
0.315
0.315
0.26
0.17
0.1
0.07
0.045
0.05
0.11
0.2
0.2
0.215
0.195
0.265
0.295
0.375
0.46
0.625
0.825
0.935
0.97
0.88
0.675
0.45
0.355
0.225
0.085
-0.025
-0.085
-0.13
-0.045
-0.04
-0.055
-0.12
-0.155
-0.16
-0.125
-0.02
0.085
0.15
0.23
0.23
0.21
0.09
0.1
0.06
0.055
0.135
0.23
0.25
0.29
0.3
0.245
0.16
0.13
0.105
0.1
0.15
0.255
0.28
0.295
0.29
0.255
0.18
0.15
0.135
0.14
0.185
0.265
0.34
0.34
0.32
0.275
0.195
0.17
0.15
0.175
0.235
0.335
0.375
0.38
0.375
0.31
0.235
0.21
0.185
0.225
0.32
0.415
0.42
0.445
0.465
0.415
0.325
0.315
0.305
0.35
0.435
0.515
0.555
0.615
0.56
0.525
0.44
0.42
0.41
0.46
0.545
0.625
0.65
0.685
0.615
0.555
0.485
0.445
0.475
0.485
0.545
0.635
0.63
0.63
0.595
0.515
0.45
0.395
0.38
0.39
0.445
0.51
0.49
0.505
0.46
0.395
0.27
0.28
0.235
0.275
0.32
0.395
0.405
0.43
0.375
0.29
0.23
0.185
0.19
0.225
0.305
0.36
0.4
0.395
0.355
0.3
0.26
0.25
0.22
0.275
0.355
0.42
0.44
0.45
0.43
0.335
0.265
0.265
0.25
0.32
0.375
0.445
0.485
0.46
0.425
0.36
0.31
0.315
0.34
0.375
0.445
0.51
0.535
0.515
0.49
0.41
0.36
0.345
0.37
0.425
0.5
0.53
0.56
0.565
0.515
0.45
0.435
0.395
0.41
0.46
0.555
0.585
0.625
0.595
0.57
0.495
0.47
0.45
0.48
0.515
0.635
0.64
0.67
0.655
0.595
0.55
0.54
0.515
0.55
0.61
0.7
0.72
0.75
0.73
0.71
0.645
0.61
0.585
0.585
0.66
0.76
0.785
0.815
0.795
0.765
0.69
0.68
0.65
0.675
0.735
0.8
0.805
0.825
0.8
0.77
0.715
0.7
0.7
0.71
0.76
0.83
0.84
0.885
0.86
0.825
0.755
0.73
0.725
0.755
0.82
0.875
0.895
0.915
0.9
0.855
0.8
0.8
0.775
0.815
0.88
0.9
0.91
0.925
0.89
0.815
0.775
0.785
0.805
0.915
1.07
1.22
1.365
1.48
1.555
1.615
1.58
1.545
1.46
1.32
1.32
1.31
1.185
1.075
0.89
0.72
0.69
0.67
0.695
0.75
0.815
0.875
0.94
0.995
0.99
0.975
0.985
0.965
1.01
1.095
1.16
1.185
1.2
1.23
1.215
1.16
1.14
1.135
1.145
1.18
1.24
1.265
1.285
1.3
1.28
1.235
1.235
1.2
1.21
1.245
1.32
1.335
1.355
1.375
1.365
1.305
1.295
1.285
1.305
1.325
1.385
1.395
1.435
1.45
1.42
1.37
1.38
1.38
1.39
1.44
1.48
1.495
1.52
1.54
1.52
1.475
1.475
1.455
1.48
1.54
1.585
1.595
1.63
1.655
1.625
1.605
1.635
1.61
1.62
1.65
1.725
1.705
1.745
1.745
1.72
1.7
1.71
1.685
1.695
1.715
1.745
1.73
1.765
1.75
1.73
1.705
1.695
1.66
1.655
1.685
1.685
1.65
1.67
1.67
1.635
1.595
1.59
1.54
1.565
1.57
1.56
1.555
1.575
1.58
1.54
1.51
1.505
1.49
1.5
1.51
1.51
1.5
1.54
1.54
1.515
1.485
1.5
1.47
1.475
1.5
1.505
1.505
1.55
1.545
1.54
1.545
1.515
1.485
1.515
1.525
1.54
1.535
1.55
1.55
1.545
1.54
1.545
1.515
1.545
1.535
1.535
1.445
1.565
1.55
1.545
1.53
1.535
1.53
1.53
1.535
1.425
1.345
1.47
1.56
1.565
1.565
1.545
1.515
1.53
1.525
1.335
1.285
1.45
1.555
1.55
1.555
1.545
1.52
1.555
1.49
1.28
1.26
1.42
1.545
1.545
1.56
1.535
1.54
1.55
1.42
1.23
1.23
1.42
1.575
1.58
1.595
1.565
1.55
1.56
1.415
1.22
1.23
1.405
1.54
1.585
1.595
1.57
1.545
1.54
1.375
1.2
1.22
1.385
1.555
1.565
1.575
1.52
1.53
1.53
1.3
1.13
1.155
1.33
1.525
1.535
1.54
1.51
1.495
1.515
1.3
1.165
1.255
1.425
1.545
1.525
1.525
1.515
1.5
1.495
1.295
1.13
1.185
1.355
1.48
1.495
1.5
1.515
1.57
1.64
1.51
1.465
1.67
1.94
2.0
2.005
1.965
1.87
1.785
1.75
1.715
1.64
1.55
1.41
1.335
1.315
1.315
1.31
1.325
1.35
1.355
1.365
1.425
1.445
1.475
1.46
1.49
1.465
1.51
1.53
1.54
1.54
1.565
1.58
1.555
1.525
1.54
1.53
1.545
1.56
1.555
1.585
1.61
1.605
1.605
1.57
1.575
1.55
1.565
1.6
1.615
1.63
1.65
1.64
1.615
1.595
1.58
1.585
1.605
1.63
1.645
1.665
1.69
1.66
1.635
1.63
1.6
1.61
1.645
1.675
1.695
1.72
1.735
1.695
1.69
1.67
1.67
1.68
1.725
1.765
1.775
1.785
1.815
1.785
1.765
1.76
1.765
1.745
1.785
1.845
1.85
1.875
1.87
1.865
1.815
1.785
1.755
1.805
1.83
1.845
1.865
1.89
1.87
1.825
1.755
1.735
1.7
1.72
1.745
1.795
1.77
1.795
1.77
1.69
1.62
1.615
1.58
1.565
1.615
1.665
1.655
1.67
1.66
1.61
1.54
1.52
1.47
1.5
1.56
1.605
1.595
1.6
1.595
1.55
1.475
1.465
1.44
1.465
1.51
1.55
1.575
1.59
1.55
1.52
1.47
1.445
1.42
1.46
1.505
1.575
1.575
1.595
1.55
1.52
1.45
1.45
1.405
1.435
1.51
1.565
1.575
1.58
1.555
1.485
1.44
1.395
1.405
1.425
1.47
1.53
1.55
1.54
1.515
1.465
1.425
1.38
1.365
1.4
1.45
1.495
1.52
1.525
1.47
1.43
1.38
1.36
1.34
1.39
1.45
1.475
1.485
1.485
1.45
1.4
1.31
1.285
1.295
1.355
1.405
1.445
1.455
1.46
1.43
1.345
1.3
1.28
1.265
1.33
1.39
1.455
1.465
1.445
1.395
1.305
1.28
1.255
1.24
1.285
1.36
1.395
1.395
1.37
1.33
1.245
1.21
1.195
1.195
1.225
1.28
1.325
1.33
1.3
1.26
1.18
1.145
1.11
1.125
1.18
1.265
1.255
1.295
1.265
1.2
1.125
1.095
1.065
1.07
1.115
1.17
1.18
1.21
1.18
1.12
1.065
1.08
1.11
1.21
1.33
1.46
1.54
1.635
1.62
1.525
1.355
1.205
1.135
1.135
1.14
1.11
1.0
0.94
0.88
0.82
0.755
0.755
0.73
0.75
0.825
0.915
0.97
1.02
1.01
0.955
0.895
0.905
0.895
0.95
1.0
1.05
1.065
1.085
1.075
1.0
0.93
0.905
0.9
0.91
0.98
1.05
1.065
1.06
1.01
0.945
0.9
0.885
0.885
0.895
0.96
1.02
1.03
1.045
1.005
0.935
0.87
0.85
0.84
0.885
0.945
1.005
1.04
1.03
0.975
0.9
0.855
0.835
0.84
0.88
0.945
0.98
1.01
1.02
0.98
0.915
0.88
0.875
0.87
0.925
1.02
1.05
1.07
1.075
1.03
0.965
0.945
0.91
0.92
0.975
1.055
1.09
1.11
1.1
1.05
0.965
0.895
0.88
0.885
0.91
1.005
1.01
1.015
1.0
0.93
0.85
0.81
0.76
0.745
0.79
0.855
0.88
0.87
0.835
0.775
0.675
0.625
0.595
0.59
0.625
0.695
0.725
0.74
0.705
0.645
0.56
0.515
0.49
0.505
0.55
0.635
0.655
0.655
0.635
0.56
0.48
0.46
0.435
0.435
0.495
0.565
0.59
0.615
0.59
0.525
0.445
0.45
0.41
0.44
0.485
0.565
0.58
0.58
0.56
0.505
0.42
0.39
0.375
0.395
0.46
0.53
0.545
0.535
0.505
0.46
0.395
0.37
0.345
0.36
0.425
0.495
0.5
0.52
0.49
0.41
0.34
0.3
0.3
0.335
0.385
0.455
0.475
0.47
0.44
0.37
0.31
0.28
0.275
0.3
0.37
0.425
0.44
0.44
0.405
0.37
0.27
0.245
0.24
0.28
0.34
0.4
0.415
0.43
0.385
0.31
0.25
0.225
0.235
0.26
0.325
0.375
0.375
0.37
0.31
0.255
0.205
0.18
0.18
0.225
0.28
0.32
0.31
0.33
0.265
0.19
0.12
0.12
0.105
0.145
0.225
0.24
0.255
0.255
0.215
0.135
0.08
0.055
0.05
0.125
0.16
0.21
0.23
0.22
0.165
0.085
0.05
0.04
0.01
0.045
0.1
0.135
0.15
0.135
0.095
0.005
0.01
0.05
0.13
0.27
0.41
0.495
0.605
0.635
0.565
0.405
0.275
0.14
0.11
0.115
0.1
0.02
-0.095
-0.2
-0.24
-0.3
-0.31
-0.305
-0.265
-0.21
-0.14
-0.07
-0.01
0.0
-0.045
-0.105
-0.11
-0.11
-0.095
-0.02
0.05
0.075
0.115
0.075
0.015
-0.06
-0.09
-0.105
-0.08
-0.02
0.055
0.06
0.08
0.03
-0.025
-0.095
-0.105
-0.13
-0.09
-0.02
0.045
0.055
0.06
0.025
-0.03
-0.085
-0.11
-0.13
-0.09
-0.045
0.03
0.04
0.065
0.015
-0.045
-0.1
-0.115
-0.135
-0.1
-0.015
0.045
0.06
0.08
0.055
-0.01
-0.07
-0.085
-0.08
-0.035
0.03
0.1
0.12
0.135
0.1
0.035
0.005
-0.005
0.0
0.04
0.12
0.16
0.19
0.19
0.15
0.075
0.015
0.0
0.0
0.025
0.07
0.135
0.145
0.135
0.08
-0.015
-0.07
-0.095
-0.11
-0.075
-0.02
-0.02
0.005
0.005
-0.075
-0.16
-0.205
-0.25
-0.27
-0.23
-0.145
-0.155
-0.135
-0.14
-0.2
-0.285
-0.32
-0.335
-0.34
-0.29
-0.245
-0.235
-0.21
-0.225
-0.275
-0.34
-0.365
-0.385
-0.39
-0.35
-0.285
-0.245
-0.225
-0.25
-0.305
-0.37
-0.405
-0.435
-0.425
-0.38
-0.285
-0.27
-0.255
-0.28
-0.325
-0.37
-0.42
-0.44
-0.41
-0.36
-0.285
-0.28
-0.26
-0.275
-0.33
-0.405
-0.415
-0.445
-0.405
-0.38
-0.315
-0.295
-0.27
-0.295
-0.35
-0.435
-0.46
-0.47
-0.46
-0.4
-0.35
-0.31
-0.295
-0.325
-0.38
-0.45
-0.47
-0.465
-0.455
-0.43
-0.365
-0.34
-0.31
-0.35
-0.39
-0.475
-0.485
-0.515
-0.485
-0.435
-0.355
-0.33
-0.32
-0.36
-0.415
-0.465
-0.485
-0.48
-0.475
-0.425
-0.365
-0.36
-0.335
-0.375
-0.425
-0.485
-0.485
-0.505
-0.49
-0.405
-0.375
-0.36
-0.365
-0.4
-0.47
-0.51
-0.55
-0.555
-0.53
-0.47
-0.42
-0.41
-0.425
-0.455
-0.535
-0.575
-0.58
-0.595
-0.565
-0.52
-0.48
-0.45
-0.445
-0.5
-0.55
-0.59
-0.595
-0.615
-0.565
-0.53
-0.485
-0.455
-0.47
-0.53
-0.62
-0.655
-0.67
-0.675
-0.655
-0.6
-0.535
-0.455
-0.365
-0.325
-0.33
-0.275
-0.205
-0.115
-0.06
-0.005
-0.07
-0.195
-0.28
-0.375
-0.5
-0.615
-0.755
-0.91
-0.92
-0.86
-0.815
-0.765
-0.74
-0.78
-0.82
-0.815
-0.8
-0.765
-0.715
-0.62
-0.59
-0.525
-0.535
-0.575
-0.635
-0.655
-0.685
-0.67
-0.615
-0.56
-0.54
-0.51
-0.525
-0.575
-0.64
-0.65
-0.665
-0.66
-0.605
-0.525
-0.535
-0.52
-0.54
-0.58
-0.635
-0.655
-0.665
-0.645
-0.59
-0.535
-0.51
-0.505
-0.51
-0.555
-0.625
-0.615
-0.635
-0.615
-0.595
-0.525
-0.505
-0.495
-0.51
-0.565
-0.6
-0.605
-0.61
-0.595
-0.535
-0.485
-0.435
-0.425
-0.435
-0.48
-0.53
-0.53
-0.535
-0.53
-0.45
-0.395
-0.37
-0.335
-0.375
-0.41
-0.47
-0.445
-0.47
-0.44
-0.4
-0.35
-0.33
-0.335
-0.37
-0.425
-0.45
-0.485
-0.49
-0.455
-0.43
-0.39
-0.375
-0.4
-0.465
-0.515
-0.57
-0.6
-0.595
-0.6
-0.58
-0.55
-0.555
-0.535
-0.595
-0.64
-0.69
-0.705
-0.725
-0.71
-0.67
-0.645
-0.63
-0.64
-0.665
-0.705
-0.735
-0.77
-0.79
-0.745
-0.705
-0.665
-0.65
-0.65
-0.695
-0.76
-0.765
-0.795
-0.8
-0.77
-0.73
-0.685
-0.665
-0.685
-0.71
-0.765
-0.775
-0.78
-0.775
-0.755
-0.7
-0.675
-0.655
-0.665
-0.685
-0.75
-0.77
-0.775
-0.795
-0.765
-0.7
-0.69
-0.665
-0.665
-0.715
-0.765
-0.76
-0.79
-0.79
-0.765
-0.715
-0.705
-0.69
-0.7
-0.74
-0.8
-0.795
-0.83
-0.825
-0.775
-0.715
-0.715
-0.705
-0.7
-0.755
-0.8
-0.795
-0.825
-0.82
-0.79
-0.74
-0.72
-0.705
-0.725
-0.775
-0.81
-0.81
-0.855
-0.84
-0.8
-0.745
-0.735
-0.71
-0.72
-0.765
-0.815
-0.82
-0.825
-0.815
-0.78
-0.735
-0.7
-0.685
-0.7
-0.755
-0.78
-0.795
-0.825
-0.81
-0.785
-0.72
-0.71
-0.695
-0.705
-0.735
-0.795
-0.81
-0.845
-0.825
-0.795
-0.755
-0.75
-0.745
-0.775
-0.85
-0.855
-0.88
-0.89
-0.87
-0.83
-0.805
-0.78
-0.775
-0.815
-0.86
-0.895
-0.91
-0.92
-0.895
-0.85
-0.82
-0.82
-0.805
-0.83
-0.875
-0.895
-0.905
-0.915
-0.905
-0.84
-0.825
-0.83
-0.86
-0.9
-0.935
-0.97
-0.97
-0.955
-0.88
-0.775
-0.645
-0.545
-0.47
-0.415
-0.4
-0.37
-0.42
-0.47
-0.56
-0.6
-0.62
-0.68
-0.79
-0.955
-1.12
-1.17
-1.18
-1.19
-1.13
-1.095
-1.055
-1.025
-1.0
-1.0
-1.01
-0.995
-1.0
-0.995
-0.95
-0.88
-0.84
-0.815
-0.82
-0.85
-0.93
-0.92
-0.93
-0.92
-0.865
-0.835
-0.81
-0.78
-0.805
-0.86
-0.89
-0.89
-0.915
-0.905
-0.865
-0.815
-0.815
-0.78
-0.785
-0.815
-0.865
-0.88
-0.915
-0.9
-0.855
-0.785
-0.78
-0.755
-0.785
-0.815
-0.86
-0.875
-0.88
-0.87
-0.84
-0.785
-0.75
-0.73
-0.725
-0.775
-0.81
-0.815
-0.815
-0.805
-0.755
-0.705
-0.67
-0.645
-0.675
-0.705
-0.74
-0.745
-0.745
-0.715
-0.665
-0.625
-0.595
-0.565
-0.605
-0.63
-0.665
-0.69
-0.69
-0.675
-0.655
-0.59
-0.575
-0.58
-0.615
-0.665
-0.705
-0.72
-0.745
-0.74
-0.7
-0.66
-0.655
-0.67
-0.7
-0.76
-0.8
-0.84
-0.855
-0.86
-0.83
-0.81
-0.8
-0.785
-0.825
-0.865
-0.915
-0.93
-0.955
-0.92
-0.89
-0.865
-0.85
-0.85
-0.89
-0.935
-0.95
-0.98
-1.005
-0.97
-0.945
-0.9
-0.88
-0.85
-0.895
-0.95
-0.975
-0.98
-1.005
-0.97
-0.915
-0.89
-0.875
-0.885
-0.905
-0.935
-0.975
-0.995
-0.97
-0.955
-0.895
-0.89
-0.86
-0.855
-0.9
-0.95
-0.965
-0.98
-0.98
-0.94
-0.905
-0.875
-0.86
-0.87
-0.915
-0.95
-0.97
-0.99
-0.99
-0.945
-0.9
-0.89
-0.875
-0.89
-0.945
-0.975
-1.0
-1.015
-1.015
-0.955
-0.89
-0.89
-0.885
-0.91
-0.93
-0.985
-0.995
-1.03
-1.015
-0.96
-0.925
-0.91
-0.895
-0.905
-0.945
-1.0
-1.0
-1.03
-1.02
-0.985
-0.945
-0.93
-0.9
-0.915
-0.96
-1.015
-1.01
-1.03
-1.045
-0.985
-0.935
-0.915
-0.885
-0.92
-0.965
-1.01
-1.01
-1.04
-1.015
-0.97
-0.915
-0.92
-0.89
-0.91
-0.945
-0.965
-0.98
-1.005
-0.98
-0.945
-0.91
-0.905
-0.88
-0.9
-0.93
-0.98
-1.015
-1.02
-1.005
-0.95
-0.89
-0.89
-0.88
-0.935
-0.975
-1.02
-1.035
-1.05
-1.035
-0.995
-0.96
-0.945
-0.925
-0.965
-1.03
-1.065
-1.075
-1.08
-1.04
-1.005
-0.98
-0.945
-0.945
-0.965
-1.025
-1.065
-1.065
-1.09
-1.07
-1.005
-0.98
-0.945
-0.945
-0.975
-1.065
-1.095
-1.12
-1.145
-1.115
-1.06
-1.05
-1.035
-0.99
-0.97
-0.955
-0.905
-0.83
-0.785
-0.66
-0.525
-0.48
-0.5
-0.57
-0.725
-0.83
-0.875
-0.97
-1.085
-1.195
-1.24
-1.24
-1.2
-1.195
-1.23
-1.27
-1.27
-1.3
-1.26
-1.205
-1.11
-1.08
-1.045
-1.015
-1.03
-1.085
-1.095
-1.11
-1.08
-1.045
-0.97
-0.955
-0.945
-0.955
-1.0
-1.055
-1.055
-1.085
-1.07
-1.035
-0.965
-0.935
-0.91
-0.93
-0.975
-1.04
-1.055
-1.075
-1.045
-1.01
-0.94
-0.935
-0.92
-0.92
-0.975
-1.03
-1.055
-1.055
-1.055
-1.0
-0.955
-0.915
-0.9
-0.925
-0.965
-1.015
-1.025
-1.04
-1.015
-0.95
-0.89
-0.86
-0.855
-0.875
-0.915
-0.95
-0.96
-0.97
-0.935
-0.88
-0.815
-0.785
-0.765
-0.795
-0.84
-0.88
-0.885
-0.895
-0.855
-0.795
-0.755
-0.735
-0.715
-0.735
-0.795
-0.86
-0.875
-0.895
-0.86
-0.82
-0.78
-0.755
-0.75
-0.8
-0.865
-0.935
-0.96
-0.97
-0.97
-0.915
-0.87
-0.865
-0.88
-0.93
-1.01
-1.07
-1.095
-1.11
-1.08
-1.02
-0.985
-0.96
-0.96
-1.025
-1.09
-1.125
-1.125
-1.15
-1.105
-1.07
-1.03
-1.0
-1.02
-1.055
-1.12
-1.14
-1.165
-1.165
-1.12
-1.065
-1.02
-1.03
-1.035
-1.07
-1.14
-1.15
-1.18
-1.18
-1.125
-1.065
-1.04
-1.01
-1.005
-1.055
-1.115
-1.135
-1.165
-1.16
-1.11
-1.055
-1.01
-1.015
-1.025
-1.055
-1.125
-1.14
-1.155
-1.165
-1.115
-1.035
-1.015
-0.995
-1.01
-1.045
-1.125
-1.145
-1.16
-1.145
-1.12
-1.025
-1.01
-0.98
-1.015
-1.07
-1.125
-1.15
-1.18
-1.16
-1.095
-1.025
-1.025
-1.0
-1.04
-1.09
-1.155
-1.15
-1.175
-1.16
-1.115
-1.055
-1.025
-1.01
-1.04
-1.09
-1.15
-1.14
-1.175
-1.155
-1.105
-1.05
-1.03
-1.015
-1.03
-1.09
-1.13
-1.15
-1.18
-1.15
-1.1
-1.04
-1.025
-0.995
-1.025
-1.075
-1.13
-1.135
-1.14
-1.105
-1.07
-1.025
-1.005
-0.985
-1.025
-1.07
-1.13
-1.135
-1.15
-1.13
-1.08
-1.005
-0.99
-0.995
-1.035
-1.105
-1.145
-1.175
-1.2
-1.165
-1.095
-1.05
-1.05
-1.03
-1.075
-1.135
-1.175
-1.195
-1.22
-1.17
-1.12
-1.06
-1.05
-1.055
-1.09
-1.145
-1.175
-1.2
-1.2
-1.155
-1.105
-1.045
-1.02
-1.035
-1.1
-1.165
-1.215
-1.245
-1.25
-1.215
-1.14
-1.115
-1.115
-1.115
-1.11
-1.125
-1.075
-0.995
-0.935
-0.825
-0.67
-0.58
-0.58
-0.64
-0.805
-0.945
-1.0
-1.07
-1.15
-1.22
-1.265
-1.335
-1.285
-1.29
-1.335
-1.385
-1.375
-1.415
-1.395
-1.325
-1.22
-1.17
-1.14
-1.12
-1.14
-1.225
-1.225
-1.22
-1.2
-1.17
-1.08
-1.07
-1.04
-1.055
-1.085
-1.175
-1.175
-1.2
-1.185
-1.12
-1.055
-1.03
-1.02
-1.045
-1.075
-1.15
-1.17
-1.185
-1.165
-1.11
-1.045
-1.02
-0.99
-1.02
-1.07
-1.135
-1.15
-1.17
-1.14
-1.085
-1.02
-0.985
-0.98
-1.0
-1.065
-1.1
-1.1
-1.14
-1.085
-1.03
-0.965
-0.95
-0.93
-0.95
-1.005
-1.07
-1.07
-1.085
-1.02
-0.96
-0.895
-0.855
-0.845
-0.875
-0.905
-0.975
-0.975
-0.985
-0.94
-0.86
-0.81
-0.805
-0.785
-0.81
-0.885
-0.915
-0.955
-0.98
-0.93
-0.87
-0.825
-0.805
-0.805
-0.855
-0.94
-0.995
-0.985
-1.035
-1.01
-0.97
-0.94
-0.93
-0.925
-0.97
-1.04
-1.09
-1.14
-1.145
-1.12
-1.065
-1.04
-1.005
-1.015
-1.065
-1.13
-1.165
-1.185
-1.19
-1.16
-1.105
-1.085
-1.06
-1.075
-1.085
-1.175
-1.22
-1.235
-1.23
-1.18
-1.1
-1.085
-1.045
-1.055
-1.085
-1.175
-1.195
-1.215
-1.205
-1.15
-1.085
-1.06
-1.045
-1.05
-1.105
-1.175
-1.2
-1.215
-1.195
-1.145
-1.075
-1.04
-1.015
-1.035
-1.085
-1.155
-1.17
-1.19
-1.175
-1.14
-1.045
-1.015
-1.0
-1.03
-1.09
-1.145
-1.17
-1.205
-1.18
-1.13
-1.045
-1.03
-1.005
-1.04
-1.085
-1.175
-1.185
-1.205
-1.19
-1.135
-1.05
-1.045
-1.02
-1.055
-1.085
-1.165
-1.2
-1.2
-1.195
-1.135
-1.04
-1.03
-1.015
-1.035
-1.115
-1.16
-1.175
-1.19
-1.165
-1.105
-1.05
-1.045
-1.005
-1.02
-1.075
-1.155
-1.17
-1.175
-1.155
-1.085
-1.02
-0.995
-0.96
-1.01
-1.075
-1.14
-1.17
-1.17
-1.125
-1.06
-1.0
-0.985
-0.98
-1.015
-1.09
-1.135
-1.145
-1.16
-1.12
-1.085
-1.035
-1.01
-1.0
-1.045
-1.115
-1.155
-1.18
-1.18
-1.145
-1.09
-1.06
-1.03
-1.03
-1.075
-1.15
-1.18
-1.215
-1.21
-1.17
-1.1
-1.045
-1.025
-1.015
-1.07
-1.145
-1.18
-1.215
-1.205
-1.155
-1.08
-1.045
-1.06
-1.06
-1.105
-1.195
-1.195
-1.255
-1.245
-1.17
-1.05
-0.95
-0.835
-0.765
-0.75
-0.74
-0.685
-0.665
-0.7
-0.76
-0.8
-0.855
-0.855
-0.925
-1.06
-1.255
-1.43
-1.485
-1.465
-1.42
-1.3
-1.255
-1.225
-1.245
-1.27
-1.31
-1.295
-1.305
-1.26
-1.185
-1.085
-1.055
-1.025
-1.02
-1.075
-1.15
-1.17
-1.195
-1.165
-1.12
-1.01
-1.01
-0.985
-0.975
-1.05
-1.13
-1.14
-1.15
-1.13
-1.065
-0.99
-0.98
-0.945
-0.98
-1.04
-1.095
-1.105
-1.13
-1.105
-1.05
-0.97
-0.94
-0.93
-0.945
-1.005
-1.07
-1.1
-1.1
-1.07
-1.005
-0.945
-0.925
-0.88
-0.915
-0.965
-1.035
-1.035
-1.055
-1.01
-0.945
-0.875
-0.845
-0.83
-0.825
-0.89
-0.95
-0.965
-0.96
-0.915
-0.845
-0.76
-0.745
-0.725
-0.77
-0.815
-0.865
-0.89
-0.9
-0.84
-0.77
-0.735
-0.725
-0.71
-0.75
-0.84
-0.865
-0.895
-0.915
-0.885
-0.825
-0.795
-0.785
-0.79
-0.84
-0.905
-0.975
-1.03
-1.03
-0.985
-0.935
-0.91
-0.905
-0.895
-0.955
-1.035
-1.09
-1.125
-1.115
-1.09
-1.0
-0.97
-0.945
-0.97
-1.02
-1.08
-1.135
-1.16
-1.16
-1.115
-1.04
-1.015
-0.995
-0.995
-1.05
-1.12
-1.16
-1.175
-1.165
-1.115
-1.04
-1.025
-1.01
-0.995
-1.04
-1.12
-1.135
-1.165
-1.145
-1.105
-1.02
-1.0
-0.99
-0.97
-1.02
-1.1
-1.14
-1.165
-1.14
-1.095
-1.025
-0.985
-0.965
-0.985
-1.045
-1.145
-1.15
-1.155
-1.145
-1.08
-1.01
-0.975
-0.975
-1.0
-1.055
-1.15
-1.16
-1.17
-1.17
-1.105
-1.015
-1.005
-0.995
-1.005
-1.06
-1.155
-1.17
-1.17
-1.16
-1.105
-1.04
-1.005
-1.01
-1.02
-1.095
-1.17
-1.185
-1.195
-1.16
-1.095
-1.035
-1.01
-1.0
-1.045
-1.09
-1.155
-1.19
-1.19
-1.16
-1.11
-1.03
-1.005
-0.985
-1.035
-1.075
-1.14
-1.15
-1.165
-1.14
-1.05
-1.005
-0.955
-0.965
-1.01
-1.08
-1.13
-1.14
-1.135
-1.1
-1.035
-0.98
-0.965
-0.955
-0.99
-1.085
-1.14
-1.15
-1.155
-1.12
-1.07
-1.035
-1.0
-1.0
-1.05
-1.13
-1.175
-1.2
-1.2
-1.18
-1.09
-1.045
-1.02
-1.015
-1.06
-1.13
-1.16
-1.195
-1.21
-1.155
-1.065
-1.035
-1.03
-1.04
-1.075
-1.155
-1.18
-1.21
-1.225
-1.19
-1.125
-1.105
-1.085
-1.085
-1.14
-1.195
-1.175
-1.15
-1.065
-0.925
-0.77
-0.66
-0.55
-0.485
-0.54
-0.695
-0.84
-1.015
-1.05
-1.03
-1.055
-1.14
-1.26
-1.37
-1.4
-1.45
-1.455
-1.465
-1.445
-1.375
-1.27
-1.22
-1.15
-1.14
-1.165
-1.245
-1.24
-1.245
-1.21
-1.155
-1.065
-1.05
-1.035
-1.05
-1.08
-1.145
-1.165
-1.195
-1.19
-1.125
-1.05
-1.03
-0.99
-1.015
-1.085
-1.15
-1.155
-1.175
-1.145
-1.095
-1.025
-1.0
-0.985
-0.985
-1.045
-1.125
-1.15
-1.135
-1.115
-1.06
-1.0
-0.965
-0.95
-0.985
-1.035
-1.075
-1.105
-1.115
-1.07
-1.01
-0.955
-0.93
-0.915
-0.91
-0.975
-1.045
-1.065
-1.05
-0.995
-0.93
-0.865
-0.835
-0.82
-0.845
-0.875
-0.94
-0.945
-0.95
-0.905
-0.83
-0.8
-0.76
-0.72
-0.755
-0.82
-0.875
-0.9
-0.91
-0.89
-0.815
-0.78
-0.75
-0.75
-0.795
-0.86
-0.905
-0.95
-0.965
-0.91
-0.875
-0.84
-0.815
-0.855
-0.91
-0.995
-1.045
-1.07
-1.095
-1.08
-1.025
-0.975
-0.95
-0.955
-1.02
-1.11
-1.145
-1.155
-1.175
-1.12
-1.05
-1.025
-1.005
-0.995
-1.085
-1.17
-1.19
-1.205
-1.2
-1.155
-1.08
-1.05
-1.02
-1.005
-1.065
-1.155
-1.2
-1.22
-1.205
-1.16
-1.075
-1.05
-0.99
-1.02
-1.065
-1.15
-1.165
-1.185
-1.19
-1.13
-1.05
-1.025
-1.005
-1.01
-1.06
-1.15
-1.17
-1.18
-1.165
-1.105
-1.01
-1.015
-0.98
-0.985
-1.06
-1.135
-1.17
-1.17
-1.17
-1.115
-1.04
-1.01
-0.985
-1.005
-1.08
-1.155
-1.16
-1.19
-1.155
-1.1
-1.03
-1.02
-1.0
-1.03
-1.06
-1.15
-1.175
-1.185
-1.16
-1.105
-1.04
-1.015
-0.995
-1.035
-1.08
-1.145
-1.15
-1.195
-1.165
-1.095
-1.03
-1.01
-0.985
-1.02
-1.09
-1.155
-1.155
-1.17
-1.135
-1.065
-0.995
-0.975
-0.95
-1.0
-1.04
-1.105
-1.12
-1.13
-1.1
-1.04
-0.98
-0.935
-0.945
-0.98
-1.04
-1.095
-1.105
-1.12
-1.09
-1.03
-0.98
-0.96
-0.965
-0.995
-1.065
-1.135
-1.16
-1.18
-1.125
-1.055
-1.015
-0.985
-0.975
-1.01
-1.085
-1.155
-1.175
-1.17
-1.125
-1.045
-1.015
-0.99
-1.005
-1.04
-1.11
-1.15
-1.165
-1.185
-1.135
-1.05
-1.015
-0.99
-0.99
-1.03
-1.13
-1.175
-1.195
-1.205
-1.16
-1.075
-1.065
-0.97
-0.925
-0.89
-0.885
-0.84
-0.755
-0.67
-0.525
-0.43
-0.465
-0.53
-0.715
-0.81
-0.955
-1.07
-1.19
-1.31
-1.39
-1.335
-1.28
-1.265
-1.235
-1.275
-1.315
-1.325
-1.32
-1.245
-1.19
-1.1
-1.04
-0.99
-1.005
-1.045
-1.095
-1.115
-1.145
-1.11
-1.06
-0.97
-0.955
-0.92
-0.945
-1.01
-1.075
-1.095
-1.115
-1.075
-1.04
-0.93
-0.925
-0.9
-0.92
-0.95
-1.045
-1.055
-1.06
-1.045
-0.99
-0.915
-0.885
-0.875
-0.9
-0.935
-1.01
-1.025
-1.035
-1.01
-0.945
-0.855
-0.835
-0.82
-0.865
-0.915
-0.98
-0.98
-0.99
-0.97
-0.885
-0.81
-0.785
-0.755
-0.795
-0.845
-0.895
-0.92
-0.92
-0.86
-0.8
-0.695
-0.685
-0.67
-0.72
-0.755
-0.79
-0.81
-0.8
-0.745
-0.69
-0.63
-0.61
-0.6
-0.64
-0.7
-0.765
-0.79
-0.795
-0.75
-0.685
-0.645
-0.615
-0.625
-0.675
-0.75
-0.825
-0.86
-0.86
-0.845
-0.785
-0.74
-0.74
-0.77
-0.81
-0.895
-0.955
-0.99
-0.985
-0.955
-0.89
-0.86
-0.83
-0.83
-0.885
-0.955
-0.99
-1.025
-1.035
-0.985
-0.89
-0.855
-0.83
-0.84
-0.89
-0.95
-0.985
-1.015
-1.005
-0.97
-0.89
-0.865
-0.835
-0.86
-0.905
-0.97
-0.995
-1.005
-1.005
-0.955
-0.875
-0.845
-0.82
-0.84
-0.87
-0.97
-1.0
-0.995
-0.995
-0.92
-0.845
-0.83
-0.8
-0.805
-0.86
-0.95
-0.955
-1.01
-0.985
-0.92
-0.86
-0.82
-0.795
-0.835
-0.88
-0.95
-0.985
-1.0
-0.96
-0.915
-0.86
-0.825
-0.795
-0.835
-0.875
-0.96
-0.975
-0.99
-0.97
-0.93
-0.87
-0.845
-0.82
-0.845
-0.89
-0.98
-0.99
-0.995
-0.96
-0.9
-0.845
-0.815
-0.795
-0.82
-0.875
-0.945
-0.965
-0.98
-0.955
-0.89
-0.815
-0.81
-0.775
-0.8
-0.865
-0.92
-0.94
-0.945
-0.92
-0.85
-0.775
-0.775
-0.77
-0.81
-0.88
-0.895
-0.935
-0.925
-0.895
-0.825
-0.79
-0.76
-0.755
-0.785
-0.865
-0.92
-0.965
-0.95
-0.9
-0.865
-0.82
-0.79
-0.79
-0.835
-0.925
-0.97
-0.995
-0.995
-0.95
-0.85
-0.81
-0.815
-0.785
-0.835
-0.91
-0.945
-0.965
-0.975
-0.92
-0.86
-0.815
-0.795
-0.805
-0.845
-0.94
-0.975
-1.01
-1.015
-0.965
-0.915
-0.88
-0.865
-0.855
-0.84
-0.835
-0.78
-0.74
-0.655
-0.535
-0.355
-0.305
-0.325
-0.425
-0.605
-0.725
-0.79
-0.885
-0.995
-1.075
-1.115
-1.095
-1.05
-1.055
-1.095
-1.165
-1.195
-1.2
-1.155
-1.06
-0.945
-0.905
-0.875
-0.855
-0.895
-0.925
-0.97
-0.97
-0.96
-0.88
-0.785
-0.75
-0.74
-0.755
-0.805
-0.89
-0.905
-0.915
-0.9
-0.86
-0.785
-0.76
-0.715
-0.74
-0.82
-0.885
-0.91
-0.925
-0.88
-0.83
-0.75
-0.73
-0.705
-0.72
-0.765
-0.85
-0.86
-0.89
-0.845
-0.77
-0.71
-0.695
-0.675
-0.7
-0.735
-0.79
-0.81
-0.82
-0.8
-0.73
-0.655
-0.625
-0.6
-0.64
-0.685
-0.735
-0.755
-0.75
-0.71
-0.62
-0.56
-0.525
-0.515
-0.535
-0.58
-0.64
-0.645
-0.64
-0.605
-0.535
-0.465
-0.46
-0.445
-0.485
-0.535
-0.575
-0.6
-0.625
-0.6
-0.53
-0.49
-0.46
-0.45
-0.51
-0.585
-0.65
-0.69
-0.69
-0.67
-0.6
-0.565
-0.555
-0.56
-0.615
-0.7
-0.765
-0.79
-0.795
-0.765
-0.71
-0.665
-0.635
-0.65
-0.695
-0.78
-0.81
-0.835
-0.82
-0.785
-0.725
-0.69
-0.665
-0.645
-0.715
-0.79
-0.83
-0.86
-0.835
-0.79
-0.73
-0.685
-0.65
-0.66
-0.71
-0.785
-0.81
-0.84
-0.82
-0.78
-0.705
-0.67
-0.63
-0.625
-0.685
-0.77
-0.81
-0.82
-0.805
-0.74
-0.67
-0.64
-0.595
-0.605
-0.67
-0.76
-0.775
-0.795
-0.76
-0.715
-0.635
-0.625
-0.59
-0.585
-0.645
-0.73
-0.76
-0.785
-0.755
-0.71
-0.625
-0.605
-0.56
-0.595
-0.625
-0.715
-0.735
-0.76
-0.74
-0.695
-0.61
-0.585
-0.56
-0.575
-0.655
-0.725
-0.74
-0.745
-0.725
-0.675
-0.58
-0.555
-0.55
-0.59
-0.62
-0.685
-0.715
-0.74
-0.695
-0.64
-0.56
-0.55
-0.53
-0.555
-0.605
-0.675
-0.68
-0.69
-0.655
-0.61
-0.535
-0.505
-0.5
-0.545
-0.605
-0.645
-0.675
-0.68
-0.625
-0.555
-0.51
-0.5
-0.485
-0.51
-0.58
-0.655
-0.68
-0.68
-0.66
-0.575
-0.53
-0.49
-0.485
-0.545
-0.61
-0.665
-0.695
-0.7
-0.66
-0.585
-0.525
-0.505
-0.515
-0.54
-0.62
-0.66
-0.665
-0.67
-0.625
-0.55
-0.5
-0.47
-0.49
-0.53
-0.6
-0.655
-0.685
-0.695
-0.66
-0.59
-0.55
-0.54
-0.485
-0.49
-0.495
-0.45
-0.415
-0.32
-0.175
-0.04
0.015
-0.015
-0.125
-0.305
-0.385
-0.46
-0.565
-0.655
-0.74
-0.76
-0.71
-0.685
-0.685
-0.715
-0.795
-0.815
-0.835
-0.79
-0.695
-0.585
-0.54
-0.495
-0.475
-0.505
-0.57
-0.585
-0.595
-0.58
-0.505
-0.425
-0.415
-0.4
-0.405
-0.43
-0.525
-0.535
-0.55
-0.535
-0.47
-0.4
-0.37
-0.35
-0.35
-0.42
-0.5
-0.505
-0.525
-0.505
-0.46
-0.35
-0.35
-0.32
-0.335
-0.385
-0.465
-0.465
-0.505
-0.47
-0.42
-0.33
-0.31
-0.28
-0.295
-0.335
-0.41
-0.435
-0.45
-0.42
-0.345
-0.26
-0.225
-0.21
-0.235
-0.29
-0.34
-0.355
-0.36
-0.33
-0.225
-0.165
-0.145
-0.115
-0.14
-0.205
-0.265
-0.285
-0.28
-0.215
-0.15
-0.095
-0.07
-0.045
-0.085
-0.13
-0.215
-0.225
-0.24
-0.185
-0.145
-0.09
-0.075
-0.075
-0.12
-0.195
-0.255
-0.295
-0.285
-0.255
-0.21
-0.17
-0.175
-0.18
-0.22
-0.305
-0.355
-0.4
-0.405
-0.365
-0.315
-0.275
-0.245
-0.26
-0.305
-0.38
-0.415
-0.455
-0.455
-0.41
-0.345
-0.295
-0.28
-0.275
-0.335
-0.4
-0.445
-0.475
-0.465
-0.425
-0.35
-0.305
-0.275
-0.27
-0.33
-0.39
-0.43
-0.465
-0.47
-0.4
-0.335
-0.28
-0.28
-0.255
-0.305
-0.375
-0.41
-0.43
-0.425
-0.37
-0.285
-0.265
-0.245
-0.25
-0.285
-0.375
-0.395
-0.415
-0.405
-0.345
-0.265
-0.245
-0.21
-0.22
-0.275
-0.35
-0.385
-0.41
-0.385
-0.335
-0.25
-0.21
-0.2
-0.225
-0.28
-0.355
-0.38
-0.4
-0.385
-0.335
-0.235
-0.215
-0.2
-0.225
-0.275
-0.36
-0.395
-0.41
-0.355
-0.305
-0.235
-0.215
-0.19
-0.225
-0.275
-0.355
-0.38
-0.395
-0.365
-0.3
-0.225
-0.205
-0.19
-0.2
-0.265
-0.325
-0.345
-0.38
-0.355
-0.285
-0.195
-0.17
-0.15
-0.195
-0.26
-0.335
-0.345
-0.355
-0.305
-0.235
-0.195
-0.185
-0.185
-0.22
-0.265
-0.335
-0.36
-0.375
-0.355
-0.285
-0.23
-0.215
-0.205
-0.26
-0.3
-0.355
-0.37
-0.39
-0.355
-0.315
-0.23
-0.19
-0.185
-0.24
-0.3
-0.36
-0.38
-0.365
-0.33
-0.265
-0.23
-0.21
-0.245
-0.275
-0.34
-0.375
-0.42
-0.41
-0.32
-0.195
-0.055
0.025
0.1
0.14
0.145
0.155
0.125
0.04
-0.06
-0.07
-0.06
-0.09
-0.185
-0.33
-0.56
-0.65
-0.645
-0.64
-0.575
-0.465
-0.415
-0.38
-0.38
-0.395
-0.425
-0.43
-0.435
-0.405
-0.34
-0.235
-0.19
-0.165
-0.18
-0.215
-0.295
-0.32
-0.355
-0.34
-0.28
-0.185
-0.175
-0.135
-0.15
-0.2
-0.285
-0.305
-0.315
-0.305
-0.24
-0.16
-0.155
-0.105
-0.135
-0.17
-0.235
-0.29
-0.285
-0.265
-0.21
-0.135
-0.105
-0.08
-0.095
-0.14
-0.215
-0.24
-0.265
-0.235
-0.195
-0.105
-0.085
-0.05
-0.08
-0.115
-0.185
-0.2
-0.215
-0.19
-0.11
-0.03
-0.02
0.03
0.015
-0.035
-0.1
-0.1
-0.105
-0.09
-0.005
0.08
0.11
0.125
0.11
0.055
-0.015
-0.04
-0.05
-0.01
0.055
0.12
0.135
0.15
0.11
0.045
-0.015
-0.055
-0.075
-0.055
0.01
0.055
0.065
0.07
0.01
-0.075
-0.14
-0.16
-0.195
-0.185
-0.11
-0.07
-0.065
-0.075
-0.1
-0.175
-0.23
-0.265
-0.265
-0.26
-0.185
-0.145
-0.135
-0.11
-0.165
-0.23
-0.295
-0.315
-0.33
-0.27
-0.21
-0.16
-0.15
-0.14
-0.2
-0.255
-0.29
-0.32
-0.325
-0.275
-0.21
-0.16
-0.145
-0.15
-0.18
-0.245
-0.315
-0.31
-0.3
-0.255
-0.195
-0.16
-0.135
-0.125
-0.175
-0.235
-0.26
-0.295
-0.28
-0.26
-0.19
-0.135
-0.115
-0.12
-0.16
-0.255
-0.27
-0.29
-0.295
-0.24
-0.175
-0.13
-0.09
-0.14
-0.175
-0.25
-0.285
-0.305
-0.295
-0.24
-0.155
-0.145
-0.105
-0.125
-0.185
-0.255
-0.27
-0.3
-0.255
-0.23
-0.135
-0.135
-0.12
-0.145
-0.19
-0.25
-0.265
-0.31
-0.27
-0.22
-0.15
-0.12
-0.105
-0.125
-0.18
-0.26
-0.27
-0.28
-0.24
-0.195
-0.13
-0.105
-0.105
-0.13
-0.18
-0.245
-0.27
-0.26
-0.25
-0.18
-0.11
-0.095
-0.065
-0.105
-0.175
-0.255
-0.265
-0.285
-0.255
-0.195
-0.135
-0.125
-0.105
-0.13
-0.21
-0.285
-0.31
-0.34
-0.29
-0.24
-0.165
-0.15
-0.14
-0.17
-0.225
-0.295
-0.31
-0.33
-0.295
-0.225
-0.17
-0.16
-0.13
-0.175
-0.23
-0.275
-0.315
-0.325
-0.33
-0.27
-0.245
-0.2
-0.205
-0.215
-0.235
-0.245
-0.18
-0.08
0.035
0.195
0.325
0.41
0.415
0.295
0.13
-0.07
-0.16
-0.18
-0.24
-0.275
-0.395
-0.475
-0.465
-0.495
-0.53
-0.545
-0.55
-0.52
-0.465
-0.345
-0.3
-0.22
-0.22
-0.215
-0.28
-0.33
-0.32
-0.315
-0.25
-0.19
-0.14
-0.115
-0.125
-0.155
-0.225
-0.28
-0.305
-0.275
-0.235
-0.165
-0.14
-0.085
-0.11
-0.135
-0.25
-0.27
-0.285
-0.26
-0.205
-0.13
-0.095
-0.07
-0.085
-0.14
-0.21
-0.225
-0.255
-0.225
-0.17
-0.1
-0.08
-0.025
-0.045
-0.11
-0.175
-0.205
-0.19
-0.18
-0.125
-0.06
-0.02
0.025
0.015
-0.035
-0.115
-0.115
-0.13
-0.105
-0.045
0.04
0.07
0.105
0.095
0.05
-0.015
-0.025
-0.035
0.01
0.075
0.15
0.17
0.2
0.18
0.125
0.06
0.035
0.015
0.04
0.11
0.165
0.185
0.195
0.165
0.1
0.02
0.0
-0.03
-0.035
0.025
0.075
0.075
0.095
0.045
-0.035
-0.115
-0.145
-0.155
-0.13
-0.085
-0.035
-0.04
-0.02
-0.06
-0.12
-0.19
-0.215
-0.235
-0.195
-0.13
-0.075
-0.06
-0.045
-0.11
-0.17
-0.215
-0.245
-0.25
-0.215
-0.145
-0.11
-0.07
-0.065
-0.095
-0.18
-0.24
-0.25
-0.235
-0.185
-0.135
-0.09
-0.06
-0.065
-0.085
-0.17
-0.205
-0.22
-0.215
-0.165
-0.1
-0.07
-0.045
-0.05
-0.08
-0.165
-0.19
-0.23
-0.215
-0.17
-0.065
-0.06
-0.03
-0.03
-0.08
-0.155
-0.185
-0.215
-0.215
-0.145
-0.095
-0.06
-0.005
-0.035
-0.095
-0.155
-0.18
-0.21
-0.2
-0.145
-0.08
-0.07
-0.03
-0.03
-0.08
-0.16
-0.21
-0.22
-0.185
-0.16
-0.06
-0.04
-0.02
-0.03
-0.075
-0.17
-0.175
-0.2
-0.175
-0.12
-0.055
