# TIPE ECG 2021 - ECG-ID Database v1.0.0 par Physionet
# [Numéro de la personne, Période d'échantillonnage, Prénom, Age, Sexe, Date de l'enregistrement]
[02, 0.002, Tammy, 23, F, 12.05.2005]
0.545
0.56
0.455
0.24
0.035
0.19
0.21
0.285
0.375
0.405
0.585
0.585
0.4
0.22
0.005
0.15
0.195
0.235
0.35
0.44
0.58
0.59
0.445
0.19
0.04
0.205
0.205
0.255
0.385
0.415
0.64
0.52
0.405
0.175
-0.015
0.225
0.255
0.325
0.41
0.39
0.62
0.57
0.41
0.225
0.035
0.255
0.26
0.34
0.455
0.415
0.625
0.5
0.435
0.165
0.135
0.255
0.24
0.325
0.42
0.395
0.635
0.535
0.435
0.175
0.1
0.225
0.22
0.3
0.415
0.405
0.565
0.44
0.405
0.13
0.11
0.21
0.27
0.3
0.41
0.46
0.605
0.395
0.355
0.09
0.1
0.205
0.26
0.285
0.37
0.465
0.57
0.415
0.325
0.075
0.195
0.22
0.21
0.335
0.42
0.47
0.585
0.425
0.335
-0.01
0.13
0.205
0.23
0.275
0.39
0.525
0.69
0.55
0.56
0.39
0.535
0.7
0.79
0.83
0.825
0.85
0.785
0.65
0.47
0.16
0.105
0.145
0.06
0.15
0.215
0.355
0.38
0.29
0.11
-0.105
0.055
0.145
0.215
0.305
0.315
0.595
0.59
0.43
0.305
0.04
0.195
0.255
0.27
0.425
0.445
0.6
0.6
0.435
0.265
0.05
0.22
0.21
0.275
0.45
0.4
0.68
0.645
0.49
0.265
0.035
0.235
0.265
0.31
0.46
0.485
0.645
0.605
0.455
0.265
0.04
0.265
0.265
0.33
0.405
0.475
0.725
0.62
0.49
0.295
0.06
0.265
0.275
0.37
0.51
0.495
0.69
0.605
0.52
0.29
0.14
0.325
0.275
0.34
0.495
0.515
0.76
0.65
0.47
0.295
0.225
0.345
0.345
0.45
0.52
0.555
0.81
0.665
0.57
0.335
0.245
0.4
0.435
0.46
0.54
0.55
0.835
0.73
0.635
0.375
0.305
0.355
0.485
0.58
0.65
0.68
0.795
0.695
0.59
0.35
0.41
0.42
0.47
0.53
0.635
0.665
0.815
0.675
0.575
0.31
0.36
0.39
0.4
0.425
0.535
0.625
0.735
0.515
0.45
0.155
0.23
0.32
0.365
0.405
0.47
0.53
0.64
0.51
0.425
0.12
0.165
0.23
0.225
0.37
0.46
0.56
0.66
0.45
0.375
0.085
0.21
0.23
0.27
0.355
0.48
0.54
0.58
0.445
0.32
0.025
0.225
0.245
0.25
0.39
0.435
0.585
0.57
0.47
0.275
0.075
0.23
0.265
0.305
0.34
0.395
0.565
0.645
0.46
0.265
0.02
0.195
0.205
0.29
0.435
0.48
0.575
0.59
0.47
0.215
0.015
0.25
0.215
0.305
0.41
0.46
0.635
0.575
0.43
0.235
-0.02
0.25
0.245
0.305
0.365
0.415
0.62
0.58
0.41
0.215
0.005
0.21
0.155
0.295
0.375
0.385
0.63
0.575
0.395
0.135
0.045
0.185
0.19
0.26
0.41
0.37
0.57
0.54
0.43
0.185
0.115
0.18
0.185
0.28
0.355
0.365
0.615
0.555
0.39
0.08
0.09
0.245
0.21
0.3
0.435
0.42
0.585
0.505
0.41
0.115
0.055
0.205
0.27
0.35
0.43
0.44
0.625
0.5
0.345
0.085
0.145
0.285
0.26
0.235
0.395
0.525
0.61
0.475
0.37
0.105
0.14
0.205
0.165
0.27
0.345
0.47
0.575
0.355
0.385
0.06
0.145
0.165
0.185
0.27
0.365
0.445
0.56
0.39
0.295
-0.025
0.12
0.16
0.23
0.28
0.38
0.495
0.495
0.38
0.245
-0.035
0.13
0.21
0.235
0.295
0.37
0.515
0.495
0.33
0.17
-0.08
0.09
0.17
0.175
0.31
0.31
0.55
0.53
0.49
0.435
0.245
0.475
0.615
0.72
0.79
0.795
0.875
0.67
0.485
0.275
0.01
0.1
0.075
0.04
0.09
0.085
0.36
0.335
0.19
0.015
-0.18
0.0
0.04
0.115
0.23
0.285
0.465
0.51
0.34
0.18
-0.05
0.14
0.155
0.2
0.295
0.35
0.54
0.455
0.335
0.165
-0.045
0.12
0.195
0.22
0.34
0.36
0.55
0.475
0.355
0.11
-0.02
0.205
0.165
0.185
0.355
0.385
0.575
0.485
0.39
0.105
0.01
0.165
0.2
0.305
0.35
0.385
0.585
0.51
0.39
0.14
0.08
0.22
0.215
0.26
0.39
0.395
0.63
0.505
0.445
0.11
0.105
0.215
0.24
0.27
0.415
0.46
0.665
0.495
0.48
0.12
0.17
0.255
0.26
0.325
0.465
0.51
0.69
0.525
0.46
0.16
0.245
0.285
0.345
0.415
0.5
0.655
0.695
0.545
0.48
0.205
0.285
0.335
0.35
0.43
0.56
0.65
0.72
0.59
0.48
0.195
0.29
0.355
0.41
0.455
0.47
0.64
0.7
0.58
0.39
0.13
0.245
0.29
0.3
0.445
0.435
0.57
0.605
0.49
0.245
0.0
0.155
0.16
0.14
0.29
0.39
0.515
0.49
0.295
0.19
-0.035
0.12
0.16
0.18
0.285
0.275
0.45
0.45
0.27
0.12
-0.09
0.12
0.135
0.125
0.27
0.335
0.495
0.425
0.29
0.105
-0.13
0.025
0.115
0.21
0.26
0.235
0.49
0.44
0.28
0.085
-0.12
0.04
0.055
0.115
0.275
0.29
0.505
0.42
0.235
0.06
-0.1
0.015
0.08
0.155
0.26
0.285
0.465
0.4
0.265
0.035
-0.11
0.07
0.11
0.15
0.22
0.265
0.45
0.385
0.23
-0.01
-0.07
0.03
0.035
0.09
0.305
0.255
0.485
0.37
0.215
-0.015
-0.01
0.06
0.055
0.135
0.275
0.275
0.44
0.31
0.215
-0.025
-0.05
0.045
0.075
0.135
0.22
0.29
0.445
0.31
0.16
-0.08
-0.02
0.06
0.065
0.105
0.205
0.29
0.405
0.325
0.21
-0.085
-0.07
0.0
0.03
0.195
0.215
0.335
0.425
0.32
0.145
-0.11
0.045
0.05
0.055
0.115
0.21
0.4
0.455
0.285
0.23
-0.11
-0.025
0.07
0.06
0.185
0.27
0.415
0.45
0.31
0.16
-0.085
-0.015
0.055
0.105
0.2
0.26
0.43
0.435
0.25
0.11
-0.185
0.01
0.04
0.085
0.12
0.185
0.39
0.425
0.21
0.05
-0.17
-0.01
0.0
0.025
0.165
0.195
0.37
0.345
0.18
0.015
-0.21
-0.03
-0.025
0.025
0.16
0.21
0.365
0.355
0.2
-0.04
-0.225
-0.05
-0.01
0.01
0.19
0.195
0.355
0.29
0.115
-0.06
-0.23
-0.045
-0.05
0.06
0.145
0.225
0.51
0.545
0.445
0.31
0.245
0.44
0.49
0.51
0.505
0.385
0.54
0.405
0.205
-0.085
-0.28
-0.175
-0.225
-0.18
-0.06
-0.01
0.19
0.115
-0.04
-0.195
-0.26
-0.115
-0.1
0.055
0.1
0.15
0.38
0.3
0.165
-0.115
-0.12
-0.025
0.0
0.08
0.205
0.235
0.375
0.28
0.21
-0.095
-0.01
-0.005
0.0
0.09
0.18
0.24
0.39
0.27
0.215
-0.07
-0.015
0.045
0.025
0.11
0.225
0.29
0.42
0.215
0.185
-0.115
-0.015
0.065
0.035
0.13
0.2
0.305
0.42
0.275
0.19
-0.125
-0.02
0.055
0.1
0.12
0.185
0.375
0.45
0.31
0.19
-0.05
0.085
0.065
0.1
0.18
0.315
0.435
0.43
0.305
0.235
-0.06
0.085
0.11
0.175
0.265
0.295
0.455
0.485
0.295
0.185
-0.06
0.13
0.17
0.17
0.33
0.315
0.53
0.525
0.38
0.17
-0.005
0.16
0.195
0.23
0.34
0.39
0.505
0.495
0.385
0.17
0.01
0.165
0.175
0.225
0.35
0.36
0.515
0.47
0.315
0.12
-0.08
0.13
0.11
0.15
0.265
0.235
0.485
0.385
0.18
0.02
-0.205
0.04
0.055
0.06
0.125
0.14
0.365
0.285
0.165
-0.095
-0.22
-0.085
-0.07
0.03
0.105
0.08
0.34
0.265
0.15
-0.075
-0.22
-0.065
-0.08
-0.005
0.105
0.125
0.305
0.265
0.13
-0.105
-0.21
-0.06
-0.085
-0.025
0.1
0.12
0.28
0.23
0.145
-0.105
-0.17
-0.13
-0.075
-0.035
0.105
0.13
0.38
0.175
0.11
-0.165
-0.165
-0.045
-0.075
0.0
0.08
0.165
0.31
0.145
0.09
-0.18
-0.13
-0.05
-0.055
-0.01
0.09
0.205
0.3
0.185
0.095
-0.185
-0.195
-0.125
-0.015
0.02
0.13
0.195
0.345
0.16
0.085
-0.23
-0.18
-0.11
-0.035
0.05
0.185
0.21
0.24
0.115
0.015
-0.275
-0.085
-0.105
-0.08
0.045
0.07
0.25
0.305
0.08
-0.02
-0.285
-0.14
-0.08
-0.075
0.03
0.06
0.285
0.255
0.13
-0.035
-0.275
-0.175
-0.08
-0.1
0.035
0.12
0.23
0.24
0.08
-0.065
-0.295
-0.155
-0.135
-0.11
0.055
0.14
0.27
0.245
0.06
-0.13
-0.315
-0.135
-0.14
-0.07
0.06
0.095
0.26
0.185
-0.015
-0.06
-0.315
-0.105
-0.105
-0.025
0.05
0.065
0.29
0.27
0.095
-0.065
-0.27
-0.13
-0.14
-0.04
0.095
0.115
0.265
0.24
0.11
-0.145
-0.325
-0.15
-0.135
-0.005
0.075
0.03
0.24
0.18
0.045
-0.215
-0.33
-0.175
-0.16
-0.075
-0.005
0.04
0.235
0.175
0.07
-0.22
-0.31
-0.14
-0.175
-0.13
0.02
0.055
0.255
0.095
0.03
-0.22
-0.28
-0.175
-0.185
-0.06
0.02
0.005
0.225
0.11
-0.035
-0.225
-0.28
-0.205
-0.2
-0.135
-0.035
0.005
0.215
0.02
0.01
-0.235
-0.12
-0.035
0.05
0.175
0.365
0.505
0.765
0.57
0.35
0.04
0.055
0.0
-0.01
0.045
0.06
0.05
0.06
-0.11
-0.175
-0.53
-0.405
-0.37
-0.36
-0.225
-0.14
-0.03
0.105
-0.04
-0.125
-0.35
-0.21
-0.155
-0.155
-0.01
0.015
0.165
0.105
0.09
-0.06
-0.35
-0.145
-0.145
-0.155
-0.025
0.065
0.185
0.26
0.065
-0.09
-0.325
-0.185
-0.11
-0.11
-0.05
0.05
0.235
0.255
0.065
-0.14
-0.325
-0.095
-0.115
-0.11
0.04
0.075
0.24
0.2
0.08
-0.09
-0.335
-0.17
-0.115
-0.07
0.04
0.09
0.275
0.25
0.08
-0.155
-0.29
-0.09
-0.105
-0.09
0.015
0.095
0.325
0.25
0.1
-0.11
-0.275
-0.11
-0.07
-0.01
0.045
0.125
0.275
0.29
0.135
0.005
-0.235
-0.04
-0.02
0.06
0.16
0.175
0.365
0.28
0.185
-0.1
-0.165
0.04
0.01
0.08
0.225
0.17
0.41
0.34
0.235
-0.035
-0.12
0.045
0.03
0.1
0.165
0.225
0.42
0.315
0.24
-0.05
-0.11
0.025
0.0
0.055
0.165
0.185
0.355
0.26
0.145
-0.165
-0.195
-0.095
-0.06
-0.035
0.095
0.11
0.255
0.105
0.05
-0.235
-0.255
-0.155
-0.14
-0.115
0.015
0.06
0.215
0.08
-0.035
-0.345
-0.28
-0.125
-0.13
-0.115
-0.06
0.05
0.19
0.035
-0.055
-0.345
-0.25
-0.265
-0.165
-0.105
-0.04
0.155
0.175
0.035
-0.105
-0.37
-0.255
-0.215
-0.23
-0.065
0.005
0.12
0.22
0.005
-0.13
-0.44
-0.29
-0.16
-0.175
-0.05
-0.005
0.16
0.17
-0.045
-0.16
-0.365
-0.25
-0.165
-0.19
-0.095
-0.025
0.225
0.19
-0.015
-0.27
-0.375
-0.195
-0.22
-0.14
0.04
0.025
0.105
0.205
0.055
-0.165
-0.42
-0.22
-0.205
-0.16
-0.055
-0.015
0.12
0.16
0.005
-0.2
-0.44
-0.245
-0.245
-0.13
-0.055
-0.02
0.225
0.155
0.005
-0.24
-0.415
-0.29
-0.25
-0.145
-0.025
-0.005
0.175
0.085
-0.055
-0.255
-0.48
-0.255
-0.19
-0.135
-0.065
-0.11
0.22
0.11
-0.02
-0.295
-0.38
-0.19
-0.25
-0.165
-0.05
-0.075
0.165
0.06
-0.055
-0.32
-0.4
-0.2
-0.225
-0.17
-0.01
-0.04
0.165
0.07
-0.03
-0.27
-0.35
-0.22
-0.265
-0.145
-0.1
-0.04
0.185
0.085
-0.04
-0.255
-0.3
-0.19
-0.2
-0.125
-0.02
0.055
0.195
0.01
-0.085
-0.285
-0.28
-0.15
-0.21
-0.095
0.045
0.06
0.18
0.035
-0.08
-0.32
-0.265
-0.24
-0.19
-0.125
-0.04
0.02
0.115
0.005
-0.085
-0.435
-0.28
-0.21
-0.205
-0.14
-0.065
0.035
0.16
-0.04
-0.12
-0.42
-0.285
-0.23
-0.185
-0.08
-0.07
0.065
0.105
-0.025
-0.145
-0.385
-0.27
-0.25
-0.21
-0.105
-0.025
0.12
0.095
-0.08
-0.195
-0.485
-0.385
-0.255
-0.23
-0.14
-0.095
0.125
0.21
0.105
0.0
-0.205
0.06
0.2
0.19
0.38
0.44
0.535
0.295
0.16
-0.085
-0.335
-0.24
-0.32
-0.4
-0.3
-0.19
-0.055
-0.09
-0.26
-0.44
-0.65
-0.445
-0.37
-0.28
-0.205
-0.17
0.11
0.11
-0.075
-0.305
-0.485
-0.28
-0.255
-0.22
-0.16
-0.03
0.115
0.065
-0.025
-0.25
-0.455
-0.305
-0.26
-0.2
-0.1
-0.015
0.135
0.05
-0.045
-0.27
-0.405
-0.255
-0.265
-0.15
-0.045
-0.045
0.175
0.045
-0.045
-0.33
-0.355
-0.275
-0.31
-0.23
0.005
0.0
0.185
0.085
-0.07
-0.3
-0.345
-0.275
-0.23
-0.155
-0.07
-0.045
0.2
0.075
-0.015
-0.34
-0.335
-0.195
-0.22
-0.11
0.0
0.055
0.175
0.075
-0.01
-0.32
-0.285
-0.185
-0.1
-0.1
-0.01
0.105
0.245
0.11
-0.005
-0.27
-0.2
-0.1
-0.08
-0.05
0.065
0.16
0.275
0.135
0.095
-0.22
-0.15
-0.105
-0.095
0.01
0.035
0.17
0.37
0.185
0.015
-0.285
-0.115
-0.05
-0.09
0.065
0.11
0.22
0.315
0.115
-0.015
-0.275
-0.205
-0.14
-0.145
-0.01
0.035
0.14
0.175
0.0
-0.235
-0.38
-0.285
-0.23
-0.25
-0.15
-0.06
0.12
0.085
-0.045
-0.235
-0.51
-0.32
-0.295
-0.26
-0.185
-0.095
0.055
0.05
-0.1
-0.29
-0.57
-0.365
-0.37
-0.27
-0.17
-0.145
0.05
0.045
-0.125
-0.29
-0.54
-0.35
-0.33
-0.285
-0.175
-0.105
0.015
-0.05
-0.2
-0.33
-0.47
-0.345
-0.38
-0.295
-0.2
-0.11
0.09
0.01
-0.125
-0.355
-0.55
-0.32
-0.405
-0.255
-0.11
-0.06
0.05
0.04
-0.115
-0.36
-0.505
-0.345
-0.315
-0.28
-0.165
-0.105
0.115
-0.005
-0.145
-0.385
-0.505
-0.27
-0.3
-0.265
-0.145
-0.155
0.075
-0.02
-0.16
-0.4
-0.405
-0.365
-0.36
-0.28
-0.15
-0.07
0.105
-0.07
-0.15
-0.44
-0.435
-0.32
-0.28
-0.27
-0.15
-0.13
0.085
-0.085
-0.175
-0.395
-0.395
-0.385
-0.39
-0.24
-0.1
-0.07
0.07
-0.105
-0.21
-0.525
-0.385
-0.33
-0.31
-0.245
-0.17
-0.045
0.075
-0.115
-0.16
-0.495
-0.39
-0.365
-0.29
-0.23
-0.16
-0.06
0.03
-0.075
-0.23
-0.525
-0.39
-0.35
-0.305
-0.215
-0.145
-0.065
-0.02
-0.14
-0.22
-0.495
-0.32
-0.385
-0.315
-0.215
-0.135
-0.005
0.025
-0.12
-0.285
-0.55
-0.415
-0.36
-0.315
-0.18
-0.12
0.075
0.05
-0.085
-0.24
-0.49
-0.345
-0.35
-0.275
-0.12
-0.115
0.035
0.06
-0.11
-0.285
-0.52
-0.375
-0.31
-0.3
-0.195
-0.155
0.02
0.045
-0.14
-0.41
-0.585
-0.325
-0.35
-0.33
-0.225
-0.145
0.04
-0.04
-0.185
-0.325
-0.585
-0.39
-0.37
-0.355
-0.225
-0.125
0.05
-0.03
-0.195
-0.385
-0.59
-0.465
-0.35
-0.29
-0.22
-0.175
0.055
0.0
-0.19
-0.375
-0.565
-0.365
-0.41
-0.35
-0.23
-0.175
-0.02
-0.09
-0.25
-0.46
-0.53
-0.365
-0.32
-0.225
0.055
0.115
0.37
0.39
0.36
0.02
-0.04
-0.005
-0.115
-0.095
-0.04
-0.12
0.015
-0.175
-0.375
-0.67
-0.63
-0.56
-0.52
-0.465
-0.355
-0.28
-0.115
-0.19
-0.28
-0.545
-0.475
-0.43
-0.345
-0.3
-0.145
-0.09
0.04
-0.145
-0.245
-0.47
-0.425
-0.325
-0.35
-0.27
-0.17
-0.06
0.085
-0.09
-0.175
-0.495
-0.375
-0.305
-0.35
-0.245
-0.15
-0.05
0.06
-0.165
-0.135
-0.46
-0.38
-0.36
-0.27
-0.19
-0.15
0.03
0.065
-0.12
-0.225
-0.55
-0.33
-0.29
-0.235
-0.145
-0.095
0.005
0.06
-0.065
-0.265
-0.53
-0.355
-0.23
-0.21
-0.145
-0.115
0.115
0.07
-0.045
-0.245
-0.44
-0.275
-0.26
-0.23
-0.125
-0.095
0.105
0.105
-0.03
-0.245
-0.46
-0.225
-0.23
-0.17
-0.09
-0.02
0.185
0.17
-0.01
-0.225
-0.325
-0.185
-0.19
-0.07
-0.005
0.02
0.235
0.18
-0.055
-0.21
-0.33
-0.12
-0.16
-0.105
-0.025
0.035
0.235
0.17
0.055
-0.195
-0.39
-0.16
-0.205
-0.135
-0.045
0.02
0.165
0.13
-0.015
-0.24
-0.405
-0.29
-0.295
-0.24
-0.1
-0.11
0.1
0.025
-0.14
-0.345
-0.455
-0.31
-0.35
-0.305
-0.175
-0.15
0.04
-0.075
-0.165
-0.52
-0.53
-0.32
-0.345
-0.295
-0.215
-0.18
0.01
-0.07
-0.265
-0.455
-0.45
-0.41
-0.365
-0.31
-0.22
-0.145
-0.005
-0.185
-0.175
-0.47
-0.445
-0.355
-0.425
-0.365
-0.21
-0.12
0.03
-0.115
-0.21
-0.51
-0.44
-0.385
-0.31
-0.365
-0.22
-0.08
0.05
-0.06
-0.24
-0.54
-0.425
-0.37
-0.37
-0.275
-0.15
-0.105
0.005
-0.13
-0.225
-0.565
-0.415
-0.385
-0.33
-0.23
-0.215
-0.035
0.03
-0.145
-0.295
-0.545
-0.42
-0.415
-0.395
-0.195
-0.18
-0.07
-0.055
-0.11
-0.305
-0.55
-0.43
-0.42
-0.32
-0.245
-0.135
0.01
-0.03
-0.175
-0.335
-0.6
-0.445
-0.365
-0.36
-0.21
-0.145
-0.005
-0.055
-0.225
-0.365
-0.555
-0.41
-0.35
-0.32
-0.28
-0.195
-0.005
-0.045
-0.185
-0.4
-0.59
-0.42
-0.4
-0.35
-0.23
-0.235
0.005
-0.055
-0.22
-0.425
-0.595
-0.45
-0.425
-0.34
-0.27
-0.195
-0.015
-0.06
-0.265
-0.415
-0.6
-0.375
-0.39
-0.33
-0.255
-0.215
0.03
-0.05
-0.22
-0.485
-0.62
-0.39
-0.44
-0.29
-0.255
-0.205
-0.025
-0.04
-0.19
-0.46
-0.545
-0.39
-0.405
-0.33
-0.21
-0.165
0.065
-0.085
-0.21
-0.465
-0.485
-0.395
-0.405
-0.305
-0.185
-0.185
0.04
-0.11
-0.205
-0.485
-0.455
-0.36
-0.425
-0.355
-0.165
-0.16
0.02
-0.105
-0.225
-0.44
-0.465
-0.47
-0.37
-0.34
-0.22
-0.195
-0.025
-0.135
-0.235
-0.54
-0.495
-0.4
-0.39
-0.35
-0.255
-0.155
-0.05
-0.165
-0.275
-0.64
-0.48
-0.435
-0.42
-0.345
-0.225
-0.09
-0.01
-0.185
-0.3
-0.625
-0.5
-0.435
-0.36
-0.305
-0.25
-0.1
-0.08
-0.245
-0.345
-0.605
-0.44
-0.4
-0.265
-0.01
0.04
0.255
0.435
0.355
0.135
-0.15
-0.07
-0.17
-0.23
-0.14
-0.165
-0.04
-0.115
-0.34
-0.565
-0.81
-0.64
-0.585
-0.575
-0.415
-0.41
-0.2
-0.12
-0.355
-0.44
-0.62
-0.49
-0.415
-0.38
-0.24
-0.205
0.0
-0.08
-0.2
-0.405
-0.64
-0.415
-0.385
-0.38
-0.245
-0.2
0.045
-0.075
-0.255
-0.395
-0.6
-0.4
-0.415
-0.35
-0.195
-0.195
0.015
-0.04
-0.22
-0.455
-0.605
-0.385
-0.365
-0.33
-0.215
-0.2
-0.03
-0.07
-0.215
-0.42
-0.52
-0.38
-0.39
-0.285
-0.18
-0.17
0.065
-0.105
-0.125
-0.4
-0.51
-0.36
-0.355
-0.285
-0.19
-0.18
0.01
-0.04
-0.11
-0.445
-0.495
-0.34
-0.32
-0.235
-0.14
-0.105
0.075
-0.035
-0.18
-0.385
-0.39
-0.295
-0.265
-0.235
-0.105
-0.065
0.13
0.015
-0.08
-0.385
-0.38
-0.21
-0.18
-0.115
-0.005
0.03
0.12
0.0
-0.025
-0.365
-0.295
-0.195
-0.205
-0.19
-0.005
0.06
0.14
0.025
-0.065
-0.325
-0.285
-0.255
-0.15
-0.14
-0.055
0.09
0.125
-0.025
-0.195
-0.495
-0.355
-0.305
-0.305
-0.195
-0.155
-0.02
-0.035
-0.17
-0.27
-0.565
-0.415
-0.33
-0.35
-0.235
-0.25
-0.015
-0.1
-0.145
-0.34
-0.61
-0.5
-0.435
-0.41
-0.255
-0.22
-0.09
-0.11
-0.22
-0.39
-0.64
-0.42
-0.415
-0.415
-0.31
-0.235
-0.085
-0.11
-0.25
-0.455
-0.655
-0.445
-0.4
-0.37
-0.255
-0.26
-0.05
-0.055
-0.295
-0.405
-0.62
-0.49
-0.45
-0.345
-0.235
-0.225
-0.085
-0.09
-0.225
-0.43
-0.595
-0.44
-0.48
-0.395
-0.28
-0.215
-0.05
-0.105
-0.245
-0.4
-0.675
-0.435
-0.46
-0.385
-0.29
-0.25
-0.045
-0.105
-0.265
-0.48
-0.6
-0.445
-0.445
-0.405
-0.295
-0.275
-0.04
-0.12
-0.255
-0.515
-0.55
-0.435
-0.43
-0.355
-0.295
-0.235
-0.085
-0.14
-0.24
-0.5
-0.55
-0.43
-0.42
-0.425
-0.27
-0.195
-0.065
-0.18
-0.175
-0.535
-0.56
-0.485
-0.48
-0.39
-0.235
-0.185
-0.045
-0.16
-0.275
-0.555
-0.51
-0.45
-0.485
-0.345
-0.255
-0.21
-0.075
-0.205
-0.27
-0.65
-0.52
-0.405
-0.41
-0.36
-0.275
-0.175
-0.02
-0.21
-0.31
-0.635
-0.54
-0.455
-0.37
-0.31
-0.265
-0.195
-0.025
-0.155
-0.275
-0.605
-0.5
-0.42
-0.46
-0.33
-0.21
-0.08
-0.06
-0.23
-0.38
-0.66
-0.475
-0.395
-0.385
-0.27
-0.21
-0.155
-0.055
-0.18
-0.345
-0.585
-0.41
-0.4
-0.41
-0.295
-0.21
-0.09
-0.045
-0.175
-0.365
-0.6
-0.45
-0.425
-0.38
-0.26
-0.25
-0.04
-0.015
-0.23
-0.445
-0.605
-0.445
-0.405
-0.42
-0.28
-0.285
-0.045
-0.105
-0.26
-0.47
-0.7
-0.45
-0.43
-0.41
-0.32
-0.275
-0.055
-0.145
-0.315
-0.415
-0.63
-0.49
-0.465
-0.4
-0.32
-0.235
-0.135
-0.13
-0.28
-0.54
-0.665
-0.52
-0.475
-0.42
-0.32
-0.3
-0.06
-0.165
-0.32
-0.545
-0.62
-0.49
-0.445
-0.315
-0.18
-0.09
0.235
0.16
0.065
-0.085
-0.125
0.045
-0.035
-0.08
-0.105
-0.105
0.025
-0.13
-0.31
-0.63
-0.8
-0.71
-0.635
-0.57
-0.46
-0.5
-0.195
-0.31
-0.42
-0.63
-0.625
-0.55
-0.515
-0.35
-0.285
-0.19
-0.05
-0.175
-0.255
-0.54
-0.525
-0.42
-0.475
-0.39
-0.225
-0.2
-0.02
-0.17
-0.305
-0.58
-0.49
-0.435
-0.375
-0.31
-0.24
-0.175
-0.06
-0.195
-0.27
-0.56
-0.495
-0.42
-0.4
-0.295
-0.21
-0.145
-0.045
-0.16
-0.29
-0.56
-0.435
-0.4
-0.295
-0.25
-0.22
-0.105
0.015
-0.16
-0.295
-0.555
-0.48
-0.4
-0.33
-0.21
-0.2
0.005
0.045
-0.145
-0.36
-0.615
-0.4
-0.31
-0.28
-0.2
-0.165
0.015
0.045
-0.125
-0.3
-0.555
-0.4
-0.285
-0.265
-0.145
-0.125
0.07
0.07
-0.125
-0.295
-0.495
-0.26
-0.245
-0.21
-0.085
-0.085
0.145
0.145
-0.08
-0.23
-0.41
-0.285
-0.205
-0.17
-0.07
-0.035
0.16
0.115
-0.065
-0.295
-0.495
-0.235
-0.225
-0.13
-0.055
-0.05
0.1
0.045
-0.07
-0.245
-0.475
-0.315
-0.32
-0.255
-0.225
-0.18
0.055
-0.025
-0.145
-0.43
-0.6
-0.395
-0.4
-0.33
-0.24
-0.22
0.0
-0.135
-0.245
-0.505
-0.625
-0.465
-0.42
-0.375
-0.33
-0.235
0.0
-0.15
-0.26
-0.545
-0.575
-0.465
-0.44
-0.395
-0.22
-0.245
-0.12
-0.155
-0.285
-0.52
-0.525
-0.485
-0.455
-0.35
-0.275
-0.185
-0.025
-0.18
-0.295
-0.605
-0.51
-0.455
-0.405
-0.28
-0.28
-0.22
-0.075
-0.145
-0.28
-0.58
-0.505
-0.425
-0.42
-0.355
-0.25
-0.175
-0.065
-0.2
-0.28
-0.58
-0.5
-0.425
-0.41
-0.34
-0.24
-0.135
-0.11
-0.255
-0.26
-0.585
-0.495
-0.405
-0.445
-0.295
-0.21
-0.135
-0.05
-0.175
-0.345
-0.595
-0.46
-0.445
-0.43
-0.3
-0.21
-0.075
-0.09
-0.23
-0.38
-0.64
-0.455
-0.465
-0.395
-0.28
-0.225
-0.115
-0.115
-0.225
-0.4
-0.63
-0.435
-0.445
-0.395
-0.305
-0.21
-0.095
-0.12
-0.235
-0.445
-0.685
-0.47
-0.475
-0.395
-0.265
-0.25
-0.095
-0.125
-0.3
-0.425
-0.58
-0.465
-0.47
-0.415
-0.29
-0.21
-0.07
-0.09
-0.26
-0.45
-0.65
-0.465
-0.475
-0.43
-0.275
-0.21
-0.045
-0.155
-0.28
-0.5
-0.615
-0.46
-0.475
-0.345
-0.285
-0.245
-0.045
-0.155
-0.265
-0.47
-0.62
-0.48
-0.42
-0.36
-0.27
-0.25
-0.035
-0.14
-0.285
-0.55
-0.56
-0.43
-0.43
-0.325
-0.225
-0.225
-0.005
-0.105
-0.275
-0.51
-0.535
-0.39
-0.39
-0.35
-0.25
-0.24
-0.03
-0.12
-0.225
-0.55
-0.47
-0.42
-0.42
-0.405
-0.21
-0.205
-0.04
-0.2
-0.285
-0.565
-0.535
-0.465
-0.475
-0.385
-0.27
-0.17
-0.125
-0.195
-0.26
-0.595
-0.505
-0.45
-0.47
-0.4
-0.275
-0.135
-0.06
-0.23
-0.305
-0.59
-0.53
-0.425
-0.43
-0.37
-0.265
-0.16
-0.055
-0.245
-0.4
-0.65
-0.505
-0.47
-0.455
-0.36
-0.265
-0.095
-0.09
-0.175
-0.205
-0.42
-0.25
-0.095
0.03
0.195
0.245
0.345
0.26
-0.035
-0.22
-0.45
-0.445
-0.38
-0.41
-0.5
-0.44
-0.295
-0.245
-0.395
-0.6
-0.805
-0.68
-0.585
-0.51
-0.395
-0.33
-0.095
-0.12
-0.245
-0.445
-0.665
-0.485
-0.44
-0.275
-0.25
-0.23
-0.055
-0.05
-0.215
-0.41
-0.61
-0.43
-0.435
-0.37
-0.19
-0.23
-0.005
-0.075
-0.21
-0.385
-0.65
-0.445
-0.375
-0.31
-0.18
-0.2
0.02
-0.09
-0.22
-0.37
-0.555
-0.395
-0.385
-0.295
-0.185
-0.2
0.015
-0.035
-0.205
-0.375
-0.575
-0.42
-0.395
-0.25
-0.14
-0.185
0.02
-0.045
-0.185
-0.38
-0.495
-0.355
-0.355
-0.28
-0.14
-0.145
0.025
0.005
-0.075
-0.385
-0.48
-0.36
-0.355
-0.24
-0.04
-0.02
0.085
0.03
-0.095
-0.325
-0.4
-0.265
-0.21
-0.155
-0.03
-0.05
0.135
0.045
-0.08
-0.325
-0.335
-0.23
-0.23
-0.11
-0.005
0.085
0.185
0.07
-0.025
-0.285
-0.26
-0.2
-0.2
-0.125
-0.02
0.08
0.1
0.04
-0.06
-0.33
-0.27
-0.25
-0.25
-0.19
-0.065
0.04
0.1
-0.04
-0.14
-0.445
-0.4
-0.365
-0.325
-0.21
-0.135
0.02
-0.025
-0.135
-0.285
-0.57
-0.44
-0.375
-0.365
-0.275
-0.185
-0.05
-0.055
-0.185
-0.35
-0.62
-0.5
-0.385
-0.38
-0.27
-0.21
-0.04
-0.115
-0.23
-0.37
-0.585
-0.425
-0.415
-0.42
-0.245
-0.235
0.03
-0.035
-0.225
-0.435
-0.6
-0.435
-0.425
-0.34
-0.26
-0.24
-0.055
-0.075
-0.235
-0.365
-0.56
-0.435
-0.43
-0.37
-0.23
-0.18
-0.01
-0.08
-0.195
-0.375
-0.59
-0.44
-0.44
-0.335
-0.23
-0.195
0.005
-0.07
-0.23
-0.405
-0.59
-0.39
-0.44
-0.34
-0.235
-0.265
-0.03
-0.09
-0.19
-0.46
-0.53
-0.375
-0.405
-0.345
-0.255
-0.22
0.03
-0.085
-0.2
-0.46
-0.59
-0.445
-0.405
-0.34
-0.265
-0.22
0.02
-0.135
-0.19
-0.46
-0.535
-0.445
-0.415
-0.345
-0.235
-0.175
0.005
-0.115
-0.22
-0.505
-0.53
-0.43
-0.44
-0.335
-0.23
-0.215
-0.015
-0.12
-0.25
-0.49
-0.51
-0.405
-0.385
-0.32
-0.235
-0.17
-0.05
-0.195
-0.265
-0.585
-0.475
-0.43
-0.365
-0.305
-0.225
-0.18
-0.09
-0.135
-0.28
-0.54
-0.44
-0.375
-0.375
-0.33
-0.195
-0.065
-0.04
-0.185
-0.245
-0.545
-0.485
-0.38
-0.405
-0.27
-0.205
-0.06
0.04
-0.155
-0.265
-0.51
-0.39
-0.335
-0.36
-0.27
-0.215
-0.015
0.0
-0.19
-0.33
-0.54
-0.43
-0.435
-0.32
-0.16
-0.2
0.025
-0.015
-0.195
-0.325
-0.535
-0.4
-0.38
-0.32
-0.255
-0.22
-0.05
-0.05
-0.22
-0.38
-0.62
-0.46
-0.405
-0.375
-0.235
-0.165
0.0
-0.015
-0.205
-0.38
-0.58
-0.48
-0.395
-0.36
-0.25
-0.205
-0.04
-0.06
-0.22
-0.44
-0.615
-0.435
-0.435
-0.275
-0.245
-0.22
-0.005
-0.09
-0.245
-0.47
-0.655
-0.465
-0.445
-0.325
-0.215
-0.15
0.07
0.115
0.01
-0.145
-0.185
0.025
0.07
0.105
0.215
0.055
0.19
0.105
-0.11
-0.4
-0.605
-0.515
-0.61
-0.535
-0.39
-0.375
-0.15
-0.3
-0.35
-0.655
-0.68
-0.55
-0.585
-0.325
-0.22
-0.205
-0.015
-0.175
-0.195
-0.475
-0.475
-0.37
-0.35
-0.27
-0.245
-0.15
0.025
-0.105
-0.155
-0.47
-0.49
-0.325
-0.305
-0.27
-0.22
-0.105
0.035
-0.125
-0.145
-0.46
-0.395
-0.34
-0.325
-0.26
-0.145
-0.09
0.05
-0.115
-0.215
-0.47
-0.405
-0.3
-0.28
-0.26
-0.125
0.05
0.04
-0.09
-0.16
-0.48
-0.41
-0.27
-0.23
-0.19
-0.12
0.07
0.09
-0.085
-0.185
-0.455
-0.34
-0.32
-0.27
-0.09
-0.08
0.075
0.14
-0.03
-0.155
-0.435
-0.31
-0.18
-0.28
-0.055
-0.05
0.13
0.17
-0.005
-0.165
-0.415
-0.215
-0.185
-0.12
-0.005
-0.01
0.245
0.25
-0.005
-0.135
-0.38
-0.15
-0.105
-0.1
0.02
0.04
0.25
0.265
0.065
-0.115
-0.365
-0.185
-0.12
-0.11
-0.005
-0.01
0.2
0.22
0.055
-0.165
-0.425
-0.235
-0.24
-0.195
-0.085
-0.05
0.125
0.085
-0.03
-0.275
-0.49
-0.355
-0.32
-0.23
-0.15
-0.135
0.085
0.0
-0.155
-0.365
-0.53
-0.355
-0.41
-0.31
-0.235
-0.215
0.025
-0.055
-0.16
-0.41
-0.505
-0.365
-0.365
-0.295
-0.205
-0.16
0.025
-0.075
-0.235
-0.405
-0.525
-0.4
-0.355
-0.31
-0.185
-0.195
0.025
-0.13
-0.14
-0.44
-0.465
-0.36
-0.335
-0.325
-0.125
-0.085
0.005
-0.055
-0.175
-0.505
-0.47
-0.375
-0.33
-0.23
-0.205
-0.115
0.065
-0.09
-0.205
-0.48
-0.395
-0.285
-0.275
-0.245
-0.135
-0.06
0.055
-0.11
-0.175
-0.49
-0.41
-0.37
-0.265
-0.29
-0.115
-0.025
0.035
-0.085
-0.18
-0.51
-0.37
-0.355
-0.345
-0.2
-0.19
-0.04
0.045
-0.16
-0.235
-0.515
-0.4
-0.35
-0.3
-0.17
-0.12
0.045
0.045
-0.13
-0.27
-0.495
-0.385
-0.32
-0.325
-0.21
-0.135
0.045
0.035
-0.16
-0.295
-0.53
-0.39
-0.415
-0.265
-0.08
-0.155
0.025
0.02
-0.175
-0.295
-0.53
-0.375
-0.325
-0.295
-0.205
-0.175
0.03
-0.025
-0.17
-0.325
-0.545
-0.37
-0.375
-0.305
-0.16
-0.18
0.02
0.045
-0.1
-0.32
-0.545
-0.36
-0.36
-0.335
-0.175
-0.11
0.05
0.06
-0.15
-0.34
-0.49
-0.325
-0.28
-0.255
-0.19
-0.07
0.1
0.0
-0.145
-0.38
-0.505
-0.315
-0.325
-0.21
-0.135
-0.115
0.125
0.02
-0.13
-0.415
-0.51
-0.34
-0.335
-0.275
-0.185
-0.14
0.02
-0.07
-0.175
-0.395
-0.485
-0.32
-0.345
-0.265
-0.195
-0.16
0.07
-0.105
-0.13
-0.41
-0.48
-0.385
-0.32
-0.315
-0.17
-0.15
0.09
-0.06
-0.19
-0.44
-0.45
-0.335
-0.315
-0.275
-0.155
-0.11
0.04
-0.13
-0.195
-0.515
-0.455
-0.385
-0.35
-0.325
-0.15
-0.085
0.0
-0.09
-0.105
-0.37
-0.225
-0.06
0.02
0.17
0.36
0.445
0.435
0.19
0.09
-0.225
-0.195
-0.235
-0.265
-0.285
-0.295
-0.225
-0.245
-0.27
-0.425
-0.685
-0.555
-0.425
-0.43
-0.22
-0.21
-0.095
0.03
-0.125
-0.28
-0.515
-0.39
-0.32
-0.305
-0.185
-0.105
0.095
0.05
-0.065
-0.285
-0.52
-0.29
-0.335
-0.295
-0.135
-0.1
0.035
0.035
-0.11
-0.245
-0.465
-0.275
-0.295
-0.285
-0.105
-0.065
0.075
0.09
-0.115
-0.26
-0.465
-0.305
-0.26
-0.13
-0.095
-0.055
0.115
0.055
-0.07
-0.255
-0.46
-0.26
-0.23
-0.16
-0.095
-0.07
0.125
0.1
-0.05
-0.25
-0.415
-0.22
-0.24
-0.185
-0.13
-0.045
0.155
0.12
-0.005
-0.235
-0.42
-0.255
-0.215
-0.065
-0.045
-0.02
0.22
0.105
0.005
-0.215
-0.31
-0.175
-0.22
-0.065
0.095
0.095
0.275
0.14
0.07
-0.135
-0.275
-0.12
-0.115
0.005
0.065
0.1
0.28
0.21
0.065
-0.18
-0.18
-0.135
-0.13
0.005
0.135
0.115
0.295
0.145
0.06
-0.24
-0.205
-0.145
-0.105
-0.06
0.025
0.065
0.24
0.095
-0.095
-0.325
-0.26
-0.245
-0.18
-0.095
-0.075
-0.005
0.135
-0.02
-0.095
-0.445
-0.465
-0.265
-0.22
-0.24
-0.03
0.025
0.115
-0.025
-0.12
-0.49
-0.43
-0.335
-0.265
-0.155
-0.08
0.0
0.105
-0.09
-0.21
-0.475
-0.365
-0.235
-0.255
-0.155
-0.13
0.03
0.075
-0.05
-0.22
-0.5
-0.38
-0.23
-0.22
-0.13
-0.09
0.05
0.03
-0.055
-0.275
-0.49
-0.285
-0.235
-0.27
-0.115
-0.115
0.055
0.095
-0.065
-0.265
-0.495
-0.33
-0.3
-0.26
-0.07
-0.025
0.1
0.03
-0.06
-0.24
-0.455
-0.275
-0.295
-0.24
-0.17
-0.105
0.03
0.12
-0.05
-0.315
-0.47
-0.265
-0.265
-0.215
-0.13
-0.07
0.1
0.05
-0.08
-0.32
-0.57
-0.205
-0.275
-0.25
-0.11
-0.115
0.1
0.01
-0.12
-0.35
-0.475
-0.25
-0.25
-0.26
-0.18
-0.055
0.13
0.04
-0.085
-0.315
-0.475
-0.34
-0.335
-0.165
-0.075
-0.1
0.105
0.05
-0.11
-0.315
-0.45
-0.305
-0.31
-0.245
-0.075
-0.055
0.105
0.02
-0.09
-0.415
-0.39
-0.285
-0.27
-0.225
-0.09
-0.03
0.135
-0.055
-0.12
-0.37
-0.34
-0.23
-0.26
-0.13
-0.075
-0.005
0.085
-0.015
-0.075
-0.315
-0.305
-0.23
-0.235
-0.155
-0.065
0.025
0.125
-0.03
-0.075
-0.34
-0.34
-0.295
-0.24
-0.185
-0.055
0.025
0.095
-0.09
-0.155
-0.37
-0.355
-0.28
-0.26
-0.22
-0.135
0.045
0.095
-0.04
-0.18
-0.41
-0.285
-0.315
-0.295
-0.135
-0.05
0.05
0.025
-0.015
-0.21
-0.505
-0.345
-0.28
-0.23
-0.175
-0.09
0.08
0.09
-0.08
-0.25
-0.44
-0.315
-0.315
-0.26
-0.12
-0.125
0.06
0.12
0.03
-0.105
-0.245
-0.05
0.045
0.18
0.37
0.36
0.515
0.425
0.19
-0.095
-0.3
-0.255
-0.25
-0.27
-0.255
-0.305
-0.15
-0.14
-0.26
-0.435
-0.615
-0.445
-0.405
-0.255
-0.19
-0.125
0.075
0.005
-0.055
-0.29
-0.515
-0.25
-0.26
-0.22
-0.07
-0.025
0.13
0.05
-0.065
-0.315
-0.47
-0.215
-0.255
-0.175
-0.08
-0.06
0.17
0.085
0.0
-0.31
-0.43
-0.21
-0.25
-0.175
0.01
-0.04
0.16
0.09
-0.03
-0.265
-0.34
-0.19
-0.175
-0.17
-0.035
0.01
0.16
0.11
-0.035
-0.35
-0.345
-0.23
-0.18
-0.095
-0.035
0.015
0.23
0.115
0.005
-0.29
-0.29
-0.17
-0.185
-0.045
0.065
0.105
0.215
0.105
0.025
-0.3
-0.24
-0.125
-0.14
-0.065
0.06
0.165
0.255
0.16
0.08
-0.24
-0.125
-0.055
-0.055
0.01
0.125
0.195
0.315
0.2
0.125
-0.2
-0.09
-0.035
-0.055
0.04
0.155
0.21
0.38
0.205
0.085
-0.235
-0.05
-0.015
0.045
0.115
0.185
0.25
0.3
0.145
0.055
-0.195
-0.05
-0.07
-0.075
0.085
0.125
0.2
0.235
0.095
-0.085
-0.33
-0.155
-0.135
-0.145
0.005
0.005
0.135
0.1
0.04
-0.145
-0.4
-0.24
-0.235
-0.18
-0.095
-0.015
0.06
0.08
-0.04
-0.255
-0.36
-0.265
-0.185
-0.155
-0.05
-0.05
0.16
0.105
-0.005
-0.225
-0.46
-0.255
-0.225
-0.175
-0.065
-0.02
0.15
0.1
-0.05
-0.24
-0.41
-0.235
-0.185
-0.17
-0.045
-0.035
0.185
0.105
-0.02
-0.255
-0.385
-0.25
-0.25
-0.18
-0.075
-0.06
0.17
0.135
0.025
-0.295
-0.36
-0.19
-0.235
-0.14
-0.06
-0.09
0.17
0.125
-0.05
-0.26
-0.395
-0.2
-0.23
-0.13
-0.035
-0.07
0.195
0.11
-0.04
-0.28
-0.31
-0.18
-0.225
-0.17
-0.005
0.01
0.19
0.07
-0.04
-0.29
-0.285
-0.25
-0.2
-0.12
-0.04
-0.025
0.19
0.06
-0.045
-0.285
-0.29
-0.2
-0.18
-0.14
-0.035
0.005
0.165
0.08
-0.04
-0.345
-0.33
-0.245
-0.21
-0.12
-0.02
0.09
0.15
0.035
-0.035
-0.35
-0.21
-0.2
-0.18
-0.08
-0.01
0.065
0.21
0.035
-0.095
-0.45
-0.23
-0.165
-0.21
-0.055
0.02
0.155
0.225
0.075
-0.155
-0.395
-0.16
-0.175
-0.135
0.01
0.03
0.14
0.175
-0.005
-0.11
-0.325
-0.215
-0.215
-0.145
-0.01
-0.015
0.175
0.18
0.005
-0.155
-0.41
-0.2
-0.225
-0.19
-0.035
-0.025
0.195
0.145
-0.025
-0.23
-0.51
-0.235
-0.155
-0.08
-0.09
-0.025
0.115
0.15
-0.035
-0.195
-0.37
-0.22
-0.215
-0.145
-0.04
-0.025
0.145
0.115
-0.085
-0.27
-0.39
-0.235
-0.23
-0.165
-0.09
-0.03
0.13
0.1
-0.005
-0.27
-0.35
-0.13
-0.12
0.025
0.22
0.325
0.565
0.565
0.43
0.215
-0.04
-0.01
-0.1
0.04
0.08
0.05
0.155
-0.05
-0.255
-0.52
-0.615
-0.445
-0.345
-0.29
-0.18
-0.175
0.105
0.02
-0.075
-0.34
-0.32
-0.255
-0.25
-0.155
-0.02
-0.015
0.22
0.08
0.005
-0.295
-0.275
-0.185
-0.165
-0.11
-0.02
0.065
0.24
0.095
-0.045
-0.31
-0.22
-0.175
-0.115
-0.1
-0.005
0.11
0.22
0.09
0.01
-0.3
-0.19
-0.15
-0.11
-0.055
0.03
0.145
0.22
0.07
0.02
-0.25
-0.185
-0.16
-0.135
-0.015
0.08
0.125
0.24
0.05
-0.04
-0.235
-0.155
-0.105
-0.06
0.05
0.12
0.215
0.28
0.1
-0.005
-0.255
-0.15
-0.125
0.015
0.08
0.135
0.295
0.285
0.125
0.005
-0.265
-0.06
0.015
0.025
0.15
0.185
0.335
0.385
0.215
0.01
-0.2
-0.06
-0.015
0.06
0.235
0.235
0.375
0.37
0.23
0.06
-0.16
-0.015
-0.005
0.065
0.18
0.215
0.415
0.38
0.205
0.04
-0.17
0.035
-0.025
0.035
0.1
0.15
0.335
0.32
0.18
-0.04
-0.295
-0.075
-0.08
-0.035
0.03
0.095
0.29
0.22
0.045
-0.14
-0.355
-0.17
-0.18
-0.135
-0.015
0.085
0.235
0.165
0.025
-0.235
-0.405
-0.165
-0.19
-0.12
-0.075
-0.02
0.225
0.125
0.005
-0.27
-0.36
-0.175
-0.17
-0.16
-0.085
-0.015
0.27
0.17
-0.02
-0.29
-0.34
-0.18
-0.165
-0.1
-0.035
-0.005
0.23
0.12
0.035
-0.255
-0.29
-0.17
-0.14
-0.125
0.015
0.045
0.215
0.08
-0.025
-0.285
-0.21
-0.165
-0.18
-0.11
0.04
0.09
0.215
0.065
-0.03
-0.3
-0.22
-0.16
-0.135
-0.065
-0.015
0.1
0.23
0.11
-0.015
-0.3
-0.26
-0.205
-0.09
-0.09
0.035
0.155
0.24
0.085
-0.055
-0.345
-0.255
-0.145
-0.13
-0.02
0.03
0.125
0.22
0.045
-0.055
-0.34
-0.245
-0.15
-0.145
-0.025
0.05
0.16
0.185
0.055
-0.11
-0.365
-0.21
-0.155
-0.185
-0.01
0.04
0.19
0.2
0.015
-0.18
-0.3
-0.13
-0.11
-0.135
-0.01
0.01
0.195
0.22
0.05
-0.1
-0.335
-0.145
-0.165
-0.095
0.0
0.025
0.29
0.225
0.07
-0.1
-0.3
-0.165
-0.13
-0.075
0.01
0.05
0.255
0.175
0.045
-0.185
-0.335
-0.19
-0.145
-0.12
-0.02
0.005
0.225
0.155
0.0
-0.185
-0.385
-0.19
-0.21
-0.14
-0.02
0.055
0.26
0.135
0.04
-0.21
-0.35
-0.2
-0.205
-0.105
-0.03
0.015
0.23
0.13
0.0
-0.25
-0.385
-0.17
-0.165
-0.13
-0.02
0.03
0.235
0.11
-0.025
-0.285
-0.32
-0.23
-0.245
-0.085
-0.02
0.025
0.265
0.12
0.105
-0.005
-0.015
0.175
0.285
0.405
0.475
0.475
0.55
0.335
0.195
-0.15
-0.17
-0.145
-0.29
-0.31
-0.23
-0.125
0.06
-0.085
-0.195
-0.485
-0.445
-0.285
-0.23
-0.145
-0.035
0.025
0.15
0.085
-0.04
-0.27
-0.24
-0.175
-0.08
-0.06
0.065
0.145
0.24
0.095
0.05
-0.265
-0.185
-0.12
-0.12
-0.035
0.055
0.195
0.31
0.09
-0.005
-0.27
-0.18
-0.085
-0.095
0.12
0.105
0.24
0.25
0.145
-0.05
-0.29
-0.175
-0.07
-0.02
0.1
0.085
0.27
0.275
0.08
-0.13
-0.3
-0.03
-0.055
-0.03
0.105
0.14
0.325
0.315
0.14
-0.035
-0.285
-0.085
-0.03
0.01
0.12
0.18
0.375
0.28
0.14
-0.015
-0.225
-0.035
0.025
0.085
0.165
0.185
0.42
0.35
0.165
0.01
-0.15
0.035
0.07
0.08
0.225
0.255
0.46
0.395
0.245
0.06
-0.14
-0.04
0.12
0.195
0.24
0.3
0.49
0.415
0.255
0.05
-0.115
0.085
0.07
0.17
0.255
0.255
0.46
0.44
0.28
-0.05
-0.16
0.03
0.035
0.065
0.2
0.185
0.38
0.27
0.085
-0.16
-0.17
-0.065
-0.065
-0.03
0.085
0.085
0.27
0.205
0.105
-0.2
-0.23
-0.115
-0.14
-0.01
0.05
0.09
0.18
0.125
0.04
-0.23
-0.205
-0.14
-0.12
-0.08
0.025
0.14
0.255
0.08
0.08
-0.255
-0.215
-0.13
-0.105
-0.035
0.07
0.155
0.27
0.105
0.015
-0.305
-0.15
-0.11
-0.115
-0.04
0.06
0.19
0.305
0.09
0.02
-0.265
-0.13
-0.14
-0.075
0.03
0.09
0.175
0.265
0.12
0.01
-0.32
-0.21
-0.095
-0.05
0.085
0.105
0.24
0.26
0.08
-0.03
-0.305
-0.145
-0.1
-0.03
0.035
0.055
0.205
0.295
0.095
-0.045
-0.265
-0.135
-0.12
-0.065
0.07
0.085
0.245
0.225
0.065
-0.09
-0.295
-0.12
-0.15
-0.075
0.065
0.11
0.27
0.205
0.055
-0.085
-0.27
-0.195
-0.13
-0.02
0.05
0.075
0.24
0.23
0.075
-0.105
-0.315
-0.14
-0.14
-0.005
0.045
0.11
0.32
0.245
0.11
-0.115
-0.29
-0.06
-0.1
-0.03
0.05
0.07
0.34
0.26
0.09
-0.175
-0.285
-0.045
-0.085
-0.03
0.06
0.1
0.34
0.22
0.08
-0.17
-0.245
-0.12
-0.17
-0.095
0.03
0.025
0.25
0.19
0.055
-0.195
-0.285
-0.07
-0.115
-0.04
0.065
0.065
0.27
0.125
0.055
-0.225
-0.27
-0.18
-0.15
-0.025
-0.015
0.15
0.32
0.145
0.045
-0.22
-0.215
-0.11
-0.06
-0.13
0.02
0.075
0.24
0.12
0.045
-0.305
-0.25
-0.185
-0.145
-0.05
0.075
0.235
0.33
0.28
0.305
0.025
0.175
0.36
0.385
0.46
0.41
0.42
0.44
0.305
0.15
-0.18
-0.185
-0.235
-0.325
-0.225
-0.085
0.045
0.1
-0.085
-0.19
-0.455
-0.285
-0.23
-0.155
0.035
0.015
0.205
0.185
0.05
-0.085
-0.265
-0.105
-0.05
-0.055
0.05
0.075
0.265
0.31
0.095
-0.045
-0.255
-0.11
-0.08
-0.02
0.095
0.085
0.25
0.275
0.205
-0.065
-0.27
-0.07
-0.04
0.02
0.075
0.09
0.315
0.275
0.16
-0.035
-0.275
-0.07
-0.015
0.03
0.12
0.165
0.375
0.295
0.115
-0.09
-0.29
-0.07
-0.055
0.005
0.155
0.15
0.305
0.3
0.195
0.0
-0.215
-0.015
-0.015
0.085
0.21
0.175
0.39
0.325
0.21
0.015
-0.17
0.04
0.005
0.105
0.25
0.24
0.465
0.34
0.25
0.045
-0.055
0.11
0.095
0.135
0.23
0.28
0.51
0.425
0.3
-0.025
-0.015
0.12
0.125
0.19
0.255
0.345
0.495
0.41
0.275
-0.065
0.005
0.155
0.1
0.135
0.215
0.27
0.545
0.38
0.19
-0.08
0.0
0.07
0.025
0.09
0.22
0.255
0.4
0.195
0.14
-0.145
-0.135
-0.025
0.0
0.015
0.125
0.165
0.305
0.15
0.035
-0.23
-0.13
-0.065
-0.03
-0.01
0.085
0.16
0.3
0.12
0.03
-0.205
-0.21
-0.145
-0.055
0.025
0.13
0.225
0.26
0.14
0.025
-0.28
-0.145
-0.08
-0.075
0.08
0.11
0.19
0.195
0.12
0.035
-0.255
-0.11
-0.115
-0.055
0.12
0.075
0.235
0.225
0.12
-0.005
-0.215
-0.1
-0.075
0.0
0.11
0.115
0.3
0.28
0.08
-0.055
-0.255
-0.11
-0.045
-0.045
0.07
0.15
0.295
0.25
0.17
-0.09
-0.27
-0.055
-0.085
-0.025
0.095
0.125
0.27
0.235
0.105
-0.045
-0.265
-0.13
-0.045
-0.075
0.07
0.155
0.345
0.25
0.105
-0.125
-0.25
-0.11
-0.115
-0.035
0.1
0.09
0.315
0.3
0.12
-0.115
-0.25
-0.105
-0.075
-0.06
0.065
0.1
0.33
0.27
0.12
-0.14
-0.25
-0.1
-0.11
0.0
0.13
0.1
0.345
0.21
0.08
-0.18
-0.25
-0.03
-0.03
0.0
0.09
0.13
0.35
0.27
0.095
-0.125
-0.19
-0.095
-0.015
0.015
0.135
0.16
0.38
0.185
0.135
-0.145
-0.2
-0.06
-0.03
0.045
0.08
0.21
0.36
0.165
0.075
-0.21
-0.21
-0.085
-0.07
0.015
0.1
0.185
0.375
0.165
0.055
-0.255
-0.14
-0.07
-0.11
0.015
0.065
0.2
0.27
0.115
0.04
-0.23
-0.16
-0.055
-0.05
0.005
0.125
0.235
0.29
0.165
0.045
-0.295
-0.14
-0.06
-0.095
0.03
0.055
0.195
0.285
0.12
-0.02
-0.24
-0.085
0.05
0.12
0.3
0.445
0.645
0.765
0.63
0.435
0.16
0.185
0.15
0.135
0.235
0.165
0.28
0.12
-0.105
-0.245
-0.415
-0.275
-0.27
-0.21
-0.09
0.025
0.18
0.14
0.075
-0.075
-0.24
-0.135
-0.075
-0.045
0.115
0.125
0.33
0.285
0.135
-0.025
-0.26
-0.075
-0.07
-0.01
0.08
0.18
0.4
0.265
0.155
-0.065
-0.245
-0.055
-0.055
0.03
0.11
0.12
0.4
0.345
0.18
-0.085
-0.215
-0.035
-0.03
0.055
0.165
0.165
0.36
0.275
0.17
-0.065
-0.14
0.02
-0.04
0.04
0.17
0.155
0.42
0.325
0.185
-0.115
-0.13
0.035
0.04
0.115
0.2
0.25
0.44
0.305
0.225
-0.035
-0.09
0.01
0.09
0.17
0.25
0.28
0.455
0.325
0.24
-0.045
0.015
0.095
0.16
0.23
0.34
0.365
0.49
0.36
0.27
-0.015
0.09
0.175
0.19
0.27
0.355
0.41
0.535
0.36
0.33
0.05
0.15
0.185
0.15
0.21
0.345
0.435
0.545
0.425
0.23
-0.025
0.14
0.175
0.155
0.215
0.275
0.425
0.505
0.325
0.195
-0.17
0.0
0.08
0.02
0.155
0.23
0.34
0.375
0.23
0.09
-0.17
-0.075
-0.02
0.0
0.15
0.19
0.315
0.4
0.16
0.0
-0.255
-0.12
-0.025
0.025
0.11
0.17
0.32
0.3
0.16
-0.045
-0.285
-0.01
-0.085
0.025
0.18
0.135
0.32
0.32
0.13
-0.09
-0.2
-0.065
0.005
0.01
0.185
0.15
0.31
0.31
0.17
-0.02
-0.235
-0.015
-0.025
0.025
0.09
0.185
0.365
0.33
0.155
-0.09
-0.21
-0.03
-0.02
0.055
0.17
0.165
0.34
0.255
0.15
-0.05
-0.22
-0.03
-0.04
0.05
0.105
0.14
0.355
0.255
0.045
0.005
-0.185
-0.01
0.005
0.07
0.155
0.165
0.355
0.28
0.2
-0.06
-0.175
-0.085
-0.045
0.07
0.17
0.125
0.31
0.28
0.125
-0.095
-0.115
0.0
-0.01
0.05
0.135
0.125
0.365
0.245
0.155
-0.125
-0.155
-0.06
-0.06
0.07
0.155
0.185
0.375
0.21
0.165
-0.145
-0.13
-0.05
-0.025
0.095
0.18
0.19
0.42
0.245
0.19
-0.135
-0.065
0.025
0.055
0.095
0.21
0.305
0.375
0.215
0.14
-0.135
-0.04
-0.035
0.04
0.165
0.165
0.295
0.38
0.23
0.12
-0.16
-0.025
0.015
0.025
0.12
0.2
0.315
0.305
0.165
0.025
-0.225
-0.075
-0.01
-0.025
0.155
0.205
0.31
0.32
0.22
0.02
-0.185
-0.165
-0.045
0.035
0.12
0.18
0.345
0.32
0.16
-0.025
-0.26
-0.07
-0.05
0.0
0.14
0.165
0.325
0.31
0.105
-0.05
-0.255
-0.065
-0.04
-0.005
0.145
0.1
0.31
0.285
0.2
0.1
-0.09
0.235
0.275
0.4
0.57
0.63
0.84
0.72
0.465
0.14
-0.085
0.04
-0.035
0.045
-0.01
-0.085
0.095
0.1
-0.035
-0.23
-0.385
-0.215
-0.15
-0.06
0.075
0.075
0.27
0.26
0.135
-0.135
-0.28
-0.035
0.035
0.095
0.15
0.115
0.415
0.285
0.185
-0.035
-0.18
0.005
-0.04
0.025
0.185
0.205
0.385
0.265
0.175
-0.045
-0.09
-0.035
-0.02
0.09
0.205
0.205
0.415
0.285
0.165
-0.105
-0.11
0.04
0.035
0.06
0.2
0.29
0.38
0.26
0.23
-0.115
-0.055
0.08
0.06
0.075
0.25
0.355
0.435
0.275
0.13
-0.075
0.015
0.105
0.135
0.15
0.235
0.33
0.475
0.365
0.16
-0.11
0.07
0.12
0.135
0.19
0.285
0.425
0.495
0.355
0.24
-0.135
0.09
0.14
0.18
0.26
0.315
0.48
0.56
0.39
0.215
0.0
0.165
0.18
0.2
0.335
0.37
0.54
0.575
0.395
0.225
-0.015
0.2
0.2
0.22
0.33
0.39
0.55
0.55
0.37
0.15
-0.015
0.1
0.1
0.16
0.33
0.29
0.45
0.445
0.28
0.055
-0.17
-0.015
0.0
0.09
0.225
0.225
0.385
0.325
0.21
0.005
-0.235
-0.06
-0.03
0.055
0.16
0.175
0.36
0.29
0.205
-0.04
-0.275
0.0
0.025
0.055
0.14
0.13
0.35
0.28
0.15
-0.11
-0.255
0.02
-0.035
0.045
0.16
0.165
0.365
0.255
0.135
-0.04
-0.205
-0.03
-0.06
-0.015
0.075
0.15
0.4
0.275
0.15
-0.13
-0.16
-0.01
-0.035
0.035
0.155
0.17
0.37
0.23
0.16
-0.06
-0.11
-0.045
-0.015
0.02
0.18
0.2
0.365
0.245
0.13
-0.14
-0.125
-0.04
-0.015
0.04
0.115
0.17
0.32
0.195
0.17
-0.145
-0.155
-0.025
-0.025
0.085
0.16
0.23
0.35
0.21
0.135
-0.18
-0.075
-0.055
-0.045
0.03
0.17
0.27
0.355
0.21
0.115
-0.205
-0.12
-0.095
-0.015
-0.01
0.155
0.31
0.315
0.18
0.08
-0.125
-0.085
-0.035
-0.005
0.095
0.105
0.29
0.315
0.12
0.015
-0.17
-0.005
-0.01
-0.015
0.09
0.165
0.345
0.325
0.17
-0.01
-0.245
-0.085
0.005
0.04
0.135
0.17
0.355
0.34
0.205
-0.02
-0.23
-0.035
-0.01
0.015
0.17
0.17
0.345
0.325
0.2
0.03
-0.22
-0.01
0.0
0.045
0.18
0.19
0.36
0.265
0.18
-0.035
-0.21
-0.075
-0.03
-0.005
0.09
0.16
0.38
0.29
0.14
-0.02
-0.24
-0.11
-0.075
0.005
0.13
0.17
0.32
0.255
0.11
-0.1
-0.215
-0.105
-0.045
0.01
0.145
0.185
0.305
0.22
0.07
-0.17
-0.23
-0.05
-0.03
0.02
0.085
0.14
0.26
0.2
0.105
-0.09
-0.175
-0.095
-0.075
0.045
0.19
0.3
0.525
0.475
0.495
0.305
0.32
0.445
0.46
0.43
0.41
0.35
0.51
0.325
0.14
-0.155
-0.26
-0.29
-0.25
-0.145
-0.04
-0.02
0.17
0.045
0.01
-0.265
-0.16
-0.115
-0.09
0.035
0.065
0.25
0.33
0.185
0.105
-0.235
-0.1
-0.015
0.01
0.11
0.215
0.26
0.355
0.215
0.105
-0.155
-0.065
0.035
0.02
0.075
0.17
0.29
0.33
0.22
0.12
-0.145
-0.005
0.0
-0.02
0.12
0.21
0.34
0.44
0.215
0.075
-0.15
-0.05
-0.025
0.04
0.195
0.195
0.37
0.38
0.225
0.055
-0.175
-0.03
0.035
0.09
0.21
0.215
0.41
0.375
0.19
0.035
-0.115
0.01
0.1
0.12
0.18
0.255
0.46
0.445
0.265
0.05
-0.1
0.06
0.095
0.105
0.32
0.355
0.495
0.41
0.33
0.15
-0.115
0.13
0.19
0.22
0.3
0.295
0.535
0.51
0.355
0.15
0.0
0.135
0.15
0.19
0.38
0.365
0.52
0.435
0.35
0.13
-0.09
0.205
0.15
0.21
0.32
0.35
0.52
0.435
0.325
0.08
-0.065
0.04
0.06
0.14
0.195
0.175
0.44
0.345
0.185
-0.045
-0.13
-0.02
0.025
0.09
0.15
0.105
0.39
0.29
0.105
-0.17
-0.15
-0.07
-0.1
-0.005
0.165
0.195
0.36
0.185
0.11
-0.155
-0.17
-0.09
-0.04
-0.015
0.145
0.175
0.32
0.21
0.14
-0.22
-0.185
-0.105
-0.015
0.045
0.18
0.205
0.36
0.185
0.1
-0.22
-0.095
-0.035
-0.025
-0.005
0.13
0.26
0.29
0.15
0.115
-0.205
-0.11
-0.055
-0.035
0.02
0.135
0.245
0.36
0.21
0.065
-0.245
-0.05
-0.07
-0.03
0.09
0.21
0.285
0.305
0.065
0.03
-0.2
-0.09
-0.025
-0.02
0.09
0.095
0.37
0.31
0.18
0.06
-0.25
-0.105
-0.05
-0.02
0.09
0.15
0.28
0.265
0.085
-0.045
-0.24
-0.075
-0.065
-0.01
0.06
0.13
0.35
0.25
0.12
-0.035
-0.26
-0.1
-0.06
-0.035
0.08
0.135
0.345
0.25
0.11
-0.11
-0.31
-0.08
-0.04
0.005
0.07
0.145
0.31
0.265
0.09
-0.12
-0.27
-0.08
-0.08
-0.075
0.07
0.12
0.325
0.31
0.12
-0.125
-0.295
-0.065
-0.065
-0.015
0.105
0.15
0.3
0.225
0.145
-0.09
-0.225
-0.065
-0.035
0.02
0.085
0.13
0.32
0.21
0.14
-0.155
-0.215
0.0
-0.08
0.005
0.135
0.125
0.32
0.26
0.095
-0.175
-0.22
-0.115
-0.115
0.0
0.075
0.065
0.28
0.165
0.06
-0.22
-0.195
-0.1
-0.105
-0.015
0.06
0.08
0.295
0.165
0.055
-0.225
-0.195
-0.105
-0.08
-0.08
0.075
0.16
0.27
0.155
0.04
-0.24
-0.155
-0.15
-0.125
-0.04
0.09
0.18
0.25
0.09
0.015
-0.345
-0.18
-0.15
-0.1
0.005
0.135
0.355
0.455
0.35
0.34
0.175
0.365
0.385
0.315
0.365
0.325
0.42
0.44
0.195
-0.01
-0.345
-0.28
-0.275
-0.28
-0.11
-0.075
0.06
0.1
-0.075
-0.22
-0.425
-0.255
-0.21
-0.135
0.06
0.06
0.24
0.23
0.09
-0.1
-0.27
-0.14
-0.065
-0.11
0.05
0.14
0.29
0.23
0.085
-0.045
-0.295
-0.08
-0.06
-0.065
0.02
0.17
0.32
0.26
0.11
-0.085
-0.275
-0.115
-0.09
-0.085
0.15
0.095
0.285
0.295
0.1
-0.06
-0.255
-0.06
-0.005
0.025
0.09
0.115
0.33
0.295
0.11
-0.055
-0.235
-0.035
-0.105
0.015
0.175
0.165
0.4
0.265
0.155
-0.065
-0.225
-0.06
-0.015
0.065
0.16
0.165
0.385
0.27
0.175
-0.045
-0.12
0.01
-0.02
0.05
0.205
0.245
0.405
0.315
0.27
0.0
-0.085
0.06
0.05
0.13
0.27
0.32
0.515
0.37
0.25
-0.01
-0.02
0.14
0.135
0.165
0.255
0.325
0.485
0.41
0.27
-0.07
0.0
0.095
0.12
0.16
0.25
0.29
0.455
0.315
0.17
-0.105
-0.04
-0.02
-0.015
0.08
0.145
0.205
0.335
0.19
0.1
-0.245
-0.135
-0.09
-0.075
0.03
0.11
0.205
0.265
0.1
-0.005
-0.265
-0.17
-0.115
-0.135
0.01
0.12
0.185
0.2
0.14
-0.075
-0.35
-0.16
-0.06
-0.045
0.04
0.065
0.2
0.23
0.065
-0.1
-0.355
-0.195
-0.14
-0.075
-0.005
0.035
0.22
0.26
0.08
-0.16
-0.35
-0.18
-0.105
-0.055
0.03
0.06
0.205
0.245
0.09
-0.125
-0.325
-0.185
-0.155
-0.06
0.04
0.055
0.27
0.24
0.085
-0.12
-0.355
-0.13
-0.105
-0.135
0.055
0.085
0.245
0.265
0.02
-0.145
-0.32
-0.11
-0.14
-0.06
0.03
0.095
0.28
0.215
0.035
-0.13
-0.35
-0.16
-0.135
-0.065
0.095
0.065
0.27
0.135
0.02
-0.18
-0.25
-0.135
-0.165
-0.045
0.005
0.065
0.27
0.18
0.075
-0.225
-0.315
-0.14
-0.165
-0.105
0.055
0.07
0.335
0.13
-0.035
-0.245
-0.25
-0.11
-0.15
-0.07
0.06
0.065
0.225
0.105
0.06
-0.26
-0.24
-0.14
-0.1
-0.05
0.025
0.145
0.22
0.115
0.015
-0.245
-0.215
-0.065
-0.08
0.005
0.09
0.195
0.275
0.09
0.04
-0.305
-0.16
-0.1
-0.09
-0.03
0.075
0.205
0.275
0.085
0.005
-0.225
-0.155
-0.12
-0.11
-0.03
0.05
0.18
0.24
0.06
-0.065
-0.28
-0.205
-0.13
-0.08
0.005
0.035
0.15
0.235
0.075
-0.12
-0.33
-0.17
-0.11
-0.175
0.025
0.075
0.18
0.14
0.035
-0.075
-0.335
-0.2
-0.15
-0.16
0.05
0.045
0.185
0.205
0.02
-0.15
-0.35
-0.19
-0.155
-0.11
-0.09
0.005
0.19
0.19
-0.005
-0.21
-0.395
-0.185
-0.115
0.0
0.26
0.325
0.54
0.585
0.45
0.36
0.08
0.145
0.05
0.065
0.195
0.15
0.285
0.1
-0.125
-0.36
-0.555
-0.38
-0.335
-0.24
-0.16
-0.18
0.12
0.105
-0.07
-0.35
-0.395
-0.22
-0.19
-0.11
-0.01
0.03
0.245
0.16
0.075
-0.2
-0.375
-0.155
-0.16
-0.05
0.02
0.045
0.28
0.195
0.045
-0.22
-0.265
-0.115
-0.125
-0.015
0.025
0.03
0.28
0.2
0.035
-0.21
-0.205
-0.09
-0.065
-0.02
0.09
0.09
0.34
0.15
0.09
-0.28
-0.215
-0.03
-0.035
-0.015
0.14
0.175
0.29
0.18
0.055
-0.165
-0.165
-0.105
-0.045
0.035
0.12
0.18
0.325
0.17
0.12
-0.18
-0.1
-0.04
0.005
0.08
0.165
0.285
0.37
0.225
0.13
-0.22
-0.035
0.025
0.095
0.12
0.235
0.33
0.425
0.31
0.155
-0.13
0.06
0.11
0.125
0.165
0.3
0.385
0.43
0.325
0.18
-0.1
0.06
0.075
0.125
0.26
0.295
0.37
0.445
0.275
0.09
-0.175
0.04
0.03
0.07
0.23
0.195
0.35
0.335
0.185
0.02
-0.22
-0.035
-0.015
0.005
0.11
0.095
0.27
0.225
0.07
-0.05
-0.28
-0.145
-0.12
-0.095
0.02
0.005
0.265
0.285
0.03
-0.18
-0.34
-0.155
-0.135
-0.115
-0.005
0.045
0.235
0.185
0.075
-0.18
-0.36
-0.18
-0.19
-0.1
0.02
0.07
0.23
0.17
0.03
-0.215
-0.38
-0.215
-0.16
-0.09
0.03
0.095
0.25
0.09
0.07
-0.185
-0.335
-0.165
-0.14
-0.055
0.015
0.03
0.245
0.11
0.055
-0.185
-0.365
-0.1
-0.14
-0.105
0.035
0.03
0.28
0.18
0.045
-0.28
-0.27
-0.11
-0.12
-0.06
0.06
0.085
0.255
0.13
0.035
-0.235
-0.21
-0.145
-0.12
-0.065
0.005
0.15
0.305
0.165
0.01
-0.275
-0.2
-0.16
-0.14
-0.03
0.08
0.09
0.22
0.085
0.015
-0.3
-0.21
-0.175
-0.065
-0.015
0.09
0.105
0.21
0.085
-0.005
-0.305
-0.205
-0.155
-0.045
-0.065
0.025
0.22
0.22
0.01
0.005
-0.32
-0.185
-0.145
-0.1
-0.02
0.085
0.2
0.22
0.08
-0.055
-0.34
-0.17
-0.15
-0.17
0.04
0.075
0.2
0.23
0.15
-0.085
-0.35
-0.16
-0.13
-0.075
0.09
0.045
0.22
0.25
0.11
-0.065
-0.355
-0.145
-0.085
-0.05
0.03
0.03
0.205
0.26
0.085
-0.075
-0.315
-0.105
-0.075
-0.115
0.03
0.1
0.235
0.19
0.1
-0.13
-0.375
-0.15
-0.135
-0.11
-0.045
0.03
0.295
0.185
0.045
-0.17
-0.345
-0.18
-0.175
-0.095
0.0
-0.02
0.24
0.175
0.02
-0.2
-0.37
-0.17
-0.175
-0.095
0.015
0.035
0.24
0.15
0.02
-0.2
-0.34
-0.225
-0.16
-0.105
-0.045
0.03
0.2
0.15
0.04
-0.275
-0.39
-0.145
-0.07
-0.02
0.25
0.335
0.63
0.6
0.545
0.275
0.18
0.215
0.075
0.14
0.205
0.155
0.295
0.08
-0.11
-0.435
-0.455
-0.295
-0.34
-0.265
-0.14
-0.035
0.08
-0.015
-0.005
-0.33
-0.275
-0.19
-0.12
-0.065
0.04
0.09
0.255
0.15
0.04
-0.24
-0.225
-0.12
-0.115
-0.025
0.09
0.135
0.31
0.13
-0.005
-0.26
-0.175
-0.13
-0.065
-0.02
0.13
0.27
0.26
0.11
0.0
-0.235
-0.14
-0.04
-0.055
0.07
0.1
0.29
0.27
0.145
-0.03
-0.33
-0.12
-0.065
0.005
0.11
0.14
0.26
0.28
0.14
0.01
-0.26
-0.095
-0.005
-0.005
0.12
0.175
0.305
0.305
0.11
0.005
-0.265
-0.015
-0.02
0.055
0.15
0.22
0.335
0.325
0.14
0.035
-0.135
0.005
0.09
0.075
0.205
0.225
0.4
0.415
0.27
0.05
-0.165
0.01
0.065
0.18
0.215
0.275
0.52
0.455
0.18
0.065
-0.12
0.115
0.125
0.165
0.22
0.28
0.48
0.435
0.3
0.06
-0.13
0.005
0.025
0.095
0.245
0.245
0.45
0.375
0.19
-0.07
-0.24
-0.04
-0.095
0.035
0.13
0.145
0.38
0.2
0.07
-0.175
-0.24
-0.08
-0.095
0.005
0.085
0.07
0.27
0.19
0.06
-0.21
-0.23
-0.11
-0.105
-0.075
0.045
0.09
0.26
0.145
0.045
-0.23
-0.26
-0.185
-0.085
-0.04
0.035
0.12
0.225
0.17
0.045
-0.22
-0.18
-0.115
-0.095
-0.07
0.05
0.095
0.2
0.165
0.075
-0.24
-0.225
-0.105
-0.115
-0.02
0.07
0.21
0.295
0.135
0.055
-0.23
-0.135
-0.085
-0.095
-0.03
0.12
0.16
0.25
0.18
0.0
-0.325
-0.16
-0.085
-0.09
-0.01
0.045
0.27
0.285
0.15
-0.025
-0.295
-0.135
-0.085
-0.045
0.045
0.02
0.18
0.325
0.13
-0.055
-0.28
-0.115
-0.07
-0.135
0.005
0.13
0.265
0.29
0.115
-0.05
-0.355
-0.135
-0.11
-0.065
0.085
0.08
0.24
0.26
0.135
-0.1
-0.33
-0.13
-0.095
-0.07
0.025
0.075
0.265
0.235
0.08
-0.105
-0.32
-0.145
-0.125
-0.115
0.065
0.1
0.29
0.215
0.15
-0.105
-0.28
-0.135
-0.165
-0.02
0.03
0.09
0.335
0.225
0.145
-0.185
-0.33
-0.105
-0.16
-0.04
0.1
0.075
0.315
0.205
0.08
-0.12
-0.285
-0.05
-0.145
-0.025
0.11
0.125
0.335
0.25
0.055
-0.18
-0.22
-0.06
-0.09
-0.035
0.08
0.12
0.295
0.245
0.135
-0.115
-0.205
-0.12
-0.065
0.025
0.135
0.15
0.32
0.165
0.025
-0.22
-0.2
-0.145
-0.05
-0.035
-0.015
0.13
0.325
0.115
0.045
-0.205
-0.175
-0.11
-0.11
-0.03
0.13
0.135
0.28
0.135
0.035
-0.23
-0.205
-0.115
-0.07
-0.065
0.105
0.18
0.26
0.135
0.04
-0.275
-0.16
-0.1
-0.145
-0.08
0.065
0.21
0.305
0.105
0.045
-0.25
-0.09
0.04
0.12
0.255
0.455
0.665
0.72
0.645
0.44
0.1
0.15
0.065
0.105
0.17
0.085
0.225
0.175
-0.085
-0.255
-0.51
-0.285
-0.24
-0.22
-0.1
-0.025
0.16
0.165
0.05
-0.12
-0.3
-0.115
-0.085
-0.035
0.045
0.155
0.335
0.275
0.12
-0.055
-0.255
-0.055
-0.02
-0.045
0.115
0.12
0.345
0.315
0.155
-0.055
-0.275
-0.065
-0.085
0.01
0.14
0.135
0.37
0.29
0.165
-0.045
-0.25
-0.13
-0.05
0.045
0.115
0.185
0.36
0.295
0.195
-0.09
-0.215
-0.025
-0.015
0.065
0.12
0.17
0.405
0.3
0.185
-0.065
-0.235
0.015
-0.005
0.045
0.135
0.2
0.43
0.355
0.185
-0.06
-0.12
0.025
0.05
0.16
0.2
0.26
0.495
0.34
0.26
-0.025
-0.105
0.105
0.12
0.145
0.25
0.25
0.47
0.42
0.325
-0.04
0.02
0.12
0.165
0.265
0.3
0.4
0.55
0.39
0.315
0.015
0.045
0.14
0.19
0.175
0.345
0.395
0.575
0.38
0.325
-0.065
0.05
0.05
0.18
0.2
0.31
0.36
0.44
0.26
0.345
-0.06
-0.06
0.015
0.04
0.13
0.235
0.27
0.365
0.2
0.11
-0.235
-0.115
-0.03
0.06
0.09
0.16
0.275
0.295
0.18
0.055
-0.23
-0.095
-0.085
-0.02
0.125
0.185
0.285
0.31
0.12
-0.035
-0.195
-0.165
-0.01
-0.02
0.13
0.145
0.305
0.3
0.11
0.005
-0.225
-0.155
-0.04
0.05
0.13
0.09
0.335
0.375
0.14
-0.025
-0.225
-0.04
-0.02
-0.005
0.125
0.17
0.335
0.33
0.14
-0.08
-0.23
-0.09
-0.045
0.005
0.085
0.15
0.38
0.36
0.17
-0.085
-0.26
-0.06
-0.07
0.01
0.095
0.175
0.335
0.28
0.185
-0.055
-0.255
-0.05
-0.055
0.045
0.13
0.125
0.34
0.295
0.165
-0.065
-0.23
-0.055
-0.06
0.055
0.14
0.155
0.375
0.275
0.14
-0.16
-0.19
-0.06
-0.015
0.045
0.105
0.13
0.36
0.225
0.185
-0.11
-0.2
-0.075
-0.04
0.035
0.115
0.15
0.365
0.245
0.135
-0.165
-0.165
-0.015
-0.06
-0.025
0.145
0.165
0.365
0.16
0.125
-0.09
-0.095
-0.08
-0.01
0.03
0.135
0.19
0.375
0.19
0.16
-0.14
-0.14
-0.03
-0.015
-0.005
0.155
0.26
0.35
0.205
0.115
-0.17
-0.15
-0.03
0.0
0.015
0.165
0.245
0.375
0.22
0.11
-0.205
-0.085
-0.03
-0.01
0.12
0.17
0.245
0.335
0.225
0.09
-0.15
-0.05
0.015
0.025
0.16
0.205
0.34
0.36
0.2
0.045
-0.2
-0.07
0.025
0.055
0.215
0.21
0.36
0.36
0.2
-0.04
-0.22
-0.04
-0.02
-0.015
0.13
0.15
0.34
0.31
0.135
0.045
-0.23
-0.1
-0.085
0.03
0.145
0.2
0.34
0.265
0.19
-0.045
-0.255
-0.015
-0.025
0.015
0.135
0.12
0.365
0.29
0.15
-0.035
-0.3
0.0
-0.005
-0.005
0.075
0.1
0.375
0.3
0.13
-0.095
-0.295
-0.065
-0.06
-0.05
0.18
0.255
0.55
0.48
0.44
0.345
0.225
0.495
0.455
0.41
0.54
0.41
0.55
0.42
0.215
-0.025
-0.26
-0.22
-0.235
-0.195
-0.01
-0.015
0.215
0.13
-0.01
-0.235
-0.24
-0.1
-0.105
0.02
0.135
0.17
0.365
0.225
0.14
-0.13
-0.12
-0.005
0.005
0.08
0.18
0.23
0.37
0.285
0.19
-0.095
-0.07
0.005
0.0
0.105
0.2
0.26
0.395
0.27
0.19
-0.11
-0.035
0.03
0.055
0.14
0.22
0.285
0.41
0.255
0.19
-0.09
-0.015
0.06
0.065
0.06
0.25
0.355
0.41
0.27
0.25
-0.07
-0.045
0.065
0.135
0.19
0.27
0.35
0.405
0.33
0.16
-0.105
0.03
0.105
0.155
0.31
0.27
0.415
0.465
0.33
0.19
-0.055
0.095
0.135
0.195
0.295
0.295
0.465
0.52
0.37
0.25
0.005
0.19
0.22
0.215
0.395
0.43
0.545
0.5
0.435
0.22
0.005
0.185
0.245
0.235
0.395
0.445
0.57
0.56
0.405
0.23
0.0
0.21
0.21
0.25
0.34
0.455
0.56
0.465
0.355
0.19
0.0
0.14
0.15
0.175
0.23
0.28
0.49
0.455
0.26
0.05
-0.14
0.055
0.025
0.1
0.205
0.235
0.41
0.38
0.155
-0.05
-0.185
-0.015
0.04
0.11
0.235
0.205
0.405
0.305
0.205
-0.08
-0.2
-0.03
-0.03
0.06
0.195
0.185
0.39
0.32
0.165
-0.09
-0.14
-0.01
-0.015
0.06
0.215
0.235
0.42
0.285
0.17
-0.12
-0.08
0.01
-0.01
0.1
0.225
0.24
0.405
0.265
0.195
-0.105
-0.08
-0.005
0.055
0.08
0.17
0.245
0.425
0.285
0.19
-0.14
-0.06
0.02
0.075
0.13
0.13
0.33
0.38
0.275
0.195
-0.13
-0.055
0.005
0.06
0.095
0.235
0.33
0.4
0.28
0.175
-0.155
0.02
-0.01
0.085
0.165
0.24
0.33
0.395
0.275
0.115
-0.18
-0.065
-0.005
0.025
0.18
0.275
0.35
0.34
0.2
0.06
-0.135
0.04
0.035
0.085
0.2
0.2
0.37
0.355
0.2
0.095
-0.17
-0.05
-0.025
0.02
0.2
0.285
0.385
0.4
0.245
0.04
-0.22
0.01
0.055
0.125
0.2
0.215
0.395
0.335
0.205
-0.015
-0.165
0.015
0.03
0.065
0.165
0.195
0.46
0.375
0.195
0.01
-0.24
-0.04
0.025
0.06
0.22
0.25
0.41
0.33
0.165
0.0
-0.15
0.01
0.015
0.115
0.205
0.215
0.425
0.33
0.175
-0.03
-0.15
0.05
0.04
0.095
0.205
0.22
0.425
0.325
0.195
-0.02
-0.11
0.045
0.005
0.145
0.245
0.23
0.445
0.365
0.23
-0.05
-0.07
0.07
0.05
0.125
0.225
0.305
0.455
0.315
0.15
-0.035
-0.055
0.045
0.085
0.13
0.235
0.265
0.42
0.34
0.195
-0.07
-0.055
0.025
0.055
0.14
0.21
0.25
0.415
0.275
0.155
-0.1
-0.035
0.01
0.02
0.09
0.215
0.285
0.365
0.265
0.215
-0.14
-0.01
-0.02
0.06
0.135
0.2
0.3
0.405
0.185
0.115
-0.11
0.0
0.045
0.065
0.105
0.18
0.255
0.415
0.275
0.07
-0.2
0.045
0.15
0.19
0.375
0.45
0.69
0.805
0.76
0.53
0.25
0.335
0.25
0.29
0.365
0.31
0.4
0.335
0.085
-0.125
-0.375
-0.225
-0.14
-0.095
0.01
0.015
0.275
0.29
0.075
-0.1
-0.205
0.01
0.01
0.03
0.215
0.265
0.425
0.355
0.2
0.02
-0.1
0.035
0.09
0.13
0.2
0.25
0.43
0.38
0.31
0.045
-0.13
0.075
0.05
0.135
0.22
0.245
0.475
0.35
0.285
0.05
-0.13
0.05
0.11
0.17
0.22
0.255
0.45
0.38
0.325
0.05
-0.095
0.075
0.11
0.205
0.3
0.28
0.525
0.425
0.305
0.05
-0.03
0.09
0.145
0.21
0.35
0.33
0.525
0.45
0.315
0.06
-0.015
0.11
0.15
0.17
0.365
0.385
0.57
0.45
0.39
0.11
0.095
0.195
0.22
0.235
0.37
0.425
0.625
0.475
0.405
0.13
0.15
0.26
0.295
0.365
0.455
0.52
0.605
0.48
0.44
0.16
0.205
0.265
0.29
0.33
0.465
0.555
0.6
0.5
0.415
0.085
0.19
0.255
0.35
0.33
0.405
0.5
0.595
0.495
0.315
-0.005
0.06
0.19
0.185
0.265
0.325
0.45
0.485
0.305
0.14
-0.11
0.045
0.125
0.115
0.22
0.25
0.415
0.415
0.245
0.105
-0.145
0.01
0.05
0.11
0.175
0.23
0.435
0.385
0.24
0.04
-0.2
0.035
0.035
0.145
0.21
0.225
0.43
0.445
0.24
0.045
-0.165
0.045
0.03
0.13
0.22
0.285
0.445
0.385
0.25
0.02
-0.19
0.03
0.08
0.075
0.22
0.24
0.42
0.385
0.27
0.055
-0.17
0.045
0.005
0.13
0.195
0.23
0.425
0.355
0.255
0.05
-0.12
0.08
0.08
0.05
0.22
0.255
0.505
0.42
0.245
-0.03
-0.16
0.085
0.09
0.13
0.205
0.25
0.465
0.385
0.26
-0.005
-0.085
0.045
0.055
0.15
0.25
0.255
0.445
0.335
0.25
-0.035
-0.11
0.065
0.085
0.14
0.25
0.26
0.455
0.325
0.205
-0.015
-0.03
0.0
0.085
0.17
0.26
0.34
0.455
0.22
0.205
-0.055
-0.01
0.065
0.085
0.13
0.21
0.34
0.42
0.295
0.245
-0.075
0.01
0.1
0.05
0.13
0.22
0.305
0.46
0.3
0.205
-0.09
0.005
0.055
0.07
0.115
0.26
0.315
0.495
0.31
0.18
-0.105
-0.005
0.065
0.115
0.18
0.28
0.4
0.385
0.31
0.16
-0.08
0.005
0.08
0.13
0.22
0.29
0.405
0.475
0.26
0.115
-0.06
0.065
0.145
0.17
0.29
0.26
0.42
0.44
0.31
0.105
-0.085
0.11
0.105
0.09
0.21
0.305
0.51
0.475
0.275
0.09
-0.13
0.045
0.045
0.07
0.225
0.25
0.47
0.395
0.26
0.105
-0.135
0.015
0.04
0.15
0.2
0.2
0.395
0.405
0.265
0.055
-0.11
0.05
0.07
0.105
0.22
0.255
0.415
0.31
0.225
0.065
-0.16
0.03
0.04
0.065
0.225
0.28
0.42
0.295
0.25
-0.025
-0.125
-0.01
-0.01
0.1
0.21
0.315
0.615
0.56
0.525
0.38
0.365
0.57
0.55
0.56
0.55
0.42
0.605
0.545
0.3
0.005
-0.11
-0.135
-0.115
-0.065
0.06
0.14
0.305
0.145
0.015
-0.19
-0.215
-0.05
0.075
0.11
0.215
0.295
0.42
0.325
0.235
-0.1
0.025
0.08
0.075
0.14
0.24
0.32
0.485
0.36
0.27
-0.07
0.025
0.095
0.095
0.185
0.32
0.395
0.485
0.315
0.225
-0.03
0.03
0.155
0.185
0.225
0.34
0.465
0.525
0.33
0.21
-0.04
0.085
0.14
0.15
0.26
0.27
0.495
0.51
0.32
0.23
-0.075
0.155
0.165
0.14
0.305
0.315
0.53
0.535
0.4
0.215
-0.025
0.115
0.165
0.22
0.295
0.35
0.51
0.525
0.375
0.215
0.04
0.24
0.275
0.26
0.375
0.465
0.605
0.605
0.435
0.25
0.07
0.25
0.26
0.33
0.405
0.495
0.675
0.64
0.51
0.265
0.11
0.265
0.26
0.375
0.43
0.51
0.67
0.64
0.49
0.28
0.08
0.25
0.295
0.36
0.46
0.425
0.635
0.565
0.46
0.195
0.04
0.23
0.17
0.2
0.4
0.36
0.595
0.445
0.355
0.105
-0.065
0.105
0.125
0.205
0.275
0.32
0.48
0.37
0.28
0.01
-0.075
0.055
0.06
0.175
0.24
0.255
0.48
0.335
0.275
0.01
-0.035
0.02
0.06
0.15
0.24
0.285
0.49
0.35
0.23
-0.08
-0.025
0.025
0.095
0.135
0.245
0.31
0.47
0.345
0.265
-0.075
0.025
0.05
0.095
0.19
0.23
0.335
0.465
0.305
0.21
-0.025
0.015
0.05
0.11
0.2
0.315
0.315
0.435
0.36
0.305
-0.08
0.045
0.145
0.135
0.18
0.275
0.375
0.465
0.31
0.185
-0.075
0.005
0.145
0.145
0.245
0.265
0.405
0.475
0.325
0.19
-0.145
0.05
0.115
0.12
0.215
0.235
0.505
0.44
0.325
0.145
-0.1
0.015
0.09
0.16
0.275
0.25
0.445
0.415
0.29
0.115
-0.085
0.05
0.115
0.14
0.22
0.275
0.435
0.4
0.275
0.08
-0.14
0.045
0.075
0.14
0.265
0.32
0.455
0.39
0.27
0.06
-0.115
0.05
0.04
0.13
0.21
0.28
0.465
0.425
0.3
0.06
-0.18
0.08
0.055
0.14
0.27
0.275
0.49
0.41
0.2
-0.045
-0.015
0.075
0.065
0.14
0.23
0.245
0.45
0.42
0.29
0.025
-0.055
0.1
0.11
0.18
0.275
0.275
0.515
0.375
0.29
-0.03
-0.035
0.115
0.145
0.16
0.31
0.325
0.485
0.355
0.275
-0.025
0.03
0.115
0.095
0.165
0.245
0.3
0.455
0.27
0.245
-0.03
-0.015
0.125
0.11
0.145
0.145
0.27
0.47
0.355
0.24
-0.055
0.04
0.025
0.045
0.19
0.25
0.365
0.465
0.29
0.23
-0.1
-0.045
0.015
0.14
0.195
0.24
0.375
0.44
0.25
0.215
-0.13
0.02
0.05
0.095
0.18
0.26
0.325
0.395
0.29
0.24
-0.035
0.205
0.26
0.375
0.68
0.705
0.945
0.97
0.705
0.435
0.09
0.195
0.245
0.195
0.23
0.175
0.24
0.22
0.1
-0.06
-0.3
-0.125
-0.045
-0.03
0.125
0.125
0.34
0.35
0.24
0.105
-0.075
0.085
0.09
0.185
0.225
0.25
0.46
0.445
0.285
0.07
-0.1
0.03
0.065
0.095
0.29
0.26
0.545
0.45
0.275
0.15
-0.075
0.12
0.11
0.195
0.3
0.325
0.51
0.425
0.305
0.1
-0.1
0.095
0.135
0.215
0.33
0.345
0.525
0.445
0.33
0.13
-0.085
0.1
0.085
0.2
0.36
0.325
0.565
0.47
0.34
0.02
-0.02
0.175
0.17
0.21
0.37
0.39
0.54
0.485
0.365
0.085
0.005
0.13
0.215
0.315
0.41
0.415
0.645
0.525
0.445
0.08
0.125
0.28
0.275
0.285
0.445
0.495
0.7
0.52
0.43
0.17
0.24
0.35
0.305
0.37
0.515
0.535
0.695
0.525
0.47
0.165
0.195
0.305
0.315
0.385
0.5
0.585
0.695
0.51
0.41
0.095
0.205
0.26
0.265
0.33
0.395
0.5
0.53
0.465
0.33
0.005
0.135
0.195
0.185
0.265
0.35
0.495
0.51
0.305
0.205
-0.045
0.1
0.065
0.13
0.26
0.295
0.43
0.46
0.245
0.13
-0.13
0.025
0.13
0.155
0.255
0.25
0.45
0.45
0.265
0.14
-0.105
0.065
0.095
0.145
0.26
0.27
0.43
0.405
0.24
0.115
-0.12
0.1
0.11
0.13
0.23
0.275
0.515
0.475
0.27
0.075
-0.145
0.04
0.12
0.185
0.25
0.275
0.47
0.395
0.275
0.08
-0.075
0.035
0.065
0.135
0.29
0.29
0.47
0.425
0.3
0.035
-0.11
0.13
0.11
0.135
0.25
0.315
0.445
0.445
0.31
0.02
-0.085
0.05
0.05
0.22
0.275
0.29
0.49
0.38
0.255
0.07
-0.035
0.075
0.09
0.175
0.24
0.26
0.515
0.355
0.265
-0.015
-0.04
0.065
0.1
0.095
0.27
0.295
0.475
0.35
0.265
-0.01
-0.01
0.1
0.09
0.155
0.275
0.31
0.475
0.275
0.245
-0.015
-0.015
0.13
0.105
0.145
0.24
0.31
0.44
0.355
0.28
-0.065
0.005
0.055
0.13
0.175
0.215
0.335
0.455
0.32
0.215
-0.075
0.09
0.105
0.115
0.155
0.28
0.42
0.495
0.325
0.22
-0.06
0.065
0.15
0.065
0.245
0.385
0.385
0.465
0.33
0.23
-0.045
0.055
0.135
0.17
0.26
0.305
0.445
0.46
0.345
0.13
-0.06
0.085
0.105
0.145
0.23
0.225
0.45
0.46
0.29
0.095
-0.09
0.055
0.125
0.095
0.25
0.245
0.33
0.46
0.31
0.115
-0.17
0.04
0.125
0.125
0.195
0.305
0.435
0.41
0.235
0.06
-0.165
0.075
0.09
0.145
0.205
0.24
0.435
0.42
0.235
0.04
-0.23
0.03
0.06
0.075
0.24
0.24
0.445
0.415
0.325
0.13
0.01
0.26
0.345
0.43
0.625
0.755
0.985
0.865
0.63
0.27
0.055
0.22
0.165
0.155
0.205
0.12
0.17
0.18
0.06
-0.16
-0.245
-0.045
-0.11
0.035
0.12
0.2
0.44
0.345
0.21
-0.045
-0.08
0.055
0.025
0.16
0.255
0.205
0.58
0.42
0.25
-0.005
0.015
0.04
0.105
0.16
0.29
0.335
0.5
0.38
0.25
-0.01
0.025
0.13
0.15
0.15
0.295
0.35
0.475
0.395
0.245
-0.02
0.1
0.115
0.14
0.115
0.325
0.435
0.525
0.41
0.295
-0.08
0.11
0.1
0.18
0.22
0.305
0.515
0.56
0.385
0.235
-0.02
0.1
0.17
0.22
0.275
0.375
0.535
0.585
0.405
0.205
0.07
0.13
0.21
0.21
0.37
0.405
0.575
0.565
0.425
0.27
0.015
0.21
0.255
0.31
0.44
0.435
0.62
0.67
0.535
0.23
0.06
0.255
0.285
0.29
0.455
0.515
0.66
0.625
0.47
0.35
0.115
0.295
0.32
0.325
0.405
0.495
0.69
0.605
0.45
0.305
0.115
0.25
0.275
0.3
0.355
0.46
0.605
0.495
0.365
0.155
-0.04
0.185
0.115
0.22
0.305
0.33
0.46
0.385
0.285
0.14
-0.09
0.12
0.03
0.17
0.25
0.24
0.465
0.41
0.25
0.025
-0.055
0.05
0.025
0.12
0.215
0.23
0.465
0.415
0.24
-0.04
-0.045
0.075
0.06
0.155
0.3
0.27
0.515
0.36
0.235
-0.07
-0.07
0.045
0.08
0.135
0.3
0.325
0.455
0.3
0.265
-0.01
0.03
0.09
0.04
0.155
0.225
0.31
0.485
0.315
0.24
-0.015
-0.045
0.08
0.13
0.185
0.205
0.325
0.575
0.345
0.185
-0.05
0.08
0.09
0.095
0.18
0.215
0.33
0.44
0.385
0.26
-0.075
0.065
0.085
0.095
0.185
0.305
0.405
0.5
0.28
0.195
-0.1
0.045
0.12
0.09
0.17
0.245
0.38
0.49
0.35
0.16
-0.12
0.045
0.04
0.135
0.23
0.265
0.45
0.42
0.29
0.13
-0.09
0.03
0.13
0.105
0.22
0.295
0.47
0.41
0.245
0.13
-0.115
0.055
0.075
0.13
0.23
0.305
0.47
0.415
0.26
0.07
-0.105
0.075
0.09
0.14
0.215
0.295
0.485
0.425
0.305
0.09
-0.17
0.1
0.045
0.21
0.275
0.275
0.51
0.495
0.285
0.04
-0.09
0.1
0.05
0.21
0.26
0.305
0.545
0.45
0.33
0.09
-0.115
0.045
0.08
0.135
0.24
0.275
0.505
0.41
0.265
0.045
-0.125
0.095
0.045
0.17
0.215
0.25
0.44
0.335
0.25
-0.015
-0.115
0.055
0.095
0.18
0.27
0.25
0.41
0.32
0.27
-0.01
-0.07
0.045
0.095
0.185
0.275
0.285
0.455
0.355
0.24
-0.09
-0.15
0.05
0.125
0.165
0.215
0.295
0.48
0.275
0.19
-0.05
0.095
0.2
0.255
0.375
0.55
0.8
0.895
0.825
0.71
0.315
0.3
0.275
0.27
0.275
0.29
0.27
0.28
0.085
0.025
-0.255
-0.135
-0.095
-0.12
0.025
0.17
0.225
0.35
0.28
0.13
-0.18
-0.005
0.1
0.155
0.235
0.28
0.425
0.45
0.295
0.155
-0.08
0.01
0.125
0.165
0.305
0.33
0.475
0.41
0.31
0.135
-0.075
0.035
0.07
0.18
0.33
0.29
0.46
0.455
0.325
0.125
-0.095
0.07
0.16
0.255
0.29
0.325
0.53
0.46
0.34
0.175
-0.035
0.16
0.145
0.145
0.34
0.375
0.54
0.47
0.35
0.115
-0.055
0.14
0.225
0.23
0.35
0.37
0.565
0.505
0.36
0.17
-0.01
0.18
0.155
0.28
0.4
0.4
0.57
0.56
0.395
0.21
0.025
0.245
0.17
0.28
0.465
0.435
0.625
0.58
0.505
0.27
0.135
0.315
0.31
0.345
0.49
0.485
0.67
0.62
0.49
0.23
0.185
0.28
0.31
0.385
0.51
0.51
0.715
0.58
0.49
0.185
0.14
0.265
0.29
0.335
0.425
0.47
0.605
0.445
0.405
0.03
0.045
0.2
0.205
0.255
0.33
0.345
0.515
0.385
0.29
-0.02
0.005
0.085
0.15
0.165
0.27
0.39
0.51
0.37
0.19
-0.015
0.055
0.09
0.125
0.16
0.29
0.4
0.465
0.3
0.225
-0.065
0.01
0.105
0.11
0.195
0.25
0.375
0.38
0.3
0.185
-0.085
0.05
0.14
0.13
0.25
0.27
0.415
0.45
0.21
0.175
-0.09
0.04
0.08
0.115
0.245
0.305
0.5
0.48
0.27
0.105
-0.085
0.065
0.12
0.13
0.21
0.31
0.475
0.435
0.325
0.145
-0.075
0.06
0.135
0.165
0.24
0.275
0.495
0.405
0.31
0.1
-0.145
0.11
0.155
0.175
0.25
0.26
0.485
0.48
0.29
0.08
-0.135
0.025
0.09
0.12
0.28
0.305
0.49
0.38
0.32
0.08
-0.125
0.115
0.085
0.195
0.26
0.315
0.455
0.395
0.245
0.04
-0.115
0.09
0.07
0.12
0.28
0.33
0.545
0.35
0.27
0.03
-0.02
0.11
0.105
0.16
0.275
0.22
0.45
0.38
0.27
0.065
0.025
0.1
0.1
0.26
0.285
0.305
0.525
0.375
0.31
-0.025
0.035
0.15
0.18
0.175
0.28
0.3
0.54
0.405
0.285
0.015
0.055
0.08
0.13
0.175
0.3
0.335
0.44
0.375
0.255
-0.065
-0.025
0.02
0.085
0.17
0.245
0.365
0.485
0.3
0.24
-0.045
-0.005
0.065
0.1
0.145
0.245
0.365
0.445
0.325
0.215
-0.095
0.025
0.055
0.105
0.205
0.245
0.4
0.44
0.29
0.08
-0.145
0.09
0.055
0.055
0.225
0.23
0.36
0.46
0.305
0.17
0.035
0.28
0.36
0.445
0.655
0.735
0.895
0.87
0.62
0.34
0.085
0.205
0.16
0.12
0.17
0.12
0.245
0.3
0.075
-0.09
-0.31
-0.145
-0.095
-0.03
0.125
0.155
0.32
0.335
0.26
0.06
-0.115
0.08
0.105
