# TIPE ECG 2021 - ECG-ID Database v1.0.0 par Physionet
# [Numéro de la personne, Période d'échantillonnage, Prénom, Age, Sexe, Date de l'enregistrement]
[03, 0.002, Edna, 23, F, 15.03.2005]
0.135
0.06
-0.085
-0.235
-0.335
-0.305
-0.11
0.09
0.405
0.665
0.785
0.86
0.815
0.64
0.55
0.54
0.63
0.795
0.785
0.505
0.37
0.285
0.06
-0.155
-0.35
-0.335
-0.295
-0.08
0.165
0.155
0.005
0.125
-0.065
-0.185
-0.365
-0.315
-0.235
-0.015
0.135
0.165
0.16
0.115
-0.105
-0.22
-0.315
-0.355
-0.315
-0.22
0.065
0.23
0.215
0.165
-0.125
-0.265
-0.295
-0.315
-0.345
-0.135
0.095
0.19
0.14
0.02
-0.065
-0.255
-0.395
-0.34
-0.315
-0.025
0.07
0.185
0.205
0.07
-0.04
-0.27
-0.335
-0.25
-0.23
-0.03
0.165
0.185
0.145
0.095
-0.085
-0.28
-0.345
-0.285
-0.29
-0.04
0.13
0.18
0.225
0.105
-0.11
-0.34
-0.32
-0.21
-0.16
0.025
0.165
0.23
0.21
0.17
-0.075
-0.27
-0.315
-0.215
-0.14
0.04
0.215
0.17
0.1
0.135
0.03
-0.22
-0.28
-0.235
-0.115
-0.005
0.185
0.335
0.265
0.18
0.01
-0.175
-0.225
-0.2
-0.035
0.13
0.295
0.285
0.235
0.23
0.01
-0.15
-0.18
-0.075
0.02
0.23
0.36
0.41
0.335
0.21
0.005
-0.115
-0.085
-0.085
0.05
0.17
0.415
0.43
0.34
0.235
0.075
-0.095
-0.155
-0.11
0.135
0.235
0.32
0.45
0.3
0.05
-0.175
-0.175
-0.2
-0.14
0.0
0.17
0.295
0.26
0.19
0.04
-0.16
-0.3
-0.31
-0.25
-0.135
0.13
0.245
0.18
0.11
-0.03
-0.275
-0.345
-0.355
-0.315
-0.17
0.115
0.22
0.165
0.06
-0.105
-0.27
-0.345
-0.36
-0.365
-0.165
0.1
0.19
0.155
0.105
-0.075
-0.25
-0.29
-0.33
-0.32
-0.175
0.07
0.225
0.19
0.125
-0.11
-0.29
-0.37
-0.335
-0.29
-0.095
0.095
0.095
0.08
0.065
-0.105
-0.35
-0.28
-0.205
-0.21
-0.025
0.095
0.165
0.12
0.005
-0.215
-0.305
-0.365
-0.305
-0.27
-0.01
0.17
0.155
0.15
0.1
-0.1
-0.335
-0.345
-0.265
-0.245
-0.015
0.095
0.205
0.105
0.0
-0.175
-0.345
-0.385
-0.305
-0.2
-0.025
0.01
0.065
0.06
0.095
-0.15
-0.325
-0.375
-0.35
-0.185
0.05
0.095
0.105
0.1
0.06
-0.18
-0.315
-0.36
-0.295
-0.145
0.02
0.18
0.105
0.045
0.04
-0.155
-0.31
-0.37
-0.285
-0.135
0.045
0.16
0.13
0.085
-0.025
-0.155
-0.29
-0.415
-0.315
-0.15
-0.01
0.19
0.185
-0.01
0.025
-0.24
-0.345
-0.325
-0.265
-0.16
0.045
0.185
0.17
0.06
-0.055
-0.22
-0.31
-0.325
-0.36
-0.145
0.11
0.125
0.19
0.16
-0.05
-0.27
-0.365
-0.35
-0.3
-0.06
0.055
0.185
0.135
0.08
-0.13
-0.235
-0.33
-0.32
-0.295
-0.11
0.085
0.195
0.085
0.08
-0.07
-0.235
-0.37
-0.29
-0.275
-0.095
0.05
0.17
0.14
0.095
-0.135
-0.265
-0.34
-0.245
-0.19
-0.015
0.14
0.195
0.16
0.135
-0.125
-0.245
-0.345
-0.26
-0.255
-0.05
0.125
0.24
0.22
0.1
-0.16
-0.295
-0.34
-0.345
-0.245
-0.07
0.065
0.18
0.1
-0.06
-0.18
-0.3
-0.335
-0.315
-0.225
-0.085
0.075
0.085
0.08
0.005
-0.165
-0.34
-0.365
-0.41
-0.295
-0.025
0.085
0.13
0.025
0.01
-0.13
-0.41
-0.475
-0.395
-0.15
0.005
0.1
0.095
0.075
0.035
-0.21
-0.34
-0.41
-0.32
-0.2
-0.03
0.03
-0.025
-0.03
-0.03
-0.32
-0.37
-0.295
-0.095
0.08
0.375
0.69
0.835
0.875
0.805
0.615
0.505
0.505
0.545
0.64
0.57
0.365
0.26
0.145
-0.01
-0.21
-0.375
-0.38
-0.415
-0.175
0.155
0.21
0.225
0.17
-0.01
-0.225
-0.33
-0.385
-0.36
-0.18
0.025
0.155
0.13
0.145
-0.025
-0.255
-0.385
-0.31
-0.31
-0.135
0.055
0.15
0.105
0.04
-0.09
-0.305
-0.405
-0.365
-0.315
-0.16
-0.015
0.055
0.105
0.1
-0.02
-0.215
-0.33
-0.255
-0.26
-0.09
0.005
0.105
0.17
0.13
-0.055
-0.23
-0.415
-0.345
-0.235
-0.08
0.065
0.135
0.105
0.055
-0.075
-0.23
-0.29
-0.265
-0.325
-0.065
0.15
0.2
0.125
0.07
-0.175
-0.365
-0.4
-0.36
-0.235
-0.02
0.2
0.245
0.21
0.11
-0.11
-0.315
-0.325
-0.255
-0.295
0.085
0.26
0.26
0.185
0.12
-0.045
-0.225
-0.265
-0.22
-0.135
0.02
0.135
0.275
0.23
0.135
-0.02
-0.195
-0.215
-0.145
-0.04
0.165
0.295
0.345
0.265
0.165
0.02
-0.195
-0.145
-0.095
-0.08
0.205
0.4
0.395
0.345
0.225
0.035
-0.055
-0.09
-0.095
-0.025
0.405
0.45
0.42
0.325
0.24
0.02
-0.04
-0.095
-0.055
0.06
0.22
0.35
0.325
0.3
0.13
-0.085
-0.215
-0.26
-0.225
-0.01
0.155
0.23
0.215
0.09
0.02
-0.275
-0.305
-0.25
-0.235
-0.07
0.11
0.18
0.11
0.1
-0.025
-0.265
-0.315
-0.29
-0.37
-0.225
0.075
0.115
0.195
0.045
-0.075
-0.315
-0.395
-0.295
-0.295
-0.14
0.025
0.115
0.125
0.105
-0.13
-0.26
-0.345
-0.375
-0.32
-0.095
0.065
0.13
0.08
0.04
-0.18
-0.295
-0.43
-0.31
-0.335
-0.17
0.055
0.135
0.05
0.075
-0.145
-0.275
-0.385
-0.435
-0.355
-0.05
0.025
0.08
0.14
0.045
-0.1
-0.27
-0.425
-0.4
-0.35
-0.08
0.105
0.145
0.095
0.015
-0.13
-0.345
-0.425
-0.37
-0.295
-0.07
0.07
0.07
0.095
0.04
-0.25
-0.36
-0.295
-0.34
-0.255
-0.09
0.105
0.235
0.1
-0.035
-0.18
-0.345
-0.405
-0.365
-0.23
0.015
0.145
0.155
0.09
0.005
-0.245
-0.4
-0.38
-0.385
-0.31
-0.01
0.15
0.2
0.12
0.045
-0.14
-0.36
-0.39
-0.315
-0.2
-0.025
0.085
-0.015
0.11
-0.04
-0.15
-0.305
-0.395
-0.35
-0.2
0.015
0.16
0.09
0.035
0.0
-0.22
-0.33
-0.31
-0.31
-0.205
-0.005
0.16
0.195
0.1
-0.065
-0.28
-0.34
-0.41
-0.29
-0.12
0.035
0.11
0.14
0.08
-0.055
-0.24
-0.355
-0.375
-0.325
-0.17
0.11
0.24
0.095
0.08
-0.09
-0.315
-0.36
-0.37
-0.3
-0.13
0.01
0.06
0.09
0.125
-0.065
-0.22
-0.395
-0.38
-0.375
-0.11
0.125
0.155
0.09
0.09
-0.065
-0.25
-0.375
-0.35
-0.29
-0.135
0.065
0.175
0.12
0.005
-0.12
-0.255
-0.345
-0.295
-0.24
-0.08
0.095
0.18
0.15
0.12
-0.08
-0.215
-0.35
-0.355
-0.25
0.02
0.16
0.165
0.175
0.075
-0.135
-0.27
-0.26
-0.295
-0.21
0.01
0.15
0.155
0.16
0.095
-0.15
-0.38
-0.4
-0.27
-0.18
0.0
0.01
0.115
0.08
0.005
-0.205
-0.34
-0.415
-0.35
-0.28
-0.07
0.075
0.085
0.035
-0.02
-0.22
-0.405
-0.35
-0.345
-0.205
-0.03
0.09
0.175
0.14
0.0
-0.16
-0.425
-0.47
-0.33
-0.195
0.005
0.13
0.04
0.03
-0.02
-0.21
-0.36
-0.38
-0.28
-0.185
-0.065
0.02
0.015
-0.05
-0.15
-0.275
-0.335
-0.225
-0.09
0.105
0.48
0.745
0.945
0.91
0.865
0.675
0.565
0.47
0.495
0.63
0.615
0.44
0.35
0.245
0.02
-0.225
-0.485
-0.35
-0.19
-0.075
0.12
0.19
0.165
0.12
-0.025
-0.235
-0.36
-0.385
-0.335
-0.135
-0.005
0.105
0.095
0.04
-0.09
-0.3
-0.38
-0.38
-0.28
-0.06
0.09
0.185
0.15
0.075
-0.135
-0.395
-0.405
-0.38
-0.325
-0.12
0.075
0.12
0.075
0.11
-0.03
-0.31
-0.35
-0.44
-0.315
-0.085
0.08
0.195
0.17
0.05
-0.075
-0.275
-0.365
-0.345
-0.31
-0.125
0.115
0.16
0.1
0.13
-0.115
-0.32
-0.44
-0.41
-0.285
-0.025
0.1
0.145
0.145
0.09
-0.125
-0.255
-0.305
-0.285
-0.22
-0.01
0.08
0.195
0.12
0.15
-0.14
-0.32
-0.37
-0.35
-0.175
0.09
0.145
0.175
0.175
0.09
-0.09
-0.25
-0.29
-0.26
-0.155
0.055
0.21
0.175
0.18
0.085
-0.085
-0.29
-0.245
-0.165
-0.045
0.11
0.27
0.255
0.175
0.12
-0.015
-0.195
-0.125
-0.1
-0.025
0.21
0.36
0.3
0.27
0.19
0.0
-0.075
-0.17
-0.155
0.015
0.255
0.285
0.24
0.39
0.275
0.015
-0.105
-0.115
-0.11
-0.015
0.195
0.29
0.28
0.215
0.13
-0.085
-0.185
-0.225
-0.21
-0.045
0.16
0.2
0.155
0.08
0.02
-0.155
-0.305
-0.295
-0.265
-0.105
0.015
0.08
0.135
0.05
-0.145
-0.36
-0.34
-0.38
-0.33
-0.13
0.035
0.23
0.11
0.095
-0.08
-0.335
-0.385
-0.285
-0.245
-0.13
0.02
0.1
0.12
0.06
-0.12
-0.3
-0.395
-0.325
-0.27
-0.13
0.025
0.14
0.12
0.035
-0.11
-0.315
-0.4
-0.365
-0.315
-0.165
-0.03
0.125
0.15
0.08
-0.14
-0.285
-0.39
-0.385
-0.3
-0.115
0.055
0.16
0.17
0.07
-0.17
-0.36
-0.41
-0.365
-0.295
-0.1
0.11
0.09
0.075
0.08
-0.195
-0.345
-0.415
-0.38
-0.23
-0.05
0.05
0.085
0.055
0.07
-0.12
-0.42
-0.46
-0.415
-0.245
-0.04
0.04
0.125
0.085
0.04
-0.205
-0.39
-0.43
-0.415
-0.29
-0.045
0.085
0.115
0.055
-0.025
-0.295
-0.465
-0.455
-0.295
-0.105
0.02
0.105
0.06
0.08
-0.025
-0.225
-0.385
-0.475
-0.35
-0.29
-0.09
0.015
0.2
0.08
-0.065
-0.275
-0.34
-0.355
-0.305
-0.25
-0.05
0.12
0.15
0.025
-0.145
-0.27
-0.44
-0.37
-0.36
-0.24
0.035
0.165
0.075
0.03
-0.105
-0.31
-0.35
-0.4
-0.345
-0.255
0.015
0.09
0.1
0.0
-0.16
-0.385
-0.495
-0.485
-0.265
-0.035
0.07
0.13
0.105
0.06
-0.105
-0.33
-0.49
-0.46
-0.375
-0.22
0.085
0.185
0.095
0.06
-0.12
-0.315
-0.405
-0.395
-0.385
-0.225
0.005
0.075
0.025
0.05
-0.095
-0.355
-0.385
-0.44
-0.35
-0.155
-0.025
0.06
0.04
-0.005
-0.195
-0.37
-0.4
-0.395
-0.31
-0.045
0.07
0.075
0.16
0.14
-0.11
-0.315
-0.345
-0.33
-0.34
-0.07
0.08
0.135
0.055
-0.025
-0.125
-0.305
-0.375
-0.255
-0.23
-0.035
0.07
0.165
0.11
-0.005
-0.18
-0.405
-0.46
-0.4
-0.34
-0.17
0.06
0.13
0.005
-0.035
-0.19
-0.4
-0.425
-0.38
-0.33
-0.125
0.005
0.02
-0.01
0.035
-0.19
-0.425
-0.5
-0.43
-0.315
-0.115
0.055
0.09
0.035
-0.055
-0.28
-0.455
-0.415
-0.41
-0.335
-0.12
0.07
0.105
0.06
-0.07
-0.25
-0.42
-0.48
-0.465
-0.35
-0.16
-0.045
-0.045
-0.07
-0.15
-0.24
-0.22
-0.145
0.01
0.22
0.535
0.935
0.965
0.935
0.86
0.675
0.545
0.505
0.485
0.37
0.33
0.24
0.215
0.15
-0.025
-0.25
-0.37
-0.345
-0.35
-0.22
-0.02
0.085
0.14
0.015
-0.095
-0.23
-0.34
-0.41
-0.345
-0.19
-0.035
0.085
0.155
0.135
-0.08
-0.26
-0.42
-0.41
-0.33
-0.125
0.015
0.165
0.09
0.035
-0.1
-0.355
-0.445
-0.36
-0.3
-0.11
0.04
0.095
0.12
0.085
-0.105
-0.345
-0.44
-0.38
-0.38
-0.125
0.05
0.12
0.12
0.015
-0.17
-0.34
-0.395
-0.34
-0.33
-0.105
0.1
0.165
0.07
-0.01
-0.2
-0.33
-0.395
-0.39
-0.355
-0.08
0.1
0.15
0.025
0.04
-0.12
-0.305
-0.365
-0.355
-0.235
-0.06
0.085
0.14
0.12
0.005
-0.18
-0.365
-0.39
-0.355
-0.265
-0.075
0.105
0.095
0.13
0.03
-0.215
-0.24
-0.29
-0.285
-0.135
0.07
0.195
0.17
0.18
0.07
-0.15
-0.305
-0.315
-0.235
-0.165
0.075
0.245
0.33
0.19
0.1
-0.085
-0.205
-0.21
-0.2
-0.07
0.165
0.28
0.29
0.24
0.135
-0.03
-0.165
-0.23
-0.2
0.025
0.22
0.315
0.28
0.18
0.175
0.03
-0.26
-0.26
-0.115
-0.04
0.11
0.235
0.19
0.22
0.09
-0.21
-0.34
-0.29
-0.215
-0.15
0.015
0.13
0.145
0.09
-0.085
-0.305
-0.45
-0.435
-0.355
-0.195
-0.03
0.07
-0.005
-0.025
-0.135
-0.385
-0.5
-0.415
-0.37
-0.195
-0.04
0.05
0.015
-0.015
-0.205
-0.405
-0.46
-0.515
-0.425
-0.27
0.01
0.08
-0.015
-0.02
-0.205
-0.41
-0.57
-0.52
-0.445
-0.2
-0.015
0.1
0.085
-0.04
-0.3
-0.44
-0.5
-0.44
-0.385
-0.215
0.02
0.035
0.0
-0.055
-0.275
-0.425
-0.5
-0.475
-0.41
-0.18
-0.06
0.03
0.005
-0.025
-0.265
-0.4
-0.495
-0.465
-0.31
-0.135
-0.02
0.04
-0.035
-0.07
-0.34
-0.515
-0.515
-0.44
-0.395
-0.16
-0.045
0.0
0.01
-0.075
-0.3
-0.39
-0.495
-0.49
-0.375
-0.1
0.035
0.07
-0.01
-0.1
-0.41
-0.62
-0.48
-0.405
-0.305
-0.1
0.04
0.045
-0.02
-0.13
-0.335
-0.51
-0.505
-0.415
-0.335
-0.15
-0.035
0.0
-0.06
-0.15
-0.335
-0.505
-0.525
-0.475
-0.345
-0.13
-0.04
-0.06
-0.1
-0.125
-0.37
-0.555
-0.47
-0.42
-0.315
-0.13
-0.04
-0.015
-0.05
-0.175
-0.41
-0.59
-0.595
-0.555
-0.34
-0.095
0.055
0.045
0.005
-0.125
-0.42
-0.56
-0.55
-0.42
-0.235
-0.1
-0.015
0.005
-0.1
-0.245
-0.44
-0.48
-0.5
-0.445
-0.26
-0.085
-0.01
-0.025
-0.08
-0.165
-0.45
-0.54
-0.505
-0.44
-0.28
-0.065
0.025
-0.025
-0.055
-0.24
-0.48
-0.52
-0.61
-0.525
-0.34
-0.185
-0.005
0.035
-0.015
-0.28
-0.455
-0.525
-0.515
-0.43
-0.21
-0.025
-0.03
-0.055
-0.105
-0.305
-0.45
-0.545
-0.545
-0.465
-0.23
-0.075
-0.04
-0.025
-0.05
-0.21
-0.48
-0.49
-0.4
-0.39
-0.205
-0.055
0.0
-0.07
-0.085
-0.22
-0.415
-0.48
-0.495
-0.38
-0.13
0.015
0.07
0.0
-0.12
-0.335
-0.47
-0.565
-0.545
-0.375
-0.15
-0.03
-0.04
-0.035
-0.105
-0.31
-0.47
-0.555
-0.44
-0.435
-0.23
-0.075
-0.02
-0.085
-0.145
-0.435
-0.495
-0.54
-0.525
-0.435
-0.245
-0.055
-0.03
-0.145
-0.17
-0.335
-0.53
-0.56
-0.545
-0.395
-0.24
-0.12
-0.1
-0.13
-0.15
-0.45
-0.59
-0.595
-0.54
-0.435
-0.26
-0.085
-0.04
-0.135
-0.27
-0.445
-0.565
-0.52
-0.535
-0.48
-0.275
-0.185
-0.135
-0.165
-0.21
-0.38
-0.345
-0.175
0.035
0.295
0.6
0.8
0.83
0.79
0.65
0.53
0.395
0.27
0.02
0.035
0.08
0.095
0.025
-0.095
-0.23
-0.455
-0.46
-0.44
-0.46
-0.3
-0.12
-0.04
-0.11
-0.09
-0.24
-0.405
-0.56
-0.515
-0.515
-0.29
-0.125
-0.06
-0.06
-0.095
-0.3
-0.5
-0.585
-0.615
-0.52
-0.275
-0.105
-0.025
-0.12
-0.2
-0.35
-0.52
-0.56
-0.565
-0.525
-0.315
-0.105
0.08
0.055
-0.125
-0.435
-0.61
-0.605
-0.58
-0.515
-0.295
-0.165
-0.015
-0.05
-0.045
-0.335
-0.525
-0.535
-0.52
-0.48
-0.325
-0.135
-0.105
-0.125
-0.205
-0.4
-0.49
-0.585
-0.545
-0.44
-0.21
-0.05
-0.055
-0.13
-0.175
-0.355
-0.555
-0.625
-0.505
-0.32
-0.24
-0.045
-0.035
-0.13
-0.225
-0.43
-0.565
-0.52
-0.465
-0.51
-0.255
0.065
0.06
-0.005
-0.26
-0.405
-0.56
-0.53
-0.405
-0.3
-0.07
0.025
0.0
-0.13
-0.195
-0.375
-0.495
-0.44
-0.345
-0.265
-0.13
-0.03
-0.01
0.0
-0.11
-0.32
-0.445
-0.505
-0.385
-0.2
-0.01
0.155
0.12
0.03
-0.125
-0.4
-0.39
-0.405
-0.305
-0.09
0.045
0.085
0.07
0.025
-0.14
-0.29
-0.42
-0.445
-0.37
-0.28
-0.055
0.0
-0.02
-0.005
-0.215
-0.395
-0.585
-0.54
-0.455
-0.285
-0.155
-0.045
-0.08
-0.18
-0.35
-0.555
-0.69
-0.72
-0.57
-0.345
-0.22
-0.14
-0.12
-0.18
-0.415
-0.575
-0.725
-0.685
-0.585
-0.4
-0.29
-0.14
-0.165
-0.24
-0.5
-0.585
-0.59
-0.635
-0.605
-0.35
-0.255
-0.195
-0.275
-0.27
-0.425
-0.59
-0.67
-0.71
-0.585
-0.395
-0.255
-0.19
-0.245
-0.36
-0.515
-0.685
-0.65
-0.62
-0.48
-0.33
-0.185
-0.19
-0.185
-0.255
-0.47
-0.615
-0.73
-0.69
-0.515
-0.375
-0.195
-0.03
-0.175
-0.2
-0.455
-0.59
-0.685
-0.68
-0.575
-0.35
-0.195
-0.095
-0.175
-0.26
-0.44
-0.655
-0.635
-0.57
-0.505
-0.28
-0.24
-0.2
-0.16
-0.255
-0.425
-0.6
-0.66
-0.59
-0.5
-0.285
-0.11
-0.12
-0.24
-0.355
-0.505
-0.6
-0.62
-0.56
-0.575
-0.39
-0.11
-0.05
-0.07
-0.3
-0.5
-0.615
-0.74
-0.65
-0.51
-0.31
-0.145
-0.025
-0.145
-0.255
-0.42
-0.63
-0.605
-0.565
-0.405
-0.215
-0.105
-0.155
-0.165
-0.325
-0.535
-0.66
-0.595
-0.54
-0.365
-0.15
-0.055
-0.085
-0.175
-0.35
-0.53
-0.635
-0.605
-0.57
-0.455
-0.225
-0.145
-0.12
-0.155
-0.3
-0.49
-0.605
-0.61
-0.51
-0.375
-0.24
-0.125
-0.105
-0.2
-0.345
-0.555
-0.585
-0.505
-0.515
-0.32
-0.17
-0.02
-0.07
-0.11
-0.32
-0.5
-0.685
-0.64
-0.59
-0.36
-0.17
-0.15
-0.11
-0.1
-0.32
-0.56
-0.64
-0.56
-0.52
-0.355
-0.17
-0.035
-0.14
-0.21
-0.415
-0.575
-0.62
-0.555
-0.47
-0.32
-0.145
-0.05
-0.115
-0.13
-0.39
-0.57
-0.565
-0.52
-0.51
-0.3
-0.145
-0.165
-0.16
-0.125
-0.36
-0.535
-0.53
-0.46
-0.39
-0.145
-0.005
-0.03
-0.07
-0.17
-0.4
-0.5
-0.55
-0.53
-0.435
-0.31
-0.12
-0.09
-0.075
-0.19
-0.45
-0.52
-0.5
-0.53
-0.45
-0.305
-0.115
-0.1
-0.15
-0.28
-0.515
-0.585
-0.6
-0.595
-0.48
-0.295
-0.175
-0.17
-0.215
-0.32
-0.415
-0.495
-0.555
-0.525
-0.495
-0.355
-0.15
-0.015
-0.105
-0.275
-0.49
-0.595
-0.58
-0.515
-0.46
-0.27
-0.175
-0.17
-0.195
-0.355
-0.49
-0.59
-0.585
-0.68
-0.585
-0.34
-0.23
-0.195
-0.105
-0.19
-0.24
-0.265
-0.135
0.05
0.355
0.62
0.84
0.83
0.815
0.78
0.575
0.455
0.275
-0.085
-0.15
-0.04
-0.025
-0.025
-0.05
-0.295
-0.51
-0.57
-0.55
-0.53
-0.38
-0.205
-0.115
-0.165
-0.14
-0.375
-0.65
-0.665
-0.58
-0.52
-0.37
-0.24
-0.19
-0.17
-0.12
-0.335
-0.55
-0.575
-0.605
-0.555
-0.355
-0.17
-0.15
-0.14
-0.175
-0.395
-0.56
-0.615
-0.575
-0.55
-0.37
-0.23
-0.165
-0.16
-0.165
-0.46
-0.64
-0.675
-0.655
-0.53
-0.345
-0.23
-0.125
-0.14
-0.3
-0.45
-0.635
-0.655
-0.61
-0.505
-0.33
-0.205
-0.145
-0.255
-0.235
-0.385
-0.595
-0.615
-0.565
-0.515
-0.34
-0.13
-0.115
-0.09
-0.15
-0.395
-0.57
-0.63
-0.565
-0.48
-0.265
-0.13
-0.15
-0.19
-0.255
-0.44
-0.545
-0.555
-0.515
-0.345
-0.215
-0.075
-0.085
-0.17
-0.295
-0.57
-0.66
-0.535
-0.44
-0.32
-0.18
0.06
0.025
-0.05
-0.165
-0.37
-0.55
-0.565
-0.535
-0.41
-0.18
0.04
0.075
0.05
-0.115
-0.31
-0.435
-0.385
-0.365
-0.335
-0.065
0.18
0.165
0.085
-0.03
-0.225
-0.4
-0.32
-0.355
-0.09
0.1
0.17
0.105
0.095
-0.1
-0.31
-0.42
-0.4
-0.435
-0.305
-0.09
0.02
-0.01
0.045
-0.18
-0.35
-0.465
-0.47
-0.435
-0.295
-0.17
-0.055
-0.055
-0.105
-0.36
-0.54
-0.62
-0.585
-0.56
-0.4
-0.215
-0.1
-0.075
-0.165
-0.3
-0.56
-0.655
-0.61
-0.55
-0.38
-0.135
-0.15
-0.215
-0.245
-0.39
-0.59
-0.645
-0.6
-0.52
-0.33
-0.16
-0.11
-0.185
-0.245
-0.385
-0.655
-0.67
-0.6
-0.54
-0.365
-0.21
-0.135
-0.14
-0.195
-0.44
-0.625
-0.61
-0.59
-0.58
-0.295
-0.145
-0.09
-0.115
-0.24
-0.445
-0.57
-0.535
-0.545
-0.58
-0.445
-0.15
-0.07
-0.07
-0.2
-0.405
-0.54
-0.63
-0.615
-0.53
-0.31
-0.15
-0.08
-0.125
-0.255
-0.44
-0.525
-0.585
-0.55
-0.51
-0.325
-0.095
-0.035
-0.09
-0.205
-0.395
-0.56
-0.56
-0.525
-0.395
-0.22
-0.12
-0.12
-0.15
-0.2
-0.41
-0.53
-0.58
-0.55
-0.465
-0.235
-0.125
-0.105
-0.035
-0.28
-0.48
-0.645
-0.6
-0.595
-0.385
-0.21
-0.105
-0.175
-0.13
-0.28
-0.47
-0.65
-0.62
-0.625
-0.455
-0.27
-0.15
-0.16
-0.17
-0.345
-0.6
-0.615
-0.615
-0.58
-0.535
-0.19
-0.23
-0.15
-0.18
-0.41
-0.51
-0.59
-0.56
-0.64
-0.42
-0.225
-0.065
-0.19
-0.185
-0.37
-0.55
-0.715
-0.635
-0.575
-0.42
-0.205
-0.105
-0.17
-0.195
-0.32
-0.575
-0.675
-0.635
-0.595
-0.455
-0.295
-0.17
-0.285
-0.31
-0.445
-0.555
-0.57
-0.575
-0.55
-0.33
-0.21
-0.12
-0.195
-0.145
-0.37
-0.61
-0.7
-0.58
-0.55
-0.37
-0.235
-0.165
-0.17
-0.185
-0.37
-0.545
-0.6
-0.62
-0.53
-0.33
-0.05
-0.005
-0.16
-0.19
-0.37
-0.535
-0.57
-0.495
-0.465
-0.235
-0.15
-0.06
-0.12
-0.18
-0.415
-0.555
-0.615
-0.6
-0.46
-0.225
-0.09
-0.115
-0.185
-0.255
-0.48
-0.63
-0.665
-0.655
-0.51
-0.25
-0.11
-0.08
-0.23
-0.325
-0.54
-0.665
-0.63
-0.575
-0.485
-0.26
-0.185
-0.16
-0.19
-0.3
-0.455
-0.57
-0.615
-0.68
-0.47
-0.255
-0.145
-0.105
-0.095
-0.315
-0.555
-0.62
-0.59
-0.53
-0.415
-0.23
-0.125
-0.13
-0.225
-0.365
-0.595
-0.69
-0.735
-0.635
-0.46
-0.195
0.075
0.235
0.305
0.36
0.33
0.355
0.4
0.485
0.68
0.875
1.08
0.985
0.69
0.125
-0.325
-0.475
-0.49
-0.515
-0.315
-0.205
-0.16
-0.06
-0.115
-0.29
-0.465
-0.54
-0.62
-0.57
-0.385
-0.225
-0.155
-0.165
-0.155
-0.335
-0.475
-0.615
-0.59
-0.535
-0.385
-0.255
-0.105
-0.16
-0.12
-0.31
-0.515
-0.605
-0.55
-0.5
-0.325
-0.17
-0.09
-0.14
-0.155
-0.355
-0.52
-0.63
-0.63
-0.565
-0.36
-0.19
-0.025
-0.135
-0.115
-0.285
-0.565
-0.675
-0.545
-0.57
-0.3
-0.115
-0.03
-0.09
-0.11
-0.32
-0.53
-0.58
-0.51
-0.395
-0.215
-0.035
0.03
-0.04
-0.135
-0.41
-0.545
-0.535
-0.495
-0.425
-0.27
-0.11
0.01
0.0
-0.14
-0.34
-0.485
-0.55
-0.52
-0.4
-0.18
0.01
0.085
-0.005
-0.08
-0.32
-0.475
-0.48
-0.43
-0.31
-0.165
-0.14
0.01
0.005
0.015
-0.195
-0.39
-0.435
-0.415
-0.285
0.055
0.17
0.16
0.1
0.075
-0.135
-0.38
-0.26
-0.285
-0.17
0.06
0.185
0.2
0.155
-0.03
-0.16
-0.27
-0.275
-0.18
-0.04
0.12
0.275
0.29
0.255
0.06
-0.085
-0.225
-0.16
-0.1
0.1
0.155
0.235
0.245
0.22
0.01
-0.12
-0.19
-0.19
-0.25
-0.03
0.07
0.185
0.175
0.035
-0.085
-0.32
-0.435
-0.465
-0.31
-0.115
0.005
0.09
0.145
0.04
-0.145
-0.27
-0.335
-0.45
-0.39
-0.215
-0.075
-0.06
0.015
-0.085
-0.15
-0.4
-0.485
-0.425
-0.375
-0.185
-0.05
0.025
0.01
-0.035
-0.2
-0.4
-0.445
-0.45
-0.42
-0.215
0.025
0.08
0.005
0.015
-0.18
-0.415
-0.485
-0.48
-0.42
-0.185
0.04
0.075
0.12
-0.045
-0.27
-0.43
-0.48
-0.43
-0.32
-0.125
0.075
0.07
-0.015
-0.02
-0.215
-0.385
-0.435
-0.43
-0.41
-0.145
-0.01
0.015
-0.025
-0.05
-0.285
-0.365
-0.405
-0.425
-0.42
-0.17
-0.07
0.0
0.0
-0.115
-0.355
-0.48
-0.555
-0.435
-0.3
-0.09
0.08
0.1
-0.02
-0.07
-0.38
-0.445
-0.415
-0.435
-0.35
-0.155
0.03
0.135
-0.01
-0.21
-0.36
-0.49
-0.515
-0.46
-0.32
-0.18
-0.025
0.05
-0.03
-0.145
-0.355
-0.475
-0.485
-0.455
-0.355
-0.2
-0.035
-0.045
-0.22
-0.22
-0.405
-0.5
-0.5
-0.485
-0.305
-0.075
0.035
-0.015
-0.15
-0.21
-0.43
-0.525
-0.52
-0.49
-0.365
-0.165
-0.01
-0.035
-0.035
-0.125
-0.38
-0.52
-0.51
-0.475
-0.305
-0.105
-0.02
-0.095
-0.005
-0.125
-0.49
-0.59
-0.495
-0.46
-0.375
-0.155
-0.04
-0.08
-0.115
-0.305
-0.395
-0.47
-0.505
-0.45
-0.335
-0.095
0.0
-0.06
-0.125
-0.32
-0.485
-0.545
-0.47
-0.405
-0.28
-0.09
0.03
0.08
-0.085
-0.24
-0.4
-0.5
-0.425
-0.35
-0.225
-0.055
0.035
-0.115
-0.18
-0.3
-0.44
-0.445
-0.365
-0.36
-0.19
-0.045
0.03
0.02
-0.05
-0.295
-0.535
-0.575
-0.55
-0.52
-0.25
-0.085
-0.085
-0.06
-0.105
-0.31
-0.48
-0.52
-0.5
-0.475
-0.27
-0.02
-0.08
-0.135
-0.13
-0.365
-0.68
-0.73
-0.48
-0.41
-0.21
-0.085
-0.08
-0.12
-0.17
-0.4
-0.625
-0.605
-0.465
-0.42
-0.275
-0.115
-0.125
-0.165
-0.255
-0.395
-0.6
-0.61
-0.49
-0.47
-0.33
-0.2
-0.23
-0.175
-0.305
-0.41
-0.48
-0.315
-0.16
0.105
0.475
0.745
0.915
0.835
0.835
0.69
0.64
0.645
0.545
0.415
0.26
0.185
0.11
0.025
-0.14
-0.305
-0.485
-0.545
-0.39
-0.29
-0.19
-0.1
-0.18
-0.145
-0.245
-0.375
-0.545
-0.6
-0.555
-0.295
-0.215
-0.065
-0.07
-0.095
-0.25
-0.49
-0.57
-0.625
-0.47
-0.37
-0.21
-0.095
-0.11
-0.095
-0.19
-0.455
-0.585
-0.56
-0.495
-0.36
-0.165
-0.01
-0.045
-0.115
-0.275
-0.445
-0.57
-0.535
-0.54
-0.365
-0.12
0.01
0.035
-0.125
-0.3
-0.54
-0.58
-0.525
-0.47
-0.275
-0.135
-0.095
-0.09
-0.04
-0.26
-0.49
-0.6
-0.525
-0.46
-0.28
-0.18
-0.09
-0.045
-0.135
-0.285
-0.43
-0.495
-0.455
-0.44
-0.215
-0.115
0.01
0.015
-0.14
-0.31
-0.475
-0.555
-0.45
-0.33
-0.125
-0.04
-0.035
-0.12
-0.055
-0.385
-0.525
-0.605
-0.5
-0.35
-0.13
0.05
0.085
0.005
-0.05
-0.32
-0.355
-0.44
-0.415
-0.23
-0.085
0.03
-0.015
0.055
-0.035
-0.31
-0.475
-0.45
-0.385
-0.25
0.01
0.14
0.16
0.1
0.025
-0.145
-0.295
-0.295
-0.275
-0.155
0.035
0.18
0.1
0.08
-0.045
-0.255
-0.38
-0.37
-0.29
-0.19
0.01
0.06
0.025
-0.035
-0.19
-0.475
-0.5
-0.335
-0.325
-0.25
-0.09
0.06
0.08
-0.04
-0.225
-0.38
-0.51
-0.525
-0.475
-0.39
-0.245
-0.055
-0.055
-0.09
-0.315
-0.535
-0.605
-0.54
-0.505
-0.365
-0.22
-0.085
-0.11
-0.17
-0.26
-0.51
-0.695
-0.615
-0.52
-0.31
-0.15
-0.14
-0.14
-0.13
-0.3
-0.475
-0.595
-0.595
-0.55
-0.395
-0.28
-0.205
-0.115
-0.11
-0.345
-0.625
-0.655
-0.665
-0.585
-0.39
-0.175
-0.105
-0.1
-0.16
-0.415
-0.56
-0.635
-0.635
-0.595
-0.35
-0.22
-0.105
-0.185
-0.225
-0.39
-0.54
-0.655
-0.66
-0.605
-0.355
-0.18
-0.12
-0.14
-0.2
-0.405
-0.595
-0.665
-0.565
-0.54
-0.345
-0.23
-0.195
-0.195
-0.26
-0.48
-0.525
-0.635
-0.54
-0.465
-0.27
-0.225
-0.095
-0.24
-0.27
-0.455
-0.615
-0.655
-0.57
-0.57
-0.27
-0.145
-0.16
-0.19
-0.295
-0.475
-0.57
-0.65
-0.68
-0.535
-0.365
-0.265
-0.135
-0.17
-0.24
-0.475
-0.625
-0.765
-0.63
-0.565
-0.385
-0.255
-0.23
-0.145
-0.215
-0.45
-0.6
-0.64
-0.625
-0.51
-0.34
-0.205
-0.135
-0.265
-0.345
-0.51
-0.7
-0.715
-0.6
-0.55
-0.285
-0.165
-0.11
-0.17
-0.34
-0.555
-0.67
-0.645
-0.605
-0.48
-0.335
-0.21
-0.16
-0.265
-0.38
-0.585
-0.695
-0.665
-0.625
-0.445
-0.335
-0.155
-0.17
-0.21
-0.395
-0.55
-0.665
-0.66
-0.525
-0.375
-0.245
-0.175
-0.12
-0.175
-0.325
-0.625
-0.645
-0.575
-0.625
-0.355
-0.145
-0.095
-0.125
-0.175
-0.365
-0.61
-0.625
-0.565
-0.6
-0.39
-0.11
-0.11
-0.185
-0.275
-0.505
-0.63
-0.755
-0.715
-0.625
-0.415
-0.29
-0.27
-0.31
-0.395
-0.515
-0.66
-0.8
-0.66
-0.65
-0.52
-0.355
-0.14
-0.15
-0.345
-0.68
-0.73
-0.845
-0.695
-0.61
-0.295
-0.15
-0.2
-0.215
-0.305
-0.495
-0.625
-0.705
-0.615
-0.645
-0.36
-0.225
-0.2
-0.165
-0.27
-0.395
-0.52
-0.635
-0.685
-0.585
-0.445
-0.35
-0.28
-0.295
-0.335
-0.495
-0.52
-0.415
-0.225
-0.01
0.145
0.63
0.83
0.895
0.91
0.68
0.555
0.595
0.53
0.245
0.105
0.02
-0.05
-0.115
-0.19
-0.415
-0.6
-0.58
-0.505
-0.44
-0.225
-0.11
-0.08
-0.09
-0.125
-0.395
-0.585
-0.65
-0.605
-0.48
-0.195
-0.085
-0.005
-0.085
-0.24
-0.435
-0.595
-0.6
-0.595
-0.45
-0.25
-0.12
-0.115
-0.18
-0.31
-0.515
-0.53
-0.515
-0.485
-0.335
-0.155
-0.09
-0.1
-0.165
-0.35
-0.48
-0.605
-0.56
-0.485
-0.355
-0.26
-0.12
-0.11
-0.16
-0.34
-0.505
-0.605
-0.63
-0.545
-0.305
-0.2
-0.1
-0.125
-0.125
-0.3
-0.49
-0.525
-0.545
-0.56
-0.355
-0.14
-0.02
-0.01
-0.095
-0.33
-0.525
-0.55
-0.53
-0.515
-0.255
-0.08
-0.05
-0.07
-0.115
-0.295
-0.47
-0.58
-0.565
-0.485
-0.235
-0.14
-0.015
-0.04
-0.135
-0.355
-0.53
-0.465
-0.48
-0.43
-0.23
-0.06
0.005
-0.085
-0.04
-0.21
-0.405
-0.45
-0.43
-0.365
-0.155
0.01
0.015
0.09
-0.01
-0.22
-0.39
-0.405
-0.345
-0.19
-0.055
-0.025
0.11
0.005
0.005
-0.18
-0.335
-0.41
-0.275
-0.175
-0.015
0.13
0.165
0.035
-0.08
-0.265
-0.405
-0.455
-0.385
-0.22
0.005
0.09
0.03
-0.015
-0.12
-0.335
-0.465
-0.455
-0.38
-0.395
-0.14
-0.055
0.005
-0.1
-0.245
-0.39
-0.58
-0.615
-0.535
-0.39
-0.23
-0.16
-0.1
-0.19
-0.305
-0.425
-0.58
-0.61
-0.59
-0.43
-0.28
-0.125
-0.095
-0.165
-0.305
-0.48
-0.665
-0.64
-0.6
-0.45
-0.275
-0.26
-0.14
-0.165
-0.4
-0.52
-0.63
-0.63
-0.585
-0.365
-0.305
-0.195
-0.195
-0.155
-0.335
-0.565
-0.685
-0.775
-0.62
-0.4
-0.31
-0.185
-0.065
-0.16
-0.33
-0.51
-0.665
-0.625
-0.615
-0.445
-0.26
-0.155
-0.175
-0.24
-0.39
-0.56
-0.675
-0.61
-0.57
-0.43
-0.29
-0.19
-0.235
-0.255
-0.455
-0.65
-0.66
-0.645
-0.65
-0.37
-0.23
-0.2
-0.21
-0.31
-0.48
-0.59
-0.68
-0.66
-0.6
-0.41
-0.29
-0.21
-0.215
-0.3
-0.495
-0.65
-0.685
-0.675
-0.62
-0.47
-0.32
-0.195
-0.18
-0.305
-0.515
-0.64
-0.695
-0.665
-0.575
-0.405
-0.34
-0.21
-0.28
-0.34
-0.535
-0.67
-0.705
-0.62
-0.57
-0.4
-0.19
-0.155
-0.255
-0.35
-0.535
-0.68
-0.685
-0.73
-0.525
-0.345
-0.2
-0.185
-0.285
-0.31
-0.585
-0.7
-0.685
-0.665
-0.535
-0.33
-0.2
-0.175
-0.225
-0.31
-0.555
-0.675
-0.715
-0.64
-0.535
-0.285
-0.18
-0.22
-0.31
-0.345
-0.49
-0.56
-0.605
-0.54
-0.43
-0.21
-0.115
-0.14
-0.21
-0.4
-0.565
-0.655
-0.655
-0.55
-0.38
-0.255
-0.165
-0.15
-0.185
-0.37
-0.615
-0.62
-0.66
-0.635
-0.46
-0.3
-0.25
-0.2
-0.235
-0.415
-0.61
-0.715
-0.75
-0.735
-0.535
-0.285
-0.185
-0.295
-0.315
-0.435
-0.54
-0.575
-0.63
-0.62
-0.44
-0.265
-0.18
-0.215
-0.265
-0.405
-0.62
-0.675
-0.705
-0.7
-0.455
-0.275
-0.2
-0.2
-0.23
-0.42
-0.565
-0.685
-0.625
-0.615
-0.455
-0.33
-0.255
-0.27
-0.335
-0.475
-0.575
-0.615
-0.415
-0.265
-0.005
0.195
0.385
0.47
0.62
0.46
0.235
0.295
0.36
0.235
0.06
0.025
0.02
-0.08
-0.215
-0.43
-0.565
-0.64
-0.555
-0.525
-0.385
-0.215
-0.165
-0.13
-0.125
-0.49
-0.71
-0.645
-0.545
-0.49
-0.3
-0.175
-0.16
-0.14
-0.26
-0.5
-0.59
-0.63
-0.62
-0.535
-0.39
-0.2
-0.165
-0.2
-0.39
-0.53
-0.59
-0.595
-0.575
-0.43
-0.26
-0.185
-0.14
-0.19
-0.295
-0.47
-0.61
-0.595
-0.58
-0.48
-0.29
-0.175
-0.2
-0.19
-0.31
-0.51
-0.66
-0.76
-0.525
-0.405
-0.24
-0.175
-0.2
-0.17
-0.22
-0.49
-0.615
-0.645
-0.545
-0.445
-0.26
-0.165
-0.175
-0.245
-0.33
-0.5
-0.635
-0.665
-0.6
-0.42
-0.245
-0.095
-0.135
-0.15
-0.255
-0.415
-0.545
-0.61
-0.515
-0.345
-0.2
-0.11
-0.08
-0.16
-0.28
-0.44
-0.53
-0.525
-0.52
-0.36
-0.08
-0.025
-0.065
-0.08
-0.265
-0.42
-0.525
-0.51
-0.425
-0.25
-0.085
0.03
-0.045
-0.115
-0.25
-0.425
-0.43
-0.45
-0.455
-0.2
-0.015
0.06
0.05
-0.02
-0.2
-0.32
-0.4
-0.385
-0.315
-0.095
0.075
0.145
0.07
0.04
-0.24
-0.455
-0.475
-0.385
-0.37
-0.255
-0.06
0.065
0.05
-0.115
-0.27
-0.47
-0.525
-0.49
-0.48
-0.285
-0.08
-0.075
-0.155
-0.24
-0.45
-0.62
-0.585
-0.58
-0.53
-0.315
-0.165
-0.15
-0.195
-0.295
-0.52
-0.635
-0.695
-0.63
-0.625
-0.315
-0.235
-0.13
-0.15
-0.27
-0.485
-0.625
-0.645
-0.665
-0.55
-0.31
-0.17
-0.205
-0.24
-0.3
-0.525
-0.765
-0.725
-0.625
-0.48
-0.28
-0.16
-0.15
-0.205
-0.35
-0.59
-0.67
-0.635
-0.605
-0.47
-0.31
-0.25
-0.2
-0.275
-0.275
-0.48
-0.615
-0.675
-0.62
-0.49
-0.265
-0.135
-0.135
-0.195
-0.345
-0.595
-0.705
-0.655
-0.6
-0.45
-0.285
-0.2
-0.18
-0.2
-0.4
-0.53
-0.605
-0.61
-0.6
-0.48
-0.32
-0.215
-0.23
-0.235
-0.355
-0.535
-0.66
-0.62
-0.565
-0.4
-0.305
-0.145
-0.105
-0.19
-0.345
-0.53
-0.64
-0.705
-0.615
-0.45
-0.22
-0.2
-0.265
-0.33
-0.44
-0.525
-0.7
-0.63
-0.595
-0.445
-0.255
-0.11
-0.21
-0.225
-0.4
-0.615
-0.71
-0.62
-0.6
-0.475
-0.3
-0.22
-0.235
-0.295
-0.48
-0.56
-0.645
-0.73
-0.695
-0.43
-0.185
-0.1
-0.125
-0.25
-0.415
-0.63
-0.735
-0.685
-0.505
-0.305
-0.175
-0.1
-0.085
-0.165
-0.37
-0.545
-0.62
-0.545
-0.505
-0.345
-0.21
-0.165
-0.2
-0.285
-0.485
-0.655
-0.685
-0.705
-0.635
-0.435
-0.22
-0.22
-0.275
-0.315
-0.455
-0.655
-0.65
-0.625
-0.595
-0.375
-0.27
-0.205
-0.215
-0.33
-0.605
-0.735
-0.74
-0.69
-0.625
-0.385
-0.14
-0.15
-0.235
-0.365
-0.51
-0.61
-0.665
-0.695
-0.595
-0.35
-0.26
-0.2
-0.3
-0.415
-0.485
-0.67
-0.685
-0.59
-0.525
-0.33
-0.22
-0.24
-0.295
-0.445
-0.71
-0.845
-0.73
-0.67
-0.525
-0.24
0.0
0.035
0.175
0.22
0.18
0.195
0.255
0.335
0.46
0.67
0.735
0.64
0.39
-0.025
-0.4
-0.52
-0.54
-0.57
-0.425
-0.3
-0.235
-0.175
-0.22
-0.445
-0.585
-0.7
-0.66
-0.565
-0.42
-0.23
-0.175
-0.155
-0.265
-0.39
-0.605
-0.695
-0.695
-0.655
-0.415
-0.3
-0.195
-0.23
-0.335
-0.445
-0.58
-0.69
-0.675
-0.635
-0.48
-0.305
-0.175
-0.215
-0.325
-0.425
-0.6
-0.67
-0.66
-0.615
-0.395
-0.26
-0.225
-0.245
-0.26
-0.45
-0.645
-0.705
-0.665
-0.605
-0.435
-0.3
-0.17
-0.185
-0.255
-0.44
-0.585
-0.665
-0.645
-0.535
-0.36
-0.23
-0.11
-0.18
-0.305
-0.465
-0.56
-0.645
-0.64
-0.545
-0.385
-0.17
-0.15
-0.25
-0.315
-0.425
-0.54
-0.615
-0.6
-0.495
-0.31
-0.22
-0.155
-0.175
-0.215
-0.43
-0.63
-0.665
-0.53
-0.415
-0.275
-0.125
-0.135
-0.14
-0.23
-0.405
-0.575
-0.545
-0.51
-0.42
-0.21
-0.11
-0.145
-0.065
-0.17
-0.32
-0.465
-0.47
-0.46
-0.325
-0.09
0.065
-0.04
0.0
-0.14
-0.35
-0.48
-0.48
-0.365
-0.24
-0.085
-0.005
0.045
-0.01
-0.125
-0.325
-0.39
-0.43
-0.39
-0.23
-0.065
0.0
0.035
-0.1
-0.185
-0.36
-0.49
-0.545
-0.44
-0.29
-0.22
-0.105
-0.085
-0.205
-0.35
-0.59
-0.62
-0.655
-0.61
-0.42
-0.235
-0.175
-0.19
-0.23
-0.365
-0.55
-0.665
-0.66
-0.625
-0.475
-0.295
-0.175
-0.175
-0.205
-0.435
-0.635
-0.765
-0.67
-0.595
-0.45
-0.29
-0.205
-0.24
-0.27
-0.39
-0.555
-0.745
-0.68
-0.66
-0.45
-0.29
-0.185
-0.205
-0.25
-0.45
-0.61
-0.685
-0.67
-0.6
-0.475
-0.28
-0.225
-0.275
-0.26
-0.45
-0.61
-0.7
-0.67
-0.555
-0.35
-0.185
-0.175
-0.25
-0.255
-0.49
-0.71
-0.75
-0.66
-0.565
-0.375
-0.24
-0.145
-0.235
-0.295
-0.405
-0.62
-0.665
-0.635
-0.56
-0.42
-0.255
-0.135
-0.18
-0.31
-0.52
-0.7
-0.66
-0.595
-0.555
-0.36
-0.215
-0.16
-0.225
-0.32
-0.575
-0.62
-0.61
-0.59
-0.58
-0.33
-0.24
-0.205
-0.265
-0.385
-0.395
-0.65
-0.71
-0.62
-0.52
-0.345
-0.175
-0.2
-0.21
-0.335
-0.545
-0.635
-0.635
-0.655
-0.52
-0.295
-0.215
-0.205
-0.225
-0.325
-0.485
-0.63
-0.695
-0.605
-0.495
-0.3
-0.16
-0.11
-0.145
-0.38
-0.48
-0.635
-0.585
-0.54
-0.46
-0.29
-0.115
-0.13
-0.24
-0.395
-0.515
-0.595
-0.61
-0.485
-0.385
-0.19
-0.07
-0.15
-0.245
-0.375
-0.57
-0.63
-0.62
-0.545
-0.425
-0.25
-0.135
-0.22
-0.28
-0.415
-0.605
-0.645
-0.615
-0.655
-0.42
-0.28
-0.245
-0.265
-0.28
-0.37
-0.61
-0.635
-0.635
-0.605
-0.455
-0.29
-0.21
-0.18
-0.245
-0.475
-0.61
-0.645
-0.61
-0.595
-0.47
-0.3
-0.165
-0.215
-0.275
-0.45
-0.605
-0.7
-0.64
-0.64
-0.45
-0.26
-0.22
-0.22
-0.27
-0.465
-0.64
-0.745
-0.7
-0.64
-0.44
-0.31
-0.275
-0.35
-0.345
-0.505
-0.515
-0.48
-0.39
-0.21
0.145
0.43
0.62
0.745
0.69
0.57
0.35
0.315
0.4
0.24
0.08
0.07
0.045
-0.095
-0.225
-0.405
-0.62
-0.6
-0.58
-0.515
-0.315
-0.175
-0.175
-0.19
-0.265
-0.475
-0.585
-0.655
-0.625
-0.485
-0.36
-0.185
-0.155
-0.22
-0.375
-0.57
-0.655
-0.71
-0.615
-0.485
-0.305
-0.18
-0.185
-0.21
-0.325
-0.54
-0.75
-0.65
-0.56
-0.485
-0.265
-0.15
-0.2
-0.16
-0.355
-0.475
-0.57
-0.61
-0.605
-0.465
-0.27
-0.11
-0.16
-0.235
-0.315
-0.52
-0.665
-0.63
-0.555
-0.445
-0.3
-0.21
-0.195
-0.21
-0.365
-0.535
-0.595
-0.55
-0.53
-0.375
-0.225
-0.125
-0.15
-0.2
-0.39
-0.6
-0.555
-0.475
-0.51
-0.385
-0.185
-0.08
-0.055
-0.2
-0.39
-0.545
-0.58
-0.59
-0.42
-0.27
-0.135
-0.07
-0.12
-0.09
-0.21
-0.45
-0.555
-0.565
-0.52
-0.255
-0.09
-0.01
0.0
-0.07
-0.3
-0.425
-0.495
-0.435
-0.35
-0.155
-0.015
0.04
0.045
0.01
-0.21
-0.395
-0.46
-0.375
-0.295
-0.145
0.085
0.105
0.04
0.045
-0.095
-0.29
-0.365
-0.34
-0.23
-0.055
0.06
0.065
0.085
0.07
-0.145
-0.285
-0.335
-0.35
-0.335
-0.12
0.05
0.05
0.025
-0.115
-0.265
-0.375
-0.445
-0.42
-0.32
-0.185
-0.06
-0.015
-0.1
-0.17
-0.38
-0.595
-0.61
-0.5
-0.375
-0.265
-0.11
-0.09
-0.16
-0.22
-0.355
-0.555
-0.555
-0.49
-0.445
-0.18
-0.095
-0.175
-0.18
-0.165
-0.375
-0.61
-0.57
-0.515
-0.42
-0.245
-0.085
-0.03
-0.125
-0.19
-0.395
-0.535
-0.58
-0.5
-0.34
-0.17
-0.085
-0.08
-0.16
-0.275
-0.45
-0.54
-0.575
-0.48
-0.34
-0.175
-0.05
0.0
-0.105
-0.23
-0.39
-0.515
-0.545
-0.485
-0.4
-0.275
-0.055
-0.035
-0.08
-0.25
-0.47
-0.525
-0.525
-0.47
-0.385
-0.19
-0.115
-0.035
-0.095
-0.255
-0.435
-0.515
-0.525
-0.555
-0.38
-0.125
0.005
-0.01
-0.105
-0.24
-0.435
-0.555
-0.515
-0.485
-0.265
-0.075
-0.025
-0.025
-0.075
-0.28
-0.49
-0.54
-0.48
-0.42
-0.285
-0.125
-0.015
-0.015
-0.055
-0.235
-0.435
-0.505
-0.465
-0.405
-0.245
-0.025
0.06
0.0
-0.14
-0.275
-0.54
-0.575
-0.53
-0.415
-0.17
-0.045
0.025
0.0
-0.135
-0.27
-0.43
-0.51
-0.495
-0.375
-0.215
-0.07
-0.04
-0.115
-0.125
-0.28
-0.46
-0.475
-0.46
-0.385
-0.205
-0.01
0.065
0.02
-0.09
-0.36
-0.465
-0.485
-0.47
-0.39
-0.15
0.025
0.01
-0.05
-0.17
-0.295
-0.445
-0.525
-0.435
-0.35
-0.21
-0.04
0.025
-0.04
-0.13
-0.36
-0.485
-0.505
-0.45
-0.425
-0.165
0.01
-0.015
-0.075
-0.14
-0.36
-0.38
-0.375
-0.365
-0.25
-0.12
0.03
0.04
-0.035
-0.085
-0.305
-0.395
-0.415
-0.34
-0.23
-0.02
0.175
0.03
-0.04
-0.175
-0.21
-0.355
-0.36
-0.325
-0.2
0.005
0.125
0.1
0.01
-0.055
-0.26
-0.36
-0.39
-0.385
-0.26
-0.06
0.03
0.005
-0.045
-0.175
-0.325
-0.405
-0.415
-0.345
-0.205
-0.035
0.06
0.035
0.03
-0.225
-0.385
-0.455
-0.425
-0.365
-0.225
-0.06
0.075
0.115
0.03
-0.165
-0.375
-0.46
-0.325
-0.36
-0.215
-0.01
0.06
0.05
-0.005
-0.17
-0.405
-0.52
-0.48
-0.385
-0.215
0.01
0.105
0.055
0.045
-0.19
-0.355
-0.415
-0.435
-0.375
-0.235
-0.085
0.035
-0.025
-0.005
-0.075
-0.125
-0.08
0.075
0.22
0.59
0.96
1.045
1.01
0.985
0.825
0.7
0.605
0.375
0.115
0.1
0.17
0.22
0.17
0.08
-0.115
-0.31
-0.385
-0.355
-0.245
-0.01
0.12
0.1
0.09
-0.045
-0.265
-0.34
-0.38
-0.29
-0.19
-0.075
0.095
0.09
0.035
-0.005
-0.19
-0.34
-0.45
-0.35
-0.25
-0.08
0.095
0.09
0.08
-0.035
-0.225
-0.395
-0.395
-0.33
-0.225
-0.095
0.065
0.125
0.08
-0.005
-0.265
-0.37
-0.375
-0.345
-0.24
-0.005
0.125
0.08
0.055
0.02
-0.225
-0.35
-0.34
-0.295
-0.195
-0.03
0.095
0.1
-0.04
-0.155
-0.345
-0.31
-0.325
-0.235
-0.23
-0.02
0.23
0.21
0.11
0.005
-0.27
-0.385
-0.325
-0.23
-0.1
0.06
0.14
0.135
0.145
0.03
-0.21
-0.305
-0.325
-0.275
-0.045
0.105
0.225
0.18
0.12
-0.005
-0.185
-0.235
-0.245
-0.2
-0.05
0.08
0.21
0.185
0.13
0.025
-0.075
-0.145
-0.165
-0.09
0.035
0.155
0.245
0.275
0.21
0.09
-0.05
-0.06
-0.095
0.04
0.2
0.365
0.36
0.32
0.28
0.13
-0.04
-0.135
-0.055
0.0
0.205
0.36
0.42
0.39
0.365
0.135
-0.08
-0.11
-0.035
-0.04
0.195
0.3
0.345
0.29
0.21
-0.07
-0.21
-0.21
-0.14
-0.095
0.06
0.145
0.2
0.225
0.17
-0.075
-0.265
-0.255
-0.225
-0.22
0.025
0.12
0.15
0.02
0.04
-0.165
-0.345
-0.335
-0.265
-0.225
0.0
0.055
0.135
0.02
-0.005
-0.155
-0.34
-0.365
-0.295
-0.26
-0.08
0.1
0.14
0.14
0.05
-0.26
-0.35
-0.295
-0.175
-0.255
-0.065
0.09
0.16
0.11
-0.025
-0.225
-0.4
-0.35
-0.265
-0.21
0.035
0.16
0.15
0.06
-0.045
-0.225
-0.37
-0.405
-0.34
-0.22
0.0
0.12
0.15
0.125
-0.02
-0.255
-0.36
-0.335
-0.285
-0.195
0.03
0.085
0.125
0.08
-0.05
-0.24
-0.4
-0.31
-0.29
-0.145
0.085
0.16
0.17
0.095
-0.05
-0.225
-0.355
-0.375
-0.34
-0.115
0.015
0.1
0.105
0.07
-0.11
-0.33
-0.4
-0.365
-0.36
-0.155
0.07
0.195
0.09
0.05
-0.1
-0.31
-0.425
-0.375
-0.285
-0.125
0.065
0.13
0.165
0.095
-0.105
-0.315
-0.36
-0.35
-0.305
-0.07
0.1
0.085
0.085
0.01
-0.13
-0.35
-0.41
-0.27
-0.275
-0.05
0.13
0.17
0.09
0.03
-0.165
-0.31
-0.365
-0.37
-0.31
-0.095
0.035
0.1
0.035
0.025
-0.185
-0.315
-0.375
-0.37
-0.22
-0.065
0.095
0.13
0.09
0.045
-0.16
-0.33
-0.375
-0.325
-0.24
-0.115
0.07
0.13
0.035
0.06
-0.135
-0.305
-0.39
-0.33
-0.24
-0.05
0.06
0.095
0.065
0.03
-0.16
-0.33
-0.375
-0.34
-0.355
-0.075
0.07
0.095
0.07
0.06
-0.175
-0.285
-0.29
-0.235
-0.165
-0.01
0.11
0.165
0.15
0.0
-0.145
-0.3
-0.325
-0.285
-0.175
0.03
0.18
0.13
0.095
-0.01
-0.25
-0.365
-0.38
-0.27
-0.085
0.075
0.125
0.115
0.055
-0.06
-0.265
-0.4
-0.365
-0.33
-0.19
0.045
0.13
0.115
0.015
-0.135
-0.31
-0.39
-0.31
-0.355
-0.16
-0.01
0.08
0.09
0.005
-0.055
-0.285
-0.395
-0.44
-0.415
-0.205
0.015
0.065
0.06
0.035
-0.1
-0.265
-0.385
-0.35
-0.31
-0.175
0.06
0.115
0.165
0.03
-0.22
-0.38
-0.47
-0.455
-0.44
-0.26
-0.055
0.15
0.245
0.31
0.29
0.26
0.275
0.46
0.605
0.88
1.06
1.15
1.145
1.03
0.71
0.175
-0.08
-0.195
-0.215
-0.05
0.09
0.1
0.05
0.085
-0.19
-0.29
-0.315
-0.27
-0.285
-0.13
0.07
0.1
0.025
-0.035
-0.12
-0.34
-0.47
-0.33
-0.28
-0.105
0.14
0.16
0.05
-0.02
-0.195
-0.31
-0.4
-0.32
-0.165
0.0
0.105
0.11
0.075
0.055
-0.21
-0.345
-0.36
-0.285
-0.195
-0.05
0.025
0.13
0.1
0.0
-0.21
-0.34
-0.315
-0.295
-0.195
-0.01
0.145
0.13
0.08
0.005
-0.215
-0.335
-0.35
-0.31
-0.245
0.0
0.13
0.14
0.075
-0.07
-0.23
-0.275
-0.25
-0.295
-0.14
0.04
0.2
0.225
0.2
0.065
-0.205
-0.35
-0.32
-0.235
-0.16
0.075
0.285
0.205
0.135
0.02
-0.205
-0.265
-0.21
-0.17
-0.035
0.115
0.26
0.22
0.185
0.07
-0.145
-0.26
-0.225
-0.205
0.015
0.165
0.31
0.245
0.245
0.11
-0.065
-0.13
-0.155
-0.105
0.11
0.29
0.34
0.325
0.27
0.105
-0.045
-0.07
-0.02
-0.05
0.085
0.29
0.38
0.41
0.365
0.175
0.015
-0.055
-0.065
-0.025
0.19
0.365
0.425
0.385
0.36
0.205
-0.005
-0.14
-0.065
-0.07
0.095
0.265
0.37
0.315
0.225
0.02
-0.145
-0.215
-0.2
-0.165
-0.01
0.12
0.205
0.175
0.125
-0.12
-0.165
-0.24
-0.245
-0.215
-0.01
0.14
0.13
0.1
0.01
-0.205
-0.335
-0.39
-0.27
-0.215
0.005
0.085
0.155
0.14
0.045
-0.155
-0.395
-0.425
-0.34
-0.17
-0.075
0.1
0.16
0.175
0.055
-0.13
-0.3
-0.37
-0.295
-0.2
0.0
0.155
0.14
0.07
0.03
-0.18
-0.385
-0.405
-0.34
-0.175
-0.02
0.155
0.215
0.105
0.04
-0.23
-0.345
-0.35
-0.27
-0.195
0.0
0.11
0.15
0.07
-0.035
-0.22
-0.395
-0.3
-0.315
-0.245
-0.005
0.125
0.19
0.09
-0.055
-0.205
-0.36
-0.35
-0.32
-0.225
-0.03
0.18
0.18
0.05
-0.15
-0.325
-0.385
-0.33
-0.31
-0.15
-0.01
0.1
0.13
0.1
-0.065
-0.305
-0.27
-0.275
-0.24
-0.12
-0.01
0.115
0.14
0.09
-0.095
-0.275
-0.41
-0.36
-0.315
-0.125
0.02
0.17
0.115
0.1
-0.115
-0.255
-0.32
-0.35
-0.315
-0.155
0.055
0.08
0.105
0.035
-0.14
-0.275
-0.385
-0.345
-0.29
-0.065
0.04
0.105
0.11
0.055
-0.19
-0.31
-0.42
-0.355
-0.24
-0.08
0.1
0.2
0.105
0.07
-0.165
-0.295
-0.37
-0.32
-0.29
-0.11
0.03
0.095
0.09
0.085
-0.1
-0.31
-0.355
-0.33
-0.295
0.01
0.125
0.07
0.1
0.035
-0.21
-0.36
-0.4
-0.325
-0.265
-0.025
0.11
0.13
0.095
-0.03
-0.2
-0.325
-0.405
-0.355
-0.2
-0.02
0.08
0.175
0.075
0.0
-0.15
-0.36
-0.385
-0.315
-0.215
-0.035
0.185
0.165
0.15
0.025
-0.165
-0.34
-0.31
-0.27
-0.18
0.07
0.205
0.2
0.115
0.015
-0.135
-0.29
-0.355
-0.305
-0.1
0.09
0.17
0.18
0.195
0.045
-0.22
-0.29
-0.275
-0.35
-0.05
0.085
0.12
0.13
0.06
-0.095
-0.25
-0.355
-0.36
-0.24
-0.115
0.025
0.06
0.095
0.03
-0.085
-0.235
-0.355
-0.33
-0.345
-0.11
0.03
0.145
0.08
0.06
-0.09
-0.265
-0.395
-0.31
-0.3
-0.16
0.045
0.13
0.08
0.115
-0.08
-0.205
-0.35
-0.34
-0.28
-0.15
0.06
0.125
0.105
0.06
-0.2
-0.375
-0.505
-0.435
-0.345
-0.16
0.04
0.225
0.35
0.33
0.27
0.26
0.325
0.465
0.595
0.89
1.05
1.155
1.15
1.05
0.65
0.185
-0.095
-0.155
-0.175
-0.035
0.145
0.21
0.135
0.1
-0.11
-0.265
-0.395
-0.3
-0.21
0.005
0.125
0.155
0.165
0.03
-0.155
-0.33
-0.4
-0.36
-0.23
0.0
0.185
0.195
0.09
-0.015
-0.195
-0.345
-0.355
-0.245
-0.24
-0.05
0.195
0.22
0.08
0.025
-0.175
-0.31
-0.25
-0.235
-0.205
0.03
0.16
0.19
0.1
0.0
-0.16
-0.29
-0.34
-0.21
-0.2
-0.03
0.135
0.135
0.055
0.01
-0.125
-0.23
-0.31
-0.305
-0.115
0.05
0.21
0.17
0.12
-0.03
-0.155
-0.23
-0.23
-0.17
-0.075
0.075
0.245
0.195
0.165
0.005
-0.165
-0.295
-0.265
-0.185
-0.065
0.125
0.24
0.285
0.2
0.06
-0.13
-0.29
-0.255
-0.22
-0.04
0.11
0.205
0.225
0.245
0.13
-0.03
-0.155
-0.17
-0.115
-0.035
0.2
0.335
0.265
0.25
0.13
-0.075
-0.14
-0.07
-0.05
0.09
0.31
0.385
0.35
0.33
0.195
0.045
-0.065
-0.04
0.02
0.17
0.305
0.435
0.445
0.435
0.155
0.02
-0.145
-0.025
0.045
0.265
0.44
0.505
0.43
0.385
0.21
-0.01
-0.085
-0.09
0.0
0.145
0.29
0.365
0.255
0.18
0.055
-0.055
-0.185
-0.115
-0.14
0.045
0.25
0.315
0.195
0.14
-0.065
-0.185
-0.25
-0.245
-0.23
0.005
0.215
0.255
0.195
0.19
-0.07
-0.25
-0.3
-0.23
-0.15
0.035
0.145
0.215
0.165
0.065
-0.08
-0.225
-0.335
-0.285
-0.165
0.055
0.14
0.155
0.135
0.065
-0.095
-0.27
-0.28
-0.225
-0.165
0.05
0.21
0.245
0.14
0.025
-0.15
-0.245
-0.285
-0.295
-0.155
0.055
0.205
0.21
0.155
0.01
-0.17
-0.315
-0.325
-0.235
-0.13
0.07
0.22
0.26
0.145
0.005
-0.25
-0.33
-0.29
-0.235
-0.09
0.03
0.215
0.24
0.14
0.025
-0.175
-0.25
-0.21
-0.17
-0.12
0.035
0.185
0.16
0.125
0.075
-0.145
-0.29
-0.235
-0.23
-0.12
0.09
0.165
0.18
0.165
0.03
-0.225
-0.31
-0.38
-0.29
-0.105
0.075
0.23
0.195
0.07
-0.11
-0.24
-0.33
-0.295
-0.31
-0.08
0.115
0.22
0.25
0.015
-0.05
-0.18
-0.305
-0.27
-0.21
-0.095
0.13
0.16
0.155
0.15
-0.045
-0.2
-0.27
-0.26
-0.3
-0.085
0.215
0.245
0.17
0.11
-0.11
-0.275
-0.36
-0.23
-0.29
-0.09
0.12
0.2
0.155
0.12
-0.04
-0.26
-0.355
-0.28
-0.215
0.01
0.195
0.15
0.105
0.08
-0.165
-0.29
-0.345
-0.26
-0.17
-0.025
0.1
0.145
0.085
0.015
-0.155
-0.235
-0.28
-0.23
-0.175
0.055
0.19
0.24
0.17
0.135
-0.055
-0.225
-0.285
-0.21
-0.105
0.09
0.25
0.27
0.23
0.135
-0.085
-0.175
-0.245
-0.24
-0.14
0.095
0.225
0.205
0.145
0.065
-0.075
-0.22
-0.255
-0.255
-0.13
0.045
0.18
0.18
0.19
0.055
-0.235
-0.365
-0.345
-0.3
-0.18
0.02
0.19
0.22
0.15
-0.03
-0.255
-0.29
-0.185
-0.245
-0.14
-0.025
0.095
0.105
0.11
0.015
-0.165
-0.345
-0.325
-0.265
-0.11
0.135
0.22
0.18
0.1
-0.025
-0.215
-0.31
-0.295
-0.295
-0.12
0.035
0.165
0.165
0.055
-0.11
-0.275
-0.44
-0.355
-0.19
0.055
0.31
0.415
0.59
0.76
0.65
0.625
0.585
0.69
0.735
0.855
1.03
1.02
0.735
0.375
0.05
-0.16
-0.2
-0.18
-0.235
-0.045
0.14
0.215
0.18
0.155
0.0
-0.11
-0.27
-0.245
-0.23
-0.05
0.13
0.18
0.13
0.15
0.0
-0.205
-0.305
-0.23
-0.16
0.025
0.16
0.195
0.155
0.05
-0.12
-0.24
-0.265
-0.23
-0.14
-0.03
0.055
0.175
0.18
0.09
-0.09
-0.225
-0.26
-0.245
-0.145
0.055
0.22
0.2
0.085
0.075
-0.13
-0.215
-0.295
-0.215
-0.15
0.045
0.145
0.17
0.16
0.07
-0.11
-0.26
-0.26
-0.19
-0.115
0.045
0.16
0.23
0.19
0.125
-0.035
-0.21
-0.24
-0.195
-0.085
0.085
0.22
0.26
0.23
0.08
-0.115
-0.225
-0.275
-0.15
-0.04
0.12
0.26
0.27
0.19
0.095
-0.16
-0.225
-0.22
-0.175
-0.085
0.095
0.26
0.345
0.25
0.09
-0.065
-0.14
-0.15
-0.13
0.045
0.22
0.345
0.315
0.285
0.135
-0.07
-0.145
-0.095
-0.035
0.085
0.26
0.37
0.395
0.33
0.215
0.075
-0.06
-0.065
-0.005
0.145
0.345
0.38
0.325
0.345
0.195
0.04
-0.1
-0.015
0.035
0.275
0.305
0.355
0.325
0.345
0.16
-0.055
-0.16
-0.065
0.01
0.09
0.265
0.31
0.245
0.24
0.04
-0.13
-0.215
-0.195
-0.175
0.03
0.19
0.225
0.17
0.15
-0.015
-0.255
-0.375
-0.295
-0.21
0.0
0.18
0.155
0.095
0.065
-0.04
-0.2
-0.31
-0.205
-0.195
-0.01
0.15
0.155
0.22
0.175
-0.07
-0.23
-0.265
-0.255
-0.2
-0.045
0.195
0.23
0.16
0.09
-0.13
-0.26
-0.355
-0.27
-0.13
0.04
0.18
0.26
0.185
0.085
-0.07
-0.26
-0.315
-0.225
-0.155
0.05
0.24
0.235
0.19
0.12
-0.11
-0.215
-0.275
-0.26
-0.185
0.04
0.245
0.255
0.175
0.07
-0.24
-0.385
-0.285
-0.13
-0.055
0.08
0.14
0.135
0.215
0.11
-0.15
-0.24
-0.205
-0.25
-0.115
0.035
0.115
0.2
0.2
0.07
-0.145
-0.335
-0.32
-0.205
-0.11
0.095
0.215
0.19
0.18
0.04
-0.215
-0.345
-0.33
-0.24
-0.085
0.085
0.17
0.185
0.19
0.12
-0.155
-0.295
-0.255
-0.26
-0.075
0.11
0.23
0.185
0.095
-0.13
-0.16
-0.285
-0.265
-0.205
-0.055
0.115
0.295
0.22
0.18
-0.035
-0.21
-0.285
-0.315
-0.235
-0.06
0.04
0.155
0.19
0.15
0.01
-0.19
-0.3
-0.21
-0.16
-0.025
0.085
0.265
0.24
0.18
-0.045
-0.17
-0.275
-0.26
-0.23
-0.02
0.19
0.24
0.245
0.14
-0.05
-0.215
-0.33
-0.28
-0.19
-0.01
0.195
0.28
0.2
0.125
0.01
-0.195
-0.28
-0.255
-0.14
0.105
0.305
0.285
0.275
0.15
-0.055
-0.18
-0.215
-0.235
-0.16
0.095
0.26
0.305
0.265
0.225
0.055
-0.155
-0.22
-0.15
-0.15
0.045
0.215
0.27
0.23
0.175
-0.08
-0.2
-0.235
-0.23
-0.18
0.105
0.235
0.215
0.12
0.07
-0.095
-0.215
-0.265
-0.2
-0.165
-0.005
0.19
0.27
0.26
0.13
-0.06
-0.295
-0.33
-0.245
-0.125
0.04
0.235
0.27
0.185
0.075
-0.145
-0.3
-0.25
-0.23
-0.12
0.12
0.185
0.245
0.185
0.02
-0.18
-0.315
-0.315
-0.31
-0.13
0.005
0.115
0.125
0.235
0.135
0.055
0.07
0.17
0.345
0.68
0.945
1.13
1.125
1.08
1.015
0.86
0.66
0.415
0.125
0.125
0.285
0.34
0.32
0.2
0.02
-0.095
-0.225
-0.21
-0.155
-0.01
0.125
0.235
0.22
0.085
0.015
-0.14
-0.255
-0.22
-0.19
-0.02
0.125
0.26
0.205
0.145
0.03
-0.165
-0.23
-0.185
-0.215
-0.005
0.165
0.21
0.165
0.05
-0.015
-0.145
-0.29
-0.235
-0.16
-0.035
0.11
0.28
0.23
0.22
0.035
-0.175
-0.275
-0.26
-0.23
0.045
0.18
0.205
0.205
0.135
0.045
-0.175
-0.245
-0.205
-0.165
0.035
0.23
0.245
0.17
0.18
-0.01
-0.205
-0.21
-0.185
-0.14
0.075
0.3
0.26
0.195
0.095
0.01
-0.155
-0.245
-0.175
-0.1
0.1
0.295
0.26
0.24
0.2
-0.02
-0.195
-0.23
-0.12
-0.005
0.15
0.325
0.355
0.24
0.18
0.01
-0.095
-0.13
-0.085
-0.04
0.215
0.325
0.41
0.34
0.355
0.085
-0.03
-0.05
-0.085
0.1
0.285
0.385
0.4
0.395
0.315
0.14
0.04
-0.01
0.06
0.215
0.415
0.455
0.455
0.47
0.3
0.135
-0.01
0.045
0.075
0.24
0.385
0.46
0.395
0.36
0.385
0.145
-0.015
0.005
0.11
0.195
0.32
0.465
0.365
0.33
0.175
-0.06
-0.095
-0.045
-0.05
0.09
0.24
0.35
0.27
0.22
0.11
-0.09
-0.215
-0.195
-0.24
0.02
0.18
0.3
0.245
0.215
0.01
-0.165
-0.25
-0.235
-0.235
0.035
0.185
0.235
0.245
0.265
0.03
-0.175
-0.245
-0.19
-0.175
-0.005
0.155
0.24
0.2
0.205
-0.005
-0.22
-0.265
-0.19
-0.185
-0.03
0.185
0.235
0.2
0.09
-0.065
-0.185
-0.255
-0.245
-0.165
0.07
0.195
0.225
0.23
0.13
-0.07
-0.195
-0.21
-0.19
-0.11
0.06
0.22
0.235
0.225
0.115
-0.05
-0.21
-0.315
-0.25
-0.115
0.085
0.25
0.26
0.195
0.135
-0.06
-0.2
-0.3
-0.22
-0.135
0.06
0.185
0.285
0.16
0.1
-0.095
-0.245
-0.28
-0.19
-0.08
0.09
0.185
0.22
0.155
0.1
-0.085
-0.2
-0.22
-0.18
-0.08
0.125
0.245
0.215
0.165
0.08
-0.1
-0.21
-0.28
-0.255
-0.12
0.11
0.24
0.24
0.155
0.06
-0.095
-0.3
-0.265
-0.175
-0.035
0.15
0.235
0.165
0.195
0.025
-0.15
-0.21
-0.255
-0.195
-0.095
0.01
0.265
0.255
0.195
0.045
-0.1
-0.27
-0.255
-0.235
-0.025
0.105
0.24
0.2
0.15
0.03
-0.1
-0.21
-0.24
-0.23
-0.035
0.135
0.215
0.185
0.095
-0.04
-0.235
-0.2
-0.21
-0.21
-0.065
0.14
0.23
0.165
0.06
-0.13
-0.17
-0.23
-0.19
-0.15
-0.01
0.085
0.26
0.23
0.13
-0.045
-0.235
-0.29
-0.245
-0.175
0.01
0.195
0.31
0.255
0.18
-0.01
-0.26
-0.195
-0.15
-0.15
0.07
0.21
0.265
0.24
0.2
0.025
-0.215
-0.29
-0.245
-0.16
0.125
0.215
0.275
0.25
0.19
-0.025
-0.195
-0.24
-0.175
-0.145
0.065
0.285
0.215
0.155
0.095
-0.11
-0.21
-0.28
-0.235
-0.115
0.05
0.19
0.215
0.205
0.12
-0.095
-0.25
-0.27
-0.305
-0.185
0.04
0.155
0.21
0.18
0.055
-0.115
-0.275
-0.28
-0.26
-0.12
0.015
0.125
0.175
0.06
0.06
-0.11
-0.25
-0.305
-0.21
-0.12
0.09
0.13
0.18
0.145
-0.075
-0.125
-0.275
-0.335
-0.29
-0.135
0.11
0.3
0.42
0.44
0.465
0.415
0.39
0.455
0.57
0.745
0.965
1.13
1.18
1.045
0.735
0.175
-0.055
-0.23
-0.185
-0.015
0.17
0.24
0.225
0.235
0.11
-0.11
-0.225
-0.185
-0.19
-0.07
0.03
0.165
0.135
0.085
0.085
-0.045
-0.205
-0.215
-0.21
-0.065
0.235
0.275
0.205
0.135
0.005
-0.185
-0.335
-0.355
-0.205
-0.005
0.165
0.22
0.28
0.18
-0.045
-0.21
-0.295
-0.24
-0.265
0.01
0.14
0.22
0.22
0.17
-0.04
-0.225
-0.235
-0.195
-0.195
-0.015
0.06
0.24
0.17
0.175
0.02
-0.25
-0.23
-0.2
-0.21
0.015
0.16
0.205
0.23
0.08
-0.055
-0.17
-0.245
-0.24
-0.14
0.055
0.195
0.265
0.19
0.17
-0.005
-0.215
-0.25
-0.165
-0.1
0.045
0.18
0.335
0.26
0.2
-0.105
-0.215
-0.19
-0.095
-0.04
0.135
0.245
0.26
0.23
0.22
-0.005
-0.115
-0.15
-0.08
-0.06
0.15
0.3
0.35
0.3
0.205
-0.005
-0.075
-0.095
-0.06
-0.01
0.185
0.425
0.455
0.375
0.235
0.125
-0.005
-0.005
0.075
0.11
0.305
0.46
0.44
0.33
0.295
0.105
-0.065
-0.055
0.08
0.2
0.27
0.405
0.425
0.385
0.24
0.065
-0.145
-0.15
0.03
0.135
0.275
0.37
0.405
0.33
0.17
-0.065
-0.265
-0.265
-0.17
-0.065
0.125
0.27
0.35
0.28
0.105
-0.135
-0.25
-0.215
-0.2
-0.035
0.075
0.18
0.23
0.185
0.035
-0.165
-0.3
-0.26
-0.175
-0.025
0.115
0.185
0.23
0.175
-0.015
-0.16
-0.255
-0.26
-0.205
0.015
0.11
0.18
0.195
0.16
0.01
-0.19
-0.345
-0.29
-0.17
0.015
0.22
0.25
0.19
0.15
0.0
-0.18
-0.31
-0.24
-0.18
0.005
0.135
0.2
0.1
0.125
-0.035
-0.16
-0.265
-0.245
-0.215
0.075
0.2
0.25
0.24
0.135
-0.045
-0.22
-0.29
-0.245
-0.245
-0.025
0.225
0.28
0.18
0.165
-0.07
-0.235
-0.26
-0.185
-0.25
-0.015
0.165
0.22
0.18
0.13
-0.09
-0.24
-0.225
-0.19
-0.13
-0.005
0.2
0.265
0.17
0.05
-0.1
-0.28
-0.275
-0.195
-0.14
0.055
0.12
0.265
0.185
0.13
-0.08
-0.255
-0.26
-0.215
-0.135
0.1
0.175
0.23
0.185
0.05
-0.115
-0.24
-0.23
-0.16
-0.155
0.075
0.195
0.23
0.165
0.055
-0.075
-0.255
-0.265
-0.2
-0.06
0.085
0.235
0.205
0.15
0.07
-0.17
-0.365
-0.32
-0.26
-0.085
0.155
0.155
0.19
0.155
0.01
-0.1
-0.225
-0.235
-0.13
-0.05
0.125
0.22
0.205
0.18
-0.025
-0.17
-0.29
-0.255
-0.17
-0.055
0.22
0.315
0.34
0.225
0.06
-0.115
-0.18
-0.19
-0.195
-0.015
0.16
0.315
0.27
0.235
0.09
-0.115
-0.22
-0.185
-0.125
0.06
0.19
0.265
0.28
0.235
0.01
-0.165
-0.26
-0.265
-0.2
0.04
0.185
0.23
0.24
0.175
-0.055
-0.265
-0.25
-0.19
-0.22
-0.01
0.19
0.245
0.175
0.135
-0.005
-0.165
-0.23
-0.275
-0.22
0.02
0.165
0.2
0.17
0.16
-0.055
-0.19
-0.28
-0.265
-0.165
0.03
0.18
0.26
0.195
0.175
-0.06
-0.21
-0.195
-0.19
-0.105
0.0
0.15
0.135
0.1
0.05
-0.245
-0.34
-0.305
-0.245
-0.145
0.175
0.48
0.63
0.66
0.69
0.6
0.505
0.56
0.62
0.655
0.9
1.175
0.985
0.6
0.25
-0.015
-0.26
-0.2
-0.16
-0.08
0.075
0.22
0.215
0.18
0.155
-0.045
-0.235
-0.22
-0.23
-0.085
0.145
0.205
0.245
0.17
0.05
-0.145
-0.235
-0.23
-0.27
-0.095
0.065
0.175
0.19
0.2
0.125
-0.115
-0.24
-0.25
-0.175
-0.07
0.105
0.2
0.21
0.19
0.03
-0.16
-0.285
-0.285
-0.21
-0.05
0.195
0.235
0.2
0.08
0.0
-0.085
-0.255
-0.275
-0.15
-0.025
0.21
0.275
0.275
0.17
0.04
-0.19
-0.285
-0.25
-0.115
-0.02
0.055
0.25
0.3
0.21
0.1
-0.095
-0.26
-0.19
-0.16
0.02
0.13
0.215
0.305
0.245
0.075
-0.075
-0.135
-0.22
-0.11
0.04
0.245
0.295
0.285
0.275
0.04
-0.075
-0.175
-0.125
-0.065
0.08
0.2
0.35
0.295
0.25
0.105
-0.075
-0.165
-0.06
-0.085
0.155
0.325
0.43
0.31
0.34
0.145
-0.075
-0.085
0.015
0.02
0.23
0.355
0.385
0.35
0.275
0.15
0.005
-0.035
0.05
0.075
0.225
0.385
0.495
0.465
0.365
0.15
0.065
0.0
-0.005
0.135
0.315
0.44
0.445
0.44
0.34
0.12
-0.1
-0.155
-0.05
0.035
0.215
0.34
0.355
0.285
0.15
-0.025
-0.18
-0.19
-0.18
-0.04
0.12
0.23
0.195
0.145
0.165
-0.045
-0.175
-0.22
-0.235
-0.13
0.075
0.185
0.205
0.2
0.105
-0.115
-0.245
-0.245
-0.205
-0.145
0.125
0.255
0.25
0.215
0.065
-0.17
-0.285
-0.275
-0.285
-0.06
0.095
0.245
0.25
0.2
0.045
-0.12
-0.28
-0.28
-0.205
-0.05
0.19
0.235
0.15
0.13
0.03
-0.215
-0.33
-0.28
-0.15
-0.005
0.21
0.265
0.235
0.19
0.025
-0.14
-0.18
-0.16
-0.165
-0.05
0.165
0.265
0.23
0.24
-0.015
-0.145
-0.19
-0.25
-0.19
0.025
0.155
0.29
0.24
0.24
0.045
-0.15
-0.275
-0.17
-0.115
0.015
0.17
0.3
0.205
0.215
-0.08
-0.185
-0.285
-0.135
-0.105
0.045
0.16
0.2
0.27
0.105
-0.06
-0.2
-0.205
-0.21
-0.16
0.02
0.21
0.3
0.2
0.115
-0.065
-0.145
-0.22
-0.195
-0.115
0.065
0.175
0.225
0.26
0.175
-0.055
-0.24
-0.235
-0.255
-0.175
0.04
0.235
0.305
0.25
0.105
-0.135
-0.25
-0.265
-0.165
-0.055
0.115
0.24
0.25
0.185
0.155
-0.065
-0.21
-0.235
-0.19
-0.06
0.075
0.17
0.21
0.17
0.1
-0.045
-0.175
-0.18
-0.11
-0.05
0.13
0.27
0.235
0.17
0.1
-0.075
-0.21
-0.285
-0.175
0.045
0.19
0.235
0.25
0.27
0.1
-0.17
-0.22
-0.265
-0.19
-0.005
0.13
0.26
0.22
0.25
0.145
-0.05
-0.205
-0.1
-0.09
0.02
0.215
0.315
0.26
0.235
0.09
-0.065
-0.14
-0.165
-0.195
0.04
0.22
0.325
0.295
0.295
0.11
-0.07
-0.23
-0.15
-0.125
-0.005
0.145
0.27
0.23
0.215
-0.005
-0.2
-0.205
-0.17
-0.19
-0.04
0.185
0.245
0.16
0.17
0.045
-0.07
-0.225
-0.205
-0.205
-0.02
0.185
0.25
0.21
0.205
-0.01
-0.205
-0.28
-0.25
-0.225
0.08
0.255
0.24
0.2
0.13
0.05
-0.16
-0.255
-0.255
-0.185
0.07
0.255
0.255
0.22
0.155
-0.09
-0.29
-0.33
-0.255
-0.2
0.205
0.445
0.635
0.76
0.83
0.735
0.64
0.64
0.7
0.86
1.045
1.21
1.125
0.79
0.42
0.155
-0.065
-0.155
-0.095
-0.1
0.03
0.24
0.275
0.21
0.21
0.005
-0.12
-0.17
-0.065
-0.115
0.09
0.26
0.305
0.25
0.14
-0.055
-0.17
-0.2
-0.205
-0.01
0.185
0.265
0.24
0.23
0.135
-0.06
-0.255
-0.21
-0.13
0.02
0.15
0.295
0.26
0.2
0.145
-0.035
-0.185
-0.19
-0.17
-0.07
0.14
0.305
0.27
0.14
0.015
-0.065
-0.165
-0.155
-0.165
-0.01
0.21
0.355
0.34
0.28
0.07
-0.14
-0.23
-0.13
-0.06
0.035
0.2
0.305
0.335
0.26
0.13
-0.07
-0.18
-0.145
-0.1
0.07
0.19
0.395
0.31
0.315
0.205
-0.02
-0.115
-0.11
-0.025
0.065
0.26
0.31
0.34
0.335
0.21
-0.01
-0.08
-0.065
-0.055
0.12
0.36
0.45
0.37
0.345
0.195
0.035
-0.055
-0.045
0.005
0.215
0.465
0.48
0.465
0.4
0.19
0.05
0.065
0.075
0.075
0.305
0.46
0.545
0.51
0.535
0.33
0.13
0.105
0.095
0.165
0.39
0.55
0.57
0.585
0.48
0.29
0.16
0.13
0.135
0.15
0.39
0.565
0.555
0.51
0.425
0.25
0.025
-0.045
0.04
0.135
0.325
0.46
0.48
0.39
0.305
0.12
-0.05
-0.065
0.025
0.015
0.195
0.41
0.4
0.34
0.255
-0.005
-0.095
-0.14
-0.055
-0.015
0.18
0.36
0.405
0.36
0.285
0.005
-0.19
-0.2
-0.12
-0.02
0.2
0.32
0.36
0.24
0.155
0.05
-0.1
-0.105
-0.07
0.02
0.19
0.335
0.33
0.275
0.17
-0.005
-0.115
-0.125
-0.185
-0.05
0.15
0.31
0.37
0.345
0.185
-0.065
-0.135
-0.105
-0.115
0.05
0.18
0.295
0.245
0.265
0.135
-0.06
-0.145
-0.14
-0.185
0.025
0.25
0.355
0.28
0.24
0.13
-0.025
-0.06
-0.09
-0.105
0.045
0.23
0.32
0.285
0.28
0.1
-0.1
-0.22
-0.145
-0.07
0.085
0.255
0.305
0.3
0.275
0.13
-0.125
-0.195
-0.2
-0.115
0.095
0.255
0.365
0.26
0.19
0.035
-0.13
-0.175
-0.13
-0.11
0.07
0.28
0.34
0.275
0.245
0.045
-0.19
-0.19
-0.14
-0.145
0.02
0.155
0.295
0.26
0.15
-0.08
-0.28
-0.235
-0.135
-0.125
0.12
0.18
0.29
0.24
0.195
-0.055
-0.225
-0.23
-0.22
-0.165
0.055
0.265
0.245
0.23
0.165
-0.07
-0.175
-0.185
-0.19
-0.09
0.095
0.215
0.195
0.21
0.09
-0.045
-0.205
-0.3
-0.28
-0.15
0.09
0.23
0.245
0.22
0.15
-0.015
-0.275
-0.26
-0.2
-0.105
0.115
0.22
0.165
0.18
0.065
-0.135
-0.265
-0.29
-0.215
-0.06
0.18
0.255
0.205
0.22
0.07
-0.075
-0.175
-0.255
-0.275
-0.085
0.155
0.255
0.24
0.23
0.12
-0.095
-0.19
-0.14
-0.08
-0.025
0.185
0.29
0.26
0.285
0.12
-0.055
-0.235
-0.18
-0.215
-0.095
0.26
0.365
0.32
0.245
0.08
-0.1
-0.215
-0.25
-0.175
-0.035
0.13
0.22
0.215
0.185
0.065
-0.11
-0.235
-0.265
-0.235
0.03
0.11
0.245
0.25
0.19
0.01
-0.16
-0.24
-0.28
-0.2
-0.035
0.16
0.19
0.185
0.14
0.01
-0.155
-0.225
-0.215
-0.18
-0.005
0.14
0.275
0.24
0.14
-0.01
-0.195
-0.28
-0.265
-0.185
0.05
0.18
0.275
0.25
0.185
-0.085
-0.275
-0.375
-0.325
-0.17
0.065
0.18
0.365
0.45
0.535
0.53
0.46
0.55
0.665
0.75
1.06
1.24
1.29
1.23
1.065
0.56
0.095
-0.065
-0.09
-0.05
0.175
0.295
0.29
0.26
0.245
0.01
-0.115
-0.155
-0.16
-0.095
0.1
0.27
0.31
0.24
0.195
-0.02
-0.16
-0.2
-0.175
-0.02
0.135
0.27
0.245
0.245
0.21
-0.035
-0.24
-0.19
-0.075
-0.01
0.14
0.225
0.265
0.23
0.165
-0.045
-0.185
-0.18
-0.15
0.01
0.155
0.275
0.245
0.22
0.155
-0.055
-0.14
-0.16
-0.095
0.015
0.205
0.325
0.25
0.28
0.115
-0.055
-0.215
-0.215
-0.105
0.025
0.205
0.295
0.305
0.29
0.14
-0.045
-0.22
-0.23
-0.06
0.085
0.25
0.315
0.42
0.335
0.125
-0.04
-0.165
-0.185
-0.145
0.07
0.32
0.415
0.385
0.26
0.075
-0.055
-0.135
-0.07
0.005
0.145
0.315
0.4
0.36
0.275
0.135
-0.025
-0.02
-0.015
0.075
0.175
0.345
0.47
0.395
0.39
0.205
0.06
-0.03
0.005
0.02
0.255
0.435
0.52
0.455
0.465
0.245
0.08
0.01
0.035
0.12
0.365
0.495
0.54
0.485
0.45
0.32
0.115
0.075
0.1
0.125
0.375
0.515
0.575
0.48
0.42
0.19
0.015
-0.025
0.005
0.07
0.23
0.45
0.48
0.41
0.34
0.15
-0.02
-0.11
-0.13
-0.015
0.17
0.325
0.35
0.34
0.275
0.005
-0.11
-0.115
-0.175
-0.135
0.085
0.285
0.335
0.295
0.185
-0.04
-0.18
-0.24
-0.19
-0.08
0.14
0.3
0.315
0.23
0.11
-0.135
-0.14
-0.175
-0.11
-0.06
0.11
0.3
0.295
0.23
0.06
-0.02
-0.13
-0.195
-0.145
-0.01
0.18
0.285
0.285
0.2
0.12
-0.085
-0.23
-0.225
-0.125
0.045
0.17
0.305
0.27
0.245
0.145
0.0
-0.23
-0.26
-0.12
0.055
0.225
0.335
0.295
0.245
0.05
-0.095
-0.215
-0.2
-0.195
-0.01
0.2
0.385
0.33
0.29
0.055
-0.18
-0.215
-0.2
-0.155
0.085
0.215
0.295
0.26
0.225
0.07
-0.155
-0.165
-0.13
-0.095
0.025
0.2
0.28
0.29
0.235
0.075
-0.08
-0.155
-0.195
-0.135
0.04
0.205
0.3
0.265
0.21
0.02
-0.155
-0.19
-0.165
-0.15
0.035
0.28
0.31
0.255
0.155
0.015
-0.11
-0.17
-0.17
-0.125
-0.01
0.19
0.315
0.25
0.185
0.015
-0.145
-0.225
-0.195
-0.085
0.09
0.225
0.27
0.255
0.265
0.025
-0.225
-0.27
-0.165
-0.1
0.1
0.28
0.3
0.27
0.185
-0.055
-0.2
-0.2
-0.23
-0.13
0.095
0.275
0.305
0.325
0.215
0.01
-0.16
-0.22
-0.175
-0.08
0.085
0.26
0.295
0.255
0.135
0.0
-0.105
-0.205
-0.2
-0.095
0.095
0.195
0.225
0.275
0.155
-0.065
-0.205
-0.22
-0.175
-0.095
0.06
0.25
0.3
0.315
0.2
-0.12
-0.235
-0.29
-0.155
-0.055
0.13
0.345
0.365
0.35
0.09
-0.065
-0.205
-0.14
-0.16
-0.01
0.165
0.3
0.335
0.31
0.195
-0.01
-0.14
-0.18
-0.09
0.05
0.215
0.305
0.32
0.305
0.12
-0.035
-0.16
-0.195
-0.16
0.045
0.23
0.335
0.265
0.18
0.055
-0.095
-0.21
-0.225
-0.17
0.045
0.195
0.295
0.275
0.205
-0.015
-0.13
-0.235
-0.24
-0.175
-0.05
0.17
0.16
0.195
0.185
0.04
-0.145
-0.21
-0.195
-0.19
0.005
0.15
0.225
0.19
0.22
0.06
-0.14
-0.245
-0.28
-0.22
0.025
0.2
0.235
0.275
0.17
-0.015
-0.255
-0.32
-0.295
-0.205
0.015
0.175
0.225
0.185
0.165
-0.005
-0.07
-0.035
0.12
0.32
0.61
0.99
1.165
1.125
1.055
0.94
0.775
0.78
0.725
0.445
0.31
0.38
0.39
0.345
0.235
-0.035
-0.17
-0.195
-0.12
-0.055
0.085
0.215
0.26
0.22
0.135
-0.065
-0.205
-0.205
-0.205
-0.07
0.115
0.245
0.25
0.205
0.13
-0.105
-0.205
-0.255
-0.165
-0.075
0.15
0.285
0.275
0.2
0.135
-0.075
-0.255
-0.225
-0.25
-0.17
0.06
0.23
0.3
0.3
0.14
-0.15
-0.215
-0.24
-0.195
-0.055
0.11
0.29
0.27
0.295
0.145
-0.085
-0.23
-0.275
-0.22
-0.045
0.17
0.34
0.33
0.255
0.125
-0.08
-0.205
-0.215
-0.165
-0.005
0.16
0.25
0.3
0.21
0.08
-0.09
-0.22
-0.28
-0.15
-0.025
0.21
0.315
0.3
0.33
0.18
-0.105
-0.185
-0.165
-0.075
0.07
0.215
0.335
0.375
0.315
0.155
-0.025
-0.14
-0.195
-0.065
0.145
0.3
0.355
0.385
0.295
0.1
-0.04
-0.05
-0.075
0.01
0.2
0.35
0.465
0.42
0.305
0.145
-0.01
-0.02
0.015
0.1
0.185
0.445
0.525
0.61
0.45
0.24
0.07
0.01
0.06
0.125
0.29
0.445
0.59
0.535
0.415
0.26
0.11
0.035
0.03
0.03
0.24
0.425
0.515
0.465
0.375
0.165
0.04
-0.075
-0.06
0.015
0.18
0.335
0.35
0.385
0.215
0.015
-0.15
-0.16
-0.2
-0.105
0.11
0.23
0.255
0.21
0.185
-0.04
-0.165
-0.215
-0.205
-0.1
0.165
0.32
0.34
0.195
0.135
-0.085
-0.235
-0.195
-0.185
-0.09
0.095
0.3
0.305
0.245
0.05
-0.11
-0.215
-0.21
-0.13
-0.035
0.145
0.26
0.245
0.245
0.115
-0.075
-0.255
-0.23
-0.185
-0.07
0.09
0.265
0.29
0.165
0.035
-0.125
-0.165
-0.28
-0.125
0.01
0.185
0.28
0.32
0.21
0.06
-0.095
-0.17
-0.185
-0.135
-0.01
0.18
0.28
0.285
0.2
0.05
-0.065
-0.18
-0.205
-0.15
-0.005
0.16
0.29
0.345
0.225
0.04
-0.12
-0.265
-0.26
-0.205
0.03
0.24
0.285
0.21
0.195
-0.035
-0.17
-0.31
-0.19
-0.15
0.06
0.22
0.3
0.2
0.14
-0.005
-0.2
-0.31
-0.23
-0.14
0.03
0.16
0.165
0.27
0.195
0.035
-0.115
-0.205
-0.15
-0.105
0.015
0.15
0.235
0.245
0.23
0.085
-0.23
-0.28
-0.26
-0.115
0.075
0.24
0.285
0.18
0.215
-0.015
-0.15
-0.22
-0.21
-0.095
0.06
0.25
0.305
0.25
0.185
-0.025
-0.21
-0.27
-0.23
-0.145
0.05
0.18
0.255
0.195
0.185
-0.01
-0.16
-0.275
-0.2
-0.09
0.06
0.235
0.27
0.24
0.13
-0.17
-0.245
-0.19
-0.15
-0.065
0.18
0.27
0.305
0.225
0.145
-0.065
-0.265
-0.205
-0.15
-0.06
0.15
0.295
0.295
0.24
0.14
-0.065
-0.195
-0.245
-0.135
-0.105
0.095
0.25
0.295
0.22
0.105
-0.03
-0.16
-0.165
-0.14
-0.045
0.15
0.295
0.285
0.26
0.18
-0.085
-0.125
-0.115
-0.065
0.09
0.24
0.37
0.275
0.305
0.14
-0.065
-0.18
-0.135
-0.155
0.075
0.255
0.34
0.3
0.27
0.175
0.015
-0.15
-0.19
-0.075
0.085
0.26
0.27
0.295
0.2
0.08
-0.12
-0.245
-0.215
-0.175
0.03
0.205
0.3
0.22
0.155
0.02
-0.095
-0.16
-0.295
-0.265
0.075
0.215
0.3
0.245
0.29
0.07
-0.145
-0.22
-0.135
-0.21
0.04
0.255
0.305
0.26
0.2
-0.035
-0.165
-0.21
-0.21
-0.185
0.08
0.255
0.33
0.26
0.21
-0.01
-0.22
-0.27
-0.275
-0.255
-0.11
0.16
0.255
0.39
0.435
0.315
0.26
0.33
0.5
0.72
1.03
1.24
1.315
1.28
1.175
0.925
0.515
0.13
0.06
0.065
0.215
0.29
0.32
0.215
0.18
0.035
-0.125
-0.235
-0.175
-0.04
0.14
0.26
0.3
0.26
0.165
-0.08
-0.185
-0.235
-0.14
-0.105
0.085
0.26
0.325
0.245
0.115
-0.055
-0.275
-0.22
-0.155
-0.025
0.16
0.325
0.325
0.27
0.145
-0.08
-0.245
-0.24
-0.195
-0.115
0.095
0.21
0.25
0.265
0.155
-0.09
-0.245
-0.225
-0.16
-0.015
0.215
0.305
0.24
0.205
0.12
-0.075
-0.24
-0.245
-0.19
-0.05
0.055
0.22
0.31
0.265
0.115
-0.03
-0.18
-0.17
-0.09
-0.025
0.13
0.29
0.29
0.185
0.07
-0.08
-0.23
-0.22
-0.13
0.07
0.28
0.34
0.31
0.295
0.075
-0.155
-0.18
-0.13
-0.06
0.165
0.29
0.33
0.355
0.27
0.15
-0.06
-0.1
-0.105
-0.035
0.08
0.3
0.365
0.395
0.375
0.16
-0.03
-0.095
0.0
0.05
0.165
0.35
0.43
0.47
0.405
0.18
0.01
-0.02
0.055
0.06
0.22
0.41
0.535
0.53
0.46
0.205
0.025
-0.035
0.075
0.15
0.275
0.39
0.485
0.445
0.41
0.235
0.025
-0.045
0.055
0.115
0.27
0.425
0.44
0.37
0.285
0.095
-0.095
-0.135
-0.13
-0.035
0.07
0.25
0.245
0.2
0.205
-0.03
-0.185
-0.19
-0.175
-0.095
0.08
0.29
0.25
0.21
0.03
-0.14
-0.16
-0.22
-0.225
-0.09
-0.03
0.14
0.27
0.23
0.135
-0.08
-0.275
-0.23
-0.21
-0.185
0.1
0.215
0.215
0.2
0.03
-0.18
-0.29
-0.235
-0.135
-0.075
0.145
0.225
0.2
0.19
0.09
-0.175
-0.29
-0.31
-0.175
-0.085
0.1
0.23
0.235
0.17
0.075
-0.13
-0.245
-0.255
-0.2
-0.055
0.125
0.245
0.22
0.21
0.05
-0.16
-0.24
-0.28
-0.255
-0.095
0.155
0.22
0.21
0.21
0.025
-0.17
-0.21
-0.215
-0.22
-0.015
0.13
0.205
0.1
0.15
0.0
-0.255
-0.28
-0.24
-0.16
-0.025
0.15
0.24
0.225
0.19
-0.015
-0.225
-0.265
-0.215
-0.22
-0.075
0.16
0.21
0.18
0.11
-0.065
-0.255
-0.36
-0.195
-0.145
0.03
0.16
0.11
0.17
0.09
-0.06
-0.235
-0.31
-0.285
-0.16
0.015
0.14
0.25
0.2
0.11
-0.065
-0.205
-0.27
-0.295
-0.25
0.025
0.175
0.19
0.145
0.085
-0.135
-0.33
-0.38
-0.295
-0.185
-0.04
0.135
0.165
0.095
0.015
-0.13
-0.27
-0.24
-0.25
-0.18
0.0
0.18
0.225
0.165
0.03
-0.17
-0.295
-0.32
-0.32
-0.155
0.09
0.215
0.185
0.095
0.065
-0.115
-0.28
-0.305
-0.305
-0.205
0.03
0.205
0.135
0.075
0.065
-0.165
-0.27
-0.385
-0.255
-0.14
0.065
0.17
0.075
0.175
-0.075
-0.18
-0.31
-0.26
-0.205
-0.03
0.135
0.26
0.25
0.17
0.035
-0.16
-0.24
-0.26
-0.175
0.02
0.165
0.245
0.235
0.21
0.01
-0.22
-0.33
-0.255
-0.215
-0.025
0.095
0.22
0.185
0.135
-0.035
-0.18
-0.34
-0.36
-0.33
-0.115
0.045
0.23
0.16
0.1
-0.05
-0.26
-0.29
-0.3
-0.225
-0.07
0.105
0.17
0.145
0.14
-0.06
-0.305
-0.33
-0.3
-0.27
-0.1
0.045
0.14
0.125
0.105
-0.185
-0.31
-0.325
-0.305
-0.32
-0.085
0.125
0.235
0.215
0.1
-0.105
-0.275
-0.45
-0.325
-0.24
-0.015
0.135
0.11
0.085
0.035
-0.105
-0.265
-0.235
-0.125
0.025
0.29
0.56
0.83
0.895
0.9
0.72
0.585
0.53
0.63
0.7
0.73
0.54
0.41
0.24
0.125
-0.08
-0.205
-0.255
-0.215
-0.21
0.06
0.23
0.17
0.105
0.015
-0.15
-0.295
-0.235
-0.23
-0.13
0.045
0.235
0.265
0.15
0.11
-0.055
-0.265
-0.325
-0.24
-0.14
0.04
0.17
0.21
0.19
0.08
-0.16
-0.305
-0.285
-0.225
-0.16
0.055
0.175
0.21
0.105
0.0
-0.22
-0.38
-0.35
-0.28
-0.09
0.1
0.235
0.23
0.19
0.08
-0.155
-0.27
-0.265
-0.215
-0.16
0.19
0.26
0.205
0.175
0.025
-0.165
-0.35
-0.255
-0.245
-0.165
0.15
0.33
0.21
0.155
0.065
-0.11
-0.235
-0.22
-0.14
-0.055
0.18
0.25
0.255
0.195
0.015
-0.17
-0.225
-0.2
-0.16
0.03
0.23
0.29
0.27
0.205
0.11
-0.08
-0.23
-0.135
-0.095
0.11
0.24
0.355
0.345
0.32
0.195
-0.075
-0.13
-0.105
-0.06
0.12
0.29
0.38
0.34
0.305
0.175
-0.015
0.02
0.0
0.015
0.245
0.395
0.43
0.385
0.35
0.15
-0.03
0.005
-0.015
-0.045
0.2
0.425
0.525
0.495
0.46
0.205
-0.04
-0.025
0.0
0.1
0.28
0.395
0.46
0.38
0.325
0.07
-0.085
-0.16
-0.06
-0.035
0.18
0.325
0.36
0.28
0.16
-0.04
-0.23
-0.195
-0.145
-0.02
0.12
0.225
0.275
0.19
0.09
-0.075
-0.245
-0.255
-0.255
-0.19
-0.04
0.15
0.255
0.2
0.1
-0.09
-0.22
-0.205
-0.165
-0.09
0.1
0.21
0.23
0.18
0.08
-0.135
-0.355
-0.295
-0.255
-0.06
0.16
0.205
0.225
0.175
0.065
-0.15
-0.3
-0.3
-0.15
-0.065
0.135
0.205
0.27
0.19
0.105
-0.12
-0.325
-0.31
-0.22
-0.035
0.13
0.285
0.24
0.175
-0.035
-0.215
-0.3
-0.245
-0.23
-0.01
0.195
0.33
0.175
0.17
0.025
-0.13
-0.29
-0.265
-0.215
-0.04
0.15
0.27
0.165
0.16
0.03
-0.115
-0.235
-0.28
-0.185
0.025
0.185
0.345
0.285
0.24
0.015
-0.16
-0.3
-0.185
-0.19
-0.1
0.17
0.3
0.215
0.15
-0.02
-0.195
-0.28
-0.255
-0.135
0.07
0.245
0.22
0.175
0.18
-0.015
-0.215
-0.325
-0.265
-0.24
-0.01
0.13
0.295
0.315
0.18
-0.035
-0.235
-0.27
-0.225
-0.145
0.09
0.27
0.26
0.21
0.16
-0.125
-0.315
-0.245
-0.2
-0.105
0.03
0.18
0.34
0.265
0.16
-0.13
-0.23
-0.235
-0.205
-0.085
0.145
0.24
0.185
0.09
0.125
-0.08
-0.19
-0.22
-0.215
-0.15
0.04
0.155
0.245
0.205
0.105
-0.065
-0.155
-0.195
-0.23
-0.11
0.12
0.285
0.325
0.165
0.145
0.02
-0.175
-0.24
-0.095
0.06
0.2
