# TIPE ECG 2021 - ECG-ID Database v1.0.0 par Physionet
# [Numéro de la personne, Période d'échantillonnage, Prénom, Age, Sexe, Date de l'enregistrement]
[03, 0.002, Edna, 23, F, 15.03.2005]
0.2
0.36
0.46
0.485
0.415
0.265
0.085
-0.035
-0.015
0.015
0.205
0.37
0.45
0.45
0.405
0.22
0.04
-0.055
-0.075
-0.055
0.13
0.305
0.375
0.365
0.315
0.115
-0.08
-0.165
-0.165
-0.1
0.08
0.205
0.265
0.24
0.22
0.015
-0.155
-0.245
-0.205
-0.105
0.04
0.18
0.25
0.235
0.175
-0.02
-0.175
-0.24
-0.22
-0.17
0.035
0.205
0.245
0.235
0.16
-0.03
-0.205
-0.255
-0.23
-0.125
0.05
0.205
0.265
0.23
0.14
-0.045
-0.195
-0.235
-0.2
-0.125
0.035
0.195
0.265
0.22
0.12
-0.07
-0.21
-0.255
-0.235
-0.125
0.085
0.21
0.23
0.205
0.115
-0.05
-0.2
-0.26
-0.23
-0.105
0.06
0.23
0.245
0.205
0.115
-0.075
-0.2
-0.24
-0.205
-0.085
0.11
0.24
0.27
0.265
0.09
-0.095
-0.195
-0.22
-0.205
-0.04
0.14
0.23
0.28
0.255
0.105
-0.075
-0.195
-0.225
-0.19
-0.04
0.155
0.24
0.27
0.23
0.11
-0.09
-0.195
-0.205
-0.16
-0.03
0.145
0.245
0.26
0.25
0.07
-0.085
-0.18
-0.2
-0.17
0.0
0.16
0.225
0.26
0.235
0.065
-0.13
-0.225
-0.22
-0.175
0.0
0.16
0.25
0.275
0.22
0.065
-0.1
-0.21
-0.26
-0.235
-0.005
0.165
0.25
0.255
0.215
0.025
-0.155
-0.235
-0.225
-0.165
0.03
0.165
0.265
0.26
0.205
0.015
-0.155
-0.235
-0.195
-0.15
0.05
0.18
0.245
0.27
0.205
0.015
-0.135
-0.205
-0.245
-0.17
0.025
0.185
0.22
0.195
0.21
0.02
-0.18
-0.24
-0.225
-0.14
0.075
0.185
0.285
0.23
0.18
0.015
-0.155
-0.21
-0.225
-0.14
0.08
0.205
0.27
0.23
0.17
-0.025
-0.17
-0.2
-0.205
-0.08
0.09
0.23
0.31
0.265
0.2
0.01
-0.17
-0.195
-0.155
-0.04
0.15
0.305
0.355
0.305
0.195
0.03
-0.12
-0.165
-0.14
-0.01
0.18
0.275
0.315
0.325
0.175
-0.015
-0.15
-0.22
-0.2
-0.055
0.105
0.225
0.275
0.24
0.115
-0.055
-0.2
-0.22
-0.19
-0.075
0.115
0.23
0.255
0.235
0.085
-0.105
-0.18
-0.22
-0.205
-0.11
0.1
0.215
0.265
0.22
0.065
-0.13
-0.23
-0.215
-0.19
-0.045
0.135
0.255
0.265
0.21
0.07
-0.115
-0.23
-0.235
-0.205
-0.035
0.135
0.245
0.245
0.215
0.04
-0.18
-0.31
-0.315
-0.25
-0.055
0.155
0.325
0.435
0.5
0.405
0.295
0.37
0.415
0.525
0.725
0.86
0.98
1.04
0.93
0.45
0.035
-0.125
-0.155
-0.135
0.025
0.26
0.285
0.26
0.23
0.025
-0.125
-0.21
-0.185
-0.155
0.02
0.18
0.255
0.245
0.23
0.015
-0.155
-0.25
-0.23
-0.135
0.025
0.195
0.255
0.245
0.175
-0.015
-0.2
-0.26
-0.185
-0.155
0.025
0.21
0.255
0.225
0.14
-0.045
-0.17
-0.225
-0.19
-0.12
0.045
0.195
0.245
0.225
0.165
-0.025
-0.15
-0.2
-0.195
-0.135
0.085
0.215
0.28
0.265
0.135
-0.025
-0.17
-0.21
-0.19
-0.085
0.11
0.245
0.31
0.225
0.135
-0.04
-0.17
-0.22
-0.18
-0.035
0.11
0.26
0.325
0.265
0.13
0.005
-0.16
-0.17
-0.16
-0.005
0.17
0.27
0.31
0.305
0.2
-0.02
-0.145
-0.165
-0.095
0.03
0.215
0.36
0.355
0.3
0.15
-0.015
-0.105
-0.115
-0.1
0.08
0.24
0.34
0.365
0.38
0.27
0.065
-0.06
-0.095
-0.025
0.13
0.315
0.4
0.42
0.415
0.265
0.045
-0.04
-0.03
-0.01
0.19
0.38
0.49
0.465
0.46
0.29
0.12
0.035
0.035
0.035
0.23
0.39
0.49
0.505
0.49
0.31
0.08
-0.005
-0.03
0.045
0.215
0.365
0.425
0.425
0.38
0.19
0.015
-0.065
-0.115
-0.06
0.115
0.285
0.345
0.335
0.28
0.07
-0.1
-0.17
-0.16
-0.125
0.05
0.235
0.31
0.31
0.25
0.045
-0.15
-0.225
-0.19
-0.125
0.06
0.205
0.275
0.27
0.2
0.02
-0.13
-0.2
-0.21
-0.13
0.06
0.225
0.29
0.245
0.21
0.0
-0.16
-0.23
-0.19
-0.095
0.095
0.245
0.285
0.235
0.195
-0.015
-0.185
-0.21
-0.19
-0.1
0.13
0.26
0.295
0.275
0.18
-0.015
-0.175
-0.225
-0.19
-0.065
0.13
0.26
0.28
0.265
0.16
-0.025
-0.165
-0.195
-0.165
-0.045
0.15
0.285
0.33
0.255
0.145
-0.055
-0.15
-0.19
-0.16
-0.035
0.145
0.28
0.295
0.275
0.13
-0.055
-0.175
-0.205
-0.175
-0.025
0.145
0.285
0.295
0.255
0.125
-0.055
-0.2
-0.2
-0.165
-0.03
0.155
0.255
0.295
0.245
0.12
-0.085
-0.215
-0.205
-0.175
-0.015
0.185
0.255
0.28
0.26
0.075
-0.14
-0.19
-0.205
-0.17
0.015
0.185
0.275
0.28
0.23
0.09
-0.09
-0.185
-0.19
-0.155
0.02
0.195
0.27
0.28
0.23
0.065
-0.12
-0.195
-0.19
-0.17
0.035
0.225
0.305
0.29
0.235
0.08
-0.11
-0.185
-0.18
-0.135
0.05
0.195
0.29
0.265
0.23
0.04
-0.125
-0.21
-0.21
-0.11
0.055
0.195
0.295
0.275
0.225
0.045
-0.155
-0.2
-0.18
-0.125
0.055
0.22
0.285
0.255
0.2
0.02
-0.125
-0.185
-0.195
-0.095
0.085
0.245
0.3
0.27
0.215
0.01
-0.12
-0.195
-0.175
-0.06
0.07
0.285
0.335
0.33
0.23
0.035
-0.11
-0.155
-0.12
-0.01
0.135
0.245
0.32
0.305
0.23
0.025
-0.105
-0.14
-0.145
-0.05
0.175
0.26
0.355
0.29
0.205
-0.025
-0.155
-0.25
-0.255
-0.055
0.11
0.205
0.23
0.245
0.105
-0.09
-0.225
-0.265
-0.24
-0.045
0.125
0.25
0.3
0.265
0.09
-0.095
-0.215
-0.24
-0.22
-0.085
0.16
0.28
0.3
0.235
0.09
-0.125
-0.245
-0.26
-0.215
-0.08
0.145
0.245
0.23
0.185
0.055
-0.1
-0.225
-0.19
-0.225
-0.03
0.065
0.1
0.125
0.125
0.03
-0.08
-0.105
-0.035
0.105
0.37
0.705
0.955
1.06
1.025
0.9
0.73
0.675
0.705
0.76
0.8
0.61
0.485
0.425
0.34
0.11
-0.095
-0.19
-0.21
-0.175
0.04
0.185
0.325
0.305
0.315
0.07
-0.165
-0.145
-0.235
-0.155
0.0
0.16
0.225
0.25
0.27
0.04
-0.205
-0.245
-0.21
-0.225
0.04
0.22
0.31
0.235
0.155
-0.015
-0.11
-0.155
-0.145
-0.12
0.08
0.25
0.305
0.245
0.225
0.015
-0.16
-0.255
-0.25
-0.135
0.085
0.225
0.295
0.255
0.17
-0.055
-0.155
-0.28
-0.19
-0.16
0.115
0.28
0.295
0.29
0.185
-0.01
-0.09
-0.195
-0.185
-0.08
0.1
0.23
0.31
0.3
0.2
-0.025
-0.14
-0.18
-0.15
-0.035
0.145
0.285
0.33
0.315
0.17
-0.015
-0.125
-0.17
-0.145
0.005
0.18
0.31
0.35
0.325
0.205
0.015
-0.115
-0.13
-0.11
0.07
0.245
0.36
0.37
0.385
0.235
0.065
-0.035
-0.085
-0.08
0.095
0.265
0.43
0.49
0.46
0.335
0.1
-0.015
-0.04
0.015
0.205
0.365
0.465
0.52
0.46
0.305
0.135
0.005
0.02
0.08
0.2
0.45
0.485
0.54
0.52
0.315
0.085
0.075
0.085
0.07
0.295
0.45
0.525
0.485
0.485
0.285
0.1
-0.005
-0.075
-0.005
0.14
0.35
0.385
0.39
0.38
0.165
0.02
-0.105
-0.135
-0.07
0.095
0.205
0.32
0.305
0.225
0.05
-0.09
-0.17
-0.14
-0.13
0.125
0.265
0.285
0.29
0.3
0.09
-0.1
-0.185
-0.17
-0.12
0.065
0.235
0.35
0.325
0.245
0.06
-0.12
-0.17
-0.175
-0.11
0.07
0.245
0.325
0.315
0.265
0.065
-0.11
-0.185
-0.155
-0.08
0.13
0.27
0.355
0.3
0.24
0.015
-0.12
-0.185
-0.16
-0.035
0.125
0.305
0.32
0.27
0.215
0.065
-0.1
-0.135
-0.145
-0.045
0.145
0.295
0.34
0.33
0.26
0.03
-0.12
-0.16
-0.15
-0.065
0.145
0.295
0.34
0.3
0.195
0.025
-0.125
-0.16
-0.16
-0.02
0.185
0.285
0.315
0.315
0.195
-0.02
-0.13
-0.16
-0.13
0.015
0.145
0.305
0.325
0.275
0.185
-0.025
-0.145
-0.165
-0.115
0.0
0.17
0.31
0.345
0.32
0.15
-0.045
-0.135
-0.125
-0.15
0.06
0.195
0.32
0.315
0.265
0.07
-0.045
-0.11
-0.135
-0.095
0.02
0.235
0.335
0.315
0.28
0.11
-0.07
-0.11
-0.15
-0.105
0.06
0.2
0.33
0.34
0.295
0.11
-0.05
-0.185
-0.225
-0.17
0.11
0.225
0.32
0.36
0.285
0.115
-0.05
-0.115
-0.115
-0.1
0.09
0.23
0.345
0.33
0.295
0.095
-0.085
-0.165
-0.17
-0.105
0.06
0.235
0.32
0.33
0.26
0.06
-0.115
-0.155
-0.17
-0.085
0.09
0.25
0.315
0.32
0.255
0.065
-0.09
-0.135
-0.12
-0.04
0.155
0.315
0.365
0.355
0.305
0.105
-0.055
-0.105
-0.09
0.005
0.165
0.315
0.405
0.37
0.3
0.115
-0.045
-0.055
-0.03
0.045
0.205
0.34
0.405
0.395
0.3
0.075
-0.11
-0.15
-0.145
-0.06
0.13
0.29
0.335
0.34
0.255
0.04
-0.11
-0.145
-0.135
-0.025
0.13
0.235
0.335
0.31
0.155
-0.055
-0.16
-0.16
-0.13
-0.005
0.16
0.27
0.3
0.3
0.185
-0.03
-0.115
-0.135
-0.15
0.035
0.22
0.295
0.335
0.27
0.12
-0.06
-0.195
-0.165
-0.16
-0.035
0.16
0.265
0.24
0.225
0.06
-0.13
-0.265
-0.255
-0.105
0.16
0.52
0.71
0.84
0.955
0.915
0.8
0.73
0.725
0.775
0.925
1.07
1.065
0.735
0.44
0.19
-0.03
-0.095
-0.12
-0.095
0.045
0.21
0.295
0.31
0.37
0.175
0.025
-0.085
-0.12
-0.08
0.11
0.29
0.37
0.375
0.34
0.135
-0.055
-0.13
-0.16
-0.115
0.115
0.25
0.355
0.36
0.295
0.12
-0.045
-0.095
-0.105
-0.055
0.15
0.31
0.325
0.355
0.325
0.115
-0.05
-0.095
-0.095
-0.05
0.135
0.32
0.41
0.375
0.31
0.12
-0.055
-0.125
-0.1
-0.035
0.17
0.28
0.385
0.34
0.295
0.1
-0.04
-0.15
-0.12
-0.02
0.185
0.36
0.395
0.345
0.275
0.075
-0.055
-0.13
-0.08
0.1
0.25
0.36
0.45
0.36
0.27
0.09
-0.07
-0.12
-0.065
0.05
0.275
0.395
0.45
0.46
0.325
0.14
0.025
0.0
-0.02
0.085
0.24
0.435
0.465
0.43
0.33
0.14
0.015
-0.01
0.015
0.125
0.34
0.425
0.515
0.475
0.35
0.18
0.04
0.04
0.105
0.235
0.45
0.535
0.53
0.52
0.39
0.235
0.145
0.095
0.115
0.28
0.465
0.62
0.585
0.595
0.445
0.23
0.145
0.13
0.165
0.29
0.475
0.56
0.6
0.575
0.39
0.215
0.085
0.065
0.09
0.265
0.435
0.52
0.525
0.465
0.29
0.075
-0.02
0.0
0.0
0.16
0.325
0.45
0.415
0.39
0.185
0.005
-0.035
-0.07
-0.005
0.145
0.27
0.36
0.405
0.34
0.12
0.005
-0.125
-0.09
-0.025
0.135
0.325
0.395
0.365
0.34
0.16
-0.025
-0.1
-0.095
-0.065
0.13
0.295
0.395
0.365
0.315
0.1
-0.09
-0.15
-0.14
-0.05
0.165
0.345
0.375
0.35
0.275
0.06
-0.05
-0.1
-0.065
0.015
0.14
0.34
0.385
0.355
0.33
0.12
-0.02
-0.085
-0.11
-0.03
0.16
0.335
0.375
0.355
0.27
0.095
-0.07
-0.17
-0.115
-0.015
0.165
0.31
0.35
0.32
0.225
0.025
-0.095
-0.13
-0.08
0.045
0.19
0.325
0.395
0.33
0.255
0.065
-0.09
-0.16
-0.1
0.035
0.205
0.335
0.36
0.325
0.235
0.025
-0.115
-0.13
-0.085
0.03
0.235
0.355
0.37
0.32
0.18
0.0
-0.105
-0.12
-0.105
0.03
0.215
0.32
0.345
0.305
0.195
0.035
-0.12
-0.135
-0.09
0.045
0.235
0.325
0.345
0.31
0.16
-0.04
-0.12
-0.15
-0.085
0.06
0.21
0.33
0.365
0.3
0.14
-0.035
-0.145
-0.175
-0.115
0.045
0.22
0.33
0.42
0.31
0.175
-0.005
-0.14
-0.15
-0.05
0.13
0.29
0.38
0.28
0.31
0.18
-0.065
-0.155
-0.14
-0.1
0.105
0.265
0.29
0.355
0.34
0.165
-0.045
-0.095
-0.12
-0.05
0.115
0.275
0.385
0.355
0.325
0.155
0.025
-0.075
-0.095
-0.045
0.16
0.325
0.39
0.39
0.375
0.17
-0.015
-0.025
-0.015
0.035
0.225
0.36
0.445
0.42
0.365
0.17
0.015
-0.03
0.01
0.075
0.235
0.365
0.41
0.35
0.25
0.1
-0.055
-0.14
-0.08
0.0
0.18
0.325
0.365
0.35
0.28
0.08
-0.085
-0.14
-0.095
0.01
0.195
0.325
0.355
0.32
0.25
0.06
-0.085
-0.13
-0.065
0.0
0.195
0.305
0.37
0.365
0.23
0.09
-0.08
-0.14
-0.1
0.02
0.21
0.335
0.405
0.34
0.215
0.03
-0.115
-0.19
-0.14
-0.075
0.075
0.23
0.335
0.39
0.325
0.255
0.245
0.345
0.485
0.74
1.09
1.255
1.32
1.235
1.095
0.89
0.75
0.415
0.215
0.25
0.285
0.405
0.425
0.445
0.275
0.035
0.015
-0.02
-0.02
0.125
0.275
0.365
0.405
0.38
0.2
0.015
-0.075
-0.065
-0.09
0.085
0.24
0.345
0.39
0.4
0.215
0.03
-0.085
-0.085
-0.08
0.055
0.25
0.385
0.37
0.395
0.225
0.015
-0.08
-0.095
-0.035
0.15
0.31
0.395
0.375
0.335
0.14
0.0
-0.06
-0.06
-0.015
0.195
0.355
0.41
0.42
0.365
0.175
0.025
-0.08
-0.07
0.005
0.215
0.365
0.445
0.44
0.4
0.185
0.02
-0.045
-0.025
0.005
0.23
0.385
0.455
0.42
0.355
0.15
-0.025
-0.045
0.045
0.075
0.275
0.435
0.48
0.445
0.385
0.2
0.045
-0.025
0.015
0.09
0.295
0.435
0.525
0.505
0.395
0.205
0.105
0.035
0.065
0.185
0.365
0.495
0.54
0.53
0.43
0.225
0.09
0.0
0.075
0.125
0.41
0.505
0.62
0.6
0.515
0.305
0.185
0.13
0.13
0.265
0.5
0.59
0.59
0.59
0.5
0.325
0.205
0.19
0.17
0.315
0.48
0.61
0.705
0.645
0.49
0.26
0.17
0.195
0.205
0.365
0.545
0.565
0.615
0.58
0.4
0.23
0.1
0.06
0.08
0.215
0.38
0.51
0.54
0.485
0.34
0.1
-0.01
0.005
0.035
0.21
0.355
0.455
0.49
0.46
0.26
0.075
-0.035
-0.035
-0.005
0.15
0.35
0.395
0.4
0.41
0.215
0.055
-0.03
-0.095
-0.05
0.21
0.36
0.43
0.46
0.395
0.145
-0.005
-0.045
-0.02
-0.02
0.18
0.34
0.405
0.425
0.4
0.215
0.025
-0.085
-0.085
-0.03
0.18
0.355
0.42
0.395
0.305
0.15
0.015
-0.04
-0.05
-0.03
0.195
0.35
0.45
0.41
0.395
0.15
-0.025
-0.085
-0.04
0.035
0.2
0.365
0.415
0.385
0.28
0.155
0.05
-0.07
-0.05
0.025
0.23
0.41
0.435
0.395
0.315
0.085
-0.005
-0.05
-0.07
-0.025
0.2
0.395
0.41
0.37
0.265
0.105
-0.06
-0.085
-0.065
0.035
0.21
0.38
0.44
0.425
0.315
0.12
-0.04
-0.06
-0.095
0.02
0.235
0.355
0.435
0.425
0.285
0.05
-0.065
-0.115
-0.065
0.06
0.25
0.365
0.4
0.375
0.235
0.075
-0.05
-0.1
-0.065
0.045
0.21
0.31
0.325
0.315
0.22
0.03
-0.07
-0.02
0.025
0.095
0.28
0.425
0.45
0.385
0.23
0.04
-0.075
-0.08
-0.095
0.09
0.28
0.375
0.36
0.335
0.2
0.015
-0.075
-0.06
-0.025
0.115
0.3
0.4
0.415
0.34
0.18
-0.01
-0.09
-0.04
-0.015
0.155
0.295
0.38
0.4
0.385
0.245
0.025
-0.06
-0.065
-0.045
0.175
0.365
0.455
0.45
0.39
0.2
0.055
-0.045
-0.045
0.005
0.175
0.375
0.44
0.415
0.4
0.135
-0.065
-0.085
-0.125
0.04
0.145
0.33
0.405
0.38
0.305
0.06
-0.1
-0.185
-0.14
-0.07
0.155
0.3
0.32
0.345
0.29
0.09
-0.085
-0.145
-0.115
-0.035
0.095
0.295
0.345
0.31
0.26
0.075
-0.085
-0.155
-0.145
-0.065
0.12
0.285
0.345
0.325
0.22
0.02
-0.12
-0.145
-0.1
-0.02
0.125
0.24
0.255
0.22
0.1
-0.055
-0.145
-0.15
-0.045
0.165
0.485
0.74
0.91
1.015
1.025
0.85
0.745
0.7
0.755
0.92
1.065
0.98
0.68
0.46
0.235
0.03
-0.095
-0.14
-0.075
0.055
0.21
0.32
0.38
0.32
0.185
0.005
-0.115
-0.16
-0.13
-0.005
0.165
0.315
0.34
0.325
0.18
-0.035
-0.14
-0.18
-0.14
0.01
0.175
0.31
0.325
0.295
0.15
-0.065
-0.145
-0.17
-0.135
-0.005
0.185
0.295
0.32
0.29
0.13
-0.02
-0.145
-0.165
-0.13
0.025
0.22
0.305
0.285
0.27
0.115
-0.04
-0.12
-0.165
-0.11
0.06
0.215
0.32
0.32
0.28
0.105
-0.085
-0.12
-0.135
-0.095
0.06
0.285
0.33
0.32
0.27
0.095
-0.045
-0.11
-0.13
-0.145
0.01
0.305
0.38
0.35
0.3
0.12
-0.065
-0.12
-0.135
-0.105
0.095
0.335
0.4
0.375
0.315
0.13
-0.03
-0.085
-0.085
-0.025
0.14
0.295
0.375
0.39
0.315
0.12
-0.035
-0.065
-0.025
0.03
0.24
0.355
0.45
0.41
0.335
0.165
0.02
-0.03
0.035
0.1
0.26
0.425
0.48
0.48
0.4
0.23
0.045
-0.005
0.05
0.12
0.335
0.485
0.53
0.505
0.395
0.215
0.07
0.02
0.04
0.17
0.37
0.49
0.545
0.515
0.355
0.13
-0.005
-0.035
0.0
0.115
0.285
0.42
0.44
0.405
0.275
0.055
-0.085
-0.11
-0.1
0.005
0.18
0.305
0.34
0.32
0.18
-0.05
-0.16
-0.185
-0.16
-0.01
0.17
0.28
0.275
0.27
0.13
-0.095
-0.185
-0.205
-0.175
-0.035
0.14
0.23
0.285
0.25
0.085
-0.09
-0.22
-0.225
-0.185
-0.05
0.155
0.235
0.285
0.29
0.075
-0.09
-0.17
-0.255
-0.17
-0.03
0.16
0.27
0.27
0.195
0.04
-0.15
-0.245
-0.205
-0.15
0.01
0.205
0.27
0.265
0.245
0.075
-0.105
-0.235
-0.215
-0.18
0.03
0.205
0.28
0.255
0.215
0.025
-0.17
-0.245
-0.245
-0.165
0.06
0.195
0.27
0.26
0.215
0.015
-0.155
-0.24
-0.2
-0.155
0.01
0.19
0.26
0.23
0.18
0.005
-0.165
-0.225
-0.185
-0.14
0.07
0.165
0.235
0.225
0.195
-0.015
-0.21
-0.275
-0.23
-0.13
0.035
0.21
0.27
0.225
0.15
-0.07
-0.215
-0.285
-0.235
-0.135
0.07
0.205
0.255
0.195
0.115
-0.065
-0.215
-0.28
-0.24
-0.155
0.025
0.195
0.235
0.205
0.11
-0.095
-0.2
-0.25
-0.24
-0.135
0.045
0.19
0.23
0.21
0.065
-0.11
-0.265
-0.285
-0.25
-0.13
0.08
0.225
0.24
0.225
0.085
-0.125
-0.275
-0.285
-0.255
-0.105
0.075
0.2
0.195
0.175
0.035
-0.175
-0.25
-0.265
-0.21
-0.095
0.065
0.16
0.225
0.18
0.035
-0.145
-0.245
-0.28
-0.2
-0.05
0.1
0.215
0.27
0.215
0.09
-0.125
-0.225
-0.24
-0.225
-0.085
0.105
0.235
0.245
0.205
0.025
-0.135
-0.275
-0.3
-0.29
-0.15
0.07
0.14
0.16
0.145
-0.055
-0.235
-0.345
-0.35
-0.3
-0.095
0.035
0.125
0.12
0.085
-0.055
-0.23
-0.34
-0.335
-0.3
-0.13
0.03
0.1
0.105
0.09
-0.08
-0.295
-0.37
-0.37
-0.29
-0.085
0.08
0.15
0.12
0.085
-0.125
-0.305
-0.395
-0.34
-0.295
-0.105
0.045
0.07
0.015
-0.045
-0.2
-0.325
-0.345
-0.205
0.0
0.28
0.565
0.755
0.895
0.88
0.705
0.58
0.52
0.6
0.675
0.82
0.685
0.405
0.215
0.07
-0.11
-0.24
-0.275
-0.26
-0.195
-0.03
0.12
0.165
0.115
0.035
-0.17
-0.28
-0.315
-0.305
-0.195
-0.045
0.095
0.14
0.11
0.005
-0.155
-0.29
-0.345
-0.3
-0.215
-0.05
0.09
0.15
0.125
0.01
-0.155
-0.3
-0.34
-0.34
-0.205
-0.02
0.12
0.135
0.115
-0.005
-0.195
-0.3
-0.33
-0.305
-0.185
0.0
0.115
0.165
0.145
0.0
-0.215
-0.325
-0.335
-0.31
-0.145
0.04
0.155
0.14
0.135
-0.035
-0.225
-0.35
-0.385
-0.315
-0.14
0.055
0.145
0.18
0.135
-0.035
-0.2
-0.325
-0.335
-0.285
-0.11
0.06
0.175
0.195
0.13
-0.015
-0.205
-0.32
-0.32
-0.275
-0.08
0.08
0.16
0.21
0.185
0.0
-0.17
-0.275
-0.28
-0.245
-0.045
0.13
0.22
0.235
0.205
0.02
-0.16
-0.25
-0.25
-0.225
-0.015
0.175
0.285
0.245
0.215
0.04
-0.13
-0.195
-0.19
-0.12
0.065
0.22
0.295
0.29
0.25
0.075
-0.08
-0.165
-0.14
-0.085
0.11
0.265
0.34
0.34
0.255
0.055
-0.105
-0.165
-0.13
-0.055
0.13
0.295
0.355
0.305
0.22
-0.005
-0.16
-0.21
-0.2
-0.125
0.025
0.17
0.235
0.215
0.14
-0.055
-0.225
-0.31
-0.275
-0.23
-0.06
0.095
0.15
0.12
0.035
-0.14
-0.295
-0.39
-0.37
-0.265
-0.02
0.115
0.14
0.115
0.01
-0.21
-0.34
-0.39
-0.385
-0.255
-0.04
0.1
0.135
0.11
-0.03
-0.205
-0.345
-0.4
-0.385
-0.27
-0.085
0.045
0.095
0.05
-0.075
-0.27
-0.385
-0.42
-0.36
-0.215
-0.045
0.09
0.115
0.07
-0.08
-0.265
-0.405
-0.435
-0.405
-0.24
-0.055
0.07
0.09
0.02
-0.1
-0.285
-0.4
-0.43
-0.385
-0.215
-0.05
0.065
0.07
0.065
-0.11
-0.305
-0.405
-0.425
-0.405
-0.25
-0.06
0.04
0.075
0.025
-0.135
-0.325
-0.43
-0.44
-0.41
-0.235
-0.085
0.005
0.035
0.01
-0.16
-0.35
-0.44
-0.45
-0.415
-0.245
-0.075
0.015
0.005
-0.035
-0.205
-0.375
-0.455
-0.455
-0.43
-0.24
-0.065
0.035
0.005
-0.04
-0.22
-0.385
-0.47
-0.465
-0.42
-0.205
-0.05
0.02
0.005
-0.055
-0.275
-0.425
-0.485
-0.465
-0.405
-0.225
-0.05
0.025
0.0
-0.065
-0.255
-0.4
-0.485
-0.455
-0.395
-0.205
-0.04
0.01
0.0
-0.08
-0.275
-0.415
-0.465
-0.455
-0.385
-0.195
-0.025
0.015
-0.005
-0.08
-0.285
-0.43
-0.48
-0.445
-0.335
-0.16
-0.015
0.04
0.015
-0.075
-0.27
-0.425
-0.465
-0.435
-0.32
-0.15
0.015
0.03
0.02
-0.1
-0.285
-0.42
-0.455
-0.41
-0.28
-0.11
0.035
0.065
0.045
-0.05
-0.26
-0.39
-0.42
-0.395
-0.265
-0.085
0.035
0.07
0.035
-0.115
-0.33
-0.44
-0.475
-0.475
-0.335
-0.165
-0.04
-0.015
-0.04
-0.195
-0.38
-0.5
-0.535
-0.51
-0.325
-0.155
-0.065
-0.03
-0.06
-0.215
-0.405
-0.505
-0.545
-0.495
-0.34
-0.16
-0.07
-0.045
-0.06
-0.23
-0.4
-0.525
-0.525
-0.49
-0.305
-0.17
-0.065
-0.08
-0.075
-0.245
-0.42
-0.525
-0.54
-0.51
-0.355
-0.225
-0.155
-0.16
-0.18
-0.325
-0.48
-0.5
-0.37
-0.23
0.06
0.31
0.54
0.685
0.7
0.53
0.385
0.335
0.38
0.415
0.5
0.32
0.165
0.075
-0.015
-0.235
-0.405
-0.495
-0.505
-0.45
-0.25
-0.115
-0.05
-0.055
-0.105
-0.29
-0.465
-0.555
-0.51
-0.455
-0.26
-0.115
-0.065
-0.075
-0.115
-0.305
-0.48
-0.545
-0.535
-0.475
-0.28
-0.125
-0.06
-0.085
-0.135
-0.335
-0.5
-0.58
-0.54
-0.445
-0.255
-0.1
-0.055
-0.075
-0.17
-0.375
-0.515
-0.56
-0.54
-0.45
-0.25
-0.105
-0.065
-0.095
-0.2
-0.38
-0.505
-0.545
-0.52
-0.41
-0.21
-0.1
-0.055
-0.09
-0.19
-0.39
-0.5
-0.545
-0.53
-0.405
-0.22
-0.105
-0.035
-0.065
-0.165
-0.38
-0.505
-0.53
-0.5
-0.365
-0.18
-0.06
-0.025
-0.06
-0.185
-0.36
-0.5
-0.5
-0.46
-0.325
-0.155
-0.035
-0.005
-0.025
-0.155
-0.345
-0.47
-0.48
-0.455
-0.285
-0.09
0.025
0.045
0.01
-0.125
-0.32
-0.425
-0.43
-0.38
-0.23
-0.04
0.07
0.09
0.07
-0.105
-0.285
-0.38
-0.39
-0.35
-0.175
0.0
0.095
0.115
0.1
-0.08
-0.27
-0.34
-0.365
-0.345
-0.165
0.04
0.135
0.14
0.11
-0.085
-0.27
-0.33
-0.335
-0.3
-0.135
0.035
0.1
0.09
0.03
-0.165
-0.34
-0.415
-0.415
-0.4
-0.215
-0.035
0.02
0.0
-0.055
-0.245
-0.43
-0.51
-0.505
-0.46
-0.27
-0.105
-0.045
-0.06
-0.1
-0.34
-0.49
-0.565
-0.57
-0.52
-0.305
-0.135
-0.095
-0.105
-0.165
-0.38
-0.525
-0.585
-0.55
-0.47
-0.3
-0.145
-0.095
-0.13
-0.2
-0.395
-0.545
-0.6
-0.585
-0.485
-0.31
-0.145
-0.07
-0.105
-0.2
-0.395
-0.535
-0.58
-0.565
-0.485
-0.28
-0.165
-0.09
-0.105
-0.2
-0.415
-0.56
-0.595
-0.59
-0.48
-0.285
-0.14
-0.105
-0.13
-0.255
-0.45
-0.585
-0.6
-0.56
-0.44
-0.265
-0.145
-0.13
-0.175
-0.3
-0.465
-0.585
-0.625
-0.59
-0.445
-0.265
-0.145
-0.11
-0.145
-0.3
-0.475
-0.59
-0.63
-0.59
-0.445
-0.27
-0.145
-0.125
-0.155
-0.29
-0.475
-0.57
-0.615
-0.58
-0.41
-0.24
-0.12
-0.135
-0.17
-0.335
-0.51
-0.61
-0.62
-0.595
-0.43
-0.22
-0.13
-0.115
-0.15
-0.33
-0.53
-0.61
-0.625
-0.595
-0.41
-0.235
-0.135
-0.155
-0.175
-0.365
-0.56
-0.64
-0.635
-0.59
-0.395
-0.23
-0.165
-0.175
-0.17
-0.34
-0.52
-0.625
-0.63
-0.565
-0.385
-0.22
-0.14
-0.17
-0.205
-0.42
-0.54
-0.62
-0.62
-0.6
-0.375
-0.22
-0.155
-0.15
-0.195
-0.38
-0.555
-0.655
-0.635
-0.58
-0.38
-0.21
-0.145
-0.14
-0.195
-0.395
-0.56
-0.625
-0.59
-0.545
-0.34
-0.18
-0.135
-0.12
-0.175
-0.37
-0.535
-0.605
-0.565
-0.525
-0.295
-0.155
-0.135
-0.145
-0.18
-0.365
-0.525
-0.565
-0.555
-0.455
-0.27
-0.11
-0.055
-0.085
-0.18
-0.405
-0.57
-0.62
-0.59
-0.465
-0.265
-0.13
-0.1
-0.16
-0.25
-0.465
-0.63
-0.68
-0.625
-0.505
-0.32
-0.155
-0.15
-0.18
-0.28
-0.48
-0.625
-0.665
-0.635
-0.52
-0.33
-0.205
-0.16
-0.18
-0.325
-0.51
-0.635
-0.65
-0.63
-0.525
-0.32
-0.18
-0.135
-0.18
-0.32
-0.52
-0.63
-0.635
-0.585
-0.46
-0.275
-0.16
-0.13
-0.18
-0.32
-0.545
-0.63
-0.685
-0.67
-0.52
-0.365
-0.245
-0.215
-0.21
-0.245
-0.32
-0.32
-0.23
-0.075
0.245
0.495
0.635
0.665
0.635
0.515
0.36
0.24
-0.01
-0.29
-0.245
-0.14
-0.08
-0.105
-0.155
-0.335
-0.535
-0.61
-0.6
-0.59
-0.41
-0.245
-0.155
-0.175
-0.2
-0.355
-0.535
-0.625
-0.61
-0.57
-0.38
-0.22
-0.125
-0.14
-0.18
-0.38
-0.575
-0.625
-0.63
-0.58
-0.395
-0.235
-0.185
-0.165
-0.22
-0.395
-0.55
-0.635
-0.62
-0.55
-0.38
-0.22
-0.125
-0.165
-0.245
-0.44
-0.595
-0.645
-0.615
-0.56
-0.39
-0.2
-0.15
-0.145
-0.215
-0.4
-0.555
-0.65
-0.605
-0.56
-0.35
-0.17
-0.115
-0.14
-0.215
-0.425
-0.56
-0.605
-0.56
-0.475
-0.28
-0.155
-0.11
-0.13
-0.22
-0.405
-0.555
-0.605
-0.565
-0.475
-0.305
-0.145
-0.095
-0.12
-0.225
-0.39
-0.55
-0.57
-0.555
-0.46
-0.255
-0.1
-0.055
-0.1
-0.2
-0.375
-0.54
-0.56
-0.515
-0.38
-0.21
-0.065
-0.025
-0.045
-0.175
-0.36
-0.475
-0.515
-0.47
-0.32
-0.135
-0.005
0.04
0.025
-0.11
-0.295
-0.415
-0.43
-0.4
-0.26
-0.095
0.045
0.08
0.05
-0.105
-0.275
-0.385
-0.4
-0.37
-0.22
-0.045
0.055
0.11
0.085
-0.105
-0.27
-0.385
-0.375
-0.36
-0.21
-0.05
0.06
0.06
0.015
-0.18
-0.355
-0.48
-0.47
-0.435
-0.26
-0.09
-0.015
-0.02
-0.06
-0.245
-0.45
-0.54
-0.555
-0.52
-0.34
-0.165
-0.095
-0.115
-0.13
-0.31
-0.485
-0.61
-0.61
-0.55
-0.375
-0.2
-0.12
-0.1
-0.145
-0.34
-0.52
-0.615
-0.6
-0.54
-0.34
-0.165
-0.08
-0.12
-0.165
-0.34
-0.52
-0.585
-0.56
-0.515
-0.34
-0.2
-0.11
-0.12
-0.175
-0.375
-0.55
-0.625
-0.6
-0.505
-0.33
-0.19
-0.115
-0.15
-0.215
-0.405
-0.55
-0.62
-0.605
-0.495
-0.295
-0.155
-0.13
-0.155
-0.205
-0.4
-0.55
-0.61
-0.565
-0.48
-0.325
-0.165
-0.11
-0.11
-0.21
-0.42
-0.57
-0.605
-0.575
-0.465
-0.29
-0.15
-0.105
-0.125
-0.23
-0.41
-0.58
-0.615
-0.57
-0.45
-0.26
-0.12
-0.09
-0.145
-0.26
-0.44
-0.575
-0.605
-0.57
-0.43
-0.24
-0.13
-0.085
-0.13
-0.285
-0.455
-0.55
-0.575
-0.565
-0.415
-0.24
-0.115
-0.105
-0.125
-0.265
-0.475
-0.58
-0.595
-0.555
-0.4
-0.21
-0.1
-0.08
-0.115
-0.245
-0.445
-0.565
-0.58
-0.54
-0.4
-0.225
-0.095
-0.105
-0.13
-0.265
-0.455
-0.55
-0.56
-0.53
-0.35
-0.185
-0.095
-0.1
-0.145
-0.3
-0.475
-0.56
-0.55
-0.51
-0.335
-0.18
-0.08
-0.055
-0.085
-0.285
-0.46
-0.545
-0.53
-0.485
-0.31
-0.145
-0.055
-0.065
-0.09
-0.295
-0.47
-0.53
-0.52
-0.48
-0.3
-0.1
-0.05
-0.05
-0.085
-0.265
-0.44
-0.535
-0.53
-0.465
-0.235
-0.07
0.01
-0.015
-0.06
-0.255
-0.405
-0.47
-0.46
-0.39
-0.195
-0.045
0.01
0.005
-0.07
-0.265
-0.41
-0.465
-0.425
-0.35
-0.18
0.005
0.065
0.055
-0.005
-0.215
-0.335
-0.425
-0.41
-0.315
-0.105
0.04
0.105
0.045
-0.05
-0.245
-0.425
-0.49
-0.475
-0.37
-0.185
-0.025
0.04
0.005
-0.09
-0.29
-0.435
-0.475
-0.445
-0.335
-0.165
-0.025
0.0
0.0
-0.1
-0.31
-0.42
-0.47
-0.43
-0.33
-0.14
-0.01
0.02
0.0
-0.105
-0.31
-0.445
-0.445
-0.405
-0.31
-0.105
0.01
0.035
0.0
-0.125
-0.32
-0.44
-0.465
-0.44
-0.29
-0.11
-0.01
-0.005
-0.1
-0.235
-0.425
-0.485
-0.455
-0.325
-0.045
0.225
0.445
0.565
0.665
0.57
0.445
0.365
0.35
0.44
0.645
0.815
0.695
0.395
0.185
-0.05
-0.235
-0.39
-0.385
-0.35
-0.18
0.0
0.08
0.095
0.055
-0.13
-0.3
-0.365
-0.39
-0.375
-0.185
-0.035
0.08
0.075
0.045
-0.135
-0.33
-0.425
-0.405
-0.365
-0.18
-0.005
0.09
0.085
0.045
-0.15
-0.32
-0.405
-0.4
-0.35
-0.165
0.0
0.09
0.065
0.045
-0.155
-0.34
-0.43
-0.415
-0.325
-0.17
0.005
0.095
0.1
0.045
-0.135
-0.295
-0.4
-0.36
-0.275
-0.095
0.05
0.11
0.1
0.035
-0.16
-0.315
-0.365
-0.325
-0.255
-0.045
0.085
0.13
0.105
0.06
-0.125
-0.255
-0.32
-0.31
-0.255
-0.045
0.095
0.15
0.15
0.06
-0.12
-0.255
-0.315
-0.28
-0.18
0.015
0.15
0.2
0.185
0.105
-0.085
-0.225
-0.275
-0.24
-0.15
0.02
0.16
0.26
0.25
0.14
-0.05
-0.195
-0.215
-0.165
-0.055
0.09
0.235
0.3
0.29
0.18
-0.03
-0.14
-0.18
-0.125
0.02
0.19
0.33
0.34
0.34
0.205
0.0
-0.105
-0.12
-0.09
0.07
0.275
0.385
0.41
0.37
0.23
0.035
-0.095
-0.105
-0.045
0.105
0.285
0.375
0.39
0.35
0.19
-0.005
-0.125
-0.125
-0.115
0.045
0.21
0.305
0.325
0.25
0.095
-0.105
-0.215
-0.22
-0.195
-0.05
0.105
0.19
0.215
0.185
0.01
-0.155
-0.245
-0.245
-0.225
-0.05
0.11
0.195
0.205
0.155
-0.01
-0.205
-0.285
-0.275
-0.255
-0.035
0.09
0.175
0.185
0.15
-0.045
-0.21
-0.29
-0.285
-0.24
-0.055
0.11
0.21
0.185
0.16
-0.065
-0.26
-0.295
-0.275
-0.245
-0.045
0.125
0.2
0.18
0.15
-0.055
-0.23
-0.285
-0.25
-0.205
0.005
0.155
0.205
0.18
0.12
-0.065
-0.23
-0.275
-0.245
-0.18
0.015
0.145
0.215
0.215
0.14
-0.06
-0.22
-0.28
-0.24
-0.16
0.03
0.175
0.235
0.185
0.14
-0.05
-0.21
-0.28
-0.23
-0.16
0.035
0.185
0.22
0.18
0.09
-0.085
-0.2
-0.285
-0.225
-0.145
0.035
0.185
0.215
0.205
0.115
-0.075
-0.2
-0.26
-0.225
-0.11
0.1
0.2
0.245
0.215
0.085
-0.075
-0.195
-0.24
-0.2
-0.08
0.11
0.225
0.22
0.215
0.115
-0.09
-0.205
-0.245
-0.21
-0.07
0.105
0.225
0.265
0.22
0.095
-0.11
-0.22
-0.235
-0.205
-0.05
0.125
0.245
0.255
0.22
0.085
-0.115
-0.195
-0.22
-0.2
-0.03
0.165
0.245
0.24
0.22
0.055
-0.14
-0.225
-0.215
-0.195
-0.005
0.175
0.255
0.29
0.27
0.045
-0.145
-0.2
-0.215
-0.16
0.005
0.2
0.29
0.26
0.215
0.05
-0.12
-0.215
-0.225
-0.175
0.01
0.185
0.265
0.27
0.235
0.045
-0.13
-0.23
-0.225
-0.14
0.035
0.2
0.285
0.285
0.225
0.015
-0.165
-0.235
-0.215
-0.16
0.035
0.21
0.27
0.275
0.235
0.06
-0.11
-0.175
-0.16
-0.095
0.095
0.23
0.285
0.265
0.21
0.055
-0.09
-0.16
-0.145
-0.08
0.125
0.3
0.385
0.315
0.255
0.06
-0.085
-0.14
-0.095
-0.045
0.115
0.27
0.33
0.305
0.215
0.0
-0.15
-0.195
-0.175
-0.085
0.125
0.245
0.295
0.275
0.175
-0.035
-0.175
-0.235
-0.18
-0.05
0.12
0.26
0.29
0.255
0.145
-0.04
-0.185
-0.21
-0.165
-0.055
0.135
0.26
0.275
0.265
0.14
-0.03
-0.155
-0.205
-0.145
-0.03
0.145
0.245
0.28
0.27
0.14
-0.06
-0.18
-0.215
-0.165
-0.025
0.16
0.27
0.25
0.195
0.03
-0.155
-0.25
-0.235
-0.16
0.125
0.415
0.61
0.755
0.83
0.785
0.68
0.61
0.61
0.66
0.88
1.11
1.12
0.815
0.525
0.235
0.025
-0.07
-0.11
-0.08
0.075
0.255
0.345
0.36
0.325
0.125
-0.03
-0.145
-0.14
-0.12
0.06
0.25
0.32
0.325
0.305
0.135
-0.055
-0.14
-0.15
-0.105
0.055
0.235
0.32
0.325
0.305
0.11
-0.07
-0.14
-0.125
-0.09
0.095
0.23
0.325
0.32
0.285
0.09
-0.065
-0.165
-0.145
-0.045
0.14
0.275
0.36
0.35
0.32
0.1
-0.075
-0.125
-0.105
-0.045
0.14
0.295
0.375
0.345
0.27
0.085
-0.085
-0.135
-0.105
-0.015
0.19
0.32
0.375
0.34
0.255
0.085
-0.065
-0.125
-0.095
-0.005
0.215
0.345
0.39
0.36
0.28
0.085
-0.06
-0.115
-0.07
0.01
0.2
0.37
0.425
0.395
0.265
0.07
-0.025
-0.06
-0.035
0.075
0.295
0.41
0.435
0.41
0.3
0.12
-0.005
-0.045
-0.02
0.11
0.29
0.455
0.495
0.48
0.335
0.165
0.05
0.01
0.065
0.195
0.37
0.48
0.51
0.48
0.36
0.21
0.085
0.07
0.11
0.265
0.455
0.555
0.585
0.555
0.415
0.205
0.11
0.08
0.12
0.275
0.445
0.555
0.59
0.545
0.375
0.18
0.075
0.05
0.065
0.22
0.385
0.465
0.495
0.465
0.265
0.085
-0.02
-0.045
-0.01
0.16
0.325
0.405
0.395
0.375
0.175
-0.015
-0.115
-0.1
-0.075
0.11
0.285
0.365
0.375
0.325
0.135
-0.025
-0.115
-0.105
-0.08
0.11
0.29
0.355
0.345
0.295
0.105
-0.07
-0.16
-0.145
-0.125
0.12
0.27
0.355
0.355
0.285
0.125
-0.055
-0.135
-0.115
-0.035
0.11
0.265
0.36
0.315
0.27
0.085
-0.075
-0.145
-0.11
-0.04
0.145
0.3
0.36
0.345
0.28
0.065
-0.08
-0.115
-0.085
-0.05
0.135
0.3
0.37
0.38
0.3
0.085
-0.04
-0.115
-0.12
-0.015
0.175
0.32
0.385
0.37
0.265
0.055
-0.06
-0.11
-0.08
0.015
0.2
0.345
0.39
0.345
0.245
0.06
-0.075
-0.115
-0.09
0.025
0.23
0.36
0.4
0.355
0.25
0.08
-0.055
-0.12
-0.075
0.055
0.225
0.35
0.395
0.355
0.235
0.035
-0.075
-0.115
-0.05
0.08
0.25
0.36
0.385
0.35
0.235
0.055
-0.07
-0.095
-0.045
0.09
0.27
0.375
0.375
0.355
0.21
0.005
-0.095
-0.095
-0.055
0.1
0.265
0.4
0.415
0.39
0.235
0.035
-0.08
-0.08
-0.055
0.09
0.255
0.345
0.365
0.375
0.205
0.005
-0.08
-0.07
-0.045
0.125
0.305
0.4
0.38
0.365
0.15
-0.045
-0.11
-0.09
-0.05
0.145
0.31
0.385
0.375
0.365
0.18
0.005
-0.105
-0.08
-0.055
0.125
0.33
0.385
0.38
0.355
0.175
0.005
-0.09
-0.105
-0.06
0.145
0.305
0.375
0.35
0.31
0.15
-0.005
-0.09
-0.06
-0.015
0.17
0.33
0.385
0.355
0.3
0.105
-0.05
-0.095
-0.105
-0.04
0.16
0.33
0.38
0.37
0.295
0.125
-0.035
-0.085
-0.07
-0.005
0.175
0.365
0.42
0.38
0.32
0.09
-0.015
-0.07
-0.045
0.05
0.245
0.395
0.45
0.435
0.34
0.135
0.015
-0.04
0.005
0.12
0.27
0.445
0.495
0.46
0.345
0.14
-0.02
-0.035
-0.01
0.1
0.3
0.43
0.47
0.455
0.315
0.11
-0.02
-0.11
-0.075
0.05
0.235
0.35
0.405
0.395
0.255
0.075
-0.055
-0.075
-0.06
0.05
0.23
0.36
0.39
0.36
0.225
0.03
-0.1
-0.13
-0.05
0.065
0.25
0.4
0.41
0.37
0.25
0.045
-0.07
-0.085
-0.04
0.13
0.275
0.38
0.39
0.345
0.205
0.03
-0.045
-0.05
-0.055
0.13
0.275
0.35
0.355
0.28
0.095
-0.09
-0.125
-0.075
-0.015
0.285
0.545
0.74
0.855
0.95
0.88
0.77
0.735
0.775
0.805
1.015
1.225
1.24
0.885
0.64
0.34
0.135
0.04
0.035
0.025
0.205
0.39
0.48
0.46
0.42
0.24
0.075
-0.045
-0.02
0.045
0.24
0.4
0.485
0.485
0.42
0.225
0.055
-0.02
0.01
0.085
0.245
0.415
0.485
0.465
0.425
0.21
0.045
-0.005
0.035
0.065
0.245
0.39
0.465
0.465
0.4
0.195
0.03
-0.045
0.01
0.11
0.29
0.43
0.515
0.46
0.39
0.165
0.025
-0.005
0.015
0.085
0.3
0.445
0.52
0.495
0.39
0.165
0.03
0.025
0.05
0.135
0.32
0.47
0.515
0.49
0.395
0.2
0.04
0.0
0.04
0.145
0.335
0.505
0.545
0.505
0.405
0.195
0.075
0.05
0.08
0.2
0.385
0.49
0.53
0.51
0.4
0.24
0.1
0.09
0.155
0.315
0.46
0.48
0.475
0.455
0.39
0.205
0.11
0.085
0.1
0.235
0.41
0.565
0.625
0.555
0.425
0.23
0.115
0.12
0.17
0.335
0.525
0.635
0.64
0.62
0.46
0.27
0.175
0.145
0.19
0.4
0.575
0.675
0.665
0.65
0.465
0.305
0.205
0.22
0.245
0.415
0.59
0.67
0.69
0.62
0.45
0.25
0.155
0.145
0.19
0.37
0.49
0.57
0.565
0.535
0.35
0.14
0.035
0.065
0.135
0.305
0.43
0.54
0.515
0.455
0.265
0.075
-0.005
-0.02
0.035
0.255
0.4
0.485
0.455
0.4
0.215
0.06
-0.005
0.015
0.04
0.265
0.39
0.46
0.44
0.39
0.2
0.045
-0.025
0.0
0.06
0.22
0.38
0.46
0.45
0.36
0.19
0.005
-0.05
-0.02
0.05
0.24
0.405
0.445
0.425
0.355
0.175
-0.01
-0.04
0.0
0.075
0.265
0.445
0.495
0.45
0.345
0.155
0.0
-0.03
-0.015
0.105
0.29
0.405
0.465
0.44
0.34
0.175
0.02
-0.015
-0.02
0.125
0.315
0.415
0.47
0.42
0.315
0.12
0.015
0.0
0.02
0.135
0.3
0.44
0.47
0.42
0.325
0.11
-0.01
-0.04
-0.005
0.13
0.34
0.455
0.48
0.435
0.29
0.08
-0.025
-0.065
-0.04
0.115
0.315
0.435
0.465
0.435
0.265
0.09
-0.03
-0.04
-0.01
0.15
0.325
0.435
0.445
0.415
0.27
0.065
-0.025
-0.035
-0.01
0.165
0.335
0.42
0.46
0.415
0.26
0.09
0.0
-0.015
0.005
0.195
0.38
0.425
0.415
0.405
0.22
0.055
-0.025
-0.03
0.02
0.21
0.37
0.445
0.44
0.39
0.24
0.06
-0.05
-0.02
-0.025
0.18
0.355
0.435
0.44
0.4
0.22
0.05
-0.025
-0.05
-0.025
0.2
0.355
0.455
0.43
0.365
0.19
0.02
-0.06
-0.03
0.025
0.23
0.385
0.445
0.425
0.385
0.2
0.03
-0.035
-0.025
0.03
0.23
0.385
0.485
0.455
0.35
0.155
0.015
-0.025
-0.02
0.06
0.26
0.38
0.44
0.44
0.365
0.15
-0.02
-0.055
-0.015
0.08
0.28
0.4
0.49
0.435
0.355
0.16
-0.02
-0.06
-0.02
0.135
0.305
0.455
0.49
0.455
0.36
0.18
0.05
0.0
0.04
0.17
0.365
0.485
0.535
0.505
0.385
0.2
0.035
0.015
0.06
0.175
0.35
0.51
0.535
0.49
0.355
0.145
0.025
0.0
0.005
0.135
0.325
0.435
0.47
0.435
0.3
0.13
-0.005
-0.035
0.01
0.145
0.33
0.425
0.455
0.42
0.275
0.09
-0.02
-0.04
0.01
0.165
0.37
0.47
0.46
0.405
0.29
0.065
-0.04
-0.05
-0.015
0.15
0.325
0.445
0.44
0.395
0.235
0.08
0.0
-0.045
0.015
0.18
0.37
0.46
0.485
0.425
0.22
0.0
-0.14
-0.13
-0.105
0.155
0.395
0.57
0.7
0.77
0.665
0.63
0.635
0.74
0.83
1.015
1.19
1.34
1.34
1.15
0.635
0.275
0.1
0.045
0.095
0.265
0.415
0.455
0.43
0.43
0.25
0.055
0.01
0.02
0.05
0.265
0.45
0.495
0.445
0.41
0.185
0.02
-0.03
-0.01
0.04
0.255
0.42
0.475
0.445
0.385
0.19
0.035
-0.035
-0.01
0.075
0.275
0.42
0.475
0.455
0.375
0.2
0.01
-0.025
0.02
0.09
0.29
0.435
0.495
0.45
0.36
0.17
0.045
-0.025
0.005
0.105
0.305
0.465
0.515
0.49
0.375
0.18
0.025
-0.035
-0.005
0.13
0.345
0.47
0.48
0.465
0.365
0.16
0.035
0.005
0.03
0.15
0.33
0.48
0.525
0.495
0.37
0.17
0.07
0.02
0.04
0.205
0.38
0.515
0.54
0.515
0.4
0.19
0.06
0.03
0.08
0.2
0.39
0.525
0.535
0.515
0.395
0.215
0.1
0.09
0.125
0.295
0.475
0.55
0.605
0.56
0.42
0.27
0.155
0.135
0.19
0.355
0.55
0.645
0.65
0.62
0.42
0.28
0.21
0.22
0.255
0.395
0.585
0.7
0.745
0.69
0.52
0.345
0.25
0.245
0.285
0.485
0.645
0.74
0.71
0.685
0.48
0.295
0.195
0.2
0.24
0.425
0.58
0.65
0.65
0.585
0.38
0.22
0.135
0.15
0.19
0.35
0.525
0.575
0.555
0.485
0.3
0.12
0.05
0.075
0.115
0.285
0.45
0.53
0.535
0.445
0.23
0.06
0.0
0.04
0.075
0.265
0.445
0.51
0.465
0.405
0.22
0.085
0.015
0.01
0.09
0.305
0.465
0.51
0.475
0.415
0.23
0.045
-0.005
0.055
0.12
0.295
0.475
0.505
0.465
0.42
0.23
0.08
0.005
0.055
0.15
0.35
0.47
0.5
0.43
0.33
0.185
0.055
0.0
0.065
0.17
0.345
0.47
0.51
0.5
0.375
0.195
0.05
-0.005
0.055
0.185
0.365
0.475
0.51
0.485
0.365
0.16
0.03
0.03
0.06
0.175
0.355
0.495
0.51
0.455
0.33
0.175
0.04
0.0
0.025
0.165
0.32
0.46
0.49
0.48
0.325
0.135
0.025
0.025
0.06
0.215
0.39
0.495
0.49
0.46
0.31
0.13
0.02
0.04
0.04
0.215
0.395
0.49
0.515
0.465
0.31
0.135
0.045
0.045
0.065
0.23
0.405
0.485
0.48
0.45
0.255
0.095
0.03
0.02
0.035
0.225
0.395
0.47
0.455
0.45
0.27
0.105
0.02
-0.02
0.025
0.24
0.41
0.49
0.48
0.425
0.265
0.095
0.025
0.03
0.05
0.225
0.43
0.485
0.44
0.39
0.24
0.085
-0.005
0.035
0.07
0.28
0.425
0.505
0.5
0.425
0.24
0.06
-0.02
0.03
0.09
0.285
0.425
0.48
0.465
0.405
0.2
0.05
-0.025
0.015
0.1
0.265
0.42
0.475
0.465
0.395
0.2
0.035
-0.025
0.01
0.11
0.29
0.43
0.47
0.445
0.375
0.195
0.035
0.005
0.04
0.115
0.29
0.435
0.455
0.445
0.355
0.19
0.045
-0.005
0.045
0.145
0.335
0.475
0.565
0.515
0.395
0.215
0.085
0.06
0.05
0.175
0.37
0.525
0.54
0.515
0.405
0.195
0.08
0.04
0.065
0.2
0.38
0.515
0.535
0.515
0.38
0.16
0.055
0.005
0.0
0.155
0.35
0.46
0.505
0.485
0.345
0.165
0.025
-0.04
0.03
0.16
0.35
0.495
0.47
0.445
0.285
0.11
-0.015
0.02
0.055
0.22
0.4
0.475
0.465
0.415
0.26
0.09
-0.015
-0.01
0.03
0.225
0.405
0.445
0.485
0.465
0.28
0.1
-0.02
0.02
0.035
0.205
0.435
0.51
0.475
0.38
0.205
-0.01
-0.105
-0.065
0.02
0.26
0.51
0.68
0.755
0.84
0.755
0.715
0.74
0.78
0.83
1.045
1.245
1.375
1.335
1.035
0.555
0.22
0.12
0.11
0.145
0.33
0.48
0.52
0.51
0.475
0.27
0.12
0.03
0.045
0.095
0.295
0.455
0.51
0.5
0.445
0.245
0.08
0.01
0.07
0.12
0.3
0.43
0.515
0.495
0.41
0.205
0.055
0.015
0.025
0.08
0.3
0.475
0.525
0.48
0.375
0.215
0.055
0.035
0.065
0.15
0.315
0.455
0.515
0.48
0.385
0.195
0.06
0.02
0.05
0.145
0.35
0.475
0.53
0.495
0.365
0.185
0.065
0.005
0.065
0.175
0.36
0.495
0.54
0.52
0.39
0.185
0.07
0.05
0.1
0.23
0.395
0.515
0.545
0.51
0.375
0.155
0.05
0.07
0.09
0.215
0.425
0.525
0.535
0.515
0.365
0.19
0.08
0.07
0.11
0.28
0.46
0.57
0.595
0.54
0.375
0.215
0.115
0.12
0.17
0.305
0.485
0.6
0.62
0.62
0.42
0.24
0.17
0.16
0.2
0.39
0.56
0.66
0.65
0.635
0.465
0.28
0.2
0.215
0.25
0.445
0.635
0.7
0.71
0.675
0.49
0.335
0.265
0.245
0.315
0.46
0.635
0.695
0.735
0.66
0.445
0.29
0.225
0.24
0.25
0.435
0.595
0.655
0.65
0.595
0.365
0.205
0.115
0.13
0.165
0.33
0.48
0.58
0.535
0.47
0.235
0.07
0.005
0.035
0.11
0.32
0.46
0.505
0.475
0.435
0.23
0.06
-0.01
0.015
0.09
0.28
0.41
0.44
0.45
0.4
0.175
0.025
-0.03
-0.005
0.075
0.27
0.435
0.475
0.45
0.365
0.16
0.025
-0.04
0.005
0.115
0.31
0.46
0.525
0.46
0.335
0.12
0.0
-0.025
-0.005
0.145
0.315
0.45
0.485
0.45
0.33
0.12
0.015
-0.035
-0.005
0.12
0.315
0.45
0.48
0.46
0.305
0.12
0.04
-0.005
0.0
0.135
0.33
0.43
0.445
0.43
0.31
0.13
0.015
0.01
0.015
0.155
0.355
0.445
0.44
0.425
0.265
0.08
-0.01
-0.02
0.035
0.205
0.35
0.435
0.465
0.42
0.255
0.095
-0.015
-0.035
0.01
0.165
0.35
0.47
0.47
0.43
0.255
0.065
-0.01
-0.035
-0.025
0.17
0.36
0.435
0.42
0.415
0.23
0.04
-0.035
-0.02
0.02
0.185
0.35
0.44
0.44
0.41
0.215
0.04
-0.06
-0.055
0.015
0.19
0.345
0.465
0.48
0.4
0.205
-0.005
-0.055
-0.02
0.06
0.265
0.37
0.425
0.395
0.33
0.17
0.0
-0.07
-0.04
0.025
0.235
0.39
0.435
0.415
0.355
0.16
0.01
-0.055
-0.03
0.035
0.205
0.37
0.435
0.395
0.325
0.155
-0.015
-0.1
-0.055
0.025
0.23
0.365
0.435
0.395
0.335
0.13
-0.015
-0.06
-0.04
0.065
0.265
0.37
0.425
0.385
0.295
0.11
-0.005
-0.095
-0.04
0.085
0.275
0.415
0.445
0.395
0.3
0.105
-0.015
-0.065
-0.02
0.09
0.245
0.405
0.435
0.4
0.29
0.095
-0.015
-0.05
-0.025
0.1
0.28
0.395
0.42
0.395
0.25
0.085
-0.03
-0.04
0.02
0.15
0.325
0.435
0.475
0.45
0.325
0.155
0.015
0.01
0.025
0.19
0.36
0.48
0.505
0.48
0.325
0.135
0.0
-0.03
0.06
0.235
0.42
0.48
0.49
0.45
0.285
0.12
0.025
-0.025
-0.005
0.165
0.34
0.46
0.445
0.415
0.225
0.045
-0.03
-0.06
-0.01
0.2
0.345
0.48
0.47
0.415
0.255
0.065
-0.045
-0.085
-0.04
0.16
0.335
0.44
0.445
0.4
0.235
0.05
-0.04
-0.06
0.02
0.205
0.38
0.465
0.455
0.38
0.21
0.05
-0.04
-0.025
0.02
0.185
0.37
0.465
0.425
0.355
0.15
-0.025
-0.135
-0.1
0.005
0.245
0.48
0.67
0.725
0.775
0.715
0.695
0.73
0.78
0.825
1.025
1.215
1.305
1.255
0.965
0.455
0.155
0.05
0.09
0.15
0.33
0.455
0.465
0.425
0.365
0.18
0.005
-0.035
0.03
0.115
0.265
0.43
0.485
0.435
0.345
0.135
-0.005
-0.025
-0.005
0.09
0.285
0.395
0.465
0.425
0.32
0.135
-0.04
-0.05
0.005
0.12
0.27
0.44
0.475
0.445
0.325
0.14
-0.005
-0.035
-0.02
0.1
0.3
0.43
0.47
0.43
0.32
0.11
-0.005
-0.02
-0.01
0.13
0.325
0.445
0.475
0.41
0.275
0.115
-0.01
-0.025
0.015
0.14
0.325
0.465
0.485
0.455
0.315
0.11
0.0
-0.02
0.045
0.185
0.34
0.45
0.485
0.475
0.285
0.115
0.015
0.005
0.03
0.21
0.435
0.51
0.485
0.435
0.315
0.13
0.045
0.005
0.05
0.27
0.455
0.565
0.54
0.49
0.3
0.125
0.05
0.045
0.1
0.27
0.455
0.56
0.56
0.53
0.325
0.15
0.075
0.1
0.15
0.37
0.555
0.63
0.635
0.585
0.385
0.215
0.145
0.16
0.225
0.44
0.585
0.675
0.65
0.585
0.4
0.24
0.175
0.215
0.275
0.46
0.62
0.7
0.68
0.605
0.4
0.215
0.125
0.11
0.19
0.395
0.535
0.6
0.565
0.51
0.285
0.125
0.06
0.085
0.15
0.3
0.455
0.495
0.465
0.385
0.17
0.03
-0.07
-0.045
0.065
0.305
0.47
0.49
0.43
0.305
0.125
-0.005
-0.035
0.015
0.09
0.27
0.42
0.46
0.42
0.305
0.11
-0.06
-0.055
0.0
0.105
0.29
0.425
0.45
0.375
0.285
0.085
-0.04
-0.09
-0.045
0.09
0.24
0.38
0.41
0.395
0.295
0.095
-0.04
-0.04
-0.025
0.125
0.31
0.42
0.44
0.395
0.275
0.095
-0.05
-0.045
-0.04
0.125
0.295
0.405
0.44
0.42
0.285
0.12
-0.025
-0.11
-0.085
0.15
0.305
0.425
0.425
0.405
0.25
0.1
-0.03
-0.08
-0.04
0.14
0.295
0.41
0.385
0.33
0.205
0.02
-0.05
-0.045
0.005
0.19
0.345
0.405
0.375
0.345
0.19
0.04
-0.055
-0.085
-0.045
0.165
0.33
0.44
0.435
0.385
0.185
0.01
-0.055
-0.04
-0.03
0.165
0.355
0.435
0.415
0.345
0.18
0.025
-0.075
-0.07
0.015
0.225
0.365
0.405
0.385
0.345
0.15
-0.02
-0.075
-0.045
0.03
0.235
0.375
0.43
0.435
0.375
0.155
-0.025
-0.1
-0.045
0.07
0.24
0.405
0.45
0.42
0.33
0.145
0.015
-0.04
-0.04
0.045
0.23
0.37
0.43
0.425
0.3
0.105
-0.04
-0.075
-0.01
0.1
0.245
0.38
0.44
0.415
0.31
0.115
-0.045
-0.08
-0.03
0.07
0.245
0.405
0.45
0.39
0.305
0.105
0.015
0.0
-0.005
0.105
0.27
0.38
0.42
0.425
0.33
0.12
-0.005
-0.045
-0.025
0.12
0.29
0.41
0.44
0.38
0.29
0.1
-0.05
-0.07
-0.015
0.08
0.225
0.38
0.445
0.42
0.285
0.065
-0.06
-0.09
-0.02
0.105
0.285
0.43
0.445
0.41
0.26
0.095
-0.035
-0.035
-0.01
0.155
0.335
0.48
0.51
0.445
0.285
0.075
-0.02
-0.005
0.055
0.205
0.385
0.495
0.5
0.455
0.285
0.08
-0.03
-0.04
0.045
0.23
0.405
0.475
0.485
0.415
0.265
0.045
-0.065
-0.03
0.005
0.19
0.345
0.405
0.43
0.39
0.215
0.015
-0.09
-0.075
-0.02
0.19
0.325
0.43
0.44
0.385
0.16
-0.015
-0.075
-0.045
0.01
0.205
0.385
0.44
0.425
0.385
0.205
0.025
-0.055
-0.065
0.02
0.195
0.315
0.41
0.385
0.335
0.14
-0.015
-0.065
-0.01
0.03
0.245
0.4
0.46
0.415
0.305
0.065
-0.065
-0.15
-0.085
0.02
0.23
0.41
0.585
0.67
0.695
0.57
0.555
0.595
0.68
0.805
1.0
1.18
1.285
1.25
0.95
0.445
0.165
0.04
0.02
0.09
0.29
0.43
0.45
0.42
0.35
0.14
0.0
-0.01
-0.005
0.125
0.3
0.4
0.46
0.41
0.31
0.12
0.01
-0.04
-0.035
0.14
0.325
0.43
0.445
0.42
0.295
0.115
-0.015
0.01
0.025
0.155
0.33
0.435
0.445
0.39
0.23
0.055
-0.02
-0.065
-0.035
0.135
0.33
0.44
0.47
0.43
0.3
0.11
0.005
-0.03
0.01
0.17
0.315
0.42
0.43
0.395
0.235
0.07
0.005
-0.005
0.02
0.195
0.37
0.45
0.455
0.445
0.25
0.085
0.02
0.01
0.02
0.195
0.355
0.47
0.495
0.485
0.3
0.145
0.04
0.0
0.025
0.195
0.41
0.495
0.49
0.485
0.3
0.11
-0.025
0.015
0.105
0.28
0.44
0.53
0.51
0.445
0.275
0.135
0.065
0.085
0.13
0.32
0.505
0.585
0.535
0.485
0.31
0.14
0.07
0.08
0.15
0.355
0.525
0.6
0.585
0.55
0.345
0.2
0.145
0.17
0.225
0.4
0.58
0.645
0.645
0.595
0.405
0.25
0.155
0.19
0.275
0.46
0.625
0.68
0.635
0.58
0.375
0.23
0.145
0.18
0.28
0.415
0.535
0.575
0.555
0.445
0.29
0.13
0.055
0.045
0.155
0.36
0.495
0.505
0.48
0.375
0.175
0.04
-0.015
0.025
0.135
0.3
0.415
0.435
0.44
0.355
0.16
0.01
-0.045
-0.005
0.085
0.24
0.39
0.435
0.42
0.295
0.12
0.005
-0.02
-0.02
0.145
0.31
0.42
0.44
0.395
0.235
0.065
-0.04
-0.065
-0.025
0.13
0.315
0.425
0.445
0.405
0.3
0.085
-0.02
-0.035
-0.005
0.135
0.325
0.415
0.415
0.435
0.285
0.07
-0.015
-0.03
0.0
0.145
0.345
0.445
0.465
0.455
0.25
0.07
-0.035
-0.035
0.01
0.21
0.395
0.47
0.43
0.405
0.19
0.035
-0.02
-0.025
0.005
0.18
0.36
0.445
0.44
0.42
0.24
0.04
-0.04
-0.05
-0.02
0.185
0.36
0.425
0.42
0.4
0.225
0.065
-0.03
-0.04
0.015
0.2
0.36
0.415
0.415
0.345
0.195
0.04
-0.03
-0.025
0.03
0.235
0.395
0.44
0.43
0.355
0.165
0.01
-0.06
-0.01
0.065
0.21
0.395
0.46
0.435
0.365
0.19
0.03
-0.03
-0.015
0.09
0.275
0.38
0.455
0.425
0.335
0.145
0.005
-0.075
-0.045
0.03
0.235
0.405
0.475
0.43
0.325
0.13
0.005
-0.025
0.0
0.1
0.27
0.37
0.435
0.39
0.31
0.15
0.01
-0.04
-0.01
0.095
0.255
0.41
0.435
0.39
0.29
0.12
-0.025
-0.075
-0.04
0.065
0.275
0.43
0.42
0.375
0.275
0.09
-0.05
-0.08
-0.06
0.105
0.27
0.385
0.435
0.415
0.25
0.055
-0.06
-0.065
-0.035
0.12
0.295
0.42
0.425
0.415
0.23
0.07
-0.02
-0.025
-0.01
0.155
0.38
0.505
0.535
0.49
0.315
0.085
-0.01
0.0
0.035
0.205
0.365
0.47
0.48
0.475
0.325
0.115
-0.01
-0.025
0.025
0.19
0.355
0.46
0.465
0.455
0.235
0.045
-0.05
-0.07
-0.005
0.175
0.325
0.4
0.405
0.345
0.17
0.0
-0.105
-0.11
-0.03
0.165
0.325
0.415
0.39
0.36
0.15
0.015
-0.08
-0.085
-0.025
0.17
0.335
0.415
0.375
0.315
0.15
-0.015
-0.09
-0.075
-0.015
0.195
0.34
0.39
0.385
0.3
0.11
-0.03
-0.075
-0.05
0.01
0.165
0.33
0.33
0.28
0.21
0.035
-0.085
-0.105
-0.025
0.115
0.405
0.655
0.805
0.89
0.925
0.82
0.69
0.65
0.695
0.835
1.025
1.045
0.785
0.57
0.39
0.125
-0.015
-0.085
-0.04
0.07
0.265
0.41
0.405
0.365
0.25
0.07
-0.055
-0.08
-0.04
0.07
0.255
0.385
0.385
0.375
0.26
0.085
-0.03
-0.065
-0.03
0.07
0.245
0.4
0.42
0.395
0.265
0.085
-0.04
-0.075
-0.07
0.085
0.275
0.385
0.425
0.405
0.28
0.09
-0.02
-0.035
0.015
0.13
0.27
0.365
0.405
0.37
0.21
0.035
-0.035
-0.065
-0.03
0.125
0.33
0.415
0.43
0.395
0.2
0.04
-0.025
-0.055
-0.04
0.145
0.33
0.43
0.44
0.395
0.255
0.065
-0.035
-0.045
-0.02
0.18
0.35
0.455
0.45
0.395
0.22
0.055
-0.02
-0.005
0.045
0.235
0.38
0.47
0.475
0.425
0.23
0.07
-0.01
0.015
0.055
0.255
0.44
0.54
0.535
0.47
0.22
0.095
0.03
0.045
0.07
0.265
0.465
0.565
0.555
0.505
0.315
0.14
0.085
0.105
0.17
0.36
0.515
0.595
0.575
0.535
0.35
0.185
0.12
0.175
0.26
0.46
0.595
0.645
0.635
0.565
0.37
0.225
0.14
0.2
0.29
0.445
0.585
0.64
0.65
0.545
0.355
0.21
0.075
0.125
0.23
0.42
0.555
0.585
0.535
0.415
0.24
0.09
0.025
0.04
0.145
0.31
0.46
0.5
0.48
0.365
0.165
-0.005
-0.055
-0.015
0.08
0.235
0.375
0.44
0.38
0.255
0.11
-0.02
-0.05
-0.025
0.08
0.275
0.395
0.405
0.4
0.225
0.035
-0.095
-0.12
-0.045
0.11
0.29
0.405
0.42
0.375
0.22
0.045
-0.055
-0.085
-0.035
0.115
0.285
0.365
0.405
0.38
0.21
0.03
-0.08
-0.1
-0.085
0.06
0.265
0.35
0.37
0.38
0.21
0.035
-0.035
-0.055
-0.03
0.125
0.29
0.355
0.4
0.375
0.205
0.015
-0.065
-0.075
-0.06
0.1
0.275
0.35
0.37
0.395
0.23
0.055
-0.06
-0.095
-0.045
0.145
0.29
0.4
0.385
0.335
0.14
0.01
-0.04
-0.005
0.03
0.175
0.32
0.39
0.375
0.345
0.16
-0.02
-0.095
-0.1
-0.035
0.2
0.36
0.41
0.37
0.32
0.125
-0.04
-0.075
-0.02
0.02
0.175
0.365
0.415
0.375
0.305
0.115
-0.025
-0.085
-0.07
0.0
0.185
0.35
0.415
0.4
0.31
0.13
-0.04
-0.1
-0.08
0.005
0.22
0.375
0.43
0.375
0.295
0.12
-0.04
-0.12
-0.085
0.02
0.205
0.355
0.41
0.355
0.265
0.095
-0.045
-0.105
-0.055
0.045
0.2
0.345
0.405
0.37
0.26
0.095
-0.045
-0.075
-0.045
0.065
0.245
0.345
0.4
0.38
0.285
0.09
-0.035
-0.065
-0.06
0.065
0.27
0.375
0.41
0.385
0.275
0.055
-0.085
-0.115
-0.08
0.09
0.295
0.385
0.41
0.375
0.24
0.06
-0.05
-0.095
-0.085
0.085
0.29
0.41
0.415
0.43
0.275
0.105
-0.015
-0.02
0.01
0.175
0.365
0.465
0.5
0.465
0.315
0.085
-0.04
-0.05
0.01
0.16
0.33
0.45
0.45
0.41
0.23
0.055
-0.035
-0.045
0.0
0.165
0.385
0.455
0.45
0.395
0.2
0.005
-0.08
-0.07
-0.055
0.125
0.29
0.385
0.4
0.365
0.17
0.0
-0.065
-0.055
-0.035
0.17
0.315
0.39
0.405
0.34
0.16
-0.005
-0.085
-0.07
0.0
0.17
0.335
0.415
0.41
0.35
0.14
-0.045
-0.105
-0.065
-0.01
0.175
0.325
0.41
0.395
0.34
0.16
-0.01
-0.135
-0.155
-0.09
0.125
0.31
0.415
0.405
0.46
0.375
0.3
0.345
0.51
0.695
0.945
1.12
1.175
1.175
1.15
0.965
0.73
0.365
0.17
0.16
0.32
0.45
0.47
0.415
0.3
0.115
0.02
-0.045
-0.045
0.07
0.24
0.35
0.4
0.4
0.305
0.13
-0.025
-0.08
-0.05
0.055
0.23
0.355
0.4
0.365
0.29
0.11
-0.025
-0.07
-0.045
0.095
0.29
0.38
0.41
0.395
0.265
0.07
-0.025
-0.06
-0.045
0.115
0.3
0.4
0.425
0.385
0.24
0.06
-0.03
-0.03
-0.015
0.105
0.24
0.385
0.425
0.37
0.245
0.025
-0.065
-0.105
-0.02
0.145
0.32
0.455
0.46
0.41
0.235
0.04
-0.04
-0.06
-0.02
0.16
0.335
0.435
0.445
0.425
0.26
0.055
-0.04
-0.015
0.025
0.195
0.33
0.42
0.455
0.415
0.245
0.08
-0.015
-0.01
0.04
0.23
0.4
0.48
0.455
0.405
0.21
0.06
0.0
0.01
0.04
0.24
0.435
0.52
0.485
0.435
0.305
0.115
0.055
0.06
0.13
0.325
0.47
0.535
0.535
0.5
0.32
0.145
0.085
0.135
0.18
0.355
0.52
0.615
0.585
0.55
0.355
0.185
0.145
0.16
0.23
0.425
0.575
0.63
0.62
0.51
0.305
0.155
0.125
0.14
0.195
0.39
0.545
0.585
0.54
0.455
0.24
0.08
0.02
0.025
0.125
0.295
0.405
0.475
0.44
0.355
0.16
0.03
-0.005
-0.005
0.095
0.255
0.36
0.41
0.395
0.285
0.09
-0.035
-0.075
-0.045
0.07
0.24
0.35
0.405
0.395
0.255
0.045
-0.075
-0.095
-0.055
0.075
0.245
0.36
0.39
0.355
0.21
0.03
-0.07
-0.11
-0.075
0.06
0.265
0.37
0.395
0.36
0.22
0.06
-0.08
-0.09
-0.065
0.08
0.285
0.4
0.43
0.405
0.215
0.025
-0.03
-0.085
-0.055
0.09
0.235
0.365
0.395
0.375
0.21
0.03
-0.055
-0.09
-0.085
0.095
0.295
0.375
0.395
0.345
0.18
0.0
-0.1
-0.105
-0.06
0.095
0.26
0.36
0.36
0.34
0.185
0.0
-0.105
-0.12
-0.1
0.115
0.28
0.355
0.355
0.3
0.12
-0.04
-0.135
-0.115
-0.075
0.1
0.28
0.355
0.35
0.29
0.1
-0.06
-0.11
-0.12
-0.06
0.115
0.28
0.35
0.33
0.265
0.075
-0.085
-0.17
-0.11
-0.06
0.115
0.3
0.345
0.32
0.28
0.065
-0.1
-0.145
-0.105
-0.025
0.13
0.275
0.345
0.325
0.265
0.055
-0.08
-0.13
-0.11
-0.025
0.165
0.3
0.37
0.325
0.235
0.07
-0.065
-0.125
-0.09
-0.005
0.18
0.32
0.365
0.34
0.255
0.05
-0.055
-0.09
-0.08
0.035
0.195
0.34
0.385
0.35
0.24
0.09
-0.055
-0.11
-0.065
0.025
0.225
0.375
0.39
0.365
0.255
0.07
-0.045
-0.065
-0.04
0.1
0.3
0.395
0.425
0.405
0.26
0.095
-0.02
-0.06
-0.03
0.105
0.29
0.395
0.385
0.415
0.255
0.065
-0.04
-0.065
-0.035
0.105
0.275
0.365
0.38
0.32
0.18
-0.015
-0.105
-0.09
-0.095
0.08
0.24
0.37
0.365
0.315
0.145
-0.06
-0.125
-0.115
-0.095
0.07
0.25
0.335
0.33
0.3
0.15
-0.02
-0.145
-0.13
-0.095
0.095
0.28
0.38
0.355
0.305
0.135
-0.04
-0.11
-0.115
-0.07
0.13
0.275
0.34
0.325
0.28
0.125
-0.06
-0.175
-0.19
-0.15
0.035
0.23
0.36
0.455
0.515
0.395
0.32
0.35
0.48
0.635
0.89
1.1
1.15
1.17
1.155
0.945
0.57
0.19
0.07
0.09
0.265
0.4
0.43
0.385
0.325
0.14
-0.015
-0.1
-0.055
0.01
0.15
0.315
0.39
0.365
0.285
0.095
-0.065
-0.125
-0.1
0.0
0.175
0.315
0.37
0.34
0.275
0.08
-0.075
-0.105
-0.075
-0.005
0.2
0.35
0.38
0.345
0.24
0.075
-0.06
-0.12
-0.055
0.025
0.22
0.365
0.415
0.36
0.245
0.045
-0.095
-0.12
-0.085
0.04
0.235
0.365
0.39
0.37
0.27
0.05
-0.075
-0.105
-0.075
0.075
0.255
0.36
0.405
0.35
0.24
0.05
-0.07
-0.1
-0.05
0.095
0.275
0.405
0.435
0.39
0.24
0.075
-0.065
-0.075
-0.02
0.15
0.305
0.41
0.435
0.395
0.265
0.11
0.015
-0.03
0.015
0.165
0.335
0.44
0.45
0.45
0.28
0.095
-0.015
-0.01
0.03
0.19
0.4
0.5
0.495
0.455
0.295
0.125
0.055
0.045
0.08
0.275
0.44
0.54
0.55
0.54
0.33
0.16
0.065
0.09
0.13
0.335
0.495
0.585
0.605
0.56
0.375
0.215
0.12
0.16
0.215
0.39
0.54
0.61
0.6
0.555
0.375
0.205
0.125
0.11
0.135
0.3
0.48
0.55
0.53
0.475
0.275
0.095
0.025
0.03
0.08
0.28
0.42
0.44
0.415
0.37
0.155
0.005
-0.075
-0.06
0.01
0.185
0.34
0.405
0.375
0.285
0.11
-0.065
-0.125
-0.08
0.005
0.225
0.335
0.39
0.345
0.245
0.055
-0.08
-0.135
-0.105
0.005
0.18
0.305
0.34
0.325
0.265
0.07
-0.085
-0.11
-0.1
0.005
0.185
0.33
0.365
0.345
0.21
0.055
-0.1
-0.135
-0.095
0.02
0.2
0.33
0.355
0.34
0.21
0.025
-0.085
-0.13
-0.095
0.05
0.205
0.335
0.355
0.325
0.175
0.005
-0.09
-0.11
-0.1
0.05
0.21
0.37
0.355
0.315
0.18
-0.025
-0.1
-0.115
-0.095
0.05
0.225
0.33
0.35
0.31
0.165
-0.01
-0.1
-0.15
-0.13
0.05
0.225
0.34
0.36
0.33
0.19
-0.005
-0.1
-0.1
-0.095
0.08
0.23
0.335
0.355
0.32
0.155
-0.02
-0.12
-0.115
-0.1
0.095
0.265
0.36
0.37
0.31
0.13
-0.055
-0.125
-0.12
-0.08
0.1
0.26
0.375
0.335
0.305
0.135
-0.065
-0.135
-0.13
-0.065
0.105
0.275
0.355
0.325
0.3
0.11
-0.06
-0.115
-0.095
-0.045
0.13
0.285
0.345
0.345
0.285
0.115
-0.055
-0.125
-0.1
-0.06
0.13
0.305
0.37
0.335
0.27
0.09
-0.07
-0.11
-0.075
-0.015
0.185
0.335
0.385
0.365
0.295
0.09
-0.05
-0.1
-0.03
0.055
0.24
0.38
0.44
0.4
0.315
0.115
-0.02
-0.095
-0.075
0.015
0.205
0.38
0.42
0.345
0.24
0.02
-0.105
-0.11
-0.08
0.0
0.17
0.285
0.345
0.315
0.195
0.0
-0.11
-0.145
-0.15
-0.03
0.175
0.28
0.33
0.295
0.19
0.0
-0.125
-0.15
-0.115
-0.005
0.19
0.31
0.33
0.295
0.17
-0.025
-0.125
-0.165
-0.115
0.035
0.185
0.31
0.335
0.31
0.145
-0.035
-0.11
-0.145
-0.15
-0.01
0.14
0.22
0.25
0.26
0.155
0.05
0.065
0.145
0.285
0.555
0.855
1.04
1.095
1.105
0.925
0.775
0.725
0.685
0.445
0.33
0.4
0.435
0.415
0.365
0.18
-0.005
-0.105
-0.075
-0.025
0.115
0.24
0.34
0.355
0.325
0.135
-0.04
-0.125
-0.115
-0.06
0.1
0.285
0.345
0.365
0.285
0.125
-0.04
-0.135
-0.13
-0.07
0.125
0.27
0.345
0.35
0.315
0.105
-0.06
-0.12
-0.115
-0.06
0.14
0.31
0.36
0.33
0.275
0.1
-0.04
-0.1
-0.09
-0.05
0.135
0.29
0.36
0.335
0.285
0.115
-0.06
-0.115
-0.09
0.0
0.185
0.325
0.37
0.375
0.28
0.105
-0.04
-0.115
-0.07
0.04
0.2
0.345
0.395
0.345
0.26
0.075
-0.045
-0.06
-0.025
0.045
0.23
0.37
0.435
0.4
0.29
0.1
-0.05
-0.095
-0.045
0.105
0.27
0.395
0.44
0.4
0.31
0.13
-0.005
-0.04
-0.01
0.12
0.315
0.425
0.455
0.445
0.315
0.15
0.045
-0.01
0.025
0.175
0.34
0.465
0.525
0.5
0.365
0.19
0.085
0.07
0.155
0.26
0.43
0.555
0.575
0.53
0.405
0.23
0.13
0.13
0.18
0.32
0.465
0.585
0.62
0.585
0.415
0.23
0.125
0.095
0.125
0.29
0.465
0.555
0.57
0.52
0.33
0.155
0.035
0.025
0.06
0.225
0.385
0.465
0.465
0.41
0.23
0.06
-0.055
-0.08
-0.01
0.195
0.34
0.43
0.405
0.365
0.19
-0.005
-0.09
-0.08
-0.025
0.17
0.31
0.385
0.37
0.325
0.145
-0.03
-0.13
-0.09
-0.02
0.145
0.295
0.375
0.355
0.3
0.115
-0.06
-0.12
-0.095
-0.045
0.145
0.3
0.4
0.395
0.33
0.135
-0.025
-0.09
-0.095
-0.01
0.185
0.35
0.38
0.355
0.295
0.1
-0.035
-0.11
-0.12
-0.055
0.15
0.32
0.39
0.37
0.285
0.085
-0.1
-0.135
-0.13
-0.035
0.17
0.305
0.355
0.33
0.26
0.035
-0.11
-0.14
-0.095
0.015
0.195
0.335
0.355
0.315
0.19
0.01
-0.11
-0.15
-0.115
-0.01
0.17
0.315
0.375
0.325
0.205
0.035
-0.09
-0.14
-0.105
0.01
0.19
0.31
0.33
0.32
0.21
0.02
-0.105
-0.13
-0.1
0.02
0.195
0.32
0.345
0.31
0.185
0.01
-0.105
-0.125
-0.12
0.02
0.18
0.31
0.35
0.34
0.15
-0.025
-0.145
-0.15
-0.105
0.05
0.235
0.335
0.345
0.32
0.18
-0.015
-0.105
-0.135
-0.105
0.065
0.235
0.33
0.35
0.31
0.155
-0.03
-0.11
-0.125
-0.09
0.095
0.27
0.38
0.36
0.33
0.145
-0.04
-0.095
-0.12
-0.11
0.085
0.295
0.38
0.345
0.3
0.125
-0.03
-0.13
-0.105
-0.055
0.145
0.29
0.345
0.35
0.32
0.115
-0.05
-0.09
-0.095
-0.04
0.155
0.33
0.4
0.375
0.345
0.145
-0.05
-0.105
-0.065
-0.01
0.18
0.345
0.43
0.4
0.36
0.165
0.01
-0.055
-0.045
0.01
0.195
0.355
0.395
0.385
0.32
0.115
-0.07
-0.15
-0.115
-0.03
0.14
0.3
0.38
0.345
0.235
0.065
-0.105
-0.165
-0.125
-0.015
0.16
0.31
0.335
0.315
0.215
0.025
-0.1
-0.16
-0.09
-0.01
0.15
0.295
0.345
0.305
0.21
0.03
-0.11
-0.135
-0.115
0.015
0.17
0.28
0.355
0.315
0.205
0.02
-0.115
-0.135
-0.115
0.005
0.165
0.28
0.3
0.24
0.105
-0.09
-0.19
-0.205
-0.115
0.08
0.38
0.595
0.74
0.8
0.78
0.66
0.57
0.595
0.66
0.85
1.03
1.135
0.965
0.595
0.33
0.105
-0.035
-0.085
-0.055
0.105
0.265
0.375
0.395
0.35
0.19
-0.015
-0.12
-0.1
-0.07
0.105
0.25
0.34
0.365
0.35
0.16
-0.03
-0.125
-0.12
-0.08
0.085
0.245
0.355
0.335
0.305
0.12
-0.03
-0.1
-0.115
-0.09
0.115
0.275
0.36
0.365
0.315
0.13
-0.06
-0.12
-0.115
-0.07
0.135
0.3
0.38
0.355
0.315
0.13
-0.03
-0.12
-0.1
-0.06
0.11
0.295
0.38
0.37
0.31
0.145
-0.025
-0.11
-0.09
-0.03
0.155
0.32
0.37
0.355
0.32
0.135
-0.035
-0.1
-0.09
-0.03
0.175
0.34
0.385
0.355
0.29
0.12
-0.035
-0.095
-0.065
0.01
0.2
0.35
0.405
0.36
0.31
0.125
-0.045
-0.075
-0.055
0.05
0.23
0.385
0.44
0.41
0.315
0.135
0.0
-0.07
-0.05
0.09
0.305
0.46
0.525
0.465
0.365
0.175
0.025
-0.02
0.025
0.155
0.355
0.485
0.5
0.46
0.355
0.175
0.065
0.05
0.07
0.205
0.395
0.5
0.545
0.535
0.43
0.23
0.115
0.075
0.11
0.255
0.435
0.525
0.56
0.52
0.39
0.185
0.085
0.04
0.06
0.215
0.365
0.42
0.405
0.365
0.245
0.075
-0.025
-0.075
-0.045
0.095
0.275
0.365
0.365
0.325
0.195
0.02
-0.085
-0.09
-0.1
0.065
0.215
0.28
0.31
0.275
0.11
-0.09
-0.17
-0.18
-0.165
0.03
0.2
0.27
0.28
0.245
0.075
-0.08
-0.15
-0.12
-0.105
0.065
0.225
0.295
0.295
0.255
0.095
-0.065
-0.175
-0.18
-0.115
0.085
0.245
0.37
0.34
0.3
0.105
-0.1
-0.165
-0.17
-0.12
0.105
0.275
0.33
0.305
0.255
0.06
-0.095
-0.18
-0.155
-0.09
0.095
0.255
0.31
0.285
0.225
0.04
-0.12
-0.2
-0.16
-0.11
0.095
0.28
0.35
0.325
0.25
0.045
-0.135
-0.23
-0.165
-0.05
0.125
0.26
0.315
0.285
0.22
0.045
-0.12
-0.165
-0.135
-0.025
0.15
0.305
0.35
0.295
0.2
0.035
-0.12
-0.16
-0.14
-0.025
0.135
0.245
0.28
0.27
0.175
0.0
-0.155
-0.195
-0.145
-0.015
0.135
0.245
0.29
0.295
0.145
-0.035
-0.15
-0.155
-0.125
0.01
0.22
0.295
0.32
0.285
0.11
-0.095
-0.185
-0.18
-0.13
0.03
0.185
0.305
0.32
0.255
0.12
-0.04
-0.155
-0.165
-0.145
0.055
0.255
0.325
0.33
0.27
0.105
-0.095
-0.2
-0.22
-0.165
0.025
0.2
0.295
0.32
0.275
0.12
-0.09
-0.195
-0.195
-0.185
0.015
0.195
0.305
0.32
0.295
0.13
-0.05
-0.155
-0.165
-0.125
0.045
0.28
0.355
0.345
0.315
0.14
-0.05
-0.125
-0.115
-0.085
0.1
0.255
0.365
0.325
0.295
0.12
-0.05
-0.14
-0.125
-0.105
0.1
0.255
0.31
0.305
0.235
0.04
-0.13
-0.23
-0.22
-0.13
0.035
0.22
0.275
0.285
0.24
0.06
-0.1
-0.175
-0.175
-0.11
0.08
0.225
0.285
0.275
0.21
0.03
-0.12
-0.165
-0.145
-0.09
0.095
0.24
0.25
0.235
0.175
-0.015
-0.175
-0.2
-0.175
-0.105
0.075
0.24
0.295
0.27
0.195
0.015
-0.145
-0.21
-0.195
-0.125
0.04
0.175
0.205
0.22
0.175
0.065
0.025
0.1
0.195
0.4
0.655
0.895
0.995
0.985
0.86
0.715
0.615
0.56
0.41
0.265
0.31
0.385
0.395
0.325
0.18
0.015
-0.12
-0.16
-0.13
0.01
0.175
0.3
0.33
0.28
0.15
-0.02
-0.145
-0.175
-0.11
0.035
0.19
0.295
0.31
0.275
0.13
-0.07
-0.17
-0.17
-0.16
-0.01
0.185
0.305
0.31
0.3
0.145
-0.035
-0.145
-0.19
-0.115
0.02
0.2
0.295
0.305
0.295
0.145
0.0
-0.1
-0.14
-0.135
0.03
0.21
0.32
0.33
0.265
0.13
-0.06
-0.145
-0.145
-0.105
0.09
0.255
0.32
0.33
0.305
0.12
-0.055
-0.11
-0.115
-0.105
0.115
0.27
0.34
0.305
0.285
0.115
-0.065
-0.16
-0.135
-0.065
0.14
0.31
0.4
0.38
0.345
0.165
-0.03
-0.125
-0.11
-0.05
0.165
0.335
0.39
0.345
0.32
0.145
-0.01
-0.045
-0.03
0.02
0.21
0.355
0.405
0.385
0.355
0.195
0.05
-0.005
0.005
0.09
0.26
0.435
0.49
0.45
0.39
0.195
0.035
-0.025
0.005
0.11
0.32
0.49
0.54
0.545
0.445
0.235
0.1
0.055
0.09
0.215
0.395
0.54
0.58
0.545
0.42
0.2
0.095
0.06
0.08
0.195
0.4
0.545
0.57
0.485
0.35
0.155
0.03
0.005
0.035
0.14
0.285
0.42
0.445
0.41
0.31
0.105
-0.055
-0.085
-0.07
0.08
0.265
0.41
0.42
0.37
0.245
0.035
-0.085
-0.095
-0.055
0.08
0.25
0.365
0.365
0.345
0.18
0.015
-0.065
-0.085
-0.025
0.11
0.29
0.385
0.415
0.37
0.205
0.01
-0.095
-0.105
-0.035
0.14
0.315
0.39
0.42
0.375
0.23
0.075
-0.04
-0.045
-0.01
0.18
0.335
0.425
0.435
0.415
0.225
0.06
-0.015
-0.02
-0.005
0.155
0.325
0.435
0.445
0.395
0.23
0.055
-0.055
-0.065
-0.015
0.21
0.35
0.44
0.415
0.34
0.14
-0.025
-0.115
-0.095
-0.03
0.18
0.34
0.4
0.36
0.32
0.145
-0.045
-0.125
-0.095
-0.06
0.13
0.3
0.365
0.34
0.265
0.07
-0.1
-0.18
-0.17
-0.105
0.105
0.3
0.35
0.3
0.225
0.03
-0.15
-0.2
-0.185
-0.11
0.125
0.26
0.325
0.295
0.215
0.01
-0.12
-0.185
-0.17
-0.065
0.1
0.225
0.26
0.245
0.15
0.005
-0.125
-0.17
-0.17
-0.1
0.085
0.235
0.31
0.29
0.165
-0.05
-0.195
-0.25
-0.19
-0.06
0.125
0.265
0.29
0.28
0.15
-0.05
-0.21
-0.255
-0.195
-0.035
0.175
0.295
0.3
0.245
0.12
-0.08
-0.2
-0.23
-0.205
-0.065
0.135
0.28
0.325
0.275
0.16
-0.055
-0.205
-0.23
-0.19
-0.025
0.165
0.27
0.28
0.25
0.085
-0.09
-0.195
-0.225
-0.195
-0.055
0.15
0.235
0.25
0.235
0.095
-0.07
-0.16
-0.185
-0.155
0.015
0.205
0.3
0.305
0.29
0.095
-0.075
-0.155
-0.155
-0.135
0.04
0.2
0.31
0.3
0.275
0.125
-0.03
-0.115
-0.135
-0.1
0.085
0.26
0.38
0.385
0.355
0.155
-0.06
-0.175
-0.155
-0.125
0.04
0.2
0.28
0.29
0.2
0.02
-0.135
-0.19
-0.155
-0.105
0.05
0.2
0.265
0.24
0.165
-0.01
-0.13
-0.19
-0.15
-0.12
0.065
0.205
0.27
0.27
0.2
-0.03
-0.18
-0.265
-0.24
-0.16
0.055
0.24
0.29
0.275
0.185
-0.025
-0.18
-0.23
-0.185
-0.115
0.04
0.175
0.255
0.225
0.165
-0.04
-0.185
-0.28
-0.28
-0.22
-0.035
0.14
0.22
0.24
0.23
0.17
0.125
0.175
0.305
0.54
0.8
1.01
1.045
1.02
0.935
0.765
0.585
0.3
0.06
0.055
0.18
0.295
0.31
0.29
0.16
-0.04
-0.135
-0.19
-0.185
-0.075
0.13
0.27
0.28
0.27
0.13
-0.065
-0.185
-0.205
-0.185
-0.045
0.125
0.24
0.245
0.215
0.1
-0.085
-0.21
-0.2
-0.165
-0.01
0.145
0.26
0.28
0.27
0.13
-0.05
-0.185
-0.22
-0.215
-0.04
0.135
0.255
0.285
0.245
0.075
-0.095
-0.195
-0.205
-0.155
0.005
0.185
0.275
0.26
0.225
0.08
-0.095
-0.19
-0.215
-0.17
0.05
0.21
0.3
0.305
0.275
0.08
-0.095
-0.185
-0.175
-0.12
0.03
0.215
0.295
0.285
0.24
0.04
-0.12
-0.185
-0.145
-0.105
0.1
0.295
0.35
0.34
0.305
0.085
-0.105
-0.165
-0.145
-0.075
0.135
0.29
0.37
0.335
0.275
0.095
-0.07
-0.13
-0.125
-0.045
0.155
0.315
0.41
0.365
0.31
0.105
-0.035
-0.065
-0.045
0.02
0.205
0.355
0.43
0.43
0.365
0.18
0.025
-0.035
-0.015
0.035
0.24
0.42
0.505
0.47
0.38
0.21
0.07
0.0
0.05
0.165
0.325
0.46
0.49
0.465
0.36
0.19
0.05
0.02
0.03
0.145
0.31
0.42
0.455
0.435
0.33
0.14
0.0
-0.04
-0.035
0.085
0.245
0.365
0.38
0.345
0.2
0.0
-0.13
-0.175
-0.1
0.02
0.17
0.29
0.32
0.265
0.145
-0.04
-0.16
-0.17
-0.14
0.005
0.175
0.265
0.27
0.235
0.08
-0.06
-0.18
-0.16
-0.105
0.04
0.205
0.285
0.26
0.26
0.14
-0.045
-0.115
-0.175
-0.155
-0.005
0.155
0.26
0.305
0.285
0.14
-0.035
-0.165
-0.205
-0.19
-0.015
0.165
0.295
0.31
0.27
0.065
-0.1
-0.205
-0.225
-0.17
0.0
0.185
0.32
0.285
0.19
0.005
-0.18
-0.23
-0.19
-0.2
0.055
0.24
0.24
0.24
0.295
0.155
-0.085
-0.19
-0.22
-0.12
0.145
0.275
0.325
0.265
0.195
0.04
-0.13
-0.19
-0.15
-0.1
0.09
0.28
0.33
0.27
0.175
-0.005
-0.165
-0.23
-0.185
-0.08
0.095
0.25
0.31
0.265
0.18
-0.015
-0.15
-0.225
-0.205
-0.125
0.045
0.21
0.27
0.25
0.175
-0.01
-0.15
-0.17
-0.14
-0.115
0.08
0.22
0.285
0.27
0.175
-0.01
-0.145
-0.2
-0.195
-0.07
0.105
0.23
0.265
0.23
0.145
-0.035
-0.185
-0.23
-0.2
-0.09
0.095
0.235
0.26
0.205
0.11
-0.075
-0.195
-0.21
-0.21
-0.065
0.125
0.28
0.265
0.265
0.13
-0.065
-0.17
-0.225
-0.2
-0.065
0.13
0.245
0.3
0.275
0.155
-0.04
-0.205
-0.245
-0.22
-0.075
0.125
0.3
0.32
0.29
0.125
-0.07
-0.225
-0.22
-0.195
-0.02
0.19
0.315
0.305
0.265
0.05
-0.14
-0.24
-0.235
-0.21
-0.015
0.19
0.305
0.325
0.285
0.095
-0.085
-0.195
-0.19
-0.175
-0.01
0.175
0.245
0.3
0.255
0.12
-0.04
-0.125
-0.12
-0.095
0.095
0.235
0.365
0.34
0.315
0.12
-0.04
-0.12
-0.08
-0.09
0.075
0.21
0.27
0.265
0.235
0.07
-0.11
-0.205
-0.22
-0.155
0.03
0.23
0.29
0.255
0.2
0.02
-0.175
-0.235
-0.19
-0.115
0.095
0.25
0.31
0.26
0.205
0.005
-0.145
-0.175
-0.165
-0.12
0.075
0.185
0.25
0.245
0.18
0.01
-0.155
-0.215
-0.18
-0.085
0.125
0.265
0.3
0.245
0.155
-0.025
-0.155
-0.23
-0.215
-0.13
0.085
0.245
0.295
0.265
0.15
-0.06
-0.24
-0.3
-0.29
-0.085
0.205
0.46
0.6
0.65
0.665
0.61
0.545
0.55
0.61
0.755
0.985
1.165
1.145
0.935
0.485
0.11
-0.09
-0.135
-0.11
0.015
0.15
0.305
0.375
0.345
0.205
-0.02
-0.165
-0.2
-0.185
-0.01
0.19
0.305
0.305
0.27
0.14
-0.05
-0.175
-0.2
-0.18
-0.04
0.155
0.295
0.32
0.275
0.12
-0.075
-0.18
-0.175
-0.125
0.015
0.205
0.325
0.31
0.255
0.08
-0.095
-0.15
-0.13
-0.095
0.08
0.24
0.325
0.315
0.28
0.105
-0.09
-0.17
-0.18
-0.15
0.03
0.22
0.315
0.31
0.3
0.125
-0.05
-0.14
-0.13
-0.1
0.06
0.215
0.29
0.275
0.265
0.105
-0.03
-0.1
-0.08
-0.04
0.15
0.275
0.34
0.315
0.28
0.135
-0.045
-0.11
-0.09
-0.055
0.125
0.285
0.375
0.37
0.345
0.155
0.01
-0.06
-0.04
0.01
0.21
0.335
0.4
0.365
0.33
0.115
-0.055
-0.11
-0.075
0.05
0.28
0.445
0.47
0.455
0.345
0.155
-0.015
-0.05
-0.01
0.085
0.29
0.445
0.495
0.46
0.395
0.2
0.085
-0.005
0.05
0.145
0.33
0.495
0.545
0.52
0.445
0.275
0.145
0.09
0.095
0.195
0.385
0.515
0.555
0.52
0.375
0.185
0.04
-0.01
0.02
0.135
0.325
0.465
0.505
0.47
0.315
0.135
-0.03
