# TIPE ECG 2021 - ECG-ID Database v1.0.0 par Physionet
# [Numéro de la personne, Période d'échantillonnage, Prénom, Age, Sexe, Date de l'enregistrement]
[07, 0.002, Richard, 21, H, 15.03.2005]
-0.435
-0.335
-0.34
-0.395
-0.54
-0.495
-0.575
-0.45
-0.49
-0.47
-0.385
-0.265
-0.33
-0.335
-0.34
-0.44
-0.44
-0.42
-0.465
-0.43
-0.35
-0.335
-0.415
-0.435
-0.44
-0.53
-0.625
-0.445
-0.45
-0.355
-0.36
-0.305
-0.385
-0.455
-0.39
-0.425
-0.555
-0.58
-0.53
-0.405
-0.39
-0.335
-0.325
-0.45
-0.48
-0.48
-0.62
-0.57
-0.395
-0.37
-0.395
-0.37
-0.355
-0.41
-0.465
-0.505
-0.56
-0.55
-0.375
-0.41
-0.385
-0.28
-0.33
-0.44
-0.55
-0.595
-0.715
-0.67
-0.61
-0.495
-0.39
-0.36
-0.3
-0.255
-0.33
-0.475
-0.605
-0.57
-0.55
-0.455
-0.425
-0.37
-0.355
-0.415
-0.385
-0.445
-0.6
-0.59
-0.505
-0.41
-0.3
-0.315
-0.31
-0.325
-0.445
-0.58
-0.62
-0.56
-0.485
-0.4
-0.385
-0.33
-0.435
-0.57
-0.505
-0.535
-0.585
-0.62
-0.605
-0.51
-0.405
-0.48
-0.385
-0.45
-0.43
-0.505
-0.6
-0.545
-0.49
-0.47
-0.425
-0.35
-0.375
-0.47
-0.525
-0.59
-0.665
-0.635
-0.56
-0.585
-0.38
-0.365
-0.36
-0.47
-0.485
-0.635
-0.655
-0.595
-0.56
-0.51
-0.31
-0.36
-0.435
-0.5
-0.515
-0.505
-0.625
-0.665
-0.665
-0.64
-0.365
-0.43
-0.47
-0.475
-0.52
-0.63
-0.61
-0.73
-0.59
-0.51
-0.41
-0.355
-0.43
-0.47
-0.59
-0.665
-0.62
-0.575
-0.62
-0.625
-0.385
-0.305
-0.36
-0.435
-0.505
-0.655
-0.635
-0.565
-0.53
-0.48
-0.42
-0.28
-0.345
-0.375
-0.44
-0.555
-0.585
-0.58
-0.56
-0.44
-0.38
-0.445
-0.47
-0.51
-0.49
-0.53
-0.62
-0.625
-0.495
-0.47
-0.4
-0.33
-0.345
-0.44
-0.63
-0.64
-0.625
-0.57
-0.5
-0.545
-0.405
-0.4
-0.515
-0.585
-0.59
-0.68
-0.67
-0.635
-0.585
-0.54
-0.445
-0.47
-0.395
-0.54
-0.495
-0.575
-0.62
-0.57
-0.52
-0.49
-0.415
-0.46
-0.495
-0.595
-0.69
-0.765
-0.69
-0.655
-0.64
-0.405
-0.345
-0.485
-0.505
-0.54
-0.64
-0.545
-0.655
-0.655
-0.57
-0.495
-0.37
-0.35
-0.405
-0.475
-0.565
-0.625
-0.585
-0.46
-0.4
-0.315
-0.18
-0.14
-0.2
-0.195
-0.26
-0.17
-0.08
-0.045
0.02
-0.03
0.0
-0.08
-0.14
-0.305
-0.39
-0.32
-0.34
-0.265
-0.3
-0.32
-0.375
-0.44
-0.52
-0.505
-0.565
-0.57
-0.53
-0.455
-0.395
-0.23
-0.28
-0.355
-0.47
-0.54
-0.685
-0.655
-0.585
-0.585
-0.52
-0.335
-0.38
-0.435
-0.435
-0.505
-0.57
-0.595
-0.635
-0.58
-0.53
-0.415
-0.285
-0.27
-0.345
-0.47
-0.585
-0.54
-0.51
-0.45
-0.4
-0.305
-0.255
-0.335
-0.425
-0.52
-0.57
-0.585
-0.41
-0.34
-0.385
-0.23
-0.25
-0.29
-0.375
-0.385
-0.53
-0.48
-0.48
-0.365
-0.33
-0.285
-0.185
-0.31
-0.335
-0.395
-0.47
-0.53
-0.525
-0.295
-0.23
-0.16
-0.12
-0.19
-0.34
-0.325
-0.505
-0.59
-0.465
-0.315
-0.265
-0.19
-0.295
-0.335
-0.32
-0.33
-0.415
-0.415
-0.43
-0.345
-0.115
-0.105
-0.09
-0.19
-0.21
-0.275
-0.305
-0.285
-0.2
-0.25
-0.17
-0.09
-0.065
-0.17
-0.24
-0.28
-0.305
-0.24
-0.145
-0.125
-0.13
-0.105
-0.11
-0.12
-0.165
-0.26
-0.415
-0.365
-0.175
-0.03
0.0
-0.04
-0.01
-0.055
-0.135
-0.18
-0.155
-0.13
-0.1
-0.12
0.01
0.115
-0.01
-0.02
-0.105
-0.185
-0.215
-0.205
-0.145
-0.095
-0.05
-0.055
-0.08
-0.185
-0.205
-0.33
-0.3
-0.3
-0.235
-0.13
-0.035
-0.125
-0.145
-0.22
-0.32
-0.37
-0.5
-0.6
-0.37
-0.215
-0.15
-0.175
-0.265
-0.265
-0.315
-0.475
-0.41
-0.48
-0.4
-0.345
-0.18
-0.195
-0.27
-0.385
-0.32
-0.385
-0.43
-0.43
-0.325
-0.395
-0.29
-0.14
-0.2
-0.355
-0.45
-0.455
-0.39
-0.33
-0.38
-0.385
-0.215
-0.325
-0.315
-0.285
-0.315
-0.445
-0.34
-0.325
-0.28
-0.3
-0.18
-0.15
-0.285
-0.37
-0.52
-0.455
-0.505
-0.51
-0.435
-0.275
-0.2
-0.35
-0.37
-0.34
-0.385
-0.455
-0.535
-0.475
-0.405
-0.275
-0.25
-0.245
-0.27
-0.405
-0.475
-0.43
-0.41
-0.415
-0.36
-0.24
-0.185
-0.165
-0.23
-0.34
-0.355
-0.48
-0.5
-0.47
-0.42
-0.31
-0.31
-0.25
-0.225
-0.275
-0.365
-0.295
-0.26
-0.39
-0.35
-0.28
-0.255
-0.145
-0.34
-0.465
-0.525
-0.535
-0.47
-0.36
-0.3
-0.25
-0.175
-0.215
-0.32
-0.375
-0.44
-0.425
-0.375
-0.34
-0.31
-0.28
-0.17
-0.135
-0.225
-0.375
-0.435
-0.42
-0.45
-0.32
-0.25
-0.105
-0.155
-0.215
-0.285
-0.275
-0.505
-0.575
-0.335
-0.34
-0.31
-0.31
-0.41
-0.415
-0.395
-0.355
-0.43
-0.43
-0.455
-0.325
-0.27
-0.245
-0.35
-0.375
-0.4
-0.34
-0.435
-0.47
-0.47
-0.37
-0.35
-0.15
-0.235
-0.36
-0.265
-0.215
-0.38
-0.44
-0.415
-0.355
-0.355
-0.215
-0.16
-0.23
-0.265
-0.405
-0.57
-0.57
-0.51
-0.41
-0.35
-0.21
-0.28
-0.355
-0.48
-0.39
-0.575
-0.565
-0.55
-0.415
-0.445
-0.24
-0.285
-0.33
-0.31
-0.36
-0.435
-0.51
-0.465
-0.36
-0.305
-0.23
-0.28
-0.3
-0.45
-0.445
-0.565
-0.585
-0.525
-0.525
-0.27
-0.255
-0.195
-0.285
-0.405
-0.46
-0.595
-0.585
-0.6
-0.455
-0.465
-0.315
-0.31
-0.335
-0.35
-0.55
-0.515
-0.435
-0.465
-0.38
-0.335
-0.205
-0.315
-0.41
-0.49
-0.525
-0.585
-0.485
-0.39
-0.305
-0.215
-0.275
-0.26
-0.345
-0.455
-0.515
-0.56
-0.6
-0.585
-0.43
-0.245
-0.295
-0.305
-0.3
-0.37
-0.45
-0.44
-0.48
-0.475
-0.415
-0.3
-0.27
-0.33
-0.4
-0.465
-0.515
-0.49
-0.48
-0.445
-0.385
-0.335
-0.39
-0.355
-0.305
-0.45
-0.545
-0.55
-0.52
-0.52
-0.43
-0.265
-0.285
-0.325
-0.32
-0.44
-0.515
-0.645
-0.55
-0.47
-0.395
-0.24
-0.275
-0.32
-0.44
-0.425
-0.485
-0.55
-0.555
-0.5
-0.34
-0.21
-0.26
-0.4
-0.465
-0.44
-0.58
-0.57
-0.585
-0.505
-0.405
-0.29
-0.245
-0.295
-0.4
-0.41
-0.56
-0.475
-0.42
-0.36
-0.27
-0.205
-0.31
-0.395
-0.36
-0.345
-0.47
-0.495
-0.48
-0.425
-0.395
-0.245
-0.165
-0.255
-0.415
-0.365
-0.48
-0.435
-0.37
-0.315
-0.285
-0.17
-0.25
-0.375
-0.46
-0.48
-0.395
-0.37
-0.29
-0.295
-0.31
-0.225
-0.26
-0.355
-0.34
-0.465
-0.46
-0.49
-0.435
-0.38
-0.325
-0.18
-0.265
-0.42
-0.505
-0.55
-0.505
-0.515
-0.475
-0.385
-0.37
-0.27
-0.295
-0.365
-0.46
-0.465
-0.57
-0.545
-0.435
-0.41
-0.44
-0.265
-0.275
-0.35
-0.385
-0.445
-0.465
-0.495
-0.415
-0.315
-0.28
-0.28
-0.3
-0.31
-0.39
-0.57
-0.53
-0.395
-0.32
-0.29
-0.145
-0.01
0.045
0.055
0.15
-0.025
-0.015
0.12
0.135
-0.03
0.085
0.12
-0.02
-0.13
-0.21
-0.26
-0.24
-0.21
-0.265
-0.205
-0.175
-0.23
-0.355
-0.39
-0.405
-0.505
-0.49
-0.52
-0.26
-0.26
-0.13
-0.105
-0.255
-0.295
-0.35
-0.45
-0.485
-0.455
-0.405
-0.465
-0.225
-0.225
-0.335
-0.45
-0.475
-0.37
-0.345
-0.435
-0.35
-0.375
-0.325
-0.405
-0.45
-0.565
-0.485
-0.425
-0.44
-0.34
-0.285
-0.28
-0.275
-0.25
-0.3
-0.27
-0.33
-0.48
-0.48
-0.45
-0.395
-0.4
-0.27
-0.15
-0.2
-0.25
-0.355
-0.525
-0.46
-0.385
-0.295
-0.25
-0.225
-0.21
-0.195
-0.375
-0.45
-0.515
-0.47
-0.28
-0.275
-0.175
-0.145
-0.2
-0.235
-0.325
-0.405
-0.465
-0.355
-0.365
-0.345
-0.335
-0.24
-0.165
-0.215
-0.33
-0.385
-0.425
-0.445
-0.295
-0.305
-0.24
-0.175
-0.095
-0.185
-0.2
-0.27
-0.44
-0.57
-0.16
-0.105
-0.065
-0.1
-0.09
-0.2
-0.215
-0.24
-0.31
-0.29
-0.24
-0.175
-0.065
0.055
-0.045
-0.075
-0.12
-0.115
-0.135
-0.175
-0.11
-0.09
-0.065
-0.02
-0.04
0.055
-0.03
-0.155
-0.26
-0.2
-0.35
-0.245
-0.24
-0.33
-0.195
-0.26
-0.335
-0.45
-0.505
-0.495
-0.375
-0.3
-0.26
-0.365
-0.51
-0.4
-0.495
-0.545
-0.565
-0.585
-0.625
-0.605
-0.6
-0.41
-0.505
-0.395
-0.56
-0.7
-0.705
-0.675
-0.615
-0.645
-0.585
-0.615
-0.64
-0.73
-0.765
-0.88
-0.675
-0.66
-0.73
-0.68
-0.605
-0.67
-0.71
-0.795
-0.77
-0.79
-0.8
-0.725
-0.69
-0.595
-0.58
-0.615
-0.685
-0.73
-0.78
-0.865
-0.76
-0.7
-0.655
-0.625
-0.57
-0.62
-0.685
-0.765
-0.885
-1.09
-1.105
-0.87
-0.78
-0.685
-0.615
-0.6
-0.66
-0.765
-0.89
-0.93
-0.87
-0.8
-0.775
-0.765
-0.635
-0.645
-0.71
-0.82
-0.77
-0.815
-0.885
-0.835
-0.785
-0.67
-0.63
-0.65
-0.715
-0.85
-0.995
-0.89
-0.94
-0.82
-0.63
-0.65
-0.63
-0.605
-0.635
-0.77
-0.86
-0.875
-0.87
-0.865
-0.775
-0.695
-0.675
-0.685
-0.675
-0.775
-0.93
-0.89
-0.805
-0.735
-0.7
-0.695
-0.65
-0.7
-0.715
-0.81
-0.965
-1.045
-1.01
-0.86
-0.77
-0.745
-0.745
-0.81
-0.75
-0.91
-0.87
-0.885
-0.83
-0.795
-0.73
-0.685
-0.675
-0.665
-0.655
-0.765
-0.86
-0.82
-0.845
-0.76
-0.735
-0.675
-0.63
-0.695
-0.75
-0.835
-0.87
-0.945
-0.735
-0.73
-0.83
-0.63
-0.64
-0.665
-0.72
-0.795
-0.89
-0.93
-0.965
-0.87
-0.845
-0.725
-0.635
-0.71
-0.68
-0.67
-0.935
-0.985
-0.985
-0.89
-0.81
-0.64
-0.605
-0.675
-0.765
-0.84
-0.95
-0.975
-1.0
-0.75
-0.695
-0.625
-0.705
-0.745
-0.755
-0.78
-0.915
-0.94
-0.88
-0.78
-0.71
-0.68
-0.705
-0.715
-0.76
-0.845
-0.945
-0.925
-0.85
-0.88
-0.77
-0.675
-0.595
-0.69
-0.785
-0.825
-0.865
-0.93
-0.935
-0.765
-0.84
-0.74
-0.59
-0.615
-0.72
-0.765
-0.855
-0.835
-0.845
-0.765
-0.69
-0.66
-0.685
-0.625
-0.755
-0.795
-0.865
-0.865
-0.86
-0.805
-0.765
-0.635
-0.62
-0.645
-0.695
-0.795
-0.925
-0.9
-0.76
-0.66
-0.595
-0.63
-0.73
-0.74
-0.77
-0.875
-0.805
-0.795
-0.845
-0.79
-0.695
-0.61
-0.64
-0.71
-0.79
-0.775
-0.885
-0.855
-0.78
-0.64
-0.745
-0.685
-0.69
-0.65
-0.795
-0.875
-1.005
-0.985
-0.895
-0.825
-0.67
-0.7
-0.735
-0.765
-0.76
-0.965
-1.025
-1.0
-0.925
-0.81
-0.515
-0.585
-0.66
-0.765
-0.845
-0.88
-0.89
-0.905
-0.81
-0.805
-0.7
-0.7
-0.62
-0.725
-0.745
-0.865
-0.875
-0.865
-0.815
-0.705
-0.7
-0.695
-0.71
-0.67
-0.725
-0.8
-0.875
-0.775
-0.59
-0.505
-0.33
-0.315
-0.29
-0.19
-0.225
-0.485
-0.465
-0.46
-0.435
-0.54
-0.39
-0.44
-0.52
-0.57
-0.605
-0.78
-0.75
-0.705
-0.7
-0.745
-0.78
-0.79
-0.845
-0.855
-0.78
-0.825
-0.86
-0.85
-0.735
-0.66
-0.615
-0.62
-0.65
-0.745
-0.815
-0.92
-0.805
-0.76
-0.68
-0.675
-0.625
-0.74
-0.735
-0.83
-0.85
-0.97
-0.895
-0.895
-0.84
-0.655
-0.49
-0.625
-0.665
-0.715
-0.84
-0.94
-0.83
-0.765
-0.715
-0.745
-0.595
-0.655
-0.7
-0.73
-0.73
-0.855
-0.895
-0.865
-0.79
-0.705
-0.555
-0.58
-0.585
-0.705
-0.805
-0.845
-0.84
-0.74
-0.705
-0.645
-0.6
-0.645
-0.735
-0.85
-0.945
-0.91
-0.85
-0.71
-0.63
-0.59
-0.52
-0.52
-0.67
-0.75
-0.85
-0.83
-0.825
-0.795
-0.72
-0.545
-0.545
-0.615
-0.58
-0.58
-0.74
-0.755
-0.71
-0.7
-0.64
-0.59
-0.575
-0.59
-0.63
-0.71
-0.805
-0.775
-0.82
-0.66
-0.545
-0.565
-0.525
-0.505
-0.48
-0.59
-0.73
-0.715
-0.7
-0.55
-0.47
-0.375
-0.385
-0.41
-0.51
-0.505
-0.605
-0.65
-0.565
-0.425
-0.36
-0.32
-0.31
-0.355
-0.465
-0.645
-0.75
-0.74
-0.515
-0.43
-0.465
-0.35
-0.375
-0.42
-0.495
-0.495
-0.595
-0.635
-0.665
-0.66
-0.565
-0.445
-0.48
-0.53
-0.63
-0.705
-0.79
-0.765
-0.68
-0.605
-0.58
-0.495
-0.56
-0.655
-0.655
-0.795
-0.86
-0.855
-0.84
-0.815
-0.63
-0.615
-0.645
-0.74
-0.73
-0.765
-0.845
-0.86
-0.86
-0.87
-0.67
-0.635
-0.645
-0.775
-0.765
-0.87
-0.94
-0.875
-0.795
-0.675
-0.68
-0.56
-0.585
-0.685
-0.73
-0.755
-0.81
-0.86
-0.955
-0.945
-0.78
-0.525
-0.485
-0.68
-0.74
-0.82
-0.83
-0.85
-0.8
-0.635
-0.685
-0.72
-0.695
-0.745
-0.82
-0.8
-0.885
-0.93
-0.83
-0.71
-0.715
-0.675
-0.635
-0.69
-0.715
-0.835
-0.84
-0.84
-0.785
-0.73
-0.71
-0.675
-0.605
-0.695
-0.83
-1.0
-0.77
-0.865
-0.87
-0.76
-0.585
-0.565
-0.605
-0.705
-0.805
-0.775
-0.74
-0.785
-0.745
-0.72
-0.645
-0.65
-0.7
-0.73
-0.775
-0.855
-0.79
-0.73
-0.75
-0.705
-0.5
-0.52
-0.57
-0.68
-0.75
-0.845
-0.835
-0.84
-0.735
-0.775
-0.67
-0.57
-0.645
-0.725
-0.66
-0.79
-0.79
-0.865
-0.71
-0.74
-0.635
-0.64
-0.595
-0.705
-0.73
-0.825
-0.85
-0.8
-0.74
-0.715
-0.58
-0.63
-0.665
-0.695
-0.625
-0.725
-0.77
-0.81
-0.685
-0.765
-0.605
-0.785
-0.715
-0.64
-0.715
-0.84
-0.775
-0.72
-0.685
-0.545
-0.515
-0.52
-0.615
-0.67
-0.725
-0.875
-0.82
-0.68
-0.71
-0.7
-0.615
-0.62
-0.615
-0.64
-0.72
-0.745
-0.67
-0.745
-0.675
-0.615
-0.56
-0.62
-0.66
-0.775
-0.68
-0.775
-0.78
-0.705
-0.68
-0.62
-0.475
-0.58
-0.555
-0.685
-0.865
-0.875
-0.79
-0.69
-0.56
-0.54
-0.515
-0.61
-0.72
-0.655
-0.74
-0.775
-0.725
-0.62
-0.605
-0.61
-0.57
-0.655
-0.7
-0.675
-0.8
-0.85
-0.79
-0.77
-0.625
-0.495
-0.52
-0.69
-0.635
-0.63
-0.735
-0.76
-0.74
-0.6
-0.575
-0.565
-0.475
-0.545
-0.575
-0.62
-0.71
-0.735
-0.7
-0.61
-0.585
-0.44
-0.445
-0.55
-0.56
-0.605
-0.78
-0.77
-0.695
-0.635
-0.57
-0.595
-0.535
-0.54
-0.65
-0.64
-0.625
-0.675
-0.63
-0.615
-0.585
-0.53
-0.54
-0.61
-0.705
-0.715
-0.74
-0.67
-0.665
-0.64
-0.6
-0.515
-0.51
-0.565
-0.715
-0.705
-0.845
-0.765
-0.77
-0.69
-0.72
-0.65
-0.615
-0.635
-0.615
-0.64
-0.66
-0.79
-0.675
-0.64
-0.645
-0.565
-0.6
-0.67
-0.65
-0.75
-0.875
-0.87
-0.69
-0.625
-0.6
-0.59
-0.585
-0.62
-0.665
-0.77
-0.87
-0.815
-0.785
-0.745
-0.71
-0.695
-0.48
-0.555
-0.675
-0.73
-0.96
-0.825
-0.71
-0.535
-0.475
-0.375
-0.29
-0.265
-0.35
-0.33
-0.27
-0.28
-0.22
-0.165
-0.18
-0.17
-0.215
-0.37
-0.52
-0.505
-0.615
-0.545
-0.54
-0.475
-0.495
-0.525
-0.675
-0.785
-0.79
-0.85
-0.78
-0.775
-0.655
-0.575
-0.485
-0.52
-0.585
-0.665
-0.735
-0.775
-0.83
-0.775
-0.68
-0.71
-0.505
-0.565
-0.775
-0.845
-0.725
-0.735
-0.76
-0.69
-0.655
-0.675
-0.63
-0.64
-0.62
-0.64
-0.71
-0.805
-0.75
-0.805
-0.72
-0.575
-0.565
-0.575
-0.68
-0.64
-0.665
-0.745
-0.8
-0.72
-0.765
-0.72
-0.615
-0.655
-0.72
-0.79
-0.73
-0.85
-0.83
-0.75
-0.625
-0.545
-0.455
-0.585
-0.635
-0.645
-0.71
-0.79
-0.79
-0.695
-0.7
-0.63
-0.475
-0.455
-0.63
-0.7
-0.73
-0.695
-0.695
-0.725
-0.69
-0.615
-0.545
-0.5
-0.545
-0.585
-0.735
-0.865
-0.77
-0.795
-0.645
-0.57
-0.555
-0.51
-0.53
-0.675
-0.68
-0.785
-0.675
-0.56
-0.505
-0.515
-0.385
-0.43
-0.495
-0.495
-0.605
-0.67
-0.69
-0.51
-0.41
-0.525
-0.395
-0.41
-0.465
-0.585
-0.58
-0.605
-0.565
-0.53
-0.42
-0.425
-0.395
-0.315
-0.345
-0.465
-0.535
-0.58
-0.515
-0.43
-0.425
-0.44
-0.365
-0.29
-0.425
-0.55
-0.65
-0.645
-0.49
-0.495
-0.515
-0.465
-0.47
-0.51
-0.59
-0.66
-0.775
-0.795
-0.665
-0.61
-0.57
-0.58
-0.565
-0.62
-0.625
-0.665
-0.895
-0.95
-0.8
-0.545
-0.54
-0.51
-0.495
-0.565
-0.695
-0.865
-0.905
-0.865
-0.84
-0.745
-0.7
-0.66
-0.615
-0.61
-0.665
-0.705
-0.855
-0.9
-0.79
-0.74
-0.745
-0.675
-0.65
-0.725
-0.755
-0.795
-0.85
-0.76
-0.75
-0.72
-0.62
-0.505
-0.64
-0.785
-0.84
-0.825
-0.925
-0.86
-0.755
-0.715
-0.68
-0.67
-0.71
-0.79
-0.885
-0.88
-0.88
-0.86
-0.805
-0.815
-0.825
-0.655
-0.56
-0.65
-0.74
-0.695
-0.78
-0.78
-0.765
-0.74
-0.64
-0.695
-0.65
-0.65
-0.795
-0.81
-0.81
-0.795
-0.74
-0.715
-0.745
-0.68
-0.75
-0.81
-1.0
-0.76
-0.885
-0.855
-0.85
-0.755
-0.69
-0.655
-0.76
-0.74
-0.74
-0.7
-0.85
-0.81
-0.74
-0.695
-0.76
-0.63
-0.645
-0.655
-0.78
-0.865
-0.925
-0.665
-0.73
-0.79
-0.735
-0.595
-0.56
-0.595
-0.675
-0.765
-0.82
-0.855
-0.825
-0.725
-0.64
-0.615
-0.675
-0.745
-0.84
-0.855
-0.9
-0.88
-0.85
-0.74
-0.69
-0.66
-0.74
-0.815
-0.855
-0.71
-0.885
-0.84
-0.835
-0.625
-0.495
-0.56
-0.6
-0.685
-0.79
-0.91
-0.84
-0.85
-0.79
-0.66
-0.59
-0.575
-0.645
-0.76
-0.805
-0.89
-0.865
-0.83
-0.71
-0.65
-0.61
-0.64
-0.715
-0.74
-0.745
-0.82
-0.84
-0.885
-0.88
-0.76
-0.64
-0.63
-0.65
-0.795
-0.855
-0.785
-0.83
-0.8
-0.74
-0.77
-0.615
-0.625
-0.63
-0.695
-0.78
-0.88
-0.925
-0.895
-0.765
-0.625
-0.585
-0.58
-0.61
-0.7
-0.83
-0.905
-0.87
-0.77
-0.81
-0.665
-0.535
-0.605
-0.77
-0.875
-0.84
-0.845
-0.78
-0.765
-0.725
-0.695
-0.56
-0.61
-0.73
-0.855
-0.805
-0.815
-0.805
-0.78
-0.75
-0.61
-0.59
-0.715
-0.685
-0.645
-0.66
-0.705
-0.8
-0.755
-0.635
-0.495
-0.43
-0.565
-0.56
-0.535
-0.775
-0.87
-0.745
-0.675
-0.595
-0.665
-0.655
-0.56
-0.675
-0.73
-0.815
-0.86
-0.815
-0.72
-0.64
-0.64
-0.62
-0.635
-0.695
-0.775
-0.895
-0.75
-0.695
-0.715
-0.63
-0.54
-0.55
-0.585
-0.685
-0.735
-0.775
-0.86
-0.835
-0.715
-0.71
-0.675
-0.7
-0.71
-0.64
-0.665
-0.685
-0.75
-0.72
-0.7
-0.64
-0.505
-0.515
-0.63
-0.755
-0.78
-0.88
-0.895
-0.805
-0.66
-0.71
-0.66
-0.63
-0.655
-0.765
-0.675
-0.725
-0.74
-0.73
-0.61
-0.49
-0.475
-0.465
-0.335
-0.38
-0.375
-0.33
-0.19
-0.125
-0.09
-0.105
-0.035
-0.095
-0.325
-0.33
-0.34
-0.54
-0.595
-0.615
-0.55
-0.505
-0.455
-0.415
-0.51
-0.635
-0.685
-0.775
-0.73
-0.715
-0.585
-0.545
-0.635
-0.62
-0.555
-0.62
-0.665
-0.74
-0.775
-0.715
-0.655
-0.62
-0.58
-0.58
-0.625
-0.72
-0.735
-0.795
-0.74
-0.625
-0.505
-0.48
-0.495
-0.495
-0.685
-0.785
-0.82
-0.835
-0.645
-0.76
-0.65
-0.62
-0.605
-0.565
-0.615
-0.69
-0.74
-0.84
-0.775
-0.715
-0.615
-0.665
-0.595
-0.46
-0.485
-0.64
-0.715
-0.76
-0.675
-0.61
-0.555
-0.495
-0.465
-0.39
-0.4
-0.56
-0.595
-0.74
-0.695
-0.695
-0.57
-0.51
-0.48
-0.54
-0.58
-0.72
-0.755
-0.965
-0.785
-0.595
-0.485
-0.44
-0.475
-0.5
-0.49
-0.585
-0.675
-0.665
-0.6
-0.615
-0.525
-0.565
-0.46
-0.55
-0.51
-0.495
-0.6
-0.61
-0.575
-0.405
-0.41
-0.42
-0.44
-0.415
-0.615
-0.415
-0.55
-0.615
-0.575
-0.49
-0.445
-0.36
-0.3
-0.325
-0.36
-0.44
-0.58
-0.46
-0.445
-0.29
-0.32
-0.265
-0.285
-0.28
-0.215
-0.365
-0.385
-0.295
-0.24
-0.17
-0.315
-0.26
-0.34
-0.4
-0.475
-0.555
-0.595
-0.45
-0.445
-0.3
-0.235
-0.28
-0.4
-0.44
-0.49
-0.565
-0.645
-0.59
-0.665
-0.53
-0.52
-0.415
-0.485
-0.62
-0.7
-0.645
-0.81
-0.895
-0.615
-0.56
-0.55
-0.52
-0.505
-0.475
-0.59
-0.585
-0.655
-0.72
-0.685
-0.715
-0.655
-0.52
-0.595
-0.645
-0.775
-0.835
-0.87
-0.735
-0.78
-0.75
-0.665
-0.625
-0.645
-0.745
-0.745
-0.84
-0.955
-0.925
-0.815
-0.77
-0.655
-0.65
-0.62
-0.68
-0.715
-0.76
-0.88
-0.91
-0.795
-0.635
-0.53
-0.51
-0.55
-0.725
-0.745
-0.805
-0.925
-0.925
-0.745
-0.755
-0.77
-0.67
-0.625
-0.72
-0.815
-0.835
-0.91
-0.95
-0.925
-0.88
-0.82
-0.64
-0.53
-0.705
-0.73
-0.78
-0.875
-0.83
-0.795
-0.795
-0.805
-0.805
-0.66
-0.725
-0.735
-0.85
-0.89
-0.845
-0.76
-0.705
-0.615
-0.64
-0.695
-0.73
-0.865
-0.865
-0.83
-0.84
-0.785
-0.735
-0.615
-0.65
-0.67
-0.855
-0.945
-0.99
-0.835
-0.81
-0.865
-0.835
-0.62
-0.635
-0.68
-0.69
-0.705
-0.925
-0.855
-0.83
-0.78
-0.76
-0.715
-0.715
-0.67
-0.815
-0.88
-0.905
-0.91
-0.8
-0.72
-0.715
-0.63
-0.75
-0.78
-0.87
-0.76
-0.91
-0.86
-0.785
-0.655
-0.7
-0.54
-0.565
-0.665
-0.795
-0.835
-0.895
-0.83
-0.795
-0.715
-0.675
-0.595
-0.58
-0.635
-0.715
-0.745
-0.785
-0.625
-0.645
-0.64
-0.665
-0.605
-0.635
-0.7
-0.73
-0.695
-0.83
-0.905
-0.925
-0.83
-0.74
-0.665
-0.655
-0.68
-0.78
-0.835
-0.83
-0.825
-0.855
-0.82
-0.72
-0.7
-0.65
-0.71
-0.88
-0.88
-0.865
-0.89
-0.81
-0.825
-0.805
-0.745
-0.775
-0.805
-0.84
-0.835
-0.97
-1.025
-0.895
-0.705
-0.75
-0.645
-0.72
-0.79
-0.83
-0.825
-0.96
-0.945
-0.745
-0.76
-0.73
-0.67
-0.73
-0.795
-0.805
-0.875
-0.875
-0.92
-0.94
-0.84
-0.75
-0.675
-0.685
-0.75
-0.875
-0.88
-0.805
-0.77
-0.68
-0.555
-0.45
-0.31
-0.22
-0.16
-0.165
-0.205
-0.135
-0.19
-0.255
-0.12
-0.1
-0.185
-0.335
-0.405
-0.515
-0.62
-0.7
-0.82
-0.73
-0.845
-0.89
-0.8
-0.86
-0.915
-0.9
-1.04
-0.95
-0.78
-0.785
-0.71
-0.565
-0.54
-0.645
-0.745
-0.79
-0.85
-0.825
-0.8
-0.82
-0.75
-0.65
-0.67
-0.855
-0.725
-0.695
-0.9
-0.85
-0.8
-0.605
-0.62
-0.605
-0.665
-0.745
-0.86
-0.835
-0.89
-0.915
-0.875
-0.805
-0.745
-0.705
-0.715
-0.74
-0.755
-0.68
-0.735
-0.785
-0.695
-0.675
-0.8
-0.575
-0.535
-0.57
-0.6
-0.7
-0.795
-0.775
-0.66
-0.645
-0.655
-0.62
-0.79
-0.59
-0.615
-0.595
-0.73
-0.71
-0.63
-0.58
-0.62
-0.5
-0.465
-0.65
-0.695
-0.715
-0.76
-0.695
-0.66
-0.56
-0.555
-0.54
-0.5
-0.535
-0.67
-0.6
-0.73
-0.77
-0.7
-0.505
-0.475
-0.385
-0.47
-0.47
-0.38
-0.43
-0.415
-0.465
-0.445
-0.34
-0.355
-0.415
-0.34
-0.435
-0.455
-0.415
-0.51
-0.51
-0.41
-0.325
-0.305
-0.27
-0.3
-0.325
-0.33
-0.49
-0.555
-0.52
-0.435
-0.38
-0.385
-0.38
-0.36
-0.35
-0.41
-0.425
-0.425
-0.485
-0.385
-0.415
-0.22
-0.23
-0.38
-0.395
-0.53
-0.465
-0.44
-0.495
-0.495
-0.465
-0.385
-0.375
-0.435
-0.55
-0.545
-0.705
-0.635
-0.57
-0.525
-0.48
-0.42
-0.49
-0.545
-0.67
-0.71
-0.95
-0.935
-0.575
-0.575
-0.655
-0.565
-0.57
-0.44
-0.565
-0.565
-0.71
-0.63
-0.735
-0.835
-0.495
-0.495
-0.49
-0.46
-0.585
-0.69
-0.72
-0.74
-0.625
-0.605
-0.51
-0.38
-0.465
-0.545
-0.66
-0.745
-0.785
-0.66
-0.69
-0.5
-0.475
-0.445
-0.48
-0.495
-0.535
-0.635
-0.725
-0.7
-0.695
-0.695
-0.675
-0.585
-0.45
-0.51
-0.625
-0.62
-0.73
-0.645
-0.61
-0.605
-0.575
-0.625
-0.69
-0.555
-0.525
-0.5
-0.635
-0.65
-0.635
-0.61
-0.51
-0.475
-0.565
-0.535
-0.66
-0.74
-0.745
-0.67
-0.675
-0.54
-0.49
-0.44
-0.5
-0.62
-0.64
-0.685
-0.86
-0.82
-0.77
-0.55
-0.48
-0.54
-0.565
-0.565
-0.66
-0.71
-0.68
-0.58
-0.61
-0.57
-0.635
-0.4
-0.46
-0.38
-0.5
-0.505
-0.6
-0.65
-0.595
-0.44
-0.375
-0.39
-0.4
-0.49
-0.525
-0.61
-0.6
-0.55
-0.63
-0.525
-0.55
-0.545
-0.485
-0.46
-0.53
-0.615
-0.76
-0.75
-0.71
-0.63
-0.675
-0.475
-0.505
-0.565
-0.585
-0.67
-0.63
-0.65
-0.615
-0.615
-0.65
-0.57
-0.735
-0.605
-0.735
-0.825
-0.705
-0.575
-0.505
-0.52
-0.435
-0.445
-0.59
-0.635
-0.61
-0.74
-0.7
-0.605
-0.635
-0.565
-0.4
-0.45
-0.54
-0.585
-0.67
-0.755
-0.74
-0.66
-0.64
-0.585
-0.43
-0.44
-0.58
-0.635
-0.625
-0.67
-0.68
-0.74
-0.61
-0.515
-0.335
-0.4
-0.455
-0.29
-0.35
-0.365
-0.21
-0.05
0.08
0.205
0.275
0.155
-0.025
-0.125
-0.16
-0.36
-0.34
-0.415
-0.36
-0.3
-0.425
-0.5
-0.62
-0.71
-0.765
-0.83
-0.785
-0.63
-0.555
-0.545
-0.475
-0.52
-0.555
-0.59
-0.49
-0.575
-0.695
-0.615
-0.545
-0.565
-0.44
-0.39
-0.465
-0.545
-0.655
-0.79
-0.75
-0.74
-0.62
-0.525
-0.47
-0.53
-0.23
-0.45
-0.56
-0.615
-0.625
-0.525
-0.44
-0.395
-0.375
-0.43
-0.485
-0.6
-0.655
-0.67
-0.62
-0.53
-0.475
-0.465
-0.42
-0.34
-0.48
-0.62
-0.65
-0.575
-0.55
-0.54
-0.46
-0.415
-0.48
-0.545
-0.57
-0.625
-0.59
-0.54
-0.425
-0.38
-0.355
-0.4
-0.44
-0.36
-0.385
-0.485
-0.55
-0.575
-0.535
-0.43
-0.4
-0.36
-0.38
-0.385
-0.455
-0.5
-0.555
-0.56
-0.495
-0.43
-0.335
-0.28
-0.35
-0.455
-0.535
-0.645
-0.68
-0.33
-0.36
-0.21
-0.315
-0.245
-0.24
-0.225
-0.38
-0.41
-0.425
-0.46
-0.375
-0.385
-0.195
-0.06
-0.075
-0.165
-0.23
-0.225
-0.31
-0.335
-0.265
-0.25
-0.19
-0.06
-0.13
-0.18
-0.28
-0.31
-0.38
-0.295
-0.345
-0.295
-0.205
-0.19
-0.175
-0.175
-0.195
-0.195
-0.405
-0.405
-0.365
-0.375
-0.225
-0.135
-0.205
-0.28
-0.355
-0.325
-0.475
-0.43
-0.385
-0.355
-0.38
-0.345
-0.365
-0.525
-0.445
-0.49
-0.56
-0.51
-0.505
-0.4
-0.35
-0.37
-0.38
-0.47
-0.51
-0.57
-0.69
-0.725
-0.605
-0.395
-0.405
-0.315
-0.325
-0.48
-0.56
-0.59
-0.645
-0.6
-0.545
-0.525
-0.435
-0.345
-0.39
-0.52
-0.6
-0.7
-0.715
-0.705
-0.655
-0.51
-0.465
-0.43
-0.44
-0.505
-0.565
-0.545
-0.6
-0.495
-0.47
-0.45
-0.35
-0.4
-0.425
-0.485
-0.465
-0.495
-0.56
-0.565
-0.575
-0.405
-0.45
-0.405
-0.435
-0.5
-0.59
-0.57
-0.58
-0.61
-0.465
-0.43
-0.375
-0.425
-0.425
-0.51
-0.605
-0.665
-0.44
-0.415
-0.495
-0.475
-0.385
-0.325
-0.37
-0.41
-0.4
-0.51
-0.48
-0.48
-0.425
-0.44
-0.37
-0.37
-0.275
-0.365
-0.405
-0.475
-0.46
-0.405
-0.4
-0.355
-0.38
-0.39
-0.46
-0.59
-0.5
-0.445
-0.585
-0.585
-0.555
-0.475
-0.31
-0.245
-0.4
-0.5
-0.56
-0.635
-0.63
-0.625
-0.605
-0.625
-0.445
-0.565
-0.35
-0.505
-0.55
-0.57
-0.59
-0.55
-0.475
-0.46
-0.485
-0.525
-0.545
-0.49
-0.55
-0.6
-0.565
-0.555
-0.595
-0.555
-0.46
-0.445
-0.49
-0.57
-0.6
-0.69
-0.645
-0.57
-0.445
-0.49
-0.44
-0.5
-0.51
-0.615
-0.58
-0.57
-0.52
-0.51
-0.525
-0.525
-0.43
-0.525
-0.45
-0.505
-0.63
-0.645
-0.595
-0.59
-0.44
-0.29
-0.315
-0.34
-0.32
-0.23
-0.15
-0.16
-0.075
0.02
0.165
0.25
0.18
0.12
-0.055
-0.155
-0.315
-0.31
-0.255
-0.175
-0.17
-0.235
-0.275
-0.36
-0.525
-0.52
-0.515
-0.615
-0.595
-0.555
-0.55
-0.56
-0.545
-0.455
-0.49
-0.495
-0.58
-0.685
-0.62
-0.58
-0.52
-0.625
-0.54
-0.44
-0.42
-0.46
-0.61
-0.48
-0.445
-0.495
-0.515
-0.5
-0.54
-0.38
-0.56
-0.575
-0.635
-0.59
-0.53
-0.505
-0.57
-0.44
-0.45
-0.535
-0.67
-0.69
-0.64
-0.595
-0.565
-0.425
-0.475
-0.475
-0.295
-0.415
-0.485
-0.555
-0.68
-0.61
-0.555
-0.565
-0.515
-0.325
-0.355
-0.43
-0.505
-0.555
-0.595
-0.6
-0.555
-0.525
-0.455
-0.345
-0.4
-0.43
-0.54
-0.705
-0.615
-0.5
-0.495
-0.47
-0.51
-0.36
-0.345
-0.415
-0.48
-0.465
-0.51
-0.425
-0.465
-0.455
-0.49
-0.35
-0.285
-0.41
-0.455
-0.575
-0.64
-0.63
-0.535
-0.485
-0.215
-0.22
-0.305
-0.36
-0.435
-0.435
-0.405
-0.35
-0.385
-0.29
-0.24
-0.22
-0.245
-0.275
-0.32
-0.375
-0.415
-0.325
-0.295
-0.3
-0.24
-0.195
-0.215
-0.315
-0.365
-0.34
-0.455
-0.28
-0.3
-0.26
-0.26
-0.17
-0.2
-0.27
-0.32
-0.4
-0.475
-0.45
-0.4
-0.27
-0.28
-0.235
-0.275
-0.4
-0.45
-0.555
-0.64
-0.595
-0.43
-0.415
-0.35
-0.335
-0.315
-0.375
-0.485
-0.585
-0.695
-0.595
-0.595
-0.515
-0.49
-0.395
-0.36
-0.465
-0.465
-0.555
-0.575
-0.57
-0.55
-0.615
-0.51
-0.445
-0.515
-0.53
-0.495
-0.625
-0.58
-0.555
-0.505
-0.515
-0.4
-0.46
-0.48
-0.515
-0.565
-0.69
-0.695
-0.585
-0.52
-0.405
-0.28
-0.38
-0.515
-0.52
-0.575
-0.625
-0.63
-0.57
-0.42
-0.475
-0.48
-0.45
-0.44
-0.615
-0.6
-0.585
-0.485
-0.405
-0.49
-0.49
-0.44
-0.48
-0.505
-0.485
-0.55
-0.605
-0.5
-0.53
-0.495
-0.38
-0.32
-0.25
-0.385
-0.43
-0.415
-0.56
-0.55
-0.535
-0.51
-0.52
-0.345
-0.35
-0.45
-0.475
-0.47
-0.645
-0.64
-0.545
-0.445
-0.485
-0.365
-0.47
-0.54
-0.545
-0.53
-0.68
-0.625
-0.575
-0.43
-0.545
-0.535
-0.52
-0.455
-0.51
-0.605
-0.7
-0.6
-0.53
-0.49
-0.44
-0.4
-0.435
-0.495
-0.58
-0.58
-0.625
-0.625
-0.6
-0.485
-0.4
-0.345
-0.375
-0.495
-0.605
-0.695
-0.695
-0.685
-0.68
-0.55
-0.58
-0.59
-0.685
-0.535
-0.595
-0.61
-0.585
-0.51
-0.43
-0.38
-0.38
-0.41
-0.445
-0.545
-0.505
-0.56
-0.545
-0.485
-0.445
-0.355
-0.275
-0.28
-0.295
-0.265
-0.3
-0.29
-0.19
-0.08
0.09
0.145
0.19
0.155
0.04
-0.175
-0.265
-0.39
-0.475
-0.435
-0.26
-0.34
-0.305
-0.47
-0.505
-0.415
-0.51
-0.655
-0.615
-0.555
-0.5
-0.565
-0.4
-0.385
-0.325
-0.385
-0.495
-0.575
-0.535
-0.51
-0.475
-0.42
-0.345
-0.42
-0.425
-0.55
-0.585
-0.565
-0.46
-0.415
-0.36
-0.38
-0.29
-0.39
-0.425
-0.525
-0.44
-0.55
-0.575
-0.605
-0.625
-0.565
-0.26
-0.305
-0.385
-0.45
-0.475
-0.515
-0.615
-0.57
-0.59
-0.555
-0.45
-0.47
-0.35
-0.445
-0.445
-0.54
-0.5
-0.43
-0.435
-0.445
-0.355
-0.335
-0.455
-0.505
-0.55
-0.5
-0.555
-0.545
-0.365
-0.37
-0.23
-0.24
-0.355
-0.425
-0.53
-0.57
-0.52
-0.39
-0.37
-0.4
-0.37
-0.36
-0.43
-0.39
-0.425
-0.505
-0.5
-0.45
-0.425
-0.39
-0.33
-0.24
-0.265
-0.32
-0.4
-0.4
-0.425
-0.4
-0.215
-0.205
-0.14
-0.235
-0.3
-0.45
-0.225
-0.295
-0.325
-0.24
-0.15
-0.035
-0.115
-0.21
-0.28
-0.35
-0.315
-0.365
-0.41
-0.13
-0.11
-0.09
-0.1
-0.13
-0.135
-0.18
-0.35
-0.37
-0.31
-0.125
-0.145
-0.155
-0.105
-0.09
-0.215
-0.28
-0.37
-0.445
-0.295
-0.32
-0.22
-0.14
-0.115
-0.195
-0.285
-0.345
-0.455
-0.47
-0.335
-0.315
-0.33
-0.235
-0.25
-0.245
-0.35
-0.475
-0.61
-0.535
-0.505
-0.42
-0.32
-0.175
-0.24
-0.315
-0.39
-0.35
-0.425
-0.525
-0.415
-0.45
-0.395
-0.32
-0.33
-0.39
-0.375
-0.36
-0.45
-0.455
-0.38
-0.32
-0.25
-0.305
-0.395
-0.415
-0.36
-0.435
-0.575
-0.54
-0.47
-0.365
-0.405
-0.295
-0.285
-0.315
-0.43
-0.46
-0.555
-0.515
-0.405
-0.335
-0.35
-0.175
-0.315
-0.39
-0.38
-0.295
-0.345
-0.37
-0.395
-0.29
-0.265
-0.155
-0.115
-0.28
-0.4
-0.25
-0.41
-0.405
-0.38
-0.275
-0.25
-0.245
-0.27
-0.32
-0.44
-0.395
-0.425
-0.465
-0.425
-0.34
-0.33
-0.31
-0.24
-0.355
-0.465
-0.505
-0.505
-0.49
-0.525
-0.415
-0.41
-0.25
-0.145
-0.245
-0.405
-0.575
-0.45
-0.44
-0.515
-0.355
-0.28
-0.215
-0.315
-0.355
-0.4
-0.485
-0.5
-0.445
-0.38
-0.395
-0.39
-0.36
-0.355
-0.32
-0.43
-0.475
-0.52
-0.535
-0.465
-0.455
-0.29
-0.235
-0.37
-0.395
-0.475
-0.54
-0.54
-0.45
-0.435
-0.38
-0.305
-0.315
-0.39
-0.485
-0.41
-0.46
-0.4
-0.37
-0.33
-0.225
-0.12
-0.135
-0.115
-0.165
-0.18
-0.14
-0.01
0.02
0.145
0.295
0.35
0.23
0.115
-0.015
-0.015
-0.12
-0.165
-0.12
-0.085
0.06
-0.1
-0.215
-0.205
-0.295
-0.44
-0.42
-0.435
-0.375
-0.26
-0.195
-0.11
-0.225
-0.305
-0.425
-0.375
-0.49
-0.395
-0.415
-0.36
-0.26
-0.28
-0.34
-0.31
-0.4
-0.41
-0.37
-0.395
-0.375
-0.4
-0.435
-0.265
-0.225
-0.26
-0.4
-0.38
-0.465
-0.48
-0.455
-0.365
-0.31
-0.125
-0.11
-0.215
-0.235
-0.32
-0.445
-0.39
-0.25
-0.265
-0.375
-0.075
-0.145
-0.235
-0.25
-0.335
-0.355
-0.365
-0.34
-0.31
-0.31
-0.245
-0.235
-0.27
-0.41
-0.465
-0.485
-0.335
-0.25
-0.245
-0.21
-0.205
-0.265
-0.27
-0.355
-0.515
-0.44
-0.37
-0.21
-0.235
-0.28
-0.185
-0.195
-0.26
-0.32
-0.365
-0.37
-0.275
-0.19
-0.13
-0.075
-0.095
-0.15
-0.15
-0.19
-0.215
-0.2
-0.275
-0.235
-0.235
-0.125
-0.05
-0.13
-0.155
-0.195
-0.19
-0.245
-0.17
-0.12
-0.05
-0.015
0.005
-0.04
-0.195
-0.095
-0.19
-0.295
-0.24
-0.125
-0.09
0.0
-0.005
0.015
-0.06
-0.01
-0.085
-0.135
-0.05
-0.04
-0.075
0.0
0.01
-0.09
-0.095
-0.135
-0.19
-0.225
-0.12
-0.15
-0.125
-0.105
-0.09
-0.05
-0.18
-0.215
-0.295
-0.32
-0.29
-0.215
-0.21
-0.07
-0.06
-0.165
-0.2
-0.28
-0.47
-0.52
-0.31
-0.365
-0.275
-0.09
-0.07
-0.13
-0.245
-0.275
-0.37
-0.29
-0.32
-0.205
-0.14
-0.09
-0.155
-0.335
-0.405
-0.31
-0.425
-0.355
-0.33
-0.27
-0.28
-0.155
-0.215
-0.3
-0.29
-0.31
-0.425
-0.475
-0.38
-0.32
-0.16
-0.07
-0.115
-0.08
-0.19
-0.26
-0.34
-0.33
-0.3
-0.23
-0.25
-0.125
-0.17
-0.155
-0.245
-0.285
-0.345
-0.325
-0.335
-0.27
-0.2
-0.16
-0.075
-0.235
-0.12
-0.245
-0.28
-0.335
-0.285
-0.2
-0.125
-0.185
-0.26
-0.345
-0.43
-0.375
-0.205
-0.27
-0.265
-0.17
-0.155
-0.155
-0.185
-0.22
-0.27
-0.375
-0.45
-0.445
-0.4
-0.33
-0.39
-0.345
-0.24
-0.3
-0.37
-0.37
-0.355
-0.38
-0.38
-0.29
-0.255
-0.29
-0.375
-0.38
-0.33
-0.35
-0.345
-0.37
-0.385
-0.16
-0.16
-0.22
-0.16
-0.24
-0.395
-0.47
-0.455
-0.42
-0.475
-0.245
-0.22
-0.2
-0.16
-0.285
-0.38
-0.5
-0.34
-0.29
-0.325
-0.29
-0.105
-0.215
-0.315
-0.37
-0.38
-0.495
-0.41
-0.215
-0.22
-0.17
0.01
0.1
0.085
0.105
0.16
0.035
0.15
0.25
0.33
0.245
0.17
0.21
0.215
-0.01
-0.105
-0.18
-0.17
-0.145
-0.075
-0.075
-0.135
-0.305
-0.31
-0.36
-0.35
-0.315
-0.28
-0.29
-0.26
-0.175
-0.16
-0.22
-0.285
-0.34
-0.365
-0.435
-0.485
-0.38
-0.185
-0.235
-0.21
-0.245
-0.27
-0.31
-0.32
-0.35
-0.325
-0.3
-0.23
-0.285
-0.215
-0.13
-0.23
-0.325
-0.335
-0.42
-0.385
-0.375
-0.34
-0.215
-0.07
-0.26
-0.295
-0.31
-0.385
-0.395
-0.37
-0.295
-0.185
-0.125
-0.095
-0.19
-0.32
-0.29
-0.305
-0.33
-0.32
-0.28
-0.24
-0.21
-0.17
-0.145
-0.17
-0.305
-0.345
-0.355
-0.28
-0.325
-0.325
-0.235
-0.225
-0.19
-0.2
-0.32
-0.445
-0.28
-0.25
-0.225
-0.235
-0.065
-0.21
-0.15
-0.08
-0.165
-0.335
-0.33
-0.29
-0.245
-0.235
-0.065
-0.095
-0.085
-0.09
-0.28
-0.265
-0.23
-0.21
-0.145
-0.055
0.075
-0.025
-0.01
-0.145
-0.15
-0.245
-0.135
-0.115
-0.085
-0.045
0.02
0.085
-0.005
-0.1
-0.145
-0.175
-0.19
-0.08
-0.09
-0.055
0.04
0.185
0.065
-0.05
-0.03
-0.105
-0.185
-0.195
-0.04
-0.235
-0.055
0.065
0.025
-0.13
-0.025
-0.09
-0.13
-0.15
-0.17
-0.125
-0.045
-0.1
-0.24
-0.255
-0.26
-0.315
-0.225
-0.14
-0.175
-0.215
-0.015
-0.065
-0.13
-0.29
-0.445
-0.38
-0.245
-0.28
-0.185
-0.29
-0.285
-0.13
-0.125
-0.285
-0.32
-0.35
-0.335
-0.295
-0.255
-0.235
-0.205
-0.225
-0.27
-0.28
-0.305
-0.38
-0.4
-0.22
-0.115
-0.095
-0.135
-0.175
-0.215
-0.32
-0.275
-0.34
-0.325
-0.25
-0.225
-0.175
-0.09
-0.115
-0.23
-0.32
-0.43
-0.44
-0.415
-0.095
-0.08
-0.045
-0.055
-0.05
-0.175
-0.28
-0.27
-0.285
-0.185
-0.18
-0.13
-0.06
-0.145
-0.145
-0.175
-0.225
-0.27
-0.26
-0.215
-0.22
-0.165
-0.135
-0.165
-0.155
-0.275
-0.295
-0.34
-0.34
-0.275
-0.16
-0.225
-0.135
-0.18
-0.19
-0.345
-0.295
-0.315
-0.3
-0.32
-0.245
-0.215
-0.24
-0.125
-0.18
-0.25
-0.275
-0.42
-0.465
-0.37
-0.27
-0.255
-0.13
-0.2
-0.265
-0.3
-0.32
-0.38
-0.405
-0.3
-0.235
-0.18
-0.125
-0.05
-0.2
-0.295
-0.335
-0.405
-0.345
-0.405
-0.32
-0.275
-0.215
-0.195
-0.225
-0.28
-0.34
-0.43
-0.455
-0.325
-0.14
-0.105
-0.145
-0.255
-0.15
-0.215
-0.245
-0.26
-0.135
0.02
0.165
0.22
0.355
0.435
0.45
0.325
0.285
0.17
0.11
0.095
0.09
0.045
0.11
0.12
0.11
-0.08
-0.135
-0.23
-0.385
-0.39
-0.355
-0.315
-0.215
-0.16
-0.22
-0.315
-0.35
-0.38
-0.36
-0.39
-0.21
-0.21
-0.175
-0.18
-0.185
-0.23
-0.205
-0.32
-0.29
-0.235
-0.2
-0.195
-0.155
-0.175
-0.32
-0.23
-0.315
-0.365
-0.33
-0.315
-0.18
-0.15
-0.17
-0.19
-0.25
-0.35
-0.425
-0.33
-0.37
-0.35
-0.245
-0.09
-0.115
-0.175
-0.18
-0.31
-0.31
-0.325
-0.33
-0.345
-0.295
-0.255
-0.04
-0.1
-0.195
-0.255
-0.295
-0.27
-0.3
-0.295
-0.25
-0.165
-0.025
-0.065
-0.145
-0.14
-0.24
-0.275
-0.285
-0.25
-0.22
-0.14
0.005
-0.11
-0.215
-0.18
-0.3
-0.15
-0.205
-0.215
-0.225
-0.09
-0.075
-0.07
-0.135
-0.125
-0.295
-0.28
-0.12
-0.025
-0.045
-0.08
-0.025
-0.035
-0.07
-0.075
-0.25
-0.155
0.015
0.01
-0.025
-0.01
-0.01
0.09
-0.1
-0.13
-0.185
-0.015
-0.065
-0.08
0.06
0.115
0.0
0.09
0.0
0.02
-0.1
-0.12
-0.1
0.055
0.09
0.07
0.035
0.05
0.02
-0.085
-0.195
-0.22
-0.11
-0.03
-0.03
0.005
-0.075
-0.11
-0.095
-0.045
-0.195
-0.245
-0.315
-0.085
-0.04
-0.015
0.03
-0.1
-0.285
-0.33
-0.375
-0.305
-0.2
-0.225
-0.11
-0.065
-0.075
-0.12
-0.265
-0.325
-0.395
-0.3
-0.19
-0.135
-0.165
-0.04
-0.21
-0.255
-0.175
-0.345
-0.37
-0.255
-0.3
-0.21
-0.165
-0.065
-0.11
-0.215
-0.255
-0.39
-0.31
-0.3
-0.285
-0.16
-0.1
-0.12
-0.175
-0.225
-0.275
-0.36
-0.36
-0.35
-0.21
-0.16
-0.15
-0.245
-0.08
-0.105
-0.275
-0.405
-0.375
-0.235
-0.18
-0.26
-0.2
-0.105
-0.075
-0.095
-0.165
-0.225
-0.28
-0.29
-0.27
-0.255
-0.07
-0.015
-0.06
-0.175
-0.115
-0.235
-0.255
-0.325
-0.26
-0.155
-0.07
-0.105
-0.13
-0.15
-0.155
-0.24
-0.175
-0.195
-0.205
-0.245
-0.11
-0.03
-0.09
-0.225
-0.245
-0.32
-0.275
-0.34
-0.305
-0.33
-0.11
-0.12
-0.14
-0.335
-0.415
-0.41
-0.39
-0.34
-0.205
-0.09
-0.075
-0.17
-0.255
-0.26
-0.225
-0.305
-0.285
-0.31
-0.29
-0.22
-0.105
-0.055
-0.185
-0.28
-0.3
-0.375
-0.315
-0.245
-0.22
-0.125
-0.115
-0.19
-0.155
-0.28
-0.23
-0.35
-0.43
-0.265
-0.2
-0.125
-0.115
-0.15
-0.275
-0.285
-0.375
-0.525
-0.36
-0.135
0.06
0.07
0.115
0.095
0.185
0.265
0.34
0.32
0.255
0.265
0.315
0.305
0.27
0.215
0.105
0.005
0.04
0.065
0.02
-0.05
-0.07
-0.07
-0.135
-0.215
-0.245
-0.15
-0.235
-0.23
-0.33
-0.325
-0.15
-0.105
-0.125
-0.17
-0.265
-0.3
-0.355
-0.355
-0.38
-0.345
-0.135
-0.035
-0.03
-0.02
-0.13
-0.245
-0.405
-0.42
-0.39
-0.28
-0.195
0.0
-0.04
-0.105
-0.19
-0.225
-0.305
-0.285
-0.25
-0.285
-0.235
-0.15
-0.135
-0.17
-0.115
-0.21
-0.23
-0.285
-0.255
-0.195
-0.195
-0.115
-0.175
-0.405
-0.24
-0.215
-0.28
-0.285
-0.22
-0.185
-0.315
-0.12
-0.11
-0.085
-0.155
-0.255
-0.355
-0.32
-0.11
-0.085
-0.185
-0.025
0.03
-0.03
-0.09
-0.13
-0.24
-0.205
-0.185
-0.11
-0.06
-0.01
-0.025
-0.075
-0.08
-0.16
-0.32
-0.25
-0.16
-0.075
-0.105
0.015
0.025
0.0
-0.11
-0.155
-0.27
-0.245
-0.24
-0.045
-0.005
-0.03
0.0
0.0
-0.06
-0.015
-0.06
-0.025
0.11
0.055
0.085
0.215
0.15
0.045
-0.005
-0.1
-0.205
-0.165
-0.005
0.1
0.1
0.13
0.15
0.07
-0.03
-0.035
-0.05
-0.06
-0.04
-0.025
-0.05
0.105
0.025
-0.135
-0.165
-0.13
-0.075
-0.195
-0.11
0.03
0.055
0.025
-0.01
-0.125
-0.28
-0.38
-0.28
-0.2
-0.135
-0.105
-0.07
0.02
-0.01
-0.085
-0.195
-0.265
-0.31
-0.315
-0.285
-0.205
0.01
-0.05
-0.085
-0.05
-0.16
-0.325
-0.255
-0.27
-0.2
-0.155
-0.09
-0.1
-0.11
-0.205
-0.245
-0.355
-0.44
-0.31
-0.24
-0.225
-0.07
-0.095
-0.155
-0.16
-0.195
-0.36
-0.405
-0.285
-0.34
-0.27
-0.125
-0.015
-0.09
-0.185
-0.21
-0.375
-0.25
-0.165
-0.165
-0.175
-0.13
-0.085
-0.11
-0.195
-0.195
-0.27
-0.31
-0.28
-0.205
-0.165
-0.07
-0.155
-0.15
-0.175
-0.13
-0.305
-0.38
-0.31
-0.245
-0.25
-0.225
-0.16
-0.165
-0.31
-0.445
-0.25
-0.305
-0.235
-0.1
-0.175
-0.125
-0.045
-0.06
-0.215
-0.355
-0.42
-0.375
-0.19
-0.19
-0.105
-0.05
-0.105
-0.12
-0.175
-0.175
-0.255
-0.275
-0.205
-0.15
-0.08
-0.105
-0.15
-0.22
-0.185
-0.275
-0.315
-0.225
-0.16
-0.07
-0.095
-0.01
0.04
-0.085
-0.185
-0.305
-0.21
-0.16
-0.125
-0.05
-0.1
-0.11
-0.19
-0.125
-0.12
-0.155
-0.22
-0.18
-0.13
-0.095
-0.11
-0.285
-0.285
-0.21
-0.19
-0.18
-0.195
-0.245
-0.215
-0.185
-0.14
-0.08
-0.115
-0.16
-0.215
-0.27
-0.27
-0.345
-0.26
-0.16
-0.115
-0.085
-0.135
-0.11
-0.15
-0.26
-0.33
-0.265
-0.24
-0.21
-0.155
-0.12
-0.1
-0.16
-0.17
-0.24
-0.305
-0.395
-0.305
-0.185
-0.115
-0.135
-0.15
-0.185
-0.175
-0.305
-0.33
-0.21
-0.21
-0.14
-0.035
0.07
0.07
0.005
0.015
0.055
0.215
0.31
0.415
0.395
0.515
0.5
0.315
0.185
0.02
-0.12
-0.065
0.0
0.115
0.105
0.2
0.11
-0.02
-0.095
-0.17
-0.255
-0.22
-0.205
-0.18
-0.205
-0.005
0.005
-0.1
-0.13
-0.135
-0.28
-0.275
-0.27
-0.19
-0.21
-0.08
0.04
-0.04
-0.21
-0.205
-0.275
-0.28
-0.215
-0.24
-0.16
-0.015
-0.01
-0.13
-0.275
-0.225
-0.33
-0.25
-0.25
-0.155
-0.105
-0.075
-0.055
-0.21
-0.18
-0.15
-0.22
-0.27
-0.285
-0.2
-0.105
0.015
0.03
0.01
-0.05
-0.115
-0.16
-0.165
-0.155
-0.075
-0.085
-0.05
-0.025
-0.135
-0.24
-0.22
-0.215
-0.23
-0.215
-0.12
-0.165
-0.08
0.01
0.1
-0.02
-0.17
-0.185
-0.26
-0.255
-0.065
0.03
0.085
0.06
-0.015
-0.115
-0.22
-0.165
-0.305
-0.26
-0.165
-0.005
0.055
-0.07
-0.1
-0.07
-0.045
-0.13
-0.11
-0.07
-0.035
0.09
0.135
0.16
0.005
0.065
0.015
-0.01
0.015
0.085
0.08
0.165
0.115
0.125
0.105
0.06
-0.015
-0.005
-0.005
0.035
0.045
0.15
0.155
0.14
0.195
-0.01
-0.135
-0.01
0.16
0.115
0.14
0.225
0.25
0.14
0.08
0.035
-0.065
-0.11
0.015
0.015
0.06
0.06
0.09
0.055
0.01
-0.055
-0.155
-0.12
-0.105
-0.01
0.105
0.1
0.03
-0.02
-0.12
-0.185
-0.26
-0.285
-0.215
-0.15
-0.175
-0.005
-0.07
-0.015
-0.04
-0.245
-0.34
-0.245
-0.105
-0.085
-0.115
-0.03
0.0
0.04
-0.02
-0.115
-0.235
-0.22
-0.15
-0.035
-0.02
0.015
-0.06
-0.04
-0.08
-0.215
-0.335
-0.325
-0.29
0.025
0.005
0.055
-0.02
-0.11
-0.235
-0.285
-0.305
-0.275
-0.155
-0.065
-0.06
0.045
0.02
-0.205
-0.125
-0.19
-0.19
-0.13
-0.09
-0.055
-0.06
0.025
-0.01
-0.145
-0.195
-0.23
-0.385
-0.345
-0.25
-0.13
0.015
-0.1
-0.065
-0.18
-0.195
-0.175
-0.175
-0.23
-0.16
-0.09
-0.075
0.065
0.02
-0.085
-0.19
-0.245
-0.265
-0.22
-0.15
-0.14
-0.04
-0.06
-0.05
-0.04
-0.105
-0.22
-0.265
-0.245
-0.09
-0.025
-0.025
-0.065
-0.065
-0.21
-0.075
-0.195
-0.23
-0.185
-0.145
-0.11
-0.065
0.1
0.035
-0.175
-0.195
-0.27
-0.26
-0.22
-0.125
-0.115
-0.07
-0.005
-0.14
-0.125
-0.155
-0.18
-0.12
-0.14
-0.09
-0.015
0.1
-0.025
-0.05
-0.1
-0.17
-0.195
-0.265
-0.185
-0.245
-0.205
-0.08
-0.04
-0.07
-0.075
-0.09
-0.11
-0.215
-0.08
-0.045
-0.04
0.13
0.165
0.01
-0.105
-0.06
-0.185
-0.185
-0.13
-0.14
-0.17
-0.035
-0.035
-0.05
-0.035
0.025
-0.115
-0.1
-0.205
-0.13
-0.13
-0.065
-0.04
-0.02
-0.2
-0.195
-0.24
-0.255
-0.235
-0.14
-0.045
-0.07
-0.125
-0.11
-0.15
-0.145
-0.18
-0.215
-0.2
-0.085
-0.045
-0.02
-0.105
-0.085
-0.245
-0.31
-0.285
-0.14
-0.18
-0.11
-0.05
0.06
-0.04
-0.16
-0.185
-0.28
-0.315
-0.23
-0.2
-0.065
-0.035
-0.04
-0.035
-0.105
-0.25
-0.36
-0.22
-0.09
-0.05
0.005
0.0
0.195
0.37
0.37
0.4
0.365
0.275
0.33
0.405
0.385
0.465
0.385
0.385
0.155
0.125
0.045
0.17
0.19
0.145
0.095
0.105
-0.035
-0.105
-0.23
-0.19
-0.245
-0.17
-0.15
-0.155
-0.025
0.06
-0.02
-0.155
-0.28
-0.265
-0.185
-0.255
-0.22
-0.16
-0.135
-0.015
-0.085
-0.205
-0.15
-0.16
-0.165
-0.095
-0.2
-0.18
-0.135
-0.04
-0.03
-0.035
-0.04
-0.125
-0.265
-0.245
-0.155
-0.125
-0.14
-0.045
-0.015
-0.045
-0.145
-0.225
-0.325
-0.32
-0.285
-0.135
0.04
0.045
0.015
-0.02
-0.065
-0.21
-0.285
-0.245
-0.2
-0.165
-0.2
0.03
0.035
-0.11
-0.12
-0.2
-0.3
-0.315
-0.245
-0.15
-0.03
0.045
0.085
0.06
-0.095
-0.165
-0.205
-0.205
-0.17
-0.12
0.025
-0.015
-0.03
-0.04
-0.06
-0.03
-0.16
-0.15
-0.155
-0.12
-0.045
0.055
-0.065
-0.07
-0.01
-0.05
-0.155
-0.16
-0.045
0.04
0.015
0.01
0.065
0.095
0.135
-0.055
-0.145
-0.07
-0.045
0.01
0.04
0.155
0.235
0.22
0.09
0.015
0.02
-0.025
-0.125
0.06
0.16
0.08
0.03
0.04
-0.05
-0.04
-0.06
-0.16
0.085
0.12
0.16
0.11
0.105
0.04
-0.07
-0.13
-0.08
-0.115
-0.08
0.01
0.075
0.08
-0.07
-0.09
-0.06
-0.145
-0.19
-0.105
-0.145
-0.025
-0.11
-0.15
-0.065
0.0
-0.21
-0.27
-0.24
-0.225
-0.155
-0.175
-0.13
-0.31
-0.205
-0.205
-0.275
-0.405
-0.32
-0.23
-0.09
-0.065
-0.035
0.005
-0.135
-0.15
-0.19
-0.4
-0.345
-0.28
-0.195
-0.15
-0.04
-0.055
-0.13
-0.165
-0.23
-0.355
-0.325
-0.285
-0.195
-0.205
-0.01
-0.015
-0.1
-0.245
-0.27
-0.345
-0.3
-0.25
-0.265
-0.175
-0.165
-0.24
-0.155
-0.16
-0.3
-0.34
-0.365
-0.35
-0.205
-0.145
-0.12
-0.19
-0.31
-0.535
-0.3
-0.11
-0.105
-0.155
-0.16
-0.16
-0.13
-0.175
-0.175
-0.235
-0.235
-0.31
-0.29
-0.325
-0.23
-0.165
-0.16
-0.085
-0.235
-0.18
-0.25
-0.405
-0.4
-0.42
-0.23
-0.11
-0.125
-0.125
-0.15
-0.24
-0.32
-0.39
-0.305
-0.145
-0.125
-0.015
-0.04
0.0
-0.135
-0.23
-0.32
-0.29
-0.225
-0.195
-0.115
-0.08
-0.095
-0.105
-0.2
-0.12
-0.225
-0.235
-0.305
-0.245
-0.19
-0.065
-0.09
-0.095
-0.125
-0.215
-0.32
-0.275
-0.305
-0.265
-0.16
0.015
-0.085
-0.11
-0.225
-0.245
-0.335
-0.29
-0.235
-0.165
-0.065
-0.09
0.015
0.02
-0.105
-0.165
-0.24
-0.215
-0.265
-0.2
-0.235
-0.05
-0.14
-0.16
-0.22
-0.2
-0.34
-0.345
-0.31
-0.275
-0.24
-0.22
-0.045
-0.11
-0.26
-0.305
-0.41
-0.385
-0.26
-0.185
-0.24
-0.145
-0.235
-0.22
-0.255
-0.265
-0.17
-0.275
-0.3
-0.26
-0.15
-0.015
-0.06
-0.195
-0.295
-0.265
-0.375
-0.345
-0.295
-0.26
-0.295
-0.08
-0.07
-0.21
-0.195
-0.28
-0.445
-0.425
-0.27
-0.105
-0.11
0.05
0.105
0.11
0.18
0.19
0.27
0.27
0.345
0.26
0.16
0.2
0.155
0.21
0.125
-0.005
-0.105
-0.035
-0.07
-0.16
0.0
-0.12
-0.23
-0.315
-0.28
-0.305
-0.4
-0.435
-0.39
-0.325
-0.07
-0.155
-0.02
-0.115
-0.155
-0.235
-0.285
-0.3
-0.23
-0.17
-0.195
-0.21
-0.01
-0.125
-0.285
-0.335
-0.33
-0.32
-0.265
-0.24
-0.195
-0.145
-0.195
-0.27
-0.265
-0.38
-0.455
-0.405
-0.195
-0.16
-0.105
-0.095
-0.105
-0.29
-0.205
-0.205
-0.31
-0.185
-0.105
-0.095
-0.06
0.0
0.0
-0.045
-0.21
-0.38
-0.365
-0.33
-0.405
-0.21
-0.02
-0.09
-0.215
-0.19
-0.13
-0.3
-0.4
-0.42
-0.41
-0.16
-0.095
-0.07
-0.11
-0.07
-0.18
-0.285
-0.23
-0.235
-0.21
-0.135
-0.05
-0.025
-0.085
-0.145
-0.16
-0.2
-0.09
-0.01
-0.015
-0.05
-0.105
-0.05
-0.145
-0.175
-0.315
-0.22
-0.23
-0.115
-0.085
0.035
0.13
0.115
0.005
-0.05
-0.08
-0.205
-0.21
-0.165
-0.135
-0.06
0.17
0.095
0.005
-0.06
0.01
-0.16
-0.07
-0.145
0.005
0.165
0.09
0.16
0.085
-0.045
-0.095
-0.195
-0.07
0.02
-0.07
0.03
0.155
0.075
0.02
-0.06
-0.125
-0.16
-0.265
-0.33
-0.15
-0.055
-0.045
-0.085
-0.175
-0.24
-0.26
-0.255
-0.215
-0.15
-0.135
-0.08
-0.065
-0.11
-0.205
-0.245
-0.37
-0.39
-0.285
-0.225
-0.145
-0.13
-0.15
-0.13
-0.155
-0.295
-0.25
-0.245
-0.315
-0.435
-0.445
-0.385
-0.385
0.045
-0.06
-0.17
-0.395
-0.225
-0.24
-0.22
-0.22
-0.145
-0.115
-0.29
-0.165
-0.225
-0.315
-0.315
-0.305
-0.255
-0.235
-0.155
-0.135
-0.335
-0.455
-0.245
-0.22
-0.355
-0.335
-0.355
-0.315
-0.01
-0.15
-0.33
-0.295
-0.225
-0.325
-0.34
-0.435
-0.41
-0.06
-0.04
-0.095
-0.22
-0.19
-0.37
-0.58
-0.365
-0.235
-0.35
-0.19
-0.265
-0.265
-0.35
-0.335
-0.315
-0.425
-0.45
-0.415
-0.4
-0.41
-0.355
-0.41
-0.31
-0.435
-0.435
-0.59
-0.605
-0.665
-0.45
-0.45
-0.33
-0.38
-0.6
-0.585
-0.7
-0.6
-0.54
-0.465
-0.455
-0.42
-0.37
-0.37
-0.415
-0.515
-0.61
-0.795
-0.795
-0.775
-0.74
-0.62
-0.58
-0.555
-0.675
-0.755
-0.835
-0.745
-0.785
-0.735
-0.65
-0.575
-0.585
-0.605
-0.615
-0.75
-0.78
-0.92
-0.955
-0.75
-0.74
-0.59
-0.56
-0.63
-0.73
-0.74
-0.865
-0.91
-0.825
-0.77
-0.635
-0.665
-0.69
-0.69
-0.75
-0.885
-0.825
-0.855
-0.86
-0.75
-0.68
-0.715
-0.84
-0.89
-0.795
-0.855
-0.9
-0.88
-0.825
-0.835
-0.855
-0.805
-0.76
-0.805
-0.8
-0.915
-0.955
-0.99
-0.95
-0.985
-1.005
-0.93
-0.865
-0.87
-0.995
-0.97
-1.025
-1.035
-1.1
-1.165
-1.2
-1.105
-1.045
-1.11
-1.2
-1.275
-1.49
-1.345
-1.34
-1.365
-1.385
-1.245
-1.07
-1.01
-1.005
-1.005
-1.035
-0.94
-0.995
-0.82
-0.69
-0.785
-0.88
-0.755
-0.755
-0.865
-0.915
-0.735
-0.695
-0.635
-0.605
-0.44
-0.4
-0.545
-0.635
-0.735
-0.895
-0.74
-0.735
-0.49
-0.54
-0.43
-0.35
-0.365
-0.485
-0.55
-0.545
-0.43
-0.32
-0.275
-0.18
-0.045
0.035
0.095
-0.065
-0.07
-0.14
-0.245
-0.24
-0.2
-0.2
-0.09
-0.08
-0.13
-0.29
-0.42
-0.6
-0.68
-0.645
-0.52
-0.415
-0.29
-0.24
-0.42
-0.52
-0.515
-0.615
-0.445
-0.38
-0.3
-0.28
-0.3
-0.23
-0.315
-0.435
-0.36
-0.48
-0.52
-0.43
-0.4
-0.365
-0.31
-0.345
-0.475
-0.57
-0.655
-0.525
-0.345
-0.39
-0.335
-0.26
-0.265
-0.24
-0.35
-0.455
-0.505
-0.555
-0.575
-0.375
-0.23
-0.27
-0.39
-0.34
-0.33
-0.47
-0.49
-0.42
-0.4
-0.32
-0.31
-0.18
-0.19
-0.21
-0.295
-0.36
-0.41
-0.52
-0.61
-0.315
-0.22
-0.18
-0.26
-0.24
-0.265
-0.305
-0.335
-0.3
-0.34
-0.345
-0.38
-0.18
-0.115
-0.285
-0.465
-0.275
-0.295
-0.335
-0.32
-0.24
-0.16
-0.045
-0.13
-0.2
-0.335
-0.395
-0.37
-0.285
-0.295
-0.365
-0.25
-0.015
-0.015
-0.07
-0.09
-0.17
-0.305
-0.155
-0.2
-0.125
-0.205
0.035
0.08
-0.015
-0.105
-0.105
-0.185
-0.245
-0.18
-0.15
-0.085
0.055
-0.05
0.02
-0.03
-0.155
-0.285
-0.215
-0.25
-0.015
-0.025
0.055
0.045
0.03
-0.09
-0.18
-0.24
-0.14
-0.14
-0.105
-0.115
-0.06
0.015
-0.035
-0.195
-0.12
-0.27
-0.295
-0.29
-0.275
-0.2
-0.09
-0.05
-0.14
-0.205
-0.26
-0.39
-0.425
-0.255
-0.23
-0.305
-0.19
-0.07
-0.165
-0.31
-0.37
-0.4
-0.325
-0.29
-0.36
-0.345
-0.235
0.06
-0.05
-0.22
-0.36
-0.435
-0.38
-0.26
-0.21
-0.125
-0.095
-0.13
-0.425
-0.43
-0.28
-0.39
-0.345
-0.27
-0.15
-0.185
-0.15
-0.26
-0.26
-0.35
-0.39
-0.455
-0.39
-0.355
-0.25
-0.22
-0.27
-0.285
-0.13
-0.235
-0.36
-0.345
-0.32
-0.18
-0.15
-0.185
-0.22
-0.265
-0.415
-0.33
-0.265
-0.38
-0.35
-0.315
-0.22
-0.035
-0.015
-0.135
-0.27
-0.31
-0.375
-0.355
-0.395
-0.325
-0.16
-0.14
-0.185
-0.265
-0.37
-0.2
-0.345
-0.365
-0.315
-0.21
-0.24
-0.135
-0.18
-0.355
-0.54
-0.21
-0.295
-0.255
-0.305
-0.295
-0.215
-0.145
-0.08
-0.17
-0.265
-0.305
-0.365
-0.385
-0.295
-0.215
-0.09
0.055
0.015
-0.145
-0.18
-0.25
-0.355
-0.34
-0.385
-0.35
-0.285
-0.15
-0.105
-0.14
-0.175
-0.295
-0.355
-0.28
-0.25
-0.235
-0.255
-0.175
-0.245
-0.24
-0.345
-0.305
-0.375
-0.31
-0.215
-0.18
-0.135
-0.015
-0.07
-0.13
-0.25
-0.3
-0.265
-0.345
-0.35
-0.335
-0.185
-0.045
-0.01
-0.1
-0.26
-0.31
-0.38
-0.37
-0.405
-0.26
-0.07
0.045
-0.05
-0.195
-0.22
-0.25
-0.27
-0.35
-0.35
-0.265
-0.21
-0.115
-0.065
-0.18
-0.22
-0.31
-0.3
-0.32
-0.26
-0.175
-0.18
-0.165
-0.185
-0.26
-0.325
-0.45
-0.295
-0.18
-0.15
-0.13
-0.135
-0.12
-0.07
-0.17
-0.245
-0.4
-0.34
-0.295
-0.175
-0.13
-0.11
-0.08
-0.12
-0.24
-0.325
-0.415
-0.27
-0.25
-0.19
-0.15
-0.085
-0.185
-0.17
-0.22
-0.2
-0.35
-0.25
-0.28
-0.16
-0.235
-0.06
-0.06
-0.105
-0.245
-0.25
-0.38
-0.275
-0.31
-0.265
-0.21
-0.085
0.03
-0.14
-0.22
-0.285
-0.28
-0.26
-0.22
-0.145
-0.175
-0.115
-0.165
-0.25
-0.33
-0.1
-0.24
-0.28
-0.255
-0.18
-0.115
-0.035
-0.09
-0.04
-0.18
-0.315
-0.355
-0.385
-0.25
-0.13
-0.16
-0.025
-0.05
-0.125
-0.165
-0.14
-0.27
-0.225
-0.25
-0.225
-0.165
0.055
0.0
-0.185
-0.235
-0.17
-0.2
-0.225
-0.14
-0.12
-0.175
-0.145
-0.195
-0.08
-0.145
-0.245
-0.335
-0.185
-0.23
-0.18
-0.11
-0.03
-0.06
-0.07
-0.25
-0.275
-0.36
-0.34
-0.19
-0.15
-0.175
-0.145
-0.115
-0.145
-0.145
-0.285
-0.3
-0.225
-0.175
-0.15
-0.14
-0.19
-0.21
-0.29
-0.2
-0.375
-0.325
-0.225
-0.14
-0.155
-0.155
-0.135
-0.215
-0.17
-0.285
-0.3
-0.22
-0.205
-0.155
-0.035
0.085
0.08
0.07
0.115
0.22
0.23
0.28
0.375
0.325
0.295
0.285
0.25
0.145
0.1
0.0
0.085
-0.035
0.035
0.09
0.04
0.09
0.065
-0.11
-0.15
-0.235
-0.36
-0.28
-0.105
-0.26
-0.145
-0.085
-0.11
-0.03
-0.08
-0.195
-0.32
-0.295
-0.37
-0.4
-0.32
-0.13
-0.08
-0.11
-0.13
-0.165
-0.24
-0.185
-0.255
-0.22
-0.1
0.01
-0.055
-0.09
-0.085
-0.055
-0.19
-0.26
-0.265
-0.26
-0.19
-0.11
-0.135
-0.17
-0.235
-0.35
-0.37
-0.39
-0.28
-0.145
-0.155
0.005
0.08
-0.055
-0.195
-0.205
-0.225
-0.285
-0.22
-0.24
-0.195
0.0
-0.005
-0.2
-0.195
-0.17
-0.29
-0.23
-0.235
-0.065
-0.06
-0.055
-0.13
-0.11
-0.025
-0.21
-0.33
-0.215
-0.11
-0.02
-0.025
0.07
0.055
-0.05
-0.16
-0.155
-0.11
-0.225
-0.16
-0.06
-0.045
0.035
0.04
0.0
-0.21
-0.29
-0.28
-0.205
-0.05
-0.14
-0.145
-0.1
-0.005
-0.055
0.075
0.06
0.0
-0.01
0.045
0.075
0.125
0.08
0.05
0.04
-0.055
-0.165
-0.215
-0.205
-0.005
0.015
0.16
0.195
0.205
0.115
0.03
0.015
0.015
0.01
0.045
0.07
0.225
0.12
0.135
0.04
0.02
-0.06
-0.07
-0.09
0.07
0.02
0.025
0.025
-0.125
-0.15
-0.22
-0.28
-0.16
-0.215
-0.15
-0.1
-0.13
0.03
-0.09
-0.21
-0.235
-0.125
-0.15
-0.185
-0.13
-0.145
-0.17
-0.025
0.01
-0.025
-0.115
-0.235
-0.215
-0.235
-0.26
-0.26
-0.18
-0.07
-0.045
-0.145
-0.165
-0.29
-0.285
-0.49
-0.345
-0.245
-0.095
-0.075
-0.125
-0.165
-0.195
-0.32
-0.325
-0.195
-0.07
-0.1
-0.01
-0.12
-0.17
-0.245
-0.235
-0.34
-0.31
-0.295
-0.195
-0.135
-0.15
-0.18
-0.165
-0.245
-0.215
-0.29
-0.19
-0.18
-0.14
-0.165
-0.11
-0.12
-0.25
-0.31
-0.305
-0.47
-0.245
-0.155
-0.125
-0.145
-0.06
-0.155
-0.205
-0.315
-0.33
-0.33
-0.41
-0.175
-0.14
-0.085
-0.09
-0.085
-0.115
-0.145
-0.215
-0.33
-0.295
-0.19
-0.205
-0.095
-0.055
-0.05
-0.155
-0.41
-0.365
-0.195
-0.175
-0.195
-0.11
-0.095
-0.05
-0.075
-0.12
-0.295
-0.315
-0.255
-0.36
-0.295
-0.2
-0.05
-0.06
-0.035
-0.15
-0.285
-0.305
-0.325
-0.365
-0.335
-0.315
-0.185
-0.04
-0.025
-0.02
-0.105
-0.28
-0.315
-0.365
-0.36
-0.175
-0.115
-0.05
-0.035
-0.175
-0.23
-0.3
-0.245
-0.23
-0.25
-0.09
-0.005
-0.09
-0.205
-0.205
-0.335
-0.39
-0.37
-0.21
-0.12
-0.21
-0.305
-0.17
-0.165
-0.365
-0.34
-0.285
-0.345
-0.22
-0.205
-0.24
-0.06
0.02
-0.15
-0.26
-0.32
-0.34
-0.3
-0.285
-0.235
-0.145
-0.08
-0.095
-0.195
-0.32
-0.295
-0.285
-0.29
-0.255
-0.195
-0.18
-0.135
-0.15
-0.22
-0.28
-0.21
-0.36
-0.335
-0.2
-0.165
-0.105
-0.05
-0.07
-0.005
-0.155
-0.275
-0.48
-0.425
-0.31
-0.145
-0.17
-0.14
-0.1
-0.1
-0.355
-0.49
-0.51
-0.375
-0.195
-0.09
-0.08
-0.06
-0.11
-0.13
-0.225
-0.26
-0.285
-0.31
-0.28
-0.185
-0.13
0.05
-0.05
-0.14
-0.21
-0.265
-0.335
-0.34
-0.335
-0.205
-0.2
-0.05
-0.185
-0.105
-0.15
-0.325
-0.23
-0.18
-0.2
-0.025
0.015
-0.01
-0.245
-0.27
-0.28
-0.215
-0.305
-0.265
-0.185
-0.105
-0.035
0.02
-0.025
-0.165
-0.255
-0.31
-0.305
-0.32
-0.295
-0.25
-0.15
-0.215
-0.26
-0.22
-0.29
-0.425
-0.375
-0.36
-0.185
-0.235
-0.25
0.075
-0.14
-0.28
-0.19
-0.265
-0.33
-0.38
-0.21
-0.17
-0.115
-0.105
-0.105
-0.23
-0.385
-0.445
-0.315
-0.16
-0.24
-0.225
-0.125
-0.1
-0.165
-0.225
-0.18
-0.405
-0.265
-0.265
-0.12
-0.01
0.09
0.125
0.115
0.155
0.35
0.355
0.36
0.32
0.265
0.165
0.185
0.115
0.12
0.035
-0.065
-0.14
-0.06
-0.17
-0.12
-0.23
-0.16
-0.155
-0.15
-0.235
-0.22
-0.28
-0.285
-0.295
-0.315
-0.115
-0.06
-0.14
-0.23
-0.185
-0.215
-0.325
-0.44
-0.34
-0.23
-0.09
-0.06
-0.155
-0.12
-0.21
-0.295
-0.425
-0.38
-0.375
-0.32
-0.21
-0.215
-0.085
-0.095
-0.195
-0.28
-0.21
-0.215
-0.17
-0.2
-0.165
-0.08
-0.165
-0.185
-0.295
-0.355
-0.305
-0.2
-0.19
-0.165
-0.175
0.035
-0.065
-0.145
-0.2
-0.285
-0.265
-0.255
-0.2
-0.085
-0.075
-0.075
-0.065
-0.19
-0.23
-0.34
-0.355
-0.35
-0.275
-0.315
-0.06
-0.04
-0.19
-0.22
-0.095
-0.055
-0.135
-0.135
-0.185
-0.185
-0.115
-0.085
-0.1
-0.26
-0.205
-0.27
-0.175
-0.22
-0.21
-0.1
0.115
0.075
0.015
-0.125
-0.24
-0.315
-0.135
-0.015
-0.05
-0.02
0.135
0.135
0.045
0.09
0.075
-0.12
-0.1
-0.09
-0.05
0.015
0.125
0.105
0.08
0.005
-0.045
-0.17
-0.02
-0.015
0.02
0.0
0.08
0.035
0.075
-0.055
-0.16
-0.275
-0.255
-0.125
-0.005
0.035
0.105
0.105
0.04
0.055
0.105
-0.07
-0.12
-0.085
-0.04
-0.08
-0.08
-0.14
-0.055
-0.065
-0.14
-0.235
-0.265
-0.245
-0.015
0.035
0.055
-0.035
-0.095
-0.17
-0.205
-0.23
-0.255
-0.275
-0.155
-0.21
-0.125
-0.125
-0.185
-0.295
-0.32
-0.33
-0.31
-0.255
-0.195
-0.165
-0.045
-0.14
-0.185
-0.265
-0.215
-0.335
-0.35
-0.235
-0.195
-0.175
-0.1
-0.055
-0.255
-0.355
-0.41
-0.44
-0.405
-0.335
-0.34
-0.245
-0.05
-0.085
-0.155
-0.245
-0.245
-0.355
-0.31
-0.265
-0.305
-0.325
-0.07
-0.05
-0.03
-0.19
-0.235
-0.23
-0.265
-0.205
-0.205
-0.195
-0.055
-0.09
-0.235
-0.235
-0.36
-0.23
-0.4
-0.325
-0.26
-0.24
-0.255
-0.08
-0.26
-0.38
-0.395
-0.325
-0.235
-0.085
-0.105
-0.115
-0.165
-0.295
-0.44
-0.42
-0.335
-0.135
-0.115
-0.095
-0.035
0.045
0.085
0.01
-0.04
-0.185
-0.295
-0.29
-0.195
-0.2
-0.18
-0.05
-0.1
-0.21
-0.335
-0.175
-0.21
-0.195
-0.21
-0.25
-0.12
-0.025
-0.035
-0.045
-0.17
-0.175
-0.28
-0.185
-0.185
-0.135
-0.095
-0.085
-0.085
-0.1
-0.075
-0.08
-0.155
-0.215
-0.245
-0.215
-0.015
0.215
0.04
-0.255
-0.31
-0.225
-0.255
-0.15
-0.11
-0.095
-0.045
-0.015
0.025
-0.035
-0.15
-0.2
-0.325
-0.26
-0.225
-0.125
-0.11
-0.005
-0.07
0.05
-0.095
-0.115
-0.2
-0.16
-0.135
-0.055
0.0
-0.025
-0.02
-0.09
-0.185
-0.15
-0.15
-0.065
-0.085
-0.105
-0.115
0.01
0.03
-0.115
-0.205
-0.335
-0.25
-0.205
-0.095
-0.04
0.0
-0.01
0.0
-0.055
-0.145
-0.315
-0.29
-0.305
-0.255
-0.16
-0.06
-0.06
-0.105
-0.105
-0.265
-0.34
-0.18
-0.33
-0.4
-0.345
-0.24
-0.13
0.04
-0.025
-0.095
-0.105
-0.175
-0.185
-0.09
0.0
0.05
-0.05
-0.1
-0.105
-0.19
-0.305
-0.235
-0.17
-0.07
0.01
0.27
0.285
0.38
0.38
0.41
0.37
0.36
0.3
0.3
0.305
0.34
0.27
0.105
0.085
0.13
-0.01
-0.075
-0.1
-0.095
-0.09
-0.145
-0.145
-0.155
-0.255
-0.18
-0.23
-0.185
-0.165
-0.12
-0.065
0.0
-0.04
-0.07
-0.15
-0.14
-0.39
-0.365
-0.37
-0.15
-0.105
0.04
-0.1
-0.105
-0.195
-0.125
-0.215
-0.24
-0.155
-0.095
-0.085
0.005
-0.05
-0.01
-0.05
-0.275
-0.345
-0.365
-0.385
-0.17
-0.055
0.01
0.04
0.03
-0.08
-0.225
-0.275
-0.215
-0.19
-0.095
-0.12
-0.07
-0.025
-0.08
-0.185
-0.22
-0.28
-0.255
-0.185
-0.135
-0.17
-0.075
-0.06
-0.135
0.01
-0.075
-0.215
-0.235
-0.18
-0.125
-0.015
0.12
0.06
-0.185
-0.06
-0.165
-0.285
-0.23
-0.195
0.02
0.055
0.03
0.005
-0.11
-0.235
-0.165
-0.085
-0.05
-0.055
0.02
0.025
0.105
0.03
0.015
-0.03
-0.11
-0.15
-0.11
0.02
0.12
0.1
0.12
0.055
0.0
-0.01
-0.025
-0.03
-0.15
-0.105
0.055
0.1
0.275
0.105
0.035
0.045
-0.03
-0.04
-0.07
0.075
0.16
0.145
0.255
0.23
0.235
0.11
-0.005
0.03
0.015
0.115
0.18
0.25
0.175
-0.04
-0.035
-0.1
-0.175
-0.145
-0.08
0.05
-0.11
0.095
0.075
0.04
-0.025
-0.1
-0.145
-0.195
-0.28
-0.22
-0.055
0.035
-0.02
-0.14
-0.09
-0.195
-0.355
-0.325
-0.26
-0.215
-0.06
0.005
0.02
-0.115
-0.115
-0.15
-0.315
-0.285
-0.195
-0.115
-0.04
0.005
-0.02
-0.1
-0.125
-0.3
-0.47
-0.355
-0.23
-0.14
-0.155
-0.05
-0.08
-0.115
-0.235
-0.355
-0.27
-0.205
-0.185
-0.11
-0.155
-0.07
-0.095
-0.165
-0.22
-0.225
-0.23
-0.325
-0.225
-0.2
-0.265
-0.15
-0.105
-0.11
-0.255
-0.3
-0.465
-0.32
-0.23
-0.1
0.04
0.14
0.0
0.0
-0.14
-0.16
-0.275
-0.2
-0.115
-0.07
-0.005
0.115
0.195
0.2
0.06
0.025
-0.05
-0.03
0.035
0.035
0.125
0.215
0.165
0.02
-0.08
-0.18
-0.11
-0.04
-0.045
-0.045
0.15
0.29
0.195
0.08
-0.085
-0.075
-0.085
-0.045
-0.025
0.015
0.06
0.025
-0.06
-0.065
-0.09
-0.115
-0.075
0.0
-0.005
0.04
0.075
0.115
0.08
-0.01
-0.005
-0.08
-0.08
-0.08
0.095
0.16
0.135
0.135
0.145
0.11
0.045
-0.04
-0.14
-0.12
0.0
-0.03
0.095
0.08
0.01
0.03
0.07
-0.05
-0.085
-0.175
-0.04
0.005
0.08
0.105
0.05
-0.09
-0.155
-0.395
-0.345
-0.24
-0.085
-0.075
-0.01
-0.05
0.03
-0.005
-0.01
-0.185
-0.29
-0.185
-0.095
-0.035
0.04
0.095
0.04
-0.105
-0.065
-0.15
-0.21
-0.205
-0.09
-0.03
0.035
0.12
-0.01
-0.03
-0.115
-0.2
-0.235
-0.24
-0.155
-0.13
0.01
-0.005
0.015
0.0
0.015
-0.045
0.015
0.245
0.325
0.48
0.605
0.625
0.57
0.56
0.435
0.38
0.34
0.2
0.295
0.23
0.38
0.35
0.17
-0.015
-0.18
-0.315
-0.27
-0.285
-0.025
0.115
0.28
0.22
0.07
0.02
-0.11
-0.125
-0.035
0.12
0.085
0.105
0.145
0.15
0.145
-0.01
-0.035
-0.035
0.06
0.085
0.02
0.175
0.08
0.16
0.105
0.08
0.085
0.095
0.14
0.16
0.155
0.215
0.185
0.36
0.205
0.05
0.145
0.04
0.08
0.17
0.265
0.29
0.315
0.225
0.105
-0.115
-0.195
-0.09
0.03
0.09
0.155
0.2
0.18
0.16
0.17
0.155
0.05
0.0
0.02
-0.04
-0.09
-0.105
0.095
0.21
0.13
0.015
-0.105
-0.135
-0.035
0.075
0.035
0.105
0.115
0.065
-0.04
0.01
-0.09
-0.11
-0.075
-0.095
0.03
0.125
0.155
0.145
0.1
0.005
0.04
-0.075
-0.09
-0.11
0.11
0.115
0.0
0.04
0.175
-0.01
0.03
0.08
0.105
0.155
0.145
0.215
0.215
0.17
0.045
0.04
-0.02
0.055
0.105
0.165
0.18
0.215
0.24
0.175
0.135
0.1
-0.14
-0.085
-0.025
0.095
0.25
0.33
0.185
0.175
0.215
0.09
-0.045
-0.015
0.0
0.095
0.12
0.075
0.095
-0.045
-0.165
-0.2
-0.115
-0.06
0.04
0.05
-0.01
0.01
0.01
0.015
-0.025
-0.11
-0.255
-0.23
-0.21
-0.105
-0.125
-0.015
-0.065
-0.24
-0.3
-0.215
-0.235
-0.26
-0.25
-0.27
-0.13
-0.1
-0.12
-0.165
-0.2
-0.215
-0.215
-0.2
-0.23
-0.235
-0.18
-0.105
-0.13
-0.285
-0.43
-0.315
-0.355
-0.32
-0.225
-0.185
-0.13
-0.12
-0.12
-0.285
-0.345
-0.355
-0.31
-0.3
-0.29
-0.165
-0.235
-0.15
-0.09
-0.135
-0.19
-0.355
-0.285
-0.225
-0.235
-0.31
-0.3
-0.215
-0.235
-0.365
-0.365
-0.445
-0.385
-0.455
-0.255
-0.14
-0.055
-0.07
-0.115
-0.245
-0.24
-0.38
-0.325
-0.29
-0.215
-0.215
-0.03
-0.055
-0.15
-0.215
-0.22
-0.345
-0.425
-0.3
-0.245
-0.255
-0.065
-0.15
-0.145
-0.205
-0.235
-0.33
-0.25
-0.21
-0.3
-0.24
-0.14
-0.13
-0.07
-0.165
-0.19
-0.295
-0.24
-0.27
-0.145
-0.045
-0.02
-0.01
-0.1
-0.13
-0.255
-0.37
-0.385
-0.34
-0.215
-0.15
-0.06
-0.19
-0.205
-0.265
-0.355
-0.4
-0.46
-0.33
-0.24
-0.24
-0.215
-0.215
-0.265
-0.205
-0.175
-0.34
-0.375
-0.26
-0.18
-0.205
-0.11
-0.185
-0.215
-0.35
-0.47
-0.635
-0.645
-0.315
-0.315
-0.2
-0.02
-0.13
-0.205
-0.325
-0.305
-0.385
-0.23
-0.185
-0.275
-0.225
-0.12
-0.14
-0.215
-0.31
-0.38
-0.41
-0.4
-0.315
-0.28
-0.175
-0.22
-0.125
-0.055
-0.045
0.045
0.06
0.335
0.32
0.475
0.59
0.515
0.42
0.18
0.035
-0.125
-0.22
-0.215
-0.11
0.03
0.04
-0.115
-0.19
-0.315
-0.44
-0.445
-0.555
-0.39
-0.32
-0.22
-0.01
-0.165
-0.355
-0.485
-0.375
-0.22
-0.41
-0.345
-0.19
-0.16
-0.105
-0.055
-0.175
-0.32
-0.37
-0.455
-0.315
-0.23
-0.22
-0.205
-0.115
-0.14
-0.25
-0.33
-0.385
-0.455
-0.445
-0.335
-0.285
-0.29
-0.2
-0.305
-0.225
-0.275
-0.295
-0.325
-0.31
-0.345
-0.265
-0.22
-0.175
-0.13
-0.19
-0.315
-0.415
-0.35
-0.425
-0.39
-0.31
-0.04
0.005
-0.085
-0.115
-0.215
-0.425
-0.34
-0.375
-0.44
-0.09
-0.175
-0.09
-0.125
-0.215
-0.285
-0.4
-0.465
-0.21
-0.135
-0.065
-0.1
-0.005
-0.085
-0.135
-0.26
-0.28
-0.295
-0.25
-0.26
-0.23
-0.21
-0.21
-0.115
-0.135
-0.035
-0.08
-0.225
-0.2
-0.24
-0.195
-0.115
0.055
0.0
-0.12
-0.12
-0.245
-0.33
-0.285
-0.26
-0.08
0.01
-0.01
-0.12
-0.175
-0.27
-0.075
-0.125
-0.045
-0.1
0.075
0.055
0.015
0.13
0.07
-0.055
-0.11
-0.16
-0.165
-0.155
-0.14
-0.1
-0.08
-0.09
-0.09
0.01
-0.195
-0.205
-0.245
-0.155
-0.02
-0.02
-0.05
-0.15
-0.27
-0.255
-0.28
-0.24
-0.37
-0.405
-0.23
-0.185
-0.08
-0.18
-0.195
-0.285
-0.355
-0.375
-0.37
-0.285
-0.23
-0.185
-0.185
-0.25
-0.26
-0.345
-0.43
-0.43
-0.315
-0.28
-0.255
-0.165
-0.19
-0.195
-0.28
-0.28
-0.445
-0.465
-0.415
-0.27
-0.28
-0.175
-0.185
-0.215
-0.26
-0.375
-0.425
-0.56
-0.455
-0.355
-0.315
-0.24
-0.21
-0.185
-0.34
-0.435
-0.365
-0.54
-0.4
-0.08
-0.16
-0.14
-0.115
-0.155
-0.285
-0.35
-0.43
-0.485
-0.36
-0.215
-0.18
-0.075
-0.11
-0.225
-0.285
-0.29
-0.315
-0.39
-0.5
-0.385
-0.315
-0.165
-0.15
-0.2
-0.255
-0.29
-0.36
-0.395
-0.335
-0.255
-0.225
-0.155
-0.22
-0.24
-0.5
-0.32
-0.265
-0.315
-0.195
-0.155
-0.075
-0.08
-0.16
-0.255
-0.245
-0.245
-0.295
-0.375
-0.32
-0.09
-0.01
-0.11
-0.08
-0.17
-0.25
-0.365
-0.275
-0.39
-0.4
-0.355
-0.235
-0.265
-0.225
-0.32
-0.395
-0.4
-0.39
-0.415
-0.34
-0.31
-0.225
-0.3
-0.295
-0.305
-0.28
-0.425
-0.34
-0.29
-0.245
-0.255
-0.195
-0.255
-0.385
-0.13
-0.24
-0.445
-0.4
-0.395
-0.28
-0.215
-0.145
-0.285
-0.265
-0.355
-0.37
-0.46
-0.495
-0.475
-0.39
-0.325
-0.32
-0.255
-0.26
-0.255
-0.465
-0.495
-0.36
-0.33
-0.305
-0.295
-0.25
-0.095
-0.04
-0.175
-0.135
-0.115
0.125
0.21
0.29
0.325
0.365
0.32
0.12
0.035
-0.075
-0.14
-0.18
-0.145
-0.065
-0.005
-0.05
-0.145
-0.295
-0.39
-0.51
-0.4
-0.375
-0.435
-0.5
-0.325
-0.16
-0.14
-0.225
-0.34
-0.42
-0.48
-0.465
-0.365
-0.415
-0.325
-0.26
-0.215
-0.365
-0.415
-0.19
-0.365
-0.37
-0.24
-0.215
-0.16
-0.13
-0.255
-0.31
-0.355
-0.39
-0.405
-0.415
-0.39
-0.325
-0.275
-0.265
-0.245
-0.425
-0.41
-0.325
-0.405
-0.38
-0.415
-0.21
-0.23
-0.245
-0.21
-0.215
-0.32
-0.475
-0.415
-0.44
-0.355
-0.23
-0.165
-0.175
-0.225
-0.27
-0.32
-0.365
-0.4
-0.435
-0.34
-0.255
-0.26
-0.25
-0.19
-0.255
-0.38
-0.405
-0.42
-0.215
-0.235
-0.22
-0.095
-0.115
-0.16
-0.28
-0.475
-0.35
-0.225
-0.31
-0.2
-0.155
-0.07
-0.115
-0.225
-0.275
-0.275
-0.285
-0.32
-0.3
-0.205
-0.12
0.075
-0.03
-0.06
-0.085
-0.155
-0.325
-0.32
-0.335
-0.22
-0.25
0.025
0.115
0.01
-0.08
-0.125
-0.29
-0.185
-0.16
-0.075
0.01
0.025
0.005
-0.06
-0.145
-0.1
-0.265
-0.135
-0.175
-0.14
-0.06
0.01
0.0
-0.135
-0.23
-0.185
-0.235
-0.145
-0.23
-0.215
-0.11
-0.01
-0.045
-0.155
-0.2
-0.255
-0.29
-0.25
-0.235
-0.27
-0.185
-0.115
-0.175
-0.265
-0.39
-0.415
-0.435
-0.345
-0.37
-0.38
-0.35
-0.235
-0.255
-0.35
-0.225
-0.24
-0.29
-0.475
-0.53
-0.305
-0.295
-0.065
-0.09
-0.175
-0.33
-0.39
-0.44
-0.575
-0.56
-0.33
-0.13
-0.085
-0.13
-0.26
-0.33
-0.395
-0.385
-0.39
-0.4
-0.385
-0.2
-0.165
-0.225
-0.265
-0.37
-0.485
-0.54
-0.44
-0.345
-0.375
-0.22
-0.25
-0.235
-0.245
-0.445
-0.455
-0.455
-0.545
-0.34
-0.195
-0.13
-0.095
-0.235
-0.235
-0.27
-0.4
-0.28
-0.27
-0.255
-0.215
-0.145
-0.225
-0.1
-0.095
-0.365
-0.41
-0.375
-0.345
-0.27
-0.21
-0.135
-0.13
-0.18
-0.315
-0.43
-0.31
-0.32
-0.265
-0.275
-0.28
-0.285
-0.15
-0.11
-0.18
-0.385
-0.295
-0.275
-0.295
-0.25
-0.215
-0.21
-0.255
-0.325
-0.355
-0.425
-0.4
-0.335
-0.32
-0.205
-0.355
-0.265
-0.25
-0.215
-0.24
-0.335
-0.43
-0.365
-0.275
-0.305
-0.395
-0.31
-0.205
-0.285
-0.185
-0.335
-0.46
-0.415
-0.345
-0.285
-0.265
-0.15
-0.195
-0.315
-0.505
-0.585
-0.535
-0.275
-0.275
-0.325
-0.295
-0.225
-0.255
-0.335
-0.43
-0.36
-0.42
-0.38
-0.3
-0.18
-0.185
-0.21
-0.19
-0.25
-0.315
-0.24
-0.215
-0.13
-0.06
0.005
0.095
0.305
0.22
0.325
0.21
0.06
-0.105
-0.15
-0.01
0.015
-0.07
-0.065
-0.11
-0.185
-0.2
-0.305
-0.535
-0.425
-0.295
-0.305
-0.195
-0.145
-0.165
-0.205
-0.27
-0.335
-0.37
-0.4
-0.52
-0.365
-0.13
-0.17
-0.235
-0.35
-0.43
-0.445
-0.535
-0.585
-0.23
-0.28
-0.19
-0.125
-0.165
-0.26
-0.41
-0.625
-0.39
-0.35
-0.155
-0.235
-0.24
-0.195
-0.1
-0.22
-0.225
-0.315
-0.44
-0.48
-0.315
-0.22
-0.2
-0.205
-0.09
-0.1
-0.215
-0.35
-0.35
-0.38
-0.355
-0.405
-0.215
-0.11
-0.13
-0.2
-0.32
-0.415
-0.39
-0.37
-0.31
-0.335
-0.28
-0.22
-0.205
-0.17
-0.255
-0.41
-0.41
-0.375
-0.245
-0.25
-0.08
-0.12
-0.085
-0.26
-0.155
-0.26
-0.24
-0.285
-0.215
-0.19
-0.125
-0.18
-0.15
-0.185
-0.27
-0.24
-0.235
-0.19
-0.05
-0.08
-0.055
-0.12
-0.065
-0.01
-0.06
-0.24
-0.255
-0.235
-0.19
-0.15
-0.1
-0.055
-0.18
-0.155
-0.04
-0.17
-0.225
-0.16
-0.13
-0.15
0.04
0.015
-0.08
-0.165
-0.165
-0.145
-0.24
-0.14
0.06
-0.02
0.055
-0.075
-0.19
-0.18
-0.155
-0.15
-0.305
-0.34
-0.24
-0.075
0.06
0.025
-0.1
-0.215
-0.26
-0.385
-0.405
-0.255
-0.175
-0.16
-0.12
-0.105
-0.135
-0.255
-0.345
-0.335
-0.33
-0.365
-0.22
-0.205
-0.295
-0.215
-0.17
-0.355
-0.405
-0.435
-0.37
-0.295
-0.275
-0.17
-0.215
-0.305
-0.315
-0.3
-0.43
-0.455
-0.455
-0.395
-0.285
-0.18
-0.155
-0.16
-0.285
-0.37
-0.43
-0.425
-0.455
-0.275
-0.235
-0.19
-0.405
-0.36
-0.24
-0.32
-0.415
-0.435
-0.465
-0.335
-0.22
-0.155
-0.245
-0.16
-0.36
-0.395
-0.495
-0.39
-0.35
-0.325
-0.35
-0.23
-0.18
-0.115
-0.26
-0.38
-0.385
-0.395
-0.345
-0.26
-0.24
-0.18
-0.22
-0.155
-0.225
-0.36
-0.325
-0.295
-0.27
-0.185
-0.215
-0.21
-0.22
-0.125
-0.185
-0.205
-0.26
-0.275
-0.24
-0.245
-0.225
-0.14
-0.05
-0.12
-0.26
-0.24
-0.385
-0.385
-0.39
-0.32
-0.235
-0.205
-0.22
-0.225
-0.255
-0.33
-0.5
-0.415
-0.355
-0.305
-0.29
0.0
-0.12
-0.305
-0.31
-0.35
-0.41
-0.435
-0.375
-0.36
-0.295
-0.175
-0.25
-0.185
-0.245
-0.365
-0.445
-0.445
-0.265
-0.25
-0.185
-0.14
-0.265
-0.3
-0.305
-0.34
-0.425
-0.47
-0.43
-0.26
-0.195
-0.15
-0.22
-0.315
-0.335
-0.42
-0.44
-0.435
-0.335
-0.29
-0.26
-0.265
-0.22
-0.22
-0.36
-0.365
-0.48
-0.36
-0.365
-0.255
-0.1
-0.005
-0.02
0.065
0.115
0.23
0.185
0.22
0.215
0.195
0.15
0.095
0.01
-0.075
-0.03
-0.21
-0.285
-0.32
-0.33
-0.265
-0.205
-0.21
-0.23
-0.265
-0.34
-0.51
-0.515
-0.69
-0.345
-0.29
-0.11
-0.16
-0.195
-0.34
-0.32
-0.35
-0.43
-0.375
-0.27
-0.25
-0.175
-0.18
-0.21
-0.33
-0.42
-0.41
-0.405
-0.32
-0.325
-0.305
-0.175
-0.23
-0.39
-0.19
-0.335
-0.335
-0.37
-0.26
-0.235
-0.23
-0.17
-0.215
-0.305
-0.36
-0.37
-0.41
-0.395
-0.285
-0.195
-0.14
-0.02
-0.1
-0.21
-0.335
-0.325
-0.36
-0.41
-0.275
-0.155
-0.31
-0.205
-0.1
-0.26
-0.495
-0.445
-0.25
-0.33
-0.21
-0.215
-0.19
-0.195
-0.205
-0.225
-0.315
-0.4
-0.37
-0.355
-0.255
-0.13
-0.09
0.005
-0.04
-0.16
-0.18
-0.235
-0.25
-0.3
-0.365
-0.065
0.05
0.1
0.06
-0.05
-0.12
-0.265
-0.255
-0.2
-0.12
-0.065
-0.12
-0.01
-0.135
-0.115
-0.32
-0.26
-0.32
-0.105
-0.15
-0.2
-0.045
0.015
-0.065
0.005
-0.1
-0.18
-0.2
-0.18
-0.02
0.0
0.08
0.13
0.04
0.02
-0.17
-0.245
-0.24
-0.125
0.02
-0.035
-0.055
-0.085
-0.185
-0.07
-0.19
-0.285
-0.275
-0.1
-0.16
-0.145
-0.075
-0.06
-0.175
-0.25
-0.37
-0.315
-0.29
-0.32
-0.29
-0.23
-0.11
-0.18
-0.255
-0.27
-0.28
-0.315
-0.35
-0.41
-0.3
-0.185
-0.2
-0.255
-0.285
-0.225
-0.195
-0.345
-0.415
-0.33
-0.32
-0.275
-0.17
-0.09
-0.27
-0.38
-0.285
-0.43
-0.43
-0.385
-0.265
-0.185
-0.06
-0.175
-0.285
-0.31
-0.345
-0.48
-0.465
-0.395
-0.3
-0.26
-0.175
-0.18
-0.215
-0.37
-0.475
-0.62
-0.515
-0.415
-0.365
-0.275
-0.085
-0.065
-0.125
-0.185
-0.22
-0.375
-0.33
-0.325
-0.305
-0.16
-0.065
-0.1
-0.09
-0.21
-0.355
-0.37
-0.365
-0.31
-0.26
-0.195
-0.095
-0.07
-0.205
-0.305
-0.315
-0.39
-0.24
-0.285
-0.28
-0.23
-0.045
-0.125
-0.235
-0.21
-0.19
-0.355
-0.295
-0.15
-0.1
-0.135
-0.12
-0.145
-0.23
-0.275
-0.32
-0.36
-0.375
-0.285
-0.205
-0.21
-0.24
-0.18
-0.22
-0.23
-0.325
-0.345
-0.35
-0.24
-0.245
-0.22
-0.21
-0.245
-0.42
-0.455
-0.32
-0.385
-0.4
-0.17
-0.195
-0.11
-0.16
-0.225
-0.285
-0.365
-0.41
-0.39
-0.33
-0.26
-0.335
-0.23
-0.135
-0.215
-0.3
-0.32
-0.385
-0.445
-0.41
-0.355
-0.305
-0.1
-0.19
-0.26
-0.38
-0.405
-0.395
-0.36
-0.49
-0.32
-0.145
-0.15
-0.105
-0.18
-0.215
-0.06
-0.14
0.025
0.085
0.19
0.205
0.395
0.355
0.225
0.125
-0.05
-0.15
-0.165
-0.235
-0.19
-0.11
-0.04
-0.12
-0.08
-0.15
-0.31
-0.54
-0.38
-0.34
-0.285
-0.245
-0.09
-0.15
-0.225
-0.265
-0.315
-0.505
-0.56
-0.315
-0.25
-0.31
-0.225
-0.245
-0.25
-0.28
-0.245
-0.365
-0.435
-0.435
-0.325
-0.35
-0.31
-0.25
-0.165
-0.215
-0.35
-0.325
-0.355
-0.265
-0.16
-0.27
-0.21
-0.195
-0.22
-0.235
-0.245
-0.385
-0.395
-0.375
-0.325
-0.18
-0.245
-0.275
-0.2
-0.26
-0.405
-0.425
-0.26
-0.205
-0.24
-0.18
-0.1
-0.105
-0.34
-0.41
-0.425
-0.33
-0.365
-0.34
-0.27
-0.315
-0.115
-0.17
-0.235
-0.2
-0.215
-0.4
-0.245
-0.18
-0.21
-0.2
-0.13
-0.3
-0.27
-0.3
-0.305
-0.34
-0.305
-0.255
-0.055
-0.03
0.07
-0.03
-0.15
-0.205
-0.305
-0.345
-0.315
-0.285
-0.27
-0.165
-0.05
-0.08
-0.11
-0.145
-0.155
-0.245
-0.285
-0.245
-0.24
-0.115
-0.025
0.0
-0.035
-0.03
-0.115
-0.125
-0.18
-0.12
-0.01
0.085
0.02
-0.025
-0.095
-0.13
-0.175
-0.105
-0.09
-0.085
-0.07
0.005
-0.145
-0.355
-0.105
-0.08
-0.27
-0.205
-0.245
-0.27
-0.255
-0.105
-0.12
-0.13
-0.11
-0.175
-0.34
-0.255
-0.23
-0.315
-0.35
-0.21
-0.12
-0.23
-0.26
-0.205
-0.445
-0.42
-0.355
-0.255
-0.225
-0.17
-0.24
-0.28
-0.355
-0.295
-0.425
-0.475
-0.335
-0.385
-0.33
-0.195
-0.165
-0.23
-0.24
-0.335
-0.395
-0.44
-0.395
-0.335
-0.41
-0.29
-0.28
-0.235
-0.325
-0.36
-0.405
-0.38
-0.28
-0.29
-0.235
-0.14
-0.225
-0.225
-0.35
-0.35
-0.365
-0.495
-0.375
-0.34
-0.28
-0.275
-0.195
-0.29
-0.375
-0.38
-0.345
-0.345
-0.325
-0.2
-0.185
-0.175
-0.255
-0.19
-0.305
-0.41
-0.61
-0.455
-0.335
-0.17
-0.2
-0.155
-0.21
-0.315
-0.32
-0.48
-0.46
-0.33
-0.31
-0.305
-0.205
-0.19
-0.185
-0.26
-0.315
-0.385
-0.29
-0.285
-0.165
-0.195
-0.135
-0.185
-0.13
-0.22
-0.33
-0.38
-0.31
-0.3
-0.18
-0.165
-0.115
-0.065
-0.21
-0.27
-0.205
-0.255
-0.26
-0.32
-0.33
-0.28
-0.17
-0.19
-0.205
-0.195
-0.2
-0.325
-0.405
-0.495
-0.4
-0.275
-0.195
-0.255
-0.305
-0.255
-0.19
-0.28
-0.325
-0.285
-0.295
-0.295
-0.27
-0.19
-0.285
-0.395
-0.44
-0.475
-0.495
-0.32
-0.215
-0.225
-0.05
-0.08
-0.18
-0.21
-0.2
-0.33
-0.365
-0.425
-0.38
-0.25
