# TIPE ECG 2021 - ECG-ID Database v1.0.0 par Physionet
# [Numéro de la personne, Période d'échantillonnage, Prénom, Age, Sexe, Date de l'enregistrement]
[07, 0.002, Richard, 21, H, 15.03.2005]
-0.055
-0.2
-0.24
-0.16
-0.215
-0.155
0.015
0.045
-0.03
-0.11
-0.1
-0.185
-0.335
-0.235
-0.175
-0.07
-0.14
-0.015
-0.03
-0.075
-0.115
-0.085
-0.13
-0.225
-0.21
-0.2
-0.075
-0.01
-0.1
-0.075
-0.06
-0.175
-0.205
-0.115
-0.045
-0.005
0.065
0.035
0.11
0.07
-0.065
-0.105
-0.285
-0.22
-0.21
-0.055
-0.08
0.0
-0.005
-0.03
-0.05
-0.11
-0.16
-0.205
-0.155
-0.095
-0.045
0.075
0.095
-0.01
-0.09
-0.21
-0.275
-0.22
-0.11
0.125
0.11
0.125
0.08
0.09
0.005
-0.175
-0.22
-0.09
-0.12
0.0
0.125
0.185
0.055
0.055
-0.005
-0.04
-0.025
-0.065
-0.055
0.025
0.11
0.065
0.005
0.035
0.015
0.015
0.035
0.015
0.105
0.115
0.065
0.2
0.115
0.225
0.175
0.14
0.035
0.075
0.195
0.195
0.125
0.205
0.145
0.055
0.07
0.075
0.075
0.095
0.09
0.175
0.25
0.3
0.175
0.01
-0.005
-0.23
-0.145
-0.045
0.115
0.11
0.115
0.105
0.125
0.02
0.04
-0.065
-0.165
-0.14
-0.165
-0.03
0.01
-0.06
-0.09
-0.14
-0.025
-0.165
-0.205
-0.21
-0.08
0.005
-0.06
-0.065
-0.095
-0.22
-0.23
-0.275
-0.25
-0.245
-0.16
-0.095
0.115
0.085
0.035
0.02
-0.07
-0.215
-0.185
-0.17
-0.15
-0.185
-0.115
-0.145
-0.095
-0.18
-0.16
-0.225
-0.275
-0.22
-0.155
-0.15
-0.05
-0.095
-0.07
-0.155
-0.16
-0.245
-0.22
-0.195
-0.17
-0.145
-0.08
-0.07
0.01
-0.15
-0.095
-0.12
-0.13
-0.07
-0.1
-0.16
-0.055
-0.04
-0.06
-0.145
-0.265
-0.365
-0.31
-0.295
-0.145
-0.13
0.065
0.11
0.035
-0.115
-0.135
-0.265
-0.265
-0.145
-0.075
-0.02
0.04
0.01
-0.01
-0.1
-0.27
-0.28
-0.205
-0.17
-0.175
-0.01
0.115
0.015
-0.07
-0.145
-0.205
-0.25
-0.185
-0.115
-0.115
-0.05
-0.12
-0.16
-0.2
-0.04
-0.125
-0.185
-0.15
-0.12
-0.07
0.0
-0.035
-0.09
-0.12
-0.16
-0.19
-0.155
-0.15
-0.05
0.0
0.03
0.075
-0.085
-0.18
-0.235
-0.26
-0.225
-0.195
-0.095
-0.05
-0.015
-0.085
0.005
-0.13
-0.105
-0.24
-0.265
-0.205
-0.14
-0.03
0.1
0.09
-0.05
-0.135
-0.205
-0.32
-0.3
-0.205
-0.12
-0.05
-0.045
-0.09
0.015
-0.105
-0.185
-0.21
-0.25
-0.145
-0.125
-0.08
-0.09
-0.21
-0.195
-0.115
-0.045
-0.185
-0.215
-0.295
-0.125
-0.08
0.07
-0.005
-0.05
-0.105
-0.115
-0.21
-0.185
-0.205
-0.11
-0.185
-0.065
-0.115
-0.075
0.085
-0.06
-0.185
-0.22
-0.18
-0.125
-0.13
-0.075
0.035
-0.085
-0.175
-0.21
-0.35
-0.355
-0.245
-0.105
-0.025
0.065
-0.02
-0.17
-0.17
-0.15
-0.26
-0.2
-0.09
-0.1
-0.035
-0.015
-0.1
-0.07
-0.185
0.015
-0.125
-0.165
-0.225
-0.115
-0.085
-0.095
-0.03
-0.055
-0.105
-0.185
-0.24
-0.235
-0.155
-0.045
-0.07
-0.095
-0.13
-0.12
-0.195
-0.175
-0.18
-0.165
-0.195
-0.26
-0.18
-0.025
-0.045
-0.055
-0.06
-0.195
-0.115
-0.16
-0.21
-0.07
-0.055
-0.01
0.045
-0.065
-0.125
-0.32
-0.345
-0.23
-0.185
-0.095
0.005
-0.105
-0.065
-0.06
-0.2
-0.305
-0.19
-0.11
-0.12
-0.14
-0.01
-0.03
-0.02
-0.095
-0.08
-0.165
-0.21
-0.265
-0.165
-0.005
0.07
-0.065
-0.07
-0.11
-0.165
-0.275
-0.325
-0.31
-0.275
-0.11
0.09
-0.11
-0.29
-0.205
-0.17
-0.185
-0.13
-0.085
-0.105
-0.03
0.075
-0.04
-0.185
-0.08
-0.005
-0.085
-0.165
-0.075
-0.015
-0.01
0.075
0.015
-0.125
-0.07
-0.125
-0.12
-0.185
-0.135
-0.075
-0.055
0.035
-0.07
-0.085
-0.205
-0.135
-0.18
-0.12
-0.135
-0.065
-0.06
-0.02
-0.04
-0.1
-0.13
-0.175
-0.235
-0.4
-0.25
-0.13
-0.135
0.01
0.065
-0.06
-0.075
-0.225
-0.29
-0.235
-0.165
-0.06
-0.08
-0.04
0.01
-0.005
-0.22
-0.22
-0.205
-0.295
-0.145
-0.075
-0.07
-0.04
0.025
-0.08
-0.195
-0.2
-0.24
-0.28
-0.15
-0.135
-0.06
0.0
-0.045
-0.06
-0.12
-0.155
-0.15
-0.055
0.005
0.2
0.39
0.4
0.415
0.405
0.3
0.145
0.155
0.17
0.29
0.27
0.25
0.34
0.21
0.135
0.105
-0.055
-0.145
-0.195
-0.28
-0.15
-0.025
0.02
0.1
-0.02
-0.12
-0.235
-0.235
-0.23
-0.145
-0.07
-0.005
-0.035
-0.1
-0.115
-0.125
-0.2
-0.225
-0.195
-0.18
-0.22
-0.3
0.0
-0.015
-0.01
-0.08
-0.17
-0.085
-0.1
-0.1
-0.12
-0.07
-0.075
-0.04
-0.135
-0.12
-0.2
-0.175
-0.17
-0.125
-0.08
-0.11
-0.01
0.05
-0.165
-0.08
-0.225
-0.265
-0.25
-0.14
-0.06
-0.025
0.03
0.005
-0.035
-0.13
-0.25
-0.21
-0.115
0.005
0.07
0.015
-0.13
-0.07
0.005
-0.175
-0.275
-0.295
-0.19
-0.015
-0.01
0.105
0.02
-0.02
-0.165
-0.115
-0.075
-0.06
-0.12
-0.005
0.035
0.11
0.145
0.065
0.01
-0.055
-0.2
-0.155
-0.055
-0.06
0.0
0.075
0.095
0.06
0.0
-0.045
-0.095
-0.14
-0.11
-0.015
0.02
-0.13
-0.015
0.295
0.15
0.075
-0.01
-0.13
-0.05
-0.03
0.14
0.26
0.23
0.275
0.17
0.06
0.07
0.03
0.095
0.22
0.235
0.19
0.185
0.19
0.145
-0.06
0.03
0.04
0.135
0.15
0.135
0.23
0.165
0.045
-0.125
-0.13
-0.095
-0.055
-0.01
0.035
0.05
0.025
0.05
-0.025
-0.145
-0.235
-0.055
-0.13
-0.145
0.02
0.1
0.03
0.015
-0.055
-0.09
-0.19
-0.245
-0.245
-0.185
-0.09
0.09
0.05
-0.035
-0.14
-0.12
-0.23
-0.255
-0.28
-0.215
-0.115
0.095
-0.01
-0.125
-0.22
-0.235
-0.28
-0.26
-0.18
-0.145
-0.065
0.015
0.0
-0.15
-0.19
-0.255
-0.32
-0.3
-0.3
-0.19
-0.08
0.05
-0.02
-0.105
-0.005
-0.095
-0.275
-0.205
-0.165
-0.12
-0.13
-0.07
0.06
-0.115
-0.225
-0.22
-0.235
-0.17
-0.1
-0.05
-0.04
0.08
0.05
-0.095
-0.19
-0.21
-0.225
-0.225
-0.17
-0.09
-0.085
-0.05
-0.165
-0.135
-0.21
-0.12
-0.23
-0.22
-0.165
-0.14
-0.035
-0.015
-0.05
-0.05
-0.145
-0.1
-0.14
-0.145
-0.165
-0.08
-0.07
0.07
0.065
-0.015
-0.12
-0.155
-0.17
-0.17
-0.15
-0.06
-0.15
-0.07
-0.01
-0.05
-0.11
-0.255
-0.295
-0.205
-0.14
-0.145
-0.015
0.075
0.025
0.05
-0.105
-0.235
-0.3
-0.285
-0.305
-0.22
-0.005
0.02
0.045
-0.115
-0.245
-0.195
-0.12
-0.19
-0.1
-0.065
-0.085
0.06
0.015
-0.145
-0.245
-0.19
-0.205
-0.19
-0.125
-0.065
0.015
0.005
-0.05
-0.135
-0.15
-0.305
-0.235
-0.1
-0.055
-0.095
0.075
0.07
-0.075
-0.105
-0.015
-0.135
-0.175
-0.285
-0.185
-0.125
-0.095
-0.09
0.01
-0.145
-0.275
-0.365
-0.315
-0.22
-0.125
-0.05
0.045
0.01
-0.06
-0.19
-0.14
-0.205
-0.22
-0.175
-0.165
-0.07
-0.02
-0.08
-0.075
-0.18
-0.22
-0.305
-0.28
-0.305
-0.29
0.02
0.03
0.025
0.015
-0.06
-0.11
-0.245
-0.275
-0.195
-0.045
0.055
0.055
-0.025
0.03
-0.025
-0.095
-0.21
-0.23
-0.105
-0.09
-0.03
-0.01
-0.015
-0.005
-0.045
-0.105
-0.235
-0.185
-0.135
-0.085
-0.095
-0.07
-0.105
-0.275
-0.175
-0.16
-0.22
-0.205
-0.08
-0.125
-0.165
-0.135
-0.155
-0.22
-0.255
-0.305
-0.415
-0.345
-0.45
-0.115
-0.05
-0.04
0.03
-0.115
-0.195
-0.165
-0.155
-0.125
-0.105
-0.05
0.015
0.035
-0.04
-0.14
-0.19
-0.23
-0.28
-0.245
-0.195
-0.175
-0.19
-0.11
-0.085
-0.175
-0.085
-0.27
-0.255
-0.15
-0.12
-0.165
-0.115
-0.09
-0.055
-0.165
-0.15
-0.12
-0.135
-0.07
0.125
0.315
0.455
0.48
0.42
0.42
0.29
0.16
0.1
-0.005
0.045
0.08
0.28
0.265
0.255
0.03
-0.035
-0.165
-0.23
-0.24
-0.225
-0.235
-0.1
0.02
-0.05
-0.195
-0.29
-0.24
-0.22
-0.305
-0.065
-0.06
0.035
0.0
-0.045
-0.16
-0.215
-0.31
-0.27
-0.125
-0.17
-0.17
-0.11
-0.12
-0.235
-0.19
-0.2
-0.295
-0.305
-0.265
-0.15
-0.06
-0.095
-0.155
-0.145
-0.23
-0.24
-0.155
-0.095
-0.155
-0.115
-0.14
-0.04
0.015
-0.06
-0.125
-0.145
-0.235
-0.175
-0.215
-0.165
-0.18
0.085
0.09
-0.015
-0.03
-0.095
-0.2
-0.185
-0.15
-0.115
-0.08
-0.07
-0.02
-0.04
-0.125
-0.135
-0.31
-0.28
-0.2
-0.065
-0.07
0.025
-0.07
-0.11
-0.095
-0.145
-0.2
-0.235
-0.18
-0.17
-0.12
-0.14
-0.015
-0.065
-0.06
-0.095
-0.19
-0.185
-0.05
0.005
0.07
0.045
0.125
0.105
-0.05
-0.02
-0.025
-0.095
-0.09
-0.025
0.235
0.275
0.14
0.09
0.01
-0.065
-0.035
-0.02
-0.05
0.07
0.18
0.205
0.185
0.065
0.03
-0.08
-0.1
0.0
0.04
0.09
0.215
0.21
0.215
0.16
-0.005
-0.125
-0.055
0.085
0.075
-0.01
-0.035
0.035
0.15
0.01
-0.025
-0.145
-0.13
-0.18
-0.11
-0.025
0.01
0.04
0.08
-0.075
-0.16
-0.3
-0.215
-0.165
-0.12
-0.1
-0.005
-0.055
-0.045
-0.175
-0.1
-0.18
-0.21
-0.31
-0.18
-0.165
-0.06
-0.12
-0.155
-0.225
-0.27
-0.38
-0.335
-0.365
-0.255
-0.18
-0.145
-0.155
-0.175
-0.24
-0.215
-0.21
-0.155
-0.265
-0.22
-0.155
-0.09
-0.13
-0.045
-0.235
-0.31
-0.36
-0.11
-0.165
-0.22
-0.155
-0.045
-0.06
-0.075
-0.12
-0.15
-0.29
-0.31
-0.21
-0.12
-0.17
-0.085
-0.21
-0.26
-0.325
-0.275
-0.365
-0.295
-0.29
-0.255
-0.135
-0.05
-0.075
-0.15
-0.21
-0.38
-0.46
-0.175
-0.09
-0.165
-0.08
-0.035
-0.16
-0.2
-0.185
-0.09
-0.205
-0.21
-0.15
-0.1
-0.035
-0.005
-0.07
-0.175
-0.15
-0.225
-0.355
-0.42
-0.345
-0.25
0.03
-0.07
-0.005
-0.055
-0.175
-0.3
-0.305
-0.19
-0.155
-0.095
-0.05
-0.06
-0.025
-0.125
-0.2
-0.235
-0.3
-0.285
-0.275
-0.155
-0.065
0.025
0.015
-0.045
-0.21
-0.335
-0.28
-0.27
-0.29
-0.215
-0.025
-0.025
-0.135
-0.21
-0.21
-0.31
-0.255
-0.26
-0.17
-0.17
-0.165
-0.245
-0.195
-0.135
-0.035
-0.235
-0.235
-0.235
-0.2
-0.125
-0.04
-0.03
0.0
-0.09
-0.215
-0.295
-0.25
-0.225
-0.195
-0.17
-0.04
-0.075
-0.025
-0.1
-0.245
-0.29
-0.38
-0.35
-0.21
-0.1
0.065
0.055
0.0
-0.12
-0.14
-0.26
-0.315
-0.31
-0.245
-0.17
0.03
0.02
-0.075
-0.165
-0.11
-0.185
-0.12
-0.105
-0.12
-0.325
-0.075
0.075
-0.005
-0.17
-0.285
-0.27
-0.22
-0.15
-0.185
-0.18
-0.045
-0.135
-0.175
-0.155
-0.175
-0.29
-0.23
-0.24
-0.16
-0.11
-0.02
-0.12
-0.18
-0.32
-0.35
-0.26
-0.28
-0.205
-0.205
-0.17
-0.155
-0.205
-0.27
-0.27
-0.2
-0.195
-0.27
-0.33
-0.275
-0.045
0.035
-0.17
-0.085
-0.06
-0.205
-0.315
-0.31
-0.315
-0.16
-0.125
-0.07
-0.07
-0.105
-0.165
-0.18
-0.135
-0.115
-0.035
0.09
0.185
0.225
0.3
0.325
0.25
0.19
0.175
0.205
0.265
0.315
0.34
0.285
0.175
0.075
0.03
-0.05
-0.185
-0.155
-0.1
-0.295
-0.325
-0.1
0.005
-0.11
-0.135
-0.195
-0.355
-0.32
-0.19
-0.12
-0.07
-0.07
-0.02
-0.06
-0.17
-0.265
-0.22
-0.195
-0.155
-0.155
-0.085
-0.055
-0.13
-0.25
-0.26
-0.265
-0.195
-0.175
-0.15
-0.17
0.01
-0.085
-0.21
-0.19
-0.28
-0.28
-0.18
-0.19
-0.17
-0.225
-0.21
-0.005
-0.01
-0.205
-0.17
-0.335
-0.21
-0.2
-0.185
0.025
0.03
-0.075
-0.025
0.0
-0.09
-0.19
-0.155
-0.19
-0.175
-0.105
-0.06
0.01
0.01
-0.11
-0.11
-0.17
-0.255
-0.265
-0.225
-0.165
-0.04
-0.095
-0.02
-0.035
-0.175
-0.335
-0.28
-0.19
-0.13
0.015
0.075
0.0
-0.01
-0.02
-0.025
-0.08
-0.13
-0.185
0.045
0.16
0.13
0.045
0.035
-0.05
-0.045
-0.075
-0.125
-0.075
0.045
0.1
0.11
0.14
0.075
-0.025
-0.065
-0.025
0.06
0.07
0.13
0.055
0.155
0.115
0.005
-0.005
-0.13
-0.19
0.035
0.13
0.225
0.3
0.35
0.165
0.16
0.16
0.095
0.035
0.04
0.065
0.085
0.16
0.195
0.125
0.1
-0.02
-0.095
-0.07
-0.05
-0.035
0.005
0.045
0.03
-0.025
-0.17
-0.145
-0.15
-0.135
-0.235
-0.175
0.035
-0.005
0.015
-0.045
-0.13
-0.16
-0.225
-0.26
-0.25
-0.21
-0.08
-0.025
-0.06
-0.08
-0.13
-0.14
-0.255
-0.185
-0.18
-0.17
-0.275
-0.095
-0.02
0.095
-0.06
-0.18
-0.265
-0.245
-0.25
-0.205
-0.13
-0.015
-0.075
-0.17
-0.185
-0.25
-0.51
-0.375
-0.35
-0.16
-0.025
0.055
-0.05
-0.06
-0.185
-0.18
-0.26
-0.33
-0.275
-0.2
-0.065
-0.075
-0.035
-0.02
-0.105
-0.21
-0.295
-0.26
-0.265
-0.21
-0.21
-0.04
-0.2
-0.14
-0.135
-0.185
-0.35
-0.2
-0.14
-0.05
-0.035
0.03
-0.06
-0.15
-0.09
-0.105
-0.205
-0.235
-0.125
-0.13
-0.1
0.045
0.015
-0.1
-0.16
-0.24
-0.25
-0.23
-0.215
-0.07
-0.115
-0.07
-0.125
-0.14
-0.28
-0.325
-0.21
-0.19
-0.13
-0.04
-0.055
-0.005
-0.035
-0.03
-0.2
-0.375
-0.37
-0.305
-0.205
-0.075
-0.135
0.025
0.005
-0.02
-0.135
-0.2
-0.205
-0.18
-0.175
-0.19
-0.19
-0.07
0.015
0.0
-0.16
-0.245
-0.42
-0.3
-0.195
-0.125
-0.045
-0.04
-0.025
-0.105
-0.19
-0.285
-0.325
-0.21
-0.12
-0.075
0.06
0.035
0.005
-0.105
-0.14
-0.235
-0.315
-0.205
-0.18
-0.085
0.07
0.03
0.04
-0.095
-0.13
-0.19
-0.305
-0.3
-0.145
-0.04
0.035
-0.02
0.035
-0.08
-0.18
-0.265
-0.11
-0.185
-0.015
-0.035
-0.035
-0.04
-0.145
-0.18
-0.19
-0.195
-0.155
-0.115
-0.15
-0.13
-0.015
-0.085
-0.125
-0.22
-0.275
-0.365
-0.24
-0.295
-0.23
-0.04
0.025
-0.09
-0.075
-0.19
-0.155
-0.255
-0.185
-0.185
-0.2
-0.165
-0.12
-0.17
-0.1
-0.09
-0.145
-0.35
-0.295
-0.18
-0.135
-0.15
-0.155
-0.145
-0.015
-0.06
-0.115
-0.27
-0.335
-0.23
-0.08
-0.065
0.045
-0.05
-0.1
-0.195
-0.14
-0.26
-0.295
-0.195
-0.05
-0.015
0.105
0.17
0.175
0.21
0.265
0.26
0.31
0.33
0.39
0.395
0.415
0.25
0.175
-0.1
-0.085
0.0
0.045
0.03
0.11
0.105
-0.02
-0.04
-0.06
-0.14
-0.22
-0.24
-0.215
-0.11
-0.195
0.025
-0.205
-0.08
-0.125
-0.17
-0.2
-0.105
-0.2
-0.16
-0.095
-0.045
0.005
0.0
-0.06
-0.165
-0.3
-0.27
-0.305
-0.225
-0.105
0.0
-0.005
0.01
-0.03
-0.165
-0.24
-0.235
-0.21
-0.175
-0.115
-0.055
-0.055
-0.065
-0.095
-0.13
-0.24
-0.1
-0.165
-0.07
-0.05
0.005
-0.095
-0.025
-0.09
-0.15
-0.22
-0.25
-0.245
-0.12
-0.04
0.025
-0.025
-0.055
-0.14
-0.135
-0.21
-0.195
-0.09
0.0
0.01
0.095
-0.025
-0.025
-0.08
-0.09
-0.11
-0.17
-0.28
-0.065
0.015
0.14
0.11
0.05
0.005
-0.015
-0.145
-0.155
-0.055
0.0
0.025
0.08
0.08
0.09
0.07
-0.02
-0.14
-0.15
-0.16
-0.005
0.01
0.12
0.09
0.11
0.065
0.07
0.03
0.05
0.13
0.105
0.055
0.2
0.175
0.235
0.14
0.035
-0.02
0.005
0.11
0.145
0.1
0.21
0.225
0.195
0.155
0.105
0.105
0.085
0.115
0.205
0.21
0.255
0.215
0.115
0.055
-0.02
-0.115
-0.115
-0.115
-0.035
0.07
0.165
0.11
-0.03
-0.115
-0.165
-0.235
-0.17
-0.09
0.025
0.08
0.015
-0.065
-0.115
-0.225
-0.105
-0.11
-0.115
-0.095
-0.085
0.055
0.025
0.025
-0.03
-0.175
-0.18
-0.215
-0.125
-0.13
-0.085
-0.105
-0.105
-0.085
-0.075
-0.17
-0.255
-0.24
-0.19
-0.165
-0.05
0.01
-0.005
-0.055
-0.19
-0.235
-0.28
-0.27
-0.31
-0.315
-0.255
-0.03
-0.03
-0.095
-0.17
-0.12
-0.34
-0.25
-0.185
-0.16
-0.205
-0.055
-0.025
-0.015
-0.04
-0.06
-0.165
-0.09
-0.11
-0.085
-0.145
-0.035
-0.05
-0.055
-0.17
-0.115
-0.185
-0.14
-0.165
-0.17
-0.085
-0.045
-0.1
-0.12
-0.125
-0.145
-0.255
-0.235
-0.17
-0.155
-0.195
-0.145
0.06
-0.07
-0.125
-0.02
-0.09
-0.055
-0.06
-0.09
-0.14
-0.02
0.005
-0.07
-0.12
-0.19
-0.17
-0.17
-0.12
-0.09
-0.08
0.02
0.005
-0.035
-0.125
-0.225
-0.295
-0.235
-0.245
-0.15
-0.21
-0.085
0.015
-0.105
-0.185
-0.235
-0.27
-0.265
-0.085
-0.07
-0.1
0.025
-0.055
-0.025
-0.14
-0.12
-0.135
-0.27
-0.17
-0.04
-0.02
0.015
-0.015
-0.045
-0.115
-0.145
-0.18
-0.24
-0.18
-0.045
0.0
0.04
0.0
-0.05
-0.115
-0.13
-0.22
-0.235
-0.165
-0.135
-0.015
0.055
-0.19
-0.05
-0.155
-0.275
-0.34
-0.235
-0.19
-0.09
-0.145
-0.02
0.035
-0.01
-0.175
-0.255
-0.24
-0.225
-0.205
-0.105
-0.025
-0.085
-0.065
-0.07
-0.06
-0.205
-0.15
-0.07
-0.13
-0.185
-0.085
-0.105
-0.09
-0.175
-0.105
-0.225
-0.18
-0.075
-0.11
-0.07
0.05
0.06
-0.02
-0.145
-0.15
-0.275
-0.245
-0.17
-0.19
-0.14
0.07
0.0
-0.055
-0.1
-0.14
-0.35
-0.245
-0.255
-0.23
-0.155
-0.03
-0.07
-0.015
-0.035
-0.155
-0.255
-0.18
-0.15
-0.08
-0.08
0.045
0.05
0.035
-0.05
-0.105
-0.255
-0.33
-0.195
-0.12
-0.005
0.005
-0.05
-0.085
-0.12
-0.095
-0.195
-0.225
-0.21
-0.155
-0.145
-0.135
-0.1
-0.125
-0.07
-0.14
-0.25
-0.235
-0.265
-0.235
-0.06
-0.005
-0.09
-0.155
-0.16
-0.11
-0.155
-0.19
-0.135
-0.065
-0.035
0.04
-0.055
-0.035
-0.03
-0.105
-0.175
-0.15
-0.19
-0.13
-0.045
0.01
0.08
-0.015
-0.12
-0.045
-0.245
-0.235
-0.095
-0.08
0.04
0.115
0.045
-0.11
-0.155
-0.175
-0.255
-0.275
-0.12
-0.13
-0.065
-0.02
-0.035
0.0
-0.135
-0.09
-0.15
-0.215
-0.165
0.025
0.065
0.115
0.0
-0.04
-0.145
-0.26
-0.205
-0.16
-0.105
-0.075
0.005
-0.03
-0.11
-0.235
-0.165
-0.12
-0.24
-0.175
-0.165
-0.075
0.08
0.055
0.015
-0.18
-0.23
-0.26
-0.16
-0.215
-0.1
-0.13
-0.025
-0.03
-0.04
-0.105
-0.185
-0.295
-0.24
-0.165
-0.12
-0.115
0.02
0.02
-0.13
-0.17
-0.16
-0.23
-0.15
-0.095
-0.085
-0.095
-0.04
-0.08
-0.055
0.015
0.07
0.085
0.08
0.215
0.315
0.44
0.62
0.56
0.445
0.415
0.255
0.03
0.135
0.095
0.165
0.135
0.225
0.24
0.12
0.03
-0.095
-0.285
-0.24
-0.14
-0.095
-0.105
0.015
0.03
0.025
-0.01
-0.09
-0.26
-0.2
-0.135
-0.165
-0.12
-0.035
-0.035
-0.035
-0.085
-0.11
-0.24
-0.29
-0.275
-0.125
0.115
0.145
-0.015
-0.07
-0.125
-0.15
-0.24
-0.245
-0.14
-0.095
-0.055
0.045
-0.005
-0.065
-0.155
-0.145
-0.225
-0.2
-0.155
-0.125
-0.13
-0.12
-0.095
0.1
-0.04
-0.16
-0.165
-0.11
-0.045
-0.03
-0.065
0.085
0.04
-0.05
-0.185
-0.205
-0.21
-0.245
-0.08
0.035
0.075
0.1
0.075
-0.025
-0.14
-0.16
-0.27
-0.25
-0.045
0.04
0.06
0.12
0.145
0.075
-0.015
-0.115
-0.15
-0.18
-0.025
0.01
0.025
0.1
0.115
-0.145
0.1
-0.04
-0.11
-0.14
-0.065
-0.05
0.065
0.145
0.14
0.005
0.05
-0.015
0.035
0.045
0.135
0.115
0.17
0.11
0.13
0.08
0.06
-0.025
0.085
0.075
0.15
0.255
0.32
0.29
0.18
0.14
0.085
-0.05
0.105
0.065
0.115
0.295
0.35
0.28
0.275
0.145
0.11
0.04
0.01
0.035
0.01
0.125
0.255
0.175
0.215
0.11
-0.025
-0.135
-0.065
0.02
0.14
0.075
0.095
0.165
-0.025
-0.13
-0.255
-0.2
-0.21
-0.19
-0.115
-0.05
0.045
0.075
0.03
-0.13
-0.11
-0.145
-0.135
-0.12
-0.035
-0.04
0.06
0.05
-0.065
-0.115
-0.165
-0.23
-0.225
-0.165
-0.075
-0.025
0.035
0.005
-0.11
-0.185
-0.125
-0.215
-0.255
-0.15
-0.065
-0.11
-0.05
-0.055
-0.175
-0.11
-0.17
-0.17
-0.19
-0.125
-0.125
-0.04
-0.055
-0.175
-0.175
-0.255
-0.345
-0.27
-0.305
-0.23
-0.035
0.085
-0.04
-0.045
-0.135
-0.055
-0.12
-0.1
-0.155
-0.19
-0.17
-0.105
-0.095
0.025
-0.1
-0.22
-0.29
-0.225
-0.19
-0.085
-0.07
0.06
0.045
-0.03
-0.075
-0.075
-0.145
-0.205
-0.185
-0.205
0.06
0.05
-0.09
-0.13
-0.125
-0.085
-0.18
-0.24
-0.13
-0.13
-0.135
0.005
-0.05
-0.05
0.0
-0.08
-0.23
-0.225
-0.135
-0.155
-0.115
0.09
0.02
-0.08
-0.1
-0.12
-0.265
-0.21
-0.22
-0.115
-0.05
-0.035
-0.025
-0.19
-0.18
-0.085
-0.095
-0.11
-0.065
0.045
-0.055
-0.07
0.08
0.08
-0.14
-0.175
-0.155
-0.15
-0.235
-0.13
-0.12
0.04
-0.005
0.0
-0.14
-0.12
-0.2
-0.25
-0.15
-0.015
-0.08
0.015
-0.035
-0.03
-0.155
-0.21
-0.28
-0.23
-0.22
-0.11
-0.14
0.005
-0.025
-0.14
-0.245
-0.26
-0.3
-0.24
-0.25
-0.145
-0.075
0.02
0.065
-0.015
-0.22
-0.26
-0.13
-0.08
-0.035
0.065
0.1
0.065
0.015
0.06
-0.06
-0.1
-0.155
-0.195
-0.07
0.005
0.08
0.105
0.085
-0.025
-0.095
-0.21
-0.24
-0.29
-0.195
-0.035
0.06
0.11
0.075
0.015
-0.095
-0.15
-0.105
-0.175
-0.185
-0.14
-0.005
0.055
-0.035
-0.17
-0.19
-0.31
-0.325
-0.27
-0.155
-0.075
-0.095
0.005
0.025
-0.035
-0.26
-0.305
-0.185
-0.16
-0.19
-0.17
0.0
-0.055
-0.095
-0.1
0.035
-0.155
-0.23
-0.22
-0.175
-0.17
-0.115
0.055
-0.13
-0.135
-0.125
-0.215
-0.215
-0.245
-0.14
-0.045
-0.01
0.02
-0.045
-0.09
-0.115
-0.245
-0.295
-0.32
-0.28
-0.12
0.205
0.02
-0.06
-0.115
-0.02
-0.035
0.14
0.185
0.28
0.445
0.665
0.6
0.49
0.4
0.245
0.17
0.28
0.2
0.2
0.215
0.33
0.315
0.105
-0.04
-0.195
-0.355
-0.34
-0.34
-0.26
-0.115
-0.055
-0.155
-0.03
-0.11
-0.11
-0.195
-0.16
-0.115
-0.135
-0.045
0.015
0.03
-0.03
-0.23
-0.365
-0.395
-0.165
-0.115
-0.095
-0.15
0.07
0.045
-0.005
-0.09
-0.12
-0.18
-0.23
-0.15
-0.125
-0.08
0.075
0.155
0.035
-0.06
-0.18
-0.145
-0.175
-0.19
-0.135
-0.11
-0.12
-0.04
-0.17
-0.21
-0.175
-0.12
-0.15
-0.175
-0.055
0.135
0.105
-0.02
-0.185
-0.09
-0.19
-0.315
-0.33
-0.01
-0.11
0.0
0.085
-0.005
-0.055
-0.035
-0.035
-0.14
-0.16
-0.125
-0.1
0.0
-0.015
0.01
-0.01
-0.01
-0.11
-0.135
-0.07
-0.015
0.01
0.135
0.06
0.065
-0.05
-0.135
-0.28
-0.075
-0.05
0.015
0.095
0.19
0.135
0.12
0.055
-0.05
-0.06
-0.135
0.045
0.125
0.125
0.265
0.185
0.18
0.13
-0.02
-0.095
-0.055
0.015
0.09
0.155
0.31
0.29
0.255
0.23
0.265
0.09
0.11
0.11
0.085
0.035
0.12
0.195
0.28
0.21
0.115
-0.065
-0.025
0.0
0.09
0.1
0.23
0.175
0.135
0.025
0.0
-0.115
-0.09
-0.07
-0.045
-0.115
0.045
-0.055
-0.165
-0.085
-0.025
-0.165
-0.21
-0.17
-0.145
-0.07
0.02
0.045
0.035
-0.155
-0.23
-0.265
-0.225
-0.145
-0.075
-0.01
-0.045
-0.06
-0.06
-0.065
-0.155
-0.295
-0.21
-0.155
-0.06
-0.07
-0.1
-0.045
-0.03
-0.07
-0.11
-0.245
-0.33
-0.265
-0.185
-0.075
-0.05
-0.065
-0.175
-0.185
-0.155
-0.195
-0.27
-0.22
-0.12
-0.05
-0.135
-0.065
-0.245
-0.33
-0.215
-0.3
-0.35
-0.175
-0.15
-0.06
-0.04
0.01
-0.08
-0.13
-0.195
-0.235
-0.185
-0.12
-0.19
-0.06
0.04
-0.015
-0.135
-0.225
-0.285
-0.23
-0.22
-0.295
-0.145
-0.025
0.05
0.02
-0.095
-0.155
-0.185
-0.195
-0.32
-0.22
-0.055
0.03
-0.18
-0.155
-0.24
-0.175
-0.16
-0.13
-0.205
-0.195
-0.115
-0.04
-0.03
-0.045
-0.015
-0.04
-0.185
-0.25
-0.24
-0.16
-0.09
-0.135
-0.125
-0.225
-0.105
-0.015
-0.06
-0.06
0.0
-0.02
-0.04
-0.085
-0.13
-0.125
-0.155
-0.23
-0.335
-0.24
-0.15
-0.11
-0.09
-0.02
-0.025
-0.125
-0.235
-0.235
-0.265
-0.15
-0.165
-0.11
-0.075
-0.015
-0.005
-0.115
-0.195
-0.23
-0.36
-0.27
-0.17
-0.12
-0.04
0.005
-0.065
-0.135
-0.285
-0.445
-0.375
-0.245
-0.25
-0.02
-0.02
0.145
0.11
-0.07
-0.185
-0.21
-0.275
-0.195
-0.12
-0.025
-0.025
0.07
0.045
-0.005
-0.1
-0.17
-0.19
-0.21
-0.1
-0.005
0.04
0.145
-0.015
-0.04
-0.15
-0.21
-0.315
-0.375
-0.225
-0.095
-0.085
0.005
0.09
-0.185
-0.23
-0.305
-0.235
-0.235
-0.24
-0.21
0.005
0.07
-0.025
-0.095
-0.16
-0.26
-0.18
-0.12
-0.17
-0.18
-0.11
-0.05
-0.115
-0.115
-0.145
-0.225
-0.235
-0.255
-0.175
-0.09
0.01
-0.06
-0.05
-0.125
-0.235
-0.365
-0.425
-0.205
-0.18
-0.065
-0.01
-0.035
-0.07
-0.205
-0.32
-0.35
-0.31
-0.225
-0.24
-0.29
-0.14
-0.11
-0.005
-0.01
-0.145
-0.135
-0.145
-0.135
-0.085
-0.055
0.06
-0.03
-0.095
-0.145
-0.11
-0.125
-0.135
0.025
0.155
0.26
0.42
0.49
0.505
0.375
0.315
0.175
0.18
0.19
0.21
0.28
0.275
0.235
0.105
-0.005
-0.045
-0.155
-0.315
-0.265
-0.15
-0.05
0.055
-0.025
-0.105
-0.145
-0.155
-0.195
-0.255
-0.115
-0.055
-0.025
0.055
0.09
0.015
-0.145
-0.205
-0.225
-0.205
-0.175
-0.135
-0.065
-0.02
-0.055
-0.13
-0.23
-0.22
-0.235
-0.195
-0.175
-0.015
-0.035
-0.055
-0.15
-0.07
-0.185
-0.205
-0.305
-0.165
-0.195
-0.18
0.0
0.025
0.075
-0.1
-0.19
-0.14
-0.22
-0.145
-0.04
0.07
-0.025
-0.07
-0.07
-0.025
-0.115
-0.255
-0.24
-0.27
-0.245
0.02
-0.035
0.015
0.065
-0.065
-0.18
-0.115
-0.145
-0.16
-0.02
0.03
0.055
0.04
0.05
-0.035
-0.06
-0.205
-0.14
-0.1
-0.08
-0.015
0.015
-0.07
-0.06
-0.04
-0.095
-0.17
-0.195
-0.105
-0.015
-0.115
-0.11
0.225
0.285
0.09
0.07
-0.04
-0.055
-0.045
0.03
0.105
0.165
0.225
0.255
0.195
0.025
-0.065
0.02
0.09
0.175
0.17
0.155
0.17
0.21
0.215
0.175
-0.015
0.05
0.125
0.21
0.255
0.295
0.22
0.185
0.075
0.045
0.015
0.03
-0.01
0.095
0.11
0.17
0.08
-0.01
-0.04
-0.045
-0.22
-0.115
-0.075
-0.125
0.085
0.14
0.045
0.01
0.015
-0.095
-0.11
-0.135
-0.09
0.0
0.025
0.07
-0.02
-0.115
-0.13
-0.025
0.0
-0.115
-0.17
-0.1
-0.095
-0.015
-0.03
-0.17
-0.25
-0.31
-0.41
-0.24
-0.085
0.005
-0.005
0.055
0.04
-0.145
-0.275
-0.265
-0.305
-0.21
-0.16
-0.15
-0.16
-0.14
0.01
-0.025
-0.045
-0.105
-0.24
-0.29
-0.24
-0.015
-0.065
0.005
-0.025
-0.13
-0.195
-0.17
-0.215
-0.23
-0.165
-0.02
-0.05
-0.05
-0.135
-0.215
-0.13
-0.265
-0.33
-0.3
-0.175
-0.14
0.005
-0.085
-0.085
-0.06
-0.13
-0.235
-0.165
-0.135
-0.095
-0.11
0.06
0.06
-0.015
-0.11
-0.19
-0.22
-0.275
-0.185
-0.16
-0.095
-0.01
-0.01
0.025
-0.04
-0.115
-0.24
-0.21
-0.16
-0.145
-0.08
0.01
0.02
-0.06
-0.165
-0.225
-0.265
-0.16
-0.105
0.02
0.02
-0.01
-0.03
-0.085
-0.225
-0.245
-0.29
-0.275
-0.07
-0.02
-0.03
-0.03
-0.05
-0.11
-0.22
-0.295
-0.25
-0.18
-0.04
-0.06
-0.06
0.14
-0.045
-0.095
-0.03
-0.06
-0.225
-0.17
-0.085
-0.005
-0.08
-0.045
-0.07
-0.065
-0.155
-0.17
-0.315
-0.305
-0.24
-0.17
-0.16
-0.08
-0.045
-0.085
-0.15
-0.27
-0.23
-0.215
-0.2
-0.18
-0.08
-0.015
0.02
-0.06
-0.07
-0.11
-0.22
-0.295
-0.23
-0.16
-0.135
-0.025
-0.02
-0.01
-0.01
-0.12
-0.18
-0.18
-0.075
-0.105
-0.1
-0.105
-0.205
-0.22
-0.155
-0.2
-0.145
-0.135
-0.16
0.0
-0.01
-0.075
-0.09
-0.19
-0.27
-0.34
-0.295
-0.165
-0.09
-0.07
0.065
0.08
0.015
-0.125
-0.065
-0.235
-0.235
-0.185
-0.125
-0.105
-0.03
0.01
-0.075
-0.115
-0.155
-0.27
-0.285
-0.195
-0.17
-0.15
-0.085
-0.125
-0.09
-0.135
-0.125
-0.185
-0.085
-0.09
-0.165
-0.09
0.055
-0.06
-0.11
-0.01
-0.075
-0.255
-0.245
-0.225
-0.125
-0.085
0.005
0.02
-0.07
-0.11
-0.175
-0.28
-0.285
-0.285
-0.225
-0.13
0.065
-0.03
-0.065
-0.055
-0.05
-0.21
-0.225
-0.19
-0.1
-0.115
-0.055
-0.015
0.015
-0.075
-0.12
-0.25
-0.215
-0.235
-0.1
-0.05
0.01
0.135
-0.06
-0.16
-0.09
-0.165
-0.225
-0.29
-0.235
-0.235
-0.085
-0.04
0.01
-0.115
-0.135
-0.15
-0.19
-0.195
-0.185
-0.17
-0.08
-0.09
-0.025
-0.01
-0.055
-0.17
-0.165
-0.16
-0.07
0.01
0.075
0.01
-0.035
-0.095
-0.14
-0.26
-0.25
-0.24
-0.13
-0.05
-0.02
-0.05
-0.085
-0.14
-0.24
-0.365
-0.26
-0.185
-0.195
-0.105
0.085
0.065
-0.08
-0.07
-0.14
-0.27
-0.24
-0.15
-0.135
-0.065
0.0
-0.035
-0.065
-0.16
-0.265
-0.3
-0.12
-0.15
-0.125
-0.075
0.03
-0.015
-0.05
-0.095
-0.16
-0.16
-0.13
-0.13
-0.11
-0.015
0.0
0.035
-0.08
-0.17
-0.2
-0.325
-0.27
-0.135
-0.035
0.05
-0.015
0.0
-0.045
-0.13
-0.24
-0.17
-0.105
-0.07
0.02
0.075
0.085
-0.005
-0.07
-0.11
-0.255
-0.175
-0.165
-0.075
-0.07
-0.005
0.02
0.015
-0.02
-0.085
-0.19
-0.155
-0.18
-0.125
0.045
0.13
0.075
-0.005
-0.11
-0.23
-0.355
-0.3
-0.065
-0.045
-0.16
-0.14
-0.185
-0.03
-0.06
-0.2
-0.275
-0.13
-0.105
-0.11
-0.055
0.045
0.03
-0.075
-0.08
-0.135
-0.19
-0.255
-0.215
-0.18
-0.135
-0.055
-0.025
-0.04
-0.13
-0.175
-0.205
-0.26
-0.165
-0.085
-0.045
-0.02
-0.035
-0.125
-0.185
-0.225
-0.155
-0.155
-0.175
-0.105
-0.06
0.015
0.015
-0.005
-0.025
-0.12
-0.085
-0.02
0.14
0.33
0.335
0.495
0.6
0.535
0.395
0.32
0.09
0.075
0.12
0.18
0.17
0.34
0.33
0.29
0.23
0.15
0.04
-0.105
-0.225
-0.24
-0.17
-0.075
0.04
-0.13
-0.08
-0.095
-0.18
-0.145
-0.085
-0.045
-0.03
0.01
0.015
-0.06
-0.16
-0.185
-0.215
-0.29
-0.22
-0.075
0.0
-0.015
-0.03
-0.115
-0.095
-0.175
-0.155
-0.195
-0.095
-0.12
-0.05
-0.085
0.0
-0.04
-0.175
-0.175
-0.21
-0.115
-0.065
-0.05
0.045
0.045
-0.075
-0.145
-0.18
-0.27
-0.225
-0.255
-0.16
-0.025
0.055
0.005
-0.055
-0.145
-0.16
-0.22
-0.23
-0.125
-0.095
-0.01
0.045
0.05
0.02
0.0
-0.105
-0.235
-0.215
-0.07
-0.015
0.0
0.09
0.07
0.025
0.04
-0.05
-0.16
-0.25
-0.205
-0.1
0.055
0.24
0.1
-0.02
-0.065
-0.08
-0.155
-0.1
-0.105
-0.065
0.095
0.18
0.11
0.125
0.04
0.065
-0.045
-0.02
0.015
0.08
0.05
0.095
0.09
0.015
0.105
0.015
-0.055
0.105
0.035
0.05
0.105
0.26
0.185
0.275
0.19
0.16
0.045
0.085
0.14
0.18
0.14
0.235
0.245
0.215
0.12
0.06
0.075
0.065
0.115
0.22
0.155
0.23
0.155
0.085
0.06
-0.015
-0.035
-0.065
-0.07
0.055
0.065
0.08
0.07
0.065
-0.02
-0.05
-0.095
-0.16
-0.16
-0.02
-0.07
0.065
0.095
-0.035
-0.08
-0.115
-0.18
-0.115
-0.1
0.01
0.045
0.035
0.04
-0.12
-0.12
-0.21
-0.235
-0.21
-0.125
-0.015
0.055
0.075
0.02
-0.06
-0.14
-0.26
-0.255
-0.285
-0.235
-0.16
-0.17
-0.01
0.025
-0.055
-0.18
-0.245
-0.27
-0.17
-0.1
-0.065
-0.04
-0.035
-0.06
-0.07
-0.15
-0.245
-0.35
-0.32
-0.245
-0.075
0.055
-0.045
-0.025
-0.075
-0.175
-0.165
-0.16
-0.215
-0.1
-0.065
-0.05
-0.095
-0.135
-0.275
-0.265
-0.32
-0.07
-0.085
-0.165
-0.14
-0.015
-0.1
-0.095
-0.12
-0.145
-0.06
-0.065
-0.075
-0.025
-0.055
0.0
-0.1
-0.17
-0.175
-0.16
-0.29
-0.195
-0.11
-0.1
-0.08
0.035
-0.065
-0.08
-0.07
-0.175
-0.295
-0.16
-0.16
-0.03
-0.03
-0.02
-0.12
-0.115
-0.13
-0.08
-0.19
-0.175
-0.19
-0.155
-0.07
-0.06
-0.14
-0.11
-0.065
0.035
-0.155
-0.205
-0.19
-0.09
-0.045
-0.015
0.01
0.02
-0.12
-0.14
-0.29
-0.295
-0.125
-0.11
-0.085
-0.055
-0.04
-0.025
-0.075
-0.165
-0.155
-0.135
-0.14
-0.06
-0.01
0.02
-0.005
-0.065
-0.15
-0.215
-0.305
-0.27
-0.11
-0.02
0.05
0.095
0.065
0.005
-0.19
-0.26
-0.195
-0.27
-0.19
-0.02
0.0
0.07
-0.03
-0.195
-0.2
-0.22
-0.315
-0.255
-0.015
0.0
0.025
-0.045
-0.175
-0.185
-0.235
-0.305
-0.14
-0.125
-0.055
-0.055
-0.01
-0.07
-0.08
-0.135
-0.085
-0.11
-0.085
-0.15
-0.17
-0.06
0.055
0.08
-0.005
-0.095
-0.185
-0.23
-0.3
-0.255
-0.08
-0.055
-0.02
0.005
0.095
-0.045
-0.185
-0.26
-0.3
-0.19
-0.05
-0.01
0.025
-0.01
0.025
-0.11
-0.09
-0.16
-0.215
-0.24
-0.21
-0.16
0.005
0.125
0.015
-0.135
-0.18
-0.24
-0.075
-0.13
-0.075
-0.145
-0.08
0.185
0.005
-0.19
-0.14
-0.2
-0.125
-0.085
-0.115
-0.05
0.04
0.045
-0.075
-0.155
-0.115
-0.165
-0.185
-0.18
-0.235
-0.045
0.0
-0.005
-0.055
-0.05
-0.195
-0.245
-0.175
-0.155
-0.145
-0.04
-0.005
-0.07
-0.005
-0.08
-0.07
-0.235
-0.1
-0.085
-0.115
-0.055
-0.1
0.07
-0.035
-0.155
-0.235
-0.195
-0.13
-0.075
0.035
-0.005
-0.015
-0.08
-0.115
-0.175
-0.25
-0.185
-0.11
-0.215
-0.11
-0.145
-0.1
-0.055
0.13
-0.045
-0.21
-0.14
-0.16
-0.075
-0.03
-0.055
0.025
-0.015
-0.06
-0.06
-0.26
-0.055
-0.07
-0.115
-0.1
-0.06
-0.085
-0.105
-0.13
0.01
-0.135
-0.205
-0.205
-0.185
-0.015
-0.01
-0.04
-0.08
-0.065
-0.02
-0.145
-0.155
-0.165
-0.145
-0.125
-0.105
-0.05
0.025
-0.09
-0.21
-0.195
-0.17
-0.13
-0.065
-0.055
0.09
-0.03
-0.05
-0.08
-0.01
-0.145
-0.195
-0.12
-0.015
0.015
0.145
0.065
-0.13
0.025
-0.155
-0.16
-0.17
-0.06
-0.03
0.015
0.065
0.02
0.03
-0.05
-0.09
-0.125
-0.18
-0.195
-0.025
-0.02
0.04
0.035
-0.03
-0.12
-0.19
-0.21
-0.155
-0.105
-0.06
-0.015
0.09
-0.005
-0.08
-0.15
-0.14
-0.215
-0.165
-0.105
-0.05
-0.13
0.0
0.015
-0.055
-0.09
-0.09
-0.225
-0.24
-0.155
-0.09
-0.08
0.065
0.02
-0.145
-0.185
-0.165
-0.2
-0.155
-0.17
-0.18
-0.17
-0.155
-0.095
0.01
-0.11
-0.22
-0.2
-0.155
-0.05
0.0
0.05
0.005
0.045
-0.025
-0.155
-0.175
-0.2
-0.14
-0.035
0.16
0.275
0.325
0.4
0.39
0.41
0.29
0.345
0.15
0.215
0.22
0.3
0.3
0.215
0.115
-0.005
0.035
0.07
0.08
0.065
-0.025
-0.145
-0.04
0.015
-0.09
-0.14
-0.155
-0.08
-0.16
-0.165
-0.085
0.025
-0.005
-0.03
-0.06
-0.1
-0.21
-0.185
-0.195
-0.185
-0.165
-0.17
-0.1
-0.16
-0.025
-0.05
-0.23
-0.125
-0.115
-0.115
-0.1
0.01
-0.04
-0.025
-0.13
-0.155
-0.31
-0.085
-0.175
-0.17
-0.08
0.04
0.055
0.025
-0.08
-0.1
-0.2
-0.165
-0.12
-0.08
-0.06
0.055
-0.015
-0.065
-0.2
-0.045
-0.195
-0.15
-0.13
-0.085
-0.045
0.01
0.055
-0.01
-0.115
-0.07
-0.185
-0.165
-0.2
-0.08
-0.005
0.13
0.07
-0.055
-0.07
-0.13
-0.205
-0.22
-0.075
0.0
0.02
0.135
0.05
-0.015
-0.095
-0.14
-0.175
-0.11
-0.085
-0.025
0.04
0.11
0.21
0.13
-0.015
-0.035
-0.1
-0.025
-0.055
-0.05
0.045
0.21
0.24
0.22
0.18
0.115
-0.04
0.01
0.04
0.105
0.125
0.23
0.22
0.115
0.055
-0.14
-0.09
0.065
0.105
0.17
0.285
0.29
0.235
0.205
0.075
-0.045
-0.085
0.07
0.23
0.225
0.225
0.295
0.21
0.155
0.12
0.02
0.005
-0.04
0.03
0.12
0.15
0.135
0.09
-0.015
-0.145
-0.205
-0.135
-0.1
-0.1
-0.01
0.01
0.155
0.025
-0.13
-0.19
-0.375
-0.45
-0.245
-0.065
-0.005
0.115
0.1
0.005
-0.105
-0.225
-0.15
-0.215
-0.14
-0.08
-0.01
-0.015
-0.035
-0.015
-0.025
-0.095
-0.145
-0.265
-0.285
-0.19
-0.115
-0.065
-0.06
-0.08
-0.185
-0.24
-0.285
-0.355
-0.205
-0.255
-0.105
0.0
0.055
0.005
-0.055
-0.1
-0.265
-0.27
-0.24
-0.19
-0.23
-0.05
-0.105
-0.11
-0.17
-0.15
-0.355
-0.225
-0.145
-0.16
-0.01
0.105
0.07
-0.08
-0.165
-0.16
-0.335
-0.29
-0.235
-0.09
-0.055
-0.09
0.01
-0.055
-0.195
-0.15
-0.195
-0.2
-0.18
-0.13
-0.14
0.03
0.04
-0.005
-0.135
-0.22
-0.17
-0.17
-0.125
-0.105
-0.14
-0.025
-0.05
-0.1
-0.195
-0.28
-0.28
-0.14
-0.155
-0.11
0.045
-0.03
0.0
-0.05
-0.125
-0.195
-0.175
-0.155
-0.12
-0.055
-0.005
-0.105
-0.125
-0.095
-0.205
-0.17
-0.18
-0.29
-0.15
0.005
-0.005
0.045
0.045
-0.08
-0.18
-0.215
-0.375
-0.33
-0.225
-0.02
0.1
0.115
0.04
-0.03
-0.105
-0.22
-0.32
-0.18
-0.115
-0.1
-0.14
-0.115
-0.12
-0.14
-0.195
-0.3
-0.365
-0.205
-0.12
0.0
0.02
0.025
-0.05
-0.125
-0.145
-0.065
-0.095
-0.195
-0.23
-0.01
0.035
-0.01
-0.02
-0.095
-0.115
-0.215
-0.115
-0.1
-0.125
-0.09
0.03
0.075
-0.045
-0.075
-0.03
-0.135
-0.145
-0.19
-0.155
-0.08
0.02
0.04
0.01
-0.105
-0.155
-0.245
-0.33
-0.245
-0.175
-0.14
-0.04
-0.07
-0.13
-0.15
-0.18
-0.375
-0.255
-0.095
0.005
-0.035
-0.015
-0.035
-0.11
-0.17
-0.235
-0.385
-0.24
-0.075
-0.025
-0.025
0.005
-0.005
-0.065
-0.225
-0.25
-0.295
-0.305
-0.15
-0.14
-0.125
-0.08
-0.085
-0.205
-0.34
-0.24
-0.21
-0.22
-0.13
-0.06
-0.15
-0.045
-0.095
-0.205
-0.17
-0.19
-0.215
-0.18
-0.165
-0.125
-0.06
0.12
0.02
-0.06
-0.155
-0.18
-0.235
-0.25
-0.15
0.01
0.09
0.275
0.32
0.275
0.265
0.19
0.13
0.14
0.085
0.125
0.115
0.29
0.355
0.145
-0.01
-0.105
-0.12
-0.155
-0.125
-0.05
-0.04
-0.09
-0.155
-0.275
-0.25
-0.345
-0.33
-0.255
-0.21
-0.15
-0.06
-0.04
-0.135
-0.07
-0.115
-0.305
-0.22
-0.115
-0.1
-0.175
-0.09
-0.02
-0.08
-0.135
-0.095
-0.185
-0.215
-0.2
-0.125
-0.05
0.055
0.055
-0.035
-0.165
-0.15
-0.265
-0.205
-0.255
-0.145
-0.145
-0.06
-0.085
-0.065
-0.13
-0.13
-0.13
-0.34
-0.33
-0.26
-0.215
-0.07
-0.125
-0.145
-0.055
-0.055
-0.165
-0.23
-0.19
-0.11
0.005
0.16
0.08
0.01
-0.015
-0.07
-0.24
-0.21
-0.205
0.04
0.095
0.15
0.065
-0.065
-0.125
-0.17
-0.185
-0.195
-0.195
-0.13
-0.035
0.085
0.075
0.02
0.045
0.005
-0.155
-0.15
-0.21
-0.035
-0.06
0.135
0.06
-0.015
0.105
-0.06
-0.25
-0.225
-0.005
0.015
0.03
0.17
0.165
0.11
0.08
0.06
-0.135
-0.07
0.095
0.22
0.2
0.24
0.25
0.18
0.135
0.14
0.07
0.085
0.2
0.185
0.16
0.28
0.275
0.195
0.1
0.0
0.005
0.01
0.075
0.08
0.105
0.265
0.21
0.065
0.095
0.02
-0.03
-0.055
-0.11
-0.005
0.175
0.225
0.115
0.06
-0.08
-0.17
-0.13
-0.13
-0.045
0.025
0.045
-0.05
-0.055
-0.11
-0.115
-0.095
-0.165
-0.135
-0.155
-0.175
-0.13
0.025
0.015
-0.005
-0.16
-0.275
-0.245
-0.14
-0.22
-0.175
0.005
0.03
0.0
-0.105
-0.245
-0.235
-0.195
-0.17
-0.155
-0.06
-0.065
-0.04
-0.095
-0.205
-0.28
-0.32
-0.285
-0.3
-0.135
-0.13
-0.04
-0.03
-0.005
-0.075
-0.185
-0.205
-0.325
-0.29
-0.18
-0.045
0.075
0.005
-0.06
-0.1
-0.225
-0.315
-0.265
-0.085
-0.08
-0.15
-0.08
-0.045
-0.08
-0.16
-0.14
-0.21
-0.145
-0.19
-0.11
-0.01
0.05
0.015
-0.05
-0.23
-0.305
-0.295
-0.15
-0.215
-0.075
-0.1
-0.165
-0.165
-0.12
-0.205
-0.135
-0.21
-0.26
-0.175
-0.06
-0.02
0.035
-0.025
-0.015
-0.12
-0.2
-0.195
-0.165
-0.08
-0.01
-0.055
-0.125
-0.06
-0.02
-0.015
-0.065
-0.115
-0.14
-0.1
-0.105
-0.005
0.015
-0.02
-0.085
-0.105
-0.205
-0.12
-0.145
-0.185
-0.125
0.03
-0.05
-0.075
0.025
-0.185
-0.275
-0.2
-0.115
-0.08
-0.025
0.0
0.055
0.055
0.05
-0.1
-0.135
-0.095
-0.11
-0.14
-0.04
-0.03
-0.045
0.01
-0.18
-0.19
-0.225
-0.24
-0.2
-0.12
-0.08
0.04
-0.08
-0.1
-0.07
-0.07
-0.29
-0.315
-0.305
-0.23
-0.21
-0.135
0.055
-0.01
-0.085
-0.105
-0.225
-0.285
-0.31
-0.26
-0.04
-0.09
-0.135
-0.02
-0.09
-0.09
-0.19
-0.22
-0.21
-0.035
0.02
-0.005
-0.14
-0.205
-0.03
-0.06
-0.155
-0.17
-0.19
-0.08
-0.065
0.02
0.04
0.045
-0.125
-0.125
-0.27
-0.275
-0.15
-0.135
-0.185
-0.21
-0.05
-0.16
-0.18
-0.14
-0.17
-0.23
-0.285
-0.1
-0.105
-0.04
-0.01
0.06
0.06
0.01
-0.015
0.12
0.23
0.305
0.36
0.5
0.545
0.3
0.195
0.12
0.07
0.09
0.14
0.24
0.27
0.335
0.225
0.145
-0.095
-0.125
-0.26
-0.27
-0.23
-0.135
0.055
0.135
-0.005
-0.19
-0.175
-0.27
-0.34
-0.23
-0.145
-0.135
-0.02
0.065
-0.015
-0.055
-0.125
-0.21
-0.27
-0.315
-0.225
-0.135
-0.08
0.0
0.02
-0.04
-0.01
-0.215
-0.145
-0.05
-0.07
-0.03
0.025
0.03
0.035
-0.09
-0.1
-0.05
-0.175
-0.065
-0.03
-0.06
0.05
0.12
0.1
-0.025
-0.185
-0.22
-0.065
-0.06
-0.09
0.035
0.155
0.11
0.025
-0.01
-0.13
-0.245
-0.21
-0.18
-0.13
0.0
0.055
0.015
0.105
0.085
0.05
-0.195
-0.285
-0.045
-0.025
0.03
0.095
0.165
0.145
0.1
0.035
-0.05
-0.055
-0.05
0.02
0.14
0.24
0.14
0.08
0.01
-0.035
-0.095
-0.12
-0.065
-0.04
0.07
0.14
0.15
0.14
0.125
0.105
-0.005
0.025
0.07
0.1
0.07
0.03
0.15
0.145
0.195
0.225
0.065
0.095
0.135
0.26
0.3
0.345
0.295
0.175
0.12
0.105
0.065
0.065
0.18
0.2
0.23
0.38
0.405
0.285
0.21
0.22
0.09
0.14
0.13
0.14
0.135
0.21
0.13
0.14
0.15
0.015
-0.05
-0.07
0.0
-0.015
0.145
0.22
0.125
-0.09
-0.14
-0.13
-0.14
-0.12
-0.05
0.01
-0.065
0.12
0.225
0.085
-0.01
-0.065
-0.125
-0.145
-0.055
0.0
0.02
0.045
0.07
0.06
-0.05
-0.18
-0.22
-0.2
-0.16
-0.11
0.165
0.13
-0.005
-0.025
-0.11
-0.255
-0.23
-0.075
-0.085
-0.05
0.03
0.02
-0.09
-0.08
-0.045
-0.185
-0.2
-0.2
-0.035
0.055
0.015
0.065
0.17
0.08
-0.05
-0.175
-0.21
-0.145
-0.065
-0.06
0.115
0.085
-0.035
-0.095
-0.07
-0.175
-0.135
-0.115
-0.08
-0.08
0.005
-0.01
-0.065
-0.09
-0.18
-0.255
-0.115
0.01
0.05
0.125
0.12
0.12
0.045
-0.06
-0.1
-0.16
-0.1
-0.235
-0.245
-0.17
0.055
0.025
0.15
0.09
0.035
-0.165
-0.195
-0.255
-0.105
0.11
0.185
0.2
0.14
0.095
-0.025
-0.12
-0.06
0.015
0.045
-0.02
0.035
0.095
0.09
0.015
-0.065
-0.1
-0.14
-0.075
-0.05
0.025
0.095
0.045
0.015
-0.1
-0.215
-0.145
-0.115
0.06
0.03
-0.01
0.13
0.09
0.02
0.085
-0.015
-0.09
-0.08
-0.055
0.0
0.115
0.21
0.09
-0.035
-0.05
-0.025
-0.075
-0.065
-0.11
-0.09
-0.03
0.11
0.075
-0.05
-0.015
-0.055
-0.11
-0.17
-0.175
-0.02
-0.05
0.115
0.145
-0.005
-0.03
-0.155
-0.195
-0.145
-0.04
0.045
0.065
0.16
0.05
0.0
-0.105
-0.17
-0.255
-0.265
-0.09
-0.01
0.05
0.06
0.01
-0.09
-0.12
-0.165
-0.19
-0.11
-0.06
-0.04
-0.025
0.02
-0.03
-0.145
-0.095
-0.11
-0.12
-0.12
-0.01
-0.045
0.015
0.03
0.03
-0.07
-0.16
-0.18
-0.21
-0.105
-0.02
0.115
0.115
0.105
0.07
-0.005
0.03
-0.045
0.01
0.06
0.14
0.295
0.67
0.615
0.58
0.525
0.525
0.4
0.305
0.245
0.16
0.24
0.39
0.435
0.26
0.155
0.015
-0.175
-0.065
-0.095
-0.05
-0.02
0.1
0.055
-0.01
-0.09
-0.075
-0.23
-0.155
-0.045
-0.005
-0.035
0.03
0.035
-0.03
-0.12
-0.085
-0.075
-0.05
-0.005
0.055
0.055
0.115
0.0
0.045
-0.11
-0.195
-0.265
-0.21
-0.065
0.03
0.035
0.15
0.175
0.13
-0.035
-0.1
-0.18
-0.17
-0.135
-0.135
-0.005
0.03
0.025
0.025
-0.15
-0.035
-0.09
-0.095
-0.085
0.015
-0.005
0.055
-0.025
-0.03
-0.08
-0.16
-0.09
-0.02
-0.125
0.03
0.005
0.08
0.085
0.14
0.065
-0.035
-0.055
-0.08
-0.015
-0.005
0.16
0.13
0.18
0.165
-0.035
-0.125
-0.13
-0.095
-0.06
-0.01
0.105
0.205
0.12
0.11
0.02
-0.085
-0.065
0.02
-0.035
0.055
0.16
0.195
0.15
0.05
0.03
0.005
-0.135
0.02
0.185
0.155
0.2
0.29
0.21
0.09
0.07
0.095
0.05
0.035
0.155
0.14
0.275
0.275
0.295
0.24
0.32
0.175
0.17
0.135
0.225
0.195
0.34
0.345
0.35
0.16
0.085
-0.02
0.04
0.09
0.205
0.24
0.325
0.19
0.12
-0.07
-0.04
0.065
0.0
0.045
0.195
0.065
0.185
0.115
0.0
0.025
-0.07
-0.225
-0.145
-0.075
-0.01
-0.055
0.005
0.11
-0.015
0.045
-0.015
-0.16
-0.12
-0.12
-0.1
-0.015
0.05
-0.04
-0.09
-0.095
-0.095
-0.225
-0.15
-0.1
-0.015
-0.025
0.08
-0.02
-0.12
-0.11
-0.11
-0.11
-0.135
-0.155
-0.05
0.0
0.1
0.005
-0.045
-0.05
-0.13
-0.235
-0.18
-0.14
-0.145
-0.225
-0.17
0.075
0.06
-0.09
-0.21
-0.19
-0.235
-0.125
-0.09
-0.105
-0.025
0.04
-0.05
-0.21
-0.09
-0.2
-0.105
-0.045
-0.045
-0.03
0.085
0.07
0.065
-0.015
-0.095
-0.17
-0.2
-0.12
-0.07
0.005
0.04
0.035
-0.08
-0.265
-0.23
-0.12
-0.195
-0.23
-0.115
0.005
0.06
0.02
-0.055
-0.12
-0.23
-0.295
-0.215
-0.09
-0.06
0.02
0.085
0.025
-0.07
-0.12
-0.18
-0.165
-0.21
-0.165
-0.205
-0.115
0.0
0.055
-0.135
-0.125
-0.165
-0.055
0.01
0.055
-0.055
0.005
0.11
0.055
0.005
-0.015
-0.16
-0.165
-0.075
-0.135
-0.13
0.015
-0.065
0.005
-0.08
-0.165
-0.275
-0.165
-0.185
-0.11
-0.05
0.13
0.07
-0.14
-0.09
-0.205
-0.17
-0.155
-0.135
-0.055
-0.02
0.035
-0.025
-0.125
-0.13
-0.105
-0.285
-0.23
-0.14
-0.105
-0.025
0.16
0.13
0.075
-0.02
-0.05
-0.17
-0.145
-0.08
-0.035
-0.08
0.03
0.095
-0.04
-0.07
-0.03
-0.11
-0.08
-0.085
-0.025
0.03
0.135
0.085
0.02
-0.195
-0.265
-0.085
-0.07
-0.145
-0.17
-0.12
0.0
0.05
0.055
-0.055
-0.13
-0.19
-0.175
-0.11
-0.015
-0.05
0.045
-0.065
-0.01
-0.125
-0.14
-0.22
-0.16
-0.115
-0.015
0.025
0.08
0.08
-0.045
-0.13
-0.255
-0.31
-0.395
-0.18
-0.105
0.025
0.1
0.025
-0.07
-0.19
-0.215
-0.2
-0.225
-0.11
-0.075
-0.005
-0.03
-0.15
-0.015
-0.035
-0.185
-0.18
-0.205
-0.175
-0.1
0.005
0.025
0.025
-0.05
-0.145
-0.23
-0.245
-0.25
-0.24
-0.28
0.07
0.125
0.07
-0.065
-0.16
-0.2
-0.23
-0.225
-0.025
0.04
0.085
0.225
0.27
0.28
0.43
0.405
0.47
0.52
0.465
0.415
0.395
0.32
0.2
0.16
0.17
-0.005
0.065
0.1
0.09
0.085
0.055
-0.015
-0.03
-0.13
-0.095
-0.185
-0.215
-0.245
-0.185
-0.085
0.055
0.005
-0.135
-0.26
-0.23
-0.38
-0.3
-0.01
-0.07
-0.075
0.01
-0.03
0.065
-0.06
-0.105
-0.16
-0.15
-0.01
0.035
-0.025
-0.04
-0.09
-0.115
-0.12
-0.185
-0.275
-0.28
-0.185
-0.065
-0.075
0.08
0.07
0.005
-0.12
-0.155
-0.35
-0.485
-0.24
0.03
0.025
0.075
0.07
0.035
-0.12
-0.185
-0.325
-0.315
-0.145
-0.225
-0.05
-0.03
-0.07
-0.04
0.01
-0.125
-0.14
-0.125
-0.075
-0.105
-0.01
0.11
-0.04
0.015
-0.01
-0.105
-0.14
-0.06
-0.075
-0.055
-0.075
-0.06
-0.08
-0.065
0.05
-0.08
-0.03
-0.01
0.03
0.065
0.05
-0.03
-0.06
-0.065
-0.075
-0.24
-0.255
-0.12
0.105
0.1
0.16
0.075
0.13
0.075
0.0
-0.145
-0.185
-0.05
0.065
0.125
0.24
0.2
0.19
0.16
0.065
0.01
-0.015
0.005
0.115
0.16
0.25
0.195
0.225
0.185
0.12
-0.015
0.03
0.015
0.055
0.11
0.195
0.085
0.18
0.145
-0.03
-0.085
-0.085
-0.13
-0.065
0.03
0.175
0.05
0.065
-0.05
-0.065
-0.19
-0.1
-0.145
-0.05
-0.23
-0.12
-0.01
0.015
0.02
-0.035
-0.18
-0.23
-0.145
-0.07
-0.13
-0.09
0.01
-0.11
-0.195
-0.14
-0.22
-0.21
-0.225
-0.15
-0.1
-0.025
0.12
0.02
-0.21
-0.225
-0.28
-0.355
-0.265
-0.17
-0.185
-0.015
-0.055
-0.13
-0.185
-0.245
-0.34
-0.285
-0.18
-0.175
-0.075
-0.03
-0.06
-0.11
-0.18
-0.22
-0.235
-0.27
-0.205
-0.105
-0.1
-0.02
0.0
-0.14
-0.255
-0.33
-0.375
-0.25
-0.14
-0.025
-0.055
0.015
-0.005
-0.08
-0.185
-0.295
-0.295
-0.245
-0.18
-0.12
-0.045
-0.055
-0.08
-0.23
-0.23
-0.245
-0.15
-0.07
-0.165
-0.1
-0.065
-0.015
-0.11
-0.2
-0.255
-0.395
-0.25
-0.25
-0.24
-0.26
-0.11
-0.155
-0.065
-0.105
-0.245
-0.33
-0.29
-0.18
-0.06
-0.15
-0.06
0.005
-0.075
-0.14
-0.1
-0.29
-0.35
-0.21
-0.165
-0.07
-0.08
-0.065
0.015
0.03
-0.07
-0.23
-0.215
-0.17
-0.125
-0.17
-0.065
-0.075
-0.1
-0.15
-0.225
-0.335
-0.27
-0.275
-0.12
-0.05
-0.02
-0.055
-0.105
-0.17
-0.12
-0.21
-0.29
-0.27
-0.065
-0.03
-0.02
-0.09
-0.065
-0.105
-0.145
-0.23
-0.27
-0.18
-0.15
-0.085
0.025
-0.045
-0.085
-0.075
-0.24
-0.225
-0.225
-0.195
-0.18
-0.145
0.01
-0.115
-0.22
0.005
0.065
-0.14
-0.12
-0.07
-0.07
-0.1
-0.135
-0.075
-0.08
-0.11
-0.1
-0.245
-0.14
-0.13
-0.17
-0.165
-0.12
-0.085
-0.125
-0.175
-0.165
-0.28
-0.28
-0.22
-0.195
-0.2
-0.15
-0.12
-0.12
-0.1
-0.14
-0.235
-0.26
-0.195
-0.215
-0.155
-0.14
-0.15
-0.07
-0.21
-0.315
-0.245
-0.285
-0.16
-0.175
-0.035
-0.075
-0.2
-0.21
-0.1
-0.145
-0.155
-0.12
-0.265
-0.2
-0.165
-0.14
-0.085
-0.155
-0.135
-0.13
-0.085
-0.155
-0.165
-0.17
-0.1
-0.105
-0.11
-0.205
-0.255
-0.245
-0.28
-0.275
-0.23
-0.125
-0.195
-0.23
-0.185
-0.145
-0.105
-0.095
-0.13
-0.11
-0.095
-0.045
-0.02
0.035
0.185
0.23
0.24
0.24
0.315
0.32
0.26
0.145
0.125
0.055
0.045
-0.16
0.08
0.13
0.145
0.055
0.055
-0.035
-0.07
-0.115
-0.065
-0.13
-0.13
-0.2
-0.205
-0.215
-0.16
-0.175
-0.045
-0.125
-0.145
-0.21
-0.215
-0.245
-0.18
-0.16
-0.11
-0.31
-0.26
-0.15
-0.05
-0.17
-0.195
-0.235
-0.195
-0.1
-0.155
-0.19
-0.165
-0.125
-0.135
-0.09
-0.115
-0.2
-0.14
-0.145
-0.12
-0.155
-0.09
-0.095
-0.115
-0.12
-0.095
-0.22
-0.305
-0.18
-0.035
-0.11
-0.085
-0.165
-0.18
-0.085
-0.125
-0.155
-0.175
-0.145
-0.05
-0.255
-0.175
-0.23
-0.135
-0.08
-0.095
-0.08
-0.085
-0.005
-0.005
-0.045
-0.045
-0.055
-0.07
-0.08
-0.08
-0.13
-0.105
-0.18
-0.24
-0.195
-0.04
-0.06
-0.08
-0.05
-0.05
-0.045
-0.06
-0.12
-0.16
-0.15
-0.03
-0.06
-0.015
0.02
0.005
0.02
0.065
0.005
-0.035
0.01
0.03
0.025
0.025
-0.015
0.01
0.035
-0.03
0.095
0.11
0.09
0.025
0.14
0.085
0.0
-0.005
0.07
0.09
0.125
0.09
0.095
0.025
-0.02
0.07
0.09
0.02
0.015
0.07
0.02
0.135
0.165
0.06
0.005
-0.075
0.03
0.08
0.055
-0.02
0.01
0.035
0.03
-0.03
-0.02
-0.025
0.03
-0.05
-0.03
-0.06
-0.02
-0.12
-0.185
-0.245
-0.19
-0.225
-0.04
-0.085
-0.095
-0.085
-0.175
-0.205
-0.14
-0.21
-0.255
-0.29
-0.23
-0.15
-0.18
-0.145
-0.125
-0.145
-0.15
-0.23
-0.24
-0.315
-0.25
-0.2
-0.18
-0.165
-0.165
-0.215
-0.135
-0.155
-0.16
-0.225
-0.23
-0.255
-0.375
-0.205
-0.095
-0.17
-0.165
-0.215
-0.205
-0.15
-0.16
-0.15
-0.175
-0.215
-0.135
-0.24
-0.275
-0.145
-0.15
-0.21
-0.15
-0.2
-0.165
-0.13
-0.12
-0.13
-0.245
-0.195
-0.155
-0.21
-0.24
-0.275
-0.275
-0.335
-0.29
-0.185
-0.13
-0.17
-0.18
-0.205
-0.11
-0.01
-0.1
-0.145
-0.135
-0.12
-0.12
-0.165
-0.165
-0.17
-0.1
-0.08
-0.075
-0.075
-0.135
-0.145
-0.185
-0.205
-0.27
-0.24
-0.25
-0.215
-0.135
-0.175
-0.18
-0.21
-0.215
-0.25
-0.155
-0.22
-0.38
-0.265
-0.26
-0.15
-0.195
-0.08
-0.11
-0.23
-0.135
-0.155
-0.23
-0.175
-0.125
-0.155
-0.15
-0.17
-0.07
-0.12
-0.145
-0.14
-0.16
-0.155
-0.155
-0.065
-0.12
-0.14
-0.175
-0.18
-0.185
-0.235
-0.295
-0.28
-0.17
-0.09
-0.165
-0.095
-0.095
-0.095
-0.13
-0.1
-0.17
-0.17
-0.25
-0.28
-0.145
-0.1
-0.17
-0.115
-0.1
-0.19
-0.265
-0.23
-0.16
-0.13
-0.245
-0.28
-0.235
0.035
-0.055
-0.17
-0.225
-0.16
-0.125
-0.075
-0.17
-0.135
-0.055
-0.125
-0.15
-0.115
-0.09
-0.08
-0.095
-0.19
-0.2
-0.11
-0.095
-0.12
-0.185
-0.29
-0.235
-0.19
-0.23
-0.145
-0.235
-0.125
-0.165
-0.15
-0.165
-0.15
-0.245
-0.14
-0.105
-0.12
-0.21
-0.17
-0.16
-0.205
-0.31
-0.2
-0.145
-0.09
-0.135
-0.175
-0.175
-0.195
-0.3
-0.29
-0.23
-0.2
-0.18
-0.19
-0.215
-0.15
-0.13
-0.14
-0.225
-0.245
-0.145
-0.26
-0.225
-0.215
-0.265
-0.195
-0.165
-0.1
-0.145
-0.155
-0.185
-0.18
-0.23
-0.255
-0.195
-0.12
-0.13
-0.13
-0.185
-0.19
-0.195
-0.185
-0.145
-0.17
-0.145
-0.225
-0.165
-0.16
-0.175
-0.185
-0.215
-0.13
-0.145
-0.125
0.05
0.135
0.215
0.205
0.23
0.225
0.25
0.27
0.295
0.26
0.245
0.245
0.245
0.215
0.21
0.165
0.18
0.115
0.075
0.03
-0.095
-0.235
-0.19
-0.2
-0.205
-0.185
-0.225
-0.2
-0.185
-0.115
-0.155
-0.155
-0.155
-0.155
-0.155
-0.15
-0.155
-0.16
-0.165
-0.17
-0.175
-0.175
-0.17
-0.165
-0.155
-0.15
-0.155
-0.16
-0.175
-0.19
-0.2
-0.21
-0.205
-0.19
-0.175
-0.155
-0.14
-0.125
-0.115
-0.115
-0.115
-0.125
-0.135
-0.145
-0.15
-0.155
-0.15
-0.145
-0.14
-0.135
-0.13
-0.13
-0.13
-0.13
-0.125
-0.12
-0.115
-0.105
-0.1
-0.095
-0.1
-0.11
-0.12
-0.13
-0.14
-0.15
-0.16
-0.17
-0.175
-0.18
-0.175
-0.17
-0.165
-0.155
-0.15
-0.145
-0.145
-0.145
-0.145
-0.145
-0.14
-0.125
-0.11
-0.095
-0.08
-0.065
-0.06
-0.055
-0.055
-0.065
-0.07
-0.075
-0.075
-0.075
-0.065
-0.06
-0.055
-0.05
-0.05
-0.05
-0.05
-0.05
-0.045
-0.035
-0.015
0.01
0.03
0.045
0.045
0.04
0.03
0.015
0.005
0.0
0.005
0.015
0.035
0.055
0.07
0.085
0.09
0.09
0.085
0.085
0.085
0.085
0.09
0.095
0.11
0.12
0.13
0.14
0.15
0.155
0.155
0.15
0.135
0.12
0.1
0.08
0.065
0.05
0.035
0.03
0.02
0.015
0.005
-0.01
-0.03
-0.05
-0.075
-0.1
-0.12
-0.135
-0.14
-0.14
-0.14
-0.135
-0.135
-0.14
-0.145
-0.15
-0.15
-0.145
-0.13
-0.115
-0.1
-0.09
-0.085
-0.095
-0.105
-0.12
-0.135
-0.145
-0.145
-0.15
-0.145
-0.145
-0.145
-0.155
-0.165
-0.175
-0.18
-0.185
-0.185
-0.185
-0.18
-0.17
-0.165
-0.16
-0.155
-0.16
-0.17
-0.18
-0.185
-0.19
-0.185
-0.185
-0.18
-0.175
-0.17
-0.165
-0.155
-0.145
-0.14
-0.135
-0.135
-0.135
-0.14
-0.145
-0.15
-0.15
-0.15
-0.14
-0.135
-0.14
-0.15
-0.17
-0.195
-0.22
-0.235
-0.245
-0.24
-0.23
-0.205
-0.185
-0.17
-0.16
-0.16
-0.17
-0.18
-0.19
-0.185
-0.175
-0.16
-0.145
-0.135
-0.135
-0.145
-0.16
-0.175
-0.18
-0.175
-0.155
-0.13
-0.1
-0.08
-0.065
-0.065
-0.08
-0.105
-0.13
-0.155
-0.17
-0.175
-0.17
-0.165
-0.165
-0.165
-0.17
-0.175
-0.175
-0.17
-0.155
-0.13
-0.11
-0.095
-0.095
-0.1
-0.12
-0.14
-0.155
-0.16
-0.155
-0.14
-0.12
-0.1
-0.085
-0.085
-0.095
-0.115
-0.145
-0.17
-0.19
-0.2
-0.2
-0.185
-0.16
-0.135
-0.115
-0.1
-0.1
-0.11
-0.13
-0.15
-0.16
-0.17
-0.165
-0.16
-0.15
-0.135
-0.125
-0.12
-0.125
-0.13
-0.14
-0.15
-0.165
-0.18
-0.195
-0.205
-0.21
-0.205
-0.19
-0.17
-0.145
-0.115
-0.09
-0.07
-0.055
-0.05
-0.055
-0.06
-0.07
-0.08
-0.095
-0.115
-0.135
-0.15
-0.165
-0.175
-0.175
-0.17
-0.165
-0.16
-0.16
-0.16
-0.165
-0.17
-0.17
-0.17
-0.165
-0.16
-0.15
-0.145
-0.135
-0.13
-0.125
-0.12
-0.115
-0.115
-0.11
-0.105
-0.105
-0.105
-0.115
-0.13
-0.15
-0.17
-0.19
-0.2
-0.205
-0.2
-0.19
-0.17
-0.15
-0.135
-0.125
-0.12
-0.12
-0.12
-0.125
-0.12
-0.12
-0.115
-0.11
-0.11
-0.115
-0.125
-0.135
-0.145
-0.155
-0.155
-0.15
-0.145
-0.14
-0.135
-0.13
-0.13
-0.135
-0.145
-0.15
-0.15
-0.15
-0.14
-0.135
-0.125
-0.125
-0.125
-0.135
-0.14
-0.15
-0.155
-0.155
-0.15
-0.145
-0.145
-0.14
-0.14
-0.135
-0.125
-0.11
-0.095
-0.085
-0.08
-0.085
-0.105
-0.13
-0.155
-0.175
-0.185
-0.185
-0.175
-0.165
-0.155
-0.15
-0.145
-0.15
-0.15
-0.155
-0.155
-0.15
-0.145
-0.14
-0.13
-0.12
-0.115
-0.11
-0.11
-0.115
-0.12
-0.13
-0.135
-0.135
-0.13
-0.12
-0.11
-0.1
-0.1
-0.1
-0.11
-0.12
-0.135
-0.15
-0.16
-0.165
-0.16
-0.15
-0.135
-0.125
-0.115
-0.11
-0.11
-0.115
-0.12
-0.13
-0.135
-0.145
-0.145
-0.145
-0.14
-0.125
-0.11
-0.095
-0.085
-0.085
-0.1
-0.12
-0.145
-0.17
-0.185
-0.185
-0.175
-0.165
-0.15
-0.135
-0.13
-0.13
-0.13
-0.13
-0.12
-0.105
-0.095
-0.08
-0.075
-0.08
-0.095
-0.115
-0.14
-0.16
-0.18
-0.19
-0.195
-0.19
-0.18
-0.165
-0.155
-0.14
-0.125
-0.115
-0.105
-0.095
-0.09
-0.085
-0.095
-0.1
-0.115
-0.125
-0.14
-0.145
-0.14
-0.13
-0.115
-0.095
-0.08
-0.075
-0.075
-0.085
-0.095
-0.105
-0.11
-0.11
-0.105
-0.09
-0.08
-0.075
-0.08
-0.09
-0.1
-0.105
-0.105
-0.1
-0.08
-0.065
-0.045
-0.04
-0.04
-0.05
-0.065
-0.08
-0.09
-0.085
-0.075
-0.06
-0.045
-0.035
-0.035
-0.05
-0.075
-0.1
-0.125
-0.145
-0.155
-0.16
-0.16
-0.15
-0.145
-0.14
-0.135
-0.125
-0.115
-0.105
-0.095
-0.09
-0.095
-0.105
-0.12
-0.135
-0.15
-0.16
-0.155
-0.145
-0.125
-0.11
-0.095
-0.09
-0.09
-0.1
-0.115
-0.125
-0.13
-0.125
-0.115
-0.11
-0.105
-0.105
-0.115
-0.125
-0.145
-0.16
-0.17
-0.17
-0.17
-0.155
-0.145
-0.14
-0.135
-0.14
-0.145
-0.155
-0.155
-0.145
-0.125
-0.085
-0.035
0.02
0.08
0.135
0.19
0.24
0.285
0.325
0.355
0.375
0.38
0.375
0.355
0.32
0.28
0.24
0.205
0.175
0.15
0.12
0.095
0.06
0.02
-0.02
-0.06
-0.09
-0.115
-0.13
-0.13
-0.125
-0.115
-0.105
-0.1
-0.1
-0.1
-0.095
-0.095
-0.095
-0.1
-0.11
-0.12
-0.135
-0.15
-0.165
-0.175
-0.17
-0.155
-0.135
-0.115
-0.095
-0.085
-0.09
-0.1
-0.115
-0.13
-0.14
-0.14
-0.14
-0.125
-0.11
-0.095
-0.085
-0.085
-0.09
-0.1
-0.11
-0.12
-0.125
-0.125
-0.115
-0.105
-0.095
-0.085
-0.085
-0.09
-0.1
-0.115
-0.125
-0.13
-0.135
-0.13
-0.125
-0.115
-0.105
-0.095
-0.09
-0.085
-0.09
-0.09
-0.09
-0.095
-0.09
-0.09
-0.09
-0.085
-0.085
-0.085
-0.075
-0.06
-0.045
-0.03
-0.01
0.0
0.005
0.005
0.0
-0.005
-0.015
-0.015
-0.015
-0.015
-0.015
-0.015
-0.02
-0.025
-0.03
-0.03
-0.025
-0.02
-0.015
-0.01
-0.01
-0.005
-0.005
0.005
0.015
0.035
0.06
0.09
0.11
0.13
0.135
0.125
0.11
0.09
0.08
0.075
0.08
0.095
0.115
0.14
0.16
0.17
0.17
0.16
0.145
0.13
0.115
0.11
0.115
0.12
0.125
0.13
0.13
0.13
0.13
0.12
0.115
0.11
0.11
0.1
0.095
0.085
0.07
0.06
0.045
0.03
0.015
0.005
-0.01
-0.015
-0.025
-0.03
-0.035
-0.04
-0.05
-0.055
-0.065
-0.08
-0.095
-0.115
-0.13
-0.14
-0.145
-0.145
-0.14
-0.135
-0.13
-0.125
-0.125
-0.125
-0.125
-0.125
-0.125
-0.12
-0.115
-0.115
-0.11
-0.11
-0.11
-0.105
-0.105
-0.105
-0.105
-0.105
-0.105
-0.105
-0.105
-0.105
-0.105
-0.115
-0.125
-0.135
-0.145
-0.16
-0.165
-0.165
-0.155
-0.145
-0.13
-0.115
-0.105
-0.1
-0.095
-0.1
-0.105
-0.11
-0.11
-0.115
-0.125
-0.14
-0.155
-0.175
-0.19
-0.2
-0.2
-0.19
-0.175
-0.155
-0.14
-0.13
-0.13
-0.135
-0.145
-0.155
-0.16
-0.16
-0.16
-0.15
-0.145
-0.13
-0.12
-0.11
-0.1
-0.095
-0.09
-0.09
-0.095
-0.1
-0.105
-0.115
-0.12
-0.125
-0.125
-0.13
-0.13
-0.13
-0.13
-0.13
-0.125
-0.125
-0.12
-0.125
-0.13
-0.14
-0.15
-0.155
-0.16
-0.16
-0.16
-0.155
-0.15
-0.15
-0.14
-0.135
-0.125
-0.12
-0.115
-0.11
-0.105
-0.105
-0.105
-0.1
-0.095
-0.09
-0.085
-0.085
-0.09
-0.105
-0.115
-0.125
-0.135
-0.135
-0.13
-0.12
-0.11
-0.11
-0.11
-0.115
-0.125
-0.135
-0.145
-0.145
-0.14
-0.135
-0.125
-0.12
-0.115
-0.125
-0.135
-0.15
-0.165
-0.18
-0.185
-0.18
-0.17
-0.16
-0.15
-0.145
-0.145
-0.155
-0.165
-0.175
-0.17
-0.155
-0.13
-0.105
-0.08
-0.065
-0.065
-0.075
-0.09
-0.11
-0.12
-0.125
-0.12
-0.11
-0.095
-0.085
-0.085
-0.095
-0.115
-0.14
-0.165
-0.185
-0.2
-0.205
-0.21
-0.21
-0.205
-0.195
-0.195
-0.19
-0.18
-0.17
-0.16
-0.15
-0.145
-0.14
-0.14
-0.145
-0.15
-0.145
-0.13
-0.11
-0.095
-0.075
-0.065
-0.06
-0.07
-0.085
-0.105
-0.12
-0.13
-0.135
-0.135
-0.13
-0.13
-0.13
-0.14
-0.155
-0.17
-0.185
-0.19
-0.185
-0.165
-0.145
-0.125
-0.11
-0.105
-0.115
-0.13
-0.145
-0.16
-0.17
-0.175
-0.175
-0.175
-0.17
-0.165
-0.155
-0.155
-0.145
-0.14
-0.135
-0.135
-0.135
-0.135
-0.13
-0.125
-0.115
-0.105
-0.09
-0.085
-0.08
-0.085
-0.1
-0.12
-0.14
-0.155
-0.17
-0.18
-0.175
-0.175
-0.17
-0.165
-0.16
-0.155
-0.16
-0.165
-0.165
-0.17
-0.165
-0.16
-0.15
-0.14
-0.13
-0.125
-0.125
-0.13
-0.13
-0.13
-0.13
-0.12
-0.115
-0.105
-0.095
-0.095
-0.095
-0.1
-0.11
-0.115
-0.12
-0.12
-0.12
-0.115
-0.115
-0.11
-0.115
-0.125
-0.135
-0.145
-0.155
-0.15
-0.145
-0.125
-0.11
-0.095
-0.095
-0.11
-0.135
-0.16
-0.18
-0.185
-0.175
-0.155
-0.135
-0.115
-0.11
-0.115
-0.12
-0.13
-0.13
-0.12
-0.1
-0.075
-0.05
-0.03
-0.02
-0.025
-0.03
-0.045
-0.06
-0.07
-0.075
-0.08
-0.08
-0.075
-0.07
-0.06
-0.055
-0.05
-0.04
-0.035
-0.035
-0.04
-0.055
-0.07
-0.09
-0.11
-0.125
-0.13
-0.125
-0.11
-0.1
-0.095
-0.095
-0.105
-0.12
-0.145
-0.165
-0.175
-0.185
-0.19
-0.185
-0.185
-0.18
-0.17
-0.165
-0.155
-0.145
-0.13
-0.12
-0.105
-0.1
-0.1
-0.105
-0.115
-0.135
-0.15
-0.155
-0.16
-0.155
-0.14
-0.13
-0.115
-0.105
-0.105
-0.12
-0.135
-0.155
-0.175
-0.185
-0.19
-0.185
-0.17
-0.15
-0.13
-0.11
-0.09
-0.08
-0.07
-0.07
-0.065
-0.07
-0.07
-0.07
-0.06
-0.035
0.0
0.045
0.11
0.175
0.235
0.285
0.32
0.335
0.325
0.295
0.255
0.21
0.17
0.135
0.105
0.08
0.06
0.04
0.015
-0.015
-0.045
-0.075
-0.105
-0.125
-0.135
-0.14
-0.14
-0.14
-0.14
-0.145
-0.155
-0.165
-0.17
-0.17
-0.16
-0.14
-0.115
-0.095
-0.08
-0.075
-0.085
-0.1
-0.12
-0.135
-0.145
-0.14
-0.135
-0.13
-0.125
-0.12
-0.115
-0.11
-0.105
-0.09
-0.08
-0.06
-0.045
-0.035
-0.035
-0.04
-0.055
-0.08
-0.105
-0.125
-0.14
-0.15
-0.15
-0.14
-0.13
-0.115
-0.11
-0.1
-0.1
-0.095
-0.1
-0.095
-0.09
-0.08
-0.07
-0.055
-0.045
-0.04
-0.04
-0.045
-0.05
-0.055
-0.065
-0.07
-0.075
-0.08
-0.08
-0.08
-0.08
-0.08
-0.075
-0.07
-0.065
-0.06
-0.06
-0.055
-0.05
-0.045
-0.035
-0.02
-0.01
0.0
0.0
-0.005
-0.015
-0.025
-0.04
-0.045
-0.035
-0.02
0.005
0.03
0.055
0.075
0.085
0.085
0.075
0.06
0.05
0.04
0.035
0.04
0.045
0.055
0.07
0.08
0.095
0.105
0.11
0.12
0.125
0.13
0.125
0.12
0.11
0.1
0.095
0.09
0.1
0.115
0.13
0.145
0.16
0.165
0.165
0.155
0.145
0.14
0.135
0.135
0.135
0.135
0.125
-0.02
0.025
-0.025
-0.04
-0.045
-0.06
-0.09
-0.175
-0.115
-0.01
0.015
0.05
0.015
-0.02
-0.06
-0.1
-0.14
-0.19
-0.24
-0.065
-0.07
-0.1
-0.085
-0.145
-0.155
-0.155
-0.15
-0.16
-0.11
-0.165
-0.135
-0.155
-0.14
-0.085
0.025
-0.045
-0.15
-0.15
-0.105
-0.125
-0.09
-0.105
-0.08
-0.1
-0.185
-0.21
-0.175
-0.185
-0.1
-0.02
-0.095
-0.145
-0.07
-0.14
-0.27
-0.14
-0.035
-0.16
-0.17
-0.12
-0.165
-0.225
-0.075
-0.19
-0.19
-0.095
-0.085
-0.13
-0.095
-0.11
-0.085
-0.12
-0.075
-0.085
-0.195
-0.215
-0.225
-0.16
-0.19
-0.035
-0.085
-0.145
-0.115
-0.045
-0.04
-0.075
-0.065
-0.04
-0.01
-0.035
0.0
-0.085
-0.15
-0.175
-0.185
-0.065
-0.065
-0.095
-0.065
-0.045
-0.08
-0.145
-0.13
-0.26
-0.085
-0.095
-0.01
-0.16
-0.115
-0.095
-0.14
-0.135
-0.095
-0.175
-0.31
-0.125
-0.09
-0.12
-0.17
-0.05
0.0
0.04
-0.07
-0.09
-0.09
-0.09
-0.16
-0.105
-0.065
-0.065
-0.075
-0.055
-0.01
-0.035
-0.08
-0.18
-0.155
-0.215
-0.15
-0.015
0.045
-0.04
-0.09
-0.115
-0.16
-0.135
-0.09
-0.165
-0.115
-0.1
-0.08
-0.08
-0.115
-0.085
-0.11
-0.145
-0.16
-0.155
-0.145
-0.11
-0.15
-0.05
-0.115
-0.16
-0.15
-0.15
-0.135
-0.135
-0.18
-0.02
0.0
0.005
-0.05
-0.035
-0.115
-0.135
-0.115
-0.115
-0.22
-0.08
-0.03
0.06
-0.01
0.015
-0.09
-0.05
-0.095
-0.145
-0.15
-0.155
-0.255
0.05
-0.03
-0.16
-0.035
-0.035
-0.105
-0.095
-0.04
-0.015
-0.045
-0.05
-0.12
-0.09
-0.1
-0.16
-0.175
-0.045
0.02
0.03
-0.015
-0.01
-0.01
0.0
-0.035
-0.06
-0.18
-0.18
-0.075
-0.1
-0.165
-0.065
-0.145
-0.1
-0.08
-0.02
-0.1
-0.09
-0.215
-0.11
-0.045
-0.04
-0.15
-0.17
-0.17
-0.1
-0.15
-0.075
-0.13
-0.105
-0.19
-0.145
-0.1
-0.145
-0.06
-0.04
-0.06
-0.12
-0.115
-0.09
-0.135
-0.215
-0.1
-0.145
-0.265
-0.235
-0.195
-0.12
-0.055
-0.11
-0.155
-0.11
-0.075
-0.065
-0.12
-0.13
-0.175
-0.165
-0.13
-0.22
-0.2
-0.085
-0.02
-0.02
-0.035
-0.09
-0.025
-0.015
-0.065
-0.105
-0.09
-0.09
-0.07
-0.12
-0.145
-0.075
-0.015
-0.035
0.05
0.08
0.235
0.37
0.37
0.365
0.415
0.405
0.48
0.42
0.38
0.235
0.245
0.225
0.1
0.045
-0.075
-0.135
0.06
0.16
-0.02
-0.115
-0.115
-0.14
-0.115
-0.105
-0.15
-0.18
-0.06
-0.075
-0.14
-0.055
0.03
-0.08
-0.09
-0.135
-0.14
-0.06
0.055
0.03
0.04
0.045
0.025
-0.13
-0.135
-0.125
-0.125
-0.12
-0.1
-0.07
0.01
0.025
-0.045
-0.14
-0.18
-0.105
-0.105
-0.115
-0.075
-0.085
-0.075
-0.12
-0.13
-0.225
-0.185
-0.12
-0.08
-0.055
-0.05
-0.01
0.07
-0.005
0.02
-0.05
-0.12
-0.095
-0.075
-0.095
-0.075
0.01
0.025
-0.005
-0.015
-0.03
-0.1
-0.13
0.005
-0.01
0.035
0.085
0.115
0.02
-0.015
-0.165
-0.215
-0.215
-0.04
-0.095
-0.075
-0.03
0.01
-0.01
0.08
0.115
0.0
-0.035
-0.07
-0.04
-0.04
-0.08
0.02
0.02
0.15
0.175
0.19
0.055
-0.025
-0.11
-0.06
0.015
0.195
0.22
0.23
0.25
0.24
0.115
0.01
-0.025
0.055
0.05
0.205
0.185
0.255
0.285
0.19
0.135
0.01
0.0
0.06
0.145
0.155
0.19
0.27
0.285
0.275
0.18
0.105
0.025
0.11
0.185
0.25
0.26
0.235
0.27
0.225
0.135
0.04
-0.11
-0.03
0.02
0.065
0.12
0.145
0.12
0.105
-0.02
-0.155
-0.17
-0.045
-0.04
-0.08
-0.095
0.155
0.125
-0.075
-0.18
-0.215
-0.16
-0.09
0.035
0.06
0.095
0.005
0.0
-0.145
-0.215
-0.17
-0.13
-0.035
-0.075
-0.06
0.025
-0.015
-0.005
-0.05
-0.13
-0.205
-0.185
-0.21
-0.205
-0.125
-0.02
-0.065
-0.01
-0.065
-0.19
-0.175
-0.17
-0.17
-0.135
-0.07
-0.025
-0.125
-0.13
-0.16
-0.045
-0.28
-0.26
-0.25
-0.165
-0.115
-0.02
0.015
0.02
-0.125
-0.12
-0.2
-0.245
-0.21
-0.145
-0.055
0.185
0.04
-0.055
-0.05
-0.035
-0.19
-0.31
-0.21
-0.095
-0.14
-0.015
0.005
-0.06
-0.12
-0.075
-0.215
-0.205
-0.235
-0.15
-0.145
0.035
0.02
-0.045
-0.17
-0.1
-0.185
-0.135
-0.16
-0.12
0.005
0.045
0.005
-0.08
-0.115
-0.145
-0.24
-0.265
-0.205
-0.045
-0.09
0.045
0.07
0.065
-0.08
-0.185
-0.255
-0.22
-0.215
-0.115
0.075
0.1
0.065
-0.04
-0.18
-0.24
-0.27
-0.255
-0.13
-0.075
-0.02
-0.045
-0.1
0.05
-0.1
-0.175
-0.27
-0.28
-0.205
-0.155
-0.06
0.09
0.065
0.035
-0.125
-0.2
-0.225
-0.18
-0.09
-0.08
-0.015
-0.025
-0.05
-0.16
-0.045
-0.165
-0.155
-0.09
-0.055
-0.01
0.0
0.02
-0.03
-0.115
-0.165
-0.23
-0.21
-0.205
-0.18
-0.245
0.045
-0.025
-0.1
-0.27
-0.28
-0.285
-0.19
-0.095
-0.16
-0.055
0.005
-0.02
-0.035
-0.135
-0.135
-0.255
-0.17
-0.115
-0.005
-0.035
0.005
0.04
-0.035
-0.14
-0.24
-0.21
-0.185
-0.025
-0.09
-0.135
-0.04
0.04
0.01
-0.075
-0.155
-0.28
-0.17
-0.385
-0.105
-0.015
0.05
-0.055
-0.065
-0.13
-0.15
-0.265
-0.29
-0.215
-0.25
-0.1
-0.1
-0.045
-0.04
-0.09
-0.1
-0.2
-0.17
-0.13
-0.09
-0.035
0.05
0.02
-0.08
-0.185
-0.195
-0.265
-0.27
-0.16
-0.09
-0.025
0.035
-0.08
-0.16
-0.165
-0.11
-0.15
-0.16
-0.085
-0.085
0.04
0.05
0.065
-0.025
-0.14
-0.21
-0.195
-0.22
-0.155
-0.07
-0.045
-0.03
0.03
0.02
-0.02
-0.115
-0.23
-0.22
-0.09
0.035
0.035
0.01
0.065
0.04
-0.13
-0.195
-0.16
-0.145
-0.12
-0.115
-0.035
0.05
0.04
-0.035
-0.205
-0.235
-0.195
-0.105
-0.115
-0.04
0.0
-0.12
-0.12
-0.13
-0.195
-0.275
-0.225
-0.225
-0.135
-0.125
0.04
0.065
0.075
-0.035
-0.195
-0.345
-0.295
-0.23
-0.135
-0.11
-0.01
-0.03
-0.035
-0.125
-0.18
-0.255
-0.195
-0.085
-0.11
-0.09
-0.055
-0.09
0.005
-0.07
-0.14
-0.235
-0.205
-0.175
-0.07
-0.105
0.07
0.045
-0.03
-0.115
-0.165
-0.25
-0.19
-0.155
-0.055
0.015
0.105
0.27
0.26
0.245
0.325
0.245
0.205
0.265
0.27
0.275
0.225
0.52
0.43
0.255
0.195
0.075
0.005
0.01
0.1
0.085
0.085
0.01
0.04
-0.025
-0.05
-0.105
-0.16
-0.095
-0.04
-0.005
0.03
0.01
-0.14
-0.23
-0.265
-0.22
-0.24
-0.25
-0.19
0.0
0.14
0.035
-0.065
-0.12
-0.125
-0.22
-0.25
-0.245
-0.205
-0.055
-0.005
-0.085
-0.175
-0.195
-0.25
-0.345
-0.28
-0.185
-0.16
-0.06
0.0
-0.01
-0.04
-0.13
-0.27
-0.355
-0.24
-0.135
-0.095
-0.085
0.005
-0.04
-0.13
-0.15
-0.21
-0.34
-0.395
-0.085
-0.065
-0.05
0.095
-0.02
-0.14
-0.205
-0.275
-0.265
-0.365
-0.225
-0.13
0.01
-0.06
-0.025
-0.17
-0.275
-0.27
-0.2
-0.2
-0.14
-0.08
0.045
0.0
-0.035
-0.045
-0.115
-0.18
-0.145
-0.21
-0.15
-0.095
-0.03
-0.175
-0.155
-0.07
-0.17
-0.12
-0.13
-0.05
-0.075
0.01
0.18
0.065
0.045
-0.01
-0.065
-0.21
-0.175
-0.11
-0.015
0.07
0.14
0.065
0.14
0.095
-0.06
-0.19
-0.155
-0.09
-0.025
0.125
0.14
0.195
0.11
-0.025
0.025
-0.015
-0.095
0.01
0.085
0.05
0.105
0.135
0.11
0.015
0.09
-0.115
-0.18
-0.085
0.03
0.085
0.14
0.06
-0.005
-0.065
-0.11
-0.265
-0.215
-0.17
-0.13
-0.14
0.05
0.05
-0.075
-0.13
-0.115
-0.195
-0.3
-0.295
-0.185
-0.215
-0.09
-0.09
-0.21
-0.35
-0.305
-0.435
-0.295
-0.235
-0.16
-0.075
-0.075
-0.11
-0.16
-0.25
-0.235
-0.32
-0.34
-0.29
-0.11
-0.14
-0.035
0.02
-0.145
-0.305
-0.33
-0.345
-0.37
-0.325
-0.18
-0.105
-0.095
-0.085
-0.22
-0.26
-0.305
-0.4
-0.29
-0.37
-0.285
-0.15
0.015
-0.13
-0.245
-0.3
-0.43
-0.46
-0.245
-0.32
-0.255
-0.16
-0.075
-0.095
-0.085
-0.21
-0.305
-0.305
-0.29
-0.215
-0.2
-0.13
-0.065
-0.035
-0.105
-0.24
-0.385
-0.42
-0.28
-0.24
-0.175
-0.15
-0.065
-0.13
-0.195
-0.3
-0.345
-0.255
-0.29
-0.205
-0.135
-0.145
-0.115
-0.175
-0.31
-0.29
-0.395
-0.44
-0.29
-0.205
-0.12
-0.06
-0.145
-0.175
-0.33
-0.3
-0.455
-0.39
-0.19
-0.125
-0.155
-0.035
-0.065
-0.19
-0.22
-0.245
-0.34
-0.32
-0.255
-0.21
-0.095
0.03
-0.125
-0.18
-0.185
-0.225
-0.325
-0.32
-0.275
-0.165
-0.135
-0.07
-0.095
-0.19
-0.3
-0.31
-0.35
-0.31
-0.28
-0.185
-0.145
-0.075
-0.075
-0.155
-0.26
-0.365
-0.235
-0.31
-0.31
-0.175
-0.135
-0.115
-0.1
-0.14
-0.255
-0.355
-0.435
-0.43
-0.36
-0.275
-0.265
-0.095
-0.01
-0.125
-0.255
-0.2
-0.27
-0.425
-0.31
-0.155
-0.195
-0.18
-0.285
-0.265
-0.18
-0.14
-0.175
-0.23
-0.23
-0.14
-0.14
-0.17
-0.15
-0.15
-0.195
-0.305
-0.355
-0.385
-0.33
-0.2
-0.17
-0.12
-0.075
-0.14
-0.235
-0.345
-0.33
-0.365
-0.335
-0.24
-0.17
-0.11
-0.13
-0.255
-0.165
-0.285
-0.27
-0.38
-0.32
-0.19
-0.165
-0.17
-0.185
-0.435
-0.35
-0.255
-0.4
-0.36
-0.25
-0.03
-0.015
-0.08
-0.18
-0.205
-0.325
-0.305
-0.28
-0.41
-0.35
-0.19
-0.15
-0.155
-0.15
-0.17
-0.29
-0.33
-0.275
-0.265
-0.245
-0.35
-0.15
0.085
-0.065
-0.085
-0.245
-0.39
-0.495
-0.495
-0.375
-0.11
0.02
-0.04
-0.145
-0.285
-0.125
-0.305
-0.27
-0.21
-0.185
-0.11
-0.105
-0.185
-0.315
-0.345
-0.435
-0.455
-0.3
-0.235
-0.155
-0.19
-0.105
-0.14
-0.245
-0.24
-0.275
-0.285
-0.265
-0.32
-0.27
-0.195
-0.1
-0.175
-0.19
-0.2
-0.28
-0.415
-0.375
-0.22
-0.285
-0.19
-0.115
-0.075
-0.22
-0.31
-0.305
-0.42
-0.325
-0.23
-0.195
-0.155
-0.125
-0.1
-0.165
-0.13
-0.215
-0.315
-0.29
-0.275
-0.225
-0.12
-0.095
-0.105
-0.13
-0.225
-0.315
-0.43
-0.335
-0.345
-0.03
-0.07
-0.08
-0.005
-0.02
-0.225
-0.235
-0.25
-0.325
-0.22
-0.105
-0.07
-0.03
-0.045
-0.195
-0.305
-0.345
-0.29
-0.305
-0.215
-0.145
-0.08
-0.105
-0.2
-0.285
-0.26
-0.235
-0.265
-0.385
-0.325
-0.24
-0.17
-0.13
-0.075
-0.205
-0.335
-0.475
-0.475
-0.345
-0.135
-0.12
-0.165
-0.025
-0.11
-0.265
-0.325
-0.51
-0.41
-0.3
-0.385
-0.185
0.005
-0.11
-0.145
-0.25
-0.405
-0.52
-0.3
-0.315
-0.265
-0.13
-0.045
-0.085
-0.2
-0.21
-0.225
-0.245
-0.235
-0.295
-0.215
-0.135
-0.005
-0.015
-0.18
-0.245
-0.24
-0.225
-0.23
-0.095
-0.01
0.035
0.165
0.235
0.265
0.24
0.19
0.05
0.01
-0.04
-0.065
-0.21
-0.055
0.075
0.075
0.05
-0.085
-0.43
-0.3
-0.145
-0.035
-0.125
-0.09
-0.145
-0.22
-0.28
-0.275
-0.35
-0.32
-0.2
-0.085
-0.135
-0.01
-0.09
-0.06
-0.145
-0.33
-0.32
-0.33
-0.37
-0.3
-0.215
-0.055
-0.08
-0.17
-0.235
-0.285
-0.375
-0.36
-0.3
-0.185
-0.215
-0.135
-0.135
-0.225
-0.44
-0.195
-0.215
-0.27
-0.175
-0.185
-0.165
-0.125
-0.055
-0.135
-0.26
-0.36
-0.48
-0.485
-0.28
-0.15
-0.04
0.0
0.04
-0.135
-0.2
-0.305
-0.24
-0.255
-0.185
-0.105
-0.16
-0.095
-0.095
-0.235
-0.28
-0.225
-0.265
-0.29
-0.225
-0.065
-0.05
-0.02
-0.025
-0.085
-0.185
-0.355
-0.345
-0.28
-0.155
-0.085
-0.015
-0.03
-0.095
-0.215
-0.31
-0.355
-0.275
-0.175
-0.1
0.035
0.01
0.025
0.09
-0.05
-0.12
-0.215
-0.175
-0.19
-0.245
-0.025
0.165
0.07
0.065
-0.06
-0.11
-0.175
-0.145
-0.105
-0.015
0.035
0.045
0.015
-0.03
-0.03
-0.035
-0.05
0.02
0.08
0.075
-0.005
0.09
0.055
0.09
0.02
-0.06
-0.16
-0.085
0.025
0.01
0.105
0.095
0.125
0.06
-0.02
-0.07
-0.045
-0.125
-0.09
-0.025
-0.005
0.11
0.065
-0.055
-0.185
-0.03
-0.225
-0.18
-0.22
-0.195
-0.075
-0.005
-0.005
-0.11
-0.195
-0.245
-0.28
-0.34
-0.29
-0.25
-0.26
-0.14
-0.14
-0.13
-0.15
-0.22
-0.285
-0.345
-0.385
-0.285
-0.13
-0.155
-0.275
-0.135
-0.26
-0.39
-0.35
-0.28
-0.13
-0.185
-0.225
-0.035
-0.065
-0.145
-0.24
-0.205
-0.37
-0.39
-0.32
-0.165
-0.13
-0.16
-0.175
-0.245
-0.33
-0.33
-0.3
-0.255
-0.16
-0.18
-0.125
-0.1
-0.105
-0.14
-0.27
-0.31
-0.45
-0.52
-0.485
-0.095
0.05
-0.06
-0.135
-0.145
-0.275
-0.34
-0.35
-0.335
-0.3
-0.365
-0.13
-0.16
-0.14
-0.185
-0.115
-0.25
-0.26
-0.28
-0.3
-0.285
0.03
0.035
-0.085
-0.19
-0.28
-0.365
-0.345
-0.32
-0.18
-0.23
-0.015
-0.23
-0.12
-0.09
-0.2
-0.345
-0.385
-0.275
-0.105
-0.11
0.035
-0.005
-0.165
-0.245
-0.26
-0.295
-0.325
-0.18
-0.135
-0.11
-0.085
-0.16
-0.2
-0.31
-0.32
-0.425
-0.13
-0.165
-0.205
-0.2
-0.07
-0.07
-0.21
-0.25
-0.335
-0.24
-0.185
-0.21
-0.165
-0.16
-0.125
-0.19
-0.145
-0.22
-0.18
-0.355
-0.37
-0.315
-0.215
-0.135
-0.06
0.005
-0.115
-0.175
-0.2
-0.225
-0.28
-0.22
-0.22
-0.125
-0.075
-0.01
-0.14
-0.2
-0.22
-0.245
-0.2
-0.185
-0.17
-0.205
-0.16
-0.09
-0.205
-0.29
-0.215
-0.35
-0.41
-0.385
-0.24
-0.14
-0.085
-0.215
-0.045
-0.18
-0.315
-0.245
-0.29
-0.28
-0.305
-0.11
-0.08
-0.11
-0.125
-0.185
-0.275
-0.3
-0.27
-0.195
-0.07
-0.035
-0.105
-0.085
-0.21
-0.25
-0.32
-0.32
-0.34
-0.13
-0.085
-0.055
-0.095
-0.125
-0.21
-0.26
-0.345
-0.405
-0.215
-0.125
-0.075
-0.04
0.01
-0.055
-0.09
-0.105
-0.135
-0.175
-0.245
-0.175
-0.165
-0.135
-0.23
-0.245
-0.175
-0.125
-0.16
-0.195
-0.2
-0.155
-0.065
0.045
0.01
-0.045
-0.15
-0.325
-0.405
-0.22
-0.185
-0.15
-0.195
-0.085
-0.13
-0.21
-0.275
-0.235
-0.325
-0.3
-0.305
-0.18
-0.205
-0.145
-0.145
-0.155
-0.135
-0.155
-0.235
-0.295
-0.35
-0.2
-0.105
0.015
-0.035
-0.145
-0.285
-0.215
-0.235
-0.33
-0.375
-0.37
-0.34
-0.135
0.0
-0.105
-0.115
-0.085
-0.295
-0.32
-0.31
-0.245
-0.27
-0.145
-0.065
-0.12
-0.17
-0.215
-0.27
-0.21
-0.245
-0.215
-0.14
0.015
-0.155
-0.185
-0.19
-0.235
-0.34
-0.25
-0.22
-0.215
-0.205
-0.14
-0.145
-0.145
-0.205
-0.015
-0.02
0.12
0.14
0.21
0.315
0.415
0.56
0.51
0.32
0.18
0.015
-0.005
0.05
0.095
0.08
0.1
0.135
0.02
-0.175
-0.18
-0.33
-0.315
-0.215
-0.075
-0.05
-0.105
-0.145
-0.25
