# TIPE ECG 2021 - ECG-ID Database v1.0.0 par Physionet
# [Numéro de la personne, Période d'échantillonnage, Prénom, Age, Sexe, Date de l'enregistrement]
[09, 0.002, Tracey, 23, F, 05.04.2005]
-0.075
0.135
0.115
0.15
-0.065
-0.255
-0.31
-0.38
-0.34
-0.07
-0.055
0.095
0.065
0.105
-0.02
-0.26
-0.33
-0.335
-0.29
-0.16
-0.005
0.09
0.075
0.115
-0.075
-0.305
-0.27
-0.355
-0.21
-0.105
0.07
0.055
0.015
-0.07
-0.05
-0.19
-0.405
-0.25
-0.225
-0.135
0.01
0.03
0.11
0.055
-0.185
-0.275
-0.31
-0.265
-0.305
-0.065
0.055
0.2
0.085
0.005
-0.18
-0.315
-0.365
-0.29
-0.305
-0.1
0.0
0.115
0.1
0.085
-0.15
-0.41
-0.135
-0.395
-0.26
-0.025
0.025
-0.01
0.07
-0.02
-0.075
-0.325
-0.24
-0.305
-0.23
-0.24
0.005
0.08
0.055
0.08
-0.25
-0.22
-0.345
-0.36
-0.24
-0.145
0.045
0.145
0.075
-0.01
-0.195
-0.28
-0.34
-0.355
-0.28
-0.01
0.17
0.145
-0.005
-0.1
-0.155
-0.2
-0.365
-0.38
-0.285
-0.055
0.205
0.095
0.055
-0.015
-0.155
-0.395
-0.28
-0.385
-0.335
-0.025
0.08
0.175
-0.05
0.02
-0.16
-0.35
-0.33
-0.31
-0.23
0.025
0.11
0.105
0.175
-0.05
-0.225
-0.415
-0.365
-0.255
-0.125
-0.08
0.05
0.13
0.155
-0.095
-0.225
-0.43
-0.215
-0.265
-0.11
-0.065
0.03
0.085
0.09
-0.01
-0.315
-0.195
-0.23
-0.29
-0.215
-0.065
0.13
0.195
-0.095
-0.075
-0.255
-0.335
-0.335
-0.41
-0.105
0.025
0.055
0.11
0.02
-0.1
-0.195
-0.305
-0.33
-0.27
-0.19
-0.025
0.155
0.09
-0.035
-0.095
-0.11
-0.43
-0.42
-0.275
-0.055
0.02
0.185
0.17
0.09
-0.15
-0.265
-0.33
-0.33
-0.34
-0.13
0.12
0.155
0.125
0.11
-0.075
-0.295
-0.415
-0.215
-0.23
-0.095
0.085
0.205
0.065
0.105
-0.04
-0.19
-0.33
-0.195
-0.215
0.055
0.08
0.15
0.135
0.38
0.075
-0.36
-0.345
-0.3
-0.185
-0.05
0.07
0.055
0.055
-0.01
-0.085
-0.29
-0.35
-0.315
-0.345
0.03
0.06
0.04
0.065
0.045
-0.17
-0.275
-0.27
-0.38
-0.32
-0.07
0.12
0.055
0.02
0.09
-0.17
-0.3
-0.34
-0.36
-0.205
-0.075
0.115
0.13
0.045
-0.01
-0.145
-0.4
-0.425
-0.295
-0.1
0.02
0.015
0.185
0.005
0.105
-0.13
-0.38
-0.46
-0.31
-0.22
-0.05
0.1
0.12
0.1
-0.04
-0.225
-0.32
-0.315
-0.38
-0.17
0.025
0.03
0.085
0.04
-0.06
-0.155
-0.23
-0.135
-0.035
0.1
0.25
0.43
0.655
0.66
0.445
0.21
-0.015
-0.035
-0.075
0.04
0.215
0.275
0.15
0.155
-0.22
-0.36
-0.41
-0.61
-0.535
-0.24
-0.015
0.09
0.02
-0.01
-0.125
-0.31
-0.295
-0.33
-0.33
-0.16
-0.02
0.155
0.155
0.06
-0.08
-0.145
-0.275
-0.41
-0.29
-0.02
0.03
0.12
0.175
0.095
0.015
-0.19
-0.36
-0.33
-0.21
-0.1
0.055
0.24
0.02
0.115
-0.07
-0.26
-0.28
-0.235
-0.1
0.025
0.075
0.13
0.155
0.135
-0.07
-0.295
-0.255
-0.295
-0.25
0.01
0.12
0.205
0.165
0.07
-0.09
-0.18
-0.325
-0.215
-0.19
0.03
0.195
0.25
0.235
0.095
-0.125
-0.155
-0.225
-0.215
-0.115
0.025
0.255
0.125
0.24
0.215
0.005
-0.165
-0.29
-0.13
0.015
0.115
0.205
0.295
0.3
0.17
-0.02
-0.05
-0.085
-0.11
0.025
0.225
0.325
0.33
0.395
0.3
0.1
-0.08
-0.07
0.045
0.21
0.275
0.47
0.47
0.435
0.25
0.145
0.05
0.045
0.01
0.17
0.515
0.48
0.545
0.475
0.375
0.12
0.035
0.08
0.16
0.14
0.33
0.33
0.38
0.415
0.26
0.02
-0.075
-0.065
-0.055
0.08
0.23
0.285
0.31
0.325
0.105
-0.075
-0.165
-0.255
-0.21
0.0
0.08
0.14
0.135
0.165
0.015
-0.205
-0.23
-0.25
-0.175
-0.07
0.09
0.25
0.17
0.0
0.015
-0.2
-0.4
-0.275
-0.205
-0.06
0.04
0.165
0.23
0.25
-0.08
-0.27
-0.335
-0.27
-0.155
-0.05
0.06
0.14
0.195
0.07
-0.035
-0.205
-0.28
-0.235
-0.21
-0.065
0.06
0.21
0.115
0.165
-0.09
-0.255
-0.345
-0.265
-0.145
0.035
0.12
0.16
0.09
-0.01
-0.11
-0.16
-0.285
-0.375
-0.2
-0.015
-0.005
0.145
0.215
0.075
0.01
-0.275
-0.29
-0.305
-0.205
-0.01
0.105
0.27
0.175
0.05
-0.15
-0.19
-0.41
-0.28
-0.145
0.075
0.215
0.115
0.115
0.0
-0.085
-0.27
-0.365
-0.265
-0.09
0.06
0.12
0.21
0.09
0.03
-0.185
-0.265
-0.29
-0.23
-0.135
-0.08
0.05
0.26
0.115
0.015
-0.03
-0.27
-0.36
-0.25
-0.205
0.08
0.17
0.155
0.175
-0.09
-0.12
-0.23
-0.3
-0.3
-0.15
-0.005
0.255
0.165
0.055
-0.02
-0.14
-0.21
-0.31
-0.215
-0.11
0.075
0.155
0.14
0.055
0.045
-0.225
-0.375
-0.19
-0.215
-0.155
0.06
0.21
0.13
0.07
-0.065
-0.17
-0.3
-0.305
-0.17
-0.13
0.05
0.19
0.17
0.145
-0.13
-0.17
-0.265
-0.265
-0.29
-0.14
0.07
0.135
0.045
0.13
-0.07
-0.175
-0.255
-0.25
-0.18
-0.11
0.045
0.17
0.15
0.135
-0.14
-0.275
-0.29
-0.25
-0.225
-0.115
0.17
0.12
0.195
0.21
-0.11
-0.275
-0.33
-0.2
-0.205
-0.01
0.13
0.17
0.225
-0.025
-0.17
-0.265
-0.27
-0.245
-0.22
-0.045
0.085
0.14
0.095
0.15
-0.055
-0.27
-0.255
-0.255
-0.145
-0.05
0.095
0.21
0.12
0.115
-0.06
-0.25
-0.18
-0.26
-0.29
0.0
0.14
0.14
0.15
0.09
-0.06
-0.2
-0.335
-0.225
-0.185
-0.015
0.16
0.275
0.145
-0.015
-0.185
-0.23
-0.255
-0.215
-0.22
0.01
0.16
0.24
0.155
0.11
-0.17
-0.25
-0.235
-0.285
-0.225
0.06
0.205
0.12
0.155
-0.01
-0.08
-0.235
-0.28
-0.22
-0.15
0.055
0.125
0.19
0.14
0.025
-0.12
-0.22
-0.17
-0.145
-0.055
0.115
0.19
0.125
0.185
0.115
-0.165
-0.135
-0.155
-0.235
-0.015
0.125
0.24
0.185
0.135
0.03
-0.125
-0.195
-0.225
-0.155
-0.02
0.1
0.2
0.2
0.13
0.02
-0.06
-0.285
-0.245
-0.265
-0.17
0.11
0.195
0.17
0.075
0.01
-0.205
-0.25
-0.24
-0.265
-0.185
0.17
0.19
0.225
0.065
0.06
-0.155
-0.33
-0.275
-0.235
-0.045
0.14
0.12
0.085
0.11
-0.045
-0.165
-0.28
-0.17
-0.195
-0.015
0.065
0.125
0.105
0.065
-0.015
-0.26
-0.28
-0.23
-0.11
0.04
0.03
0.1
0.18
0.105
0.01
-0.265
-0.195
-0.285
-0.175
0.035
0.145
0.24
0.26
0.245
0.06
-0.005
-0.03
-0.005
0.195
0.535
0.675
0.595
0.515
0.31
0.1
-0.185
-0.16
-0.165
-0.115
-0.17
-0.01
0.02
0.035
-0.085
-0.175
-0.33
-0.415
-0.315
-0.26
-0.045
0.165
0.22
0.09
0.015
-0.04
-0.27
-0.295
-0.31
-0.095
0.095
0.235
0.22
0.16
0.09
-0.085
-0.275
-0.27
-0.2
-0.13
0.08
0.155
0.235
0.32
0.065
-0.15
-0.26
-0.22
-0.18
-0.03
0.135
0.12
0.13
0.07
0.12
0.045
-0.225
-0.225
-0.275
-0.07
0.145
0.225
0.275
0.205
0.01
-0.27
-0.18
-0.145
-0.15
0.0
0.14
0.23
0.18
0.18
0.115
-0.145
-0.12
-0.17
-0.02
-0.075
0.085
0.24
0.215
0.19
0.105
-0.075
-0.16
-0.19
-0.09
0.085
0.125
0.285
0.3
0.24
0.105
-0.055
0.0
-0.155
-0.08
0.105
0.295
0.28
0.41
0.23
0.23
-0.095
-0.075
-0.14
0.045
0.225
0.38
0.355
0.335
0.42
0.21
0.08
0.09
-0.035
0.09
0.415
0.51
0.44
0.435
0.465
0.295
0.165
0.045
0.12
0.24
0.36
0.53
0.52
0.505
0.445
0.25
0.04
0.015
0.12
0.075
0.235
0.335
0.46
0.43
0.24
0.11
0.025
-0.085
0.01
-0.035
0.105
0.34
0.305
0.185
0.155
0.02
-0.165
-0.16
-0.195
-0.15
0.105
0.21
0.17
0.15
0.09
0.015
-0.215
-0.19
-0.24
-0.085
0.05
0.195
0.22
0.23
0.075
-0.135
-0.255
-0.255
-0.235
-0.125
0.02
0.205
0.295
0.18
-0.01
-0.155
-0.245
-0.25
-0.285
-0.21
0.12
0.19
0.23
0.165
0.075
-0.045
-0.32
-0.235
-0.245
-0.155
0.03
0.23
0.075
0.155
0.065
-0.115
-0.22
-0.195
-0.24
-0.115
0.14
0.185
0.18
0.14
0.0
-0.2
-0.2
-0.255
-0.12
0.05
-0.025
0.135
0.21
0.11
0.095
-0.225
-0.34
-0.245
-0.22
-0.065
0.085
0.115
0.11
0.205
0.135
-0.17
-0.175
-0.2
-0.225
-0.06
0.125
0.18
0.15
0.165
-0.065
-0.27
-0.21
-0.21
-0.205
-0.05
0.17
0.1
0.18
0.15
0.015
-0.14
-0.27
-0.315
-0.175
-0.025
0.08
0.15
0.145
0.08
-0.04
-0.21
-0.3
-0.27
-0.21
-0.065
0.135
0.13
0.115
0.1
-0.075
-0.27
-0.2
-0.215
-0.135
-0.05
0.125
0.08
0.155
0.125
-0.1
-0.29
-0.37
-0.235
-0.22
0.035
0.13
0.145
0.225
0.145
-0.17
-0.285
-0.22
-0.25
-0.145
0.0
0.08
0.145
0.13
-0.1
-0.105
-0.23
-0.21
-0.425
-0.19
0.04
0.045
0.125
0.14
0.085
-0.255
-0.37
-0.315
-0.255
-0.195
0.03
0.14
0.19
0.075
0.05
-0.22
-0.37
-0.345
-0.24
-0.115
-0.04
0.135
0.165
0.1
-0.035
-0.275
-0.295
-0.285
-0.23
-0.09
0.005
0.105
0.175
0.095
-0.01
-0.265
-0.3
-0.295
-0.26
-0.225
-0.02
0.175
0.07
0.115
-0.005
-0.215
-0.34
-0.325
-0.235
-0.15
-0.035
0.07
0.035
0.16
0.105
-0.305
-0.345
-0.39
-0.325
-0.03
-0.005
0.185
0.145
0.215
-0.39
-0.3
-0.345
-0.325
-0.26
-0.125
0.07
0.165
0.15
-0.01
-0.115
-0.275
-0.28
-0.4
-0.415
-0.135
0.035
0.135
0.09
0.135
-0.06
-0.34
-0.395
-0.21
-0.325
-0.11
0.105
0.08
-0.035
-0.02
-0.15
-0.295
-0.31
-0.35
-0.255
-0.125
0.005
0.055
0.09
0.0
-0.145
-0.245
-0.305
-0.425
-0.275
-0.05
0.115
0.135
0.05
-0.04
-0.19
-0.33
-0.365
-0.275
-0.28
-0.09
-0.04
-0.025
0.08
0.05
-0.095
-0.38
-0.515
-0.355
-0.23
0.035
-0.02
0.045
-0.005
0.015
-0.155
-0.305
-0.38
-0.335
-0.3
-0.12
-0.01
0.035
0.085
-0.005
-0.19
-0.315
-0.4
-0.35
-0.22
-0.045
0.07
0.115
0.09
-0.07
-0.22
-0.27
-0.335
-0.34
-0.245
0.005
0.1
0.155
0.065
-0.035
-0.265
-0.4
-0.345
-0.275
-0.25
-0.075
-0.01
0.06
-0.02
-0.085
-0.235
-0.41
-0.57
-0.37
-0.25
-0.06
0.085
-0.03
-0.085
-0.15
-0.33
-0.4
-0.36
-0.345
-0.275
-0.04
0.155
-0.055
0.11
-0.215
-0.445
-0.445
-0.435
-0.44
-0.2
-0.05
0.03
0.015
-0.035
-0.16
-0.295
-0.465
-0.47
-0.4
-0.23
-0.01
-0.09
0.0
-0.22
-0.105
-0.35
-0.5
-0.435
-0.295
-0.125
-0.12
0.015
-0.085
-0.09
-0.24
-0.365
-0.515
-0.305
-0.375
-0.25
-0.11
0.12
0.14
0.04
-0.07
-0.07
-0.15
-0.08
0.015
0.2
0.385
0.51
0.395
0.11
-0.01
-0.175
-0.31
-0.41
-0.45
-0.305
-0.175
-0.05
-0.105
-0.21
-0.39
-0.47
-0.535
-0.62
-0.475
-0.305
-0.115
-0.035
-0.02
-0.065
-0.28
-0.385
-0.445
-0.37
-0.23
-0.225
-0.035
-0.11
-0.15
-0.09
-0.225
-0.365
-0.46
-0.465
-0.305
-0.14
0.005
-0.025
-0.05
-0.17
-0.295
-0.425
-0.295
-0.36
-0.365
-0.15
-0.01
0.025
0.015
-0.085
-0.325
-0.385
-0.39
-0.345
-0.31
0.05
0.065
-0.02
-0.045
-0.175
-0.32
-0.49
-0.435
-0.36
-0.295
-0.185
0.06
0.0
-0.045
-0.07
-0.31
-0.37
-0.345
-0.295
-0.2
-0.015
-0.05
-0.15
0.14
-0.04
-0.32
-0.29
-0.295
-0.275
-0.245
0.025
0.08
0.025
0.05
-0.045
-0.195
-0.4
-0.455
-0.215
-0.195
-0.045
0.19
0.155
0.23
-0.04
-0.255
-0.235
-0.315
-0.18
-0.045
0.1
0.245
0.155
0.175
0.115
-0.08
-0.23
-0.24
-0.145
0.045
0.24
0.285
0.35
0.325
0.095
-0.025
-0.01
-0.235
-0.155
0.105
0.205
0.305
0.385
0.275
0.125
-0.055
-0.3
-0.165
-0.005
0.095
0.165
0.135
0.1
0.115
-0.045
-0.26
-0.285
-0.3
-0.285
-0.145
-0.03
0.1
0.075
0.085
-0.23
-0.4
-0.455
-0.375
-0.31
-0.175
0.005
-0.035
-0.03
-0.1
-0.245
-0.435
-0.42
-0.41
-0.385
-0.18
-0.16
-0.125
-0.06
-0.01
-0.275
-0.36
-0.575
-0.465
-0.35
-0.21
-0.04
-0.015
-0.075
-0.12
-0.36
-0.535
-0.465
-0.44
-0.285
-0.205
-0.095
-0.01
-0.125
-0.19
-0.275
-0.38
-0.495
-0.44
-0.275
-0.225
-0.065
0.02
-0.125
-0.23
-0.36
-0.435
-0.465
-0.56
-0.375
-0.105
-0.01
-0.02
-0.09
-0.09
-0.365
-0.495
-0.55
-0.44
-0.33
-0.175
-0.075
-0.03
-0.1
-0.255
-0.41
-0.39
-0.525
-0.345
-0.395
-0.165
0.03
0.055
-0.075
-0.2
-0.42
-0.495
-0.485
-0.47
-0.34
-0.075
0.085
-0.17
-0.055
-0.23
-0.385
-0.57
-0.54
-0.405
-0.215
-0.23
-0.04
-0.09
-0.07
-0.235
-0.385
-0.335
-0.59
-0.52
-0.295
-0.13
-0.005
-0.155
-0.08
-0.185
-0.355
-0.535
-0.46
-0.53
-0.4
-0.15
-0.055
-0.08
-0.055
-0.21
-0.445
-0.51
-0.535
-0.445
-0.27
-0.16
0.01
-0.015
-0.1
-0.235
-0.51
-0.49
-0.485
-0.42
-0.22
-0.055
-0.11
-0.1
-0.095
-0.325
-0.385
-0.48
-0.475
-0.48
-0.305
-0.075
-0.125
-0.065
-0.08
-0.295
-0.475
-0.55
-0.585
-0.505
-0.275
-0.025
-0.035
-0.15
-0.195
-0.355
-0.47
-0.535
-0.55
-0.335
-0.105
-0.065
-0.025
0.005
-0.245
-0.48
-0.52
-0.525
-0.43
-0.405
-0.2
-0.11
-0.075
-0.135
-0.095
-0.245
-0.43
-0.51
-0.525
-0.365
-0.225
-0.22
-0.09
-0.05
-0.235
-0.355
-0.535
-0.525
-0.52
-0.5
-0.09
-0.025
-0.125
-0.12
-0.19
-0.36
-0.46
-0.48
-0.495
-0.48
-0.26
-0.025
-0.1
-0.075
-0.085
-0.395
-0.585
-0.535
-0.515
-0.33
-0.19
-0.08
-0.065
-0.09
-0.215
-0.305
-0.495
-0.59
-0.48
-0.34
-0.205
-0.115
-0.055
-0.085
-0.235
-0.365
-0.495
-0.505
-0.465
-0.365
-0.245
-0.135
-0.04
-0.095
-0.165
-0.49
-0.51
-0.51
-0.52
-0.325
-0.13
-0.075
-0.135
-0.16
-0.27
-0.455
-0.45
-0.475
-0.415
-0.355
-0.26
-0.08
-0.095
-0.085
-0.27
-0.48
-0.35
-0.415
-0.49
-0.44
-0.125
-0.05
-0.1
-0.2
-0.415
-0.44
-0.505
-0.44
-0.44
-0.235
-0.105
-0.12
-0.135
-0.075
-0.295
-0.57
-0.46
-0.54
-0.505
-0.19
-0.095
-0.105
-0.15
-0.205
-0.35
-0.395
-0.565
-0.47
-0.525
-0.26
-0.08
-0.1
-0.21
-0.155
-0.29
-0.45
-0.475
-0.555
-0.39
-0.22
-0.125
-0.1
-0.21
-0.125
-0.37
-0.455
-0.495
-0.52
-0.31
-0.27
-0.11
-0.075
-0.04
-0.13
-0.335
-0.425
-0.545
-0.625
-0.37
-0.16
-0.125
-0.085
-0.065
-0.125
-0.34
-0.47
-0.4
-0.43
-0.405
-0.235
0.025
0.095
-0.035
-0.27
-0.38
-0.445
-0.45
-0.43
-0.2
-0.1
0.005
-0.045
-0.05
-0.12
-0.36
-0.45
-0.4
-0.485
-0.26
-0.19
-0.265
-0.08
-0.12
-0.205
-0.35
-0.51
-0.49
-0.535
-0.38
-0.155
-0.005
-0.035
-0.265
-0.245
-0.29
-0.51
-0.545
-0.58
-0.285
-0.11
-0.02
-0.07
-0.155
-0.23
-0.365
-0.545
-0.545
-0.49
-0.31
-0.165
-0.075
-0.055
-0.095
-0.175
-0.455
-0.52
-0.585
-0.485
-0.315
-0.17
0.075
-0.135
-0.195
-0.235
-0.385
-0.465
-0.495
-0.335
-0.345
-0.165
0.045
-0.14
-0.215
-0.215
-0.385
-0.585
-0.57
-0.39
-0.16
0.015
0.115
0.175
0.14
-0.045
-0.07
-0.09
0.035
0.01
0.145
0.17
0.18
0.17
0.15
-0.24
-0.405
-0.47
-0.53
-0.47
-0.385
-0.325
-0.165
-0.175
-0.34
-0.46
-0.565
-0.395
-0.58
-0.435
-0.235
-0.065
-0.015
-0.175
-0.15
-0.33
-0.475
-0.435
-0.44
-0.33
-0.21
0.02
-0.08
0.02
-0.16
-0.235
-0.41
-0.47
-0.44
-0.32
-0.13
-0.085
-0.09
-0.105
-0.095
-0.225
-0.385
-0.435
-0.42
-0.18
-0.1
-0.105
-0.045
-0.05
-0.095
-0.23
-0.36
-0.505
-0.515
-0.25
-0.045
-0.025
0.085
0.0
-0.08
-0.28
-0.37
-0.385
-0.385
-0.24
-0.12
0.05
0.04
0.07
-0.085
-0.305
-0.445
-0.44
-0.21
-0.23
-0.065
0.025
0.06
0.13
-0.095
-0.17
-0.325
-0.395
-0.25
-0.225
-0.135
0.24
0.165
0.08
-0.025
-0.175
-0.28
-0.23
-0.25
-0.125
0.095
0.1
0.135
0.12
0.075
-0.13
-0.27
-0.23
-0.12
0.08
0.27
0.29
0.16
0.165
0.055
-0.055
-0.065
-0.075
-0.01
0.07
0.235
0.375
0.345
0.32
0.18
-0.01
-0.04
-0.015
0.035
0.13
0.315
0.32
0.405
0.285
0.135
-0.065
-0.21
-0.145
-0.07
-0.055
0.13
0.265
0.165
0.0
0.13
-0.175
-0.285
-0.205
-0.19
-0.06
0.17
0.1
0.125
0.08
-0.32
-0.415
-0.29
-0.32
-0.25
-0.145
0.05
0.07
0.05
0.065
-0.215
-0.395
-0.35
-0.4
-0.355
-0.145
-0.01
0.125
0.02
-0.02
-0.19
-0.325
-0.37
-0.285
-0.37
-0.215
-0.065
0.04
0.085
-0.09
-0.16
-0.425
-0.43
-0.315
-0.285
-0.12
0.055
0.01
0.03
-0.065
-0.24
-0.415
-0.36
-0.405
-0.32
-0.04
-0.01
0.195
0.045
-0.085
-0.245
-0.365
-0.35
-0.29
-0.285
-0.03
0.075
0.035
-0.045
-0.045
-0.37
-0.36
-0.415
-0.435
-0.235
-0.02
-0.015
0.035
0.165
0.03
-0.23
-0.415
-0.415
-0.3
-0.185
-0.02
0.015
0.03
-0.055
-0.13
-0.165
-0.485
-0.43
-0.41
-0.21
-0.055
0.11
0.095
0.01
-0.145
-0.275
-0.425
-0.265
-0.305
-0.115
-0.075
-0.04
0.08
0.115
-0.205
-0.375
-0.42
-0.32
-0.365
-0.135
-0.035
0.065
0.02
-0.015
-0.155
-0.31
-0.385
-0.31
-0.285
-0.245
-0.095
0.115
0.145
0.13
-0.145
-0.41
-0.42
-0.39
-0.3
-0.185
-0.025
0.06
0.06
0.06
-0.1
-0.31
-0.46
-0.235
-0.315
-0.19
-0.015
-0.035
0.17
0.14
-0.12
-0.395
-0.41
-0.405
-0.295
-0.08
-0.025
0.075
0.015
0.01
-0.135
-0.275
-0.445
-0.425
-0.32
-0.005
0.12
0.135
0.01
-0.11
-0.12
-0.31
-0.345
-0.295
-0.245
-0.155
0.08
0.175
0.065
0.015
-0.22
-0.4
-0.285
-0.385
-0.385
-0.215
0.14
0.15
0.045
-0.06
-0.29
-0.31
-0.405
-0.46
-0.22
-0.01
0.145
0.05
0.075
-0.04
-0.205
-0.325
-0.34
-0.3
-0.275
-0.12
0.11
0.105
0.105
0.0
-0.22
-0.34
-0.315
-0.315
-0.17
-0.04
0.185
0.09
-0.005
-0.055
-0.205
-0.37
-0.375
-0.32
-0.17
-0.05
0.155
0.13
0.005
-0.115
-0.13
-0.28
-0.33
-0.39
-0.16
0.04
0.09
0.095
0.03
-0.195
-0.245
-0.295
-0.29
-0.28
-0.15
-0.03
0.08
0.085
-0.08
-0.005
-0.31
-0.2
-0.18
-0.3
-0.125
-0.07
0.125
0.12
0.185
-0.115
-0.25
-0.305
-0.255
-0.365
-0.155
-0.025
0.11
0.11
0.055
-0.11
-0.26
-0.325
-0.315
-0.24
-0.02
-0.005
0.13
0.145
0.06
-0.125
-0.175
-0.27
-0.38
-0.31
-0.07
-0.055
0.155
0.075
0.035
-0.05
-0.315
-0.28
-0.235
-0.225
-0.105
0.035
-0.08
0.32
0.19
-0.045
-0.36
-0.405
-0.29
-0.205
0.01
0.12
0.15
0.105
0.02
-0.21
-0.205
-0.375
-0.32
-0.23
-0.055
0.13
0.165
0.135
0.13
-0.17
-0.26
-0.44
-0.31
-0.1
-0.025
0.09
0.22
0.015
-0.015
-0.16
-0.31
-0.37
-0.235
-0.045
0.115
-0.045
-0.045
0.085
0.085
-0.05
-0.27
-0.305
-0.365
-0.14
0.1
0.055
0.14
0.185
-0.005
-0.18
-0.315
-0.225
-0.22
-0.085
0.03
0.095
0.17
0.215
0.1
-0.1
-0.215
-0.275
-0.275
-0.115
0.075
0.185
0.19
0.21
0.095
-0.15
-0.165
-0.19
-0.265
-0.03
0.175
0.135
0.035
0.325
0.23
-0.18
-0.32
-0.265
-0.285
-0.075
0.055
0.06
0.14
0.15
-0.135
-0.2
-0.19
-0.275
-0.31
-0.13
0.025
0.145
0.11
0.095
0.04
-0.24
-0.29
-0.295
-0.265
-0.035
0.11
0.115
0.105
0.06
-0.12
-0.2
-0.285
-0.28
-0.165
-0.07
0.115
0.25
0.095
-0.005
-0.045
-0.22
-0.335
-0.3
-0.195
-0.04
0.235
0.1
0.1
0.115
-0.195
-0.26
-0.255
-0.2
-0.195
-0.04
0.055
0.195
0.1
0.105
-0.06
-0.245
-0.345
-0.245
-0.16
0.06
0.245
0.35
0.445
0.36
0.265
0.255
0.23
0.335
0.27
0.39
0.525
0.595
0.24
0.24
0.05
-0.245
-0.31
-0.385
-0.315
-0.13
0.04
0.135
-0.02
-0.04
-0.275
-0.25
-0.28
-0.3
-0.27
-0.04
0.18
0.205
0.2
0.065
-0.095
-0.25
-0.25
-0.235
-0.11
0.06
0.2
0.215
0.105
0.045
-0.11
-0.16
-0.12
-0.125
-0.14
-0.01
0.19
0.255
0.125
0.075
-0.11
-0.195
-0.195
-0.125
0.035
0.125
0.155
0.17
0.3
0.035
-0.125
-0.21
-0.205
-0.13
-0.015
0.13
0.325
0.35
0.13
0.025
-0.17
-0.165
-0.17
-0.17
-0.025
0.26
0.23
0.27
0.265
0.105
-0.075
-0.205
-0.135
-0.08
0.04
0.22
0.31
0.31
0.185
0.015
0.05
-0.09
-0.12
-0.035
0.045
0.24
0.35
0.335
0.275
0.165
-0.04
-0.015
-0.03
-0.01
0.115
0.475
0.46
0.465
0.3
0.16
0.065
0.005
0.075
0.09
0.285
0.47
0.555
0.49
0.435
0.26
0.195
0.065
0.215
0.2
0.315
0.48
0.685
0.625
0.53
0.365
0.305
0.16
0.195
0.225
0.39
0.54
0.585
0.545
0.52
0.31
0.0
0.17
0.125
0.17
0.34
0.505
0.39
0.465
0.29
0.185
0.07
-0.055
-0.05
0.0
0.165
0.38
0.31
0.335
0.21
0.1
-0.26
-0.125
-0.18
-0.115
0.085
0.325
0.18
0.18
0.13
0.005
-0.195
-0.175
-0.135
-0.11
0.085
0.19
0.2
0.19
0.105
-0.095
-0.175
-0.185
-0.17
-0.095
0.12
0.165
0.205
0.2
0.125
0.01
-0.205
-0.21
-0.195
-0.08
0.075
0.205
0.34
0.265
0.04
-0.065
-0.215
-0.185
-0.11
-0.035
0.18
0.21
0.12
0.16
0.11
-0.1
-0.225
-0.155
-0.16
0.035
0.19
0.225
0.19
0.16
0.095
-0.01
-0.22
-0.185
-0.215
-0.08
0.17
0.27
0.255
0.2
0.075
-0.04
-0.185
-0.31
-0.175
0.025
0.17
0.265
0.22
0.35
0.06
-0.14
-0.215
-0.295
-0.07
0.095
0.165
0.255
0.245
0.13
0.005
-0.105
-0.155
-0.215
-0.155
0.0
0.055
0.27
0.28
0.225
0.09
-0.08
-0.225
-0.17
-0.11
0.0
0.165
0.28
0.135
0.22
0.065
-0.225
-0.22
-0.105
-0.055
-0.045
0.13
0.275
0.22
0.115
0.005
-0.11
-0.155
-0.24
-0.17
0.085
0.2
0.165
0.17
0.12
0.015
-0.18
-0.305
-0.11
-0.055
0.16
0.215
0.09
0.18
0.095
-0.01
-0.16
-0.225
-0.27
-0.005
0.12
0.21
0.125
0.11
0.06
0.055
-0.125
-0.23
-0.16
-0.08
0.005
0.255
0.235
0.21
0.225
-0.08
-0.215
-0.305
-0.165
0.02
0.13
0.215
0.28
0.12
0.05
-0.085
-0.22
-0.155
-0.19
-0.105
0.145
0.22
0.21
0.32
0.165
-0.14
-0.275
-0.185
-0.145
-0.055
0.15
0.175
0.32
0.175
-0.015
-0.115
-0.135
-0.185
-0.185
-0.01
0.16
0.27
0.115
0.17
-0.01
-0.105
-0.11
-0.205
-0.175
-0.015
0.165
0.225
0.235
0.215
0.045
-0.065
-0.18
-0.3
-0.22
-0.035
0.12
0.18
0.23
0.14
0.04
-0.02
-0.15
-0.21
-0.225
0.025
0.175
0.24
0.23
0.255
0.04
-0.225
-0.155
-0.155
-0.08
0.065
0.05
0.19
0.2
0.205
0.115
-0.115
-0.17
-0.21
-0.145
0.095
0.045
0.205
0.21
0.175
0.12
-0.115
-0.235
-0.22
-0.135
0.08
0.19
0.345
0.11
0.215
0.055
-0.22
-0.21
-0.225
-0.12
0.09
0.22
0.23
0.245
0.12
-0.045
-0.185
-0.225
-0.19
-0.09
0.1
0.33
0.23
0.265
0.185
0.03
-0.21
-0.245
-0.165
-0.05
0.045
0.265
0.32
0.265
0.205
0.02
-0.155
-0.34
-0.12
-0.045
0.115
0.315
0.265
0.28
0.225
0.04
-0.115
-0.16
-0.115
0.045
0.075
0.22
0.25
0.26
0.22
-0.035
-0.16
-0.285
-0.31
0.0
0.095
0.19
0.22
0.2
0.13
-0.025
-0.15
-0.31
-0.33
0.04
0.185
0.16
0.32
0.215
0.09
-0.1
-0.24
-0.225
-0.185
0.01
0.27
0.12
0.075
0.17
0.075
-0.085
-0.175
-0.265
-0.145
-0.045
0.03
0.15
0.25
0.25
0.02
-0.18
-0.215
-0.15
-0.22
-0.06
0.26
0.17
0.135
0.08
0.165
0.115
-0.415
-0.22
-0.125
-0.06
0.175
0.265
0.2
0.165
0.09
-0.12
-0.185
-0.055
-0.01
0.29
0.46
0.585
0.64
0.715
0.545
0.275
0.195
0.215
0.025
0.115
0.27
0.29
0.135
0.125
-0.115
-0.22
-0.38
-0.41
-0.245
-0.02
-0.065
0.035
0.085
0.075
-0.16
-0.095
-0.18
-0.175
-0.14
0.01
0.07
0.315
0.215
0.12
0.09
-0.065
-0.24
-0.165
-0.12
0.015
0.165
0.25
0.23
0.205
0.07
-0.15
-0.165
-0.125
-0.105
0.055
0.155
0.38
0.245
0.15
0.07
-0.255
-0.21
-0.125
-0.12
0.09
0.285
0.315
0.215
0.12
0.04
-0.025
-0.19
-0.155
-0.01
0.12
0.315
0.255
0.245
0.13
-0.035
-0.1
-0.125
-0.215
0.015
0.1
0.315
0.35
0.375
0.23
0.005
-0.01
-0.045
-0.085
-0.095
0.135
0.335
0.385
0.385
0.155
-0.03
-0.025
-0.045
-0.02
0.09
0.285
0.365
0.435
0.205
0.285
0.14
-0.02
-0.045
-0.01
0.2
0.435
0.505
0.415
0.42
0.4
0.17
0.125
-0.02
0.04
0.255
0.52
0.64
0.435
0.545
0.485
0.21
0.155
0.14
0.235
0.43
0.55
0.68
0.56
0.615
0.455
0.18
0.165
0.115
0.12
0.345
0.52
0.54
0.54
0.525
0.205
0.175
0.045
-0.04
0.1
0.145
0.385
0.48
0.36
0.355
0.095
0.005
-0.095
-0.14
-0.045
0.115
0.34
0.32
0.24
0.115
-0.005
-0.1
-0.105
-0.105
-0.12
0.055
0.23
0.135
0.185
0.24
0.07
-0.095
-0.2
-0.24
-0.18
0.05
0.18
0.25
0.17
0.065
0.04
-0.22
-0.255
-0.14
-0.07
0.1
0.19
0.23
0.275
0.21
-0.12
-0.215
-0.105
-0.235
-0.14
0.04
0.16
0.24
0.24
0.17
-0.065
-0.21
-0.165
-0.195
-0.125
0.145
0.23
0.17
0.115
0.03
-0.06
-0.185
-0.17
-0.19
-0.07
0.09
0.225
0.255
0.035
0.015
-0.07
-0.195
-0.255
-0.17
-0.02
0.17
0.125
0.175
0.08
0.13
0.02
-0.225
-0.185
-0.14
-0.125
0.115
0.175
0.26
0.175
-0.01
-0.03
-0.155
-0.295
-0.19
-0.145
0.065
0.2
0.25
0.285
0.03
-0.155
-0.21
-0.2
-0.325
-0.005
0.125
0.11
0.265
0.15
0.015
-0.11
-0.29
-0.23
-0.165
0.005
0.105
0.17
0.155
0.16
0.1
-0.06
-0.345
-0.25
-0.165
-0.065
0.04
0.335
0.255
0.215
-0.08
-0.2
-0.29
-0.235
-0.155
-0.025
0.075
0.22
0.155
0.11
-0.075
-0.17
-0.21
-0.26
-0.19
-0.03
0.065
0.135
0.215
0.08
-0.095
-0.22
-0.14
-0.115
-0.275
-0.085
0.11
0.205
0.18
0.075
-0.065
-0.205
-0.25
-0.175
-0.22
-0.025
0.095
0.205
0.105
0.245
0.02
-0.28
-0.35
-0.285
-0.21
-0.005
0.18
0.195
0.195
0.005
-0.005
-0.17
-0.32
-0.33
-0.095
-0.09
0.07
0.18
0.15
0.055
-0.085
-0.3
-0.205
-0.195
-0.19
-0.01
0.195
0.115
0.145
0.135
-0.1
-0.285
-0.25
-0.17
-0.145
0.035
0.125
0.25
0.205
0.06
-0.065
-0.145
-0.29
-0.185
-0.115
0.135
0.195
0.185
0.23
0.125
-0.07
-0.28
-0.215
-0.135
-0.19
0.105
0.215
0.19
0.155
0.04
-0.07
-0.245
-0.235
-0.215
-0.225
0.065
0.155
0.165
0.105
-0.01
-0.15
-0.215
-0.34
-0.275
-0.195
-0.01
0.12
0.17
0.12
-0.04
-0.265
-0.295
-0.315
-0.27
-0.09
0.115
0.02
0.075
0.135
-0.05
-0.2
-0.33
-0.295
-0.235
-0.155
0.015
0.145
0.07
0.11
-0.045
-0.2
-0.36
-0.305
-0.255
0.005
0.035
0.12
0.1
0.04
0.02
-0.135
-0.375
-0.29
-0.295
-0.095
0.09
0.05
0.125
0.04
-0.14
-0.18
-0.205
-0.305
-0.17
-0.01
-0.005
0.175
0.25
0.16
0.065
-0.04
-0.095
-0.015
0.075
0.245
0.44
0.4
0.345
0.165
-0.115
-0.335
-0.245
-0.355
-0.305
-0.23
-0.1
-0.02
-0.055
-0.085
-0.22
-0.365
-0.375
-0.245
-0.42
-0.345
-0.1
0.08
0.09
0.1
-0.15
-0.285
-0.31
-0.35
-0.175
0.0
0.105
0.12
0.105
-0.015
-0.195
-0.22
-0.265
-0.265
-0.245
0.0
0.15
0.175
0.14
0.22
-0.06
-0.3
-0.3
-0.235
-0.275
0.015
0.07
0.15
0.04
0.135
-0.155
-0.22
-0.32
-0.305
-0.145
0.02
0.07
0.14
0.2
-0.025
-0.215
-0.245
-0.185
-0.2
-0.07
-0.03
0.145
0.12
0.115
0.09
-0.185
-0.27
-0.305
-0.125
-0.03
0.075
0.14
0.165
0.215
-0.01
-0.105
-0.29
-0.225
-0.125
0.01
0.135
0.3
0.16
0.2
0.04
-0.1
-0.205
-0.2
-0.175
0.1
0.19
0.21
0.255
0.21
0.19
-0.02
-0.18
-0.175
-0.085
0.125
0.235
0.39
0.44
0.37
0.13
-0.005
-0.105
-0.04
0.035
0.155
0.31
0.395
0.37
0.38
0.21
0.035
-0.01
0.005
0.09
0.305
0.26
0.38
0.39
0.325
0.13
-0.085
-0.055
0.015
-0.065
0.06
0.235
0.345
0.245
0.19
0.025
-0.19
-0.18
-0.275
-0.195
0.005
0.055
0.2
0.135
0.075
-0.125
-0.205
-0.355
-0.29
-0.3
-0.09
0.1
0.175
0.1
0.055
-0.205
-0.41
-0.345
-0.285
-0.21
-0.1
0.075
-0.02
-0.02
-0.03
-0.235
-0.34
-0.36
-0.36
-0.18
-0.09
0.05
0.06
0.065
0.0
-0.27
-0.34
-0.34
-0.445
-0.21
-0.015
-0.075
0.025
0.08
0.005
-0.29
-0.335
-0.315
-0.265
-0.21
-0.015
0.14
-0.025
0.02
-0.025
-0.295
-0.345
-0.4
-0.39
-0.29
-0.095
0.14
0.025
0.135
-0.09
-0.305
-0.37
-0.21
-0.285
-0.225
-0.08
-0.015
0.08
0.105
-0.025
-0.245
-0.395
-0.42
-0.39
-0.23
-0.045
0.115
0.05
-0.05
-0.11
-0.265
-0.535
-0.365
-0.365
-0.06
-0.025
0.035
-0.02
0.06
-0.165
-0.12
-0.275
-0.425
-0.27
0.015
-0.16
-0.01
0.01
-0.005
-0.17
-0.34
-0.405
-0.38
-0.315
-0.18
-0.035
-0.025
0.005
0.03
-0.17
-0.37
-0.405
-0.39
-0.325
-0.145
-0.005
0.005
-0.005
0.075
-0.125
-0.39
-0.49
-0.4
-0.32
-0.215
0.015
0.05
0.005
0.035
-0.28
-0.4
-0.45
-0.36
-0.365
-0.27
-0.025
0.14
0.025
-0.005
-0.15
-0.31
-0.52
-0.33
-0.305
-0.185
0.045
0.02
0.0
-0.05
-0.285
-0.34
-0.41
-0.355
-0.265
-0.135
-0.015
0.01
0.03
-0.075
-0.215
-0.325
-0.395
-0.22
-0.4
-0.135
-0.025
0.085
0.16
-0.055
-0.125
-0.275
-0.255
-0.3
-0.26
-0.115
0.12
0.125
0.055
0.0
-0.19
-0.28
-0.47
-0.29
-0.255
-0.17
0.065
0.165
0.01
-0.065
-0.285
-0.455
-0.29
-0.28
-0.25
-0.22
0.055
0.095
-0.035
-0.05
-0.34
-0.355
-0.46
-0.525
-0.245
-0.02
0.05
0.0
0.035
-0.08
-0.225
-0.415
-0.34
-0.41
-0.235
-0.02
0.08
0.015
-0.005
-0.05
-0.335
-0.385
-0.315
-0.225
-0.235
-0.05
0.05
0.065
0.085
-0.11
-0.31
-0.395
-0.45
-0.335
-0.12
-0.055
0.035
0.065
0.06
-0.1
-0.2
-0.465
-0.34
-0.105
-0.11
-0.09
0.195
0.165
0.04
-0.105
-0.295
-0.315
-0.28
-0.26
0.11
0.17
0.285
0.31
0.325
0.265
0.165
0.04
0.04
0.105
0.165
0.31
0.34
0.23
0.245
-0.1
-0.355
-0.435
-0.475
-0.46
-0.245
-0.04
0.075
0.025
-0.045
-0.22
-0.32
-0.385
-0.315
-0.24
-0.06
0.12
0.19
0.185
0.07
-0.125
-0.245
-0.215
-0.155
-0.14
0.005
0.06
0.23
0.225
0.125
-0.07
-0.245
-0.26
-0.15
-0.125
0.03
0.175
0.265
0.16
0.135
0.06
-0.205
-0.2
-0.19
-0.085
0.045
0.22
0.25
0.095
0.125
-0.135
-0.23
-0.175
-0.1
-0.12
0.135
0.3
0.35
0.225
0.095
0.01
-0.125
-0.345
-0.17
0.02
0.175
0.295
0.315
0.255
0.19
0.0
-0.08
-0.185
-0.165
-0.01
0.21
0.35
0.295
0.31
0.19
-0.025
-0.105
-0.15
0.01
0.035
0.21
0.37
0.42
0.385
0.23
-0.025
-0.06
-0.02
0.07
0.185
0.33
0.425
0.565
0.355
0.25
0.12
0.09
0.165
-0.055
0.26
0.465
0.545
0.53
0.425
0.405
0.32
0.1
0.09
0.195
0.33
0.49
0.695
0.61
0.545
0.385
0.205
0.11
0.12
0.245
0.415
0.535
0.595
0.515
0.555
0.315
0.175
0.055
0.08
0.0
0.24
0.385
0.55
0.415
0.355
0.185
-0.005
-0.02
-0.105
-0.095
0.205
0.32
0.365
0.33
0.245
0.105
-0.07
-0.185
-0.2
-0.08
0.34
0.255
0.305
0.22
0.18
0.055
-0.205
-0.075
-0.095
-0.1
0.1
0.24
0.285
0.225
0.21
0.085
-0.12
-0.175
-0.13
0.04
0.165
0.265
0.315
0.26
0.11
0.07
-0.05
-0.13
-0.1
-0.03
0.1
0.2
0.28
0.25
0.235
0.055
-0.085
-0.22
-0.07
-0.055
0.155
0.29
0.3
0.3
0.24
-0.04
-0.135
-0.095
-0.14
0.05
0.115
0.255
0.31
0.355
0.24
-0.085
0.02
-0.095
-0.115
0.01
0.25
0.29
0.325
0.255
0.14
0.025
-0.115
-0.05
-0.07
0.055
0.26
0.325
0.23
0.235
0.2
0.0
-0.165
-0.085
-0.065
0.02
0.205
0.35
0.32
0.355
0.17
-0.025
-0.175
-0.04
-0.05
0.09
0.215
0.275
0.31
0.245
0.185
-0.065
-0.11
-0.09
-0.09
0.045
0.275
0.365
0.27
0.215
0.03
-0.04
0.02
0.015
-0.025
0.02
0.28
0.35
0.29
0.25
0.115
-0.035
-0.13
-0.15
-0.02
0.115
0.235
0.3
0.355
0.31
0.13
-0.045
-0.115
-0.035
-0.03
0.13
0.325
0.305
0.295
0.285
0.12
-0.04
-0.03
-0.065
-0.04
0.21
0.255
0.31
0.38
0.2
0.04
-0.14
-0.125
-0.04
-0.02
0.24
0.285
0.34
0.32
0.265
0.09
-0.05
-0.09
-0.065
0.06
0.23
0.35
0.27
0.305
0.28
0.095
-0.01
-0.105
-0.075
0.08
0.215
0.325
0.295
0.3
0.235
0.13
0.035
0.01
-0.04
-0.11
0.09
0.43
0.295
0.4
0.38
0.095
-0.305
-0.025
0.015
0.035
0.185
0.24
0.475
0.31
0.315
0.075
-0.04
-0.03
-0.1
0.1
0.27
0.33
0.315
0.395
0.23
0.075
-0.015
-0.125
-0.04
0.135
0.31
0.385
0.39
0.345
0.165
0.055
-0.105
-0.03
0.0
0.09
0.29
0.335
0.375
0.27
0.22
0.07
0.115
0.185
-0.12
0.06
0.34
0.3
0.265
0.45
0.23
0.055
-0.045
0.015
0.015
0.18
0.355
0.44
0.37
0.455
0.215
0.095
-0.03
0.005
0.12
0.265
0.37
0.42
0.395
0.445
0.295
0.095
0.015
0.02
0.055
0.195
0.375
0.405
0.38
0.345
0.21
0.06
0.085
0.0
-0.05
0.08
0.465
0.46
0.34
0.33
0.17
0.02
-0.07
-0.045
0.04
0.2
0.24
0.375
0.42
0.32
0.18
0.045
-0.04
-0.025
0.02
0.2
0.355
0.41
0.365
0.34
0.16
-0.025
-0.035
0.025
0.025
0.23
0.41
0.49
0.52
0.44
0.23
0.035
-0.23
-0.14
0.1
0.23
0.39
0.385
0.395
0.32
0.15
-0.005
-0.035
-0.01
0.075
0.165
0.25
0.525
0.405
0.355
0.235
0.105
0.15
0.22
0.4
0.595
0.775
0.815
0.8
0.705
0.7
0.455
0.28
0.26
0.19
0.285
0.475
0.525
0.38
0.09
-0.015
-0.05
-0.055
-0.09
-0.015
0.205
0.355
0.4
0.33
0.29
0.1
-0.03
-0.01
-0.03
0.155
0.4
0.565
0.365
0.375
0.305
0.12
-0.05
-0.025
0.01
0.16
0.37
0.515
0.48
0.365
0.17
-0.04
0.01
0.03
0.02
0.135
0.31
0.43
0.385
0.35
0.165
-0.1
0.045
0.125
0.09
0.245
0.415
0.505
0.425
0.35
0.25
0.23
0.2
-0.01
-0.06
0.16
0.37
0.65
0.555
0.59
0.255
0.07
0.06
0.14
0.225
0.28
0.43
0.475
0.455
0.49
0.315
0.165
0.11
0.095
0.14
0.335
0.505
0.505
0.53
0.47
0.345
0.245
0.075
0.175
0.225
0.38
0.545
0.605
0.655
0.495
0.36
0.25
0.27
0.255
0.255
0.52
0.84
0.855
0.38
0.505
0.31
0.37
0.355
0.515
0.32
0.55
0.825
0.82
0.645
0.65
0.51
0.365
0.355
0.385
0.46
0.645
0.795
0.825
0.78
0.725
0.47
0.325
0.37
0.275
0.455
0.56
0.705
0.81
0.71
0.67
0.32
0.105
0.175
0.295
0.335
0.475
0.55
0.65
0.475
0.41
0.16
0.06
0.23
0.32
0.205
0.305
0.455
0.495
0.435
0.335
0.25
0.075
-0.015
-0.1
0.15
0.355
0.44
0.515
0.405
0.255
0.14
0.065
-0.005
0.06
0.185
0.35
0.35
0.47
0.385
0.17
0.055
-0.035
0.02
0.17
0.23
0.11
0.15
0.36
0.62
0.435
0.23
-0.035
-0.095
-0.025
0.12
0.315
0.375
0.4
0.465
0.245
0.09
0.0
-0.005
0.015
0.125
0.285
0.46
0.405
0.405
0.235
-0.005
-0.1
-0.005
0.05
0.175
0.35
0.4
0.375
0.375
0.145
0.02
0.015
0.015
-0.025
0.075
0.36
0.29
0.485
0.48
0.185
-0.05
-0.155
-0.03
-0.03
0.13
0.325
0.465
0.33
0.465
0.165
-0.165
-0.145
-0.05
-0.015
0.255
0.48
0.415
0.29
0.205
0.09
-0.205
-0.13
0.12
-0.02
0.23
0.325
0.235
0.325
0.21
0.015
-0.11
-0.11
-0.065
-0.04
0.135
0.245
0.29
0.42
0.305
0.17
-0.16
-0.335
-0.095
-0.055
0.205
0.285
0.31
0.29
0.255
0.08
-0.06
-0.205
-0.05
0.13
0.3
0.09
0.395
0.295
0.175
-0.01
-0.065
-0.07
0.005
0.19
0.255
0.365
0.295
0.35
0.195
0.025
-0.05
0.015
-0.06
0.01
0.27
0.37
0.41
0.275
0.17
-0.03
-0.19
-0.175
-0.07
0.105
0.195
0.38
0.38
0.25
0.155
0.035
-0.16
-0.12
-0.015
0.16
0.295
0.33
0.24
0.16
0.195
-0.055
-0.145
-0.06
-0.09
0.185
0.225
0.315
0.315
0.31
0.155
-0.025
-0.055
-0.045
0.015
0.17
0.285
0.355
0.3
0.3
0.07
-0.045
-0.14
-0.15
-0.105
0.095
0.21
0.26
0.375
0.335
0.115
-0.02
-0.08
-0.11
-0.055
0.065
0.245
0.37
0.34
0.235
0.16
-0.065
-0.2
-0.11
0.03
0.1
0.365
0.335
0.22
0.25
0.345
0.005
-0.305
-0.095
-0.02
0.19
0.32
0.32
0.315
0.225
0.08
-0.03
-0.04
-0.055
0.01
0.125
0.27
0.35
0.285
0.225
0.06
-0.045
-0.2
-0.105
-0.005
0.12
0.2
0.24
0.355
0.425
0.105
-0.04
-0.145
-0.09
0.035
0.25
0.35
0.235
0.3
0.245
0.085
-0.125
-0.085
-0.07
0.125
0.23
0.405
0.46
0.265
0.225
0.19
-0.19
-0.155
-0.045
0.075
0.085
0.38
0.365
0.27
0.17
0.025
-0.035
-0.075
-0.13
0.015
0.36
0.26
0.4
0.29
0.16
0.06
-0.08
-0.115
-0.04
0.105
0.21
0.265
0.345
0.41
0.12
0.01
-0.06
-0.15
-0.015
0.305
0.255
0.245
0.365
0.315
0.2
-0.02
-0.04
-0.065
-0.105
0.135
0.3
0.44
0.305
0.26
0.215
-0.06
-0.12
-0.075
-0.035
0.225
0.32
0.39
0.435
0.365
0.28
0.07
-0.015
0.005
0.07
0.17
0.285
0.405
0.41
0.34
0.245
0.09
0.04
0.025
0.04
0.235
0.33
0.365
0.3
0.335
0.145
-0.01
-0.11
-0.045
0.045
0.135
0.36
0.485
0.315
0.27
0.075
0.0
-0.115
-0.065
0.0
0.16
0.255
0.33
0.365
0.285
0.015
-0.005
0.005
-0.005
-0.13
0.23
0.37
0.275
0.35
0.29
0.115
-0.07
-0.09
-0.005
0.025
0.195
0.275
0.265
0.305
0.115
0.055
-0.04
-0.04
-0.1
0.0
0.21
0.345
0.37
0.315
0.275
-0.005
-0.05
-0.015
-0.04
-0.055
0.235
0.315
0.405
0.455
0.17
-0.005
0.035
0.035
0.125
0.28
0.42
0.635
0.76
0.785
0.83
0.585
0.295
0.28
0.38
0.34
0.515
0.645
0.23
0.29
0.215
0.015
-0.175
-0.205
-0.25
-0.035
0.07
0.205
0.225
0.23
0.135
0.005
0.01
-0.005
-0.1
0.165
0.335
0.32
0.41
0.245
0.205
0.065
-0.03
-0.065
-0.01
0.1
0.195
0.335
0.34
0.315
0.14
0.12
-0.035
0.07
0.025
0.055
0.445
0.335
0.405
0.36
0.175
0.08
-0.01
0.02
0.045
0.11
0.225
0.35
0.42
0.405
0.28
0.07
-0.04
-0.06
0.035
0.195
0.33
0.4
0.34
0.375
0.275
0.1
-0.02
-0.03
-0.06
0.24
0.4
0.425
0.405
0.47
0.245
0.025
0.015
0.025
0.105
0.29
0.49
0.45
0.34
0.45
0.36
0.09
0.08
0.04
0.13
0.275
0.5
0.52
0.465
0.42
0.295
0.325
0.035
0.1
0.265
0.455
0.57
0.585
0.55
0.54
0.32
0.235
0.2
0.225
0.315
0.49
0.65
0.75
0.72
0.64
0.415
0.255
0.255
0.365
0.35
0.57
0.77
0.75
0.725
0.66
0.48
0.335
0.375
0.375
0.44
0.675
0.51
0.675
0.725
0.51
0.26
0.255
0.225
0.21
0.265
0.445
0.565
0.565
0.485
0.29
0.375
0.125
0.005
0.105
0.07
0.39
0.415
0.46
0.405
0.29
0.095
-0.05
-0.05
0.05
0.14
0.285
0.43
0.425
0.335
0.15
0.04
-0.105
-0.055
0.005
0.04
0.23
0.365
0.39
0.37
0.235
0.05
-0.065
-0.06
-0.04
0.125
0.305
0.445
0.25
0.36
0.175
-0.025
0.04
-0.025
-0.08
0.13
0.275
0.385
0.345
0.365
0.135
-0.01
-0.11
-0.045
0.02
0.23
0.25
0.295
0.325
0.29
0.195
-0.045
-0.085
-0.055
0.065
0.12
0.305
0.355
0.35
0.295
0.11
-0.06
-0.025
-0.03
-0.035
0.105
0.255
0.395
0.36
0.265
0.145
0.025
-0.09
-0.065
-0.03
0.13
0.43
0.365
0.205
0.27
0.09
-0.12
-0.06
-0.02
-0.05
0.115
0.305
0.385
0.335
0.255
0.075
0.02
-0.04
-0.065
-0.045
0.24
0.315
0.27
0.245
0.275
0.045
-0.045
-0.115
-0.035
-0.015
0.165
0.38
0.285
0.225
0.325
0.0
-0.035
-0.185
-0.005
-0.015
0.185
0.32
0.355
0.285
0.255
0.055
-0.06
-0.03
-0.06
0.035
0.225
0.29
0.37
0.245
0.105
-0.005
-0.095
-0.175
-0.06
-0.055
0.155
0.395
0.315
0.305
0.22
-0.01
-0.225
-0.015
-0.03
0.12
0.175
0.35
0.335
0.205
0.095
-0.01
-0.145
-0.055
-0.045
0.065
0.055
0.305
0.305
0.29
0.27
-0.085
-0.11
-0.105
-0.04
0.105
0.195
0.335
0.285
0.24
0.155
-0.01
-0.12
-0.075
-0.1
0.01
0.16
0.33
0.335
0.3
0.11
-0.15
-0.08
-0.11
-0.065
0.06
0.21
0.35
0.31
0.28
0.095
-0.065
-0.21
-0.14
-0.095
0.135
0.16
0.33
0.33
0.255
0.165
0.055
-0.145
-0.17
-0.15
0.07
0.295
0.325
0.27
0.295
0.01
-0.13
-0.005
-0.165
-0.09
0.12
0.35
0.26
0.265
0.24
0.05
-0.065
-0.155
-0.19
-0.115
0.07
0.275
0.2
0.29
0.24
0.03
-0.06
-0.13
-0.23
-0.085
0.23
0.325
0.26
0.295
0.255
-0.045
-0.145
-0.175
-0.19
-0.145
0.11
0.31
0.28
0.145
0.215
0.11
-0.195
-0.145
0.015
-0.02
0.105
0.25
0.3
0.2
0.115
-0.09
-0.11
-0.16
-0.155
-0.08
0.13
0.25
0.315
0.27
0.07
-0.11
-0.105
-0.09
-0.245
-0.08
0.115
0.33
0.27
0.215
0.1
0.005
-0.13
-0.205
-0.125
0.01
0.14
0.28
0.315
0.27
0.04
-0.105
-0.035
-0.18
-0.16
0.0
0.23
0.32
0.17
0.19
0.08
-0.125
-0.155
-0.19
-0.055
-0.005
0.16
0.275
0.32
0.15
0.125
-0.03
-0.22
-0.255
-0.135
0.01
0.095
0.285
0.365
0.135
0.085
-0.1
-0.2
-0.21
-0.15
0.04
0.2
0.29
0.24
0.22
0.045
-0.17
-0.1
-0.125
-0.155
-0.01
0.185
0.295
0.205
0.215
-0.005
-0.145
-0.09
-0.16
-0.19
0.01
0.235
0.2
0.3
0.225
0.0
-0.06
-0.055
-0.14
-0.195
0.015
0.225
0.38
0.24
0.22
0.01
-0.1
-0.155
-0.145
0.03
0.175
0.22
0.245
0.24
0.155
0.035
-0.04
-0.12
-0.095
-0.045
0.135
0.265
0.215
0.22
0.205
0.055
-0.2
-0.2
-0.13
-0.1
0.155
0.145
0.215
0.15
0.18
0.025
-0.16
-0.265
-0.2
0.005
0.105
0.18
0.15
0.245
0.08
-0.02
-0.24
-0.11
-0.19
-0.23
0.025
0.17
0.32
0.165
0.13
-0.165
-0.215
-0.15
-0.145
-0.075
0.09
0.21
0.205
0.19
0.105
-0.14
-0.355
-0.11
-0.265
-0.05
0.15
0.165
0.26
0.19
0.07
-0.085
-0.225
-0.22
-0.17
-0.105
0.09
0.18
0.25
0.17
0.07
-0.15
-0.09
-0.115
-0.01
0.045
0.215
0.36
0.61
0.615
0.485
0.385
0.32
0.19
0.225
0.41
0.435
0.365
0.215
0.19
0.03
-0.21
-0.475
-0.28
-0.26
-0.23
-0.04
0.05
0.04
-0.03
-0.125
-0.255
-0.28
-0.17
-0.15
0.04
0.145
0.245
0.11
0.17
0.045
-0.005
-0.2
-0.235
-0.25
0.02
0.135
0.235
0.225
0.175
-0.015
-0.305
-0.325
-0.07
-0.09
0.04
0.145
0.21
0.315
0.17
0.0
-0.165
-0.235
-0.18
-0.14
-0.02
0.12
0.295
0.205
0.185
0.085
-0.16
-0.27
-0.25
-0.015
0.145
0.19
0.305
0.215
0.105
0.005
-0.205
-0.2
-0.16
-0.075
0.125
0.155
0.15
0.305
0.21
-0.025
-0.245
-0.015
0.0
-0.025
0.1
0.235
0.305
0.23
0.065
0.11
-0.06
-0.095
-0.04
-0.09
0.075
0.325
0.28
0.215
0.22
0.065
-0.02
0.005
-0.08
0.05
0.26
0.4
0.5
0.36
0.38
0.085
-0.11
0.01
0.075
0.16
0.375
0.475
0.555
0.49
0.34
0.185
0.14
0.11
0.23
0.385
0.375
0.535
0.44
0.485
0.475
0.195
0.145
0.145
0.22
0.39
0.455
0.545
0.575
0.46
0.33
0.15
0.14
0.06
0.05
0.14
0.315
0.395
0.35
0.32
0.15
-0.04
-0.14
-0.155
-0.1
0.04
0.16
0.235
0.225
0.225
0.07
-0.05
-0.19
-0.38
-0.17
-0.01
0.11
0.115
0.14
0.13
0.055
-0.11
-0.245
-0.29
-0.215
-0.03
0.055
0.23
0.215
0.105
-0.08
-0.235
-0.245
-0.285
-0.19
-0.035
0.2
0.16
0.195
0.095
-0.115
-0.305
-0.265
-0.235
-0.22
-0.015
0.065
0.21
0.16
0.13
-0.1
-0.27
-0.28
-0.295
-0.205
0.05
0.14
0.02
0.16
0.03
-0.04
-0.21
-0.21
-0.32
-0.175
0.11
0.13
0.065
0.055
0.06
-0.055
-0.15
-0.405
-0.34
-0.125
0.07
0.085
0.085
0.16
0.01
-0.03
-0.365
-0.35
-0.26
-0.15
0.085
0.11
0.07
0.095
0.055
-0.145
-0.28
-0.26
-0.29
-0.195
0.02
0.145
0.1
0.08
0.035
-0.205
-0.265
-0.32
-0.255
-0.16
0.02
0.145
0.145
0.035
-0.055
-0.195
-0.26
-0.275
-0.27
-0.185
-0.025
0.185
0.075
0.055
-0.02
-0.23
-0.26
-0.285
-0.265
-0.14
-0.09
0.055
0.185
0.235
-0.01
-0.275
-0.34
-0.345
-0.27
-0.12
0.01
0.18
0.08
0.05
-0.155
-0.3
-0.2
-0.305
-0.25
-0.125
0.145
0.09
0.065
-0.005
-0.08
-0.215
-0.34
-0.375
-0.29
-0.185
0.0
0.205
0.105
0.075
-0.085
-0.295
-0.37
-0.265
-0.28
-0.13
0.09
0.105
0.125
-0.025
-0.17
-0.335
-0.29
-0.315
-0.3
-0.16
-0.01
0.105
0.06
0.075
-0.135
-0.325
-0.38
-0.37
-0.245
-0.005
0.125
-0.055
0.005
0.04
-0.205
-0.36
-0.32
-0.37
-0.265
-0.1
0.12
0.145
0.085
0.02
-0.165
-0.3
-0.36
-0.24
-0.145
-0.215
0.01
0.08
0.005
0.015
-0.26
-0.42
-0.355
-0.305
-0.245
-0.005
0.11
0.05
0.02
0.04
-0.16
-0.325
-0.4
-0.33
-0.33
-0.06
0.045
0.105
0.075
-0.115
-0.265
-0.415
-0.41
-0.415
-0.13
0.005
0.065
0.06
-0.035
0.025
-0.245
-0.385
-0.335
-0.305
-0.225
-0.04
0.08
0.075
0.02
-0.075
-0.265
-0.395
-0.365
-0.265
-0.265
-0.115
0.07
0.12
0.045
-0.11
-0.3
-0.38
-0.35
-0.275
-0.14
-0.045
0.08
0.045
-0.035
-0.04
-0.255
-0.29
-0.355
-0.37
-0.105
-0.17
-0.08
0.065
-0.01
-0.15
-0.285
-0.3
-0.34
-0.315
-0.23
-0.085
0.03
0.055
-0.09
-0.06
-0.235
-0.39
-0.395
-0.3
-0.26
-0.035
0.025
0.02
0.02
-0.145
-0.285
-0.39
-0.335
-0.35
-0.185
0.01
0.05
-0.055
-0.015
-0.165
-0.365
-0.43
-0.325
-0.31
-0.155
-0.04
0.065
0.01
-0.02
-0.15
-0.365
-0.46
-0.3
-0.35
-0.2
-0.07
0.11
0.085
-0.075
-0.285
-0.33
-0.455
-0.385
-0.27
-0.18
0.01
0.03
-0.025
-0.03
-0.07
-0.395
-0.48
-0.305
-0.44
-0.14
0.005
0.02
0.015
-0.075
-0.23
-0.34
-0.43
-0.385
-0.28
-0.02
-0.03
0.165
0.105
-0.085
-0.3
-0.31
-0.36
-0.41
-0.23
0.015
0.115
0.09
0.03
-0.02
-0.205
-0.21
-0.345
-0.33
-0.24
0.0
0.1
0.1
0.085
-0.03
-0.175
-0.34
-0.39
-0.32
-0.145
-0.06
0.01
0.115
0.015
-0.09
-0.275
-0.385
-0.445
-0.37
-0.3
-0.04
0.07
0.07
0.075
-0.11
-0.305
-0.485
-0.36
-0.425
-0.26
-0.055
-0.025
0.05
-0.14
-0.055
-0.22
-0.385
-0.365
-0.39
-0.23
-0.15
0.085
0.03
0.04
-0.13
-0.37
-0.465
-0.325
-0.335
-0.215
-0.095
0.07
0.03
-0.01
-0.145
-0.295
-0.445
-0.44
-0.29
-0.175
-0.02
0.075
0.01
-0.005
-0.195
-0.34
-0.29
-0.375
-0.355
-0.2
0.005
0.135
0.15
0.22
0.02
-0.105
0.01
0.035
0.04
0.375
0.51
0.47
0.41
0.25
-0.04
-0.205
-0.195
-0.375
-0.53
-0.235
-0.155
-0.12
-0.205
-0.215
-0.265
-0.47
-0.57
-0.5
-0.375
-0.09
-0.005
-0.025
0.06
0.0
-0.21
-0.31
-0.43
-0.44
-0.235
-0.095
0.035
0.155
-0.025
-0.045
-0.195
-0.36
-0.435
-0.325
-0.3
-0.14
0.04
0.1
0.07
-0.045
-0.21
-0.275
-0.305
-0.365
-0.34
-0.11
0.095
0.08
0.065
-0.01
-0.17
-0.28
-0.34
-0.31
-0.245
0.02
0.24
-0.005
0.05
-0.015
-0.075
-0.255
-0.405
-0.31
-0.08
0.0
0.145
0.11
-0.04
-0.11
-0.195
-0.125
-0.26
-0.34
-0.195
0.015
0.125
0.19
0.145
-0.045
-0.155
-0.23
-0.18
-0.26
-0.15
0.095
0.165
0.15
0.195
0.11
-0.095
-0.16
-0.19
-0.14
-0.035
0.17
0.235
0.23
0.235
0.13
-0.035
-0.16
-0.075
0.0
0.0
0.23
0.365
0.35
0.3
0.225
0.055
-0.015
-0.005
0.085
0.345
0.46
0.24
0.385
0.44
0.315
0.135
0.03
0.005
0.075
0.28
0.37
0.47
0.47
0.47
0.255
0.04
0.01
0.02
-0.07
0.23
0.345
0.45
0.365
0.325
0.13
-0.1
-0.17
-0.14
-0.055
0.03
0.195
0.19
0.15
0.085
-0.03
-0.11
-0.245
-0.28
-0.255
0.025
0.085
0.125
0.085
0.2
0.025
-0.27
-0.42
-0.375
-0.18
-0.18
-0.01
0.205
0.07
-0.01
-0.13
-0.25
-0.325
-0.325
-0.28
-0.01
0.13
0.165
-0.045
-0.03
-0.145
-0.28
-0.29
-0.335
-0.21
-0.055
-0.03
0.125
0.145
-0.005
-0.17
-0.285
-0.29
-0.26
-0.225
-0.055
0.09
0.045
0.07
-0.015
-0.19
-0.375
-0.34
-0.295
-0.26
-0.03
0.225
0.03
0.065
-0.015
-0.16
-0.255
-0.33
-0.29
-0.155
0.05
0.115
-0.03
0.01
-0.045
-0.2
-0.315
-0.425
-0.145
-0.165
0.015
0.03
0.115
0.17
-0.025
-0.255
-0.335
-0.395
-0.255
-0.155
0.025
0.13
0.055
0.075
-0.025
-0.145
-0.49
-0.385
-0.265
-0.125
0.04
0.14
0.145
0.095
-0.1
-0.31
-0.295
-0.24
-0.39
-0.17
0.03
0.155
0.04
0.035
-0.09
-0.185
-0.305
-0.32
-0.275
-0.165
-0.025
0.12
0.135
0.11
-0.115
-0.255
-0.34
-0.34
-0.185
-0.105
0.05
0.17
0.045
-0.04
-0.14
-0.28
-0.36
-0.3
-0.265
-0.135
0.11
0.25
-0.06
0.055
0.05
-0.25
-0.345
-0.295
-0.275
-0.09
-0.015
0.135
0.175
0.085
-0.16
-0.345
-0.33
-0.29
-0.205
-0.14
0.125
0.18
0.05
-0.01
-0.17
-0.28
-0.315
-0.26
-0.24
-0.15
0.09
0.17
-0.005
-0.02
-0.18
-0.155
-0.38
-0.305
-0.27
-0.025
0.11
0.125
0.055
0.105
-0.195
-0.27
-0.325
-0.43
-0.24
-0.045
0.185
0.215
0.06
0.08
-0.15
-0.32
-0.225
-0.26
-0.22
-0.06
0.155
0.145
0.045
-0.105
-0.165
-0.285
-0.255
-0.285
-0.22
0.0
0.09
0.175
0.135
-0.01
-0.25
-0.29
-0.28
-0.305
-0.07
0.025
0.195
0.105
0.035
-0.105
-0.14
-0.22
-0.225
-0.25
-0.07
0.0
0.115
0.105
0.075
-0.035
-0.165
-0.31
-0.4
-0.21
-0.015
-0.04
0.085
0.2
0.18
-0.04
-0.175
-0.26
-0.32
-0.265
-0.115
0.165
0.175
0.105
0.03
-0.08
-0.175
-0.25
-0.275
-0.25
-0.115
0.055
0.145
0.18
0.11
-0.01
-0.07
-0.375
-0.34
-0.285
-0.1
0.115
0.16
0.14
0.125
-0.06
-0.3
-0.25
-0.21
-0.2
-0.115
0.08
0.205
0.19
0.145
-0.03
-0.29
-0.345
-0.205
-0.18
-0.03
0.075
0.115
0.125
0.085
-0.175
-0.245
-0.21
-0.28
-0.235
-0.02
0.21
0.285
0.09
0.06
-0.035
-0.125
-0.37
-0.265
-0.175
0.07
0.03
0.085
0.23
0.125
-0.155
-0.195
-0.285
-0.22
-0.225
0.005
0.14
0.24
0.04
0.065
-0.02
-0.28
-0.28
-0.27
-0.2
-0.015
0.165
0.275
0.065
0.085
-0.115
-0.205
-0.225
-0.235
-0.105
0.05
0.155
0.155
0.265
0.17
-0.035
-0.155
-0.21
-0.13
-0.03
0.08
0.325
0.22
0.185
0.085
-0.09
-0.15
-0.195
-0.19
-0.1
0.13
0.215
0.225
0.24
0.01
-0.07
-0.18
-0.315
-0.295
-0.095
0.13
0.12
0.255
0.1
0.04
-0.18
-0.205
-0.265
-0.275
-0.15
0.07
0.265
0.16
0.205
0.01
-0.17
-0.3
-0.28
-0.28
-0.035
0.145
0.185
0.185
0.105
-0.03
-0.11
-0.175
-0.27
-0.155
-0.105
0.075
0.2
0.155
0.07
0.04
-0.2
-0.22
-0.26
-0.17
0.005
-0.02
0.15
0.235
0.315
-0.055
-0.205
-0.3
-0.24
-0.18
-0.035
0.11
0.21
0.185
0.135
0.08
0.005
-0.195
-0.105
-0.02
0.275
0.445
0.72
0.75
0.635
0.54
0.315
0.16
0.095
0.075
0.095
0.185
0.16
0.095
0.12
-0.14
-0.295
-0.485
-0.405
-0.33
-0.185
0.03
0.155
0.09
0.11
-0.07
-0.165
-0.205
-0.19
-0.195
0.07
0.27
0.195
0.155
0.145
0.06
-0.115
-0.175
-0.19
-0.1
0.115
0.175
0.245
0.28
0.075
-0.04
-0.18
-0.115
-0.115
-0.045
0.135
0.235
0.225
0.215
0.15
0.02
-0.005
-0.155
-0.135
-0.075
0.23
0.28
0.18
0.23
0.105
-0.075
-0.11
-0.17
-0.13
0.015
0.18
0.23
0.335
0.245
0.065
0.07
-0.15
-0.125
0.04
0.1
0.155
0.285
0.295
0.32
0.215
0.0
-0.115
-0.05
-0.115
0.09
0.235
0.355
0.37
0.38
0.275
0.045
-0.105
-0.11
-0.035
0.035
0.275
0.495
0.5
0.355
0.255
0.185
0.04
-0.005
0.13
0.285
0.415
0.52
0.51
0.46
0.295
0.155
0.125
0.14
0.23
0.29
0.56
0.685
0.58
0.555
0.43
0.295
0.225
0.215
0.32
0.515
0.595
0.695
0.62
0.65
0.465
0.315
0.065
0.115
0.515
0.46
0.485
0.655
0.635
0.555
0.35
0.175
0.18
0.13
0.08
0.31
0.45
0.59
0.395
0.29
0.155
-0.055
-0.02
0.045
0.06
0.26
0.22
0.31
0.365
0.285
0.065
-0.115
-0.135
-0.115
-0.04
0.13
0.195
0.27
0.285
0.19
0.105
-0.205
-0.08
-0.13
-0.095
0.095
0.26
0.315
0.235
0.235
0.055
-0.085
-0.085
-0.125
-0.06
0.135
0.205
0.36
0.205
0.09
0.035
-0.15
-0.04
0.01
0.035
0.04
0.175
0.235
0.235
0.16
-0.01
-0.125
-0.185
-0.055
-0.055
0.185
0.22
0.27
0.26
0.2
-0.06
-0.175
-0.17
0.065
0.055
0.145
0.255
0.28
0.32
0.135
-0.025
-0.105
-0.125
-0.055
-0.005
0.14
0.275
0.21
0.22
0.11
-0.035
-0.145
-0.175
0.005
0.115
0.185
0.385
0.3
0.185
0.055
-0.09
-0.17
-0.12
-0.125
0.11
0.235
0.41
0.27
0.215
0.06
-0.12
-0.105
-0.195
-0.115
0.075
0.275
0.325
0.265
0.165
0.205
-0.035
-0.185
-0.065
-0.085
0.07
0.165
0.335
0.34
0.225
0.095
-0.07
-0.11
-0.165
-0.12
0.05
0.21
0.28
0.295
0.33
0.105
-0.08
-0.145
-0.11
-0.06
0.08
0.185
0.385
0.305
0.17
0.15
-0.165
-0.14
-0.055
-0.08
0.095
0.255
0.28
0.23
0.25
0.04
-0.155
-0.155
-0.135
-0.04
0.18
0.245
0.37
0.335
0.18
0.01
-0.1
-0.165
-0.09
-0.075
0.115
0.245
0.275
0.29
0.245
-0.02
-0.095
-0.195
-0.075
-0.085
0.19
0.25
0.375
0.29
0.155
0.01
-0.165
-0.135
-0.105
-0.045
0.175
0.295
0.25
0.27
0.155
0.11
-0.045
-0.15
-0.215
0.03
0.17
0.245
0.37
0.29
0.16
0.005
-0.155
-0.145
-0.13
0.0
0.245
0.33
0.35
0.19
0.15
-0.03
-0.13
-0.055
-0.115
0.02
0.205
0.31
0.34
0.275
0.145
0.02
-0.1
-0.1
-0.165
0.035
0.305
0.21
0.32
0.28
0.105
0.05
-0.055
-0.09
-0.075
0.08
0.195
0.325
0.25
0.21
0.065
-0.025
-0.17
-0.09
-0.05
0.115
0.245
0.28
0.34
0.38
0.135
-0.045
-0.145
-0.09
0.01
0.025
0.21
0.32
0.31
0.29
0.13
-0.06
-0.145
-0.09
-0.135
0.065
0.255
0.28
0.28
0.24
0.16
-0.05
-0.065
-0.105
-0.125
0.1
0.35
0.34
0.32
0.275
0.035
-0.06
-0.115
-0.035
-0.06
0.09
0.31
0.33
0.34
0.265
0.105
-0.01
-0.065
-0.16
-0.04
0.125
0.29
0.32
0.3
0.19
0.105
0.0
-0.175
-0.08
-0.005
0.255
0.315
0.235
0.26
0.285
0.1
0.025
-0.145
-0.06
-0.065
0.17
0.32
0.32
0.29
0.3
0.085
-0.195
-0.085
-0.05
0.005
0.2
0.29
0.24
0.305
0.29
0.095
-0.065
-0.025
-0.095
-0.005
0.175
0.345
0.375
0.37
0.265
0.02
-0.03
-0.125
-0.03
0.115
0.33
0.32
0.39
0.34
0.255
0.13
-0.145
0.03
-0.015
0.145
0.255
0.42
0.42
0.41
0.155
0.06
0.0
-0.05
0.095
0.055
0.24
0.39
0.405
0.195
0.155
0.085
-0.095
-0.07
-0.065
0.06
0.175
0.36
0.335
0.31
0.165
0.005
-0.14
-0.05
0.01
0.04
0.235
0.34
0.31
0.23
0.175
-0.07
-0.09
-0.09
-0.01
0.165
0.24
0.315
0.35
0.28
0.21
0.035
-0.18
-0.055
-0.12
0.12
0.26
0.34
0.35
0.33
0.11
0.04
-0.075
-0.095
-0.035
0.08
0.275
0.34
0.32
0.25
0.105
-0.015
-0.095
-0.06
0.025
0.095
0.255
0.32
0.395
0.395
0.295
0.075
-0.005
0.18
0.47
0.605
0.84
0.88
0.795
0.71
0.5
0.315
0.075
0.075
0.095
0.125
0.275
0.265
0.13
0.02
-0.15
-0.215
-0.24
-0.165
-0.115
0.07
0.245
0.285
0.305
0.115
0.085
-0.005
-0.07
-0.08
-0.005
0.215
0.37
0.38
0.3
0.305
0.115
-0.01
0.005
-0.045
0.06
0.26
0.36
0.42
0.335
0.285
0.05
-0.03
-0.015
-0.01
0.095
0.22
0.4
0.43
0.34
0.21
0.09
-0.005
0.01
0.005
0.2
0.255
0.355
0.42
0.355
0.195
0.09
-0.015
-0.015
0.0
0.205
0.315
0.395
0.455
0.325
0.245
0.095
-0.02
0.015
0.045
0.235
0.265
0.49
0.435
0.395
0.25
0.155
0.135
0.04
0.105
0.26
0.42
0.43
0.415
0.345
0.255
0.25
0.145
0.105
0.205
0.305
0.44
0.51
0.515
0.515
0.39
0.27
0.055
0.11
0.26
0.37
0.54
0.755
0.535
0.595
0.43
0.4
0.235
0.225
0.3
0.545
0.695
0.705
0.795
0.76
0.575
0.24
0.3
0.395
0.43
0.555
0.76
0.82
0.775
0.68
0.545
0.385
0.37
0.395
0.42
0.545
0.675
0.66
0.725
0.605
0.52
0.285
0.095
0.185
0.25
0.42
0.55
0.5
0.5
0.325
0.315
0.265
-0.01
0.09
0.065
0.27
0.4
0.48
0.415
0.285
0.17
0.035
-0.055
-0.07
0.135
0.43
0.375
0.37
0.32
0.32
0.125
-0.045
0.0
0.015
0.095
0.285
0.375
0.375
0.395
0.325
0.165
-0.095
-0.16
0.01
0.105
0.325
0.35
0.345
0.405
0.195
0.16
0.065
-0.015
-0.025
0.125
0.175
0.33
0.43
0.36
0.21
0.025
-0.035
-0.025
0.025
0.155
0.21
0.46
0.38
0.36
0.225
0.145
0.015
-0.015
0.015
0.135
0.25
0.425
0.385
0.34
0.27
0.09
-0.095
-0.01
0.02
0.145
0.325
0.42
0.345
0.335
0.235
0.08
0.0
-0.165
-0.015
0.175
0.31
0.48
0.305
0.29
0.235
0.03
-0.16
0.03
0.06
0.155
0.305
0.395
0.395
0.355
0.21
0.02
-0.03
0.03
0.02
0.21
0.345
0.385
0.41
0.33
0.165
-0.04
0.01
-0.035
0.065
0.24
0.33
0.28
0.385
0.27
0.215
-0.015
-0.055
0.035
-0.02
0.16
0.315
0.395
0.405
0.26
0.115
0.04
-0.04
-0.005
0.02
0.25
0.32
0.435
0.305
0.3
0.14
-0.05
-0.055
-0.015
-0.025
0.125
0.3
0.405
0.445
0.355
0.14
-0.075
-0.115
-0.005
0.0
0.33
0.44
0.36
0.34
0.25
0.07
0.05
-0.05
-0.025
0.045
0.265
0.425
0.4
0.295
0.26
0.105
-0.08
-0.075
-0.03
0.085
0.2
0.29
0.34
0.505
0.345
0.125
0.0
-0.085
-0.01
0.115
0.19
0.42
0.41
0.275
0.21
0.085
-0.05
-0.055
-0.025
0.115
0.31
0.3
0.375
0.405
0.22
0.05
-0.005
-0.015
0.02
0.175
0.285
0.375
0.37
0.29
0.235
-0.005
0.04
-0.085
0.04
0.165
0.305
0.405
0.395
0.29
0.185
0.015
-0.02
-0.065
0.005
0.215
0.265
0.375
0.385
0.295
0.175
0.09
-0.01
0.005
0.03
0.16
0.285
0.405
0.41
0.375
0.21
-0.055
-0.065
-0.04
0.005
0.275
0.305
0.36
0.38
0.37
0.2
0.02
0.0
0.015
-0.035
0.21
0.355
0.36
0.345
0.325
0.145
0.12
-0.12
0.15
0.08
0.27
0.285
0.4
0.425
0.39
0.16
0.015
-0.01
0.025
0.145
0.29
0.42
0.495
0.46
0.345
0.225
0.08
0.025
0.115
0.19
0.225
0.255
0.485
0.43
0.38
0.195
0.04
-0.04
0.015
0.14
0.3
0.34
0.37
0.325
0.23
0.105
0.0
-0.015
0.115
-0.005
0.2
0.325
0.405
0.31
0.26
0.125
0.01
0.015
-0.045
-0.01
0.265
0.51
0.485
0.31
0.195
0.065
0.05
-0.085
-0.045
0.07
0.305
0.385
0.365
0.235
0.26
0.065
-0.025
-0.06
-0.01
0.075
0.32
0.4
0.385
0.32
0.215
0.02
-0.035
0.005
-0.05
0.12
0.26
0.425
0.425
0.355
0.255
0.02
-0.02
-0.025
0.02
0.065
0.3
0.55
0.62
0.555
0.52
0.48
0.385
0.325
0.47
0.575
0.635
0.765
0.78
0.455
0.46
0.125
-0.055
0.03
-0.07
-0.01
0.14
0.235
0.165
0.175
0.06
-0.145
-0.17
-0.105
-0.035
0.175
0.23
0.405
0.42
0.365
0.165
0.02
-0.02
-0.015
0.095
0.16
0.37
0.385
0.37
0.395
0.255
0.06
-0.04
0.02
0.14
0.18
0.38
0.45
0.415
0.35
0.165
0.095
0.005
0.005
0.185
0.195
0.31
0.425
0.44
0.47
0.225
0.06
-0.015
0.03
0.14
0.14
0.295
0.475
0.66
0.38
0.27
0.08
-0.02
0.065
0.11
0.375
0.41
0.48
0.425
0.435
0.135
0.085
0.155
0.025
0.095
0.3
0.485
0.495
0.465
0.43
0.27
0.075
0.045
0.18
0.235
0.34
0.49
0.655
0.53
0.35
0.255
0.07
0.185
0.29
0.305
0.5
0.625
0.58
0.62
0.56
0.32
0.23
0.225
0.33
0.395
0.54
0.705
0.715
0.675
0.59
0.385
0.28
0.305
0.33
0.53
0.73
0.79
0.845
0.755
0.665
0.515
0.395
0.4
0.44
0.595
0.645
0.815
0.8
0.675
0.615
0.44
0.35
0.34
0.4
0.47
0.63
0.66
0.68
0.695
0.475
0.205
0.055
0.16
0.265
0.335
0.47
0.565
0.5
0.435
0.35
0.155
-0.055
0.135
0.16
0.18
0.38
0.425
0.4
0.435
0.125
0.17
0.14
0.045
-0.035
0.22
0.35
0.41
0.435
0.325
0.2
0.04
-0.01
0.02
0.07
0.19
0.405
0.525
0.36
0.4
0.135
-0.005
0.02
0.03
0.1
0.215
0.29
0.415
0.37
0.39
0.18
0.11
-0.05
0.0
0.045
0.235
0.43
0.365
0.48
0.315
0.275
0.08
-0.135
0.005
0.115
0.265
0.48
0.375
0.36
0.36
0.125
0.015
0.01
0.005
0.125
0.375
0.335
0.47
0.37
0.36
0.2
-0.095
-0.025
-0.01
0.25
0.31
0.335
0.395
0.42
0.365
0.035
0.0
-0.025
-0.02
0.165
0.245
0.42
0.45
0.385
0.295
0.115
0.02
-0.06
0.105
0.075
0.325
0.47
0.42
0.48
0.265
0.115
-0.12
-0.045
0.07
0.175
0.345
0.425
0.38
0.32
0.28
0.105
-0.02
-0.015
0.06
0.09
0.235
0.31
0.43
0.345
0.295
0.19
0.065
-0.01
0.06
0.135
0.295
0.415
0.38
0.4
0.27
-0.005
0.025
0.025
0.04
0.095
0.35
0.38
0.41
0.29
0.245
0.045
-0.02
-0.02
-0.05
0.155
0.295
0.485
0.36
0.38
0.195
0.05
-0.025
-0.035
0.015
0.185
0.31
0.42
0.405
0.31
0.26
0.11
-0.075
0.0
-0.115
0.2
0.415
0.365
0.345
0.32
0.08
0.07
-0.02
0.02
0.115
0.17
0.36
0.475
0.52
0.3
0.16
-0.045
0.0
-0.07
0.03
0.255
0.39
0.355
0.37
0.315
0.13
-0.015
-0.045
0.03
0.105
0.26
0.25
0.46
0.455
0.235
0.04
-0.015
-0.03
0.035
0.08
0.26
0.395
0.45
0.35
0.205
0.03
-0.01
-0.055
0.0
0.115
0.265
0.425
0.335
0.28
0.335
0.255
0.04
-0.045
-0.035
0.065
0.275
0.33
0.33
0.46
0.295
0.11
-0.025
-0.05
0.01
0.18
0.265
0.305
0.475
0.41
0.255
0.1
-0.02
0.05
-0.015
0.09
0.235
0.345
0.34
0.365
0.31
0.075
0.075
-0.015
0.04
-0.01
0.23
0.38
0.38
0.345
0.245
0.16
-0.045
-0.025
-0.035
0.11
0.36
0.41
0.36
0.245
0.185
0.075
-0.01
0.005
0.005
0.135
0.255
0.45
0.33
0.38
0.25
0.09
-0.015
-0.065
-0.025
0.17
0.28
0.41
0.465
0.43
0.13
0.035
-0.08
-0.065
0.05
0.22
0.415
0.395
0.37
0.465
0.105
-0.05
-0.1
-0.01
0.02
0.165
0.325
0.44
0.37
0.36
0.265
0.13
-0.075
-0.025
-0.01
0.275
0.37
0.44
0.395
0.395
0.245
0.05
-0.085
0.08
0.085
0.25
0.395
0.59
0.425
0.385
0.28
-0.045
-0.005
-0.01
0.12
0.22
0.29
0.63
0.37
0.31
0.11
0.0
-0.005
-0.02
0.02
0.22
0.37
0.345
0.36
0.3
0.065
-0.05
-0.07
-0.05
0.095
0.185
0.45
0.435
0.43
0.37
-0.115
-0.155
-0.035
-0.02
0.065
0.17
0.34
0.365
0.39
0.255
0.075
-0.06
-0.155
-0.055
0.135
0.275
0.3
0.405
0.365
0.215
0.09
-0.15
-0.15
-0.075
0.175
0.225
0.395
0.35
0.355
0.16
0.0
-0.11
-0.07
0.04
0.105
0.265
0.435
0.33
0.315
0.2
0.05
0.06
-0.005
0.225
0.41
0.59
0.605
0.78
0.84
0.69
0.505
0.28
0.295
0.255
0.28
0.41
0.425
0.325
0.29
0.165
-0.17
-0.28
-0.415
-0.165
0.02
0.1
0.235
0.23
0.255
0.19
0.04
-0.195
-0.09
-0.015
0.105
0.305
0.365
0.345
0.23
0.08
0.055
0.01
-0.065
-0.06
0.195
0.385
0.35
0.38
0.325
0.145
-0.085
-0.08
-0.08
0.01
0.245
0.345
0.385
0.3
0.28
0.175
0.0
-0.135
-0.11
0.15
0.155
0.295
0.35
0.365
0.315
0.145
0.015
-0.06
-0.06
-0.05
0.155
0.4
0.445
0.37
0.315
0.115
-0.065
-0.02
0.02
0.02
0.22
0.405
0.475
0.335
0.29
0.18
0.13
-0.09
-0.055
0.09
0.285
0.375
0.395
0.41
0.33
0.07
-0.03
0.005
0.045
0.225
0.4
0.275
0.355
0.5
0.37
0.2
0.06
0.005
0.06
0.28
0.4
0.515
0.505
0.505
0.42
0.34
0.255
0.12
0.185
0.245
0.45
0.64
0.59
0.535
0.465
0.305
0.175
0.23
0.36
0.44
0.625
0.605
0.71
0.635
0.635
0.375
0.155
0.25
0.275
0.415
0.51
0.685
0.635
0.55
0.435
0.25
0.17
0.155
0.155
0.18
0.34
0.48
0.52
0.465
0.255
-0.025
-0.07
-0.02
-0.01
0.195
0.285
0.34
0.385
0.23
0.105
-0.03
-0.115
-0.13
-0.075
0.055
0.155
0.25
0.26
0.365
0.08
0.045
-0.195
-0.185
-0.125
-0.03
0.205
0.285
0.275
0.08
0.0
-0.085
-0.235
-0.2
-0.14
0.005
0.23
0.325
0.215
0.175
-0.025
-0.115
-0.215
-0.15
-0.065
0.085
0.14
0.205
0.105
0.06
-0.07
-0.015
-0.135
-0.255
-0.18
0.05
0.235
0.205
0.25
0.135
0.015
-0.19
-0.275
-0.18
-0.11
0.06
0.135
0.185
0.12
0.145
-0.1
-0.265
-0.185
-0.28
-0.085
0.08
0.16
0.29
0.14
-0.035
-0.095
-0.21
-0.23
-0.205
-0.135
0.025
0.16
0.15
0.065
0.07
-0.07
-0.22
-0.225
-0.175
-0.175
0.02
0.13
0.14
0.16
-0.005
-0.075
-0.3
-0.26
-0.18
-0.18
-0.015
0.16
0.215
0.21
-0.065
-0.25
-0.33
-0.22
-0.22
-0.22
0.02
0.12
0.135
0.1
0.035
-0.18
-0.245
-0.345
-0.31
-0.18
0.08
0.125
0.095
0.095
-0.065
-0.19
-0.32
-0.275
-0.275
-0.225
-0.01
0.115
0.15
0.065
-0.075
-0.2
-0.315
-0.38
-0.24
-0.08
-0.05
0.19
0.04
0.055
-0.15
-0.3
-0.31
-0.255
-0.285
-0.19
0.17
0.02
0.005
0.03
-0.13
-0.29
-0.335
-0.32
-0.385
-0.215
0.05
0.175
-0.065
-0.005
-0.135
-0.385
-0.37
-0.335
-0.325
-0.125
0.005
0.02
0.02
0.02
-0.195
-0.295
-0.335
-0.4
-0.365
-0.16
-0.06
0.125
-0.015
-0.05
-0.175
-0.305
-0.345
-0.36
-0.415
-0.17
0.165
0.015
-0.08
0.07
-0.255
-0.475
-0.39
-0.43
-0.3
-0.17
-0.05
0.075
-0.05
-0.08
-0.21
-0.39
-0.39
-0.365
-0.36
-0.17
-0.065
0.05
0.015
-0.055
-0.265
-0.435
-0.41
-0.43
-0.33
-0.165
0.03
0.05
-0.04
-0.065
-0.39
-0.48
-0.4
-0.355
-0.305
-0.195
0.02
0.025
-0.085
-0.19
-0.375
-0.505
-0.42
-0.21
-0.235
-0.175
-0.04
-0.065
-0.125
-0.1
-0.38
-0.495
-0.52
-0.37
-0.275
-0.165
-0.05
0.085
-0.08
-0.17
-0.435
-0.425
-0.485
-0.285
-0.325
-0.21
-0.075
-0.07
-0.13
-0.21
-0.375
-0.46
-0.45
-0.44
-0.25
-0.055
-0.015
-0.195
-0.105
-0.215
-0.415
-0.45
-0.475
-0.405
-0.305
-0.18
-0.025
-0.02
-0.15
-0.23
-0.34
-0.535
-0.435
-0.375
-0.29
-0.215
-0.025
-0.035
-0.06
-0.305
-0.445
-0.48
-0.46
-0.505
-0.265
-0.03
-0.1
-0.13
-0.14
-0.305
-0.405
-0.485
-0.5
-0.48
-0.285
-0.14
0.02
-0.17
-0.18
-0.4
-0.48
-0.49
-0.5
-0.375
-0.26
-0.12
-0.085
-0.07
-0.15
-0.36
-0.415
-0.5
-0.575
-0.435
-0.31
-0.13
0.01
-0.095
-0.14
-0.39
-0.475
-0.52
-0.31
-0.26
-0.325
-0.065
-0.03
-0.185
-0.175
-0.27
-0.46
-0.46
-0.45
-0.39
-0.145
-0.06
-0.015
-0.09
-0.12
-0.245
-0.48
-0.535
-0.535
-0.415
-0.205
-0.055
-0.115
-0.125
-0.21
-0.42
-0.575
-0.575
-0.535
-0.34
-0.165
-0.14
-0.095
-0.165
-0.19
-0.505
-0.635
-0.42
-0.53
-0.465
-0.245
-0.13
-0.125
-0.21
-0.285
-0.45
-0.59
-0.555
-0.515
-0.41
-0.24
-0.2
-0.075
-0.15
-0.275
-0.48
-0.525
-0.6
-0.485
-0.435
-0.31
-0.165
-0.155
-0.205
-0.32
-0.495
-0.565
-0.62
-0.52
-0.4
-0.205
-0.175
-0.22
-0.21
-0.29
-0.53
-0.605
-0.57
-0.525
-0.4
-0.255
-0.115
-0.08
-0.045
-0.485
-0.48
-0.455
-0.49
-0.42
-0.02
0.2
0.23
0.27
0.28
0.145
-0.08
-0.1
-0.18
-0.3
-0.295
-0.08
-0.215
-0.34
-0.27
-0.51
-0.6
-0.79
-0.74
-0.73
-0.535
-0.41
-0.35
-0.285
-0.3
-0.52
-0.65
-0.605
-0.66
-0.545
-0.355
-0.215
-0.2
-0.155
-0.23
-0.355
-0.53
-0.64
-0.455
-0.52
-0.39
-0.22
-0.13
-0.26
-0.3
-0.46
-0.58
-0.59
-0.6
-0.555
-0.315
-0.01
-0.175
-0.25
-0.26
-0.365
-0.65
-0.565
-0.67
-0.515
-0.275
-0.155
-0.21
-0.135
-0.355
-0.515
-0.635
-0.575
-0.48
-0.46
-0.3
-0.255
-0.18
-0.205
-0.235
-0.495
-0.595
-0.58
-0.59
-0.44
-0.285
-0.15
-0.11
-0.17
-0.225
-0.365
-0.615
-0.705
-0.545
-0.41
-0.185
-0.075
-0.09
-0.26
-0.245
-0.4
-0.41
-0.44
-0.62
-0.44
-0.28
-0.105
-0.01
-0.055
-0.15
-0.405
-0.54
-0.425
-0.455
-0.33
-0.13
0.005
0.065
0.11
-0.18
-0.235
-0.38
-0.34
-0.295
-0.225
0.01
0.07
0.095
0.07
-0.05
-0.155
-0.295
-0.27
-0.15
-0.075
0.065
0.185
0.13
0.13
-0.045
-0.03
-0.29
-0.24
-0.26
-0.085
0.07
0.19
0.12
0.015
-0.165
-0.335
-0.435
-0.355
-0.48
-0.21
-0.06
-0.045
0.01
-0.08
-0.295
-0.42
-0.505
-0.515
-0.5
-0.38
-0.135
-0.205
-0.205
-0.195
-0.385
-0.54
-0.63
-0.635
-0.57
-0.4
-0.205
-0.155
-0.21
-0.24
-0.445
-0.63
-0.67
-0.675
-0.61
-0.395
-0.265
-0.165
-0.24
-0.325
-0.39
-0.685
-0.745
-0.64
-0.56
-0.365
-0.235
-0.27
-0.21
-0.255
-0.55
-0.675
-0.7
-0.565
-0.42
-0.385
-0.28
-0.32
-0.29
-0.31
-0.445
-0.69
-0.61
-0.575
-0.545
-0.395
-0.16
-0.16
-0.335
-0.345
-0.54
-0.645
-0.535
-0.625
-0.54
-0.37
-0.2
-0.3
-0.27
-0.29
-0.53
-0.69
-0.705
-0.57
-0.58
-0.38
-0.16
-0.28
-0.21
-0.33
-0.52
-0.68
-0.7
-0.6
-0.455
-0.33
-0.15
-0.21
-0.275
-0.41
-0.475
-0.61
-0.665
-0.58
-0.53
-0.355
-0.175
-0.29
-0.195
-0.41
-0.475
-0.61
-0.59
-0.56
-0.5
-0.32
-0.25
-0.21
-0.3
-0.485
-0.48
-0.66
-0.685
-0.61
-0.39
-0.27
-0.28
-0.27
-0.315
-0.415
-0.575
-0.6
-0.675
-0.605
-0.455
-0.235
-0.24
-0.2
-0.195
-0.395
-0.56
-0.64
-0.62
-0.605
-0.395
-0.31
-0.185
-0.22
-0.335
-0.41
-0.65
-0.61
-0.585
-0.53
-0.38
-0.335
-0.3
-0.26
-0.25
-0.43
-0.52
-0.645
-0.63
-0.65
-0.49
-0.215
-0.11
-0.275
-0.375
-0.43
-0.485
-0.63
-0.53
-0.595
-0.445
-0.3
-0.175
-0.235
-0.36
-0.52
-0.57
-0.63
-0.65
-0.57
-0.39
-0.25
-0.145
-0.185
-0.305
-0.57
-0.645
-0.605
-0.6
-0.54
-0.405
-0.21
-0.18
-0.33
-0.295
-0.385
-0.5
-0.73
-0.64
-0.525
-0.325
-0.21
-0.26
-0.275
-0.315
-0.4
-0.63
-0.515
-0.755
-0.485
-0.35
-0.29
-0.18
-0.215
-0.35
-0.5
-0.57
-0.635
-0.585
-0.485
-0.315
-0.185
-0.26
-0.2
-0.345
-0.465
-0.62
-0.605
-0.515
-0.49
-0.39
-0.24
-0.255
-0.165
-0.285
-0.475
-0.6
-0.66
-0.615
-0.4
-0.28
-0.115
-0.185
-0.225
-0.345
-0.475
-0.665
-0.59
-0.565
-0.435
-0.255
-0.175
-0.17
-0.095
-0.425
-0.48
-0.6
-0.61
-0.62
-0.46
-0.29
-0.12
-0.12
-0.16
-0.36
-0.53
-0.57
-0.495
-0.555
-0.48
-0.365
-0.185
-0.175
-0.21
-0.37
-0.535
-0.55
-0.5
-0.495
-0.32
-0.245
-0.205
-0.165
-0.23
-0.325
-0.465
-0.57
-0.56
-0.605
-0.365
-0.2
-0.165
-0.16
-0.235
-0.355
-0.4
-0.64
-0.61
-0.45
-0.405
-0.28
-0.145
-0.11
-0.21
-0.4
-0.415
-0.515
-0.55
-0.54
-0.41
-0.165
-0.02
-0.095
-0.185
-0.385
-0.63
-0.61
-0.54
-0.53
-0.29
-0.11
-0.12
-0.145
-0.12
-0.435
-0.57
-0.565
-0.48
-0.535
-0.29
-0.16
-0.155
-0.095
-0.14
-0.34
-0.48
-0.54
-0.43
-0.485
-0.275
-0.075
-0.055
-0.06
-0.135
-0.41
-0.415
-0.405
-0.51
-0.445
-0.065
-0.125
-0.165
-0.08
-0.1
-0.355
-0.485
-0.505
-0.385
-0.32
-0.245
-0.18
-0.095
-0.22
-0.14
-0.29
-0.69
-0.585
-0.52
-0.335
-0.195
-0.135
-0.165
-0.19
-0.22
-0.35
-0.535
-0.495
-0.52
-0.445
-0.17
-0.085
-0.11
-0.195
-0.27
-0.43
-0.485
-0.515
-0.475
-0.35
-0.155
-0.09
-0.17
-0.095
-0.365
-0.415
-0.58
-0.53
-0.51
-0.345
-0.115
-0.09
-0.15
-0.115
-0.36
-0.45
-0.52
-0.535
-0.51
-0.33
-0.12
-0.21
-0.175
-0.12
-0.32
-0.375
-0.44
-0.52
-0.46
-0.395
-0.145
-0.05
-0.045
-0.06
-0.36
-0.345
-0.48
-0.4
-0.375
-0.085
0.24
0.285
0.415
0.355
0.27
0.055
0.05
-0.065
-0.31
-0.135
0.04
0.07
-0.12
-0.23
-0.425
-0.565
-0.675
-0.65
-0.53
-0.375
-0.38
-0.12
-0.22
-0.225
-0.42
-0.49
-0.535
-0.48
-0.415
-0.13
-0.17
-0.04
-0.055
-0.125
-0.25
-0.42
-0.52
-0.53
-0.34
-0.19
-0.025
0.0
-0.085
0.005
-0.235
-0.415
-0.46
-0.42
-0.425
-0.235
-0.05
-0.01
-0.115
-0.09
-0.26
-0.435
-0.39
-0.295
-0.345
-0.14
0.07
0.06
-0.105
-0.145
-0.35
-0.455
-0.39
-0.4
-0.3
-0.18
0.05
0.09
0.01
-0.155
-0.34
-0.405
-0.425
-0.335
-0.24
-0.085
0.02
0.015
0.105
-0.07
-0.23
-0.39
-0.355
-0.36
-0.23
-0.05
0.145
0.13
-0.015
-0.19
-0.275
-0.375
-0.26
-0.26
-0.11
0.06
0.095
0.11
0.09
-0.025
-0.055
-0.225
-0.275
-0.22
-0.07
0.05
0.25
0.265
0.155
0.065
-0.115
-0.15
-0.235
-0.2
0.075
0.21
0.31
0.355
0.235
0.16
0.005
-0.035
0.035
-0.085
0.165
0.32
0.345
0.365
0.31
0.19
0.07
-0.045
-0.03
-0.025
0.135
0.25
0.385
0.26
0.325
0.14
-0.06
-0.245
-0.205
-0.145
-0.075
0.19
0.26
0.225
0.17
-0.025
-0.205
-0.375
-0.235
-0.18
-0.2
-0.01
0.065
0.105
0.03
-0.185
-0.295
-0.285
-0.355
-0.37
-0.205
-0.025
0.075
-0.005
-0.125
-0.225
-0.355
-0.435
-0.34
-0.275
-0.165
0.035
0.045
-0.05
-0.08
-0.295
-0.435
-0.51
-0.37
-0.28
-0.045
0.08
-0.01
-0.03
-0.085
-0.215
-0.38
-0.455
-0.44
-0.415
-0.03
0.03
-0.085
0.01
-0.135
-0.215
-0.41
-0.435
-0.315
-0.23
-0.12
-0.045
0.05
0.005
-0.18
-0.25
-0.44
-0.365
-0.42
-0.265
-0.14
0.045
0.04
0.005
-0.19
-0.3
-0.46
-0.415
-0.32
-0.205
-0.08
0.13
0.03
0.015
-0.185
-0.4
-0.38
-0.425
-0.345
-0.245
-0.125
0.105
0.07
-0.045
-0.125
-0.32
-0.415
-0.38
-0.41
-0.195
-0.115
0.01
0.06
-0.035
-0.15
-0.285
-0.28
-0.37
-0.33
-0.26
-0.08
-0.045
0.03
-0.025
-0.155
-0.24
-0.33
-0.425
-0.405
-0.265
-0.06
0.045
-0.015
-0.07
-0.18
-0.31
-0.42
-0.34
-0.33
-0.205
-0.01
0.075
-0.075
-0.035
-0.21
-0.4
-0.485
-0.355
-0.355
-0.15
-0.04
0.055
0.05
-0.06
-0.13
-0.275
-0.44
-0.42
-0.42
-0.255
0.095
0.21
-0.05
-0.09
-0.24
-0.39
-0.515
-0.41
-0.305
-0.18
0.035
0.095
-0.07
-0.16
-0.22
-0.45
-0.415
-0.375
-0.43
-0.075
-0.05
-0.025
0.06
-0.03
-0.245
-0.36
-0.445
-0.37
-0.46
0.005
0.02
0.12
-0.01
-0.205
-0.35
-0.35
-0.32
-0.395
-0.325
-0.035
-0.025
0.03
0.03
-0.145
-0.25
-0.35
-0.525
-0.42
-0.3
-0.13
-0.045
0.065
-0.045
-0.07
-0.27
-0.44
-0.36
-0.41
-0.245
-0.105
0.005
0.08
0.055
-0.1
-0.235
-0.465
-0.4
-0.365
-0.34
-0.155
0.09
0.065
0.13
-0.095
-0.265
-0.235
-0.45
-0.25
-0.175
-0.02
0.095
0.07
0.035
-0.09
-0.175
-0.365
-0.39
-0.26
-0.18
-0.025
0.055
-0.105
-0.01
-0.075
-0.31
-0.375
-0.3
-0.325
-0.24
