# TIPE ECG 2021 - ECG-ID Database v1.0.0 par Physionet
# [Numéro de la personne, Période d'échantillonnage, Prénom, Age, Sexe, Date de l'enregistrement]
[09, 0.002, Tracey, 23, F, 05.04.2005]
-0.345
-0.37
-0.41
-0.515
-0.57
-0.62
-0.58
-0.535
-0.445
-0.335
-0.34
-0.365
-0.41
-0.5
-0.605
-0.63
-0.555
-0.52
-0.445
-0.405
-0.34
-0.395
-0.42
-0.485
-0.61
-0.61
-0.595
-0.53
-0.445
-0.385
-0.345
-0.395
-0.46
-0.535
-0.61
-0.605
-0.595
-0.53
-0.415
-0.345
-0.415
-0.42
-0.46
-0.54
-0.63
-0.625
-0.58
-0.56
-0.445
-0.41
-0.375
-0.39
-0.43
-0.58
-0.68
-0.625
-0.585
-0.53
-0.46
-0.415
-0.43
-0.435
-0.46
-0.59
-0.66
-0.645
-0.625
-0.555
-0.455
-0.385
-0.41
-0.425
-0.5
-0.615
-0.665
-0.65
-0.61
-0.525
-0.44
-0.42
-0.42
-0.445
-0.495
-0.605
-0.68
-0.68
-0.62
-0.53
-0.445
-0.405
-0.41
-0.47
-0.55
-0.61
-0.67
-0.66
-0.62
-0.5
-0.44
-0.41
-0.42
-0.465
-0.52
-0.625
-0.67
-0.64
-0.595
-0.555
-0.415
-0.41
-0.455
-0.485
-0.56
-0.64
-0.685
-0.69
-0.63
-0.53
-0.445
-0.405
-0.42
-0.44
-0.57
-0.64
-0.67
-0.685
-0.6
-0.54
-0.425
-0.4
-0.43
-0.48
-0.575
-0.64
-0.665
-0.665
-0.61
-0.57
-0.46
-0.415
-0.43
-0.485
-0.545
-0.64
-0.68
-0.675
-0.635
-0.535
-0.44
-0.405
-0.47
-0.525
-0.545
-0.65
-0.71
-0.665
-0.58
-0.48
-0.49
-0.44
-0.45
-0.475
-0.56
-0.68
-0.72
-0.6
-0.605
-0.52
-0.435
-0.45
-0.455
-0.485
-0.59
-0.68
-0.68
-0.635
-0.62
-0.475
-0.445
-0.43
-0.48
-0.5
-0.6
-0.65
-0.645
-0.635
-0.595
-0.495
-0.4
-0.37
-0.43
-0.505
-0.595
-0.635
-0.605
-0.565
-0.52
-0.44
-0.385
-0.395
-0.365
-0.455
-0.575
-0.585
-0.62
-0.58
-0.535
-0.45
-0.42
-0.365
-0.355
-0.43
-0.56
-0.635
-0.635
-0.61
-0.56
-0.52
-0.48
-0.415
-0.465
-0.54
-0.67
-0.705
-0.685
-0.575
-0.585
-0.505
-0.44
-0.46
-0.49
-0.575
-0.675
-0.74
-0.68
-0.645
-0.625
-0.5
-0.45
-0.45
-0.525
-0.61
-0.71
-0.685
-0.69
-0.655
-0.59
-0.52
-0.465
-0.475
-0.51
-0.56
-0.67
-0.735
-0.72
-0.665
-0.59
-0.54
-0.5
-0.44
-0.475
-0.6
-0.675
-0.71
-0.655
-0.565
-0.435
-0.305
-0.2
-0.15
-0.155
-0.175
-0.14
-0.16
-0.165
-0.18
-0.17
-0.19
-0.25
-0.365
-0.46
-0.645
-0.805
-0.905
-0.925
-0.835
-0.76
-0.685
-0.665
-0.715
-0.735
-0.735
-0.82
-0.825
-0.79
-0.765
-0.605
-0.49
-0.465
-0.525
-0.57
-0.665
-0.69
-0.73
-0.675
-0.66
-0.54
-0.495
-0.485
-0.47
-0.535
-0.625
-0.715
-0.74
-0.685
-0.67
-0.54
-0.47
-0.485
-0.465
-0.51
-0.615
-0.705
-0.705
-0.68
-0.635
-0.515
-0.48
-0.475
-0.495
-0.53
-0.67
-0.735
-0.705
-0.68
-0.62
-0.495
-0.465
-0.45
-0.46
-0.515
-0.635
-0.725
-0.725
-0.65
-0.605
-0.5
-0.435
-0.44
-0.475
-0.565
-0.63
-0.665
-0.695
-0.645
-0.585
-0.46
-0.385
-0.395
-0.46
-0.495
-0.59
-0.695
-0.61
-0.59
-0.535
-0.385
-0.36
-0.36
-0.395
-0.445
-0.55
-0.62
-0.635
-0.545
-0.43
-0.345
-0.28
-0.3
-0.355
-0.44
-0.48
-0.495
-0.465
-0.475
-0.395
-0.26
-0.23
-0.3
-0.325
-0.325
-0.44
-0.5
-0.495
-0.395
-0.335
-0.265
-0.23
-0.24
-0.265
-0.34
-0.445
-0.46
-0.435
-0.42
-0.36
-0.265
-0.245
-0.28
-0.295
-0.405
-0.525
-0.56
-0.535
-0.505
-0.445
-0.385
-0.35
-0.38
-0.445
-0.545
-0.62
-0.665
-0.655
-0.615
-0.55
-0.475
-0.47
-0.495
-0.535
-0.62
-0.73
-0.77
-0.755
-0.675
-0.585
-0.52
-0.5
-0.505
-0.59
-0.715
-0.75
-0.7
-0.73
-0.69
-0.595
-0.55
-0.555
-0.6
-0.59
-0.66
-0.79
-0.805
-0.755
-0.715
-0.6
-0.53
-0.52
-0.535
-0.63
-0.72
-0.8
-0.78
-0.765
-0.695
-0.595
-0.555
-0.585
-0.565
-0.61
-0.755
-0.795
-0.8
-0.785
-0.705
-0.59
-0.555
-0.555
-0.605
-0.65
-0.71
-0.78
-0.85
-0.81
-0.68
-0.6
-0.545
-0.545
-0.625
-0.66
-0.775
-0.85
-0.84
-0.795
-0.745
-0.61
-0.57
-0.58
-0.635
-0.695
-0.815
-0.81
-0.86
-0.815
-0.76
-0.65
-0.565
-0.58
-0.645
-0.72
-0.82
-0.865
-0.855
-0.785
-0.725
-0.62
-0.59
-0.615
-0.635
-0.73
-0.815
-0.87
-0.86
-0.82
-0.745
-0.645
-0.595
-0.665
-0.745
-0.69
-0.76
-0.85
-0.85
-0.795
-0.735
-0.635
-0.595
-0.655
-0.685
-0.775
-0.83
-0.855
-0.87
-0.83
-0.755
-0.68
-0.64
-0.635
-0.71
-0.78
-0.84
-0.865
-0.855
-0.83
-0.74
-0.625
-0.63
-0.69
-0.715
-0.815
-0.885
-0.91
-0.84
-0.825
-0.755
-0.655
-0.61
-0.655
-0.705
-0.785
-0.875
-0.87
-0.865
-0.865
-0.7
-0.67
-0.68
-0.67
-0.705
-0.81
-0.895
-0.83
-0.84
-0.835
-0.74
-0.66
-0.625
-0.665
-0.69
-0.805
-0.925
-0.92
-0.885
-0.85
-0.71
-0.675
-0.665
-0.645
-0.745
-0.84
-0.915
-0.875
-0.86
-0.82
-0.74
-0.655
-0.66
-0.675
-0.73
-0.825
-0.895
-0.92
-0.835
-0.825
-0.735
-0.635
-0.655
-0.72
-0.745
-0.815
-0.9
-0.88
-0.875
-0.82
-0.72
-0.63
-0.63
-0.7
-0.77
-0.85
-0.87
-0.885
-0.865
-0.83
-0.705
-0.64
-0.635
-0.695
-0.775
-0.865
-0.905
-0.91
-0.875
-0.795
-0.68
-0.62
-0.68
-0.705
-0.75
-0.87
-0.87
-0.875
-0.825
-0.725
-0.67
-0.655
-0.645
-0.65
-0.69
-0.81
-0.86
-0.875
-0.795
-0.665
-0.595
-0.56
-0.6
-0.675
-0.735
-0.815
-0.88
-0.845
-0.76
-0.7
-0.605
-0.55
-0.635
-0.64
-0.705
-0.815
-0.885
-0.855
-0.84
-0.76
-0.625
-0.62
-0.64
-0.715
-0.795
-0.88
-0.92
-0.925
-0.88
-0.785
-0.67
-0.655
-0.68
-0.725
-0.805
-0.885
-0.93
-0.935
-0.855
-0.775
-0.675
-0.645
-0.68
-0.705
-0.835
-0.92
-0.94
-0.9
-0.85
-0.735
-0.675
-0.67
-0.715
-0.785
-0.82
-0.875
-0.93
-0.885
-0.845
-0.76
-0.665
-0.675
-0.715
-0.735
-0.84
-0.9
-0.9
-0.785
-0.7
-0.58
-0.495
-0.37
-0.375
-0.3
-0.3
-0.355
-0.36
-0.4
-0.42
-0.4
-0.39
-0.48
-0.605
-0.735
-0.895
-1.03
-1.085
-1.105
-1.08
-0.925
-0.86
-0.84
-0.875
-0.915
-1.015
-1.03
-1.01
-0.95
-0.86
-0.74
-0.67
-0.665
-0.715
-0.75
-0.85
-0.905
-0.925
-0.85
-0.82
-0.71
-0.635
-0.655
-0.745
-0.81
-0.845
-0.895
-0.87
-0.83
-0.795
-0.705
-0.595
-0.645
-0.685
-0.765
-0.845
-0.89
-0.85
-0.83
-0.81
-0.71
-0.645
-0.61
-0.685
-0.74
-0.85
-0.91
-0.885
-0.805
-0.77
-0.645
-0.615
-0.65
-0.705
-0.77
-0.83
-0.87
-0.84
-0.77
-0.755
-0.66
-0.605
-0.63
-0.64
-0.72
-0.805
-0.85
-0.84
-0.775
-0.695
-0.57
-0.565
-0.62
-0.655
-0.69
-0.74
-0.8
-0.795
-0.69
-0.67
-0.555
-0.515
-0.535
-0.58
-0.66
-0.74
-0.765
-0.72
-0.655
-0.52
-0.46
-0.46
-0.48
-0.47
-0.565
-0.665
-0.68
-0.65
-0.55
-0.475
-0.36
-0.38
-0.345
-0.4
-0.485
-0.58
-0.635
-0.615
-0.545
-0.425
-0.35
-0.3
-0.355
-0.43
-0.525
-0.595
-0.61
-0.56
-0.575
-0.42
-0.36
-0.345
-0.39
-0.45
-0.615
-0.635
-0.645
-0.65
-0.625
-0.52
-0.475
-0.505
-0.54
-0.57
-0.67
-0.79
-0.82
-0.72
-0.69
-0.64
-0.575
-0.59
-0.63
-0.66
-0.79
-0.85
-0.86
-0.815
-0.75
-0.635
-0.615
-0.625
-0.69
-0.695
-0.84
-0.89
-0.85
-0.8
-0.795
-0.715
-0.655
-0.62
-0.695
-0.76
-0.815
-0.81
-0.89
-0.86
-0.79
-0.655
-0.61
-0.63
-0.69
-0.765
-0.855
-0.89
-0.9
-0.805
-0.76
-0.65
-0.61
-0.67
-0.69
-0.755
-0.85
-0.915
-0.875
-0.8
-0.76
-0.69
-0.615
-0.635
-0.68
-0.745
-0.85
-0.915
-0.885
-0.81
-0.765
-0.665
-0.635
-0.645
-0.695
-0.82
-0.86
-0.895
-0.835
-0.835
-0.765
-0.665
-0.615
-0.655
-0.69
-0.765
-0.89
-0.9
-0.865
-0.84
-0.775
-0.695
-0.635
-0.655
-0.72
-0.865
-0.89
-0.925
-0.885
-0.8
-0.76
-0.735
-0.675
-0.64
-0.71
-0.825
-0.925
-0.94
-0.86
-0.855
-0.76
-0.68
-0.65
-0.705
-0.755
-0.85
-0.92
-0.95
-0.865
-0.85
-0.75
-0.7
-0.675
-0.7
-0.73
-0.84
-0.91
-0.9
-0.935
-0.86
-0.73
-0.67
-0.66
-0.71
-0.775
-0.86
-0.935
-0.96
-0.935
-0.86
-0.735
-0.675
-0.69
-0.73
-0.725
-0.845
-0.97
-0.985
-0.915
-0.84
-0.74
-0.69
-0.695
-0.73
-0.775
-0.885
-0.94
-0.92
-0.925
-0.855
-0.78
-0.625
-0.69
-0.74
-0.755
-0.875
-0.955
-0.945
-0.895
-0.83
-0.73
-0.675
-0.68
-0.75
-0.775
-0.855
-0.98
-0.95
-0.855
-0.84
-0.73
-0.645
-0.675
-0.755
-0.8
-0.9
-0.94
-0.925
-0.88
-0.84
-0.745
-0.65
-0.695
-0.725
-0.815
-0.885
-0.92
-0.915
-0.895
-0.83
-0.745
-0.68
-0.69
-0.71
-0.76
-0.875
-0.95
-0.92
-0.89
-0.73
-0.72
-0.63
-0.685
-0.75
-0.775
-0.88
-0.915
-0.91
-0.865
-0.785
-0.69
-0.65
-0.685
-0.775
-0.83
-0.9
-0.875
-0.88
-0.825
-0.725
-0.655
-0.615
-0.6
-0.695
-0.755
-0.815
-0.85
-0.81
-0.795
-0.71
-0.63
-0.59
-0.68
-0.665
-0.735
-0.845
-0.855
-0.82
-0.78
-0.665
-0.615
-0.595
-0.65
-0.685
-0.79
-0.88
-0.93
-0.91
-0.83
-0.725
-0.675
-0.655
-0.735
-0.74
-0.855
-0.905
-0.925
-0.885
-0.84
-0.735
-0.7
-0.69
-0.705
-0.75
-0.86
-0.91
-0.93
-0.89
-0.85
-0.725
-0.675
-0.67
-0.735
-0.73
-0.82
-0.905
-0.935
-0.89
-0.865
-0.76
-0.685
-0.655
-0.695
-0.785
-0.85
-0.95
-0.935
-0.86
-0.865
-0.75
-0.675
-0.655
-0.725
-0.72
-0.775
-0.825
-0.75
-0.68
-0.565
-0.425
-0.255
-0.205
-0.215
-0.125
-0.295
-0.445
-0.465
-0.555
-0.625
-0.54
-0.605
-0.67
-0.82
-0.905
-1.07
-1.14
-1.145
-1.02
-0.99
-0.875
-0.81
-0.805
-0.835
-0.82
-0.9
-0.93
-0.9
-0.87
-0.785
-0.665
-0.63
-0.64
-0.695
-0.775
-0.925
-0.885
-0.86
-0.795
-0.75
-0.66
-0.61
-0.605
-0.69
-0.765
-0.835
-0.895
-0.86
-0.795
-0.73
-0.675
-0.635
-0.61
-0.655
-0.77
-0.86
-0.875
-0.845
-0.765
-0.71
-0.65
-0.605
-0.62
-0.65
-0.695
-0.84
-0.88
-0.8
-0.765
-0.725
-0.56
-0.51
-0.605
-0.655
-0.755
-0.79
-0.89
-0.86
-0.685
-0.64
-0.57
-0.575
-0.63
-0.65
-0.72
-0.8
-0.775
-0.75
-0.745
-0.65
-0.54
-0.545
-0.51
-0.54
-0.68
-0.76
-0.77
-0.75
-0.635
-0.52
-0.395
-0.505
-0.47
-0.415
-0.645
-0.71
-0.725
-0.71
-0.525
-0.49
-0.42
-0.26
-0.345
-0.415
-0.465
-0.62
-0.65
-0.58
-0.48
-0.365
-0.355
-0.25
-0.25
-0.34
-0.475
-0.475
-0.55
-0.49
-0.37
-0.32
-0.265
-0.305
-0.25
-0.325
-0.495
-0.48
-0.545
-0.555
-0.465
-0.37
-0.355
-0.275
-0.365
-0.515
-0.665
-0.535
-0.66
-0.67
-0.56
-0.5
-0.46
-0.53
-0.56
-0.595
-0.675
-0.67
-0.75
-0.705
-0.76
-0.56
-0.48
-0.445
-0.56
-0.62
-0.745
-0.81
-0.88
-0.81
-0.705
-0.555
-0.6
-0.57
-0.64
-0.725
-0.77
-0.78
-0.77
-0.755
-0.66
-0.645
-0.505
-0.63
-0.62
-0.68
-0.84
-0.835
-0.87
-0.76
-0.69
-0.615
-0.54
-0.58
-0.68
-0.7
-0.79
-0.795
-0.75
-0.685
-0.675
-0.645
-0.585
-0.54
-0.6
-0.695
-0.77
-0.8
-0.78
-0.79
-0.675
-0.58
-0.53
-0.56
-0.655
-0.725
-0.75
-0.84
-0.825
-0.785
-0.695
-0.61
-0.51
-0.55
-0.565
-0.735
-0.805
-0.855
-0.845
-0.77
-0.655
-0.635
-0.61
-0.625
-0.67
-0.795
-0.835
-0.8
-0.785
-0.785
-0.655
-0.63
-0.6
-0.545
-0.63
-0.74
-0.84
-0.82
-0.78
-0.745
-0.67
-0.58
-0.545
-0.615
-0.64
-0.75
-0.795
-0.83
-0.81
-0.78
-0.71
-0.565
-0.46
-0.565
-0.685
-0.8
-0.88
-0.895
-0.825
-0.79
-0.635
-0.645
-0.65
-0.625
-0.645
-0.76
-0.875
-0.875
-0.815
-0.755
-0.66
-0.53
-0.59
-0.575
-0.665
-0.885
-0.795
-0.825
-0.825
-0.755
-0.62
-0.6
-0.6
-0.645
-0.685
-0.815
-0.87
-0.89
-0.835
-0.71
-0.615
-0.545
-0.565
-0.605
-0.715
-0.79
-0.825
-0.88
-0.825
-0.755
-0.635
-0.555
-0.59
-0.675
-0.66
-0.8
-0.83
-0.795
-0.78
-0.73
-0.625
-0.585
-0.585
-0.635
-0.695
-0.81
-0.775
-0.79
-0.725
-0.615
-0.525
-0.52
-0.535
-0.535
-0.655
-0.735
-0.77
-0.71
-0.715
-0.62
-0.495
-0.475
-0.485
-0.545
-0.64
-0.71
-0.78
-0.77
-0.72
-0.655
-0.585
-0.505
-0.625
-0.72
-0.665
-0.78
-0.86
-0.805
-0.76
-0.685
-0.605
-0.575
-0.615
-0.625
-0.725
-0.805
-0.865
-0.82
-0.78
-0.75
-0.595
-0.57
-0.585
-0.58
-0.775
-0.81
-0.825
-0.805
-0.755
-0.675
-0.575
-0.535
-0.61
-0.65
-0.75
-0.82
-0.86
-0.82
-0.73
-0.63
-0.57
-0.515
-0.605
-0.695
-0.765
-0.84
-0.805
-0.8
-0.77
-0.655
-0.54
-0.51
-0.475
-0.41
-0.49
-0.565
-0.49
-0.295
-0.165
-0.005
0.08
0.045
-0.115
-0.28
-0.45
-0.59
-0.655
-0.74
-0.82
-0.73
-0.75
-0.76
-0.795
-0.8
-0.95
-1.005
-0.995
-0.92
-0.87
-0.68
-0.645
-0.59
-0.65
-0.655
-0.745
-0.805
-0.8
-0.745
-0.68
-0.595
-0.54
-0.49
-0.565
-0.63
-0.705
-0.8
-0.76
-0.785
-0.675
-0.57
-0.56
-0.51
-0.535
-0.6
-0.73
-0.815
-0.745
-0.725
-0.65
-0.54
-0.49
-0.47
-0.54
-0.585
-0.685
-0.745
-0.755
-0.64
-0.595
-0.485
-0.47
-0.5
-0.555
-0.595
-0.695
-0.73
-0.735
-0.7
-0.59
-0.525
-0.515
-0.475
-0.42
-0.555
-0.615
-0.715
-0.67
-0.605
-0.605
-0.5
-0.47
-0.47
-0.445
-0.55
-0.7
-0.66
-0.605
-0.555
-0.465
-0.41
-0.365
-0.395
-0.41
-0.545
-0.575
-0.58
-0.55
-0.505
-0.41
-0.345
-0.325
-0.31
-0.415
-0.425
-0.54
-0.52
-0.515
-0.425
-0.385
-0.27
-0.135
-0.235
-0.295
-0.34
-0.435
-0.44
-0.41
-0.37
-0.23
-0.16
-0.095
-0.175
-0.21
-0.295
-0.37
-0.4
-0.33
-0.335
-0.21
-0.155
-0.16
-0.225
-0.26
-0.355
-0.435
-0.49
-0.45
-0.37
-0.27
-0.24
-0.285
-0.325
-0.35
-0.505
-0.59
-0.595
-0.545
-0.525
-0.425
-0.38
-0.38
-0.46
-0.49
-0.635
-0.615
-0.695
-0.71
-0.585
-0.505
-0.375
-0.395
-0.415
-0.545
-0.615
-0.675
-0.695
-0.645
-0.57
-0.51
-0.485
-0.46
-0.52
-0.625
-0.655
-0.715
-0.685
-0.6
-0.59
-0.5
-0.445
-0.48
-0.475
-0.545
-0.63
-0.69
-0.695
-0.65
-0.6
-0.47
-0.475
-0.475
-0.51
-0.6
-0.635
-0.725
-0.675
-0.65
-0.6
-0.51
-0.43
-0.44
-0.505
-0.55
-0.68
-0.7
-0.655
-0.635
-0.57
-0.425
-0.395
-0.47
-0.55
-0.625
-0.615
-0.65
-0.68
-0.65
-0.59
-0.505
-0.42
-0.425
-0.49
-0.61
-0.71
-0.695
-0.715
-0.68
-0.54
-0.51
-0.465
-0.545
-0.545
-0.59
-0.72
-0.72
-0.68
-0.645
-0.57
-0.5
-0.435
-0.48
-0.55
-0.64
-0.695
-0.73
-0.725
-0.62
-0.585
-0.455
-0.435
-0.525
-0.525
-0.605
-0.72
-0.705
-0.73
-0.65
-0.565
-0.44
-0.465
-0.55
-0.6
-0.665
-0.735
-0.74
-0.715
-0.675
-0.54
-0.495
-0.42
-0.565
-0.59
-0.64
-0.75
-0.76
-0.63
-0.665
-0.5
-0.51
-0.475
-0.445
-0.53
-0.63
-0.695
-0.69
-0.645
-0.58
-0.475
-0.475
-0.445
-0.46
-0.475
-0.585
-0.705
-0.685
-0.64
-0.595
-0.465
-0.445
-0.45
-0.495
-0.56
-0.69
-0.72
-0.745
-0.73
-0.665
-0.57
-0.54
-0.515
-0.545
-0.645
-0.71
-0.795
-0.8
-0.71
-0.63
-0.575
-0.53
-0.565
-0.59
-0.655
-0.765
-0.77
-0.755
-0.765
-0.675
-0.615
-0.565
-0.535
-0.605
-0.635
-0.815
-0.815
-0.8
-0.8
-0.62
-0.625
-0.545
-0.595
-0.685
-0.675
-0.775
-0.84
-0.83
-0.75
-0.68
-0.545
-0.56
-0.61
-0.69
-0.75
-0.79
-0.87
-0.885
-0.815
-0.67
-0.565
-0.45
-0.425
-0.41
-0.515
-0.48
-0.38
-0.285
-0.165
-0.045
-0.005
-0.055
-0.15
-0.36
-0.505
-0.65
-0.795
-0.945
-0.96
-0.84
-0.91
-0.845
-0.775
-0.925
-0.99
-1.02
-1.03
-1.01
-0.96
-0.81
-0.74
-0.655
-0.655
-0.675
-0.765
-0.915
-0.9
-0.805
-0.765
-0.64
-0.675
-0.675
-0.655
-0.72
-0.735
-0.83
-0.845
-0.775
-0.77
-0.715
-0.625
-0.62
-0.64
-0.665
-0.725
-0.895
-0.855
-0.865
-0.86
-0.665
-0.57
-0.635
-0.675
-0.67
-0.82
-0.845
-0.845
-0.83
-0.855
-0.675
-0.605
-0.595
-0.67
-0.7
-0.79
-0.915
-0.875
-0.81
-0.79
-0.635
-0.605
-0.61
-0.67
-0.72
-0.81
-0.84
-0.825
-0.815
-0.74
-0.68
-0.635
-0.63
-0.7
-0.7
-0.795
-0.88
-0.81
-0.785
-0.73
-0.595
-0.51
-0.515
-0.595
-0.645
-0.79
-0.78
-0.76
-0.7
-0.67
-0.555
-0.445
-0.505
-0.535
-0.65
-0.7
-0.71
-0.685
-0.62
-0.6
-0.46
-0.395
-0.435
-0.505
-0.53
-0.595
-0.655
-0.63
-0.6
-0.505
-0.395
-0.36
-0.37
-0.465
-0.525
-0.625
-0.63
-0.58
-0.6
-0.555
-0.43
-0.375
-0.445
-0.55
-0.62
-0.76
-0.705
-0.7
-0.685
-0.595
-0.545
-0.52
-0.58
-0.65
-0.77
-0.83
-0.94
-0.815
-0.775
-0.765
-0.715
-0.65
-0.705
-0.77
-0.845
-0.935
-1.02
-0.95
-0.935
-0.815
-0.765
-0.705
-0.795
-0.865
-0.95
-1.04
-1.02
-0.995
-0.99
-0.78
-0.755
-0.76
-0.82
-0.855
-0.985
-0.975
-1.07
-0.985
-0.985
-0.88
-0.8
-0.79
-0.805
-0.885
-0.97
-1.025
-1.085
-1.015
-0.93
-0.865
-0.82
-0.79
-0.825
-0.87
-1.015
-1.085
-1.04
-1.03
-0.97
-0.895
-0.81
-0.815
-0.855
-0.895
-1.0
-1.055
-1.075
-1.0
-1.02
-0.88
-0.805
-0.845
-0.86
-1.005
-1.045
-1.065
-1.105
-1.08
-0.995
-0.875
-0.85
-0.855
-0.905
-0.95
-1.065
-1.1
-1.07
-1.065
-0.995
-0.93
-0.86
-0.78
-0.895
-0.94
-1.065
-1.095
-1.16
-1.065
-0.995
-0.89
-0.89
-0.85
-0.86
-0.92
-1.045
-1.09
-1.065
-1.04
-0.95
-0.845
-0.815
-0.86
-0.915
-0.94
-1.05
-1.095
-1.055
-1.015
-0.97
-0.845
-0.73
-0.805
-0.81
-0.93
-1.0
-1.01
-0.97
-0.95
-0.895
-0.815
-0.78
-0.78
-0.81
-0.895
-1.035
-1.055
-1.06
-0.99
-0.95
-0.815
-0.85
-0.87
-0.89
-1.095
-1.1
-1.04
-1.015
-1.03
-1.005
-0.885
-0.84
-0.93
-0.93
-0.925
-1.1
-1.15
-1.085
-1.06
-0.96
-0.92
-0.83
-0.825
-0.93
-1.015
-1.055
-1.09
-1.05
-1.02
-0.945
-0.865
-0.83
-0.885
-0.93
-0.995
-1.085
-1.1
-1.085
-1.06
-0.775
-0.76
-0.82
-0.8
-0.915
-1.02
-1.06
-1.075
-1.07
-1.08
-0.965
-0.88
-0.855
-0.8
-0.795
-0.91
-0.915
-0.86
-0.735
-0.685
-0.43
-0.305
-0.16
-0.245
-0.32
-0.47
-0.615
-0.755
-0.76
-0.82
-0.835
-0.9
-0.885
-0.975
-1.07
-1.195
-1.245
-1.255
-1.16
-1.1
-0.95
-0.93
-0.935
-0.95
-0.935
-1.03
-1.015
-1.0
-0.935
-0.925
-0.75
-0.695
-0.74
-0.885
-0.86
-0.92
-0.975
-0.905
-0.92
-0.87
-0.74
-0.66
-0.705
-0.84
-0.84
-0.945
-0.92
-0.905
-0.87
-0.76
-0.715
-0.665
-0.67
-0.7
-0.755
-0.905
-0.905
-0.83
-0.85
-0.76
-0.555
-0.58
-0.58
-0.665
-0.725
-0.825
-0.855
-0.82
-0.71
-0.68
-0.535
-0.515
-0.525
-0.625
-0.64
-0.77
-0.83
-0.725
-0.68
-0.6
-0.51
-0.505
-0.515
-0.465
-0.545
-0.665
-0.665
-0.7
-0.59
-0.51
-0.47
-0.43
-0.38
-0.445
-0.52
-0.55
-0.57
-0.56
-0.52
-0.38
-0.3
-0.265
-0.3
-0.335
-0.4
-0.525
-0.47
-0.415
-0.385
-0.31
-0.255
-0.115
-0.13
-0.265
-0.31
-0.325
-0.315
-0.315
-0.265
-0.165
-0.085
-0.035
-0.015
-0.055
-0.2
-0.27
-0.325
-0.29
-0.23
-0.16
-0.04
-0.005
-0.03
-0.075
-0.195
-0.36
-0.305
-0.28
-0.195
-0.15
-0.08
-0.12
-0.13
-0.165
-0.265
-0.385
-0.43
-0.365
-0.275
-0.275
-0.14
-0.175
-0.25
-0.275
-0.37
-0.455
-0.44
-0.405
-0.355
-0.23
-0.215
-0.22
-0.275
-0.29
-0.39
-0.42
-0.39
-0.385
-0.335
-0.195
-0.27
-0.225
-0.195
-0.235
-0.395
-0.415
-0.4
-0.35
-0.305
-0.215
-0.16
-0.2
-0.17
-0.22
-0.33
-0.355
-0.3
-0.28
-0.26
-0.18
-0.09
-0.11
-0.1
-0.205
-0.355
-0.365
-0.335
-0.26
-0.185
-0.11
-0.06
-0.1
-0.105
-0.225
-0.325
-0.315
-0.285
-0.245
-0.19
0.015
-0.035
-0.08
-0.175
-0.21
-0.23
-0.195
-0.245
-0.215
-0.1
-0.04
-0.025
0.005
-0.065
-0.145
-0.25
-0.23
-0.205
-0.215
-0.08
0.005
0.075
0.005
-0.035
-0.095
-0.175
-0.2
-0.165
-0.145
-0.04
0.025
0.065
0.01
0.005
-0.055
-0.115
-0.175
-0.18
-0.04
0.105
0.145
0.115
0.075
0.105
-0.005
-0.14
-0.125
-0.035
0.005
0.05
0.07
0.145
0.06
-0.01
-0.085
-0.12
-0.155
-0.155
-0.075
0.005
0.09
0.09
0.045
0.025
-0.12
-0.26
-0.18
-0.045
0.03
0.08
0.1
0.1
0.035
0.02
-0.105
-0.165
-0.18
-0.14
-0.005
0.05
0.11
0.1
0.08
0.01
-0.055
-0.09
-0.065
-0.105
0.035
0.11
0.135
0.135
0.085
0.05
-0.045
-0.11
-0.155
-0.07
0.065
0.13
0.15
0.14
0.06
0.07
-0.065
-0.14
-0.13
-0.04
0.06
0.04
0.13
0.21
0.195
0.205
0.175
0.12
0.38
0.49
0.61
0.745
0.92
0.84
0.71
0.595
0.35
0.23
0.245
0.125
0.055
0.12
0.065
0.05
-0.07
-0.155
-0.165
-0.19
-0.16
-0.14
-0.01
0.07
0.15
0.145
0.1
0.04
-0.01
-0.02
-0.005
0.03
0.125
0.2
0.27
0.265
0.215
0.08
0.08
0.015
0.06
0.16
0.2
0.245
0.27
0.245
0.215
0.13
0.095
0.01
0.07
0.165
0.23
0.32
0.295
0.265
0.175
0.17
0.095
0.09
0.085
0.145
0.265
0.29
0.34
0.29
0.3
0.165
0.09
0.075
0.07
0.22
0.27
0.335
0.335
0.31
0.26
0.15
0.125
0.16
0.18
0.21
0.345
0.42
0.39
0.355
0.305
0.26
0.225
0.175
0.2
0.225
0.385
0.46
0.465
0.335
0.375
0.29
0.25
0.3
0.335
0.39
0.485
0.475
0.47
0.51
0.485
0.39
0.34
0.345
0.395
0.43
0.59
0.645
0.615
0.6
0.53
0.455
0.35
0.5
0.515
0.545
0.65
0.71
0.705
0.645
0.595
0.48
0.46
0.455
0.45
0.555
0.63
0.67
0.625
0.64
0.515
0.41
0.415
0.425
0.405
0.465
0.545
0.53
0.605
0.485
0.43
0.31
0.27
0.25
0.295
0.36
0.465
0.47
0.425
0.395
0.325
0.21
0.27
0.205
0.195
0.305
0.455
0.495
0.405
0.355
0.285
0.175
0.18
0.24
0.19
0.305
0.345
0.47
0.435
0.39
0.275
0.22
0.18
0.17
0.255
0.365
0.445
0.4
0.34
0.325
0.265
0.225
0.18
0.23
0.265
0.325
0.32
0.485
0.41
0.365
0.29
0.215
0.195
0.21
0.265
0.345
0.385
0.435
0.37
0.445
0.27
0.23
0.19
0.19
0.27
0.355
0.395
0.43
0.355
0.395
0.25
0.19
0.17
0.18
0.3
0.35
0.465
0.45
0.445
0.335
0.225
0.195
0.215
0.26
0.3
0.39
0.44
0.41
0.41
0.375
0.325
0.195
0.25
0.245
0.34
0.45
0.49
0.49
0.455
0.425
0.305
0.27
0.27
0.28
0.335
0.455
0.53
0.44
0.44
0.365
0.25
0.21
0.15
0.22
0.315
0.405
0.45
0.41
0.365
0.315
0.245
0.16
0.125
0.18
0.255
0.36
0.375
0.39
0.375
0.285
0.185
0.125
0.17
0.2
0.28
0.365
0.41
0.38
0.31
0.28
0.16
0.065
0.075
0.24
0.315
0.395
0.4
0.425
0.295
0.23
0.18
0.13
0.175
0.225
0.275
0.34
0.39
0.37
0.355
0.245
0.15
0.125
0.11
0.155
0.245
0.35
0.35
0.315
0.31
0.275
0.27
0.33
0.43
0.515
0.65
0.805
0.99
1.02
1.01
0.86
0.685
0.61
0.58
0.475
0.5
0.47
0.37
0.295
0.2
0.065
-0.055
-0.105
0.0
0.03
0.145
0.3
0.245
0.26
0.26
0.18
0.13
0.135
0.185
0.255
0.31
0.38
0.44
0.405
0.32
0.24
0.175
0.125
0.24
0.28
0.34
0.41
0.375
0.35
0.435
0.24
0.205
0.15
0.225
0.305
0.41
0.46
0.455
0.385
0.36
0.235
0.21
0.165
0.21
0.315
0.42
0.43
0.445
0.435
0.365
0.28
0.205
0.18
0.235
0.305
0.43
0.465
0.49
0.375
0.365
0.305
0.205
0.24
0.255
0.35
0.49
0.455
0.495
0.4
0.395
0.29
0.21
0.225
0.29
0.34
0.435
0.51
0.505
0.485
0.415
0.255
0.265
0.335
0.41
0.42
0.555
0.625
0.58
0.6
0.515
0.38
0.425
0.405
0.47
0.545
0.65
0.715
0.67
0.685
0.545
0.56
0.555
0.5
0.545
0.665
0.73
0.745
0.775
0.7
0.64
0.545
0.52
0.54
0.625
0.66
0.735
0.745
0.72
0.69
0.595
0.495
0.42
0.465
0.53
0.6
0.645
0.75
0.605
0.64
0.505
0.38
0.35
0.4
0.445
0.595
0.665
0.57
0.565
0.475
0.365
0.255
0.275
0.355
0.345
0.4
0.495
0.51
0.48
0.46
0.375
0.28
0.24
0.29
0.345
0.435
0.445
0.535
0.46
0.475
0.35
0.265
0.255
0.3
0.31
0.42
0.485
0.495
0.435
0.41
0.37
0.28
0.22
0.34
0.325
0.44
0.56
0.565
0.48
0.495
0.39
0.25
0.26
0.32
0.335
0.465
0.505
0.515
0.465
0.41
0.36
0.23
0.275
0.365
0.365
0.485
0.485
0.525
0.46
0.4
0.35
0.275
0.225
0.265
0.365
0.535
0.53
0.5
0.495
0.445
0.31
0.24
0.32
0.31
0.39
0.505
0.63
0.555
0.48
0.425
0.33
0.295
0.3
0.34
0.395
0.505
0.575
0.575
0.535
0.455
0.395
0.33
0.305
0.41
0.485
0.605
0.59
0.59
0.515
0.475
0.36
0.305
0.33
0.415
0.45
0.535
0.545
0.47
0.425
0.39
0.33
0.29
0.28
0.36
0.405
0.465
0.575
0.535
0.475
0.335
0.25
0.23
0.26
0.31
0.395
0.46
0.465
0.45
0.42
0.345
0.26
0.215
0.255
0.28
0.385
0.48
0.53
0.475
0.39
0.34
0.24
0.225
0.255
0.27
0.365
0.455
0.52
0.47
0.375
0.26
0.3
0.195
0.27
0.32
0.42
0.445
0.45
0.41
0.33
0.175
0.195
0.29
0.235
0.265
0.385
0.44
0.595
0.575
0.565
0.56
0.615
0.635
0.81
0.92
1.115
1.13
1.055
0.985
0.88
0.675
0.47
0.4
0.38
0.31
0.33
0.355
0.275
0.21
0.15
0.14
0.005
0.06
0.145
0.245
0.37
0.42
0.455
0.43
0.36
0.245
0.18
0.225
0.28
0.31
0.46
0.445
0.505
0.485
0.355
0.265
0.24
0.25
0.295
0.385
0.45
0.48
0.435
0.415
0.38
0.29
0.19
0.265
0.295
0.33
0.515
0.51
0.49
0.42
0.41
0.295
0.28
0.255
0.31
0.38
0.52
0.45
0.51
0.47
0.37
0.355
0.225
0.235
0.325
0.395
0.53
0.49
0.43
0.42
0.405
0.315
0.275
0.26
0.32
0.415
0.475
0.465
0.485
0.45
0.35
0.245
0.23
0.38
0.375
0.45
0.555
0.625
0.55
0.505
0.44
0.39
0.355
0.375
0.425
0.525
0.615
0.64
0.635
0.575
0.515
0.415
0.45
0.46
0.55
0.665
0.725
0.74
0.685
0.635
0.545
0.515
0.48
0.56
0.62
0.69
0.75
0.775
0.71
0.71
0.625
0.51
0.505
0.54
0.56
0.66
0.73
0.74
0.695
0.63
0.5
0.415
0.38
0.445
0.495
0.595
0.62
0.605
0.565
0.5
0.36
0.325
0.305
0.325
0.41
0.465
0.495
0.5
0.415
0.37
0.3
0.205
0.27
0.275
0.305
0.42
0.5
0.445
0.395
0.29
0.3
0.19
0.25
0.275
0.31
0.43
0.465
0.465
0.38
0.36
0.205
0.2
0.18
0.32
0.345
0.39
0.525
0.42
0.395
0.405
0.265
0.205
0.23
0.195
0.31
0.435
0.465
0.39
0.4
0.385
0.27
0.21
0.255
0.275
0.35
0.445
0.475
0.435
0.38
0.345
0.26
0.155
0.245
0.29
0.27
0.38
0.49
0.44
0.385
0.34
0.22
0.14
0.26
0.26
0.35
0.415
0.495
0.445
0.395
0.275
0.225
0.115
0.195
0.255
0.355
0.41
0.42
0.4
0.405
0.305
0.245
0.185
0.225
0.285
0.375
0.425
0.54
0.37
0.4
0.285
0.22
0.16
0.225
0.22
0.35
0.435
0.475
0.44
0.415
0.27
0.205
0.215
0.31
0.275
0.365
0.51
0.59
0.53
0.42
0.335
0.22
0.245
0.295
0.32
0.41
0.43
0.45
0.415
0.36
0.37
0.245
0.215
0.235
0.27
0.315
0.405
0.52
0.42
0.355
0.215
0.155
0.175
0.27
0.26
0.355
0.425
0.435
0.4
0.35
0.295
0.135
0.145
0.2
0.27
0.365
0.41
0.455
0.4
0.325
0.2
0.135
0.165
0.23
0.26
0.35
0.405
0.445
0.385
0.335
0.22
0.125
0.09
0.22
0.285
0.435
0.46
0.395
0.31
0.325
0.18
0.105
0.14
0.145
0.265
0.355
0.39
0.44
0.435
0.51
0.415
0.48
0.535
0.675
0.83
1.03
1.14
1.055
0.955
0.745
0.59
0.495
0.385
0.345
0.31
0.35
0.29
0.24
0.18
0.075
-0.02
-0.03
0.025
0.05
0.16
0.32
0.355
0.335
0.305
0.265
0.2
0.155
0.17
0.255
0.31
0.39
0.47
0.4
0.315
0.27
0.2
0.21
0.18
0.2
0.3
0.355
0.46
0.375
0.315
0.28
0.17
0.21
0.23
0.265
0.34
0.395
0.415
0.44
0.4
0.225
0.1
0.2
0.25
0.25
0.375
0.435
0.45
0.39
0.33
0.235
0.215
0.2
0.25
0.28
0.35
0.4
0.45
0.395
0.355
0.285
0.22
0.21
0.25
0.26
0.36
0.475
0.485
0.405
0.35
0.295
0.2
0.19
0.29
0.32
0.43
0.47
0.465
0.425
0.415
0.335
0.295
0.27
0.31
0.29
0.425
0.575
0.545
0.53
0.475
0.39
0.34
0.315
0.355
0.455
0.585
0.595
0.71
0.54
0.52
0.425
0.36
0.355
0.41
0.515
0.645
0.64
0.65
0.595
0.545
0.45
0.39
0.415
0.465
0.495
0.61
0.65
0.635
0.52
0.53
0.315
0.285
0.335
0.375
0.41
0.465
0.485
0.46
0.445
0.325
0.16
0.195
0.225
0.225
0.305
0.395
0.385
0.365
0.305
0.275
0.155
0.075
0.065
0.15
0.255
0.305
0.34
0.325
0.26
0.18
0.075
0.03
0.095
0.17
0.235
0.305
0.35
0.27
0.215
0.12
0.035
0.025
0.09
0.135
0.18
0.265
0.315
0.285
0.195
0.105
-0.005
0.025
0.04
0.15
0.22
0.235
0.275
0.305
0.27
0.14
0.09
0.03
0.015
0.05
0.195
0.265
0.27
0.23
0.195
0.075
0.02
0.065
0.055
0.085
0.19
0.2
0.255
0.23
0.175
0.08
-0.005
-0.015
0.03
0.08
0.185
0.18
0.23
0.205
0.12
0.055
-0.055
-0.095
0.05
0.01
0.135
0.24
0.205
0.185
0.115
0.005
-0.025
-0.06
0.015
0.055
0.135
0.17
0.13
0.145
0.16
-0.015
-0.1
-0.045
-0.04
0.045
0.175
0.175
0.195
0.145
0.035
-0.065
-0.115
-0.105
-0.05
0.015
0.085
0.145
0.13
0.115
0.02
-0.08
-0.095
-0.085
-0.07
0.005
0.105
0.145
0.125
0.045
0.06
-0.07
-0.12
-0.08
-0.065
-0.12
0.035
0.185
0.11
0.115
0.03
-0.13
-0.16
-0.13
-0.09
-0.02
0.05
0.075
0.045
0.015
0.05
-0.08
-0.135
-0.105
-0.125
-0.01
0.09
0.125
0.065
0.04
-0.055
-0.14
-0.165
-0.14
-0.09
0.065
0.105
0.13
0.085
0.115
0.05
-0.13
-0.1
-0.095
-0.05
-0.005
0.12
0.185
0.135
0.055
-0.055
-0.075
-0.17
-0.075
-0.07
-0.025
0.03
0.085
0.065
0.01
-0.13
-0.18
-0.22
-0.135
-0.105
-0.05
0.025
0.045
0.005
-0.045
-0.14
-0.205
-0.235
-0.18
-0.11
-0.035
-0.01
0.01
0.01
-0.005
-0.135
-0.21
-0.18
-0.2
-0.125
-0.045
-0.01
0.025
-0.005
-0.075
-0.2
-0.245
-0.24
-0.15
-0.2
-0.075
0.015
0.05
-0.035
-0.045
-0.185
-0.255
-0.265
-0.245
-0.16
-0.06
0.045
-0.04
-0.06
-0.11
-0.085
-0.145
-0.11
-0.055
0.09
0.28
0.355
0.45
0.51
0.52
0.4
0.265
0.16
0.135
0.16
0.095
0.185
0.01
-0.085
-0.21
-0.37
-0.385
-0.44
-0.415
-0.34
-0.205
-0.16
-0.17
-0.19
-0.245
-0.31
-0.35
-0.305
-0.245
-0.21
-0.075
0.01
-0.015
-0.025
-0.065
-0.225
-0.275
-0.23
-0.24
-0.125
-0.06
0.035
-0.025
-0.14
-0.14
-0.19
-0.26
-0.255
-0.205
-0.11
-0.08
0.085
0.015
-0.125
-0.185
-0.22
-0.235
-0.215
-0.175
-0.1
-0.04
-0.015
-0.045
-0.095
-0.23
-0.275
-0.25
-0.165
-0.19
-0.13
0.005
0.025
-0.065
0.0
-0.165
-0.24
-0.27
-0.315
-0.2
0.0
0.015
0.085
0.015
-0.035
-0.195
-0.245
-0.18
-0.14
-0.155
-0.055
-0.035
0.075
0.03
-0.005
-0.13
-0.17
-0.15
-0.11
-0.075
0.005
0.1
0.095
0.065
0.025
-0.035
-0.11
-0.115
-0.1
0.05
0.09
0.14
0.255
0.145
0.095
0.03
0.04
-0.04
-0.03
0.035
0.145
0.27
0.295
0.23
0.185
0.08
-0.01
-0.035
0.04
0.16
0.255
0.28
0.22
0.16
0.19
0.085
0.01
-0.015
0.035
0.115
0.16
0.175
0.185
0.085
0.035
-0.07
-0.13
-0.155
-0.11
-0.055
0.035
0.095
0.105
0.06
-0.105
-0.2
-0.285
-0.255
-0.19
-0.105
-0.02
0.055
0.035
-0.06
-0.125
-0.2
-0.265
-0.28
-0.225
-0.165
-0.08
-0.025
-0.05
-0.095
-0.14
-0.205
-0.295
-0.275
-0.215
-0.16
-0.09
-0.045
-0.04
-0.145
-0.15
-0.285
-0.295
-0.27
-0.23
-0.155
-0.155
-0.04
-0.02
-0.15
-0.185
-0.255
-0.29
-0.3
-0.23
-0.12
-0.06
-0.04
-0.08
-0.135
-0.22
-0.31
-0.3
-0.255
-0.225
-0.2
-0.075
-0.015
-0.04
-0.14
-0.155
-0.28
-0.345
-0.27
-0.245
-0.115
-0.055
-0.085
-0.12
-0.1
-0.185
-0.31
-0.33
-0.325
-0.255
-0.085
-0.075
-0.09
-0.09
-0.115
-0.22
-0.315
-0.345
-0.28
-0.27
-0.155
-0.085
-0.04
-0.085
-0.16
-0.24
-0.34
-0.385
-0.28
-0.19
-0.16
-0.09
-0.045
-0.135
-0.165
-0.255
-0.335
-0.335
-0.295
-0.285
-0.125
-0.085
-0.085
-0.12
-0.17
-0.3
-0.31
-0.37
-0.315
-0.245
-0.16
-0.105
-0.11
-0.115
-0.18
-0.245
-0.42
-0.425
-0.27
-0.265
-0.155
-0.105
-0.095
-0.145
-0.19
-0.32
-0.345
-0.335
-0.305
-0.305
-0.235
-0.19
-0.03
-0.095
-0.18
-0.265
-0.35
-0.335
-0.28
-0.275
-0.13
-0.075
-0.12
-0.145
-0.225
-0.31
-0.365
-0.335
-0.31
-0.24
-0.125
-0.04
-0.065
-0.155
-0.225
-0.285
-0.42
-0.4
-0.335
-0.22
-0.12
-0.085
-0.13
-0.15
-0.245
-0.365
-0.33
-0.35
-0.31
-0.235
-0.13
-0.15
-0.16
-0.16
-0.2
-0.33
-0.44
-0.355
-0.295
-0.215
-0.125
-0.085
-0.14
-0.22
-0.255
-0.355
-0.43
-0.375
-0.37
-0.21
-0.01
-0.015
-0.15
-0.165
-0.27
-0.385
-0.385
-0.355
-0.3
-0.225
-0.135
-0.135
-0.175
-0.195
-0.29
-0.315
-0.385
-0.4
-0.365
-0.135
-0.095
-0.1
-0.16
-0.185
-0.31
-0.38
-0.35
-0.33
-0.33
-0.195
-0.125
-0.09
-0.16
-0.245
-0.305
-0.36
-0.375
-0.345
-0.305
-0.17
-0.11
-0.105
-0.155
-0.21
-0.32
-0.345
-0.36
-0.335
-0.315
-0.2
-0.07
-0.1
-0.14
-0.195
-0.29
-0.38
-0.42
-0.37
-0.305
-0.135
-0.11
-0.11
-0.12
-0.18
-0.21
-0.275
-0.3
-0.275
-0.21
-0.135
-0.03
-0.025
-0.11
-0.165
-0.3
-0.31
-0.355
-0.305
-0.16
-0.08
-0.05
-0.215
-0.135
-0.285
-0.205
-0.315
-0.32
-0.305
-0.26
-0.205
-0.055
-0.13
-0.155
-0.21
-0.335
-0.4
-0.365
-0.31
-0.245
-0.17
-0.11
-0.155
-0.185
-0.26
-0.325
-0.365
-0.42
-0.385
-0.29
-0.21
-0.185
-0.165
-0.17
-0.25
-0.355
-0.38
-0.375
-0.305
-0.275
-0.155
-0.145
-0.155
-0.24
-0.27
-0.38
-0.435
-0.355
-0.33
-0.315
-0.16
-0.14
-0.17
-0.25
-0.305
-0.38
-0.37
-0.345
-0.265
-0.12
0.015
0.095
0.065
0.14
0.115
0.145
0.115
0.255
0.205
0.18
0.18
0.19
0.025
-0.095
-0.23
-0.435
-0.535
-0.485
-0.445
-0.395
-0.375
-0.36
-0.345
-0.425
-0.455
-0.495
-0.515
-0.43
-0.375
-0.245
-0.17
-0.16
-0.185
-0.255
-0.32
-0.425
-0.425
-0.35
-0.34
-0.235
-0.185
-0.125
-0.16
-0.255
-0.38
-0.46
-0.365
-0.315
-0.275
-0.205
-0.16
-0.165
-0.175
-0.215
-0.365
-0.36
-0.435
-0.325
-0.26
-0.19
-0.18
-0.195
-0.185
-0.165
-0.2
-0.31
-0.385
-0.31
-0.265
-0.125
-0.12
-0.135
-0.17
-0.22
-0.34
-0.37
-0.39
-0.31
-0.26
-0.16
-0.11
-0.13
-0.155
-0.14
-0.27
-0.385
-0.355
-0.255
-0.22
-0.125
-0.05
-0.075
-0.115
-0.17
-0.26
-0.315
-0.29
-0.235
-0.205
-0.1
-0.08
-0.04
-0.025
-0.115
-0.245
-0.28
-0.345
-0.18
-0.055
0.13
0.1
0.07
0.045
-0.025
-0.145
-0.16
-0.165
-0.11
-0.015
0.085
0.145
0.095
0.035
0.075
-0.035
-0.085
-0.07
-0.035
0.01
0.135
0.195
0.145
0.145
0.03
-0.065
-0.095
-0.06
-0.05
0.045
0.11
0.12
0.085
0.04
-0.085
-0.16
-0.16
-0.15
-0.035
0.03
0.06
0.08
0.015
-0.075
-0.15
-0.25
-0.29
-0.25
-0.195
-0.195
-0.12
-0.1
-0.065
-0.11
-0.22
-0.33
-0.32
-0.275
-0.26
-0.205
-0.145
-0.1
-0.105
-0.17
-0.32
-0.38
-0.38
-0.38
-0.35
-0.17
-0.115
-0.105
-0.19
-0.23
-0.275
-0.42
-0.345
-0.345
-0.345
-0.345
-0.225
0.0
-0.095
-0.195
-0.295
-0.365
-0.375
-0.335
-0.305
-0.205
-0.14
-0.125
-0.175
-0.24
-0.31
-0.405
-0.415
-0.36
-0.335
-0.215
-0.065
-0.15
-0.185
-0.22
-0.355
-0.385
-0.395
-0.35
-0.29
-0.185
-0.145
-0.145
-0.215
-0.275
-0.35
-0.41
-0.4
-0.365
-0.29
-0.195
-0.155
-0.15
-0.24
-0.345
-0.39
-0.33
-0.375
-0.315
-0.31
-0.185
-0.115
-0.16
-0.21
-0.265
-0.385
-0.435
-0.415
-0.355
-0.33
-0.335
-0.145
-0.065
-0.16
-0.325
-0.395
-0.395
-0.44
-0.355
-0.29
-0.225
-0.2
-0.2
-0.21
-0.31
-0.41
-0.475
-0.445
-0.375
-0.305
-0.215
-0.21
-0.19
-0.185
-0.355
-0.46
-0.425
-0.42
-0.36
-0.285
-0.22
-0.21
-0.18
-0.27
-0.335
-0.42
-0.44
-0.46
-0.4
-0.32
-0.23
-0.2
-0.245
-0.325
-0.39
-0.39
-0.45
-0.48
-0.375
-0.28
-0.205
-0.195
-0.26
-0.275
-0.395
-0.39
-0.475
-0.41
-0.34
-0.305
-0.225
-0.205
-0.245
-0.275
-0.38
-0.51
-0.42
-0.44
-0.375
-0.27
-0.205
-0.19
-0.23
-0.315
-0.42
-0.445
-0.46
-0.42
-0.39
-0.255
-0.215
-0.195
-0.24
-0.325
-0.405
-0.455
-0.445
-0.425
-0.385
-0.275
-0.2
-0.21
-0.255
-0.27
-0.385
-0.385
-0.405
-0.39
-0.32
-0.205
-0.22
-0.185
-0.255
-0.17
-0.3
-0.38
-0.465
-0.36
-0.305
-0.145
-0.175
-0.155
-0.23
-0.25
-0.365
-0.385
-0.4
-0.385
-0.385
-0.26
-0.225
-0.205
-0.26
-0.32
-0.41
-0.485
-0.44
-0.43
-0.385
-0.29
-0.255
-0.24
-0.27
-0.32
-0.505
-0.46
-0.51
-0.42
-0.34
-0.285
-0.21
-0.245
-0.305
-0.42
-0.46
-0.485
-0.485
-0.405
-0.365
-0.24
-0.215
-0.24
-0.295
-0.405
-0.505
-0.495
-0.45
-0.45
-0.41
-0.36
-0.255
-0.19
-0.26
-0.385
-0.5
-0.475
-0.505
-0.44
-0.4
-0.32
-0.26
-0.295
-0.35
-0.395
-0.435
-0.425
-0.37
-0.205
-0.05
0.075
0.175
0.235
0.265
0.205
0.045
-0.04
-0.13
-0.145
-0.14
-0.07
-0.17
-0.36
-0.465
-0.62
-0.695
-0.77
-0.705
-0.635
-0.535
-0.45
-0.42
-0.395
-0.44
-0.53
-0.56
-0.575
-0.535
-0.46
-0.34
-0.28
-0.265
-0.255
-0.27
-0.445
-0.525
-0.59
-0.43
-0.38
-0.38
-0.28
-0.275
-0.29
-0.35
-0.49
-0.53
-0.485
-0.475
-0.375
-0.315
-0.255
-0.18
-0.315
-0.355
-0.425
-0.505
-0.505
-0.435
-0.41
-0.315
-0.25
-0.245
-0.275
-0.36
-0.43
-0.44
-0.485
-0.43
-0.405
-0.275
-0.205
-0.235
-0.3
-0.35
-0.42
-0.47
-0.43
-0.435
-0.38
-0.29
-0.23
-0.205
-0.255
-0.3
-0.455
-0.475
-0.49
-0.465
-0.345
-0.285
-0.23
-0.22
-0.135
-0.26
-0.335
-0.455
-0.455
-0.365
-0.28
-0.155
-0.12
-0.18
-0.185
-0.25
-0.35
-0.41
-0.39
-0.275
-0.215
-0.12
-0.055
-0.065
-0.11
-0.195
-0.29
-0.195
-0.28
-0.25
-0.13
-0.025
0.04
0.015
-0.055
-0.1
-0.2
-0.24
-0.21
-0.16
-0.07
0.015
0.025
-0.01
-0.065
-0.13
-0.215
-0.28
-0.26
-0.175
-0.135
-0.075
-0.05
-0.115
-0.185
-0.235
-0.335
-0.36
-0.395
-0.35
-0.25
-0.14
-0.205
-0.205
-0.285
-0.365
-0.39
-0.465
-0.43
-0.44
-0.35
-0.28
-0.245
-0.32
-0.38
-0.43
-0.5
-0.61
-0.54
-0.425
-0.375
-0.3
-0.265
-0.335
-0.39
-0.475
-0.54
-0.57
-0.535
-0.495
-0.325
-0.28
-0.305
-0.345
-0.365
-0.495
-0.535
-0.555
-0.545
-0.485
-0.37
-0.315
-0.29
-0.385
-0.365
-0.46
-0.56
-0.555
-0.535
-0.465
-0.36
-0.295
-0.29
-0.41
-0.415
-0.52
-0.605
-0.585
-0.535
-0.485
-0.305
-0.26
-0.3
-0.36
-0.39
-0.535
-0.595
-0.55
-0.525
-0.46
-0.37
-0.325
-0.31
-0.38
-0.395
-0.545
-0.56
-0.59
-0.535
-0.395
-0.38
-0.305
-0.405
-0.4
-0.35
-0.505
-0.595
-0.575
-0.51
-0.46
-0.375
-0.33
-0.355
-0.415
-0.48
-0.565
-0.64
-0.6
-0.505
-0.475
-0.4
-0.3
-0.36
-0.39
-0.475
-0.585
-0.62
-0.625
-0.57
-0.48
-0.39
-0.36
-0.385
-0.425
-0.505
-0.61
-0.685
-0.67
-0.54
-0.45
-0.385
-0.385
-0.335
-0.435
-0.53
-0.59
-0.64
-0.605
-0.58
-0.49
-0.44
-0.405
-0.395
-0.46
-0.565
-0.645
-0.6
-0.605
-0.625
-0.475
-0.42
-0.385
-0.415
-0.46
-0.565
-0.655
-0.71
-0.58
-0.535
-0.505
-0.45
-0.41
-0.475
-0.445
-0.51
-0.665
-0.645
-0.625
-0.61
-0.505
-0.41
-0.365
-0.435
-0.515
-0.615
-0.575
-0.655
-0.615
-0.55
-0.47
-0.43
-0.415
-0.435
-0.485
-0.59
-0.655
-0.69
-0.67
-0.55
-0.485
-0.425
-0.415
-0.48
-0.55
-0.57
-0.66
-0.68
-0.605
-0.59
-0.5
-0.385
-0.4
-0.46
-0.515
-0.625
-0.645
-0.685
-0.655
-0.565
-0.475
-0.415
-0.42
-0.475
-0.555
-0.605
-0.66
-0.68
-0.595
-0.575
-0.465
-0.395
-0.425
-0.435
-0.48
-0.59
-0.62
-0.645
-0.645
-0.535
-0.485
-0.335
-0.265
-0.4
-0.485
-0.525
-0.595
-0.65
-0.575
-0.52
-0.41
-0.355
-0.39
-0.43
-0.525
-0.58
-0.67
-0.665
-0.64
-0.555
-0.51
-0.48
-0.43
-0.51
-0.55
-0.665
-0.71
-0.705
-0.625
-0.58
-0.455
-0.47
-0.48
-0.535
-0.665
-0.68
-0.695
-0.665
-0.66
-0.585
-0.485
-0.425
-0.49
-0.55
-0.605
-0.615
-0.75
-0.725
-0.685
-0.58
-0.5
-0.44
-0.5
-0.46
-0.58
-0.76
-0.74
-0.705
-0.675
-0.565
-0.5
-0.485
-0.51
-0.54
-0.67
-0.755
-0.705
-0.68
-0.695
-0.585
-0.495
-0.425
-0.365
-0.38
-0.425
-0.47
-0.465
-0.28
-0.12
0.005
0.095
0.065
-0.005
-0.175
-0.35
-0.525
-0.545
-0.615
-0.69
-0.715
-0.625
-0.6
-0.77
-0.77
-0.86
-0.89
-0.92
-0.83
-0.795
-0.67
-0.57
-0.545
-0.585
-0.59
-0.765
-0.675
-0.755
-0.69
-0.635
-0.555
-0.465
-0.515
-0.5
-0.55
-0.66
-0.715
-0.725
-0.715
-0.635
-0.52
-0.445
-0.44
-0.475
-0.58
-0.735
-0.795
-0.775
-0.67
-0.61
-0.5
-0.455
-0.495
-0.505
-0.55
-0.66
-0.72
-0.71
-0.685
-0.62
-0.48
-0.465
-0.45
-0.48
-0.58
-0.67
-0.665
-0.71
-0.66
-0.575
-0.525
-0.445
-0.465
-0.47
-0.54
-0.68
-0.76
-0.705
-0.6
-0.55
-0.495
-0.445
-0.41
-0.445
-0.615
-0.67
-0.66
-0.655
-0.61
-0.525
-0.435
-0.41
-0.395
-0.435
-0.475
-0.62
-0.655
-0.605
-0.59
-0.495
-0.415
-0.26
-0.305
-0.38
-0.455
-0.54
-0.58
-0.5
-0.475
-0.355
-0.275
-0.25
-0.255
-0.305
-0.335
-0.48
-0.5
-0.485
-0.355
-0.25
-0.2
-0.23
-0.225
-0.19
-0.345
-0.425
-0.435
-0.43
-0.35
-0.27
-0.2
-0.145
-0.25
-0.32
-0.35
-0.47
-0.51
-0.455
-0.465
-0.355
-0.305
-0.33
-0.345
-0.37
-0.535
-0.595
-0.625
-0.57
-0.54
-0.525
-0.38
-0.4
-0.47
-0.455
-0.615
-0.685
-0.715
-0.67
-0.68
-0.54
-0.47
-0.48
-0.49
-0.59
-0.67
-0.785
-0.765
-0.675
-0.665
-0.55
-0.525
-0.505
-0.555
-0.58
-0.66
-0.735
-0.815
-0.71
-0.675
-0.575
-0.49
-0.48
-0.52
-0.65
-0.715
-0.765
-0.725
-0.74
-0.675
-0.56
-0.51
-0.58
-0.58
-0.685
-0.645
-0.75
-0.765
-0.725
-0.67
-0.525
-0.505
-0.52
-0.57
-0.66
-0.75
-0.76
-0.755
-0.735
-0.67
-0.57
-0.485
-0.56
-0.57
-0.63
-0.695
-0.795
-0.8
-0.75
-0.68
-0.545
-0.485
-0.575
-0.615
-0.64
-0.74
-0.78
-0.77
-0.735
-0.655
-0.565
-0.535
-0.54
-0.58
-0.675
-0.785
-0.785
-0.81
-0.745
-0.645
-0.545
-0.525
-0.56
-0.63
-0.69
-0.77
-0.77
-0.8
-0.78
-0.69
-0.63
-0.48
-0.57
-0.685
-0.67
-0.77
-0.87
-0.74
-0.735
-0.615
-0.565
-0.53
-0.575
-0.655
-0.715
-0.78
-0.815
-0.795
-0.81
-0.675
-0.575
-0.545
-0.625
-0.635
-0.71
-0.8
-0.795
-0.815
-0.805
-0.635
-0.57
-0.54
-0.625
-0.705
-0.735
-0.84
-0.85
-0.82
-0.75
-0.665
-0.61
-0.585
-0.63
-0.645
-0.755
-0.83
-0.835
-0.8
-0.77
-0.65
-0.57
-0.59
-0.6
-0.62
-0.735
-0.845
-0.865
-0.82
-0.725
-0.61
-0.615
-0.635
-0.595
-0.655
-0.74
-0.83
-0.845
-0.78
-0.73
-0.66
-0.605
-0.545
-0.645
-0.69
-0.815
-0.835
-0.795
-0.795
-0.735
-0.595
-0.58
-0.6
-0.655
-0.73
-0.78
-0.805
-0.83
-0.785
-0.785
-0.655
-0.575
-0.58
-0.625
-0.665
-0.805
-0.865
-0.845
-0.805
-0.705
-0.63
-0.575
-0.61
-0.64
-0.685
-0.785
-0.85
-0.84
-0.78
-0.72
-0.64
-0.565
-0.59
-0.635
-0.7
-0.79
-0.83
-0.83
-0.77
-0.735
-0.6
-0.54
-0.595
-0.625
-0.745
-0.82
-0.83
-0.86
-0.81
-0.72
-0.635
-0.545
-0.605
-0.645
-0.715
-0.805
-0.865
-0.825
-0.83
-0.71
-0.635
-0.565
-0.56
-0.59
-0.73
-0.74
-0.83
-0.79
-0.755
-0.665
-0.6
-0.545
-0.57
-0.63
-0.69
-0.72
-0.765
-0.725
-0.67
-0.575
-0.515
-0.52
-0.565
-0.59
-0.67
-0.78
-0.825
-0.775
-0.73
-0.58
-0.51
-0.51
-0.575
-0.635
-0.695
-0.78
-0.825
-0.775
-0.775
-0.625
-0.58
-0.55
-0.62
-0.635
-0.75
-0.85
-0.89
-0.815
-0.795
-0.67
-0.605
-0.595
-0.635
-0.705
-0.69
-0.815
-0.87
-0.805
-0.795
-0.675
-0.595
-0.57
-0.59
-0.67
-0.805
-0.88
-0.85
-0.78
-0.76
-0.705
-0.61
-0.6
-0.65
-0.715
-0.75
-0.85
-0.845
-0.78
-0.75
-0.675
-0.64
-0.59
-0.66
-0.72
-0.815
-0.9
-0.88
-0.78
-0.775
-0.64
-0.52
-0.52
-0.555
-0.525
-0.46
-0.475
-0.39
-0.265
-0.16
-0.075
-0.105
-0.19
-0.315
-0.435
-0.635
-0.755
-0.79
-0.84
-0.89
-0.83
-0.82
-0.815
-0.875
-0.93
-1.025
-1.025
-1.055
-0.93
-0.82
-0.675
-0.63
-0.63
-0.63
-0.74
-0.815
-0.86
-0.84
-0.84
-0.75
-0.64
-0.595
-0.565
-0.645
-0.74
-0.79
-0.85
-0.825
-0.79
-0.75
-0.61
-0.54
-0.58
-0.62
-0.745
-0.85
-0.855
-0.825
-0.75
-0.68
-0.585
-0.54
-0.615
-0.67
-0.75
-0.81
-0.84
-0.795
-0.735
-0.69
-0.63
-0.59
-0.63
-0.665
-0.725
-0.78
-0.835
-0.75
-0.705
-0.65
-0.57
-0.545
-0.59
-0.64
-0.705
-0.835
-0.875
-0.67
-0.69
-0.57
-0.56
-0.51
-0.56
-0.54
-0.66
-0.75
-0.785
-0.735
-0.645
-0.55
-0.48
-0.455
-0.52
-0.505
-0.65
-0.71
-0.735
-0.7
-0.64
-0.53
-0.41
-0.4
-0.47
-0.46
-0.56
-0.615
-0.63
-0.555
-0.515
-0.43
-0.355
-0.315
-0.36
-0.39
-0.5
-0.53
-0.545
-0.45
-0.42
-0.335
-0.255
-0.26
-0.335
-0.405
-0.465
-0.53
-0.535
-0.47
-0.42
-0.315
-0.31
-0.31
-0.32
-0.375
-0.545
-0.575
-0.595
-0.56
-0.525
-0.4
-0.365
-0.39
-0.455
-0.535
-0.65
-0.725
-0.7
-0.685
-0.645
-0.5
-0.45
-0.43
-0.525
-0.615
-0.73
-0.805
-0.78
-0.695
-0.67
-0.605
-0.555
-0.555
-0.655
-0.72
-0.8
-0.775
-0.785
-0.74
-0.66
-0.65
-0.56
-0.525
-0.62
-0.73
-0.865
-0.84
-0.77
-0.755
-0.695
-0.61
-0.55
-0.59
-0.64
-0.745
-0.82
-0.86
-0.81
-0.775
-0.675
-0.61
-0.57
-0.6
-0.65
-0.74
-0.795
-0.845
-0.78
-0.75
-0.725
-0.605
-0.59
-0.6
-0.67
-0.725
-0.76
-0.805
-0.8
-0.715
-0.63
-0.6
-0.59
-0.61
-0.655
-0.725
-0.82
-0.825
-0.785
-0.75
-0.745
-0.56
-0.555
-0.65
-0.66
-0.72
-0.805
-0.84
-0.845
-0.785
-0.655
-0.555
-0.56
-0.645
-0.66
-0.76
-0.875
-0.845
-0.845
-0.78
-0.64
-0.585
-0.595
-0.67
-0.695
-0.775
-0.825
-0.855
-0.795
-0.77
-0.69
-0.585
-0.585
-0.61
-0.71
-0.81
-0.88
-0.85
-0.805
-0.77
-0.695
-0.605
-0.6
-0.65
-0.73
-0.795
-0.845
-0.875
-0.835
-0.79
-0.705
-0.615
-0.6
-0.695
-0.695
-0.77
-0.86
-0.885
-0.845
-0.765
-0.65
-0.61
-0.655
-0.695
-0.745
-0.845
-0.895
-0.85
-0.79
-0.775
-0.63
-0.63
-0.575
-0.745
-0.755
-0.785
-0.88
-0.865
-0.815
-0.76
-0.655
-0.61
-0.635
-0.68
-0.77
-0.835
-0.87
-0.85
-0.805
-0.74
-0.68
-0.625
-0.665
-0.7
-0.75
-0.815
-0.89
-0.865
-0.855
-0.77
-0.625
-0.63
-0.69
-0.665
-0.715
-0.875
-0.855
-0.84
-0.825
-0.73
-0.66
-0.605
-0.665
-0.695
-0.8
-0.875
-0.915
-0.89
-0.865
-0.745
-0.6
-0.585
-0.65
-0.67
-0.76
-0.87
-0.88
-0.85
-0.815
-0.725
-0.62
-0.61
-0.705
-0.725
-0.825
-0.805
-0.88
-0.855
-0.79
-0.735
-0.67
-0.605
-0.635
-0.715
-0.775
-0.855
-0.925
-0.9
-0.81
-0.705
-0.605
-0.62
-0.7
-0.765
-0.75
-0.84
-0.94
-0.885
-0.775
-0.675
-0.64
-0.615
-0.65
-0.7
-0.82
-0.865
-0.89
-0.845
-0.79
-0.725
-0.65
-0.625
-0.715
-0.71
-0.77
-0.905
-0.825
-0.815
-0.785
-0.725
-0.655
-0.595
-0.665
-0.745
-0.86
-0.88
-0.825
-0.795
-0.79
-0.65
-0.62
-0.595
-0.655
-0.715
-0.8
-0.85
-0.88
-0.85
-0.75
-0.65
-0.535
-0.51
-0.61
-0.615
-0.785
-0.84
-0.77
-0.775
-0.7
-0.58
-0.535
-0.535
-0.59
-0.705
-0.795
-0.805
-0.825
-0.78
-0.72
-0.63
-0.595
-0.64
-0.67
-0.75
-0.845
-0.82
-0.89
-0.815
-0.735
-0.685
-0.675
-0.635
-0.735
-0.735
-0.87
-0.925
-0.86
-0.82
-0.74
-0.7
-0.71
-0.635
-0.675
-0.745
-0.835
-0.895
-0.87
-0.835
-0.775
-0.645
-0.6
-0.675
-0.695
-0.785
-0.87
-0.885
-0.855
-0.83
-0.715
-0.635
-0.645
-0.7
-0.735
-0.78
-0.89
-0.935
-0.895
-0.815
-0.72
-0.635
-0.655
-0.69
-0.715
-0.795
-0.815
-0.805
-0.695
-0.57
-0.425
-0.325
-0.21
-0.22
-0.185
-0.27
-0.365
-0.415
-0.49
-0.515
-0.5
-0.515
-0.565
-0.66
-0.805
-0.94
-1.05
-1.075
-1.05
-0.995
-0.89
-0.845
-0.8
-0.775
-0.815
-0.925
-0.955
-0.915
-0.895
-0.78
-0.69
-0.66
-0.65
-0.71
-0.735
-0.85
-0.865
-0.8
-0.84
-0.79
-0.68
-0.625
-0.62
-0.655
-0.695
-0.795
-0.845
-0.84
-0.825
-0.79
-0.655
-0.655
-0.585
-0.655
-0.685
-0.795
-0.83
-0.885
-0.83
-0.755
-0.635
-0.585
-0.61
-0.65
-0.695
-0.77
-0.86
-0.85
-0.8
-0.745
-0.605
-0.52
-0.59
-0.58
-0.69
-0.845
-0.91
-0.87
-0.69
-0.705
-0.585
-0.515
-0.555
-0.605
-0.66
-0.735
-0.825
-0.78
-0.73
-0.645
-0.585
-0.52
-0.545
-0.59
-0.68
-0.72
-0.77
-0.73
-0.65
-0.58
-0.505
-0.495
-0.46
-0.51
-0.57
-0.695
-0.7
-0.66
-0.605
-0.56
-0.375
-0.41
-0.41
-0.39
-0.525
-0.615
-0.615
-0.57
-0.5
-0.405
-0.325
-0.305
-0.315
-0.325
-0.425
-0.545
-0.585
-0.555
-0.5
-0.36
-0.215
-0.23
-0.31
-0.34
-0.44
-0.53
-0.56
-0.475
-0.515
-0.385
-0.345
-0.315
-0.345
-0.415
-0.505
-0.605
-0.675
-0.635
-0.575
-0.47
-0.41
-0.41
-0.48
-0.52
-0.675
-0.755
-0.765
-0.73
-0.69
-0.615
-0.515
-0.47
-0.535
-0.59
-0.695
-0.83
-0.87
-0.8
-0.76
-0.605
-0.565
-0.59
-0.645
-0.645
-0.76
-0.865
-0.86
-0.79
-0.72
-0.61
-0.55
-0.555
-0.62
-0.675
-0.75
-0.845
-0.85
-0.795
-0.695
-0.66
-0.585
-0.58
-0.615
-0.69
-0.785
-0.835
-0.82
-0.78
-0.765
-0.64
-0.585
-0.565
-0.63
-0.7
-0.76
-0.815
-0.81
-0.75
-0.695
-0.6
-0.56
-0.575
-0.625
-0.7
-0.795
-0.855
-0.77
-0.715
-0.72
-0.66
-0.535
-0.545
-0.605
-0.72
-0.775
-0.835
-0.835
-0.785
-0.69
-0.565
-0.52
-0.595
-0.615
-0.67
-0.785
-0.81
-0.8
-0.765
-0.675
-0.61
-0.575
-0.615
-0.635
-0.705
-0.795
-0.875
-0.845
-0.775
-0.65
-0.63
-0.575
-0.62
-0.645
-0.725
-0.77
-0.825
-0.765
-0.76
-0.675
-0.645
-0.61
-0.585
-0.66
-0.76
-0.83
-0.82
-0.795
-0.77
-0.68
-0.6
-0.555
-0.64
-0.68
-0.75
-0.865
-0.84
-0.775
-0.795
-0.7
-0.61
-0.57
-0.635
-0.695
-0.8
-0.84
-0.87
-0.775
-0.78
-0.645
-0.62
-0.535
-0.665
-0.645
-0.765
-0.87
-0.875
-0.815
-0.78
-0.68
-0.635
-0.535
-0.62
-0.685
-0.78
-0.86
-0.85
-0.805
-0.765
-0.695
-0.65
-0.555
-0.635
-0.715
-0.8
-0.875
-0.865
-0.79
-0.745
-0.67
-0.6
-0.605
-0.63
-0.67
-0.81
-0.875
-0.845
-0.835
-0.775
-0.675
-0.6
-0.6
-0.68
-0.74
-0.805
-0.78
-0.85
-0.84
-0.75
-0.63
-0.585
-0.595
-0.645
-0.71
-0.81
-0.825
-0.84
-0.81
-0.745
-0.615
-0.585
-0.615
-0.65
-0.705
-0.825
-0.865
-0.84
-0.82
-0.715
-0.655
-0.625
-0.61
-0.645
-0.67
-0.85
-0.87
-0.86
-0.8
-0.72
-0.63
-0.63
-0.675
-0.575
-0.715
-0.835
-0.895
-0.845
-0.795
-0.725
-0.62
-0.535
-0.6
-0.64
-0.74
-0.805
-0.795
-0.825
-0.75
-0.7
-0.57
-0.51
-0.53
-0.585
-0.655
-0.755
-0.825
-0.735
-0.725
-0.685
-0.535
-0.52
-0.595
-0.595
-0.695
-0.75
-0.775
-0.755
-0.71
-0.635
-0.56
-0.52
-0.58
-0.65
-0.76
-0.83
-0.875
-0.84
-0.785
-0.715
-0.56
-0.6
-0.615
-0.645
-0.785
-0.82
-0.855
-0.82
-0.76
-0.705
-0.62
-0.6
-0.635
-0.68
-0.8
-0.855
-0.9
-0.85
-0.76
-0.66
-0.59
-0.625
-0.66
-0.685
-0.785
-0.855
-0.91
-0.87
-0.75
-0.715
-0.605
-0.6
-0.655
-0.66
-0.785
-0.845
-0.82
-0.805
-0.795
-0.69
-0.63
-0.615
-0.655
-0.72
-0.825
-0.85
-0.8
-0.735
-0.64
-0.415
-0.365
-0.3
-0.215
-0.17
-0.21
-0.25
-0.38
-0.385
-0.43
-0.39
-0.42
-0.495
-0.66
-0.755
-0.935
-1.02
-1.03
-1.035
-0.985
-0.85
-0.795
-0.77
-0.79
-0.87
-0.915
-0.92
-0.91
-0.84
-0.76
-0.665
-0.59
-0.61
-0.67
-0.695
-0.86
-0.885
-0.79
-0.795
-0.75
-0.61
-0.59
-0.62
-0.66
-0.695
-0.84
-0.89
-0.83
-0.79
-0.72
-0.64
-0.555
-0.55
-0.665
-0.75
-0.84
-0.86
-0.81
-0.81
-0.75
-0.545
-0.545
-0.59
-0.61
-0.745
-0.825
-0.86
-0.755
-0.745
-0.685
-0.62
-0.595
-0.575
-0.65
-0.72
-0.775
-0.825
-0.79
-0.745
-0.65
-0.565
-0.535
-0.59
-0.675
-0.705
-0.8
-0.8
-0.755
-0.69
-0.635
-0.55
-0.555
-0.525
-0.615
-0.725
-0.77
-0.715
-0.74
-0.715
-0.635
-0.415
-0.465
-0.485
-0.545
-0.64
-0.71
-0.69
-0.67
-0.615
-0.495
-0.43
-0.415
-0.445
-0.41
-0.51
-0.605
-0.6
-0.51
-0.51
-0.41
-0.335
-0.34
-0.355
-0.385
-0.51
-0.545
-0.55
-0.485
-0.445
-0.355
-0.27
-0.285
-0.34
-0.39
-0.435
-0.55
-0.57
-0.52
-0.455
-0.41
-0.28
-0.34
-0.41
-0.455
-0.63
-0.675
-0.715
-0.6
-0.535
-0.465
-0.46
-0.46
-0.525
-0.64
-0.685
-0.765
-0.795
-0.78
-0.715
-0.555
-0.54
-0.555
-0.635
-0.75
-0.81
-0.85
-0.81
-0.785
-0.755
-0.67
-0.61
-0.66
-0.695
-0.68
-0.785
-0.9
-0.85
-0.82
-0.785
-0.705
-0.625
-0.65
-0.675
-0.735
-0.83
-0.875
-0.85
-0.83
-0.75
-0.7
-0.6
-0.62
-0.65
-0.795
-0.88
-0.905
-0.885
-0.855
-0.705
-0.65
-0.625
-0.65
-0.7
-0.75
-0.845
-0.91
-0.875
-0.84
-0.75
-0.63
-0.58
-0.685
-0.78
-0.78
-0.865
-0.91
-0.78
-0.845
-0.735
-0.65
-0.655
-0.69
-0.77
-0.83
-0.875
-0.88
-0.87
-0.785
-0.695
-0.68
-0.665
-0.65
-0.765
-0.815
-0.9
-0.885
-0.89
-0.865
-0.75
-0.64
-0.64
-0.7
-0.71
-0.825
-0.91
-0.94
-0.87
-0.87
-0.755
-0.665
-0.675
-0.735
-0.79
-0.85
-0.925
-0.93
-0.88
-0.855
-0.755
-0.68
-0.68
-0.75
-0.795
-0.88
-0.93
-0.94
-0.94
-0.845
-0.75
-0.71
-0.68
-0.695
-0.825
-0.895
-0.905
-0.965
-0.92
-0.85
-0.765
-0.695
-0.7
-0.795
-0.81
-0.9
-0.99
-0.995
-0.945
-0.875
-0.75
-0.7
-0.705
-0.755
-0.81
-0.92
-0.96
-0.99
-0.935
-0.85
-0.785
-0.7
-0.725
-0.775
-0.83
-0.94
-0.995
-0.99
-0.93
-0.85
-0.79
-0.76
-0.73
-0.785
-0.85
-0.96
-1.015
-0.985
-0.895
-0.875
-0.765
-0.72
-0.755
-0.785
-0.875
-0.96
-0.925
-1.01
-0.95
-0.785
-0.75
-0.76
-0.775
-0.775
-0.865
-0.95
-0.98
-0.955
-0.93
-0.885
-0.805
-0.775
-0.745
-0.74
-0.81
-0.935
-1.01
-0.985
-0.97
-0.84
-0.77
-0.73
-0.78
-0.805
-0.885
-0.98
-1.0
-0.965
-0.965
-0.855
-0.805
-0.765
-0.77
-0.79
-0.895
-1.03
-0.965
-0.98
-0.915
-0.81
-0.79
-0.765
-0.76
-0.795
-0.91
-0.93
-1.045
-1.0
-0.955
-0.88
-0.745
-0.715
-0.755
-0.815
-0.93
-1.015
-1.005
-0.975
-0.94
-0.84
-0.78
-0.765
-0.785
-0.73
-0.88
-0.95
-1.04
-0.985
-0.88
-0.8
-0.715
-0.7
-0.72
-0.755
-0.865
-0.95
-0.945
-0.925
-0.88
-0.775
-0.67
-0.695
-0.755
-0.745
-0.905
-0.9
-0.92
-0.9
-0.88
-0.795
-0.73
-0.73
-0.775
-0.825
-0.94
-1.01
-1.01
-0.965
-0.91
-0.82
-0.8
-0.755
-0.795
-0.895
-1.0
-1.02
-1.005
-0.955
-0.92
-0.82
-0.77
-0.74
-0.8
-0.88
-1.005
-1.04
-1.01
-0.945
-0.955
-0.895
-0.81
-0.72
-0.825
-0.915
-1.015
-1.045
-0.965
-0.94
-0.915
-0.855
-0.765
-0.725
-0.815
-0.92
-1.04
-1.06
-1.015
-1.015
-0.895
-0.835
-0.81
-0.805
-0.83
-0.89
-0.96
-0.96
-0.855
-0.755
-0.68
-0.49
-0.42
-0.335
-0.3
-0.395
-0.415
-0.53
-0.575
-0.615
-0.635
-0.62
-0.675
-0.825
-0.91
-1.075
-1.165
-1.235
-1.22
-1.16
-1.105
-0.995
-0.89
-0.92
-0.965
-0.99
-1.02
-1.09
-1.01
-0.965
-0.86
-0.81
-0.765
-0.78
-0.805
-0.92
-1.03
-1.01
-0.995
-0.95
-0.74
-0.7
-0.74
-0.78
-0.82
-0.94
-0.985
-0.955
-0.945
-0.895
-0.76
-0.75
-0.72
-0.735
-0.81
-0.93
-0.96
-1.015
-0.97
-0.87
-0.78
-0.735
-0.69
-0.725
-0.815
-0.92
-0.905
-0.995
-0.93
-0.915
-0.785
-0.685
-0.67
-0.75
-0.815
-0.825
-0.945
-0.935
-0.91
-0.875
-0.745
-0.64
-0.685
-0.725
-0.75
-0.855
-0.92
-0.9
-0.8
-0.78
-0.7
-0.625
-0.64
-0.665
-0.74
-0.84
-0.875
-0.865
-0.785
-0.75
-0.65
-0.625
-0.57
-0.66
-0.645
-0.73
-0.785
-0.785
-0.7
-0.66
-0.555
-0.51
-0.5
-0.52
-0.63
-0.695
-0.73
-0.71
-0.585
-0.49
-0.425
-0.325
-0.375
-0.43
-0.53
-0.63
-0.63
-0.615
-0.585
-0.44
-0.4
-0.34
-0.41
-0.41
-0.465
-0.575
-0.56
-0.59
-0.59
-0.555
-0.465
-0.39
-0.405
-0.505
-0.61
-0.72
-0.71
-0.685
-0.66
-0.585
-0.56
-0.525
-0.515
-0.615
-0.7
-0.805
-0.885
-0.815
-0.805
-0.725
-0.61
-0.605
-0.725
-0.755
-0.75
-0.89
-0.885
-0.905
-0.865
-0.695
-0.675
-0.665
-0.735
-0.745
-0.78
-0.915
-0.965
-0.85
-0.82
-0.755
-0.645
-0.66
-0.7
-0.765
-0.87
-0.925
-0.915
-0.875
-0.84
-0.755
-0.62
-0.695
-0.705
-0.69
-0.855
-0.95
-0.9
-0.875
-0.82
-0.705
-0.665
-0.64
-0.755
-0.735
-0.79
-0.885
-0.9
-0.895
-0.84
-0.7
-0.645
-0.68
-0.69
-0.72
-0.835
-0.9
-0.92
-0.88
-0.82
-0.695
-0.655
-0.65
-0.7
-0.725
-0.825
-0.865
-0.91
-0.875
-0.795
-0.68
-0.675
-0.67
-0.705
-0.77
-0.85
-0.955
-0.95
-0.85
-0.82
-0.605
-0.605
-0.63
-0.7
-0.75
-0.84
-0.935
-0.92
-0.835
-0.785
-0.74
-0.655
-0.68
-0.705
-0.775
-0.815
-0.955
-0.89
-0.815
-0.77
-0.67
-0.69
-0.675
-0.69
-0.78
-0.875
-0.92
-0.895
-0.83
-0.815
-0.69
-0.585
-0.71
-0.73
-0.795
-0.875
-0.91
-0.855
-0.82
-0.78
-0.685
-0.625
-0.655
-0.71
-0.765
-0.905
-0.93
-0.91
-0.83
-0.78
-0.615
-0.655
-0.655
-0.7
-0.8
-0.89
-0.915
-0.87
-0.83
-0.735
-0.695
-0.655
-0.665
-0.7
-0.785
-0.88
-0.955
-0.885
-0.78
-0.695
-0.675
-0.62
-0.675
-0.7
-0.77
-0.885
-0.88
-0.865
-0.855
-0.71
-0.64
-0.63
-0.67
-0.685
-0.76
-0.865
-0.905
-0.88
-0.8
-0.725
-0.695
-0.71
-0.63
-0.635
-0.78
-0.865
-0.865
-0.81
-0.805
-0.71
-0.665
-0.63
-0.67
-0.71
-0.785
-0.875
-0.9
-0.805
-0.715
-0.63
-0.575
-0.59
-0.63
-0.715
-0.77
-0.82
-0.835
-0.79
-0.735
-0.62
-0.51
-0.5
-0.55
-0.62
-0.715
-0.825
-0.78
-0.715
-0.69
-0.62
-0.545
-0.525
-0.565
-0.64
-0.76
-0.755
-0.77
-0.735
-0.69
-0.58
-0.58
-0.62
-0.595
-0.67
-0.775
-0.845
-0.84
-0.8
-0.72
-0.63
-0.625
-0.585
-0.645
-0.705
-0.805
-0.855
-0.815
-0.785
-0.735
-0.62
-0.57
-0.61
-0.635
-0.7
-0.765
-0.85
-0.865
-0.81
-0.715
-0.635
-0.55
-0.615
-0.625
-0.735
-0.865
-0.845
-0.835
-0.785
-0.69
-0.58
-0.56
-0.625
-0.67
-0.73
-0.81
-0.925
-0.83
-0.72
-0.715
-0.595
-0.53
-0.6
-0.615
-0.62
-0.625
-0.585
-0.54
-0.455
-0.255
-0.08
0.045
0.015
-0.085
-0.22
-0.42
-0.48
-0.565
-0.535
-0.585
-0.62
-0.665
-0.725
-0.81
-0.93
-1.01
-1.03
-0.98
-0.955
-0.81
-0.72
-0.66
-0.68
-0.735
-0.775
-0.78
-0.79
-0.78
-0.745
-0.66
-0.555
-0.535
-0.61
-0.61
-0.71
-0.785
-0.805
-0.775
-0.715
-0.615
-0.51
-0.525
-0.56
-0.605
-0.655
-0.77
-0.81
-0.735
-0.705
-0.59
-0.495
-0.49
-0.545
-0.61
-0.705
-0.74
-0.73
-0.695
-0.705
-0.595
-0.505
-0.465
-0.535
-0.6
-0.705
-0.725
-0.75
-0.76
-0.665
-0.515
-0.5
-0.44
-0.5
-0.615
-0.66
-0.725
-0.71
-0.69
-0.685
-0.475
-0.43
-0.465
-0.47
-0.53
-0.66
-0.7
-0.68
-0.635
-0.59
-0.48
-0.405
-0.36
-0.48
-0.555
-0.6
-0.635
-0.59
-0.575
-0.525
-0.385
-0.365
-0.28
-0.415
-0.44
-0.51
-0.57
-0.525
-0.515
-0.385
-0.27
-0.225
-0.24
-0.31
-0.375
-0.42
-0.525
-0.43
-0.345
-0.25
-0.185
-0.13
-0.18
-0.185
-0.28
-0.375
-0.375
-0.395
-0.285
-0.26
-0.155
-0.145
-0.185
-0.24
-0.275
-0.405
-0.405
-0.395
-0.36
-0.3
-0.165
-0.17
-0.245
-0.295
-0.405
-0.515
-0.565
-0.51
-0.475
-0.395
-0.34
-0.315
-0.415
-0.49
-0.55
-0.645
-0.705
-0.625
-0.535
-0.465
-0.445
-0.395
-0.425
-0.495
-0.545
-0.68
-0.705
-0.64
-0.65
-0.495
-0.485
-0.475
-0.535
-0.525
-0.61
-0.74
-0.655
-0.665
-0.62
-0.505
-0.45
-0.39
-0.48
-0.53
-0.585
-0.685
-0.745
-0.67
-0.59
-0.505
-0.48
-0.455
-0.465
-0.51
-0.65
-0.705
-0.735
-0.66
-0.63
-0.525
-0.45
-0.445
-0.505
-0.465
-0.685
-0.735
-0.71
-0.655
-0.58
-0.455
-0.41
-0.425
-0.545
-0.49
-0.605
-0.705
-0.69
-0.65
-0.575
-0.52
-0.42
-0.505
-0.48
-0.58
-0.53
-0.7
-0.7
-0.66
-0.57
-0.5
-0.465
-0.435
-0.5
-0.585
-0.64
-0.715
-0.67
-0.64
-0.565
-0.515
-0.47
-0.5
-0.5
-0.48
-0.64
-0.67
-0.68
-0.655
-0.615
-0.48
-0.435
-0.475
-0.53
-0.57
-0.7
-0.75
-0.735
-0.655
-0.53
-0.395
-0.425
-0.505
-0.53
-0.57
-0.715
-0.795
-0.745
-0.62
-0.555
-0.485
-0.48
-0.49
-0.495
-0.6
-0.71
-0.71
-0.75
-0.71
-0.61
-0.515
-0.42
-0.51
-0.575
-0.6
-0.685
-0.755
-0.7
-0.695
-0.58
-0.53
-0.51
-0.555
-0.575
-0.66
-0.62
-0.71
-0.735
-0.68
-0.58
-0.455
-0.445
-0.5
-0.525
-0.645
-0.7
-0.7
-0.695
-0.645
-0.535
-0.41
-0.415
-0.5
-0.465
-0.585
-0.57
-0.605
-0.67
-0.64
-0.51
-0.465
-0.45
-0.45
-0.475
-0.61
-0.66
-0.7
-0.675
-0.64
-0.55
-0.46
-0.46
-0.535
-0.59
-0.71
-0.8
-0.77
-0.74
-0.695
-0.55
-0.51
-0.51
-0.56
-0.605
-0.73
-0.795
-0.75
-0.73
-0.665
-0.55
-0.51
-0.52
-0.605
-0.63
-0.745
-0.82
-0.75
-0.74
-0.695
-0.605
-0.515
-0.55
-0.575
-0.64
-0.775
-0.73
-0.755
-0.725
-0.74
-0.595
-0.44
-0.575
-0.63
-0.615
-0.78
-0.8
-0.8
-0.745
-0.705
-0.595
-0.58
-0.645
-0.67
-0.645
-0.7
-0.64
-0.59
-0.455
-0.33
-0.165
0.06
0.02
0.06
-0.045
-0.205
-0.38
-0.495
-0.475
-0.48
-0.49
-0.54
-0.675
-0.795
-0.905
-1.015
-1.04
-1.015
-0.975
-0.93
-0.86
-0.705
-0.65
-0.685
-0.795
-0.9
-0.88
-0.74
-0.745
-0.645
-0.585
-0.59
-0.615
-0.655
-0.735
-0.78
-0.86
-0.815
-0.69
-0.625
-0.57
-0.54
-0.565
-0.645
-0.715
-0.81
-0.875
-0.785
-0.74
-0.65
-0.565
-0.525
-0.6
-0.64
-0.79
-0.815
-0.805
-0.765
-0.73
-0.62
-0.575
-0.48
-0.55
-0.59
-0.69
-0.785
-0.82
-0.765
-0.725
-0.63
-0.565
-0.57
-0.61
-0.645
-0.725
-0.79
-0.765
-0.745
-0.71
-0.615
-0.575
-0.53
-0.52
-0.6
-0.71
-0.77
-0.8
-0.73
-0.685
-0.595
-0.54
-0.5
-0.53
-0.56
-0.675
-0.725
-0.68
-0.625
-0.62
-0.52
-0.48
-0.435
-0.495
-0.545
-0.61
-0.645
-0.645
-0.575
-0.545
-0.435
-0.285
-0.34
-0.44
-0.415
-0.53
-0.55
-0.525
-0.43
-0.375
-0.32
-0.275
-0.29
-0.275
-0.35
-0.465
-0.49
-0.475
-0.445
-0.385
-0.275
-0.215
-0.3
-0.345
-0.46
-0.53
-0.52
-0.53
-0.475
-0.43
-0.395
-0.39
-0.41
-0.475
-0.525
-0.605
-0.68
-0.7
-0.635
-0.585
-0.56
-0.475
-0.48
-0.55
-0.625
-0.755
-0.795
-0.79
-0.775
-0.725
-0.58
-0.565
-0.68
-0.665
-0.69
-0.835
-0.86
-0.88
-0.83
-0.71
-0.61
-0.615
-0.68
-0.695
-0.77
-0.855
-0.91
-0.855
-0.81
-0.705
-0.63
-0.615
-0.675
-0.715
-0.845
-0.87
-0.88
-0.835
-0.795
-0.705
-0.705
-0.605
-0.64
-0.7
-0.74
-0.91
-0.935
-0.885
-0.845
-0.69
-0.625
-0.62
-0.68
-0.73
-0.72
-0.84
-0.93
-0.855
-0.82
-0.715
-0.655
-0.605
-0.665
-0.7
-0.845
-0.915
-0.92
-0.845
-0.82
-0.685
-0.655
-0.66
-0.675
-0.72
-0.835
-0.945
-0.945
-0.855
-0.81
-0.73
-0.65
-0.655
-0.725
-0.785
-0.885
-0.995
-0.9
-0.845
-0.835
-0.66
-0.69
-0.68
-0.72
-0.755
-0.905
-0.985
-0.925
-0.855
-0.78
-0.715
-0.65
-0.625
-0.72
-0.79
-0.915
-0.975
-0.955
-0.82
-0.81
-0.745
-0.705
-0.65
-0.74
-0.835
-0.915
-1.0
-0.945
-0.84
-0.83
-0.7
-0.69
-0.715
-0.69
-0.785
-0.915
-0.96
-0.905
-0.845
-0.81
-0.715
-0.655
-0.725
-0.735
-0.82
-0.95
-0.96
-0.855
-0.79
-0.695
-0.58
-0.62
-0.63
-0.72
-0.75
-0.875
-0.885
-0.85
-0.835
-0.73
-0.655
-0.645
-0.635
-0.64
-0.8
-0.91
-0.95
-0.905
-0.875
-0.775
-0.74
-0.71
-0.745
-0.78
-0.855
-0.945
-0.985
-0.935
-0.91
-0.79
-0.72
-0.725
-0.735
-0.74
-0.86
-0.99
-0.98
-0.92
-0.89
-0.815
-0.735
-0.69
-0.75
-0.805
-0.86
-0.925
-0.995
-0.96
-0.87
-0.79
-0.74
-0.695
-0.75
-0.805
-0.895
-0.88
-0.98
-0.935
-0.86
-0.765
-0.69
-0.7
-0.79
-0.79
-0.86
-0.945
-0.975
-0.95
-0.935
-0.81
-0.745
-0.665
-0.71
-0.715
-0.775
-0.73
-0.68
-0.55
-0.475
-0.21
-0.045
0.005
-0.01
-0.16
-0.33
-0.51
-0.635
-0.62
-0.665
-0.695
-0.785
-0.785
-0.88
-0.975
-1.095
-1.135
-1.165
-1.08
-1.035
-0.89
-0.835
-0.76
-0.77
-0.8
-0.91
-0.935
-0.93
-0.835
-0.805
-0.665
-0.645
-0.66
-0.695
-0.74
-0.815
-0.87
-0.865
-0.89
-0.755
-0.675
-0.63
-0.66
-0.745
-0.685
-0.78
-0.875
-0.85
-0.765
-0.765
-0.625
-0.58
-0.59
-0.655
-0.725
-0.8
-0.84
-0.83
-0.775
-0.66
-0.665
-0.58
-0.555
-0.605
-0.735
-0.84
-0.865
-0.75
-0.74
-0.67
-0.585
-0.545
-0.585
-0.6
-0.66
-0.76
-0.805
-0.73
-0.675
-0.595
-0.51
-0.48
-0.56
-0.61
-0.69
-0.74
-0.715
-0.72
-0.675
-0.53
-0.465
-0.465
-0.52
-0.54
-0.59
-0.675
-0.705
-0.585
-0.56
-0.48
-0.36
-0.36
-0.375
-0.42
-0.515
-0.625
-0.58
-0.475
-0.49
-0.38
-0.37
-0.31
-0.245
-0.275
-0.36
-0.47
-0.485
-0.38
-0.365
-0.265
-0.18
-0.185
-0.255
-0.265
-0.35
-0.425
-0.425
-0.32
-0.3
-0.215
-0.135
-0.125
-0.215
-0.275
-0.42
-0.45
-0.475
-0.43
-0.39
-0.305
-0.255
-0.28
-0.33
-0.405
-0.49
-0.58
-0.595
-0.455
-0.475
-0.425
-0.4
-0.375
-0.42
-0.51
-0.645
-0.65
-0.59
-0.63
-0.58
-0.495
-0.41
-0.455
-0.485
-0.57
-0.65
-0.605
-0.645
-0.655
-0.62
-0.49
-0.435
-0.465
-0.48
-0.545
-0.64
-0.69
-0.705
-0.65
-0.59
-0.495
-0.475
-0.47
-0.485
-0.57
-0.515
-0.64
-0.625
-0.62
-0.54
-0.535
-0.455
-0.405
-0.445
-0.515
-0.615
-0.66
-0.63
-0.595
-0.505
-0.42
-0.385
-0.4
-0.495
-0.52
-0.6
-0.655
-0.62
-0.555
-0.5
-0.395
-0.345
-0.395
-0.495
-0.555
-0.595
-0.615
-0.61
-0.61
-0.485
-0.39
-0.345
-0.415
-0.5
-0.63
-0.57
-0.585
-0.57
-0.53
-0.505
-0.395
-0.3
-0.365
-0.44
-0.555
-0.605
-0.585
-0.575
-0.55
-0.475
-0.395
-0.32
-0.38
-0.435
-0.56
-0.605
-0.62
-0.605
-0.495
-0.45
-0.37
-0.375
-0.38
-0.415
-0.565
-0.63
-0.61
-0.555
-0.545
-0.46
-0.305
-0.32
-0.37
-0.465
-0.535
-0.57
-0.58
-0.545
-0.525
-0.41
-0.365
-0.305
-0.36
-0.445
-0.525
-0.57
-0.56
-0.52
-0.475
-0.395
-0.31
-0.26
-0.335
-0.405
-0.48
-0.49
-0.505
-0.495
-0.415
-0.3
-0.25
-0.27
-0.34
-0.3
-0.42
-0.485
-0.485
-0.475
-0.4
-0.305
-0.27
-0.275
-0.36
-0.42
-0.535
-0.535
-0.54
-0.55
-0.475
-0.335
-0.3
-0.33
-0.395
-0.41
-0.465
-0.6
-0.535
-0.46
-0.435
-0.36
-0.31
-0.275
-0.365
-0.455
-0.46
-0.53
-0.525
-0.505
-0.44
-0.345
-0.285
-0.315
-0.36
-0.405
-0.485
-0.605
-0.56
-0.51
-0.415
-0.35
-0.28
-0.3
-0.325
-0.42
-0.505
-0.565
-0.555
-0.5
-0.39
-0.335
-0.3
-0.32
-0.415
-0.495
-0.46
-0.545
-0.525
-0.5
-0.365
-0.205
-0.13
-0.115
-0.12
-0.13
-0.1
-0.055
0.11
0.205
0.295
0.28
0.32
0.18
-0.025
-0.165
-0.36
-0.455
-0.52
-0.555
-0.52
-0.48
-0.46
-0.54
-0.57
-0.635
-0.695
-0.705
-0.625
-0.545
-0.415
-0.355
-0.295
-0.32
-0.315
-0.48
-0.495
-0.51
-0.45
-0.42
-0.32
-0.22
-0.24
-0.21
-0.29
-0.36
-0.445
-0.47
-0.48
-0.44
-0.255
-0.17
-0.18
-0.275
-0.275
-0.375
-0.445
-0.455
-0.425
-0.36
-0.245
-0.17
-0.215
-0.27
-0.265
-0.4
-0.505
-0.445
-0.295
-0.34
-0.225
-0.17
-0.135
-0.205
-0.26
-0.37
-0.42
-0.39
-0.39
-0.31
-0.18
-0.16
-0.18
-0.17
-0.275
-0.395
-0.455
-0.395
-0.265
-0.275
-0.16
-0.08
-0.11
-0.135
-0.215
-0.33
-0.365
-0.345
-0.265
-0.13
-0.04
-0.025
-0.07
-0.11
-0.175
-0.25
-0.235
-0.185
-0.24
-0.125
-0.005
0.005
0.025
0.045
-0.035
-0.12
-0.125
-0.14
-0.06
0.015
0.085
0.13
0.105
0.075
0.06
-0.025
-0.09
-0.045
-0.005
0.095
0.205
0.265
0.15
0.185
0.08
-0.055
-0.05
0.0
0.095
0.075
0.15
0.15
0.175
0.1
-0.005
-0.095
-0.115
-0.145
-0.075
-0.03
0.035
0.105
0.09
0.0
-0.14
-0.255
-0.295
-0.245
-0.2
-0.09
-0.045
-0.045
-0.075
-0.105
-0.165
-0.295
-0.32
-0.255
-0.235
-0.15
-0.1
-0.09
-0.105
-0.18
-0.225
-0.295
-0.315
-0.305
-0.28
-0.16
-0.06
-0.02
-0.115
-0.17
-0.26
-0.26
-0.265
-0.22
-0.24
-0.175
-0.085
-0.06
-0.08
-0.13
-0.22
-0.325
-0.3
-0.275
-0.17
-0.115
-0.04
-0.065
-0.095
-0.115
-0.195
-0.315
-0.25
-0.24
-0.185
-0.08
-0.06
-0.025
-0.06
-0.13
-0.225
-0.26
-0.245
-0.195
-0.195
-0.1
0.015
-0.02
-0.045
-0.095
-0.21
-0.26
-0.275
-0.245
-0.22
-0.01
0.025
-0.03
-0.125
-0.015
-0.155
-0.265
-0.26
-0.23
-0.045
0.0
-0.01
0.015
-0.04
-0.07
-0.175
-0.285
-0.2
-0.165
-0.15
-0.005
0.07
0.025
-0.06
-0.105
-0.21
-0.245
-0.195
-0.165
-0.11
-0.025
0.055
-0.005
0.0
-0.09
-0.175
-0.245
-0.235
-0.185
-0.075
0.035
0.055
0.01
-0.005
-0.11
-0.15
-0.18
-0.155
-0.14
-0.035
0.05
0.095
0.04
-0.025
-0.085
-0.08
-0.18
-0.085
-0.02
0.05
0.185
0.15
0.105
0.095
-0.04
-0.1
-0.1
-0.095
-0.04
0.005
0.135
0.175
0.105
0.045
-0.04
-0.105
-0.16
-0.14
-0.07
0.045
0.08
0.105
0.07
0.025
-0.085
-0.11
-0.16
-0.12
-0.07
0.035
0.11
0.15
0.07
-0.005
-0.12
-0.145
-0.145
-0.08
-0.015
0.04
0.135
0.12
0.065
0.035
-0.045
-0.1
-0.145
-0.115
-0.015
0.1
0.135
0.11
0.07
0.035
-0.06
-0.115
-0.12
-0.13
-0.055
0.08
0.12
0.135
0.07
0.05
-0.035
-0.12
-0.18
-0.135
-0.06
0.085
0.09
0.085
0.085
0.1
0.06
0.06
0.16
0.245
0.34
0.595
0.785
0.81
0.795
0.65
0.515
0.335
0.27
0.195
0.18
0.19
0.145
0.025
-0.065
-0.175
-0.285
-0.29
-0.285
-0.23
-0.185
-0.05
0.08
0.04
0.035
0.025
-0.055
-0.06
-0.09
-0.06
0.035
0.13
0.19
0.17
0.15
0.06
-0.01
-0.075
-0.045
0.015
0.14
0.195
0.225
0.17
0.14
0.085
-0.055
-0.095
-0.025
0.05
0.145
0.215
0.26
0.175
0.12
0.04
0.07
-0.015
0.0
0.055
0.15
0.21
0.255
0.215
0.18
0.075
0.025
0.0
0.055
0.075
0.18
0.275
0.265
0.225
0.25
0.125
0.055
0.07
0.07
0.12
0.24
0.29
0.295
0.27
0.22
0.175
0.12
0.05
0.07
0.155
0.265
0.32
0.34
0.315
0.325
0.2
0.13
0.135
0.195
0.255
0.395
0.41
0.455
0.45
0.41
0.26
0.195
0.175
0.275
0.385
0.475
0.53
0.52
0.475
0.465
0.36
0.285
0.345
0.395
0.41
0.53
0.655
0.585
0.565
0.51
0.465
0.39
0.38
0.4
0.46
0.61
0.635
0.625
0.605
0.525
0.405
0.31
0.31
0.345
0.37
0.46
0.515
0.55
0.44
0.37
0.26
0.22
0.195
0.19
0.32
0.41
0.45
0.38
0.325
0.32
0.155
0.125
0.12
0.175
0.255
0.385
0.325
0.325
0.28
0.26
0.17
0.095
0.11
0.15
0.22
0.3
0.29
0.265
0.28
0.285
0.155
0.07
0.12
0.155
0.225
0.34
0.37
0.31
0.29
0.265
0.17
0.105
0.13
0.17
0.24
0.36
0.36
0.335
0.32
0.25
0.17
0.13
0.11
0.165
0.32
0.395
0.36
0.36
0.28
0.16
0.145
0.15
0.175
0.16
0.3
0.37
0.415
0.365
0.355
0.235
0.205
0.115
0.145
0.22
0.325
0.39
0.395
0.38
0.315
0.27
0.185
0.105
0.125
0.195
0.34
0.38
0.385
0.36
0.305
0.22
0.205
0.11
0.205
0.255
0.275
0.38
0.42
0.38
0.33
0.215
0.14
0.185
0.22
0.21
0.295
0.39
0.385
0.325
0.325
0.205
0.125
0.115
0.155
0.255
0.325
0.375
0.35
0.36
0.28
0.215
0.175
0.13
0.215
0.25
0.335
0.38
0.39
0.355
0.265
0.15
0.145
0.175
0.255
0.285
0.36
0.39
0.415
0.36
0.315
0.205
0.14
0.165
0.205
0.265
0.395
0.425
0.41
0.34
0.34
0.21
0.18
0.165
0.245
0.285
0.405
0.43
0.4
0.36
0.355
0.27
0.2
0.185
0.335
0.4
0.435
0.495
0.49
0.425
0.345
0.295
0.215
0.24
0.23
0.355
0.505
0.455
0.43
0.4
0.3
0.165
0.165
0.22
0.215
0.36
0.395
0.44
0.38
0.355
0.23
0.15
0.19
0.23
0.195
0.28
0.405
0.47
0.39
0.355
0.235
0.185
0.12
0.205
0.235
0.32
0.385
0.445
0.365
0.39
0.25
0.17
0.155
0.195
0.24
0.365
0.425
0.395
0.355
0.275
0.185
0.28
0.17
0.195
0.24
0.355
0.395
0.425
0.37
0.355
0.215
0.115
0.12
0.18
0.215
0.35
0.39
0.415
0.425
0.43
0.415
0.41
0.415
0.53
0.755
0.935
1.105
1.065
0.99
0.93
0.72
0.54
0.41
0.37
0.3
0.305
0.34
0.285
0.19
0.105
0.015
-0.045
-0.04
0.035
0.115
0.225
0.36
0.345
0.32
0.29
0.17
0.115
0.165
0.25
0.255
0.4
0.49
0.44
0.385
0.27
0.225
0.23
0.175
0.23
0.325
0.41
0.465
0.42
0.405
0.35
0.24
0.16
0.215
0.265
0.375
0.47
0.48
0.455
0.5
0.36
0.215
0.175
0.22
0.25
0.315
0.445
0.48
0.435
0.39
0.345
0.26
0.245
0.27
0.305
0.37
0.435
0.48
0.435
0.345
0.415
0.285
0.24
0.265
0.31
0.41
0.495
0.535
0.47
0.46
0.385
0.285
0.27
0.315
0.33
0.365
0.54
0.565
0.535
0.56
0.435
0.305
0.335
0.35
0.405
0.515
0.615
0.685
0.62
0.54
0.43
0.425
0.465
0.47
0.465
0.6
0.685
0.74
0.69
0.67
0.585
0.5
0.505
0.545
0.59
0.665
0.73
0.775
0.715
0.69
0.685
0.565
0.535
0.58
0.635
0.725
0.715
0.785
0.71
0.69
0.605
0.51
0.45
0.535
0.55
0.645
0.69
0.66
0.61
0.54
0.405
0.325
0.36
0.395
0.43
0.465
0.52
0.53
0.485
0.425
0.37
0.255
0.23
0.29
0.35
0.425
0.495
0.5
0.435
0.38
0.325
0.195
0.205
0.24
0.3
0.445
0.51
0.535
0.39
0.315
0.23
0.215
0.225
0.27
0.32
0.365
0.45
0.43
0.405
0.345
0.33
0.235
0.2
0.29
0.29
0.39
0.42
0.44
0.415
0.3
0.235
0.17
0.18
0.22
0.27
0.42
0.44
0.38
0.48
0.37
0.19
0.205
0.22
0.265
0.32
0.4
0.465
0.425
0.385
0.335
0.235
0.22
0.175
0.26
0.39
0.405
0.47
0.46
0.375
0.35
0.22
0.165
0.185
0.22
0.325
0.41
0.44
0.43
0.38
0.295
0.18
0.115
0.23
0.29
0.34
0.445
0.44
0.44
0.3
0.225
0.145
0.175
0.185
0.24
0.325
0.41
0.425
0.395
0.36
0.255
0.155
0.165
0.15
0.295
0.33
0.385
0.365
0.38
0.365
0.225
0.16
0.155
0.18
0.225
0.36
0.39
0.36
0.29
0.37
0.245
0.165
0.19
0.175
0.255
0.36
0.39
0.38
0.325
0.295
0.215
0.14
0.15
0.205
0.205
0.295
0.34
0.365
0.41
0.345
0.245
0.19
0.135
0.2
0.28
0.325
0.42
0.405
0.32
0.305
0.235
0.165
0.165
0.2
0.285
0.355
0.475
0.47
0.405
0.345
0.29
0.235
0.18
0.22
0.315
0.38
0.43
0.51
0.43
0.315
0.21
0.19
0.2
0.245
0.315
0.405
0.445
0.45
0.405
0.235
0.13
0.21
0.185
0.18
0.235
0.365
0.38
0.32
0.29
0.235
0.145
0.135
0.165
0.165
0.22
0.305
0.365
0.345
0.27
0.19
0.15
0.135
0.105
0.19
0.235
0.345
0.375
0.3
0.28
0.205
0.135
0.11
0.085
0.185
0.245
0.33
0.345
0.305
0.25
0.17
0.105
0.135
0.165
0.17
0.24
0.345
0.35
0.3
0.23
0.15
0.075
0.015
0.055
0.225
0.375
0.485
0.56
0.585
0.6
0.58
0.635
0.665
0.76
0.865
0.82
0.8
0.81
0.65
0.48
0.305
0.085
0.06
-0.035
0.01
0.045
0.07
0.115
