# TIPE ECG 2021 - ECG-ID Database v1.0.0 par Physionet
# [Numéro de la personne, Période d'échantillonnage, Prénom, Age, Sexe, Date de l'enregistrement]
[10, 0.002, Wesley, 23, H, 05.04.2005]
0.02
-0.04
-0.145
-0.245
-0.165
-0.26
-0.19
-0.035
-0.025
-0.005
-0.005
-0.075
-0.18
-0.265
-0.28
-0.23
-0.15
-0.04
0.045
0.115
-0.005
-0.1
-0.225
-0.25
-0.255
-0.22
-0.125
0.02
0.04
0.055
-0.02
-0.07
-0.235
-0.265
-0.245
-0.205
-0.13
0.005
-0.01
0.045
0.025
-0.095
-0.24
-0.295
-0.31
-0.285
-0.095
0.015
0.025
0.01
-0.045
-0.1
-0.27
-0.275
-0.255
-0.245
-0.12
0.01
0.04
0.05
-0.06
-0.135
-0.29
-0.325
-0.305
-0.2
-0.145
0.0
0.045
0.03
-0.01
-0.12
-0.24
-0.35
-0.28
-0.215
-0.135
-0.01
-0.02
0.005
-0.045
-0.145
-0.29
-0.295
-0.295
-0.245
-0.12
0.01
0.02
-0.015
-0.075
-0.12
-0.27
-0.32
-0.335
-0.225
-0.14
-0.02
0.025
0.025
-0.095
-0.21
-0.275
-0.325
-0.305
-0.19
-0.085
-0.035
-0.005
-0.045
-0.07
-0.205
-0.25
-0.33
-0.345
-0.25
-0.09
-0.01
0.035
-0.02
-0.065
-0.215
-0.3
-0.355
-0.29
-0.2
-0.1
-0.05
0.02
-0.015
-0.075
-0.22
-0.31
-0.35
-0.285
-0.245
-0.075
-0.015
0.035
-0.035
-0.075
-0.28
-0.345
-0.27
-0.3
-0.23
-0.05
-0.02
0.01
-0.04
-0.105
-0.21
-0.305
-0.295
-0.24
-0.18
-0.05
-0.03
0.005
-0.035
-0.1
-0.24
-0.265
-0.245
-0.285
-0.2
-0.09
-0.02
-0.03
-0.055
-0.11
-0.25
-0.315
-0.32
-0.27
-0.21
-0.1
-0.06
-0.005
-0.01
-0.12
-0.305
-0.415
-0.4
-0.29
-0.205
-0.005
-0.05
-0.055
-0.06
-0.185
-0.285
-0.31
-0.325
-0.3
-0.21
-0.065
-0.02
0.005
-0.085
-0.195
-0.295
-0.345
-0.365
-0.3
-0.14
-0.04
-0.055
-0.01
-0.11
-0.225
-0.225
-0.225
-0.19
-0.025
0.165
0.325
0.41
0.495
0.44
0.305
0.1
-0.01
-0.085
-0.12
-0.05
-0.065
-0.12
-0.165
-0.325
-0.445
-0.585
-0.575
-0.59
-0.535
-0.35
-0.24
-0.22
-0.23
-0.165
-0.325
-0.405
-0.405
-0.37
-0.285
-0.185
-0.055
-0.065
-0.03
-0.085
-0.23
-0.295
-0.35
-0.35
-0.25
-0.135
-0.055
-0.055
-0.015
-0.08
-0.225
-0.275
-0.295
-0.3
-0.255
-0.125
-0.045
-0.025
-0.01
-0.105
-0.19
-0.3
-0.305
-0.315
-0.29
-0.04
-0.015
-0.01
0.005
-0.095
-0.19
-0.275
-0.3
-0.31
-0.235
-0.095
-0.025
0.045
0.05
0.015
-0.255
-0.27
-0.295
-0.26
-0.145
0.025
0.02
0.055
0.045
-0.085
-0.175
-0.245
-0.255
-0.235
-0.135
0.035
0.045
0.05
0.045
0.045
-0.17
-0.23
-0.19
-0.17
-0.08
0.04
0.085
0.21
0.145
0.065
-0.07
-0.15
-0.17
-0.12
-0.045
0.115
0.19
0.23
0.16
0.07
-0.115
-0.12
-0.12
-0.04
0.01
0.17
0.185
0.165
0.07
-0.005
-0.12
-0.165
-0.18
-0.17
-0.075
0.06
0.045
0.08
-0.025
-0.065
-0.28
-0.33
-0.31
-0.245
-0.16
-0.075
-0.03
-0.035
-0.115
-0.195
-0.34
-0.35
-0.35
-0.325
-0.21
-0.09
-0.125
-0.125
-0.095
-0.23
-0.415
-0.4
-0.395
-0.315
-0.22
-0.135
-0.115
-0.115
-0.155
-0.235
-0.405
-0.4
-0.38
-0.365
-0.2
-0.065
-0.035
-0.11
-0.175
-0.28
-0.34
-0.4
-0.385
-0.35
-0.195
-0.095
-0.085
-0.13
-0.195
-0.255
-0.36
-0.33
-0.335
-0.3
-0.205
-0.13
-0.08
-0.15
-0.22
-0.295
-0.385
-0.42
-0.385
-0.365
-0.14
-0.125
-0.095
-0.085
-0.205
-0.275
-0.345
-0.435
-0.395
-0.305
-0.17
-0.115
-0.07
-0.065
-0.16
-0.32
-0.42
-0.4
-0.385
-0.385
-0.18
-0.13
0.01
-0.06
-0.16
-0.36
-0.355
-0.375
-0.35
-0.24
-0.17
-0.105
-0.04
-0.13
-0.265
-0.355
-0.395
-0.41
-0.325
-0.29
-0.145
-0.12
-0.1
-0.125
-0.215
-0.355
-0.365
-0.39
-0.38
-0.345
-0.14
-0.075
-0.075
-0.11
-0.21
-0.34
-0.41
-0.445
-0.435
-0.24
-0.075
-0.16
-0.145
-0.13
-0.26
-0.35
-0.4
-0.47
-0.36
-0.29
-0.15
-0.155
-0.075
-0.175
-0.225
-0.365
-0.395
-0.365
-0.27
-0.33
-0.14
-0.135
-0.125
-0.14
-0.27
-0.37
-0.385
-0.39
-0.345
-0.28
-0.155
-0.145
-0.1
-0.12
-0.235
-0.435
-0.41
-0.43
-0.355
-0.25
-0.15
-0.115
-0.095
-0.18
-0.28
-0.38
-0.45
-0.41
-0.385
-0.235
-0.145
-0.11
-0.115
-0.22
-0.3
-0.4
-0.435
-0.465
-0.365
-0.21
-0.11
-0.075
-0.1
-0.18
-0.33
-0.42
-0.45
-0.455
-0.295
-0.195
-0.13
-0.13
-0.07
-0.175
-0.31
-0.41
-0.45
-0.39
-0.33
-0.18
-0.12
-0.145
-0.155
-0.2
-0.285
-0.37
-0.41
-0.435
-0.34
-0.165
-0.135
-0.11
-0.14
-0.165
-0.295
-0.385
-0.42
-0.36
-0.28
-0.175
-0.09
-0.045
-0.05
-0.185
-0.355
-0.385
-0.47
-0.4
-0.32
-0.215
-0.105
-0.1
-0.145
-0.2
-0.355
-0.415
-0.4
-0.4
-0.39
-0.195
-0.08
-0.08
-0.18
-0.265
-0.355
-0.405
-0.435
-0.36
-0.285
-0.19
-0.16
-0.105
-0.135
-0.255
-0.355
-0.43
-0.45
-0.41
-0.295
-0.115
-0.115
-0.13
-0.15
-0.21
-0.36
-0.39
-0.375
-0.31
-0.145
0.035
0.2
0.255
0.25
0.18
0.115
0.125
0.095
0.01
0.025
0.1
0.04
0.01
-0.12
-0.33
-0.53
-0.65
-0.69
-0.61
-0.52
-0.38
-0.345
-0.28
-0.37
-0.46
-0.56
-0.555
-0.475
-0.405
-0.29
-0.18
-0.135
-0.07
-0.145
-0.3
-0.405
-0.43
-0.365
-0.325
-0.24
-0.135
-0.12
-0.08
-0.1
-0.225
-0.32
-0.385
-0.375
-0.31
-0.25
-0.065
-0.035
-0.02
-0.13
-0.275
-0.37
-0.385
-0.36
-0.25
-0.125
-0.055
-0.04
-0.07
-0.145
-0.265
-0.31
-0.34
-0.42
-0.265
-0.14
-0.06
-0.045
-0.08
-0.115
-0.24
-0.34
-0.36
-0.305
-0.245
-0.125
-0.05
-0.025
-0.04
-0.125
-0.22
-0.32
-0.25
-0.29
-0.21
-0.085
0.01
0.065
0.025
-0.035
-0.19
-0.25
-0.265
-0.255
-0.14
-0.02
0.08
0.115
0.065
0.005
-0.145
-0.205
-0.21
-0.125
-0.14
0.08
0.17
0.21
0.09
0.005
-0.08
-0.12
-0.18
-0.12
-0.065
0.12
0.13
0.135
0.125
0.065
-0.145
-0.22
-0.195
-0.16
-0.035
-0.01
0.11
0.09
0.025
-0.095
-0.24
-0.29
-0.34
-0.285
-0.195
-0.07
-0.02
-0.055
-0.06
-0.175
-0.315
-0.385
-0.36
-0.33
-0.265
-0.11
-0.1
-0.07
-0.15
-0.24
-0.39
-0.42
-0.4
-0.355
-0.265
-0.105
-0.09
-0.115
-0.19
-0.26
-0.385
-0.38
-0.415
-0.33
-0.25
-0.135
-0.075
-0.105
-0.17
-0.23
-0.365
-0.41
-0.4
-0.355
-0.225
-0.105
-0.085
-0.095
-0.19
-0.26
-0.415
-0.42
-0.375
-0.335
-0.17
-0.085
-0.04
-0.07
-0.13
-0.285
-0.385
-0.38
-0.335
-0.35
-0.175
-0.12
-0.075
-0.1
-0.095
-0.26
-0.42
-0.4
-0.37
-0.335
-0.175
-0.075
-0.055
-0.125
-0.17
-0.265
-0.38
-0.395
-0.35
-0.315
-0.19
-0.085
-0.035
-0.065
-0.145
-0.275
-0.34
-0.38
-0.355
-0.3
-0.145
-0.09
-0.03
-0.05
-0.135
-0.26
-0.405
-0.42
-0.35
-0.285
-0.125
-0.04
-0.09
-0.11
-0.165
-0.29
-0.4
-0.39
-0.29
-0.26
-0.155
-0.085
-0.085
-0.045
-0.165
-0.335
-0.36
-0.385
-0.37
-0.27
-0.105
-0.035
-0.075
-0.07
-0.185
-0.33
-0.37
-0.38
-0.325
-0.285
-0.15
-0.055
-0.035
-0.095
-0.185
-0.325
-0.335
-0.33
-0.35
-0.28
-0.115
-0.075
-0.05
-0.085
-0.17
-0.305
-0.39
-0.405
-0.34
-0.235
-0.13
-0.09
-0.01
-0.1
-0.155
-0.32
-0.4
-0.315
-0.335
-0.24
-0.09
-0.025
-0.02
-0.105
-0.205
-0.325
-0.34
-0.415
-0.335
-0.21
-0.025
-0.01
-0.04
-0.12
-0.17
-0.305
-0.37
-0.395
-0.29
-0.195
-0.11
-0.045
-0.015
-0.135
-0.19
-0.385
-0.34
-0.325
-0.285
-0.185
-0.13
-0.055
-0.015
-0.065
-0.205
-0.33
-0.315
-0.32
-0.37
-0.21
-0.07
-0.01
0.015
-0.085
-0.26
-0.29
-0.31
-0.255
-0.295
-0.155
-0.03
0.01
-0.045
-0.115
-0.22
-0.32
-0.305
-0.33
-0.22
-0.07
-0.015
0.02
-0.045
-0.095
-0.2
-0.3
-0.31
-0.3
-0.225
-0.095
-0.02
-0.005
-0.095
-0.135
-0.25
-0.355
-0.34
-0.305
-0.24
-0.135
-0.04
-0.035
-0.02
-0.135
-0.295
-0.355
-0.355
-0.295
-0.215
-0.115
0.005
0.025
-0.06
-0.13
-0.255
-0.33
-0.36
-0.285
-0.245
-0.095
-0.04
0.0
-0.04
-0.13
-0.265
-0.39
-0.35
-0.275
-0.21
0.065
0.16
0.265
0.285
0.25
0.06
0.085
0.2
0.255
0.245
0.29
0.225
0.215
0.09
-0.13
-0.365
-0.47
-0.555
-0.525
-0.44
-0.33
-0.245
-0.2
-0.31
-0.345
-0.495
-0.495
-0.445
-0.37
-0.295
-0.125
-0.01
-0.025
-0.07
-0.165
-0.335
-0.345
-0.34
-0.27
-0.13
-0.025
0.005
0.055
-0.01
-0.205
-0.27
-0.32
-0.27
-0.28
-0.16
0.0
0.005
0.005
-0.045
-0.155
-0.22
-0.265
-0.275
-0.24
-0.095
0.015
0.03
0.025
-0.04
-0.17
-0.23
-0.24
-0.275
-0.25
-0.145
0.01
0.065
0.075
0.02
-0.135
-0.215
-0.2
-0.24
-0.19
-0.085
0.005
0.0
0.05
0.02
-0.1
-0.175
-0.22
-0.23
-0.145
0.015
0.075
0.13
0.115
0.04
-0.075
-0.175
-0.17
-0.15
-0.095
0.04
0.145
0.165
0.17
0.055
-0.025
-0.1
-0.125
-0.07
-0.03
0.08
0.205
0.285
0.215
0.17
-0.005
-0.09
-0.07
-0.05
0.05
0.165
0.205
0.32
0.23
0.185
-0.03
-0.115
-0.14
-0.1
-0.04
0.135
0.16
0.165
0.065
0.04
-0.14
-0.185
-0.205
-0.19
-0.12
0.02
0.07
0.07
0.025
-0.105
-0.225
-0.29
-0.33
-0.295
-0.21
-0.075
-0.035
-0.02
-0.01
-0.095
-0.25
-0.325
-0.38
-0.3
-0.19
-0.05
-0.025
-0.025
-0.075
-0.145
-0.27
-0.365
-0.395
-0.29
-0.165
-0.11
-0.03
-0.04
-0.07
-0.175
-0.29
-0.325
-0.35
-0.275
-0.22
-0.075
-0.055
-0.05
-0.08
-0.19
-0.305
-0.33
-0.38
-0.32
-0.21
-0.09
-0.02
0.0
-0.07
-0.21
-0.315
-0.375
-0.39
-0.245
-0.17
-0.06
-0.065
-0.02
-0.06
-0.205
-0.335
-0.35
-0.32
-0.305
-0.17
-0.03
0.0
-0.02
-0.105
-0.195
-0.295
-0.32
-0.355
-0.295
-0.13
0.0
0.03
-0.015
-0.115
-0.26
-0.33
-0.35
-0.32
-0.29
-0.17
-0.045
-0.06
-0.065
-0.12
-0.15
-0.265
-0.305
-0.36
-0.305
-0.145
-0.05
-0.02
-0.065
-0.135
-0.255
-0.35
-0.37
-0.32
-0.23
-0.13
-0.065
-0.015
-0.045
-0.135
-0.265
-0.3
-0.365
-0.34
-0.285
-0.1
-0.045
-0.02
-0.065
-0.12
-0.245
-0.315
-0.365
-0.33
-0.23
-0.15
-0.025
-0.005
-0.005
-0.11
-0.195
-0.42
-0.46
-0.335
-0.19
-0.12
-0.005
0.015
-0.045
-0.17
-0.29
-0.405
-0.35
-0.335
-0.235
-0.1
-0.065
-0.035
-0.04
-0.18
-0.355
-0.375
-0.355
-0.3
-0.215
-0.06
-0.045
-0.04
-0.075
-0.14
-0.27
-0.335
-0.385
-0.33
-0.24
-0.075
-0.065
-0.02
-0.06
-0.155
-0.335
-0.375
-0.395
-0.37
-0.21
-0.07
0.005
-0.015
-0.075
-0.205
-0.36
-0.36
-0.375
-0.33
-0.25
-0.125
0.0
-0.06
-0.11
-0.245
-0.385
-0.35
-0.365
-0.315
-0.21
-0.055
-0.04
-0.005
-0.1
-0.215
-0.345
-0.365
-0.375
-0.28
-0.19
-0.075
-0.06
-0.08
-0.13
-0.19
-0.315
-0.325
-0.34
-0.315
-0.195
-0.075
-0.07
-0.055
-0.06
-0.24
-0.355
-0.38
-0.35
-0.27
-0.14
-0.02
0.025
-0.04
-0.155
-0.195
-0.35
-0.38
-0.37
-0.275
-0.22
-0.115
-0.075
-0.05
-0.13
-0.33
-0.415
-0.385
-0.34
-0.28
-0.145
-0.085
-0.05
-0.065
-0.155
-0.245
-0.34
-0.39
-0.41
-0.305
-0.175
-0.085
-0.04
-0.075
-0.17
-0.31
-0.395
-0.395
-0.355
-0.27
-0.11
-0.055
-0.07
-0.085
-0.15
-0.285
-0.375
-0.395
-0.28
-0.195
0.03
0.14
0.225
0.23
0.2
0.145
0.185
0.205
0.13
0.08
0.16
0.155
0.12
-0.04
-0.235
-0.47
-0.61
-0.64
-0.605
-0.515
-0.35
-0.38
-0.285
-0.27
-0.385
-0.515
-0.5
-0.525
-0.48
-0.32
-0.21
-0.115
-0.065
-0.135
-0.19
-0.315
-0.33
-0.32
-0.3
-0.275
-0.19
-0.06
-0.035
-0.07
-0.13
-0.35
-0.38
-0.39
-0.32
-0.17
-0.08
-0.07
-0.055
-0.095
-0.22
-0.36
-0.385
-0.335
-0.28
-0.155
-0.08
-0.04
-0.045
-0.07
-0.21
-0.265
-0.34
-0.355
-0.3
-0.185
-0.04
-0.035
0.0
-0.13
-0.215
-0.295
-0.335
-0.33
-0.24
-0.135
-0.055
-0.015
0.025
-0.065
-0.14
-0.26
-0.275
-0.265
-0.25
-0.08
-0.01
0.04
0.05
-0.04
-0.145
-0.3
-0.305
-0.26
-0.17
-0.055
0.14
0.12
0.095
0.03
-0.08
-0.17
-0.205
-0.22
-0.13
-0.005
0.145
0.19
0.155
0.085
-0.065
-0.16
-0.17
-0.14
-0.02
0.125
0.17
0.105
0.09
0.055
-0.12
-0.18
-0.2
-0.18
-0.115
0.035
0.11
0.08
0.05
-0.03
-0.21
-0.29
-0.33
-0.295
-0.205
-0.09
-0.07
-0.01
-0.075
-0.16
-0.315
-0.375
-0.375
-0.37
-0.295
-0.18
-0.07
-0.08
-0.115
-0.18
-0.355
-0.4
-0.425
-0.415
-0.36
-0.16
-0.13
-0.12
-0.14
-0.25
-0.405
-0.505
-0.445
-0.43
-0.315
-0.15
-0.105
-0.105
-0.16
-0.245
-0.375
-0.42
-0.435
-0.385
-0.295
-0.16
-0.13
-0.125
-0.215
-0.285
-0.365
-0.4
-0.43
-0.415
-0.28
-0.14
-0.125
-0.14
-0.22
-0.32
-0.395
-0.42
-0.44
-0.4
-0.285
-0.15
-0.1
-0.09
-0.19
-0.28
-0.385
-0.41
-0.385
-0.385
-0.295
-0.195
-0.08
-0.1
-0.14
-0.335
-0.455
-0.45
-0.435
-0.395
-0.235
-0.14
-0.125
-0.095
-0.17
-0.23
-0.385
-0.485
-0.48
-0.375
-0.3
-0.13
-0.115
-0.125
-0.175
-0.29
-0.455
-0.47
-0.38
-0.335
-0.255
-0.11
-0.12
-0.18
-0.18
-0.265
-0.435
-0.475
-0.42
-0.355
-0.225
-0.135
-0.08
-0.1
-0.215
-0.335
-0.4
-0.385
-0.415
-0.36
-0.265
-0.225
-0.12
-0.125
-0.245
-0.35
-0.44
-0.51
-0.445
-0.33
-0.205
-0.145
-0.135
-0.17
-0.26
-0.38
-0.465
-0.485
-0.44
-0.36
-0.175
-0.115
-0.14
-0.15
-0.23
-0.33
-0.43
-0.475
-0.405
-0.375
-0.275
-0.13
-0.095
-0.14
-0.235
-0.38
-0.44
-0.455
-0.425
-0.335
-0.17
-0.13
-0.19
-0.17
-0.26
-0.38
-0.46
-0.47
-0.41
-0.305
-0.185
-0.15
-0.135
-0.17
-0.235
-0.44
-0.495
-0.465
-0.425
-0.335
-0.17
-0.17
-0.15
-0.17
-0.235
-0.385
-0.465
-0.525
-0.45
-0.315
-0.15
-0.14
-0.185
-0.175
-0.25
-0.425
-0.51
-0.49
-0.38
-0.345
-0.215
-0.09
-0.125
-0.185
-0.29
-0.445
-0.475
-0.47
-0.39
-0.28
-0.15
-0.15
-0.115
-0.2
-0.305
-0.435
-0.44
-0.435
-0.36
-0.215
-0.12
-0.045
-0.155
-0.2
-0.315
-0.435
-0.455
-0.44
-0.385
-0.3
-0.12
-0.15
-0.17
-0.265
-0.34
-0.435
-0.485
-0.48
-0.405
-0.285
-0.15
-0.18
-0.185
-0.27
-0.37
-0.47
-0.45
-0.495
-0.37
-0.275
-0.2
-0.13
-0.18
-0.245
-0.35
-0.42
-0.455
-0.475
-0.395
-0.25
-0.215
-0.155
-0.155
-0.25
-0.425
-0.435
-0.485
-0.445
-0.33
-0.205
-0.02
0.055
0.105
0.075
-0.02
-0.06
0.02
0.085
0.155
0.2
0.155
0.135
0.05
-0.175
-0.405
-0.5
-0.62
-0.695
-0.595
-0.445
-0.43
-0.41
-0.44
-0.425
-0.605
-0.62
-0.65
-0.59
-0.445
-0.265
-0.225
-0.22
-0.285
-0.315
-0.415
-0.445
-0.475
-0.43
-0.365
-0.21
-0.15
-0.08
-0.2
-0.265
-0.415
-0.46
-0.43
-0.435
-0.315
-0.16
-0.14
-0.12
-0.185
-0.25
-0.395
-0.415
-0.44
-0.415
-0.345
-0.165
-0.1
-0.08
-0.14
-0.24
-0.385
-0.41
-0.42
-0.385
-0.33
-0.185
-0.085
-0.125
-0.145
-0.22
-0.425
-0.435
-0.35
-0.32
-0.28
-0.18
-0.085
-0.085
-0.135
-0.215
-0.31
-0.42
-0.425
-0.335
-0.19
-0.07
-0.04
-0.01
-0.1
-0.225
-0.33
-0.365
-0.345
-0.26
-0.15
-0.04
0.015
0.035
-0.06
-0.165
-0.29
-0.33
-0.3
-0.205
-0.07
0.015
0.025
0.025
0.0
-0.125
-0.25
-0.225
-0.23
-0.205
-0.05
0.085
0.09
0.075
-0.05
-0.135
-0.22
-0.26
-0.21
-0.165
-0.06
0.045
0.055
-0.035
-0.09
-0.215
-0.31
-0.375
-0.35
-0.305
-0.18
-0.125
-0.09
-0.055
-0.195
-0.385
-0.41
-0.49
-0.44
-0.355
-0.23
-0.16
-0.17
-0.205
-0.29
-0.45
-0.495
-0.49
-0.465
-0.42
-0.29
-0.185
-0.19
-0.21
-0.25
-0.45
-0.545
-0.465
-0.45
-0.395
-0.265
-0.225
-0.195
-0.205
-0.285
-0.385
-0.51
-0.545
-0.45
-0.44
-0.225
-0.21
-0.155
-0.195
-0.31
-0.455
-0.525
-0.495
-0.48
-0.425
-0.25
-0.205
-0.195
-0.175
-0.3
-0.455
-0.515
-0.46
-0.46
-0.355
-0.255
-0.2
-0.185
-0.205
-0.335
-0.485
-0.495
-0.515
-0.455
-0.385
-0.235
-0.19
-0.165
-0.27
-0.315
-0.46
-0.545
-0.535
-0.415
-0.315
-0.175
-0.18
-0.16
-0.2
-0.34
-0.505
-0.5
-0.525
-0.44
-0.365
-0.185
-0.16
-0.165
-0.26
-0.325
-0.49
-0.52
-0.5
-0.41
-0.355
-0.24
-0.16
-0.16
-0.245
-0.335
-0.445
-0.44
-0.515
-0.475
-0.37
-0.215
-0.145
-0.15
-0.255
-0.38
-0.525
-0.545
-0.49
-0.435
-0.345
-0.25
-0.145
-0.19
-0.29
-0.45
-0.515
-0.515
-0.48
-0.375
-0.29
-0.175
-0.215
-0.215
-0.3
-0.435
-0.51
-0.55
-0.555
-0.415
-0.285
-0.225
-0.17
-0.19
-0.27
-0.405
-0.525
-0.555
-0.5
-0.43
-0.27
-0.215
-0.19
-0.205
-0.32
-0.445
-0.49
-0.48
-0.485
-0.43
-0.285
-0.23
-0.185
-0.2
-0.29
-0.425
-0.485
-0.48
-0.485
-0.45
-0.255
-0.21
-0.2
-0.27
-0.35
-0.46
-0.49
-0.5
-0.53
-0.38
-0.195
-0.23
-0.22
-0.16
-0.34
-0.465
-0.505
-0.575
-0.485
-0.4
-0.255
-0.21
-0.155
-0.24
-0.325
-0.51
-0.54
-0.535
-0.47
-0.355
-0.245
-0.215
-0.185
-0.21
-0.3
-0.475
-0.52
-0.49
-0.435
-0.385
-0.225
-0.2
-0.175
-0.24
-0.35
-0.49
-0.51
-0.53
-0.47
-0.42
-0.22
-0.185
-0.19
-0.25
-0.305
-0.48
-0.485
-0.515
-0.48
-0.34
-0.185
-0.105
-0.155
-0.3
-0.325
-0.48
-0.455
-0.505
-0.415
-0.32
-0.15
-0.125
-0.14
-0.265
-0.35
-0.46
-0.555
-0.535
-0.44
-0.315
-0.2
-0.2
-0.21
-0.26
-0.41
-0.535
-0.55
-0.52
-0.465
-0.315
-0.22
-0.215
-0.21
-0.25
-0.365
-0.49
-0.53
-0.52
-0.47
-0.315
-0.195
-0.21
-0.2
-0.275
-0.36
-0.46
-0.49
-0.525
-0.475
-0.275
-0.175
-0.21
-0.18
-0.185
-0.245
-0.29
-0.225
-0.18
-0.095
0.145
0.275
0.34
0.325
0.175
-0.065
-0.295
-0.365
-0.37
-0.43
-0.395
-0.4
-0.465
-0.465
-0.5
-0.695
-0.745
-0.75
-0.705
-0.515
-0.47
-0.4
-0.255
-0.185
-0.17
-0.175
-0.31
-0.455
-0.475
-0.505
-0.445
-0.385
-0.24
-0.205
-0.13
-0.185
-0.275
-0.415
-0.49
-0.48
-0.44
-0.305
-0.185
-0.15
-0.165
-0.19
-0.315
-0.435
-0.485
-0.51
-0.505
-0.33
-0.13
-0.175
-0.14
-0.19
-0.26
-0.41
-0.435
-0.475
-0.41
-0.325
-0.165
-0.13
-0.11
-0.185
-0.285
-0.38
-0.45
-0.465
-0.4
-0.265
-0.13
-0.15
-0.055
-0.095
-0.225
-0.35
-0.42
-0.415
-0.305
-0.19
-0.06
-0.01
-0.035
-0.15
-0.21
-0.365
-0.355
-0.365
-0.3
-0.09
0.015
-0.01
0.01
-0.03
-0.115
-0.305
-0.265
-0.28
-0.21
-0.085
-0.015
0.04
0.04
-0.025
-0.145
-0.235
-0.275
-0.305
-0.18
-0.11
0.025
0.035
-0.005
-0.09
-0.2
-0.255
-0.315
-0.315
-0.24
-0.15
-0.06
-0.06
-0.11
-0.155
-0.315
-0.47
-0.455
-0.42
-0.37
-0.21
-0.215
-0.16
-0.175
-0.235
-0.42
-0.48
-0.51
-0.525
-0.435
-0.265
-0.215
-0.185
-0.195
-0.3
-0.455
-0.53
-0.525
-0.51
-0.43
-0.295
-0.22
-0.17
-0.21
-0.3
-0.485
-0.555
-0.56
-0.475
-0.385
-0.27
-0.2
-0.18
-0.22
-0.31
-0.47
-0.52
-0.55
-0.495
-0.365
-0.255
-0.195
-0.22
-0.22
-0.285
-0.465
-0.57
-0.55
-0.46
-0.395
-0.22
-0.215
-0.195
-0.255
-0.335
-0.48
-0.515
-0.56
-0.47
-0.395
-0.215
-0.215
-0.175
-0.235
-0.325
-0.51
-0.515
-0.515
-0.47
-0.41
-0.26
-0.225
-0.185
-0.3
-0.315
-0.45
-0.555
-0.53
-0.485
-0.37
-0.24
-0.16
-0.14
-0.315
-0.365
-0.475
-0.465
-0.545
-0.455
-0.335
-0.26
-0.21
-0.185
-0.21
-0.36
-0.535
-0.555
-0.51
-0.445
-0.37
-0.235
-0.2
-0.195
-0.255
-0.345
-0.495
-0.555
-0.59
-0.475
-0.395
-0.225
-0.24
-0.21
-0.245
-0.405
-0.505
-0.57
-0.465
-0.42
-0.34
-0.21
-0.215
-0.195
-0.3
-0.395
-0.505
-0.555
-0.47
-0.455
-0.35
-0.255
-0.205
-0.205
-0.23
-0.34
-0.475
-0.565
-0.485
-0.47
-0.395
-0.17
-0.175
-0.23
-0.275
-0.465
-0.51
-0.505
-0.515
-0.5
-0.34
-0.2
-0.18
-0.24
-0.255
-0.4
-0.54
-0.57
-0.505
-0.395
-0.31
-0.245
-0.22
-0.225
-0.255
-0.46
-0.49
-0.54
-0.485
-0.38
-0.29
-0.225
-0.2
-0.21
-0.3
-0.405
-0.485
-0.545
-0.51
-0.42
-0.27
-0.2
-0.205
-0.195
-0.285
-0.48
-0.58
-0.58
-0.525
-0.345
-0.26
-0.255
-0.17
-0.265
-0.29
-0.44
-0.46
-0.495
-0.495
-0.395
-0.255
-0.205
-0.2
-0.235
-0.275
-0.44
-0.52
-0.51
-0.475
-0.36
-0.185
-0.175
-0.21
-0.255
-0.305
-0.435
-0.485
-0.52
-0.43
-0.33
-0.15
-0.135
-0.155
-0.23
-0.32
-0.47
-0.52
-0.505
-0.445
-0.355
-0.195
-0.21
-0.235
-0.265
-0.335
-0.5
-0.54
-0.52
-0.435
-0.335
-0.24
-0.215
-0.245
-0.295
-0.35
-0.48
-0.48
-0.53
-0.54
-0.32
-0.19
-0.205
-0.165
-0.215
-0.37
-0.49
-0.525
-0.505
-0.455
-0.32
-0.205
-0.21
-0.225
-0.23
-0.375
-0.47
-0.465
-0.435
-0.305
-0.14
0.07
0.15
0.2
0.175
0.12
0.055
-0.015
-0.11
-0.08
-0.035
-0.01
-0.14
-0.235
-0.405
-0.605
-0.725
-0.725
-0.725
-0.645
-0.48
-0.445
-0.375
-0.4
-0.455
-0.545
-0.565
-0.63
-0.615
-0.495
-0.3
-0.27
-0.23
-0.245
-0.305
-0.4
-0.505
-0.515
-0.445
-0.37
-0.23
-0.18
-0.135
-0.19
-0.27
-0.375
-0.47
-0.485
-0.455
-0.355
-0.225
-0.195
-0.15
-0.17
-0.245
-0.41
-0.455
-0.48
-0.405
-0.385
-0.21
-0.075
-0.175
-0.185
-0.255
-0.39
-0.47
-0.485
-0.365
-0.39
-0.23
-0.145
-0.145
-0.125
-0.225
-0.425
-0.445
-0.425
-0.39
-0.325
-0.12
-0.12
-0.085
-0.165
-0.235
-0.345
-0.39
-0.375
-0.36
-0.235
-0.075
-0.045
-0.055
-0.08
-0.145
-0.315
-0.385
-0.385
-0.305
-0.21
-0.045
0.02
-0.03
-0.075
-0.14
-0.245
-0.275
-0.285
-0.23
-0.105
0.02
0.055
0.015
-0.03
-0.11
-0.285
-0.255
-0.26
-0.215
-0.095
0.065
0.05
0.09
0.0
-0.1
-0.21
-0.27
-0.32
-0.2
-0.095
0.015
-0.04
-0.045
-0.095
-0.225
-0.34
-0.41
-0.395
-0.38
-0.245
-0.135
-0.13
-0.135
-0.22
-0.325
-0.475
-0.475
-0.465
-0.41
-0.31
-0.24
-0.2
-0.19
-0.265
-0.4
-0.505
-0.57
-0.52
-0.39
-0.25
-0.205
-0.19
-0.165
-0.26
-0.405
-0.52
-0.55
-0.525
-0.415
-0.295
-0.22
-0.195
-0.22
-0.27
-0.415
-0.48
-0.47
-0.485
-0.385
-0.28
-0.225
-0.195
-0.235
-0.28
-0.445
-0.52
-0.555
-0.445
-0.3
-0.255
-0.215
-0.185
-0.23
-0.33
-0.445
-0.475
-0.525
-0.51
-0.405
-0.26
-0.175
-0.135
-0.25
-0.325
-0.47
-0.52
-0.515
-0.425
-0.39
-0.285
-0.15
-0.16
-0.225
-0.34
-0.475
-0.515
-0.495
-0.465
-0.36
-0.205
-0.185
-0.125
-0.18
-0.325
-0.465
-0.525
-0.5
-0.43
-0.35
-0.195
-0.205
-0.19
-0.205
-0.34
-0.46
-0.52
-0.515
-0.42
-0.36
-0.225
-0.18
-0.115
-0.24
-0.335
-0.465
-0.52
-0.49
-0.455
-0.335
-0.235
-0.195
-0.15
-0.22
-0.405
-0.45
-0.495
-0.515
-0.44
-0.355
-0.215
-0.17
-0.165
-0.175
-0.33
-0.48
-0.565
-0.515
-0.475
-0.32
-0.185
-0.15
-0.19
-0.285
-0.36
-0.485
-0.505
-0.485
-0.415
-0.335
-0.165
-0.16
-0.175
-0.29
-0.39
-0.465
-0.455
-0.48
-0.455
-0.35
-0.235
-0.205
-0.195
-0.27
-0.4
-0.495
-0.505
-0.48
-0.435
-0.275
-0.15
-0.21
-0.22
-0.34
-0.365
-0.455
-0.515
-0.455
-0.435
-0.305
-0.235
-0.16
-0.195
-0.26
-0.385
-0.48
-0.525
-0.475
-0.42
-0.275
-0.225
-0.235
-0.205
-0.275
-0.43
-0.515
-0.555
-0.465
-0.395
-0.27
-0.165
-0.155
-0.23
-0.27
-0.42
-0.45
-0.525
-0.505
-0.41
-0.235
-0.16
-0.18
-0.2
-0.31
-0.415
-0.525
-0.505
-0.435
-0.36
-0.285
-0.17
-0.125
-0.225
-0.26
-0.435
-0.51
-0.5
-0.465
-0.35
-0.18
-0.16
-0.135
-0.19
-0.27
-0.415
-0.46
-0.425
-0.465
-0.37
-0.18
-0.145
-0.145
-0.22
-0.315
-0.475
-0.49
-0.53
-0.45
-0.365
-0.255
-0.215
-0.16
-0.255
-0.335
-0.44
-0.53
-0.52
-0.425
-0.335
-0.185
-0.125
-0.165
-0.235
-0.35
-0.485
-0.495
-0.485
-0.48
-0.36
-0.19
-0.185
-0.18
-0.26
-0.34
-0.495
-0.5
-0.49
-0.46
-0.31
-0.185
-0.12
-0.015
-0.075
-0.12
-0.14
-0.095
-0.055
0.095
0.245
0.315
0.275
0.195
0.025
-0.17
-0.365
-0.52
-0.555
-0.56
-0.465
-0.49
-0.425
-0.41
-0.495
-0.605
-0.68
-0.675
-0.625
-0.595
-0.41
-0.25
-0.25
-0.25
-0.305
-0.45
-0.535
-0.53
-0.475
-0.4
-0.23
-0.155
-0.085
-0.175
-0.26
-0.39
-0.465
-0.47
-0.46
-0.405
-0.21
-0.165
-0.175
-0.175
-0.21
-0.41
-0.465
-0.435
-0.415
-0.35
-0.2
-0.125
-0.115
-0.165
-0.205
-0.365
-0.435
-0.525
-0.39
-0.335
-0.23
-0.16
-0.065
-0.12
-0.22
-0.355
-0.395
-0.455
-0.44
-0.325
-0.11
-0.085
-0.07
-0.15
-0.245
-0.36
-0.35
-0.37
-0.345
-0.285
-0.085
-0.07
-0.08
-0.09
-0.115
-0.29
-0.38
-0.375
-0.315
-0.225
-0.045
0.025
0.035
-0.02
-0.175
-0.275
-0.305
-0.26
-0.265
-0.15
-0.01
0.025
0.075
-0.04
-0.06
-0.19
-0.235
-0.255
-0.215
-0.125
0.09
0.07
0.09
0.03
-0.09
-0.255
-0.265
-0.21
-0.205
-0.09
0.025
0.115
0.06
-0.01
-0.135
-0.29
-0.27
-0.345
-0.32
-0.165
-0.07
-0.04
-0.075
-0.17
-0.295
-0.41
-0.395
-0.4
-0.405
-0.255
-0.135
-0.165
-0.145
-0.285
-0.365
-0.47
-0.445
-0.475
-0.455
-0.295
-0.19
-0.17
-0.19
-0.245
-0.335
-0.495
-0.53
-0.485
-0.415
-0.31
-0.21
-0.185
-0.195
-0.235
-0.365
-0.455
-0.535
-0.51
-0.46
-0.27
-0.15
-0.17
-0.18
-0.255
-0.425
-0.48
-0.515
-0.435
-0.41
-0.27
-0.15
-0.095
-0.19
-0.275
-0.39
-0.475
-0.505
-0.445
-0.405
-0.23
-0.205
-0.185
-0.22
-0.27
-0.42
-0.44
-0.475
-0.495
-0.365
-0.255
-0.14
-0.165
-0.17
-0.27
-0.395
-0.44
-0.51
-0.475
-0.395
-0.21
-0.17
-0.095
-0.165
-0.29
-0.435
-0.48
-0.485
-0.42
-0.34
-0.19
-0.14
-0.16
-0.235
-0.3
-0.435
-0.475
-0.515
-0.465
-0.345
-0.205
-0.2
-0.155
-0.19
-0.275
-0.45
-0.505
-0.475
-0.44
-0.3
-0.24
-0.19
-0.165
-0.19
-0.305
-0.46
-0.475
-0.495
-0.415
-0.315
-0.165
-0.095
-0.175
-0.3
-0.3
-0.435
-0.465
-0.475
-0.43
-0.315
-0.17
-0.145
-0.19
-0.21
-0.295
-0.425
-0.52
-0.555
-0.435
-0.34
-0.205
-0.15
-0.13
-0.195
-0.355
-0.52
-0.495
-0.495
-0.415
-0.295
-0.18
-0.145
-0.18
-0.23
-0.33
-0.445
-0.48
-0.455
-0.415
-0.275
-0.19
-0.175
-0.175
-0.215
-0.335
-0.465
-0.49
-0.485
-0.385
-0.28
-0.17
-0.195
-0.19
-0.255
-0.355
-0.43
-0.475
-0.5
-0.405
-0.24
-0.175
-0.16
-0.16
-0.295
-0.38
-0.455
-0.445
-0.46
-0.355
-0.2
-0.21
-0.195
-0.18
-0.225
-0.35
-0.485
-0.53
-0.465
-0.365
-0.23
-0.135
-0.16
-0.135
-0.26
-0.46
-0.475
-0.51
-0.445
-0.365
-0.245
-0.155
-0.11
-0.165
-0.235
-0.38
-0.46
-0.47
-0.44
-0.345
-0.19
-0.17
-0.11
-0.155
-0.26
-0.38
-0.475
-0.475
-0.41
-0.335
-0.15
-0.065
-0.085
-0.115
-0.22
-0.345
-0.44
-0.51
-0.45
-0.345
-0.235
-0.14
-0.165
-0.22
-0.255
-0.405
-0.485
-0.475
-0.445
-0.34
-0.21
-0.13
-0.15
-0.16
-0.305
-0.43
-0.425
-0.385
-0.475
-0.37
-0.205
-0.145
-0.18
-0.23
-0.3
-0.425
-0.455
-0.46
-0.415
-0.325
-0.205
-0.165
-0.14
-0.21
-0.255
-0.465
-0.49
-0.45
-0.335
-0.175
0.005
0.105
0.155
0.165
0.15
0.055
0.07
0.095
0.01
0.0
0.12
0.055
-0.005
-0.22
-0.445
-0.555
-0.65
-0.755
-0.675
-0.475
-0.38
-0.385
-0.395
-0.415
-0.47
-0.665
-0.59
-0.53
-0.47
-0.32
-0.215
-0.175
-0.165
-0.22
-0.35
-0.48
-0.46
-0.42
-0.375
-0.25
-0.165
-0.145
-0.15
-0.16
-0.315
-0.44
-0.465
-0.44
-0.315
-0.175
-0.105
-0.095
-0.135
-0.205
-0.39
-0.4
-0.435
-0.42
-0.305
-0.18
-0.15
-0.09
-0.1
-0.16
-0.365
-0.365
-0.395
-0.39
-0.31
-0.185
-0.11
-0.1
-0.105
-0.15
-0.325
-0.405
-0.41
-0.395
-0.25
-0.13
-0.095
-0.03
-0.095
-0.195
-0.32
-0.35
-0.345
-0.3
-0.225
-0.11
-0.015
0.02
-0.03
-0.11
-0.295
-0.34
-0.305
-0.3
-0.22
-0.03
0.025
0.075
-0.015
-0.075
-0.18
-0.27
-0.275
-0.195
-0.05
0.085
0.085
0.03
0.045
-0.015
-0.205
-0.24
-0.275
-0.12
-0.05
0.055
0.105
0.11
0.065
-0.01
-0.19
-0.24
-0.23
-0.18
-0.095
0.04
0.055
0.075
-0.085
-0.13
-0.285
-0.345
-0.345
-0.265
-0.235
-0.12
-0.08
-0.065
-0.1
-0.265
-0.39
-0.405
-0.435
-0.395
-0.265
-0.155
-0.1
-0.14
-0.205
-0.305
-0.485
-0.455
-0.445
-0.375
-0.36
-0.175
-0.135
-0.08
-0.22
-0.32
-0.45
-0.515
-0.505
-0.39
-0.225
-0.165
-0.125
-0.145
-0.225
-0.36
-0.455
-0.49
-0.47
-0.365
-0.255
-0.135
-0.16
-0.155
-0.21
-0.355
-0.47
-0.46
-0.44
-0.395
-0.23
-0.125
-0.095
-0.18
-0.225
-0.38
-0.445
-0.45
-0.47
-0.34
-0.255
-0.175
-0.135
-0.165
-0.245
-0.355
-0.4
-0.445
-0.485
-0.41
-0.195
-0.165
-0.095
-0.11
-0.195
-0.36
-0.45
-0.475
-0.43
-0.365
-0.19
-0.16
-0.115
-0.165
-0.22
-0.385
-0.435
-0.46
-0.415
-0.31
-0.19
-0.155
-0.115
-0.175
-0.275
-0.425
-0.425
-0.46
-0.41
-0.365
-0.195
-0.135
-0.115
-0.205
-0.29
-0.37
-0.455
-0.49
-0.425
-0.31
-0.195
-0.16
-0.125
-0.19
-0.26
-0.375
-0.475
-0.41
-0.41
-0.35
-0.23
-0.115
-0.115
-0.21
-0.23
-0.44
-0.495
-0.44
-0.37
-0.31
-0.17
-0.165
-0.135
-0.17
-0.265
-0.425
-0.465
-0.505
-0.42
-0.305
-0.205
-0.16
-0.125
-0.165
-0.26
-0.425
-0.48
-0.455
-0.365
-0.315
-0.175
-0.145
-0.135
-0.185
-0.295
-0.475
-0.47
-0.44
-0.355
-0.295
-0.19
-0.185
-0.115
-0.15
-0.28
-0.4
-0.485
-0.455
-0.375
-0.275
-0.23
-0.17
-0.15
-0.235
-0.375
-0.445
-0.505
-0.455
-0.36
-0.24
-0.14
-0.125
-0.125
-0.185
-0.32
-0.41
-0.44
-0.465
-0.395
-0.25
-0.125
-0.1
-0.14
-0.205
-0.35
-0.43
-0.425
-0.425
-0.335
-0.225
-0.16
-0.12
-0.135
-0.21
-0.33
-0.405
-0.445
-0.41
-0.315
-0.19
-0.11
-0.065
-0.095
-0.165
-0.35
-0.46
-0.415
-0.365
-0.35
-0.22
-0.175
-0.165
-0.18
-0.315
-0.445
-0.435
-0.515
-0.41
-0.335
-0.17
-0.165
-0.125
-0.15
-0.21
-0.37
-0.42
-0.45
-0.42
-0.365
-0.185
-0.145
-0.115
-0.15
-0.26
-0.39
-0.48
-0.475
-0.39
-0.31
-0.18
-0.14
-0.105
-0.135
-0.205
-0.38
-0.425
-0.42
-0.245
-0.085
0.13
0.185
0.285
0.285
0.29
0.145
0.065
-0.01
-0.085
-0.11
0.025
-0.065
-0.135
-0.24
-0.435
-0.685
-0.68
-0.695
-0.655
-0.535
-0.395
-0.37
-0.305
-0.35
-0.425
-0.545
-0.56
-0.555
-0.48
-0.345
-0.15
-0.095
-0.095
-0.145
-0.295
-0.43
-0.445
-0.41
-0.345
-0.255
-0.12
-0.055
-0.06
-0.205
-0.3
-0.385
-0.37
-0.39
-0.305
-0.175
-0.085
-0.08
-0.125
-0.13
-0.27
-0.365
-0.38
-0.415
-0.375
-0.185
-0.09
-0.09
-0.085
-0.14
-0.215
-0.4
-0.415
-0.38
-0.3
-0.19
-0.115
-0.055
-0.055
-0.115
-0.24
-0.36
-0.38
-0.36
-0.27
-0.105
-0.07
-0.005
-0.035
-0.135
-0.245
-0.325
-0.355
-0.305
-0.185
-0.06
0.015
0.01
-0.02
-0.065
-0.23
-0.29
-0.245
-0.19
-0.195
-0.025
-0.01
0.06
0.025
-0.02
-0.16
-0.215
-0.235
-0.185
-0.125
0.065
0.13
0.1
0.105
0.02
-0.135
-0.17
-0.205
-0.165
-0.09
0.07
0.175
0.17
0.145
-0.005
-0.17
-0.215
-0.21
-0.2
-0.115
-0.005
0.005
-0.005
-0.045
-0.08
-0.215
-0.315
-0.405
-0.295
-0.195
-0.145
-0.15
-0.1
-0.125
-0.235
-0.34
-0.455
-0.43
-0.37
-0.3
-0.17
-0.15
-0.135
-0.17
-0.25
-0.445
-0.465
-0.425
-0.41
-0.34
-0.2
-0.135
-0.105
-0.155
-0.265
-0.42
-0.445
-0.475
-0.395
-0.29
-0.16
-0.15
-0.13
-0.19
-0.265
-0.42
-0.47
-0.465
-0.39
-0.275
-0.185
-0.13
-0.125
-0.2
-0.325
-0.41
-0.45
-0.46
-0.415
-0.315
-0.185
-0.105
-0.14
-0.24
-0.35
-0.34
-0.45
-0.455
-0.38
-0.305
-0.245
-0.115
-0.2
-0.22
-0.3
-0.44
-0.435
-0.445
-0.405
-0.27
-0.145
-0.115
-0.11
-0.165
-0.33
-0.42
-0.495
-0.46
-0.34
-0.22
-0.155
-0.135
-0.155
-0.215
-0.315
-0.43
-0.465
-0.415
-0.345
-0.22
-0.13
-0.145
-0.175
-0.225
-0.355
-0.445
-0.435
-0.39
-0.355
-0.24
-0.17
-0.095
-0.18
-0.295
-0.375
-0.43
-0.47
-0.45
-0.375
-0.25
-0.125
-0.085
-0.19
-0.265
-0.39
-0.445
-0.455
-0.43
-0.395
-0.21
-0.21
-0.145
-0.17
-0.24
-0.38
-0.445
-0.465
-0.415
-0.4
-0.16
-0.13
-0.175
-0.16
-0.245
-0.38
-0.455
-0.44
-0.41
-0.285
-0.175
-0.145
-0.145
-0.155
-0.235
-0.4
-0.465
-0.49
-0.45
-0.335
-0.16
-0.15
-0.165
-0.225
-0.26
-0.375
-0.5
-0.5
-0.375
-0.305
-0.195
-0.095
-0.15
-0.19
-0.29
-0.425
-0.445
-0.5
-0.43
-0.27
-0.15
-0.125
-0.135
-0.185
-0.285
-0.455
-0.455
-0.46
-0.395
-0.28
-0.14
-0.1
-0.105
-0.155
-0.27
-0.415
-0.485
-0.47
-0.395
-0.28
-0.15
-0.12
-0.115
-0.185
-0.305
-0.415
-0.425
-0.46
-0.41
-0.27
-0.09
-0.09
-0.15
-0.205
-0.28
-0.43
-0.42
-0.44
-0.365
-0.255
-0.18
-0.08
-0.105
-0.175
-0.325
-0.42
-0.43
-0.46
-0.385
-0.26
-0.155
-0.15
-0.14
-0.185
-0.325
-0.42
-0.43
-0.425
-0.39
-0.26
-0.165
-0.125
-0.105
-0.245
-0.36
-0.445
-0.505
-0.445
-0.37
-0.215
-0.175
-0.115
-0.215
-0.245
-0.31
-0.45
-0.49
-0.445
-0.355
-0.23
-0.135
-0.06
-0.13
-0.195
-0.285
-0.3
-0.275
-0.125
-0.01
0.175
0.305
0.415
0.4
0.235
0.03
-0.15
-0.23
-0.27
-0.25
-0.265
-0.285
-0.345
-0.445
-0.475
-0.65
-0.745
-0.7
-0.67
-0.57
-0.39
-0.225
-0.21
-0.27
-0.325
-0.495
-0.525
-0.47
-0.41
-0.33
-0.21
-0.15
-0.13
-0.14
-0.275
-0.375
-0.435
-0.445
-0.41
-0.305
-0.17
-0.105
-0.095
-0.155
-0.185
-0.375
-0.425
-0.475
-0.335
-0.295
-0.135
-0.095
-0.085
-0.125
-0.25
-0.41
-0.46
-0.435
-0.365
-0.25
-0.08
-0.05
-0.1
-0.16
-0.27
-0.355
-0.455
-0.395
-0.335
-0.26
-0.105
-0.06
-0.025
-0.12
-0.22
-0.32
-0.41
-0.375
-0.29
-0.215
-0.07
-0.005
-0.035
-0.11
-0.2
-0.295
-0.345
-0.33
-0.265
-0.115
0.015
0.045
0.03
-0.04
-0.17
-0.3
-0.3
-0.295
-0.185
-0.08
0.045
0.08
0.045
0.01
-0.125
-0.25
-0.245
-0.155
-0.11
-0.015
0.055
0.115
0.115
0.02
-0.1
-0.23
-0.23
-0.215
-0.145
0.06
0.05
0.085
0.085
-0.04
-0.09
-0.24
-0.3
-0.215
-0.19
-0.005
-0.005
-0.025
-0.05
-0.15
-0.31
-0.38
-0.4
-0.355
-0.34
-0.165
-0.05
-0.1
-0.18
-0.23
-0.38
-0.44
-0.415
-0.46
-0.365
-0.2
-0.155
-0.135
-0.14
-0.24
-0.4
-0.445
-0.495
-0.46
-0.345
-0.235
-0.155
-0.145
-0.155
-0.285
-0.445
-0.47
-0.48
-0.42
-0.315
-0.195
-0.15
-0.15
-0.215
-0.305
-0.435
-0.49
-0.48
-0.43
-0.31
-0.175
-0.15
-0.15
-0.195
-0.28
-0.395
-0.48
-0.48
-0.405
-0.315
-0.215
-0.155
-0.12
-0.195
-0.255
-0.4
-0.465
-0.47
-0.425
-0.39
-0.145
-0.135
-0.08
-0.185
-0.305
-0.475
-0.465
-0.44
-0.375
-0.3
-0.2
-0.155
-0.125
-0.175
-0.32
-0.43
-0.45
-0.495
-0.4
-0.28
-0.205
-0.125
-0.145
-0.2
-0.25
-0.415
-0.475
-0.435
-0.4
-0.265
-0.145
-0.135
-0.145
-0.215
-0.355
-0.42
-0.455
-0.455
-0.36
-0.29
-0.205
-0.125
-0.15
-0.225
-0.335
-0.44
-0.48
-0.455
-0.39
-0.235
-0.12
-0.06
-0.16
-0.23
-0.36
-0.495
-0.455
-0.455
-0.335
-0.225
-0.165
-0.135
-0.19
-0.215
-0.37
-0.43
-0.475
-0.465
-0.44
-0.23
-0.14
-0.15
-0.16
-0.255
-0.42
-0.43
-0.435
-0.415
-0.37
-0.17
-0.155
-0.195
-0.16
-0.295
-0.395
-0.48
-0.495
-0.425
-0.325
-0.26
-0.175
-0.14
-0.155
-0.245
-0.395
-0.46
-0.47
-0.42
-0.33
-0.175
-0.17
-0.125
-0.135
-0.215
-0.445
-0.48
-0.465
-0.385
-0.4
-0.22
-0.12
-0.17
-0.155
-0.255
-0.395
-0.45
-0.49
-0.43
-0.305
-0.13
-0.115
-0.09
-0.215
-0.315
-0.41
-0.455
-0.46
-0.415
-0.31
-0.175
-0.155
-0.155
-0.25
-0.28
-0.43
-0.475
-0.47
-0.435
-0.345
-0.195
-0.125
-0.14
-0.17
-0.3
-0.47
-0.44
-0.39
-0.4
-0.355
-0.15
-0.105
-0.13
-0.2
-0.3
-0.425
-0.415
-0.41
-0.33
-0.24
-0.155
-0.1
-0.095
-0.225
-0.32
-0.41
-0.44
-0.45
-0.365
-0.2
-0.08
-0.055
-0.125
-0.19
-0.33
-0.43
-0.44
-0.45
-0.415
-0.255
-0.145
-0.16
-0.135
-0.23
-0.315
-0.46
-0.455
-0.44
-0.41
-0.29
-0.16
-0.13
-0.13
-0.21
-0.345
-0.42
-0.435
-0.41
-0.355
-0.275
-0.2
-0.095
-0.13
-0.175
-0.345
-0.465
-0.475
-0.49
-0.38
-0.195
-0.12
-0.14
-0.155
-0.255
-0.39
-0.43
-0.45
-0.42
-0.27
-0.095
0.065
0.16
0.195
0.185
0.06
0.06
0.07
0.075
0.065
0.12
0.065
0.095
-0.03
-0.23
-0.455
-0.61
-0.705
-0.755
-0.625
-0.4
-0.375
-0.36
-0.385
-0.46
-0.56
-0.6
-0.55
-0.485
-0.41
-0.24
-0.19
-0.185
-0.17
-0.21
-0.385
-0.47
-0.455
-0.4
-0.315
-0.18
-0.145
-0.11
-0.185
-0.24
-0.34
-0.39
-0.41
-0.36
-0.305
-0.17
-0.13
-0.135
-0.165
-0.225
-0.32
-0.355
-0.43
-0.35
-0.305
-0.09
-0.045
-0.055
-0.13
-0.195
-0.355
-0.46
-0.45
-0.285
-0.21
-0.06
-0.085
-0.1
-0.15
-0.215
-0.35
-0.34
-0.38
-0.32
-0.245
-0.1
-0.04
-0.03
-0.085
-0.2
-0.34
-0.405
-0.37
-0.26
-0.125
-0.005
-0.005
0.01
-0.06
-0.185
-0.29
-0.315
-0.285
-0.21
-0.11
-0.025
0.015
0.02
-0.035
-0.145
-0.225
-0.245
-0.185
-0.135
-0.075
0.05
0.075
0.115
0.045
-0.1
-0.27
-0.245
-0.165
-0.095
0.035
0.11
0.115
0.12
0.065
-0.13
-0.22
-0.195
-0.16
-0.16
-0.035
0.045
0.045
-0.01
-0.065
-0.18
-0.325
-0.335
-0.335
-0.245
-0.11
-0.085
-0.04
-0.07
-0.135
-0.32
-0.4
-0.435
-0.41
-0.3
-0.2
-0.135
-0.13
-0.175
-0.205
-0.38
-0.415
-0.45
-0.4
-0.355
-0.215
-0.135
-0.095
-0.13
-0.225
-0.405
-0.455
-0.42
-0.415
-0.375
-0.235
-0.17
-0.09
-0.13
-0.205
-0.48
-0.505
-0.44
-0.45
-0.34
-0.165
-0.18
-0.145
-0.15
-0.23
-0.415
-0.475
-0.475
-0.39
-0.335
-0.17
-0.135
-0.095
-0.245
-0.285
-0.365
-0.445
-0.5
-0.41
-0.335
-0.14
-0.135
-0.11
-0.15
-0.215
-0.365
-0.41
-0.45
-0.375
-0.32
-0.15
-0.07
-0.115
-0.175
-0.275
-0.4
-0.43
-0.44
-0.355
-0.255
-0.14
-0.16
-0.16
-0.195
-0.265
-0.41
-0.465
-0.435
-0.385
-0.285
-0.155
-0.075
-0.145
-0.22
-0.345
-0.45
-0.455
-0.39
-0.31
-0.3
-0.155
0.01
-0.05
-0.25
-0.395
-0.41
-0.435
-0.455
-0.405
-0.26
-0.14
-0.125
-0.125
-0.135
-0.265
-0.445
-0.465
-0.445
-0.37
-0.245
-0.15
-0.13
-0.13
-0.185
-0.31
-0.46
-0.485
-0.43
-0.375
-0.23
-0.135
-0.09
-0.15
-0.2
-0.305
-0.395
-0.485
-0.415
-0.335
-0.27
-0.12
-0.075
-0.105
-0.2
-0.325
-0.43
-0.45
-0.415
-0.345
-0.175
-0.135
-0.145
-0.17
-0.23
-0.305
-0.44
-0.46
-0.415
-0.305
-0.18
-0.2
-0.105
-0.15
-0.25
-0.355
-0.415
-0.455
-0.425
-0.355
-0.17
-0.165
-0.09
-0.125
-0.265
-0.345
-0.435
-0.48
-0.43
-0.285
-0.16
-0.08
-0.09
-0.16
-0.2
-0.37
-0.41
-0.445
-0.42
-0.295
-0.145
-0.15
-0.135
-0.14
-0.255
-0.36
-0.46
-0.43
-0.4
-0.295
-0.14
-0.125
-0.12
-0.135
-0.27
-0.355
-0.425
-0.45
-0.39
-0.32
-0.105
-0.065
-0.13
-0.155
-0.225
-0.39
-0.35
-0.44
-0.375
-0.265
-0.16
-0.11
-0.11
-0.13
-0.28
-0.38
-0.48
-0.45
-0.385
-0.255
-0.155
-0.12
-0.12
-0.205
-0.245
-0.34
-0.35
-0.43
-0.34
-0.275
-0.135
-0.075
-0.075
-0.185
-0.29
-0.41
-0.49
-0.43
-0.32
-0.175
-0.105
-0.075
-0.01
-0.145
-0.305
-0.385
-0.42
-0.385
-0.295
-0.185
-0.125
-0.045
-0.06
-0.12
-0.265
-0.375
-0.395
-0.33
-0.295
-0.18
-0.11
-0.055
-0.085
-0.145
-0.285
-0.42
-0.425
-0.4
-0.35
-0.15
-0.155
-0.09
-0.09
-0.18
-0.315
-0.395
-0.405
-0.385
-0.35
-0.185
-0.085
-0.085
-0.06
-0.155
-0.325
-0.43
-0.395
-0.36
-0.29
-0.195
-0.1
-0.075
-0.095
-0.175
-0.325
-0.395
-0.435
-0.39
-0.25
-0.12
-0.05
-0.1
-0.115
-0.2
-0.31
-0.31
-0.27
-0.17
0.035
0.21
0.305
0.375
0.38
0.395
0.165
-0.045
-0.1
-0.12
-0.11
-0.105
-0.08
-0.14
-0.3
-0.44
-0.605
-0.63
-0.635
-0.6
-0.445
-0.32
-0.225
-0.195
-0.2
-0.275
-0.44
-0.46
-0.43
-0.36
-0.3
-0.135
-0.085
-0.065
-0.13
-0.155
-0.31
-0.355
-0.34
-0.305
-0.22
-0.095
0.0
-0.045
-0.03
-0.165
-0.325
-0.365
-0.365
-0.31
-0.22
-0.04
0.01
0.04
-0.05
-0.185
-0.275
-0.39
-0.36
-0.245
-0.185
-0.03
-0.035
-0.05
-0.045
-0.14
-0.24
-0.305
-0.355
-0.26
-0.135
-0.005
0.01
0.055
-0.02
-0.19
-0.24
-0.295
-0.265
-0.2
-0.07
0.025
0.03
0.04
-0.025
-0.125
-0.23
-0.275
-0.265
-0.14
0.01
0.085
0.065
0.08
-0.015
-0.035
-0.125
-0.2
-0.2
-0.125
0.015
0.115
0.16
0.14
0.075
-0.03
-0.085
-0.12
-0.095
-0.055
0.105
0.165
0.27
0.23
0.11
-0.045
-0.13
-0.13
-0.03
-0.02
0.09
0.18
0.23
0.165
0.09
-0.005
-0.105
-0.12
-0.13
-0.05
0.11
0.135
0.115
0.065
0.005
-0.15
-0.23
-0.26
-0.235
-0.135
-0.04
0.03
0.08
0.03
-0.08
-0.225
-0.27
-0.325
-0.28
-0.205
-0.025
-0.015
-0.04
-0.07
-0.125
-0.26
-0.35
-0.35
-0.28
-0.18
-0.085
-0.08
-0.06
-0.08
-0.16
-0.285
-0.31
-0.35
-0.34
-0.245
-0.09
-0.035
-0.05
-0.065
-0.11
-0.295
-0.335
-0.365
-0.285
-0.215
-0.07
-0.005
0.015
-0.055
-0.15
-0.305
-0.3
-0.305
-0.255
-0.21
-0.04
0.01
0.0
-0.08
-0.115
-0.26
-0.28
-0.27
-0.26
-0.185
-0.1
-0.02
0.0
-0.045
-0.18
-0.27
-0.305
-0.295
-0.285
-0.11
0.045
-0.015
0.035
-0.02
-0.145
-0.24
-0.275
-0.27
-0.26
-0.105
0.02
0.005
-0.005
-0.07
-0.115
-0.265
-0.36
-0.37
-0.24
-0.12
0.035
0.07
0.015
-0.08
-0.125
-0.295
-0.355
-0.26
-0.18
-0.06
0.01
0.015
-0.005
-0.03
-0.185
-0.3
-0.31
-0.265
-0.185
-0.075
-0.035
0.025
0.055
-0.005
-0.25
-0.315
-0.315
-0.225
-0.14
-0.085
0.005
0.05
0.015
-0.045
-0.225
-0.27
-0.285
-0.245
-0.215
-0.11
-0.03
0.055
0.025
-0.065
-0.195
-0.29
-0.305
-0.265
-0.2
-0.08
0.03
0.06
0.06
-0.09
-0.2
-0.305
-0.315
-0.23
-0.18
0.0
0.025
0.05
-0.025
-0.095
-0.24
-0.285
-0.3
-0.265
-0.2
-0.01
0.045
0.035
-0.005
-0.11
-0.295
-0.28
-0.275
-0.205
-0.135
0.015
0.03
0.055
-0.055
-0.09
-0.17
-0.295
-0.32
-0.225
-0.165
-0.02
0.075
0.055
0.01
-0.11
-0.195
-0.235
-0.3
-0.23
-0.13
0.0
0.03
0.1
0.025
-0.115
-0.28
-0.265
-0.29
-0.245
-0.145
0.005
0.02
0.045
-0.01
-0.09
-0.225
-0.3
-0.25
-0.23
-0.115
-0.02
0.06
0.05
-0.03
-0.13
-0.24
-0.305
-0.27
-0.17
-0.07
0.055
0.065
0.065
0.015
-0.125
-0.27
-0.255
-0.31
-0.17
-0.135
0.08
0.09
0.075
-0.04
-0.135
-0.22
-0.28
-0.245
-0.13
0.04
0.025
0.12
0.105
0.02
-0.125
-0.235
-0.235
-0.255
-0.205
-0.05
0.055
0.085
0.055
-0.02
-0.15
-0.235
-0.25
-0.245
-0.155
-0.015
0.04
0.06
-0.005
0.01
-0.165
-0.26
-0.305
-0.265
-0.16
-0.045
0.03
0.025
0.03
-0.05
-0.215
-0.335
-0.23
-0.155
-0.14
0.015
0.065
0.08
0.045
-0.055
-0.14
-0.255
-0.32
-0.265
-0.15
0.07
0.18
0.275
0.305
0.275
0.17
0.195
0.275
0.28
0.385
0.485
0.43
0.355
0.21
0.12
-0.15
-0.285
-0.425
-0.47
-0.365
-0.22
-0.19
-0.145
-0.195
-0.27
-0.375
-0.425
-0.41
-0.32
-0.2
-0.035
0.04
0.025
0.015
-0.04
-0.235
-0.265
-0.26
-0.16
-0.055
-0.02
0.08
0.12
0.02
-0.05
-0.2
-0.235
-0.23
-0.14
-0.02
0.085
0.07
0.135
0.065
-0.1
-0.225
-0.19
-0.2
-0.11
0.01
0.08
0.115
0.12
0.035
-0.055
-0.155
-0.195
-0.18
-0.135
-0.03
0.105
0.13
0.12
0.095
-0.04
-0.15
-0.155
-0.17
-0.095
0.035
0.145
0.175
0.17
0.075
-0.025
-0.165
-0.18
-0.12
-0.07
0.03
0.1
0.21
0.17
0.135
0.02
-0.1
-0.135
-0.12
-0.07
0.15
0.26
0.24
0.22
0.17
0.045
-0.03
-0.065
-0.03
0.04
0.18
0.285
0.29
0.285
0.2
0.085
0.025
0.025
0.06
0.1
0.21
0.265
0.35
0.335
0.215
0.09
-0.005
-0.005
0.015
0.1
0.24
0.3
0.29
0.265
0.175
-0.005
-0.145
-0.105
-0.1
-0.02
0.105
0.205
0.135
0.13
0.065
-0.14
-0.21
-0.255
-0.23
-0.135
0.045
0.075
0.02
0.07
-0.025
-0.23
-0.22
-0.24
-0.185
-0.085
0.035
0.075
0.05
-0.01
-0.1
-0.22
-0.25
-0.26
-0.245
-0.19
-0.015
0.105
0.06
0.035
-0.065
-0.22
-0.295
-0.28
-0.245
-0.2
-0.01
0.065
0.05
-0.04
-0.09
-0.21
-0.27
-0.265
-0.255
-0.135
0.04
0.045
0.07
0.015
-0.085
-0.24
-0.29
-0.255
-0.215
-0.095
0.025
0.055
0.02
0.055
-0.08
-0.28
-0.27
-0.265
-0.185
-0.145
0.005
0.055
0.11
0.03
-0.145
-0.205
-0.24
-0.245
-0.155
-0.045
0.04
0.025
0.02
0.02
-0.165
-0.265
-0.225
-0.29
-0.175
-0.035
0.04
0.05
0.01
-0.04
-0.11
-0.16
-0.26
-0.28
-0.24
-0.025
0.08
0.065
0.04
-0.02
-0.155
-0.26
-0.245
-0.28
-0.205
-0.09
0.07
0.08
0.01
-0.05
-0.215
-0.26
-0.26
-0.23
-0.185
-0.09
0.04
0.11
0.095
-0.035
-0.245
-0.28
-0.25
-0.28
-0.195
-0.045
0.025
0.1
0.03
-0.055
-0.14
-0.26
-0.305
-0.22
-0.165
-0.005
0.0
0.05
0.04
-0.105
-0.21
-0.23
-0.26
-0.315
-0.15
0.005
0.035
0.045
0.025
-0.09
-0.215
-0.23
-0.26
-0.235
-0.165
-0.01
0.05
0.05
-0.03
-0.07
-0.195
-0.295
-0.31
-0.255
-0.16
0.0
0.035
0.095
0.015
-0.075
-0.23
-0.255
-0.26
-0.235
-0.195
-0.045
-0.035
0.0
0.045
-0.08
-0.3
-0.27
-0.255
-0.23
-0.11
-0.005
-0.01
-0.02
-0.01
-0.105
-0.23
-0.28
-0.235
-0.21
-0.16
0.03
0.065
0.01
-0.035
-0.09
-0.18
-0.225
-0.26
-0.21
-0.18
-0.01
0.05
0.035
-0.02
-0.14
-0.26
-0.3
-0.275
-0.205
-0.115
-0.005
0.065
0.06
-0.005
-0.13
-0.24
-0.28
-0.28
-0.195
-0.06
0.06
0.1
0.065
0.0
-0.08
-0.22
-0.26
-0.24
-0.215
-0.075
0.0
0.105
-0.005
-0.095
-0.19
-0.26
-0.31
-0.29
-0.25
-0.11
0.035
0.09
0.015
-0.04
-0.18
-0.32
-0.355
-0.26
-0.205
-0.07
0.03
-0.025
0.05
-0.015
-0.185
-0.245
-0.27
-0.31
-0.23
-0.06
0.05
0.02
0.01
-0.045
-0.185
-0.275
-0.29
-0.285
-0.165
0.01
0.025
0.095
0.155
0.08
0.035
0.025
0.065
0.12
0.285
0.515
0.57
0.53
0.41
0.21
-0.025
-0.14
-0.25
-0.26
-0.275
-0.24
-0.295
-0.225
-0.285
-0.37
-0.46
-0.47
-0.44
-0.405
-0.335
-0.15
-0.065
-0.05
-0.065
-0.16
-0.28
-0.275
-0.305
-0.26
-0.15
-0.01
0.055
0.025
0.015
-0.07
-0.215
-0.26
-0.255
-0.23
-0.185
-0.005
0.035
0.09
-0.02
-0.115
-0.26
-0.27
-0.28
-0.24
-0.11
0.025
0.07
0.04
0.015
-0.14
-0.215
-0.26
-0.295
-0.19
-0.11
0.005
0.06
0.095
0.015
-0.095
-0.215
-0.255
-0.29
-0.2
-0.035
0.1
0.08
-0.01
-0.035
-0.07
-0.155
-0.21
-0.25
-0.195
-0.05
0.06
0.12
0.075
0.015
-0.03
-0.16
-0.21
-0.235
-0.165
0.025
0.13
0.13
0.15
0.105
-0.02
-0.135
-0.14
-0.16
-0.09
0.09
0.14
0.195
0.215
0.13
0.035
-0.07
-0.125
-0.115
-0.06
0.145
0.225
0.24
0.205
0.13
0.01
-0.05
-0.095
-0.115
0.01
0.16
0.195
0.155
0.16
0.055
-0.11
-0.16
-0.14
-0.145
-0.13
0.07
0.12
0.145
0.09
-0.025
-0.215
-0.28
-0.315
-0.275
-0.195
-0.055
-0.02
0.015
-0.03
-0.12
-0.305
-0.325
-0.38
-0.35
-0.245
-0.095
-0.01
0.0
-0.065
-0.19
-0.305
-0.35
-0.39
-0.345
-0.255
-0.095
-0.09
-0.055
-0.095
-0.11
-0.28
-0.385
-0.375
-0.3
-0.23
-0.075
-0.11
-0.055
-0.065
-0.165
-0.33
-0.37
-0.36
-0.285
-0.255
-0.14
-0.08
0.0
-0.04
-0.18
-0.3
-0.405
-0.38
-0.315
-0.275
-0.12
0.015
0.005
-0.13
-0.245
-0.34
-0.35
-0.345
-0.285
-0.22
-0.055
-0.065
0.0
-0.075
-0.19
-0.335
-0.375
-0.385
-0.305
-0.185
-0.035
-0.05
-0.015
-0.095
-0.21
-0.34
-0.34
-0.3
-0.31
-0.19
-0.07
-0.07
-0.04
-0.105
-0.205
-0.33
-0.36
-0.37
-0.325
-0.19
-0.075
-0.025
-0.04
-0.135
-0.235
-0.37
-0.37
-0.325
-0.315
-0.14
-0.06
-0.045
-0.025
-0.07
-0.23
-0.33
-0.4
-0.41
-0.34
-0.18
-0.09
-0.035
-0.05
-0.17
-0.3
-0.39
-0.41
-0.38
-0.31
-0.125
-0.05
-0.05
-0.075
-0.17
-0.235
-0.345
-0.415
-0.365
-0.295
-0.17
-0.09
-0.025
-0.1
-0.165
-0.295
-0.4
-0.37
-0.315
-0.265
-0.15
-0.045
-0.045
-0.075
-0.17
-0.275
-0.36
-0.375
-0.355
-0.24
-0.075
-0.09
-0.2
-0.125
-0.17
-0.285
-0.365
-0.425
-0.36
-0.3
-0.16
-0.075
-0.045
-0.095
-0.185
-0.295
-0.36
-0.38
-0.365
-0.295
-0.15
-0.08
-0.045
-0.06
-0.19
-0.34
-0.405
-0.395
-0.33
-0.28
-0.13
-0.05
-0.07
-0.145
-0.175
-0.32
-0.355
-0.355
-0.38
-0.275
-0.15
-0.04
-0.065
-0.17
-0.195
-0.26
-0.35
-0.37
-0.36
-0.29
-0.13
-0.065
-0.035
-0.13
-0.19
-0.34
-0.41
-0.46
-0.33
-0.255
-0.105
-0.075
-0.06
-0.115
-0.235
-0.39
-0.395
-0.38
-0.365
-0.24
-0.11
-0.09
-0.08
-0.12
-0.255
-0.375
-0.39
-0.395
-0.36
-0.23
-0.07
-0.045
-0.03
-0.105
-0.225
-0.36
-0.345
-0.42
-0.335
-0.19
-0.03
-0.09
-0.03
-0.085
-0.255
-0.375
-0.365
-0.325
-0.28
-0.23
-0.11
-0.095
-0.08
-0.14
-0.28
-0.385
-0.375
-0.37
-0.325
-0.21
-0.085
-0.14
-0.15
-0.14
-0.26
-0.365
-0.425
-0.415
-0.31
-0.195
-0.075
-0.09
-0.065
-0.15
-0.29
-0.405
-0.41
-0.39
-0.315
-0.2
-0.13
-0.06
0.025
-0.11
-0.28
-0.4
-0.43
-0.415
-0.33
-0.16
-0.08
-0.075
-0.005
-0.075
-0.225
-0.225
-0.085
0.0
0.11
0.335
0.45
0.47
0.395
0.21
0.0
-0.13
-0.215
-0.28
-0.32
-0.23
-0.355
-0.335
-0.32
-0.43
-0.535
-0.64
-0.58
-0.59
-0.5
-0.28
-0.195
-0.175
-0.225
-0.285
-0.36
-0.425
-0.42
-0.4
-0.275
-0.095
-0.07
-0.05
-0.125
-0.24
-0.36
-0.405
-0.43
-0.295
-0.275
-0.08
-0.09
-0.075
-0.09
-0.155
-0.32
-0.36
-0.36
-0.335
-0.235
-0.075
-0.015
-0.035
-0.1
-0.175
-0.35
-0.33
-0.37
-0.265
-0.195
-0.1
-0.02
-0.01
-0.02
-0.145
-0.315
-0.35
-0.395
-0.3
-0.205
-0.055
0.01
0.04
-0.065
-0.23
-0.27
-0.29
-0.32
-0.285
-0.12
-0.01
0.015
0.005
-0.035
-0.155
-0.32
-0.385
-0.31
-0.195
-0.07
0.035
0.08
0.055
-0.01
-0.085
-0.225
-0.23
-0.215
-0.105
-0.02
0.115
0.125
0.11
0.045
-0.06
-0.215
-0.18
-0.17
-0.095
0.065
0.175
0.22
0.14
0.09
-0.055
-0.135
-0.205
-0.185
-0.03
0.11
0.14
0.22
0.135
0.055
-0.11
-0.255
-0.17
-0.22
-0.13
-0.005
0.065
0.065
0.01
-0.08
-0.25
-0.305
-0.32
-0.33
-0.25
-0.125
-0.1
-0.07
-0.055
-0.145
-0.285
-0.435
-0.425
-0.37
-0.285
-0.165
-0.08
-0.065
-0.105
-0.205
-0.34
-0.385
-0.435
-0.4
-0.315
-0.165
-0.075
-0.06
-0.125
-0.175
-0.33
-0.465
-0.5
-0.43
-0.275
-0.18
-0.095
-0.065
-0.11
-0.205
-0.45
-0.39
-0.395
-0.41
-0.265
-0.14
-0.065
-0.065
-0.15
-0.25
-0.36
-0.425
-0.455
-0.365
-0.28
-0.12
-0.095
-0.125
-0.185
-0.265
-0.385
-0.43
-0.415
-0.375
-0.275
-0.11
-0.07
-0.065
-0.07
-0.235
-0.385
-0.42
-0.425
-0.365
-0.28
-0.16
-0.06
-0.06
-0.19
-0.265
-0.28
-0.395
-0.465
-0.305
-0.22
-0.12
-0.085
-0.1
-0.155
-0.295
-0.36
-0.425
-0.35
-0.34
-0.23
-0.155
-0.135
-0.085
-0.14
-0.26
-0.38
-0.43
-0.395
-0.37
-0.225
-0.13
-0.08
-0.065
-0.18
-0.255
-0.385
-0.44
-0.395
-0.33
-0.21
-0.135
-0.1
-0.11
-0.255
-0.31
-0.39
-0.405
-0.395
-0.29
-0.225
-0.15
-0.075
-0.085
-0.17
-0.315
-0.42
-0.44
-0.39
-0.27
-0.165
-0.105
-0.135
-0.14
-0.18
-0.31
-0.41
-0.42
-0.41
-0.32
-0.15
-0.105
-0.11
-0.2
-0.19
-0.295
-0.41
-0.445
-0.345
-0.365
-0.165
-0.095
-0.105
-0.16
-0.23
-0.355
-0.39
-0.44
-0.385
-0.32
-0.185
-0.105
-0.105
-0.11
-0.195
-0.365
-0.405
-0.42
-0.35
-0.295
-0.125
-0.1
-0.14
-0.165
-0.21
-0.385
-0.395
-0.405
-0.37
-0.255
-0.14
-0.03
-0.08
-0.175
-0.235
-0.36
-0.43
-0.485
-0.38
-0.255
-0.13
-0.15
-0.135
-0.205
-0.225
-0.35
-0.43
-0.47
-0.33
-0.27
-0.17
-0.15
-0.12
-0.17
-0.235
-0.35
-0.43
-0.43
-0.36
-0.26
-0.11
-0.08
-0.08
-0.145
-0.245
-0.415
-0.4
-0.43
-0.385
-0.315
-0.13
-0.035
-0.09
-0.155
-0.23
-0.42
-0.475
-0.44
-0.34
-0.23
-0.125
-0.075
-0.11
-0.135
-0.3
-0.41
-0.4
-0.455
-0.385
-0.245
-0.08
-0.045
-0.13
-0.145
-0.21
-0.38
-0.425
-0.375
-0.33
-0.205
-0.09
-0.045
-0.055
-0.11
-0.235
-0.385
-0.415
-0.4
-0.315
-0.19
-0.115
-0.1
-0.125
-0.205
-0.325
-0.405
-0.42
-0.455
-0.32
-0.17
-0.11
-0.09
-0.135
-0.18
-0.325
-0.415
-0.485
-0.45
-0.31
-0.14
-0.1
-0.13
-0.095
-0.15
-0.38
-0.42
-0.385
-0.4
-0.325
-0.215
-0.105
-0.075
-0.135
-0.185
-0.335
-0.405
-0.44
-0.39
-0.28
-0.105
0.0
0.005
0.13
0.08
-0.02
0.005
0.055
0.155
0.255
0.37
0.32
0.265
0.125
-0.06
-0.32
-0.435
-0.515
-0.565
-0.55
-0.41
-0.345
-0.35
-0.335
-0.46
-0.525
-0.595
-0.52
-0.515
-0.415
-0.205
-0.18
-0.11
-0.165
-0.235
-0.345
-0.435
-0.47
-0.35
-0.27
-0.165
-0.115
-0.115
-0.125
-0.215
-0.325
-0.36
-0.35
-0.305
-0.26
-0.095
-0.075
-0.075
-0.14
-0.22
-0.35
-0.38
-0.355
-0.32
-0.23
-0.07
-0.065
-0.07
-0.095
-0.205
-0.335
-0.345
-0.37
-0.255
-0.15
-0.07
-0.05
-0.04
-0.07
-0.2
-0.325
-0.35
-0.33
-0.29
-0.185
-0.06
-0.015
-0.03
-0.085
-0.2
-0.325
-0.305
-0.34
-0.255
-0.11
-0.035
0.03
0.02
-0.025
-0.175
-0.26
-0.285
-0.34
-0.21
-0.04
0.06
0.035
0.03
0.02
-0.115
-0.21
-0.21
-0.245
-0.22
-0.07
0.125
0.16
0.1
0.02
-0.11
-0.18
-0.15
-0.13
-0.11
0.03
0.115
0.16
0.175
0.04
-0.095
-0.18
-0.165
-0.175
-0.085
0.09
0.15
0.145
0.085
-0.005
-0.17
-0.215
-0.225
-0.22
-0.195
-0.095
-0.015
-0.03
-0.03
-0.105
-0.29
-0.375
-0.4
-0.355
-0.26
-0.12
-0.06
-0.05
-0.095
-0.29
-0.35
-0.35
-0.435
-0.385
-0.33
-0.18
-0.085
-0.065
-0.16
-0.205
-0.345
-0.435
-0.49
-0.43
-0.25
-0.14
-0.115
-0.1
-0.155
-0.215
-0.395
-0.425
-0.495
-0.375
-0.3
-0.125
-0.1
-0.065
-0.145
-0.245
-0.395
-0.44
-0.42
-0.345
-0.255
-0.155
-0.13
-0.095
-0.155
-0.2
-0.36
-0.435
-0.48
-0.335
-0.24
-0.105
-0.08
-0.12
-0.145
-0.295
-0.415
-0.37
-0.375
-0.33
-0.24
-0.145
-0.155
-0.135
-0.065
-0.235
-0.37
-0.35
-0.37
-0.36
-0.3
-0.095
-0.06
-0.105
-0.14
-0.26
-0.375
-0.41
-0.385
-0.33
-0.23
-0.11
-0.1
-0.135
-0.21
-0.27
-0.385
-0.415
-0.355
-0.34
-0.205
-0.095
-0.08
-0.11
-0.195
-0.27
-0.375
-0.4
-0.4
-0.355
-0.205
-0.14
-0.095
-0.13
-0.175
-0.265
-0.425
-0.44
-0.4
-0.285
-0.205
-0.12
-0.095
-0.11
-0.165
-0.285
-0.465
-0.395
-0.365
-0.285
-0.205
-0.1
-0.06
-0.105
-0.19
-0.3
-0.41
-0.395
-0.375
-0.335
-0.185
-0.13
-0.095
-0.12
-0.2
-0.345
-0.405
-0.44
-0.405
-0.31
-0.175
-0.095
-0.07
-0.12
-0.225
-0.36
-0.41
-0.38
-0.36
-0.34
-0.15
-0.1
-0.07
-0.135
-0.155
-0.39
-0.48
-0.405
-0.38
-0.265
-0.1
-0.06
-0.075
-0.15
-0.245
-0.37
-0.43
-0.405
-0.375
-0.27
-0.165
-0.105
-0.09
-0.115
-0.225
-0.315
-0.375
-0.43
-0.36
-0.26
-0.105
-0.135
-0.085
-0.14
-0.225
-0.35
-0.375
-0.43
-0.335
-0.28
-0.12
-0.115
-0.07
-0.11
-0.255
-0.375
-0.405
-0.4
-0.33
-0.245
-0.14
-0.105
-0.065
-0.15
-0.24
-0.435
-0.465
-0.4
-0.385
-0.21
-0.09
-0.135
-0.075
-0.13
-0.26
-0.37
-0.44
-0.365
-0.315
-0.23
-0.105
-0.085
-0.09
-0.165
-0.23
-0.37
-0.405
-0.385
-0.33
-0.195
-0.045
-0.025
-0.05
-0.115
-0.23
-0.345
-0.39
-0.405
-0.335
-0.17
-0.03
-0.035
-0.12
-0.195
-0.31
-0.395
-0.355
-0.32
-0.29
-0.19
-0.135
-0.12
-0.06
-0.15
-0.365
-0.44
-0.41
-0.35
-0.305
-0.185
-0.12
-0.055
-0.06
-0.15
-0.29
-0.385
-0.45
-0.41
-0.34
-0.165
-0.11
-0.03
-0.06
-0.14
-0.33
-0.415
-0.45
-0.375
-0.31
-0.175
-0.085
-0.065
-0.085
-0.19
-0.32
-0.39
-0.36
-0.34
-0.25
-0.02
0.065
0.145
0.16
0.115
0.08
0.08
0.1
0.19
0.24
0.285
0.19
0.13
0.0
-0.13
-0.39
-0.53
-0.59
-0.595
-0.5
-0.355
-0.33
-0.325
-0.365
-0.41
-0.545
-0.545
-0.51
-0.445
-0.33
-0.18
-0.1
-0.065
-0.13
-0.21
-0.33
-0.395
-0.465
-0.345
-0.275
-0.09
-0.015
-0.005
-0.11
-0.19
-0.34
-0.365
-0.385
-0.31
-0.195
-0.075
-0.015
-0.05
-0.085
-0.205
-0.35
-0.33
-0.385
-0.31
-0.22
-0.09
-0.005
-0.045
-0.075
-0.225
-0.355
-0.385
-0.34
-0.285
-0.17
-0.035
-0.02
-0.035
-0.05
-0.16
-0.3
-0.365
-0.35
-0.295
-0.11
0.015
0.04
0.05
-0.075
-0.175
-0.26
-0.3
-0.275
-0.245
-0.1
0.01
0.04
0.015
-0.02
-0.125
-0.265
-0.26
-0.205
-0.165
-0.035
0.05
0.085
0.075
0.0
-0.125
-0.19
-0.215
-0.18
-0.105
0.025
0.14
0.18
0.15
0.065
-0.06
-0.14
-0.15
-0.145
-0.06
0.105
0.135
0.17
0.145
0.105
-0.055
-0.105
-0.145
-0.16
-0.065
0.07
0.145
0.155
0.085
0.01
-0.16
-0.29
-0.27
-0.2
-0.12
-0.01
0.0
0.04
-0.03
-0.13
-0.225
-0.35
-0.395
-0.335
-0.285
-0.155
-0.065
-0.055
-0.08
-0.135
-0.31
-0.375
-0.425
-0.38
-0.27
-0.095
-0.065
-0.085
-0.155
-0.145
-0.31
-0.37
-0.46
-0.36
-0.265
-0.085
-0.095
-0.09
-0.135
-0.175
-0.385
-0.395
-0.445
-0.38
-0.255
-0.09
-0.08
-0.07
-0.155
-0.2
-0.335
-0.385
-0.4
-0.35
-0.225
-0.085
-0.105
-0.085
-0.115
-0.21
-0.415
-0.445
-0.445
-0.345
-0.27
-0.18
-0.11
-0.035
-0.11
-0.215
-0.345
-0.325
-0.375
-0.31
-0.2
-0.07
-0.065
-0.025
-0.175
-0.28
-0.33
-0.38
-0.34
-0.31
-0.18
-0.09
-0.04
-0.06
-0.16
-0.27
-0.355
-0.35
-0.325
-0.28
-0.245
-0.105
-0.025
-0.06
-0.135
-0.28
-0.4
-0.36
-0.37
-0.285
-0.185
-0.09
-0.065
-0.065
-0.16
-0.265
-0.34
-0.405
-0.39
-0.305
-0.15
-0.1
-0.095
-0.05
-0.14
-0.325
-0.38
-0.455
-0.345
-0.295
-0.16
-0.06
-0.02
-0.125
-0.205
-0.29
-0.365
-0.345
-0.33
-0.295
-0.2
-0.11
-0.04
-0.07
-0.16
-0.315
-0.37
-0.4
-0.35
-0.29
-0.15
-0.11
-0.025
-0.125
-0.17
-0.285
-0.38
-0.4
-0.35
-0.32
-0.175
-0.11
-0.015
-0.11
-0.2
-0.335
-0.345
-0.415
-0.345
-0.285
-0.165
-0.105
-0.045
-0.115
-0.175
-0.325
-0.385
-0.4
-0.365
-0.28
-0.145
-0.065
-0.02
-0.12
-0.195
-0.325
-0.385
-0.385
-0.375
-0.27
-0.135
-0.08
-0.005
-0.11
-0.215
-0.37
-0.4
-0.4
-0.29
-0.21
-0.145
-0.1
-0.035
-0.09
-0.215
-0.435
-0.42
-0.445
-0.36
-0.25
-0.06
0.0
-0.09
-0.16
-0.22
-0.37
-0.415
-0.4
-0.33
-0.275
-0.12
-0.02
-0.04
-0.08
-0.22
-0.38
-0.425
-0.38
-0.34
-0.25
-0.1
-0.06
-0.045
-0.11
-0.25
-0.355
-0.355
-0.375
-0.35
-0.225
-0.1
-0.05
-0.02
-0.115
-0.245
-0.395
-0.38
-0.38
-0.3
-0.145
-0.045
-0.065
-0.055
-0.135
-0.235
-0.335
-0.36
-0.285
-0.24
-0.19
-0.05
-0.08
-0.08
-0.11
-0.28
-0.42
-0.39
-0.385
-0.29
-0.125
-0.065
-0.085
-0.105
-0.175
-0.28
-0.34
-0.365
-0.42
-0.325
-0.15
-0.075
-0.05
-0.07
-0.15
-0.29
-0.39
-0.385
-0.385
-0.265
-0.16
-0.11
0.0
-0.085
-0.165
-0.345
-0.41
-0.395
-0.305
-0.265
-0.14
-0.075
-0.055
-0.1
-0.215
-0.285
-0.33
-0.34
-0.225
-0.09
0.13
0.295
0.29
0.325
0.35
0.19
0.115
0.025
-0.02
0.0
0.1
0.045
-0.055
-0.12
-0.365
-0.54
-0.66
-0.67
-0.575
-0.475
-0.305
-0.275
-0.29
-0.285
-0.305
-0.495
-0.45
-0.44
-0.385
-0.28
-0.14
-0.08
-0.065
-0.11
-0.195
-0.35
-0.37
-0.375
-0.33
-0.205
-0.065
-0.005
-0.02
-0.1
-0.15
-0.3
-0.37
-0.38
-0.285
-0.185
-0.065
0.0
0.025
-0.17
-0.245
-0.275
-0.34
-0.355
-0.265
-0.17
-0.07
-0.025
-0.045
-0.07
-0.16
-0.325
-0.325
-0.33
-0.28
-0.19
-0.045
0.01
0.0
-0.075
-0.175
-0.27
-0.27
-0.3
-0.265
-0.125
0.02
0.04
0.015
-0.05
-0.15
-0.235
-0.265
-0.215
-0.18
-0.06
0.05
0.055
0.065
-0.02
-0.16
-0.195
-0.225
-0.205
-0.115
0.015
0.105
0.12
0.065
0.035
-0.06
-0.11
-0.21
-0.135
-0.09
0.075
0.165
0.175
0.135
0.075
-0.06
-0.115
-0.13
-0.1
-0.01
0.135
0.145
0.2
0.185
0.09
-0.05
-0.15
-0.18
-0.17
-0.1
0.075
0.14
0.155
0.035
-0.055
-0.085
-0.175
-0.285
-0.26
-0.22
-0.065
-0.01
-0.01
-0.03
-0.11
-0.27
-0.345
-0.365
-0.275
-0.235
-0.135
-0.105
-0.075
-0.09
-0.165
-0.315
-0.385
-0.41
-0.365
-0.245
-0.125
-0.075
-0.055
-0.1
-0.215
-0.39
-0.415
-0.405
-0.34
-0.275
-0.1
-0.08
-0.05
-0.07
-0.2
-0.355
-0.435
-0.435
-0.345
-0.25
-0.14
-0.08
-0.005
-0.1
-0.215
-0.385
-0.405
-0.395
-0.345
-0.235
-0.08
-0.07
-0.12
-0.12
-0.215
-0.37
-0.445
-0.41
-0.35
-0.205
-0.055
-0.045
0.01
-0.16
-0.23
-0.35
-0.4
-0.39
-0.325
-0.205
-0.065
-0.045
-0.1
-0.13
-0.225
-0.355
-0.395
-0.375
-0.345
-0.19
-0.065
-0.055
-0.08
-0.135
-0.265
-0.305
-0.375
-0.365
-0.305
-0.205
-0.07
-0.035
-0.075
-0.12
-0.285
-0.315
-0.395
-0.36
-0.32
-0.185
-0.055
-0.06
-0.08
-0.175
-0.305
-0.365
-0.41
-0.415
-0.33
-0.175
-0.065
-0.005
-0.07
-0.13
-0.275
-0.355
-0.455
-0.385
-0.255
-0.16
-0.135
-0.095
-0.085
-0.115
-0.255
-0.38
-0.4
-0.385
-0.295
-0.2
-0.125
-0.04
-0.12
-0.15
-0.255
-0.385
-0.39
-0.385
-0.31
-0.14
-0.075
-0.085
-0.115
-0.145
-0.34
-0.38
-0.44
-0.38
-0.29
-0.135
-0.075
-0.045
-0.1
-0.195
-0.285
-0.425
-0.42
-0.365
-0.25
-0.14
-0.085
-0.06
-0.09
-0.225
-0.34
-0.385
-0.41
-0.375
-0.31
-0.135
-0.06
-0.06
-0.115
-0.19
-0.365
-0.425
-0.395
-0.36
-0.265
-0.11
-0.045
-0.065
-0.135
-0.19
-0.39
-0.39
-0.365
-0.35
-0.24
-0.12
-0.095
-0.1
-0.135
-0.18
-0.34
-0.455
-0.44
-0.345
-0.245
-0.14
-0.12
-0.045
-0.15
-0.26
-0.37
-0.38
-0.36
-0.32
-0.27
-0.14
-0.07
-0.1
-0.14
-0.19
-0.365
-0.385
-0.34
-0.31
-0.225
-0.11
-0.135
-0.03
-0.12
-0.265
-0.38
-0.37
-0.42
-0.34
-0.2
-0.095
-0.04
-0.095
-0.135
-0.26
-0.36
-0.415
-0.385
-0.31
-0.19
-0.105
-0.06
-0.06
-0.145
-0.24
-0.3
-0.42
-0.36
-0.26
-0.15
-0.05
0.015
-0.055
-0.13
-0.27
-0.36
-0.345
-0.415
-0.33
-0.17
-0.1
-0.045
-0.12
-0.18
-0.27
-0.38
-0.325
-0.36
-0.295
-0.15
-0.09
-0.08
-0.12
-0.175
-0.28
-0.41
-0.435
-0.335
-0.32
-0.14
-0.03
-0.11
-0.06
-0.16
-0.27
-0.375
-0.365
-0.365
-0.285
-0.19
-0.08
-0.085
-0.11
-0.145
-0.3
-0.35
-0.32
-0.21
-0.105
0.09
0.235
0.325
0.305
0.32
0.24
0.155
0.02
-0.03
0.035
0.065
0.06
0.0
-0.21
-0.33
-0.58
-0.65
-0.655
-0.63
-0.55
-0.33
-0.285
-0.275
-0.295
-0.32
-0.455
-0.455
-0.49
-0.39
-0.27
-0.12
-0.095
-0.05
-0.095
-0.205
-0.355
-0.37
-0.39
-0.305
-0.225
-0.105
0.005
-0.03
-0.11
-0.19
-0.375
-0.35
-0.31
-0.29
-0.19
-0.055
-0.075
-0.055
-0.075
-0.19
-0.32
-0.32
-0.31
-0.26
-0.165
-0.035
-0.035
-0.04
-0.12
-0.235
-0.325
-0.35
-0.3
-0.255
-0.145
-0.055
0.0
0.03
-0.095
-0.185
-0.29
-0.31
-0.295
-0.205
-0.08
0.005
0.015
0.0
-0.05
-0.19
-0.265
-0.31
-0.27
-0.2
-0.05
0.015
0.08
0.075
-0.015
-0.16
-0.24
-0.22
-0.195
-0.185
0.005
0.1
0.105
0.065
0.04
-0.08
-0.125
-0.2
-0.155
-0.085
0.05
0.185
0.18
0.15
0.075
-0.055
-0.12
-0.12
-0.145
-0.045
0.085
0.125
0.17
0.195
0.16
-0.025
-0.13
-0.21
-0.135
-0.07
0.055
0.16
0.115
0.05
-0.035
-0.155
-0.245
-0.295
-0.27
-0.24
-0.085
-0.005
-0.005
-0.04
-0.145
-0.275
-0.345
-0.41
-0.355
-0.245
-0.12
-0.05
-0.035
-0.105
-0.205
-0.275
-0.37
-0.435
-0.37
-0.275
-0.135
-0.115
-0.05
-0.13
-0.265
-0.405
-0.44
-0.385
-0.35
-0.2
-0.105
-0.105
-0.055
-0.135
-0.135
-0.33
-0.435
-0.43
-0.33
-0.23
-0.125
-0.08
-0.035
-0.14
-0.28
-0.355
-0.4
-0.43
-0.365
-0.255
-0.13
-0.1
-0.055
-0.115
-0.305
-0.35
-0.43
-0.485
-0.34
-0.235
-0.095
-0.09
-0.045
-0.125
-0.225
-0.335
-0.39
-0.375
-0.33
-0.29
-0.1
-0.04
-0.06
-0.16
-0.255
-0.375
-0.425
-0.39
-0.31
-0.225
-0.11
-0.01
-0.09
-0.15
-0.27
-0.395
-0.375
-0.4
-0.325
-0.18
-0.075
-0.045
-0.05
-0.175
-0.28
-0.36
-0.38
-0.415
-0.335
-0.185
-0.1
-0.085
-0.1
-0.165
-0.295
-0.42
-0.42
-0.38
-0.32
-0.155
-0.125
-0.1
-0.085
-0.155
-0.335
-0.37
-0.38
-0.395
-0.345
-0.15
-0.065
-0.035
-0.09
-0.175
-0.315
-0.425
-0.4
-0.36
-0.29
-0.185
-0.05
-0.095
-0.105
-0.165
-0.315
-0.365
-0.37
-0.35
-0.315
-0.185
-0.07
-0.065
-0.11
-0.215
-0.395
-0.34
-0.365
-0.365
-0.31
-0.17
-0.125
-0.105
-0.185
-0.135
-0.32
-0.445
-0.42
-0.395
-0.31
-0.155
-0.065
-0.085
-0.09
-0.185
-0.335
-0.38
-0.425
-0.39
-0.325
-0.11
-0.065
-0.065
-0.115
-0.255
-0.405
-0.455
-0.425
-0.29
-0.21
-0.1
-0.1
-0.045
-0.135
-0.18
-0.365
-0.415
-0.41
-0.365
-0.285
-0.15
-0.1
-0.075
-0.14
-0.215
-0.305
-0.405
-0.445
-0.405
-0.215
-0.06
-0.06
-0.06
-0.125
-0.255
-0.35
-0.41
-0.425
-0.385
-0.27
-0.09
-0.025
-0.05
-0.14
-0.29
-0.385
-0.425
-0.38
-0.34
-0.205
-0.07
-0.04
-0.04
-0.12
-0.285
-0.41
-0.395
-0.36
-0.315
-0.2
-0.07
-0.035
-0.06
-0.125
-0.25
-0.37
-0.33
-0.335
-0.3
-0.17
-0.08
-0.065
-0.07
-0.15
-0.275
-0.38
-0.4
-0.42
-0.325
-0.25
-0.14
-0.08
-0.065
-0.165
-0.295
-0.445
-0.435
-0.4
-0.295
-0.21
-0.12
-0.03
-0.02
-0.205
-0.3
-0.38
-0.415
-0.335
-0.28
-0.185
-0.105
-0.08
-0.11
-0.195
-0.3
-0.385
-0.38
-0.345
-0.29
-0.13
-0.065
0.04
0.035
0.005
-0.105
-0.09
-0.045
0.015
0.2
0.41
0.46
0.44
0.27
0.09
-0.135
-0.25
-0.36
-0.455
-0.41
-0.345
-0.315
-0.28
-0.385
-0.46
-0.6
-0.595
-0.57
-0.55
-0.445
-0.23
-0.135
-0.155
-0.155
-0.21
-0.345
-0.415
-0.465
-0.36
-0.245
-0.105
-0.085
-0.045
-0.06
-0.15
-0.315
-0.38
-0.37
-0.325
-0.24
-0.08
-0.04
-0.015
-0.07
-0.16
-0.315
-0.39
-0.375
-0.34
-0.22
-0.015
-0.005
-0.005
-0.08
-0.195
-0.365
-0.37
-0.28
-0.25
-0.175
-0.055
0.01
-0.005
-0.075
-0.165
-0.34
-0.33
-0.275
-0.255
-0.135
0.005
-0.045
-0.03
-0.08
-0.15
-0.335
-0.275
-0.31
-0.25
-0.13
-0.005
0.05
0.05
-0.03
-0.15
-0.25
-0.29
-0.3
-0.215
-0.075
0.065
0.105
0.095
0.005
-0.1
-0.2
-0.22
-0.2
-0.13
0.035
0.165
0.13
0.165
0.07
-0.07
-0.19
-0.19
-0.155
-0.07
0.12
0.17
0.16
0.155
0.09
-0.05
-0.175
-0.18
-0.11
-0.06
0.085
0.11
0.165
0.17
0.04
-0.16
-0.155
-0.17
-0.24
-0.11
0.025
0.06
0.075
0.005
-0.105
-0.265
-0.29
-0.365
-0.345
-0.235
-0.1
-0.075
-0.015
-0.065
-0.16
-0.325
-0.4
-0.41
-0.345
-0.28
-0.15
-0.1
-0.035
-0.115
-0.19
-0.29
-0.385
-0.415
-0.34
-0.27
-0.14
-0.125
-0.065
-0.125
-0.18
-0.315
-0.355
-0.47
-0.43
-0.245
-0.13
-0.05
-0.08
-0.145
-0.235
-0.37
-0.395
-0.42
-0.345
-0.265
-0.135
-0.115
-0.1
-0.135
-0.19
-0.395
-0.36
-0.39
-0.355
-0.29
-0.115
-0.095
-0.08
-0.115
-0.215
-0.38
-0.42
-0.415
-0.31
-0.215
-0.155
-0.135
-0.07
-0.155
-0.24
-0.38
-0.335
-0.33
-0.345
-0.215
-0.105
-0.04
-0.055
-0.19
-0.295
-0.405
-0.415
-0.425
-0.36
-0.24
-0.05
-0.07
-0.05
-0.125
-0.255
-0.365
-0.44
-0.435
-0.355
-0.24
-0.12
-0.055
-0.07
-0.14
-0.28
-0.38
-0.41
-0.425
-0.365
-0.17
-0.125
-0.085
-0.055
-0.13
-0.31
-0.385
-0.365
-0.38
-0.3
-0.2
-0.105
-0.1
-0.125
-0.21
-0.29
-0.36
-0.375
-0.335
-0.3
-0.215
-0.165
-0.07
-0.11
-0.155
-0.315
-0.46
-0.46
-0.36
-0.295
-0.13
-0.075
-0.1
-0.165
-0.225
-0.25
-0.375
-0.415
-0.365
-0.315
-0.145
-0.115
-0.105
-0.12
-0.18
-0.365
-0.43
-0.47
-0.395
-0.255
-0.2
-0.07
-0.055
-0.105
-0.17
-0.375
-0.42
-0.42
-0.375
-0.29
-0.16
-0.095
-0.05
-0.115
-0.25
-0.38
-0.415
-0.435
-0.38
-0.275
-0.12
-0.075
-0.055
-0.095
-0.195
-0.375
-0.405
-0.385
-0.37
-0.29
-0.22
-0.07
-0.08
-0.17
-0.205
-0.395
-0.44
-0.39
-0.35
-0.29
-0.095
-0.05
-0.1
-0.16
-0.26
-0.385
-0.44
-0.49
-0.365
-0.22
-0.16
-0.075
-0.09
-0.135
-0.22
-0.385
-0.415
-0.435
-0.345
-0.26
-0.11
-0.065
-0.1
-0.16
-0.25
-0.375
-0.43
-0.37
-0.295
-0.32
-0.115
-0.085
-0.13
-0.19
-0.285
-0.315
-0.42
-0.415
-0.365
-0.23
-0.105
-0.07
-0.075
-0.115
-0.22
-0.375
-0.41
-0.38
-0.3
-0.19
-0.09
-0.085
-0.11
-0.135
-0.27
-0.405
-0.415
-0.405
-0.345
-0.235
-0.115
-0.095
-0.105
-0.175
-0.295
-0.39
-0.425
-0.41
-0.325
-0.2
-0.145
-0.145
-0.13
-0.115
-0.31
-0.37
-0.405
-0.415
-0.335
-0.2
-0.115
-0.08
-0.12
-0.185
-0.3
-0.405
-0.395
-0.365
-0.335
-0.235
-0.145
-0.04
-0.11
-0.24
-0.31
-0.325
-0.275
-0.18
-0.12
0.155
0.305
0.4
0.445
0.365
0.13
-0.025
-0.13
-0.205
-0.14
-0.085
-0.11
-0.245
-0.36
-0.48
-0.63
-0.63
-0.635
-0.615
-0.49
-0.345
-0.285
-0.25
-0.255
-0.315
-0.435
-0.475
-0.495
-0.405
-0.285
-0.145
-0.135
-0.04
-0.11
-0.225
-0.34
-0.48
-0.44
-0.34
-0.3
-0.125
-0.12
-0.08
-0.115
-0.2
-0.38
-0.385
-0.405
-0.36
-0.26
-0.12
-0.07
-0.055
-0.07
-0.175
-0.345
-0.405
-0.395
-0.295
-0.205
-0.085
-0.045
-0.025
-0.065
-0.225
-0.31
-0.325
-0.37
-0.27
-0.2
-0.04
-0.02
-0.03
-0.095
-0.18
-0.325
-0.35
-0.365
-0.275
-0.16
-0.08
-0.01
-0.03
-0.065
-0.165
-0.29
-0.335
-0.305
-0.23
-0.095
0.015
-0.01
0.015
-0.035
-0.125
-0.24
-0.265
-0.25
-0.175
-0.055
0.065
0.095
0.09
0.015
-0.09
-0.175
-0.2
-0.215
-0.145
0.045
0.205
0.135
0.13
0.065
-0.035
-0.145
-0.195
-0.175
-0.11
0.055
0.12
0.245
0.14
0.0
-0.1
-0.185
-0.21
-0.205
-0.115
0.04
0.03
0.055
-0.03
-0.03
-0.195
-0.265
-0.32
-0.34
-0.22
-0.085
-0.07
-0.03
-0.05
-0.195
-0.3
-0.375
-0.41
-0.405
-0.3
-0.16
-0.115
-0.07
-0.125
-0.215
-0.4
-0.365
-0.405
-0.41
-0.35
-0.125
-0.12
-0.095
-0.145
-0.23
-0.375
-0.43
-0.46
-0.43
-0.275
-0.145
-0.115
-0.095
-0.165
-0.22
-0.355
-0.43
-0.49
-0.37
-0.24
-0.16
-0.12
-0.08
-0.155
-0.265
-0.385
-0.46
-0.41
-0.355
-0.295
-0.145
-0.065
-0.025
-0.15
-0.25
-0.455
-0.495
-0.43
-0.37
-0.235
-0.105
-0.11
-0.155
-0.2
-0.245
-0.41
-0.435
-0.425
-0.39
-0.295
-0.14
-0.065
-0.095
-0.175
-0.22
-0.405
-0.395
-0.415
-0.35
-0.245
-0.195
-0.135
-0.05
-0.15
-0.295
-0.405
-0.435
-0.44
-0.36
-0.22
-0.12
-0.115
-0.125
-0.205
-0.255
-0.42
-0.405
-0.405
-0.37
-0.26
-0.17
-0.13
-0.045
-0.155
-0.28
-0.375
-0.42
-0.445
-0.395
-0.22
-0.105
-0.085
-0.105
-0.185
-0.355
-0.37
-0.445
-0.445
-0.39
-0.2
-0.14
-0.115
-0.1
-0.2
-0.35
-0.395
-0.425
-0.445
-0.405
-0.22
-0.07
-0.09
-0.08
-0.185
-0.345
-0.44
-0.45
-0.465
-0.325
-0.16
-0.155
-0.16
-0.165
-0.22
-0.36
-0.405
-0.405
-0.385
-0.3
-0.17
-0.13
-0.1
-0.14
-0.2
-0.355
-0.415
-0.495
-0.425
-0.38
-0.195
-0.11
-0.13
-0.145
-0.185
-0.385
-0.4
-0.41
-0.39
-0.27
-0.185
-0.105
-0.095
-0.135
-0.255
-0.37
-0.43
-0.465
-0.35
-0.295
-0.16
-0.145
-0.125
-0.155
-0.225
-0.41
-0.43
-0.4
-0.37
-0.29
-0.14
-0.155
-0.115
-0.15
-0.265
-0.385
-0.45
-0.435
-0.365
-0.28
-0.165
-0.07
-0.11
-0.22
-0.305
-0.385
-0.42
-0.44
-0.37
-0.305
-0.18
-0.11
-0.1
-0.16
-0.275
-0.445
-0.435
-0.47
-0.36
-0.27
-0.15
-0.135
-0.1
-0.175
-0.265
-0.395
-0.45
-0.45
-0.36
-0.28
-0.15
-0.12
-0.11
-0.155
-0.26
-0.4
-0.43
-0.465
-0.35
-0.215
-0.11
-0.095
-0.08
-0.14
-0.27
-0.41
-0.45
-0.415
-0.345
-0.215
-0.105
-0.06
-0.09
-0.155
-0.34
-0.39
-0.425
-0.455
-0.33
-0.22
-0.135
-0.155
-0.105
-0.175
-0.33
-0.42
-0.47
-0.385
-0.34
-0.2
-0.17
-0.11
-0.145
-0.2
-0.3
-0.405
-0.41
-0.415
-0.33
-0.235
-0.18
-0.115
-0.08
-0.19
-0.365
-0.39
-0.435
-0.405
-0.345
-0.21
-0.11
-0.085
-0.16
-0.195
-0.36
-0.375
-0.32
-0.29
-0.115
0.11
0.26
0.315
0.325
0.31
0.24
0.065
-0.07
-0.085
-0.075
0.015
-0.1
-0.155
-0.255
-0.425
-0.595
-0.705
-0.655
-0.67
-0.535
-0.36
-0.3
-0.265
-0.295
-0.38
-0.485
-0.48
-0.465
-0.395
-0.34
-0.2
-0.13
-0.125
-0.165
-0.195
-0.395
-0.41
-0.41
-0.43
-0.365
-0.12
-0.08
-0.015
-0.145
-0.205
-0.355
-0.425
-0.395
-0.29
-0.235
-0.095
-0.11
-0.085
-0.12
-0.185
-0.33
-0.375
-0.405
-0.345
-0.215
-0.05
-0.11
-0.07
-0.085
-0.135
-0.34
-0.385
-0.355
-0.29
-0.205
-0.095
-0.095
-0.03
-0.12
-0.235
-0.33
-0.34
-0.345
-0.305
-0.165
-0.035
0.01
-0.005
-0.04
-0.18
-0.3
-0.33
-0.32
-0.265
-0.13
-0.02
0.01
0.045
-0.01
-0.17
-0.23
-0.26
-0.225
-0.16
-0.065
0.015
0.03
0.04
0.02
-0.11
-0.21
-0.19
-0.175
-0.08
-0.01
0.05
0.145
0.115
0.035
-0.035
-0.11
-0.18
-0.2
-0.095
0.05
0.16
0.13
0.13
0.03
-0.115
-0.205
-0.16
-0.11
-0.13
-0.04
0.055
0.025
0.015
0.005
-0.225
-0.27
-0.295
-0.315
-0.2
-0.1
-0.045
-0.045
-0.065
-0.155
-0.325
-0.375
-0.415
-0.405
-0.295
-0.11
-0.06
-0.08
-0.145
-0.2
-0.335
-0.405
-0.39
-0.39
-0.305
-0.165
-0.15
-0.135
-0.09
-0.17
-0.345
-0.425
-0.46
-0.395
-0.295
-0.17
-0.11
-0.115
-0.15
-0.25
-0.41
-0.41
-0.4
-0.395
-0.305
-0.165
-0.085
-0.09
-0.17
-0.215
-0.365
-0.435
-0.46
-0.39
-0.31
-0.155
-0.085
-0.075
-0.13
-0.24
-0.34
-0.405
-0.435
-0.34
-0.25
-0.1
-0.115
-0.135
-0.15
-0.255
-0.35
-0.41
-0.4
-0.37
-0.295
-0.075
-0.145
-0.105
-0.155
-0.245
-0.34
-0.405
-0.445
-0.38
-0.27
-0.085
-0.065
-0.1
-0.19
-0.25
-0.39
-0.43
-0.41
-0.42
-0.245
-0.13
-0.085
-0.115
-0.205
-0.27
-0.37
-0.41
-0.385
-0.365
-0.235
-0.115
-0.085
-0.08
-0.235
-0.295
-0.375
-0.405
-0.38
-0.36
-0.27
-0.17
-0.055
-0.095
-0.155
-0.3
-0.43
-0.455
-0.39
-0.315
-0.2
-0.11
-0.075
-0.105
-0.265
-0.37
-0.43
-0.475
-0.455
-0.325
-0.16
-0.09
-0.125
-0.14
-0.23
-0.31
-0.42
-0.415
-0.385
-0.36
-0.2
-0.105
-0.075
-0.125
-0.21
-0.385
-0.42
-0.445
-0.42
-0.32
-0.205
-0.115
-0.055
-0.115
-0.235
-0.335
-0.465
-0.45
-0.435
-0.38
-0.19
-0.07
-0.04
-0.125
-0.245
-0.375
-0.355
-0.445
-0.415
-0.29
-0.13
-0.125
-0.09
-0.17
-0.23
-0.35
-0.41
-0.47
-0.375
-0.29
-0.175
-0.17
-0.105
-0.14
-0.23
-0.4
-0.41
-0.425
-0.35
-0.31
-0.125
-0.13
-0.1
-0.175
-0.255
-0.4
-0.385
-0.415
-0.4
-0.265
-0.135
-0.155
-0.105
-0.135
-0.3
-0.375
-0.375
-0.455
-0.365
-0.255
-0.155
-0.115
-0.115
-0.095
-0.245
-0.395
-0.405
-0.405
-0.385
-0.27
-0.145
-0.12
-0.08
-0.15
-0.235
-0.315
-0.36
-0.385
-0.3
-0.16
-0.095
-0.06
-0.09
-0.19
-0.29
-0.375
-0.42
-0.43
-0.36
-0.28
-0.165
-0.075
-0.16
-0.115
-0.27
-0.445
-0.505
-0.415
-0.36
-0.275
-0.13
-0.11
-0.13
-0.195
-0.295
-0.445
-0.43
-0.42
-0.335
-0.205
-0.13
-0.15
-0.135
-0.18
-0.335
-0.465
-0.44
-0.37
-0.35
-0.19
-0.09
-0.09
-0.055
-0.165
-0.255
-0.29
-0.285
-0.195
-0.02
0.125
0.305
0.395
0.4
0.34
0.185
0.0
-0.085
-0.13
-0.13
-0.13
-0.2
-0.23
-0.33
-0.415
-0.56
-0.655
-0.675
-0.585
-0.54
-0.35
-0.315
-0.245
-0.275
-0.305
-0.41
-0.5
-0.45
-0.4
-0.305
-0.155
-0.14
-0.06
-0.06
-0.175
-0.42
-0.385
-0.4
-0.415
-0.295
-0.135
-0.11
-0.09
-0.115
-0.18
-0.33
-0.365
-0.37
-0.335
-0.275
-0.105
-0.11
-0.065
-0.105
-0.16
-0.29
-0.355
-0.385
-0.315
-0.265
-0.11
-0.04
-0.03
-0.09
-0.16
-0.295
-0.425
-0.365
-0.3
-0.215
-0.06
-0.03
-0.01
-0.065
-0.15
-0.345
-0.385
-0.335
-0.26
-0.165
