# TIPE ECG 2021 - ECG-ID Database v1.0.0 par Physionet
# [N° de la personne, N° de l'enregistrement, Période d'échantillonnage, Prénom, Age, Sexe, Date de l'enregistrement]
[24, 2, 0.002, "Audrey", 46, "F", "12.05.2005"]
-0.255
-0.23
-0.165
-0.085
-0.095
0.05
0.035
-0.15
-0.275
-0.44
-0.23
-0.24
-0.175
-0.13
-0.05
0.06
0.0
-0.115
-0.225
-0.435
-0.225
-0.23
-0.195
-0.085
-0.06
0.06
0.015
-0.08
-0.355
-0.435
-0.21
-0.195
-0.14
-0.125
-0.07
0.005
-0.035
-0.125
-0.295
-0.415
-0.27
-0.25
-0.145
-0.045
-0.035
0.03
0.03
-0.085
-0.28
-0.445
-0.245
-0.215
-0.14
-0.08
-0.075
0.095
-0.04
-0.1
-0.29
-0.39
-0.21
-0.23
-0.165
-0.035
-0.035
0.075
-0.045
-0.19
-0.325
-0.385
-0.24
-0.225
-0.145
-0.105
-0.095
0.08
-0.015
-0.085
-0.375
-0.38
-0.285
-0.26
-0.165
-0.11
-0.08
0.05
-0.045
-0.135
-0.405
-0.33
-0.275
-0.31
-0.195
-0.12
-0.09
0.05
-0.1
-0.225
-0.415
-0.345
-0.245
-0.265
-0.215
-0.05
-0.02
0.05
-0.055
-0.21
-0.435
-0.335
-0.205
-0.225
-0.14
-0.085
0.005
0.04
-0.075
-0.105
-0.36
-0.3
-0.2
-0.105
-0.095
-0.025
-0.005
0.075
-0.06
-0.155
-0.405
-0.22
-0.2
-0.16
-0.13
-0.085
0.045
0.075
-0.045
-0.2
-0.44
-0.3
-0.25
-0.25
-0.13
-0.06
0.0
0.045
-0.19
-0.195
-0.45
-0.365
-0.245
-0.23
-0.145
-0.08
0.01
0.005
-0.135
-0.305
-0.455
-0.33
-0.225
-0.2
-0.135
-0.14
-0.01
-0.045
-0.14
-0.31
-0.48
-0.345
-0.3
-0.265
-0.14
-0.115
0.015
-0.03
-0.14
-0.32
-0.48
-0.3
-0.255
-0.21
-0.13
-0.09
0.06
-0.05
-0.215
-0.385
-0.55
-0.395
-0.26
-0.355
-0.24
-0.09
0.11
0.155
0.08
-0.06
-0.075
0.135
0.21
0.34
0.415
0.51
0.6
0.445
0.205
0.005
-0.115
-0.075
-0.205
-0.205
-0.125
-0.155
-0.02
-0.095
-0.23
-0.41
-0.49
-0.315
-0.305
-0.23
-0.125
-0.135
0.045
-0.13
-0.165
-0.41
-0.385
-0.27
-0.275
-0.185
-0.13
-0.135
0.065
-0.07
-0.165
-0.405
-0.395
-0.23
-0.18
-0.185
-0.145
-0.09
0.09
-0.085
-0.155
-0.39
-0.36
-0.27
-0.23
-0.18
-0.14
-0.095
0.01
-0.11
-0.18
-0.395
-0.35
-0.245
-0.195
-0.175
-0.065
-0.035
0.085
-0.09
-0.155
-0.395
-0.36
-0.255
-0.225
-0.15
-0.08
0.01
0.065
-0.085
-0.15
-0.43
-0.305
-0.21
-0.18
-0.18
-0.095
0.02
0.06
-0.06
-0.15
-0.4
-0.25
-0.215
-0.185
-0.075
-0.075
0.11
0.06
-0.145
-0.21
-0.355
-0.205
-0.215
-0.12
-0.09
-0.025
0.065
0.06
-0.035
-0.14
-0.335
-0.155
-0.165
-0.205
-0.105
0.045
0.165
0.125
0.02
-0.16
-0.295
-0.175
-0.125
-0.075
0.005
0.055
0.18
0.145
-0.01
-0.15
-0.315
-0.12
-0.065
-0.035
0.05
0.005
0.185
0.09
-0.02
-0.16
-0.385
-0.16
-0.12
-0.105
0.01
0.035
0.15
0.125
-0.05
-0.255
-0.395
-0.235
-0.235
-0.12
-0.08
-0.065
0.095
0.0
-0.14
-0.295
-0.38
-0.255
-0.25
-0.185
-0.1
-0.075
0.05
-0.03
-0.265
-0.345
-0.45
-0.29
-0.275
-0.16
-0.105
-0.11
0.005
-0.06
-0.17
-0.365
-0.435
-0.265
-0.26
-0.235
-0.165
-0.14
-0.035
-0.075
-0.185
-0.5
-0.42
-0.305
-0.225
-0.165
-0.135
-0.165
0.0
-0.075
-0.19
-0.385
-0.38
-0.305
-0.31
-0.19
-0.105
-0.115
-0.015
-0.155
-0.185
-0.415
-0.38
-0.32
-0.26
-0.21
-0.135
-0.055
0.025
-0.1
-0.245
-0.41
-0.34
-0.28
-0.26
-0.19
-0.12
-0.065
-0.025
-0.13
-0.22
-0.42
-0.32
-0.31
-0.255
-0.155
-0.1
-0.01
0.025
-0.15
-0.265
-0.43
-0.34
-0.265
-0.245
-0.185
-0.21
-0.04
0.055
-0.105
-0.225
-0.47
-0.335
-0.255
-0.205
-0.19
-0.09
-0.005
0.015
-0.12
-0.22
-0.44
-0.37
-0.285
-0.265
-0.165
-0.115
0.005
-0.02
-0.155
-0.305
-0.485
-0.285
-0.265
-0.195
-0.17
-0.16
0.015
-0.03
-0.18
-0.305
-0.45
-0.315
-0.31
-0.26
-0.105
-0.135
-0.015
-0.04
-0.15
-0.33
-0.475
-0.3
-0.29
-0.205
-0.135
-0.145
0.0
-0.055
-0.16
-0.31
-0.485
-0.345
-0.345
-0.225
-0.085
-0.115
0.055
-0.085
-0.205
-0.33
-0.51
-0.3
-0.27
-0.245
-0.185
-0.1
0.02
-0.04
-0.17
-0.36
-0.475
-0.355
-0.285
-0.24
-0.105
-0.13
0.02
-0.06
-0.26
-0.38
-0.465
-0.29
-0.33
-0.24
-0.185
-0.13
0.015
-0.07
-0.18
-0.38
-0.385
-0.275
-0.325
-0.225
-0.13
-0.12
0.06
-0.07
-0.175
-0.325
-0.365
-0.315
-0.28
-0.18
-0.13
-0.1
0.085
-0.045
-0.16
-0.41
-0.355
-0.245
-0.205
-0.14
-0.045
0.005
0.035
-0.045
-0.21
-0.39
-0.345
-0.245
-0.225
-0.245
-0.095
-0.03
0.0
-0.08
-0.16
-0.38
-0.31
-0.28
-0.28
-0.205
-0.11
-0.035
0.005
-0.14
-0.24
-0.435
-0.34
-0.32
-0.245
-0.205
-0.135
-0.07
-0.015
-0.105
-0.235
-0.48
-0.365
-0.275
-0.28
-0.195
-0.1
-0.09
-0.025
-0.18
-0.25
-0.44
-0.325
-0.275
-0.305
-0.175
-0.125
-0.025
-0.035
-0.17
-0.29
-0.495
-0.365
-0.255
-0.325
-0.175
-0.095
-0.03
-0.07
-0.275
-0.375
-0.545
-0.455
-0.23
-0.165
-0.015
0.17
0.36
0.385
0.29
0.17
0.145
0.375
0.425
0.45
0.49
0.405
0.455
0.315
0.14
-0.17
-0.43
-0.3
-0.275
-0.24
-0.17
-0.1
-0.065
-0.025
-0.19
-0.365
-0.45
-0.315
-0.26
-0.22
-0.135
-0.11
0.025
0.025
-0.135
-0.35
-0.46
-0.315
-0.3
-0.255
-0.11
-0.075
0.07
-0.03
-0.18
-0.365
-0.51
-0.265
-0.275
-0.225
-0.11
-0.075
0.04
-0.015
-0.16
-0.365
-0.475
-0.31
-0.29
-0.19
-0.09
-0.115
0.035
-0.025
-0.12
-0.355
-0.435
-0.255
-0.285
-0.195
-0.13
-0.07
0.08
-0.04
-0.155
-0.35
-0.385
-0.24
-0.29
-0.205
-0.05
-0.14
0.07
-0.015
-0.14
-0.375
-0.355
-0.24
-0.2
-0.215
-0.065
-0.04
0.075
-0.055
-0.175
-0.39
-0.29
-0.205
-0.18
-0.17
-0.075
-0.05
0.09
-0.06
-0.14
-0.365
-0.3
-0.175
-0.195
-0.105
0.035
-0.005
0.095
-0.005
-0.085
-0.325
-0.265
-0.155
-0.115
-0.08
0.0
0.06
0.15
-0.015
-0.065
-0.335
-0.19
-0.14
-0.1
-0.045
0.04
0.13
0.15
0.02
-0.055
-0.305
-0.185
-0.1
-0.055
-0.055
-0.01
0.115
0.1
-0.03
-0.12
-0.285
-0.13
-0.14
-0.16
-0.005
-0.005
0.095
0.09
-0.005
-0.19
-0.41
-0.275
-0.185
-0.125
-0.09
-0.03
0.09
0.045
-0.03
-0.305
-0.485
-0.235
-0.21
-0.2
-0.12
-0.09
-0.015
0.01
-0.075
-0.28
-0.48
-0.315
-0.255
-0.19
-0.12
-0.1
0.045
-0.005
-0.18
-0.325
-0.495
-0.305
-0.235
-0.255
-0.175
-0.085
0.055
0.0
-0.155
-0.35
-0.42
-0.3
-0.27
-0.155
-0.125
-0.22
0.01
-0.06
-0.13
-0.355
-0.485
-0.265
-0.28
-0.23
-0.145
-0.085
0.055
-0.03
-0.18
-0.37
-0.455
-0.28
-0.295
-0.215
-0.11
-0.135
0.015
-0.05
-0.17
-0.33
-0.48
-0.285
-0.3
-0.225
-0.085
-0.11
0.035
-0.05
-0.215
-0.39
-0.385
-0.265
-0.28
-0.17
-0.175
-0.13
0.045
-0.07
-0.185
-0.415
-0.38
-0.285
-0.27
-0.195
-0.055
-0.085
-0.005
-0.11
-0.17
-0.405
-0.41
-0.28
-0.255
-0.17
-0.135
-0.09
0.0
-0.15
-0.165
-0.43
-0.335
-0.26
-0.26
-0.165
-0.14
-0.06
0.03
-0.125
-0.24
-0.44
-0.355
-0.29
-0.29
-0.2
-0.1
-0.04
0.0
-0.135
-0.165
-0.48
-0.395
-0.26
-0.22
-0.16
-0.075
-0.06
-0.01
-0.195
-0.185
-0.425
-0.345
-0.31
-0.255
-0.18
-0.065
0.015
0.0
-0.225
-0.185
-0.47
-0.335
-0.26
-0.225
-0.19
-0.09
0.055
0.02
-0.15
-0.235
-0.41
-0.315
-0.28
-0.315
-0.115
-0.08
0.025
-0.045
-0.125
-0.295
-0.435
-0.285
-0.2
-0.225
-0.09
-0.07
0.11
0.025
-0.12
-0.26
-0.42
-0.265
-0.17
-0.155
-0.11
-0.095
0.075
0.005
-0.085
-0.295
-0.4
-0.325
-0.3
-0.175
-0.18
-0.12
0.06
-0.06
-0.16
-0.34
-0.5
-0.28
-0.24
-0.25
-0.135
-0.115
-0.015
-0.09
-0.15
-0.335
-0.49
-0.325
-0.34
-0.225
-0.145
-0.13
-0.02
-0.05
-0.17
-0.355
-0.5
-0.32
-0.35
-0.23
-0.105
-0.175
0.03
-0.04
-0.175
-0.45
-0.535
-0.3
-0.26
-0.22
-0.145
-0.13
0.035
-0.165
-0.27
-0.47
-0.5
-0.37
-0.345
-0.265
-0.105
0.015
0.26
0.25
0.225
0.04
0.095
0.315
0.395
0.48
0.535
0.45
0.57
0.32
0.15
-0.17
-0.265
-0.225
-0.275
-0.25
-0.145
-0.11
-0.06
-0.205
-0.285
-0.44
-0.37
-0.325
-0.31
-0.21
-0.125
-0.095
-0.065
-0.115
-0.155
-0.455
-0.36
-0.285
-0.255
-0.145
-0.09
-0.025
0.0
-0.195
-0.19
-0.48
-0.26
-0.27
-0.26
-0.18
-0.065
0.03
0.025
-0.085
-0.225
-0.475
-0.355
-0.28
-0.225
-0.165
-0.12
0.005
0.005
-0.14
-0.27
-0.405
-0.31
-0.295
-0.225
-0.13
-0.155
0.02
-0.015
-0.125
-0.205
-0.4
-0.305
-0.235
-0.16
-0.165
-0.045
0.065
0.025
-0.165
-0.24
-0.39
-0.215
-0.35
-0.225
-0.095
-0.06
0.09
0.065
-0.105
-0.33
-0.455
-0.215
-0.23
-0.155
-0.045
-0.045
0.045
0.01
-0.11
-0.275
-0.385
-0.215
-0.22
-0.125
-0.045
-0.075
0.075
0.05
-0.12
-0.225
-0.325
-0.135
-0.13
-0.085
0.01
-0.03
0.15
0.125
0.005
-0.23
-0.345
-0.13
-0.13
-0.04
0.005
0.07
0.225
0.085
-0.025
-0.2
-0.275
-0.135
-0.14
-0.02
0.035
0.05
0.18
0.1
-0.015
-0.235
-0.185
-0.155
-0.16
-0.065
0.01
-0.02
0.14
0.02
-0.095
-0.33
-0.33
-0.19
-0.17
-0.11
-0.035
-0.04
0.08
-0.015
-0.155
-0.375
-0.43
-0.245
-0.25
-0.17
-0.055
-0.055
0.06
-0.065
-0.15
-0.42
-0.37
-0.255
-0.28
-0.175
-0.11
-0.1
0.07
-0.095
-0.175
-0.46
-0.36
-0.3
-0.27
-0.225
-0.07
-0.065
0.01
-0.145
-0.17
-0.405
-0.4
-0.25
-0.285
-0.22
-0.155
-0.075
-0.035
-0.155
-0.185
-0.38
-0.335
-0.25
-0.24
-0.185
-0.125
-0.06
0.03
-0.12
-0.285
-0.445
-0.36
-0.31
-0.21
-0.15
-0.08
0.06
0.0
-0.16
-0.225
-0.515
-0.335
-0.26
-0.265
-0.12
-0.085
0.0
-0.01
-0.145
-0.265
-0.51
-0.28
-0.24
-0.195
-0.085
-0.14
0.065
0.015
-0.16
-0.31
-0.485
-0.325
-0.25
-0.245
-0.13
-0.105
0.025
-0.025
-0.17
-0.28
-0.51
-0.31
-0.245
-0.17
-0.145
-0.135
0.03
-0.005
-0.195
-0.3
-0.465
-0.295
-0.255
-0.27
-0.175
-0.075
0.02
-0.015
-0.145
-0.32
-0.455
-0.305
-0.265
-0.29
-0.135
-0.13
0.1
-0.025
-0.165
-0.41
-0.47
-0.285
-0.25
-0.235
-0.145
-0.09
-0.015
-0.035
-0.17
-0.325
-0.4
-0.33
-0.3
-0.24
-0.145
-0.11
0.03
-0.095
-0.17
-0.37
-0.39
-0.235
-0.25
-0.2
-0.14
-0.02
0.05
-0.05
-0.145
-0.29
-0.4
-0.265
-0.275
-0.18
-0.07
-0.025
0.105
-0.005
-0.165
-0.35
-0.355
-0.245
-0.205
-0.15
-0.14
-0.105
0.015
-0.085
-0.205
-0.405
-0.33
-0.355
-0.245
-0.215
-0.12
-0.03
-0.035
-0.16
-0.245
-0.43
-0.39
-0.315
-0.245
-0.215
-0.185
-0.08
-0.01
-0.08
-0.205
-0.435
-0.36
-0.275
-0.255
-0.205
-0.145
-0.07
-0.05
-0.165
-0.215
-0.495
-0.33
-0.265
-0.275
-0.215
-0.14
-0.05
-0.025
-0.17
-0.27
-0.465
-0.385
-0.32
-0.31
-0.235
-0.205
-0.1
-0.03
-0.115
-0.125
-0.265
0.0
0.125
0.18
0.305
0.475
0.64
0.68
0.55
0.375
0.035
0.09
0.12
0.065
0.025
-0.06
0.025
-0.005
-0.165
-0.375
-0.49
-0.345
-0.335
-0.315
-0.19
-0.155
-0.05
-0.005
-0.14
-0.39
-0.475
-0.29
-0.275
-0.23
-0.095
-0.09
0.025
0.01
-0.19
-0.305
-0.495
-0.28
-0.295
-0.28
-0.1
-0.1
0.02
-0.03
-0.175
-0.35
-0.46
-0.265
-0.275
-0.205
-0.135
-0.1
0.04
-0.06
-0.21
-0.37
-0.46
-0.255
-0.24
-0.235
-0.09
-0.145
0.05
0.02
-0.14
-0.34
-0.44
-0.235
-0.24
-0.2
-0.155
-0.14
0.055
-0.045
-0.165
-0.315
-0.44
-0.285
-0.235
-0.14
-0.11
-0.02
0.065
-0.03
-0.17
-0.355
-0.365
-0.305
-0.27
-0.12
-0.075
-0.09
0.085
-0.02
-0.065
-0.32
-0.33
-0.23
-0.22
-0.145
-0.03
-0.025
0.145
-0.025
-0.095
-0.325
-0.29
-0.185
-0.17
-0.125
0.03
0.055
0.165
0.05
-0.09
-0.4
-0.155
-0.085
-0.13
-0.075
0.005
0.115
0.165
0.005
-0.105
-0.295
-0.195
-0.125
-0.075
-0.095
0.08
0.155
0.145
0.025
-0.02
-0.27
-0.195
-0.115
-0.06
-0.08
0.04
0.15
0.09
0.0
-0.08
-0.29
-0.19
-0.145
-0.1
-0.09
-0.03
0.085
0.02
-0.065
-0.22
-0.41
-0.255
-0.24
-0.22
-0.115
-0.11
0.07
-0.01
-0.115
-0.235
-0.43
-0.295
-0.25
-0.245
-0.145
-0.11
0.075
-0.03
-0.125
-0.335
-0.485
-0.305
-0.265
-0.225
-0.145
-0.135
0.005
-0.03
-0.1
-0.295
-0.475
-0.35
-0.295
-0.18
-0.12
-0.125
-0.03
0.0
-0.145
-0.35
-0.51
-0.315
-0.25
-0.235
-0.19
-0.105
0.08
-0.035
-0.095
-0.385
-0.49
-0.305
-0.28
-0.21
-0.13
-0.11
0.025
0.01
-0.19
-0.315
-0.505
-0.32
-0.3
-0.2
-0.1
-0.115
0.04
-0.035
-0.145
-0.36
-0.455
-0.235
-0.285
-0.16
-0.1
-0.11
0.045
-0.035
-0.16
-0.455
-0.435
-0.285
-0.275
-0.17
-0.135
-0.105
-0.01
-0.075
-0.18
-0.385
-0.4
-0.24
-0.24
-0.205
-0.085
-0.1
0.04
-0.105
-0.145
-0.41
-0.375
-0.27
-0.295
-0.21
-0.1
-0.075
0.045
-0.105
-0.205
-0.37
-0.375
-0.315
-0.25
-0.235
-0.125
-0.065
0.015
-0.155
-0.19
-0.425
-0.29
-0.235
-0.255
-0.22
-0.105
-0.07
-0.015
-0.07
-0.17
-0.38
-0.39
-0.32
-0.21
-0.125
-0.075
0.05
0.075
-0.08
-0.115
-0.35
-0.265
-0.21
-0.205
-0.18
-0.115
0.04
0.05
-0.065
-0.195
-0.43
-0.225
-0.23
-0.15
-0.14
-0.085
0.085
0.065
-0.125
-0.225
-0.445
-0.335
-0.225
-0.255
-0.09
-0.08
0.03
-0.005
-0.145
-0.225
-0.5
-0.335
-0.245
-0.23
-0.12
-0.135
0.05
0.055
-0.14
-0.3
-0.43
-0.305
-0.24
-0.25
-0.095
-0.08
0.065
0.0
-0.16
-0.32
-0.435
-0.235
-0.25
-0.225
-0.065
-0.035
0.02
-0.005
-0.065
-0.255
-0.365
-0.26
-0.295
-0.22
-0.19
-0.15
-0.035
-0.055
-0.165
-0.35
-0.37
-0.1
-0.085
0.08
0.235
0.305
0.505
0.46
0.445
0.26
0.095
0.225
0.14
0.23
0.23
0.195
0.225
0.075
-0.085
-0.26
-0.405
-0.265
-0.34
-0.215
-0.145
-0.12
0.025
-0.025
-0.2
-0.34
-0.36
-0.15
-0.155
-0.15
-0.04
-0.01
0.075
0.025
-0.1
-0.345
-0.29
-0.185
-0.17
-0.175
-0.08
-0.035
0.125
-0.04
-0.09
-0.33
-0.29
-0.24
-0.165
-0.085
0.01
0.005
0.115
0.04
-0.045
-0.305
-0.295
-0.195
-0.175
-0.125
0.05
0.07
0.16
-0.035
-0.06
-0.305
-0.195
-0.185
-0.135
-0.055
0.005
0.085
0.175
0.045
-0.065
-0.305
-0.18
-0.165
-0.125
-0.045
0.01
0.14
0.215
0.05
-0.06
-0.3
-0.17
-0.095
-0.07
0.0
0.035
0.09
0.22
0.08
0.025
-0.3
-0.175
-0.085
-0.085
0.06
0.115
0.21
0.25
0.06
-0.08
-0.285
-0.115
-0.05
0.0
0.045
0.015
0.305
0.255
0.13
0.02
-0.175
-0.09
-0.025
0.045
0.145
0.17
0.335
0.265
0.065
-0.01
-0.22
-0.015
0.04
0.075
0.125
0.105
0.295
0.24
0.1
-0.045
-0.235
0.03
0.04
0.045
0.17
0.115
0.27
0.24
0.07
-0.08
-0.175
-0.065
-0.01
0.015
0.09
0.14
0.245
0.17
0.085
-0.155
-0.27
-0.155
-0.15
-0.04
0.03
0.06
0.23
0.08
-0.045
-0.155
-0.385
-0.13
-0.08
-0.06
0.025
0.04
0.175
0.055
-0.03
-0.19
-0.32
-0.145
-0.14
-0.1
0.01
0.0
0.135
0.095
-0.07
-0.265
-0.27
-0.165
-0.12
-0.055
0.015
0.03
0.19
0.02
-0.035
-0.245
-0.29
-0.175
-0.135
-0.08
0.04
0.06
0.185
0.04
-0.045
-0.28
-0.3
-0.13
-0.07
-0.065
0.02
-0.005
0.155
-0.005
-0.085
-0.275
-0.205
-0.14
-0.08
-0.09
0.01
0.045
0.1
0.035
-0.055
-0.315
-0.18
-0.135
-0.16
-0.08
0.05
0.1
0.125
0.055
-0.045
-0.32
-0.215
-0.125
-0.1
-0.06
0.025
0.095
0.16
0.025
-0.06
-0.29
-0.23
-0.185
-0.115
-0.11
0.045
0.165
0.13
0.03
-0.085
-0.3
-0.185
-0.16
-0.12
-0.05
-0.01
0.115
0.13
-0.01
-0.145
-0.335
-0.21
-0.115
-0.07
0.05
-0.015
0.145
0.14
-0.065
-0.16
-0.32
-0.155
-0.135
-0.115
0.02
0.02
0.215
0.145
0.005
-0.155
-0.32
-0.145
-0.1
-0.11
0.02
0.07
0.2
0.11
0.03
-0.21
-0.31
-0.09
-0.16
-0.105
0.07
0.08
0.21
0.18
0.015
-0.205
-0.305
-0.21
-0.175
-0.065
0.015
-0.005
0.12
0.065
-0.08
-0.19
-0.365
-0.175
-0.15
-0.14
-0.01
-0.01
0.175
-0.005
-0.04
-0.24
-0.41
-0.21
-0.19
-0.065
-0.055
-0.045
0.12
0.075
-0.095
-0.3
-0.36
-0.105
-0.175
-0.125
0.005
0.01
0.135
0.04
-0.115
-0.31
-0.28
-0.175
-0.22
-0.1
-0.085
-0.02
0.115
0.015
-0.11
-0.33
-0.345
-0.24
-0.245
-0.095
0.045
0.185
0.38
0.37
0.295
0.14
0.215
0.34
0.385
0.4
0.51
0.5
0.56
0.26
0.145
-0.16
-0.13
-0.125
-0.15
-0.105
-0.015
0.015
0.02
-0.045
-0.11
-0.405
-0.27
-0.2
-0.17
-0.145
-0.015
0.06
0.15
0.0
-0.07
-0.315
-0.33
-0.2
-0.125
-0.09
0.05
0.055
0.08
-0.005
-0.055
-0.345
-0.215
-0.185
-0.15
-0.02
-0.015
0.125
0.15
-0.03
-0.07
-0.365
-0.185
-0.155
-0.18
-0.05
0.03
0.16
0.09
-0.015
-0.11
-0.28
-0.245
-0.16
-0.095
0.02
-0.02
0.14
0.08
0.005
-0.145
-0.33
-0.21
-0.125
-0.07
0.055
0.0
0.15
0.115
0.01
-0.25
-0.32
-0.15
-0.19
-0.11
-0.005
0.055
0.185
0.11
-0.01
-0.145
-0.275
-0.17
-0.13
-0.03
0.035
0.065
0.17
0.1
0.035
-0.16
-0.325
-0.075
-0.1
-0.055
0.055
0.11
0.22
0.145
0.06
-0.14
-0.265
-0.08
-0.065
0.015
0.035
0.115
0.255
0.2
0.05
-0.13
-0.26
-0.055
-0.015
0.04
0.08
0.105
0.29
0.21
0.075
-0.115
-0.225
-0.02
-0.035
0.055
0.1
0.1
0.275
0.165
0.035
-0.175
-0.2
-0.06
-0.06
0.01
0.125
0.04
0.28
0.13
0.025
-0.235
-0.225
-0.11
-0.13
-0.035
0.065
0.03
0.125
0.02
-0.02
-0.34
-0.215
-0.135
-0.17
-0.09
-0.01
0.055
0.145
0.035
-0.115
-0.32
-0.255
-0.15
-0.13
-0.105
-0.05
0.065
0.155
-0.03
-0.07
-0.305
-0.275
-0.17
-0.135
-0.125
0.01
0.06
0.11
-0.05
-0.085
-0.32
-0.235
-0.14
-0.105
-0.105
-0.03
0.105
0.12
-0.035
-0.15
-0.365
-0.31
-0.225
-0.12
-0.05
-0.015
0.115
0.07
-0.025
-0.07
-0.375
-0.18
-0.19
-0.14
-0.02
-0.05
0.055
0.11
-0.02
-0.14
-0.37
-0.2
-0.185
-0.165
0.015
0.03
0.095
0.02
-0.045
-0.22
-0.35
-0.21
-0.19
-0.17
-0.07
0.015
0.085
0.105
-0.09
-0.23
-0.375
-0.215
-0.175
-0.155
-0.01
0.065
0.095
0.07
-0.035
-0.22
-0.405
-0.18
-0.17
-0.185
-0.03
0.02
0.105
0.04
-0.09
-0.25
-0.37
-0.23
-0.225
-0.15
-0.085
0.005
0.105
0.025
-0.105
-0.21
-0.36
-0.265
-0.175
-0.095
0.04
-0.01
0.1
0.005
-0.055
-0.26
-0.415
-0.175
-0.225
-0.18
-0.045
0.035
0.1
0.04
-0.05
-0.175
-0.325
-0.125
-0.14
-0.08
0.005
-0.015
0.18
0.12
-0.065
-0.26
-0.345
-0.16
-0.175
-0.065
-0.015
-0.025
0.12
0.035
0.005
-0.285
-0.255
-0.165
-0.205
-0.125
-0.04
0.005
0.105
-0.015
-0.14
-0.415
-0.275
-0.2
-0.225
-0.135
-0.05
-0.04
0.12
-0.03
-0.115
-0.4
-0.275
-0.215
-0.23
-0.125
-0.075
0.04
0.06
-0.065
-0.12
-0.335
-0.285
-0.21
-0.21
-0.195
-0.08
-0.03
0.03
-0.065
-0.115
-0.38
-0.285
-0.245
-0.21
-0.105
-0.04
-0.015
-0.025
-0.155
-0.25
-0.5
-0.3
-0.24
-0.15
-0.015
0.155
0.34
0.355
0.3
0.25
0.175
0.34
0.37
0.395
0.475
0.385
0.47
0.38
0.125
-0.075
-0.285
-0.165
-0.19
-0.185
-0.135
-0.045
0.035
-0.055
-0.135
-0.26
-0.46
-0.325
-0.265
-0.115
-0.08
-0.06
0.06
0.015
-0.08
-0.27
-0.43
-0.205
-0.17
-0.145
-0.1
-0.015
0.085
0.02
-0.125
-0.195
-0.375
-0.3
-0.265
-0.075
-0.075
-0.07
0.085
0.08
-0.145
-0.24
-0.415
-0.215
-0.155
-0.1
-0.005
-0.01
0.115
0.025
-0.095
-0.285
-0.405
-0.235
-0.215
-0.14
-0.055
-0.045
0.085
0.045
-0.08
-0.28
-0.35
-0.215
-0.175
-0.125
-0.005
0.0
0.11
-0.005
-0.09
-0.3
-0.365
-0.19
-0.24
-0.125
0.0
0.005
0.13
-0.02
-0.05
-0.31
-0.27
-0.175
-0.095
-0.145
-0.01
0.05
0.13
0.03
-0.09
-0.315
-0.205
-0.165
-0.205
-0.11
0.02
0.065
0.23
0.06
-0.035
-0.245
-0.235
-0.07
-0.06
-0.03
-0.005
0.105
0.195
0.05
0.02
-0.24
-0.155
-0.12
-0.12
-0.025
0.075
0.165
0.245
0.105
-0.03
-0.31
-0.15
-0.05
-0.035
0.03
0.07
0.155
0.13
0.005
-0.06
-0.285
-0.17
-0.075
-0.055
-0.01
-0.01
0.16
0.205
0.075
-0.055
-0.27
-0.25
-0.22
-0.155
-0.05
-0.055
0.04
0.09
-0.02
-0.145
-0.395
-0.245
-0.19
-0.14
-0.035
-0.005
0.1
-0.04
-0.13
-0.245
-0.415
-0.22
-0.24
-0.255
-0.045
-0.005
0.055
0.025
-0.13
-0.235
-0.425
-0.285
-0.235
-0.195
-0.1
-0.025
0.105
0.015
-0.145
-0.32
-0.41
-0.26
-0.205
-0.155
-0.075
-0.05
0.075
-0.045
-0.12
-0.32
-0.44
-0.245
-0.24
-0.21
-0.075
-0.05
0.1
0.0
-0.11
-0.305
-0.435
-0.235
-0.225
-0.215
-0.095
-0.13
0.075
0.01
-0.135
-0.305
-0.43
-0.225
-0.28
-0.19
-0.065
-0.075
0.035
-0.015
-0.18
-0.365
-0.465
-0.265
-0.29
-0.225
-0.135
-0.1
0.005
-0.18
-0.185
-0.46
-0.505
-0.385
-0.45
-0.395
-0.3
-0.31
-0.185
-0.32
-0.5
-0.79
-0.82
-0.75
-0.8
-0.715
-0.655
-0.755
-0.64
-0.735
-0.835
-1.055
-1.045
-0.935
-0.98
-0.925
-0.855
-0.75
-0.625
-0.77
-0.805
-1.075
-1.01
-0.825
-0.815
-0.75
-0.645
-0.57
-0.46
-0.6
-0.72
-0.85
-0.775
-0.69
-0.655
-0.555
-0.445
-0.415
-0.375
-0.505
-0.6
-0.795
-0.68
-0.59
-0.6
-0.56
-0.435
-0.345
-0.325
-0.44
-0.51
-0.74
-0.63
-0.595
-0.55
-0.47
-0.44
-0.315
-0.29
-0.44
-0.51
-0.77
-0.64
-0.545
-0.535
-0.455
-0.425
-0.295
-0.315
-0.45
-0.595
-0.775
-0.65
-0.59
-0.585
-0.4
-0.41
-0.305
-0.335
-0.48
-0.59
-0.765
-0.56
-0.54
-0.56
-0.45
-0.425
-0.245
-0.33
-0.45
-0.575
-0.765
-0.6
-0.56
-0.505
-0.38
-0.395
-0.275
-0.355
-0.525
-0.695
-0.835
-0.695
-0.57
-0.45
-0.295
-0.155
0.08
0.005
-0.015
-0.085
-0.13
0.12
0.2
0.235
0.29
0.265
0.325
0.17
-0.03
-0.305
-0.495
-0.44
-0.475
-0.445
-0.4
-0.385
-0.235
-0.35
-0.41
-0.64
-0.885
-0.605
-0.615
-0.57
-0.475
-0.455
-0.305
-0.38
-0.495
-0.715
-0.725
-0.605
-0.69
-0.55
-0.425
-0.46
-0.32
-0.405
-0.505
-0.745
-0.79
-0.66
-0.615
-0.545
-0.5
-0.485
-0.38
-0.535
-0.585
-0.81
-0.78
-0.655
-0.655
-0.6
-0.52
-0.49
-0.385
-0.49
-0.62
-0.855
-0.79
-0.665
-0.655
-0.625
-0.52
-0.47
-0.375
-0.47
-0.61
-0.865
-0.75
-0.685
-0.665
-0.57
-0.44
-0.5
-0.36
-0.485
-0.575
-0.84
-0.7
-0.585
-0.6
-0.58
-0.495
-0.37
-0.36
-0.47
-0.575
-0.815
-0.645
-0.625
-0.605
-0.53
-0.455
-0.37
-0.32
-0.425
-0.485
-0.805
-0.675
-0.555
-0.55
-0.485
-0.43
-0.315
-0.28
-0.41
-0.505
-0.72
-0.615
-0.56
-0.5
-0.37
-0.395
-0.24
-0.255
-0.4
-0.52
-0.685
-0.505
-0.535
-0.47
-0.33
-0.35
-0.225
-0.23
-0.375
-0.525
-0.685
-0.545
-0.55
-0.44
-0.315
-0.35
-0.265
-0.225
-0.365
-0.525
-0.72
-0.54
-0.525
-0.445
-0.42
-0.375
-0.245
-0.31
-0.43
-0.62
-0.72
-0.59
-0.575
-0.54
-0.45
-0.44
-0.325
-0.405
-0.51
-0.75
-0.77
-0.575
-0.63
-0.615
-0.475
-0.44
-0.29
-0.395
-0.54
-0.755
-0.835
-0.65
-0.645
-0.575
-0.575
-0.55
-0.42
-0.445
-0.62
-0.725
-0.8
-0.71
-0.695
-0.645
-0.56
-0.515
-0.315
-0.515
-0.57
-0.79
-0.825
-0.73
-0.76
-0.78
-0.685
-0.68
-0.545
-0.685
-0.83
-1.0
-1.0
-0.925
-0.89
-0.8
-0.78
-0.83
-0.69
-0.84
-0.975
-1.22
-1.23
-1.14
-1.15
-1.115
-1.04
-1.02
-0.91
-1.025
-1.12
-1.345
-1.31
-1.18
-1.17
-1.105
-1.025
-0.965
-0.89
-1.02
-1.065
-1.26
-1.19
-1.135
-1.08
-1.075
-0.925
-0.86
-0.845
-0.94
-1.02
-1.24
-1.15
-1.09
-1.065
-1.05
-0.915
-0.865
-0.845
-0.98
-1.03
-1.255
-1.185
-1.085
-1.05
-0.955
-0.935
-0.85
-0.755
-0.91
-1.035
-1.25
-1.08
-1.1
-1.005
-0.915
-0.865
-0.735
-0.78
-0.92
-0.985
-1.195
-1.065
-0.985
-0.96
-0.86
-0.825
-0.705
-0.71
-0.84
-0.945
-1.16
-1.04
-0.965
-0.91
-0.775
-0.755
-0.655
-0.69
-0.78
-0.985
-1.14
-1.0
-0.925
-0.865
-0.765
-0.76
-0.62
-0.66
-0.75
-0.915
-1.055
-0.9
-0.85
-0.815
-0.67
-0.64
-0.49
-0.63
-0.71
-0.835
-1.015
-0.84
-0.77
-0.71
-0.63
-0.635
-0.415
-0.475
-0.57
-0.8
-0.925
-0.76
-0.695
-0.615
-0.565
-0.485
-0.33
-0.465
-0.52
-0.705
-0.83
-0.68
-0.655
-0.525
-0.45
-0.41
-0.265
-0.445
-0.53
-0.68
-0.78
-0.54
-0.565
-0.44
-0.395
-0.375
-0.19
-0.245
-0.4
-0.61
-0.67
-0.54
-0.51
-0.505
-0.41
-0.385
-0.21
-0.32
-0.41
-0.62
-0.63
-0.575
-0.48
-0.425
-0.41
-0.38
-0.21
-0.29
-0.465
-0.645
-0.65
-0.57
-0.47
-0.4
-0.355
-0.275
-0.17
-0.275
-0.41
-0.65
-0.57
-0.485
-0.48
-0.415
-0.33
-0.24
-0.215
-0.32
-0.475
-0.595
-0.52
-0.51
-0.47
-0.385
-0.32
-0.27
-0.29
-0.415
-0.48
-0.69
-0.57
-0.455
-0.265
-0.15
0.035
0.12
0.29
0.2
0.2
0.05
0.26
0.34
0.285
0.22
0.205
0.24
0.155
-0.085
-0.25
-0.535
-0.37
-0.35
-0.38
-0.355
-0.265
-0.05
-0.135
-0.33
-0.375
-0.55
-0.41
-0.395
-0.37
-0.275
-0.245
-0.135
-0.14
-0.245
-0.43
-0.625
-0.455
-0.42
-0.33
-0.245
-0.235
-0.105
-0.15
-0.265
-0.405
-0.555
-0.45
-0.405
-0.37
-0.255
-0.27
-0.075
-0.155
-0.265
-0.405
-0.605
-0.415
-0.415
-0.345
-0.245
-0.215
-0.08
-0.13
-0.27
-0.4
-0.565
-0.38
-0.38
-0.345
-0.215
-0.195
-0.04
-0.11
-0.265
-0.53
-0.55
-0.355
-0.335
-0.295
-0.215
-0.175
-0.03
-0.095
-0.245
-0.39
-0.505
-0.37
-0.38
-0.295
-0.185
-0.22
-0.05
-0.095
-0.24
-0.4
-0.485
-0.355
-0.345
-0.275
-0.185
-0.18
0.0
-0.075
-0.195
-0.39
-0.44
-0.33
-0.295
-0.175
-0.12
-0.155
-0.035
-0.075
-0.18
-0.4
-0.435
-0.235
-0.23
-0.145
-0.14
-0.075
0.05
-0.05
-0.15
-0.385
-0.29
-0.265
-0.23
-0.11
-0.08
-0.12
0.085
-0.045
-0.13
-0.355
-0.345
-0.185
-0.185
-0.215
-0.085
-0.025
0.06
-0.08
-0.15
-0.385
-0.33
-0.21
-0.215
-0.16
-0.11
-0.02
0.045
-0.11
-0.2
-0.445
-0.325
-0.265
-0.28
-0.195
-0.155
-0.08
-0.04
-0.16
-0.21
-0.545
-0.38
-0.345
-0.265
-0.245
-0.25
-0.07
-0.075
-0.21
-0.295
-0.515
-0.41
-0.33
-0.31
-0.265
-0.155
-0.055
-0.125
-0.18
-0.35
-0.525
-0.415
-0.345
-0.32
-0.2
-0.175
-0.08
-0.11
-0.23
-0.375
-0.54
-0.4
-0.35
-0.33
-0.235
-0.17
-0.095
-0.115
-0.195
-0.425
-0.55
-0.435
-0.325
-0.32
-0.215
-0.185
-0.075
-0.135
-0.275
-0.46
-0.58
-0.33
-0.27
-0.28
-0.235
-0.29
-0.1
-0.135
-0.24
-0.42
-0.55
-0.405
-0.375
-0.345
-0.285
-0.225
-0.04
-0.11
-0.22
-0.43
-0.58
-0.415
-0.335
-0.295
-0.26
-0.25
-0.05
-0.16
-0.295
-0.47
-0.56
-0.37
-0.38
-0.355
-0.265
-0.19
-0.09
-0.18
-0.335
-0.51
-0.575
-0.395
-0.36
-0.35
-0.225
-0.23
-0.11
-0.145
-0.35
-0.5
-0.575
-0.41
-0.405
-0.365
-0.22
-0.265
-0.07
-0.21
-0.315
-0.51
-0.56
-0.37
-0.385
-0.325
-0.205
-0.19
-0.105
-0.26
-0.28
-0.495
-0.505
-0.455
-0.39
-0.28
-0.235
-0.18
-0.15
-0.245
-0.29
-0.53
-0.495
-0.385
-0.365
-0.31
-0.245
-0.21
-0.16
-0.235
-0.295
-0.515
-0.415
-0.37
-0.4
-0.325
-0.195
-0.17
-0.08
-0.19
-0.375
-0.54
-0.42
-0.36
-0.36
-0.275
-0.265
-0.115
-0.12
-0.255
-0.32
-0.525
-0.385
-0.33
-0.405
-0.28
-0.225
-0.13
-0.105
-0.235
-0.265
-0.51
-0.42
-0.32
-0.35
-0.27
-0.195
-0.125
-0.08
-0.175
-0.345
-0.54
-0.385
-0.34
-0.345
-0.25
-0.22
-0.1
-0.095
-0.23
-0.375
-0.535
-0.37
-0.365
-0.375
-0.21
-0.2
-0.06
-0.06
-0.225
-0.38
-0.585
-0.38
-0.34
-0.355
-0.195
-0.16
-0.03
-0.115
-0.2
-0.365
-0.565
-0.32
-0.285
-0.245
-0.175
-0.145
0.015
-0.07
-0.24
-0.31
-0.44
-0.295
-0.27
-0.26
-0.125
-0.15
0.005
-0.01
-0.21
-0.44
-0.535
-0.305
-0.3
-0.25
-0.12
-0.16
-0.01
-0.1
-0.235
-0.44
-0.48
-0.305
-0.335
-0.285
-0.19
-0.215
-0.035
-0.13
-0.225
-0.475
-0.585
-0.365
-0.425
-0.255
-0.2
-0.185
-0.075
-0.145
-0.24
-0.42
-0.485
-0.365
-0.375
-0.3
-0.225
-0.155
-0.065
-0.245
-0.27
-0.475
-0.47
-0.35
-0.36
-0.27
-0.225
-0.24
-0.055
-0.16
-0.22
-0.54
-0.505
-0.44
-0.455
-0.405
-0.32
-0.28
-0.145
-0.14
-0.145
-0.29
-0.11
0.04
0.115
0.19
0.37
0.545
0.68
0.5
0.35
0.135
0.13
0.115
0.0
-0.09
-0.11
-0.035
0.02
-0.13
-0.2
-0.45
-0.36
-0.335
-0.33
-0.24
-0.215
-0.075
-0.105
-0.26
-0.22
-0.485
-0.395
-0.355
-0.31
-0.23
-0.165
-0.07
-0.05
-0.22
-0.29
-0.51
-0.36
-0.315
-0.325
-0.2
-0.165
-0.065
-0.09
-0.205
-0.31
-0.5
-0.4
-0.34
-0.285
-0.2
-0.125
-0.005
-0.115
-0.225
-0.33
-0.525
-0.34
-0.26
-0.29
-0.145
-0.22
-0.055
-0.02
-0.21
-0.365
-0.44
-0.315
-0.33
-0.265
-0.16
-0.15
-0.025
-0.05
-0.16
-0.365
-0.54
-0.325
-0.32
-0.28
-0.18
-0.14
0.01
-0.055
-0.18
-0.365
-0.495
-0.315
-0.31
-0.235
-0.115
-0.11
0.015
-0.085
-0.165
-0.345
-0.46
-0.265
-0.26
-0.295
-0.095
-0.09
0.025
-0.035
-0.145
-0.315
-0.435
-0.265
-0.285
-0.195
-0.03
-0.06
0.045
-0.035
-0.145
-0.265
-0.4
-0.25
-0.22
-0.155
-0.05
-0.06
0.13
-0.045
-0.12
-0.345
-0.335
-0.205
-0.145
-0.17
-0.065
0.0
0.145
-0.015
-0.07
-0.3
-0.265
-0.265
-0.195
-0.105
-0.055
-0.005
0.115
-0.04
-0.11
-0.34
-0.29
-0.285
-0.195
-0.145
-0.065
-0.03
0.045
-0.045
-0.145
-0.375
-0.37
-0.3
-0.195
-0.19
-0.115
-0.09
-0.015
-0.15
-0.22
-0.435
-0.355
-0.28
-0.28
-0.235
-0.11
-0.105
-0.025
-0.135
-0.235
-0.48
-0.385
-0.33
-0.275
-0.24
-0.165
-0.07
-0.03
-0.14
-0.235
-0.485
-0.385
-0.3
-0.32
-0.195
-0.13
-0.07
-0.03
-0.18
-0.26
-0.5
-0.345
-0.295
-0.285
-0.19
-0.18
-0.07
-0.05
-0.145
-0.305
-0.48
-0.375
-0.305
-0.275
-0.2
-0.15
-0.025
-0.075
-0.16
-0.38
-0.485
-0.365
-0.3
-0.24
-0.155
-0.13
0.0
-0.08
-0.225
-0.34
-0.505
-0.335
-0.305
-0.285
-0.17
-0.185
-0.03
-0.055
-0.21
-0.335
-0.51
-0.335
-0.295
-0.29
-0.165
-0.15
-0.01
-0.07
-0.23
-0.4
-0.54
-0.37
-0.3
-0.21
-0.175
-0.12
-0.005
-0.065
-0.245
-0.45
-0.5
-0.315
-0.375
-0.28
-0.215
-0.18
-0.025
-0.08
-0.205
-0.375
-0.465
-0.33
-0.38
-0.34
-0.205
-0.18
-0.05
-0.17
-0.245
-0.45
-0.46
-0.33
-0.37
-0.295
-0.23
-0.145
-0.01
-0.16
-0.285
-0.485
-0.49
-0.36
-0.355
-0.265
-0.2
-0.21
-0.06
-0.17
-0.255
-0.5
-0.465
-0.36
-0.36
-0.275
-0.235
-0.175
-0.035
-0.14
-0.235
-0.505
-0.475
-0.4
-0.305
-0.25
-0.25
-0.165
-0.01
-0.27
-0.27
-0.51
-0.43
-0.33
-0.315
-0.29
-0.255
-0.13
-0.035
-0.185
-0.285
-0.51
-0.435
-0.37
-0.32
-0.26
-0.215
-0.14
-0.06
-0.2
-0.28
-0.525
-0.42
-0.355
-0.32
-0.265
-0.21
-0.11
-0.135
-0.215
-0.27
-0.53
-0.425
-0.355
-0.315
-0.23
-0.165
-0.085
-0.085
-0.23
-0.305
-0.52
-0.345
-0.305
-0.31
-0.18
-0.14
-0.03
-0.08
-0.14
-0.295
-0.47
-0.355
-0.285
-0.26
-0.16
-0.145
-0.045
-0.03
-0.175
-0.395
-0.55
-0.295
-0.295
-0.305
-0.18
-0.13
-0.01
-0.015
-0.18
-0.34
-0.565
-0.425
-0.395
-0.335
-0.265
-0.18
-0.065
-0.09
-0.23
-0.415
-0.55
-0.42
-0.405
-0.33
-0.27
-0.215
-0.125
-0.13
-0.275
-0.455
-0.53
-0.4
-0.395
-0.365
-0.25
-0.215
-0.07
-0.12
-0.3
-0.475
-0.57
-0.4
-0.415
-0.33
-0.26
-0.21
-0.04
-0.18
-0.325
-0.495
-0.625
-0.46
-0.48
-0.44
-0.35
-0.295
-0.15
-0.16
-0.19
-0.305
-0.235
-0.01
0.075
0.225
0.38
0.455
0.635
0.55
0.41
0.12
-0.005
-0.015
-0.095
-0.1
-0.05
-0.12
-0.03
-0.18
-0.275
-0.49
-0.485
-0.445
-0.385
-0.345
-0.245
-0.19
-0.065
-0.15
-0.285
-0.535
-0.49
-0.365
-0.335
-0.285
-0.265
-0.17
-0.055
-0.19
-0.33
-0.545
-0.5
-0.385
-0.385
-0.295
-0.22
-0.15
-0.07
-0.185
-0.32
-0.555
-0.405
-0.38
-0.34
-0.295
-0.235
-0.125
-0.08
-0.245
-0.28
-0.525
-0.415
-0.37
-0.34
-0.275
-0.21
-0.1
-0.105
-0.25
-0.34
-0.495
-0.455
-0.405
-0.345
-0.2
-0.19
-0.095
-0.09
-0.23
-0.35
-0.535
-0.39
-0.34
-0.37
-0.205
-0.135
-0.07
-0.07
-0.18
-0.39
-0.535
-0.38
-0.3
-0.315
-0.22
-0.15
-0.025
-0.05
-0.17
-0.375
-0.52
-0.36
-0.295
-0.285
-0.195
-0.12
-0.025
-0.05
-0.195
-0.335
-0.505
-0.305
-0.25
-0.225
-0.175
-0.105
-0.005
-0.03
-0.17
-0.35
-0.455
-0.27
-0.24
-0.215
-0.09
-0.08
0.055
0.015
-0.115
-0.315
-0.47
-0.255
-0.28
-0.195
-0.08
-0.06
0.075
-0.01
-0.135
-0.29
-0.45
-0.235
-0.245
-0.2
-0.13
-0.09
0.065
-0.02
-0.15
-0.315
-0.36
-0.27
-0.305
-0.2
-0.14
-0.1
-0.05
-0.13
-0.21
-0.385
-0.46
-0.33
-0.35
-0.3
-0.215
-0.18
-0.02
-0.095
-0.225
-0.545
-0.525
-0.355
-0.36
-0.285
-0.21
-0.205
-0.065
-0.19
-0.265
-0.495
-0.475
-0.37
-0.34
-0.28
-0.21
-0.175
-0.075
-0.23
-0.26
-0.5
-0.42
-0.35
-0.315
-0.285
-0.2
-0.17
-0.02
-0.175
-0.37
-0.515
-0.405
-0.335
-0.345
-0.22
-0.185
-0.205
-0.07
-0.2
-0.25
-0.495
-0.45
-0.365
-0.315
-0.28
-0.22
-0.11
-0.08
-0.2
-0.25
-0.555
-0.445
-0.31
-0.315
-0.265
-0.21
-0.12
-0.045
-0.185
-0.285
-0.465
-0.375
-0.35
-0.285
-0.26
-0.195
-0.07
-0.01
-0.145
-0.34
-0.515
-0.36
-0.34
-0.29
-0.16
-0.135
-0.1
-0.07
-0.195
-0.35
-0.52
-0.36
-0.33
-0.275
-0.195
-0.185
-0.08
-0.08
-0.23
-0.37
-0.51
-0.385
-0.34
-0.28
-0.17
-0.205
-0.05
-0.175
-0.23
-0.355
-0.54
-0.385
-0.345
-0.33
-0.205
-0.23
-0.07
-0.105
-0.2
-0.38
-0.54
-0.355
-0.375
-0.34
-0.185
-0.175
-0.045
-0.13
-0.24
-0.415
-0.51
-0.33
-0.355
-0.28
-0.185
-0.18
-0.05
-0.135
-0.27
-0.43
-0.54
-0.335
-0.315
-0.295
-0.23
-0.195
-0.05
-0.135
-0.21
-0.415
-0.515
-0.36
-0.385
-0.305
-0.185
-0.18
-0.04
-0.14
-0.255
-0.525
-0.485
-0.37
-0.325
-0.275
-0.27
-0.185
-0.03
-0.19
-0.285
-0.42
-0.47
-0.335
-0.34
-0.29
-0.245
-0.205
-0.055
-0.165
-0.255
-0.46
-0.42
-0.31
-0.375
-0.315
-0.115
-0.205
-0.08
-0.12
-0.22
-0.46
-0.445
-0.365
-0.325
-0.265
-0.205
-0.1
0.01
-0.195
-0.29
-0.49
-0.435
-0.34
-0.335
-0.29
-0.21
-0.15
-0.06
-0.2
-0.28
-0.545
-0.395
-0.345
-0.32
-0.25
-0.175
-0.12
-0.04
-0.2
-0.28
-0.505
-0.375
-0.32
-0.29
-0.22
-0.145
-0.07
-0.015
-0.125
-0.295
-0.49
-0.375
-0.27
-0.21
-0.16
-0.14
-0.05
-0.02
-0.135
-0.26
-0.48
-0.32
-0.315
-0.28
-0.185
-0.175
-0.105
0.01
-0.155
-0.29
-0.525
-0.355
-0.28
-0.25
-0.17
-0.175
-0.045
-0.135
-0.185
-0.34
-0.6
-0.425
-0.395
-0.32
-0.2
-0.2
-0.09
-0.11
-0.22
-0.425
-0.59
-0.43
-0.425
-0.34
-0.18
-0.165
-0.04
-0.12
-0.305
-0.425
-0.56
-0.4
-0.36
-0.3
-0.2
-0.21
-0.085
-0.1
-0.34
-0.475
-0.58
-0.435
-0.39
-0.305
-0.255
-0.335
-0.125
-0.205
-0.34
-0.505
-0.59
-0.335
-0.245
-0.095
0.085
0.2
0.38
0.335
0.375
0.27
0.21
0.4
0.345
0.365
0.275
0.185
0.27
0.05
-0.13
-0.42
-0.53
-0.4
-0.36
-0.27
-0.245
-0.205
-0.09
-0.2
-0.305
-0.505
-0.495
-0.395
-0.375
-0.285
-0.215
-0.22
-0.065
-0.155
-0.285
-0.5
-0.455
-0.355
-0.355
-0.35
-0.195
-0.17
-0.06
-0.16
-0.27
-0.505
-0.51
-0.425
-0.325
-0.29
-0.19
-0.155
-0.045
-0.165
-0.255
-0.515
-0.435
-0.35
-0.325
-0.275
-0.19
-0.165
-0.025
-0.15
-0.29
-0.55
-0.395
-0.32
-0.325
-0.285
-0.17
-0.045
-0.055
-0.22
-0.28
-0.5
-0.4
-0.34
-0.3
-0.285
-0.175
-0.075
-0.005
-0.165
-0.275
-0.545
-0.37
-0.335
-0.29
-0.225
-0.165
-0.055
-0.025
-0.23
-0.3
-0.47
-0.365
-0.295
-0.265
-0.15
-0.13
-0.01
-0.01
-0.11
-0.3
-0.465
-0.385
-0.25
-0.205
-0.115
-0.125
0.07
0.0
-0.19
-0.315
-0.435
-0.24
-0.245
-0.25
-0.105
-0.045
0.135
-0.045
-0.11
-0.235
-0.395
-0.255
-0.22
-0.155
-0.09
-0.035
0.1
0.07
-0.075
-0.27
-0.365
-0.22
-0.235
-0.19
-0.04
-0.025
0.115
0.08
-0.105
-0.34
-0.395
-0.235
-0.18
-0.135
-0.08
-0.115
0.085
-0.025
-0.14
-0.315
-0.395
-0.29
-0.315
-0.215
-0.15
-0.12
0.05
-0.08
-0.22
-0.39
-0.47
-0.33
-0.295
-0.28
-0.21
-0.195
0.045
-0.14
-0.235
-0.44
-0.51
-0.365
-0.355
-0.305
-0.21
-0.18
-0.03
-0.17
-0.27
-0.45
-0.475
-0.375
-0.355
-0.295
-0.22
-0.235
-0.035
-0.215
-0.29
-0.44
-0.455
-0.41
-0.35
-0.3
-0.225
-0.165
-0.03
-0.23
-0.325
-0.495
-0.4
-0.36
-0.33
-0.275
-0.2
-0.14
-0.05
-0.19
-0.27
-0.54
-0.42
-0.36
-0.34
-0.315
-0.195
-0.105
-0.065
-0.195
-0.26
-0.485
-0.445
-0.365
-0.325
-0.32
-0.105
-0.115
-0.1
-0.17
-0.24
-0.515
-0.395
-0.345
-0.375
-0.245
-0.18
-0.09
-0.06
-0.21
-0.305
-0.56
-0.45
-0.345
-0.285
-0.215
-0.195
-0.08
-0.095
-0.22
-0.34
-0.545
-0.39
-0.335
-0.37
-0.215
-0.205
-0.105
-0.155
-0.235
-0.39
-0.52
-0.385
-0.315
-0.32
-0.26
-0.195
-0.105
-0.105
-0.27
-0.41
-0.56
-0.43
-0.355
-0.295
-0.19
-0.13
-0.06
-0.06
-0.235
-0.485
-0.575
-0.38
-0.365
-0.31
-0.205
-0.205
-0.095
-0.105
-0.28
-0.46
-0.53
-0.355
-0.405
-0.33
-0.22
-0.19
-0.075
-0.125
-0.265
-0.455
-0.555
-0.39
-0.405
-0.345
-0.265
-0.195
-0.02
-0.1
-0.245
-0.46
-0.54
-0.395
-0.37
-0.37
-0.28
-0.2
-0.065
-0.14
-0.275
-0.485
-0.555
-0.34
-0.37
-0.305
-0.165
-0.155
-0.035
-0.17
-0.25
-0.445
-0.46
-0.37
-0.37
-0.295
-0.21
-0.205
-0.055
-0.16
-0.265
-0.54
-0.465
-0.31
-0.355
-0.28
-0.195
-0.135
-0.09
-0.155
-0.22
-0.48
-0.43
-0.33
-0.31
-0.315
-0.18
-0.055
0.065
-0.145
-0.225
-0.44
-0.315
-0.265
-0.27
-0.205
-0.145
-0.08
0.045
-0.13
-0.215
-0.405
-0.355
-0.285
-0.3
-0.18
-0.115
-0.13
-0.035
-0.14
-0.195
-0.43
-0.33
-0.3
-0.315
-0.225
-0.18
-0.11
-0.08
-0.195
-0.28
-0.505
-0.415
-0.35
-0.33
-0.265
-0.175
-0.075
-0.1
-0.23
-0.365
-0.525
-0.4
-0.38
-0.375
-0.265
-0.14
-0.075
-0.085
-0.235
-0.36
-0.525
-0.415
-0.385
-0.345
-0.23
-0.22
-0.07
-0.115
-0.255
-0.39
-0.555
-0.41
-0.365
-0.41
-0.375
-0.34
-0.17
-0.22
-0.305
-0.37
-0.455
-0.125
0.035
0.135
0.3
0.395
0.73
0.775
0.665
0.495
0.295
0.345
0.31
0.24
0.17
0.04
0.085
-0.015
-0.195
-0.405
-0.55
-0.425
-0.32
-0.325
-0.255
-0.21
-0.06
-0.11
-0.29
-0.43
-0.52
-0.355
-0.365
-0.28
-0.225
-0.175
-0.01
-0.11
-0.3
-0.435
-0.525
-0.365
-0.315
-0.305
-0.2
-0.2
0.0
-0.135
-0.31
-0.43
-0.485
-0.345
-0.345
-0.3
-0.185
-0.195
-0.035
-0.115
-0.265
-0.425
-0.495
-0.3
-0.35
-0.275
-0.205
-0.175
-0.015
-0.125
-0.205
-0.425
-0.43
-0.375
-0.33
-0.265
-0.115
-0.135
-0.045
-0.16
-0.3
-0.465
-0.405
-0.285
-0.3
-0.245
-0.155
-0.1
-0.005
-0.165
-0.18
-0.455
-0.4
-0.275
-0.305
-0.195
-0.14
-0.06
-0.025
-0.17
-0.195
-0.415
-0.36
-0.31
-0.23
-0.185
-0.125
-0.065
0.03
-0.1
-0.18
-0.43
-0.28
-0.195
-0.215
-0.16
-0.065
0.005
-0.005
-0.09
-0.215
-0.405
-0.23
-0.19
-0.22
-0.065
-0.005
0.06
0.02
-0.09
-0.165
-0.38
-0.22
-0.195
-0.135
-0.015
0.005
0.035
0.08
-0.085
-0.16
-0.345
-0.245
-0.15
-0.19
-0.015
0.01
0.145
0.05
-0.08
-0.24
-0.4
-0.205
-0.16
-0.11
-0.06
-0.09
0.07
0.03
-0.105
-0.32
-0.385
-0.23
-0.23
-0.23
-0.155
-0.075
0.02
-0.025
-0.185
-0.355
-0.46
-0.34
-0.32
-0.21
-0.225
-0.135
0.01
-0.05
-0.23
-0.4
-0.525
-0.355
-0.295
-0.22
-0.19
-0.16
-0.065
-0.09
-0.225
-0.415
-0.505
-0.305
-0.33
-0.285
-0.21
-0.16
-0.065
-0.07
-0.225
-0.395
-0.485
-0.375
-0.335
-0.21
-0.135
-0.195
-0.035
-0.125
-0.25
-0.395
-0.435
-0.37
-0.39
-0.275
-0.18
-0.17
-0.055
-0.135
-0.205
-0.38
-0.39
-0.325
-0.27
-0.28
-0.235
-0.195
-0.04
-0.12
-0.265
-0.47
-0.405
-0.365
-0.39
-0.27
-0.135
-0.145
-0.065
-0.15
-0.215
-0.455
-0.385
-0.395
-0.31
-0.21
-0.17
-0.14
-0.045
-0.17
-0.255
-0.505
-0.415
-0.305
-0.32
-0.24
-0.185
-0.135
-0.06
-0.21
-0.25
-0.495
-0.445
-0.34
-0.28
-0.23
-0.17
-0.105
-0.075
-0.215
-0.295
-0.515
-0.365
-0.365
-0.315
-0.29
-0.205
-0.07
-0.065
-0.2
-0.29
-0.53
-0.415
-0.355
-0.325
-0.21
-0.16
-0.09
-0.09
-0.19
-0.375
-0.59
-0.365
-0.34
-0.27
-0.215
-0.18
-0.085
-0.09
-0.26
-0.365
-0.51
-0.38
-0.39
-0.295
-0.18
-0.185
-0.045
-0.09
-0.24
-0.37
-0.55
-0.43
-0.365
-0.325
-0.195
-0.175
-0.01
-0.09
-0.21
-0.415
-0.545
-0.33
-0.34
-0.295
-0.15
-0.2
-0.03
-0.06
-0.2
-0.41
-0.475
-0.405
-0.325
-0.22
-0.16
-0.15
0.055
-0.03
-0.17
-0.35
-0.43
-0.265
-0.305
-0.23
-0.18
-0.14
-0.05
-0.055
-0.15
-0.375
-0.49
-0.33
-0.32
-0.23
-0.105
-0.145
-0.06
-0.135
-0.195
-0.375
-0.485
-0.41
-0.365
-0.27
-0.16
-0.17
-0.035
-0.215
-0.26
-0.445
-0.475
-0.42
-0.385
-0.305
-0.215
-0.175
-0.095
-0.19
-0.29
-0.5
-0.485
-0.375
-0.33
-0.39
-0.23
-0.195
-0.08
-0.21
-0.32
-0.51
-0.39
-0.32
-0.37
-0.315
-0.195
-0.195
-0.105
-0.235
-0.29
-0.58
-0.51
-0.475
-0.425
-0.39
-0.31
-0.085
0.075
-0.06
-0.01
-0.135
0.025
0.17
0.315
0.45
0.525
0.655
0.675
0.495
0.225
-0.06
-0.075
-0.105
-0.195
-0.2
-0.195
-0.17
-0.11
-0.255
-0.36
-0.59
-0.45
-0.425
-0.395
-0.295
-0.19
-0.085
-0.155
-0.215
-0.33
-0.535
-0.395
-0.37
-0.345
-0.245
-0.215
-0.075
-0.045
-0.225
-0.255
-0.425
-0.405
-0.41
-0.335
-0.145
-0.18
-0.13
-0.1
-0.195
-0.32
-0.485
-0.42
-0.33
-0.29
-0.185
-0.165
-0.055
-0.09
-0.22
-0.415
-0.545
-0.38
-0.355
-0.235
-0.16
-0.16
-0.005
-0.085
-0.195
-0.36
-0.5
-0.36
-0.3
-0.285
-0.18
-0.135
-0.03
-0.135
-0.18
-0.365
-0.495
-0.325
-0.265
-0.21
-0.15
-0.14
-0.02
-0.08
-0.185
-0.37
-0.445
-0.29
-0.34
-0.17
-0.085
-0.155
0.025
0.005
-0.195
-0.42
-0.435
-0.26
-0.28
-0.19
-0.125
-0.085
0.07
-0.025
-0.145
-0.315
-0.345
-0.245
-0.255
-0.135
-0.065
-0.045
0.1
-0.01
-0.155
-0.355
-0.305
-0.19
-0.145
-0.05
-0.025
-0.015
0.115
0.055
-0.15
-0.27
-0.245
-0.175
-0.165
-0.145
-0.01
0.025
0.175
0.01
-0.03
-0.325
-0.27
-0.215
-0.12
-0.115
-0.005
0.015
0.13
-0.055
-0.185
-0.385
-0.205
-0.145
-0.205
-0.15
-0.1
-0.07
0.025
-0.085
-0.175
-0.41
-0.335
-0.24
-0.285
-0.205
-0.165
-0.13
-0.01
-0.105
-0.24
-0.455
-0.365
-0.305
-0.26
-0.275
-0.17
-0.045
-0.065
-0.21
-0.285
-0.51
-0.405
-0.34
-0.29
-0.235
-0.155
-0.155
-0.075
-0.21
-0.36
-0.54
-0.375
-0.34
-0.295
-0.215
-0.16
-0.03
-0.06
-0.235
-0.38
-0.525
-0.33
-0.33
-0.36
-0.165
-0.175
-0.065
-0.095
-0.26
-0.35
-0.52
-0.4
-0.355
-0.265
-0.175
-0.19
-0.04
-0.105
-0.19
-0.36
-0.495
-0.345
-0.325
-0.305
-0.185
-0.17
-0.055
-0.075
-0.26
-0.37
-0.5
-0.35
-0.34
-0.29
-0.125
-0.195
-0.055
-0.095
-0.24
-0.37
-0.51
-0.35
-0.425
-0.27
-0.18
-0.19
-0.06
-0.105
-0.255
-0.41
-0.495
-0.325
-0.365
-0.29
-0.26
-0.19
-0.02
-0.115
-0.245
-0.425
-0.475
-0.335
-0.32
-0.3
-0.19
-0.225
-0.04
-0.155
-0.26
-0.445
-0.5
-0.37
-0.36
-0.265
-0.23
-0.18
-0.035
-0.17
-0.245
-0.49
-0.45
-0.335
-0.355
-0.26
-0.135
-0.195
-0.055
-0.175
-0.325
-0.505
-0.485
-0.35
-0.38
-0.285
-0.185
-0.17
-0.01
-0.195
-0.245
-0.51
-0.46
-0.355
-0.34
-0.235
-0.21
-0.18
-0.045
-0.175
-0.285
-0.515
-0.425
-0.335
-0.275
-0.235
-0.155
-0.14
-0.07
-0.165
-0.265
-0.49
-0.385
-0.32
-0.31
-0.23
-0.165
-0.09
-0.06
-0.145
-0.195
-0.465
-0.41
-0.3
-0.235
-0.175
-0.085
-0.01
-0.025
-0.11
-0.245
-0.465
-0.36
-0.285
-0.265
-0.175
-0.16
-0.065
-0.03
-0.13
-0.28
-0.475
-0.32
-0.3
-0.215
-0.135
-0.135
-0.08
-0.055
-0.2
-0.34
-0.51
-0.365
-0.34
-0.295
-0.185
-0.19
-0.095
-0.145
-0.25
-0.39
-0.535
-0.4
-0.33
-0.3
-0.24
-0.235
-0.095
-0.105
-0.215
-0.415
-0.57
-0.38
-0.37
-0.31
-0.18
-0.21
-0.07
-0.11
-0.275
-0.425
-0.575
-0.38
-0.355
-0.365
-0.235
-0.255
-0.17
-0.2
-0.335
-0.47
-0.635
-0.425
-0.285
-0.18
0.015
0.13
0.37
0.38
0.345
0.26
0.245
0.425
0.405
0.4
0.475
0.365
0.385
0.185
-0.04
-0.32
-0.43
-0.32
-0.365
-0.335
-0.24
-0.23
-0.065
-0.195
-0.28
-0.465
-0.52
-0.32
-0.395
-0.33
-0.23
-0.215
-0.045
-0.16
-0.215
-0.415
-0.48
-0.36
-0.365
-0.295
-0.215
-0.165
-0.065
-0.115
-0.205
-0.455
-0.475
-0.36
-0.355
-0.295
-0.18
-0.125
-0.015
-0.15
-0.285
-0.505
-0.41
-0.335
-0.34
-0.23
-0.15
-0.08
-0.05
-0.175
-0.26
-0.475
-0.375
-0.335
-0.295
-0.2
-0.095
-0.095
-0.08
-0.195
-0.25
-0.485
-0.365
-0.305
-0.335
-0.23
-0.105
-0.06
-0.045
-0.175
-0.27
-0.49
-0.31
-0.27
-0.26
-0.18
-0.115
-0.07
-0.02
-0.16
-0.235
-0.43
-0.31
-0.275
-0.24
-0.125
-0.12
0.01
0.02
-0.11
-0.225
-0.45
-0.28
-0.235
-0.165
-0.06
-0.04
0.08
0.075
-0.09
-0.215
-0.355
-0.23
-0.215
-0.15
-0.045
-0.045
0.155
0.07
-0.085
-0.185
-0.385
-0.195
-0.125
-0.09
-0.045
-0.045
0.115
0.045
-0.03
-0.15
-0.37
-0.22
-0.085
-0.075
-0.02
-0.01
0.13
0.065
-0.04
-0.195
-0.355
-0.215
-0.18
-0.145
-0.02
0.035
0.07
0.055
-0.105
-0.265
-0.43
-0.23
-0.23
-0.17
-0.065
-0.085
0.07
-0.01
-0.165
-0.325
-0.465
-0.335
-0.31
-0.225
-0.21
-0.17
0.03
-0.03
-0.145
-0.415
-0.46
-0.335
-0.33
-0.24
-0.165
-0.175
-0.035
-0.16
-0.245
-0.375
-0.46
-0.34
-0.31
-0.25
-0.185
-0.175
-0.01
-0.12
-0.255
-0.47
-0.445
-0.285
-0.32
-0.245
-0.155
-0.18
-0.035
-0.125
-0.2
-0.435
-0.455
-0.315
-0.37
-0.27
-0.125
-0.09
0.01
-0.145
-0.265
-0.475
-0.41
-0.32
-0.285
-0.24
-0.145
-0.14
-0.015
-0.165
-0.23
-0.45
-0.355
-0.35
-0.32
-0.225
-0.155
-0.08
-0.045
-0.18
-0.255
-0.5
-0.37
-0.33
-0.275
-0.215
-0.15
-0.015
-0.025
-0.225
-0.265
-0.45
-0.34
-0.3
-0.25
-0.28
-0.19
-0.105
-0.03
-0.14
-0.305
-0.505
-0.36
-0.285
-0.29
-0.225
-0.155
-0.05
-0.005
-0.185
-0.36
-0.485
-0.37
-0.29
-0.33
-0.195
-0.14
-0.03
-0.09
-0.2
-0.345
-0.535
-0.395
-0.335
-0.28
-0.19
-0.17
-0.04
-0.06
-0.165
-0.385
-0.53
-0.375
-0.36
-0.295
-0.2
-0.13
-0.02
-0.095
-0.21
-0.335
-0.515
-0.375
-0.34
-0.265
-0.165
-0.155
-0.03
-0.115
-0.205
-0.36
-0.535
-0.32
-0.28
-0.325
-0.185
-0.13
0.015
-0.055
-0.195
-0.395
-0.46
-0.3
-0.305
-0.255
-0.175
-0.14
0.045
-0.05
-0.16
-0.36
-0.435
-0.265
-0.26
-0.175
-0.105
-0.13
0.035
-0.055
-0.135
-0.39
-0.44
-0.335
-0.24
-0.215
-0.095
-0.14
0.025
-0.085
-0.205
-0.395
-0.395
-0.34
-0.335
-0.26
-0.16
-0.145
0.035
-0.11
-0.265
-0.48
-0.45
-0.31
-0.28
-0.205
-0.21
-0.18
-0.045
-0.145
-0.26
-0.505
-0.455
-0.35
-0.315
-0.265
-0.15
-0.165
-0.035
-0.17
-0.29
-0.53
-0.405
-0.315
-0.34
-0.3
-0.21
-0.105
-0.03
-0.19
-0.29
-0.525
-0.43
-0.375
-0.37
-0.375
-0.295
-0.22
-0.135
-0.185
-0.155
-0.43
-0.125
0.065
0.17
0.295
0.415
0.68
0.765
0.645
0.545
0.27
0.245
0.26
0.105
0.12
0.04
0.045
0.02
-0.155
-0.28
-0.53
-0.39
-0.36
-0.335
-0.27
-0.165
-0.035
-0.075
-0.18
-0.33
-0.485
-0.365
-0.305
-0.275
-0.185
-0.145
-0.02
-0.055
-0.2
-0.365
-0.57
-0.4
-0.31
-0.28
-0.19
-0.135
-0.04
-0.11
-0.19
-0.295
-0.47
-0.35
-0.255
-0.24
-0.195
-0.17
0.015
-0.095
-0.18
-0.35
-0.545
-0.33
-0.28
-0.285
-0.17
-0.115
0.04
-0.085
-0.205
-0.375
-0.47
-0.325
-0.34
-0.245
-0.16
-0.11
0.03
-0.06
-0.16
-0.39
-0.495
-0.29
-0.28
-0.21
-0.135
-0.15
0.0
-0.06
-0.195
-0.365
-0.415
-0.315
-0.265
-0.2
-0.105
-0.06
0.085
-0.065
-0.17
-0.39
-0.375
-0.24
-0.195
-0.2
-0.085
-0.05
0.075
0.005
-0.115
-0.37
-0.39
-0.205
-0.2
-0.11
-0.03
-0.04
0.105
-0.025
-0.09
-0.3
-0.275
-0.2
-0.185
-0.1
-0.01
0.02
0.1
0.03
-0.07
-0.28
-0.24
-0.14
-0.12
-0.055
-0.005
0.06
0.15
0.01
-0.06
-0.305
-0.225
-0.14
-0.17
-0.085
-0.03
0.065
0.17
-0.015
-0.11
-0.33
-0.21
-0.175
-0.13
-0.09
-0.04
0.05
0.02
-0.055
-0.09
-0.42
-0.255
-0.205
-0.195
-0.195
-0.105
-0.015
0.015
-0.115
-0.22
-0.49
-0.335
-0.22
-0.245
-0.17
-0.135
-0.02
-0.07
-0.165
-0.25
-0.47
-0.335
-0.26
-0.255
-0.155
-0.205
-0.02
-0.035
-0.175
-0.285
-0.53
-0.35
-0.275
-0.225
-0.135
-0.13
-0.01
-0.075
-0.17
-0.365
-0.515
-0.36
-0.29
-0.255
-0.175
-0.13
0.03
-0.05
-0.155
-0.325
-0.515
-0.26
-0.33
-0.26
-0.15
-0.145
0.025
-0.05
-0.17
-0.335
-0.435
-0.32
-0.305
-0.29
-0.22
-0.155
0.025
-0.08
-0.16
-0.395
-0.51
-0.32
-0.29
-0.195
-0.15
-0.15
0.01
-0.065
-0.2
-0.355
-0.49
-0.345
-0.3
-0.215
-0.195
-0.13
0.09
-0.035
-0.255
-0.435
-0.435
-0.295
-0.315
-0.225
-0.165
-0.19
0.025
-0.1
-0.225
-0.4
-0.4
-0.32
-0.315
-0.22
-0.115
-0.16
0.025
-0.135
-0.265
-0.425
-0.385
-0.305
-0.36
-0.25
-0.09
-0.085
0.0
-0.16
-0.24
-0.435
-0.415
-0.3
-0.28
-0.27
-0.12
-0.1
-0.03
-0.15
-0.19
-0.465
-0.4
-0.285
-0.305
-0.24
-0.165
-0.115
-0.015
-0.14
-0.19
-0.5
-0.355
-0.275
-0.335
-0.18
-0.075
-0.01
-0.03
-0.175
-0.215
-0.445
-0.35
-0.275
-0.275
-0.18
-0.095
-0.025
0.02
-0.095
-0.15
-0.45
-0.345
-0.305
-0.2
-0.095
-0.075
0.035
0.02
-0.115
-0.17
-0.38
-0.31
-0.205
-0.19
-0.095
-0.105
0.045
-0.03
-0.2
-0.295
-0.485
-0.34
-0.265
-0.305
-0.125
-0.11
0.01
-0.07
-0.24
-0.41
-0.5
-0.3
-0.28
-0.235
-0.14
-0.21
-0.04
-0.065
-0.165
-0.345
-0.49
-0.315
-0.335
-0.285
-0.155
-0.195
-0.045
-0.09
-0.225
-0.385
-0.525
-0.34
-0.3
-0.275
-0.16
-0.145
-0.03
-0.085
-0.195
-0.345
-0.5
-0.435
-0.445
-0.375
-0.29
-0.28
-0.1
-0.105
-0.17
-0.25
-0.27
0.035
0.03
0.25
0.395
0.57
0.835
0.775
0.615
0.365
0.22
0.305
0.185
0.15
0.105
0.015
0.09
-0.025
-0.15
-0.39
-0.415
-0.305
-0.32
-0.255
-0.205
-0.115
0.0
-0.155
-0.19
-0.375
-0.415
-0.325
-0.275
-0.23
-0.13
-0.17
0.01
-0.11
-0.19
-0.42
-0.395
-0.345
-0.305
-0.235
-0.14
-0.155
0.0
-0.125
-0.195
-0.415
-0.4
-0.275
-0.285
-0.24
-0.135
-0.085
0.02
-0.11
-0.2
-0.425
-0.355
-0.29
-0.28
-0.25
-0.13
-0.055
0.01
-0.145
-0.21
-0.445
-0.33
-0.3
-0.27
-0.19
-0.08
-0.005
-0.005
-0.15
-0.23
-0.465
-0.335
-0.27
-0.195
-0.125
-0.05
0.05
0.03
-0.2
-0.24
-0.435
-0.305
-0.2
-0.25
-0.105
-0.05
0.01
-0.01
-0.075
-0.195
-0.42
-0.28
-0.185
-0.15
-0.075
-0.1
0.07
0.05
-0.1
-0.23
-0.41
-0.265
-0.185
-0.145
-0.02
0.015
0.155
-0.005
-0.075
-0.145
-0.375
-0.14
-0.15
-0.095
-0.035
0.01
0.16
0.08
-0.035
-0.215
-0.37
-0.125
-0.15
-0.055
0.075
0.005
0.095
0.115
-0.015
-0.125
-0.315
-0.155
-0.125
-0.08
0.01
0.04
0.185
0.11
-0.035
-0.235
-0.395
-0.2
-0.18
-0.105
-0.065
-0.025
0.065
0.045
-0.095
-0.305
-0.375
-0.255
-0.305
-0.195
-0.095
-0.2
0.065
-0.05
-0.16
-0.315
-0.43
-0.275
-0.275
-0.22
-0.13
-0.155
0.015
-0.09
-0.185
-0.4
-0.42
-0.325
-0.315
-0.21
-0.17
-0.125
0.015
-0.11
-0.2
-0.395
-0.42
-0.31
-0.285
-0.2
-0.13
-0.15
0.02
-0.135
-0.23
-0.44
-0.365
-0.3
-0.25
-0.265
-0.135
-0.11
-0.025
-0.085
-0.165
-0.445
-0.44
-0.34
-0.305
-0.235
-0.14
-0.065
0.02
-0.135
-0.22
-0.41
-0.41
-0.36
-0.295
-0.22
-0.165
-0.07
0.03
-0.1
-0.18
-0.46
-0.4
-0.285
-0.235
-0.19
-0.155
-0.07
-0.02
-0.165
-0.235
-0.485
-0.345
-0.325
-0.265
-0.2
-0.165
-0.01
-0.015
-0.145
-0.225
-0.485
-0.35
-0.26
-0.245
-0.175
-0.15
-0.055
-0.08
-0.2
-0.305
-0.48
-0.365
-0.26
-0.25
-0.165
-0.205
-0.045
-0.035
-0.175
-0.305
-0.49
-0.34
-0.34
-0.275
-0.165
-0.125
-0.05
-0.04
-0.215
-0.335
-0.515
-0.335
-0.3
-0.26
-0.155
-0.11
-0.045
-0.01
-0.185
-0.395
-0.53
-0.34
-0.245
-0.25
-0.175
-0.13
0.0
-0.055
-0.18
-0.37
-0.51
-0.295
-0.315
-0.255
-0.125
-0.05
0.04
-0.05
-0.145
-0.265
-0.38
-0.305
-0.28
-0.17
-0.135
-0.095
0.085
-0.01
-0.19
-0.29
-0.405
-0.24
-0.33
-0.19
-0.08
-0.105
-0.005
-0.105
-0.26
-0.365
-0.43
-0.33
-0.35
-0.27
-0.145
-0.165
0.015
-0.11
-0.225
-0.405
-0.465
-0.33
-0.35
-0.26
-0.155
-0.255
-0.035
-0.095
-0.245
-0.44
-0.415
-0.33
-0.295
-0.26
-0.195
-0.175
-0.035
-0.19
-0.235
-0.42
-0.43
-0.365
-0.305
-0.24
-0.18
-0.13
0.015
-0.15
-0.305
-0.485
-0.47
-0.45
-0.43
-0.39
-0.265
-0.22
-0.095
-0.17
-0.1
-0.27
-0.045
0.15
0.25
0.4
0.52
0.8
0.945
0.77
0.68
0.32
0.28
0.275
0.185
0.1
0.035
0.095
0.055
-0.095
-0.195
-0.47
-0.365
-0.27
-0.24
-0.15
-0.16
-0.04
-0.06
-0.17
-0.235
-0.445
-0.33
-0.315
-0.275
-0.165
-0.165
-0.035
-0.045
-0.2
-0.32
-0.47
-0.35
-0.265
-0.245
-0.14
-0.155
0.0
-0.045
-0.195
-0.31
-0.52
-0.355
-0.27
-0.275
-0.16
-0.115
0.01
-0.02
-0.15
-0.29
-0.55
-0.35
-0.245
-0.185
-0.145
-0.125
0.03
-0.035
-0.21
-0.37
-0.475
-0.28
-0.275
-0.225
-0.11
-0.08
0.0
-0.025
-0.115
-0.355
-0.5
-0.28
-0.26
-0.22
-0.13
-0.115
0.1
0.025
-0.195
-0.325
-0.425
-0.295
-0.255
-0.185
-0.095
-0.055
0.08
0.02
-0.17
-0.285
-0.42
-0.225
-0.22
-0.165
-0.045
-0.035
0.09
0.04
-0.065
-0.31
-0.345
-0.175
-0.16
-0.125
-0.025
-0.005
0.13
0.0
-0.06
-0.265
-0.315
-0.195
-0.115
-0.09
0.0
-0.01
0.18
0.065
-0.005
-0.24
-0.215
-0.1
-0.105
-0.07
0.05
0.055
0.195
0.065
-0.01
-0.21
-0.215
-0.11
-0.135
-0.075
0.105
0.085
0.12
0.035
-0.065
-0.27
-0.21
-0.185
-0.145
-0.085
0.01
0.035
0.13
-0.06
-0.15
-0.355
-0.29
-0.245
-0.245
-0.15
-0.07
-0.015
0.035
-0.08
-0.205
-0.46
-0.295
-0.225
-0.225
-0.185
-0.075
0.015
0.02
-0.135
-0.215
-0.48
-0.335
-0.27
-0.245
-0.15
-0.125
-0.025
0.02
-0.195
-0.285
-0.485
-0.355
-0.295
-0.21
-0.09
-0.125
0.025
-0.04
-0.165
-0.285
-0.475
-0.305
-0.25
-0.245
-0.165
-0.11
0.045
-0.02
-0.17
-0.28
-0.445
-0.295
-0.31
-0.235
-0.125
-0.125
0.0
-0.01
-0.17
-0.335
-0.47
-0.305
-0.27
-0.2
-0.155
-0.115
0.07
-0.055
-0.145
-0.355
-0.455
-0.265
-0.26
-0.24
-0.145
-0.085
0.01
-0.02
-0.145
-0.33
-0.49
-0.31
-0.24
-0.185
-0.15
-0.16
-0.01
-0.035
-0.17
-0.3
-0.455
-0.305
-0.31
-0.23
-0.14
-0.115
0.03
-0.07
-0.2
-0.315
-0.42
-0.275
-0.31
-0.2
-0.13
-0.12
-0.005
-0.095
-0.21
-0.4
-0.475
-0.305
-0.265
-0.205
-0.195
-0.125
0.06
-0.07
-0.195
-0.39
-0.39
-0.26
-0.295
-0.19
-0.145
-0.125
0.035
-0.11
-0.155
-0.47
-0.365
-0.27
-0.285
-0.155
-0.16
-0.09
0.01
-0.095
-0.235
-0.455
-0.37
-0.22
-0.285
-0.22
-0.1
-0.1
0.0
-0.1
-0.195
-0.41
-0.345
-0.26
-0.215
-0.13
-0.03
0.005
0.065
-0.075
-0.135
-0.35
-0.285
-0.25
-0.25
-0.115
-0.045
0.03
0.13
-0.06
-0.15
-0.36
-0.225
-0.26
-0.2
-0.165
-0.175
-0.025
0.05
-0.195
-0.215
-0.445
-0.32
-0.255
-0.265
-0.165
-0.165
-0.065
-0.03
-0.145
-0.29
-0.5
-0.325
-0.29
-0.26
-0.14
-0.09
-0.03
-0.035
-0.175
-0.365
-0.485
-0.36
-0.315
-0.26
-0.115
-0.15
-0.025
-0.045
-0.22
-0.355
-0.55
-0.28
-0.31
-0.265
-0.165
-0.095
-0.02
-0.105
-0.29
-0.44
-0.63
-0.475
-0.405
-0.35
-0.215
-0.045
0.195
0.275
0.2
0.165
0.11
0.445
0.575
0.735
0.79
0.82
0.89
0.725
0.46
0.215
-0.095
-0.06
-0.095
-0.09
-0.04
-0.065
-0.05
-0.085
-0.215
-0.315
-0.435
-0.29
-0.32
-0.235
-0.145
-0.085
0.05
-0.045
-0.21
-0.325
-0.395
-0.305
-0.295
-0.19
-0.12
-0.145
0.025
-0.07
-0.185
-0.36
-0.445
-0.325
-0.285
-0.185
-0.085
-0.105
0.045
-0.11
-0.195
-0.425
-0.395
-0.26
-0.315
-0.24
-0.11
-0.06
0.085
-0.1
-0.24
-0.38
-0.36
-0.275
-0.25
-0.175
-0.09
-0.095
0.01
-0.09
-0.145
-0.37
-0.32
-0.245
-0.235
-0.19
-0.06
0.01
0.08
-0.105
-0.155
-0.385
-0.33
-0.3
-0.195
-0.115
-0.07
-0.01
0.04
-0.115
-0.12
-0.34
-0.24
-0.23
-0.2
-0.085
-0.055
0.005
0.04
-0.055
-0.14
-0.33
-0.245
-0.215
-0.14
-0.09
-0.01
0.095
0.11
-0.015
-0.135
-0.36
-0.21
-0.13
-0.075
0.01
0.04
0.11
0.11
0.01
-0.105
-0.29
-0.11
-0.1
-0.09
0.03
0.065
0.115
0.17
0.015
-0.12
-0.24
-0.105
-0.045
-0.09
0.09
0.08
0.19
0.16
0.005
-0.13
-0.245
-0.1
-0.11
-0.05
0.005
0.01
0.19
0.175
0.0
-0.145
-0.305
-0.165
-0.155
-0.13
-0.035
0.01
0.145
0.08
-0.095
-0.255
-0.42
-0.23
-0.25
-0.18
-0.08
-0.095
0.08
0.05
-0.07
-0.3
-0.45
-0.28
-0.285
-0.185
-0.07
-0.085
0.02
-0.045
-0.145
-0.305
-0.455
-0.265
-0.275
-0.235
-0.085
-0.095
0.04
-0.03
-0.19
-0.325
-0.39
-0.295
-0.295
-0.2
-0.07
-0.095
0.05
-0.045
-0.135
-0.365
-0.38
-0.235
-0.265
-0.155
-0.085
-0.14
0.035
-0.01
-0.175
-0.405
-0.405
-0.255
-0.31
-0.16
-0.065
-0.045
0.03
-0.1
-0.17
-0.36
-0.35
-0.215
-0.225
-0.205
-0.095
-0.105
0.065
-0.085
-0.15
-0.38
-0.375
-0.245
-0.23
-0.165
-0.11
-0.015
0.085
-0.05
-0.18
-0.425
-0.295
-0.26
-0.255
-0.245
-0.08
-0.03
-0.02
-0.09
-0.18
-0.465
-0.335
-0.235
-0.215
-0.195
-0.06
0.04
0.03
-0.175
-0.225
-0.445
-0.32
-0.19
-0.255
-0.17
-0.09
0.07
0.015
-0.105
-0.23
-0.445
-0.305
-0.285
-0.235
-0.08
-0.09
0.02
-0.02
-0.115
-0.26
-0.48
-0.295
-0.255
-0.235
-0.115
-0.105
-0.005
-0.015
-0.165
-0.335
-0.465
-0.285
-0.165
-0.25
-0.145
-0.085
0.025
0.01
-0.14
-0.285
-0.425
-0.255
-0.25
-0.17
-0.11
-0.04
0.045
0.005
-0.135
-0.25
-0.42
-0.28
-0.27
-0.2
-0.045
-0.03
0.12
0.08
-0.03
-0.225
-0.35
-0.175
-0.195
-0.13
0.01
-0.005
0.17
0.065
-0.085
-0.255
-0.325
-0.165
-0.21
-0.125
-0.045
-0.05
0.085
0.035
-0.185
-0.325
-0.425
-0.245
-0.285
-0.24
-0.1
-0.075
0.075
-0.09
-0.195
-0.36
-0.39
-0.27
-0.255
-0.23
-0.13
-0.135
0.02
-0.065
-0.2
-0.42
-0.43
-0.295
-0.26
-0.23
-0.15
-0.13
0.0
-0.09
-0.175
-0.385
-0.36
-0.34
-0.235
-0.22
-0.11
-0.11
0.0
-0.1
-0.185
-0.46
-0.46
-0.355
-0.415
-0.345
-0.285
-0.215
-0.015
-0.095
-0.075
-0.215
0.01
0.21
0.3
0.48
0.665
0.89
1.06
0.935
0.73
0.37
0.375
0.31
0.21
0.095
0.085
0.135
0.125
-0.045
-0.15
-0.435
-0.31
-0.2
-0.235
-0.205
-0.13
0.03
0.01
-0.12
-0.21
-0.45
-0.295
-0.225
-0.23
-0.15
-0.055
-0.005
0.005
-0.095
-0.26
-0.485
-0.33
-0.26
-0.235
-0.115
-0.085
0.035
0.03
-0.16
-0.265
-0.47
-0.335
-0.245
-0.225
-0.1
-0.08
0.05
-0.005
-0.185
-0.25
-0.435
-0.32
-0.24
-0.185
-0.135
-0.04
0.035
-0.015
-0.09
-0.26
-0.44
-0.24
-0.21
-0.225
-0.175
-0.065
0.08
0.045
-0.115
-0.22
-0.465
-0.275
-0.225
-0.15
-0.12
-0.035
0.11
0.015
-0.09
-0.26
-0.395
-0.23
-0.195
-0.15
-0.075
-0.115
0.1
0.015
-0.055
-0.255
-0.355
-0.23
-0.175
-0.115
-0.05
0.025
0.135
0.055
-0.055
-0.235
-0.34
-0.16
-0.18
-0.1
-0.03
0.035
0.205
0.135
0.03
-0.19
-0.185
-0.115
-0.115
-0.065
0.08
0.035
0.175
0.105
-0.02
-0.18
-0.185
-0.03
-0.03
0.01
0.045
0.11
0.225
0.165
-0.015
-0.19
-0.205
-0.08
-0.085
0.03
0.08
0.065
0.17
0.105
0.01
-0.23
-0.185
-0.13
-0.1
-0.115
-0.01
0.08
0.175
0.045
-0.04
-0.33
-0.255
-0.15
-0.14
-0.125
-0.02
0.065
0.08
-0.1
-0.14
-0.365
-0.285
-0.185
-0.23
-0.14
-0.11
-0.01
0.015
-0.04
-0.165
-0.4
-0.3
-0.225
-0.16
-0.15
-0.115
0.015
0.065
-0.13
-0.185
-0.405
-0.27
-0.26
-0.26
-0.13
-0.03
0.015
0.01
-0.115
-0.155
-0.445
-0.28
-0.23
-0.185
-0.085
-0.06
0.07
0.03
-0.105
-0.28
-0.395
-0.24
-0.23
-0.24
-0.07
-0.125
0.085
-0.015
-0.08
-0.215
-0.435
-0.28
-0.26
-0.155
-0.11
-0.05
0.065
0.055
-0.13
-0.26
-0.405
-0.28
-0.255
-0.2
-0.07
-0.095
0.06
-0.005
-0.12
-0.335
-0.365
-0.285
-0.27
-0.225
-0.155
-0.065
0.065
-0.015
-0.155
-0.27
-0.37
-0.25
-0.27
-0.175
-0.085
-0.06
0.095
-0.03
-0.19
-0.305
-0.42
-0.3
-0.3
-0.2
-0.085
-0.095
0.09
-0.065
-0.15
-0.32
-0.415
-0.34
-0.31
-0.16
-0.06
-0.055
0.085
-0.045
-0.165
-0.395
-0.38
-0.255
-0.215
-0.185
-0.125
-0.1
0.075
-0.065
-0.22
-0.37
-0.38
-0.22
-0.22
-0.22
-0.13
-0.105
0.06
-0.075
-0.17
-0.395
-0.355
-0.265
-0.245
-0.215
-0.145
-0.065
0.05
-0.065
-0.115
-0.365
-0.295
-0.24
-0.215
-0.225
-0.085
-0.03
0.065
-0.105
-0.11
-0.4
-0.33
-0.25
-0.145
-0.055
-0.005
-0.005
0.055
-0.025
-0.09
-0.275
-0.24
-0.235
-0.145
-0.08
0.0
0.07
0.105
-0.025
-0.08
-0.355
-0.235
-0.22
-0.24
-0.195
-0.085
-0.03
0.005
-0.13
-0.2
-0.43
-0.31
-0.3
-0.23
-0.13
-0.105
0.0
0.02
-0.17
-0.255
-0.495
-0.34
-0.26
-0.265
-0.12
-0.115
-0.02
-0.02
-0.14
-0.245
-0.47
-0.39
-0.29
-0.255
-0.18
-0.095
0.04
-0.01
-0.185
-0.315
-0.475
-0.33
-0.275
-0.19
-0.1
-0.13
-0.065
-0.1
-0.32
-0.49
-0.605
-0.415
-0.365
-0.235
-0.075
0.055
0.325
0.395
0.41
0.365
0.31
0.61
0.72
0.8
0.835
0.78
0.805
0.64
0.4
0.02
-0.21
-0.135
-0.165
-0.115
-0.1
-0.06
0.04
-0.025
-0.145
-0.325
-0.445
-0.3
-0.26
-0.235
-0.14
-0.11
0.075
-0.025
-0.215
-0.38
-0.425
-0.28
-0.295
-0.235
-0.175
-0.14
-0.02
-0.05
-0.165
-0.375
-0.445
-0.245
-0.25
-0.21
-0.13
-0.085
0.035
-0.04
-0.235
-0.355
-0.36
-0.29
-0.26
-0.195
-0.15
-0.095
0.04
-0.125
-0.175
-0.36
-0.34
-0.24
-0.23
-0.165
-0.11
-0.065
0.045
-0.085
-0.15
-0.405
-0.325
-0.245
-0.25
-0.165
-0.08
0.02
0.035
-0.1
-0.165
-0.38
-0.29
-0.225
-0.19
-0.14
-0.09
0.0
0.065
-0.03
-0.155
-0.34
-0.265
-0.18
-0.175
-0.075
-0.08
0.065
0.08
-0.04
-0.13
-0.355
-0.205
-0.17
-0.165
-0.09
0.04
0.13
0.16
0.01
-0.12
-0.29
-0.175
-0.145
-0.11
0.0
0.01
0.16
0.14
0.01
-0.115
-0.275
-0.13
-0.115
-0.065
0.075
0.085
0.185
0.16
0.025
-0.115
-0.255
-0.095
-0.075
-0.045
0.035
0.065
0.225
0.19
0.04
-0.09
-0.27
-0.135
-0.075
-0.06
0.035
0.055
0.19
0.145
-0.015
-0.205
-0.335
-0.175
-0.16
-0.095
-0.05
0.01
0.09
0.005
-0.08
-0.23
-0.395
-0.23
-0.24
-0.15
-0.09
-0.075
0.085
0.015
-0.125
-0.33
-0.46
-0.27
-0.22
-0.175
-0.115
-0.11
-0.025
-0.03
-0.095
-0.345
-0.495
-0.32
-0.235
-0.14
-0.08
-0.095
0.07
-0.035
-0.16
-0.385
-0.455
-0.3
-0.275
-0.23
-0.125
-0.115
0.035
-0.06
-0.16
-0.41
-0.43
-0.295
-0.245
-0.17
-0.145
-0.08
0.055
-0.075
-0.185
-0.36
-0.33
-0.295
-0.245
-0.185
-0.09
-0.065
0.075
-0.125
-0.23
-0.415
-0.36
-0.24
-0.235
-0.225
-0.13
-0.03
0.085
-0.075
-0.185
-0.385
-0.35
-0.25
-0.225
-0.205
-0.115
-0.02
0.06
-0.135
-0.19
-0.4
-0.41
-0.28
-0.285
-0.24
-0.095
-0.04
0.06
-0.11
-0.18
-0.41
-0.31
-0.26
-0.295
-0.22
-0.085
-0.04
0.04
-0.13
-0.205
-0.44
-0.31
-0.265
-0.305
-0.22
-0.115
-0.02
0.03
-0.135
-0.265
-0.44
-0.325
-0.255
-0.255
-0.15
-0.165
-0.01
-0.015
-0.155
-0.305
-0.475
-0.305
-0.24
-0.275
-0.22
-0.11
0.01
-0.055
-0.17
-0.29
-0.48
-0.35
-0.275
-0.225
-0.18
-0.13
0.025
-0.015
-0.17
-0.26
-0.435
-0.335
-0.28
-0.25
-0.135
-0.1
0.05
-0.055
-0.16
-0.265
-0.45
-0.27
-0.255
-0.185
-0.085
-0.11
0.08
0.01
-0.155
-0.275
-0.395
-0.255
-0.215
-0.175
-0.075
-0.035
0.1
0.025
-0.105
-0.295
-0.4
-0.24
-0.24
-0.155
-0.085
-0.08
0.0
-0.08
-0.17
-0.41
-0.455
-0.275
-0.3
-0.22
-0.145
-0.11
0.02
-0.09
-0.22
-0.445
-0.405
-0.325
-0.34
-0.21
-0.145
-0.145
0.045
-0.08
-0.22
-0.395
-0.385
-0.345
-0.32
-0.21
-0.135
-0.125
-0.025
-0.15
-0.2
-0.425
-0.435
-0.345
-0.315
-0.225
-0.155
-0.135
0.01
-0.13
-0.245
-0.455
-0.425
-0.365
-0.395
-0.345
-0.235
-0.23
0.0
-0.055
-0.045
-0.165
0.035
0.19
0.225
0.455
0.615
0.78
0.885
0.745
0.63
0.225
0.21
0.25
0.14
0.01
0.035
0.1
0.11
-0.13
-0.245
-0.495
-0.455
-0.31
-0.23
-0.16
-0.135
-0.035
-0.015
-0.12
-0.23
-0.445
-0.33
-0.31
-0.215
-0.18
-0.125
-0.045
-0.01
-0.135
-0.3
-0.465
-0.31
-0.26
-0.21
-0.12
-0.095
0.065
0.02
-0.12
-0.305
-0.44
-0.29
-0.26
-0.21
-0.115
-0.105
0.035
0.035
-0.125
-0.265
-0.44
-0.305
-0.215
-0.155
-0.11
-0.065
0.065
0.03
-0.125
-0.285
-0.43
-0.305
-0.23
-0.15
-0.09
-0.04
0.115
0.015
-0.12
-0.285
-0.43
-0.25
-0.205
-0.175
-0.085
-0.08
0.085
0.05
-0.115
-0.28
-0.415
-0.24
-0.2
-0.13
-0.025
-0.07
0.1
-0.025
-0.09
-0.33
-0.385
-0.23
-0.22
-0.12
-0.06
-0.025
0.13
0.055
-0.05
-0.24
-0.32
-0.185
-0.175
-0.07
0.03
0.055
0.205
0.11
-0.04
-0.205
-0.245
-0.14
-0.115
-0.025
0.045
0.06
0.185
0.075
0.03
-0.22
-0.19
-0.065
-0.1
0.04
0.055
0.11
0.255
0.11
-0.05
-0.21
-0.13
-0.03
-0.085
0.0
0.09
0.025
0.18
0.085
-0.015
-0.225
-0.2
-0.13
-0.115
-0.08
0.03
0.1
0.155
0.025
-0.055
-0.37
-0.25
-0.265
-0.205
-0.095
-0.065
0.01
0.09
-0.065
-0.13
-0.39
-0.3
-0.2
-0.2
-0.215
-0.09
0.005
0.05
-0.125
-0.22
-0.415
-0.275
-0.235
-0.235
-0.175
-0.06
0.015
0.005
-0.11
-0.225
-0.465
-0.315
-0.255
-0.195
-0.11
-0.095
0.0
-0.02
-0.13
-0.245
-0.435
-0.295
-0.255
-0.195
-0.105
-0.07
0.09
-0.04
-0.12
-0.265
-0.415
-0.27
-0.21
-0.29
-0.1
-0.085
0.04
-0.01
-0.12
-0.245
-0.38
-0.27
-0.2
-0.155
-0.11
-0.055
0.1
0.015
-0.115
-0.33
-0.48
-0.26
-0.255
-0.2
-0.1
-0.01
0.155
-0.01
-0.15
-0.295
-0.385
-0.255
-0.26
-0.165
-0.07
-0.085
0.08
0.0
-0.11
-0.255
-0.465
-0.255
-0.205
-0.21
-0.225
-0.05
0.105
0.01
-0.11
-0.32
-0.405
-0.27
-0.26
-0.15
-0.065
-0.085
0.06
-0.04
-0.185
-0.345
-0.43
-0.28
-0.255
-0.15
-0.055
-0.08
0.045
-0.08
-0.175
-0.335
-0.325
-0.255
-0.27
-0.13
-0.065
-0.055
0.06
-0.04
-0.1
-0.335
-0.335
-0.245
-0.27
-0.2
-0.09
0.045
0.125
-0.01
-0.085
-0.295
-0.26
-0.24
-0.2
-0.1
-0.035
0.055
0.125
-0.02
-0.135
-0.355
-0.255
-0.185
-0.13
-0.095
-0.065
0.03
0.06
-0.105
-0.155
-0.37
-0.295
-0.22
-0.195
-0.135
-0.06
0.0
0.06
-0.105
-0.21
-0.41
-0.295
-0.255
-0.185
-0.165
-0.075
0.01
0.025
-0.09
-0.18
-0.41
-0.285
-0.275
-0.225
-0.145
-0.055
0.055
0.025
-0.16
-0.205
-0.415
-0.265
-0.165
-0.21
-0.1
-0.06
-0.01
0.045
-0.14
-0.265
-0.395
-0.245
-0.28
-0.335
-0.145
-0.16
-0.045
-0.075
-0.15
-0.215
-0.385
-0.07
0.06
0.23
0.375
0.44
0.695
0.745
0.65
0.455
0.32
0.445
0.375
0.32
0.31
0.205
0.27
0.035
-0.07
-0.255
-0.395
-0.22
-0.255
-0.19
-0.1
-0.065
0.105
-0.045
-0.14
-0.295
-0.42
-0.205
-0.205
-0.135
-0.055
-0.005
0.075
0.015
-0.095
-0.25
-0.405
-0.225
-0.24
-0.1
-0.07
-0.09
0.11
0.075
-0.1
-0.26
-0.355
-0.22
-0.245
-0.12
-0.01
-0.015
0.12
-0.015
-0.095
-0.295
-0.42
-0.165
-0.17
-0.105
-0.045
-0.02
0.16
0.02
-0.065
-0.28
-0.295
-0.18
-0.18
-0.105
-0.01
0.045
0.09
-0.065
-0.055
-0.255
-0.27
-0.225
-0.19
-0.07
0.02
0.035
0.175
0.045
-0.06
-0.33
-0.245
-0.15
-0.095
-0.05
0.04
0.075
0.16
0.07
-0.035
-0.255
-0.23
-0.15
-0.055
-0.06
0.03
0.145
0.235
0.005
-0.03
-0.27
-0.12
-0.08
-0.015
-0.02
0.02
0.18
0.26
0.04
0.015
-0.235
-0.1
-0.065
-0.025
0.09
0.13
0.22
0.29
0.13
0.0
-0.19
-0.03
0.01
0.055
0.14
0.17
0.245
0.26
0.12
0.005
-0.2
-0.03
0.02
0.04
0.16
0.2
0.23
0.28
0.08
-0.055
-0.31
-0.065
-0.1
0.01
0.08
0.095
0.225
0.205
0.02
-0.13
-0.305
-0.195
-0.15
-0.05
-0.005
0.045
0.15
0.08
-0.015
-0.195
-0.365
-0.19
-0.155
-0.09
-0.035
0.0
0.1
0.1
-0.005
-0.21
-0.335
-0.16
-0.205
-0.175
-0.06
0.01
0.145
0.04
-0.05
-0.245
-0.375
-0.13
-0.235
-0.155
0.01
-0.085
0.13
0.04
-0.075
-0.28
-0.365
-0.21
-0.215
-0.11
-0.04
0.0
0.16
0.065
-0.1
-0.325
-0.325
-0.195
-0.23
-0.12
-0.02
0.03
0.13
0.065
-0.04
-0.275
-0.3
-0.225
-0.165
-0.13
-0.005
-0.005
0.145
0.045
-0.075
-0.285
-0.255
-0.12
-0.15
-0.125
-0.08
-0.03
0.13
0.035
-0.085
-0.285
-0.255
-0.16
-0.155
-0.12
-0.005
0.04
0.14
0.035
-0.075
-0.305
-0.225
-0.16
-0.13
-0.1
-0.06
0.035
0.085
0.02
-0.08
-0.315
-0.205
-0.175
-0.11
-0.11
-0.02
0.03
0.105
-0.03
-0.135
-0.31
-0.22
-0.2
-0.15
-0.09
0.01
0.1
0.1
-0.065
-0.135
-0.32
-0.2
-0.215
-0.165
-0.07
-0.035
0.045
0.1
-0.015
-0.15
-0.355
-0.215
-0.16
-0.14
-0.065
-0.025
0.14
0.155
-0.02
-0.185
-0.395
-0.24
-0.135
-0.145
-0.085
0.005
0.1
0.055
-0.035
-0.12
-0.265
-0.185
-0.105
-0.1
0.025
0.03
0.15
0.14
0.04
-0.175
-0.365
-0.185
-0.125
-0.05
0.015
0.035
0.155
0.095
-0.03
-0.16
-0.345
-0.21
-0.235
-0.1
-0.045
-0.02
0.085
0.075
-0.085
-0.255
-0.37
-0.205
-0.24
-0.16
-0.05
-0.02
0.12
0.015
-0.09
-0.295
-0.38
-0.21
-0.215
-0.145
-0.13
-0.025
0.175
0.08
-0.07
-0.305
-0.45
-0.23
-0.24
-0.145
-0.1
-0.025
0.105
-0.005
-0.085
-0.31
-0.35
-0.225
-0.205
-0.12
-0.07
-0.045
0.07
-0.125
-0.24
-0.425
-0.415
-0.305
-0.3
-0.175
0.015
0.11
0.355
0.335
0.31
0.265
0.38
0.54
0.68
0.765
0.79
0.775
0.805
0.515
0.38
0.04
-0.06
-0.02
-0.105
-0.02
0.06
0.07
0.12
0.0
-0.08
-0.32
-0.26
-0.165
-0.205
-0.045
-0.025
-0.02
0.115
0.055
-0.095
-0.39
-0.195
-0.165
-0.145
-0.09
-0.06
-0.03
0.055
-0.015
-0.07
-0.32
-0.215
-0.165
-0.115
-0.04
0.015
0.105
0.075
-0.04
-0.105
-0.355
-0.225
-0.15
-0.12
-0.11
0.025
0.13
0.12
-0.045
-0.105
-0.35
-0.25
-0.145
-0.14
-0.025
0.005
0.15
0.16
-0.03
-0.195
-0.34
-0.175
-0.135
-0.06
-0.02
-0.01
0.175
0.115
-0.015
-0.185
-0.33
-0.135
-0.14
-0.065
0.04
0.0
0.175
0.105
0.025
-0.155
-0.34
-0.13
-0.07
-0.045
0.05
0.065
0.195
0.13
0.005
-0.16
-0.245
-0.12
-0.095
-0.045
0.11
0.07
0.19
0.11
0.025
-0.09
-0.205
-0.085
-0.1
0.005
0.1
0.125
0.315
0.195
0.075
-0.095
-0.195
0.01
-0.02
0.005
0.105
0.16
0.31
0.22
0.115
-0.045
-0.15
-0.045
0.015
0.09
0.16
0.135
0.37
0.21
0.09
-0.1
-0.14
-0.015
-0.015
0.045
0.1
0.155
0.26
0.135
0.08
-0.17
-0.195
-0.06
-0.1
-0.025
0.085
0.035
0.21
0.115
0.005
-0.25
-0.26
-0.135
-0.075
-0.035
0.005
0.02
0.07
0.005
-0.05
-0.25
-0.23
-0.16
-0.145
-0.095
-0.015
0.08
0.17
0.005
-0.12
-0.33
-0.25
-0.185
-0.185
-0.085
-0.025
0.075
0.14
-0.015
-0.1
-0.345
-0.225
-0.175
-0.14
-0.12
-0.02
0.12
0.12
-0.08
-0.15
-0.355
-0.16
-0.135
-0.175
-0.085
-0.02
0.13
0.125
-0.015
-0.185
-0.355
-0.2
-0.145
-0.135
-0.03
0.035
0.045
0.065
-0.04
-0.175
-0.36
-0.09
-0.14
-0.085
-0.025
-0.075
0.115
0.085
-0.04
-0.17
-0.365
-0.21
-0.135
-0.12
-0.035
0.0
0.135
0.15
-0.09
-0.225
-0.335
-0.175
-0.185
-0.125
-0.015
-0.03
0.09
0.05
-0.075
-0.2
-0.325
-0.19
-0.17
-0.105
-0.06
-0.025
0.11
0.02
-0.045
-0.19
-0.36
-0.19
-0.165
-0.145
-0.035
-0.015
0.145
0.02
-0.08
-0.225
-0.335
-0.175
-0.21
-0.16
-0.065
0.025
0.145
0.07
-0.08
-0.245
-0.34
-0.16
-0.225
-0.16
-0.03
-0.035
0.11
0.055
-0.04
-0.345
-0.315
-0.175
-0.175
-0.105
-0.05
0.02
0.13
0.04
-0.09
-0.285
-0.3
-0.19
-0.17
-0.075
-0.02
0.0
0.11
0.04
-0.035
-0.285
-0.28
-0.13
-0.1
-0.045
0.05
0.075
0.18
0.06
-0.025
-0.225
-0.165
-0.095
-0.04
0.005
0.025
0.09
0.185
0.07
-0.005
-0.25
-0.17
-0.13
-0.16
-0.105
-0.03
0.075
0.195
0.01
-0.155
-0.41
-0.23
-0.175
-0.18
-0.04
-0.03
0.01
0.065
-0.04
-0.085
-0.375
-0.295
-0.23
-0.165
-0.085
0.02
0.035
0.045
-0.08
-0.15
-0.415
-0.21
-0.18
-0.18
-0.08
-0.035
0.02
0.025
-0.045
-0.205
-0.37
-0.215
-0.17
-0.155
-0.135
-0.065
0.12
-0.02
-0.205
-0.305
-0.515
-0.365
-0.345
-0.255
-0.125
0.005
0.225
0.325
0.365
0.325
0.265
0.545
0.685
0.855
1.0
0.975
1.1
0.965
0.68
0.41
0.145
0.08
0.025
0.055
0.11
0.075
0.185
0.1
-0.045
-0.225
-0.37
-0.2
-0.215
-0.115
-0.02
0.015
0.2
0.055
-0.055
-0.295
-0.375
-0.23
-0.18
-0.12
-0.035
-0.015
0.135
0.04
-0.09
-0.27
-0.37
-0.235
-0.18
-0.115
-0.045
-0.005
0.14
0.055
-0.085
-0.295
-0.365
-0.25
-0.195
-0.025
0.025
0.05
0.07
-0.005
-0.095
-0.275
-0.315
-0.185
-0.195
-0.11
-0.035
-0.045
0.135
0.04
-0.045
-0.23
-0.28
-0.19
-0.17
-0.08
0.005
0.07
0.16
0.025
-0.055
-0.295
-0.32
-0.145
-0.155
-0.095
0.02
0.085
0.135
0.06
-0.065
-0.26
-0.205
-0.17
-0.11
-0.025
0.08
0.06
0.165
0.09
-0.02
-0.22
-0.185
-0.07
-0.115
-0.005
0.005
0.11
0.2
0.085
0.03
-0.185
-0.065
-0.05
-0.045
0.025
0.11
0.21
0.235
0.13
0.08
-0.135
-0.06
-0.015
0.0
0.075
0.185
0.25
0.245
0.16
0.04
-0.165
-0.02
0.06
0.08
0.135
0.185
0.31
0.255
0.165
0.07
-0.14
-0.04
0.015
0.055
0.115
0.18
0.28
0.24
0.125
-0.085
-0.2
-0.065
-0.03
-0.025
0.07
0.105
0.185
0.145
0.045
-0.09
-0.305
-0.265
-0.13
-0.07
0.035
-0.005
0.14
0.095
-0.07
-0.215
-0.325
-0.2
-0.145
-0.155
-0.1
-0.06
0.145
0.09
-0.05
-0.225
-0.36
-0.21
-0.185
-0.165
-0.08
-0.005
0.16
0.06
-0.135
-0.225
-0.385
-0.155
-0.16
-0.13
0.01
-0.09
0.13
0.07
-0.08
-0.27
-0.37
-0.16
-0.22
-0.105
-0.055
0.0
0.14
-0.03
-0.065
-0.22
-0.365
-0.175
-0.14
-0.155
-0.115
-0.045
0.1
0.05
-0.085
-0.295
-0.31
-0.19
-0.165
-0.13
-0.05
-0.05
0.13
-0.025
-0.095
-0.31
-0.345
-0.22
-0.145
-0.115
0.005
-0.04
0.125
0.0
-0.09
-0.27
-0.31
-0.2
-0.125
-0.19
-0.035
0.005
0.1
-0.07
-0.14
-0.36
-0.23
-0.135
-0.2
-0.145
-0.005
0.005
0.075
0.0
-0.1
-0.34
-0.17
-0.235
-0.215
-0.135
-0.05
0.03
0.085
-0.06
-0.11
-0.345
-0.245
-0.18
-0.2
-0.09
