# TIPE ECG 2021 - ECG-ID Database v1.0.0 par Physionet
# [N° de la personne, N° de l'enregistrement, Période d'échantillonnage, Prénom, Age, Sexe, Date de l'enregistrement]
[25, 1, 0.002, "Antoine", 48, "H", "12.05.2005"]
0.36
0.195
0.135
-0.06
0.09
0.105
0.105
0.205
0.245
0.31
0.35
0.2
0.06
-0.045
0.1
0.08
0.105
0.21
0.215
0.36
0.355
0.245
0.105
-0.065
0.04
0.07
0.055
0.175
0.265
0.395
0.4
0.2
0.055
-0.09
0.07
0.04
0.105
0.245
0.2
0.41
0.415
0.235
0.045
-0.095
0.045
0.05
0.115
0.19
0.185
0.355
0.365
0.225
0.075
-0.105
0.065
0.06
0.115
0.18
0.22
0.37
0.295
0.225
0.0
-0.06
0.1
0.065
0.105
0.15
0.2
0.36
0.305
0.185
-0.035
-0.065
0.03
0.045
0.135
0.215
0.205
0.315
0.26
0.22
-0.06
-0.075
0.1
0.05
0.06
0.2
0.195
0.375
0.285
0.205
-0.07
-0.035
0.04
0.06
0.11
0.29
0.3
0.345
0.22
0.1
-0.17
0.005
0.085
0.06
0.11
0.175
0.27
0.31
0.17
0.14
-0.06
-0.035
-0.005
0.035
0.115
0.155
0.315
0.375
0.205
0.075
-0.11
-0.03
0.03
0.045
0.125
0.155
0.29
0.35
0.215
0.03
-0.11
-0.025
0.025
0.035
0.115
0.15
0.265
0.315
0.21
0.045
-0.135
-0.015
0.015
0.09
0.175
0.175
0.355
0.32
0.155
-0.015
-0.16
0.01
0.055
0.065
0.205
0.235
0.395
0.42
0.19
0.06
-0.045
0.095
0.075
0.13
0.215
0.28
0.46
0.365
0.31
0.085
-0.07
0.08
0.075
0.145
0.205
0.24
0.395
0.395
0.205
0.09
-0.075
0.115
0.09
0.125
0.2
0.215
0.335
0.305
0.23
0.0
-0.175
-0.025
-0.035
0.015
0.115
0.175
0.295
0.225
0.145
-0.06
-0.15
0.0
-0.02
0.04
0.11
0.11
0.32
0.23
0.1
-0.08
-0.1
-0.04
-0.03
0.055
0.135
0.105
0.215
0.145
0.06
-0.19
-0.215
-0.11
-0.155
-0.07
0.165
0.255
0.465
0.495
0.51
0.455
0.635
0.905
0.985
1.075
1.14
1.185
1.235
1.035
0.8
0.505
0.485
0.43
0.295
0.19
0.21
0.23
0.295
0.155
0.08
-0.23
-0.145
-0.14
-0.1
-0.07
0.08
0.11
0.23
0.165
0.12
-0.135
-0.025
0.04
0.085
0.185
0.195
0.315
0.345
0.22
0.13
-0.085
0.0
0.055
0.09
0.18
0.26
0.385
0.38
0.23
0.07
-0.075
0.05
0.1
0.12
0.185
0.25
0.385
0.365
0.28
0.11
-0.01
0.1
0.14
0.165
0.255
0.22
0.335
0.39
0.29
0.11
-0.08
0.15
0.165
0.24
0.22
0.3
0.41
0.445
0.285
0.14
-0.005
0.09
0.14
0.215
0.33
0.345
0.49
0.425
0.34
0.18
0.08
0.215
0.165
0.16
0.35
0.41
0.595
0.52
0.36
0.18
0.08
0.235
0.215
0.305
0.395
0.425
0.64
0.575
0.435
0.28
0.165
0.34
0.3
0.36
0.475
0.51
0.67
0.605
0.53
0.38
0.225
0.405
0.365
0.435
0.5
0.57
0.71
0.62
0.565
0.325
0.295
0.4
0.375
0.435
0.54
0.52
0.665
0.57
0.51
0.27
0.245
0.285
0.315
0.32
0.42
0.485
0.565
0.45
0.375
0.11
0.11
0.2
0.19
0.265
0.325
0.39
0.48
0.335
0.305
0.045
0.11
0.165
0.125
0.175
0.265
0.42
0.465
0.285
0.225
-0.02
0.08
0.145
0.135
0.22
0.295
0.4
0.47
0.275
0.19
-0.045
0.12
0.185
0.165
0.19
0.3
0.375
0.44
0.305
0.165
-0.02
0.095
0.14
0.185
0.25
0.28
0.385
0.405
0.32
0.18
0.03
0.145
0.115
0.19
0.27
0.3
0.47
0.395
0.315
0.165
-0.015
0.115
0.095
0.225
0.28
0.255
0.475
0.45
0.375
0.175
-0.02
0.1
0.115
0.25
0.325
0.34
0.445
0.42
0.345
0.145
-0.03
0.1
0.195
0.24
0.305
0.29
0.42
0.44
0.345
0.105
0.015
0.125
0.155
0.23
0.29
0.305
0.525
0.43
0.23
0.105
0.07
0.11
0.17
0.19
0.27
0.34
0.505
0.405
0.335
0.105
0.015
0.145
0.15
0.22
0.305
0.3
0.445
0.39
0.315
0.09
0.045
0.165
0.18
0.23
0.29
0.365
0.43
0.335
0.285
0.08
0.045
0.155
0.175
0.24
0.275
0.335
0.485
0.41
0.29
0.09
0.085
0.165
0.19
0.215
0.305
0.355
0.49
0.335
0.22
0.07
0.11
0.215
0.215
0.255
0.345
0.42
0.49
0.42
0.36
0.1
0.065
0.19
0.26
0.315
0.335
0.47
0.555
0.395
0.305
0.095
0.195
0.285
0.285
0.32
0.4
0.555
0.495
0.43
0.375
0.155
0.225
0.285
0.315
0.42
0.48
0.585
0.625
0.43
0.33
0.125
0.275
0.27
0.29
0.43
0.44
0.565
0.605
0.42
0.205
0.07
0.18
0.195
0.17
0.305
0.33
0.445
0.44
0.28
0.13
0.0
0.14
0.12
0.16
0.26
0.295
0.43
0.4
0.255
0.04
-0.035
0.095
0.095
0.19
0.245
0.29
0.435
0.38
0.28
0.11
-0.075
0.045
0.025
0.1
0.175
0.15
0.31
0.29
0.17
-0.075
-0.135
0.04
0.11
0.295
0.415
0.585
0.88
1.05
1.035
0.97
0.945
1.13
1.08
1.11
1.15
1.05
1.14
0.915
0.74
0.46
0.24
0.19
0.115
0.225
0.255
0.2
0.35
0.285
0.14
-0.07
-0.1
0.01
0.05
0.11
0.2
0.245
0.395
0.3
0.23
-0.01
0.04
0.145
0.185
0.115
0.22
0.305
0.43
0.365
0.26
-0.03
0.05
0.13
0.075
0.085
0.245
0.325
0.43
0.315
0.27
-0.005
0.075
0.065
0.075
0.205
0.275
0.355
0.44
0.34
0.24
-0.015
0.09
0.135
0.185
0.205
0.3
0.415
0.42
0.29
0.23
0.015
0.05
0.18
0.225
0.3
0.315
0.455
0.475
0.355
0.2
0.04
0.15
0.195
0.215
0.34
0.365
0.475
0.49
0.365
0.225
0.075
0.22
0.265
0.325
0.355
0.395
0.54
0.525
0.47
0.24
0.145
0.29
0.345
0.31
0.415
0.495
0.64
0.605
0.485
0.335
0.2
0.36
0.375
0.405
0.465
0.545
0.7
0.65
0.475
0.365
0.29
0.485
0.395
0.445
0.515
0.605
0.76
0.665
0.585
0.415
0.28
0.415
0.35
0.45
0.53
0.545
0.68
0.665
0.49
0.275
0.155
0.31
0.28
0.36
0.435
0.4
0.545
0.47
0.345
0.22
0.12
0.22
0.26
0.295
0.355
0.365
0.49
0.4
0.3
0.115
0.05
0.16
0.19
0.26
0.32
0.325
0.455
0.345
0.275
0.09
0.105
0.16
0.19
0.255
0.375
0.305
0.445
0.36
0.34
0.055
0.08
0.135
0.175
0.23
0.28
0.34
0.475
0.36
0.29
0.045
0.115
0.145
0.19
0.24
0.305
0.385
0.465
0.36
0.27
0.045
0.145
0.19
0.22
0.24
0.33
0.415
0.5
0.4
0.28
0.075
0.13
0.205
0.205
0.275
0.295
0.465
0.495
0.415
0.27
0.04
0.12
0.16
0.22
0.325
0.335
0.52
0.49
0.335
0.205
0.03
0.195
0.185
0.2
0.32
0.425
0.425
0.46
0.365
0.205
-0.005
0.17
0.24
0.21
0.285
0.37
0.485
0.5
0.33
0.16
-0.02
0.14
0.185
0.21
0.29
0.315
0.51
0.48
0.34
0.145
-0.065
0.15
0.22
0.25
0.3
0.325
0.43
0.4
0.295
0.15
-0.025
0.21
0.215
0.155
0.26
0.33
0.465
0.445
0.285
0.155
-0.025
0.125
0.125
0.21
0.245
0.3
0.48
0.43
0.26
0.1
-0.01
0.125
0.145
0.18
0.265
0.26
0.475
0.395
0.28
0.07
0.055
0.065
0.135
0.22
0.28
0.29
0.455
0.405
0.255
0.05
0.06
0.16
0.145
0.155
0.285
0.295
0.45
0.355
0.27
0.05
0.065
0.175
0.145
0.175
0.29
0.345
0.465
0.325
0.26
0.015
0.065
0.11
0.165
0.22
0.32
0.355
0.49
0.355
0.245
0.02
0.125
0.155
0.125
0.235
0.31
0.47
0.485
0.335
0.29
0.025
0.12
0.135
0.24
0.26
0.32
0.415
0.465
0.4
0.255
0.07
0.195
0.26
0.26
0.385
0.425
0.535
0.51
0.475
0.295
0.125
0.24
0.27
0.28
0.415
0.39
0.495
0.515
0.39
0.245
0.11
0.2
0.24
0.275
0.305
0.33
0.49
0.47
0.325
0.145
0.0
0.17
0.14
0.17
0.285
0.305
0.435
0.43
0.3
0.165
-0.085
0.1
0.115
0.175
0.215
0.275
0.39
0.37
0.305
0.09
-0.085
0.045
0.135
0.16
0.195
0.175
0.33
0.31
0.15
-0.035
-0.145
-0.005
-0.03
0.07
0.13
0.275
0.49
0.595
0.565
0.53
0.555
0.91
1.0
1.155
1.32
1.225
1.35
1.275
1.07
0.75
0.61
0.615
0.52
0.4
0.335
0.295
0.45
0.325
0.22
-0.04
-0.115
-0.035
-0.03
-0.04
0.16
0.2
0.285
0.225
0.2
-0.045
-0.035
0.08
0.09
0.13
0.24
0.24
0.365
0.275
0.235
-0.035
-0.01
0.085
0.065
0.1
0.16
0.26
0.41
0.3
0.19
-0.03
0.025
0.045
0.07
0.135
0.175
0.28
0.36
0.285
0.185
-0.015
0.01
0.0
0.11
0.185
0.235
0.3
0.36
0.26
0.125
-0.1
0.1
0.065
0.07
0.255
0.31
0.3
0.365
0.265
0.165
-0.06
0.055
0.1
0.15
0.22
0.265
0.375
0.38
0.275
0.06
-0.01
0.085
0.09
0.185
0.265
0.27
0.43
0.45
0.315
0.13
-0.035
0.16
0.15
0.165
0.34
0.365
0.51
0.47
0.345
0.175
0.06
0.215
0.2
0.275
0.385
0.405
0.58
0.56
0.425
0.255
0.09
0.26
0.29
0.29
0.415
0.5
0.61
0.555
0.455
0.315
0.145
0.29
0.25
0.35
0.46
0.48
0.575
0.56
0.4
0.25
0.105
0.255
0.205
0.27
0.375
0.34
0.53
0.45
0.365
0.135
0.04
0.205
0.12
0.15
0.295
0.32
0.47
0.31
0.24
0.035
-0.03
0.085
0.11
0.195
0.215
0.23
0.37
0.31
0.24
-0.05
-0.015
0.035
0.045
0.15
0.2
0.275
0.38
0.275
0.2
-0.07
-0.005
0.085
0.1
0.11
0.17
0.29
0.385
0.265
0.195
-0.05
0.01
0.05
0.1
0.115
0.21
0.275
0.35
0.285
0.2
-0.03
0.03
0.055
0.025
0.145
0.225
0.285
0.32
0.17
0.115
-0.07
0.04
0.14
0.085
0.135
0.205
0.315
0.38
0.22
0.15
-0.055
0.06
0.105
0.075
0.165
0.22
0.335
0.36
0.21
0.12
-0.09
0.06
0.065
0.115
0.195
0.2
0.33
0.305
0.22
0.095
-0.065
0.05
0.02
0.08
0.195
0.195
0.365
0.34
0.245
0.01
-0.095
0.03
0.065
0.055
0.185
0.205
0.385
0.35
0.215
0.04
-0.1
0.005
0.01
0.1
0.15
0.195
0.355
0.32
0.215
0.015
-0.085
0.05
-0.035
0.03
0.15
0.17
0.32
0.27
0.195
0.01
-0.12
0.0
0.035
0.07
0.185
0.16
0.325
0.32
0.215
-0.02
-0.16
-0.015
-0.01
0.05
0.1
0.23
0.365
0.315
0.16
0.005
-0.035
0.085
-0.055
0.055
0.17
0.19
0.355
0.26
0.21
-0.045
-0.12
0.05
0.065
0.17
0.2
0.205
0.385
0.275
0.2
-0.03
-0.01
0.04
0.085
0.14
0.22
0.285
0.42
0.275
0.22
0.015
0.05
0.1
0.13
0.19
0.28
0.375
0.47
0.33
0.255
0.035
0.125
0.155
0.145
0.195
0.305
0.38
0.44
0.35
0.265
0.025
0.075
0.15
0.175
0.175
0.335
0.365
0.4
0.235
0.135
-0.12
-0.03
0.07
0.095
0.185
0.215
0.34
0.31
0.2
0.04
-0.095
0.015
0.055
0.035
0.19
0.145
0.275
0.29
0.235
0.05
-0.125
0.005
0.025
0.045
0.125
0.195
0.32
0.31
0.145
-0.07
-0.18
-0.085
-0.04
-0.055
0.015
0.05
0.2
0.205
0.075
-0.015
-0.095
0.19
0.315
0.48
0.745
0.98
1.23
1.31
1.305
1.14
0.895
1.01
0.975
0.9
0.89
0.735
0.745
0.56
0.31
0.085
-0.13
0.0
-0.005
0.015
0.065
0.075
0.21
0.19
0.13
-0.03
-0.075
0.06
0.05
0.115
0.105
0.165
0.3
0.24
0.185
-0.03
-0.12
0.03
-0.04
0.05
0.175
0.17
0.31
0.255
0.13
0.005
-0.125
-0.025
0.03
0.06
0.08
0.145
0.3
0.22
0.13
-0.145
-0.105
-0.02
-0.06
0.025
0.08
0.14
0.28
0.16
0.115
-0.145
-0.155
-0.025
-0.03
-0.075
0.115
0.185
0.255
0.165
0.04
-0.175
-0.135
-0.07
-0.06
0.02
0.075
0.165
0.22
0.14
0.005
-0.26
-0.12
-0.015
-0.05
-0.045
0.08
0.12
0.21
0.12
0.005
-0.18
-0.095
-0.145
-0.015
0.055
0.085
0.19
0.26
0.14
-0.005
-0.205
-0.045
-0.025
0.005
0.13
0.19
0.225
0.25
0.135
0.07
-0.09
-0.005
0.045
0.095
0.16
0.245
0.315
0.315
0.215
0.015
-0.035
0.065
0.055
0.075
0.165
0.23
0.405
0.32
0.17
0.01
-0.2
0.02
0.035
0.045
0.105
0.13
0.285
0.225
0.09
-0.125
-0.275
-0.125
-0.105
-0.1
-0.03
0.045
0.175
0.08
-0.02
-0.2
-0.335
-0.21
-0.23
-0.215
-0.11
-0.035
0.105
0.025
-0.11
-0.265
-0.395
-0.235
-0.275
-0.19
-0.125
-0.07
0.12
0.025
-0.065
-0.24
-0.4
-0.245
-0.265
-0.23
-0.155
-0.125
0.055
-0.03
-0.105
-0.32
-0.355
-0.235
-0.225
-0.19
-0.135
-0.08
0.05
-0.065
-0.145
-0.355
-0.335
-0.235
-0.275
-0.22
-0.115
-0.085
0.04
-0.095
-0.16
-0.33
-0.355
-0.295
-0.24
-0.22
-0.17
-0.1
0.0
-0.12
-0.155
-0.385
-0.31
-0.22
-0.33
-0.225
-0.165
-0.1
-0.01
-0.105
-0.2
-0.455
-0.335
-0.3
-0.335
-0.29
-0.175
-0.075
0.03
-0.12
-0.195
-0.43
-0.36
-0.33
-0.3
-0.26
-0.155
-0.085
-0.04
-0.16
-0.22
-0.47
-0.335
-0.355
-0.34
-0.28
-0.13
-0.09
-0.04
-0.205
-0.29
-0.445
-0.39
-0.32
-0.325
-0.245
-0.185
-0.075
-0.05
-0.19
-0.31
-0.485
-0.375
-0.37
-0.345
-0.245
-0.22
-0.07
-0.08
-0.17
-0.37
-0.51
-0.38
-0.34
-0.325
-0.28
-0.195
-0.065
-0.08
-0.21
-0.395
-0.525
-0.4
-0.335
-0.35
-0.245
-0.2
-0.065
-0.07
-0.255
-0.38
-0.49
-0.39
-0.37
-0.34
-0.265
-0.235
-0.065
-0.1
-0.23
-0.45
-0.505
-0.405
-0.37
-0.345
-0.255
-0.245
-0.045
-0.15
-0.2
-0.425
-0.53
-0.4
-0.365
-0.355
-0.265
-0.17
-0.005
-0.13
-0.305
-0.455
-0.535
-0.37
-0.41
-0.345
-0.21
-0.205
-0.05
-0.175
-0.23
-0.41
-0.455
-0.37
-0.315
-0.26
-0.185
-0.16
0.04
-0.045
-0.155
-0.385
-0.375
-0.27
-0.255
-0.23
-0.135
-0.08
0.035
-0.075
-0.16
-0.365
-0.395
-0.315
-0.245
-0.255
-0.185
-0.065
0.025
-0.085
-0.22
-0.435
-0.465
-0.345
-0.375
-0.32
-0.23
-0.16
-0.065
-0.19
-0.285
-0.525
-0.435
-0.43
-0.395
-0.335
-0.25
-0.15
-0.13
-0.21
-0.315
-0.565
-0.49
-0.41
-0.42
-0.31
-0.28
-0.16
-0.14
-0.265
-0.385
-0.615
-0.51
-0.5
-0.445
-0.38
-0.36
-0.275
-0.29
-0.39
-0.485
-0.655
-0.455
-0.355
-0.2
0.075
0.22
0.62
0.685
0.68
0.655
0.56
0.615
0.675
0.62
0.605
0.51
0.525
0.39
0.165
-0.23
-0.435
-0.385
-0.405
-0.425
-0.33
-0.3
-0.22
-0.29
-0.42
-0.585
-0.69
-0.545
-0.495
-0.445
-0.3
-0.305
-0.17
-0.205
-0.28
-0.47
-0.615
-0.465
-0.465
-0.38
-0.305
-0.28
-0.21
-0.16
-0.25
-0.47
-0.63
-0.455
-0.4
-0.395
-0.35
-0.285
-0.16
-0.195
-0.29
-0.485
-0.55
-0.445
-0.41
-0.355
-0.32
-0.32
-0.165
-0.185
-0.3
-0.515
-0.515
-0.4
-0.505
-0.335
-0.24
-0.245
-0.065
-0.215
-0.31
-0.505
-0.475
-0.4
-0.35
-0.375
-0.325
-0.245
-0.075
-0.205
-0.24
-0.53
-0.42
-0.335
-0.375
-0.335
-0.255
-0.17
-0.07
-0.185
-0.235
-0.48
-0.42
-0.345
-0.33
-0.29
-0.17
-0.135
-0.03
-0.14
-0.18
-0.395
-0.345
-0.3
-0.27
-0.255
-0.145
-0.055
0.04
-0.085
-0.155
-0.37
-0.295
-0.285
-0.17
-0.105
-0.065
0.04
0.045
-0.055
-0.12
-0.34
-0.23
-0.14
-0.19
-0.11
-0.055
0.115
0.14
-0.01
-0.155
-0.345
-0.215
-0.225
-0.195
-0.12
-0.11
0.075
0.05
-0.115
-0.28
-0.43
-0.33
-0.295
-0.285
-0.195
-0.2
-0.08
-0.105
-0.23
-0.425
-0.555
-0.405
-0.39
-0.36
-0.3
-0.27
-0.145
-0.155
-0.34
-0.47
-0.63
-0.475
-0.445
-0.405
-0.33
-0.3
-0.135
-0.195
-0.345
-0.525
-0.595
-0.415
-0.46
-0.43
-0.35
-0.315
-0.16
-0.195
-0.33
-0.46
-0.575
-0.45
-0.475
-0.425
-0.325
-0.29
-0.1
-0.175
-0.36
-0.495
-0.595
-0.49
-0.46
-0.4
-0.325
-0.325
-0.14
-0.185
-0.29
-0.495
-0.54
-0.44
-0.48
-0.405
-0.31
-0.29
-0.185
-0.225
-0.305
-0.515
-0.555
-0.485
-0.47
-0.41
-0.295
-0.265
-0.145
-0.25
-0.29
-0.54
-0.585
-0.44
-0.41
-0.36
-0.255
-0.3
-0.15
-0.23
-0.3
-0.54
-0.505
-0.47
-0.455
-0.355
-0.265
-0.26
-0.14
-0.245
-0.355
-0.555
-0.5
-0.46
-0.435
-0.375
-0.395
-0.225
-0.185
-0.28
-0.345
-0.665
-0.48
-0.395
-0.485
-0.395
-0.275
-0.205
-0.16
-0.31
-0.395
-0.63
-0.485
-0.45
-0.4
-0.355
-0.31
-0.17
-0.19
-0.31
-0.46
-0.635
-0.515
-0.475
-0.44
-0.36
-0.28
-0.175
-0.19
-0.3
-0.425
-0.64
-0.53
-0.455
-0.44
-0.38
-0.3
-0.19
-0.155
-0.315
-0.47
-0.63
-0.49
-0.46
-0.435
-0.31
-0.3
-0.15
-0.19
-0.335
-0.475
-0.605
-0.425
-0.45
-0.46
-0.38
-0.31
-0.155
-0.215
-0.315
-0.46
-0.65
-0.465
-0.49
-0.405
-0.35
-0.32
-0.16
-0.175
-0.33
-0.49
-0.535
-0.43
-0.53
-0.455
-0.36
-0.27
-0.155
-0.265
-0.315
-0.51
-0.535
-0.445
-0.515
-0.39
-0.35
-0.345
-0.12
-0.155
-0.3
-0.51
-0.595
-0.465
-0.48
-0.425
-0.325
-0.27
-0.105
-0.2
-0.32
-0.495
-0.525
-0.43
-0.395
-0.365
-0.25
-0.255
-0.055
-0.185
-0.24
-0.45
-0.43
-0.335
-0.335
-0.245
-0.175
-0.14
0.005
-0.085
-0.23
-0.365
-0.43
-0.35
-0.375
-0.285
-0.24
-0.12
0.0
-0.135
-0.21
-0.485
-0.415
-0.33
-0.325
-0.315
-0.25
-0.16
-0.065
-0.245
-0.29
-0.555
-0.545
-0.43
-0.405
-0.355
-0.28
-0.225
-0.135
-0.245
-0.325
-0.55
-0.485
-0.455
-0.445
-0.355
-0.28
-0.15
-0.15
-0.25
-0.39
-0.615
-0.505
-0.425
-0.405
-0.325
-0.35
-0.21
-0.17
-0.375
-0.535
-0.755
-0.6
-0.605
-0.52
-0.44
-0.36
-0.11
0.0
-0.035
-0.065
-0.045
0.315
0.445
-0.245
-0.15
-0.175
-0.29
-0.535
-0.675
-0.585
-0.605
-0.56
-0.445
-0.43
-0.265
-0.28
-0.4
-0.575
-0.675
-0.485
-0.51
-0.475
-0.345
-0.31
-0.185
-0.155
-0.37
-0.56
-0.635
-0.435
-0.56
-0.445
-0.37
-0.345
-0.175
-0.21
-0.305
-0.53
-0.6
-0.49
-0.495
-0.405
-0.345
-0.31
-0.19
-0.22
-0.325
-0.54
-0.565
-0.465
-0.47
-0.435
-0.325
-0.315
-0.115
-0.175
-0.265
-0.495
-0.48
-0.46
-0.44
-0.41
-0.28
-0.255
-0.13
-0.225
-0.285
-0.535
-0.52
-0.435
-0.42
-0.335
-0.315
-0.19
-0.07
-0.195
-0.26
-0.47
-0.475
-0.445
-0.34
-0.305
-0.23
-0.095
-0.05
-0.175
-0.22
-0.415
-0.37
-0.33
-0.25
-0.2
-0.155
-0.08
0.035
-0.03
-0.105
-0.415
-0.315
-0.27
-0.195
-0.125
-0.075
0.02
0.13
-0.01
-0.08
-0.365
-0.185
-0.12
-0.14
-0.065
-0.025
0.145
0.225
0.08
-0.085
-0.28
-0.14
-0.135
-0.115
-0.005
0.025
0.2
0.145
-0.01
-0.175
-0.32
-0.21
-0.14
-0.14
-0.075
-0.055
0.045
0.06
-0.1
-0.27
-0.42
-0.31
-0.255
-0.26
-0.145
-0.13
-0.03
-0.04
-0.195
-0.35
-0.505
-0.345
-0.34
-0.28
-0.25
-0.14
-0.01
-0.025
-0.155
-0.365
-0.5
-0.35
-0.345
-0.33
-0.245
-0.205
-0.02
-0.06
-0.15
-0.38
-0.47
-0.375
-0.36
-0.3
-0.19
-0.145
-0.025
-0.065
-0.215
-0.385
-0.475
-0.27
-0.335
-0.315
-0.245
-0.22
-0.03
-0.085
-0.19
-0.385
-0.415
-0.345
-0.325
-0.25
-0.17
-0.135
-0.015
-0.12
-0.155
-0.4
-0.4
-0.29
-0.335
-0.17
-0.185
-0.115
0.04
-0.085
-0.18
-0.375
-0.415
-0.265
-0.265
-0.18
-0.205
-0.13
0.045
-0.115
-0.17
-0.345
-0.345
-0.3
-0.3
-0.25
-0.13
-0.085
0.045
-0.075
-0.16
-0.4
-0.395
-0.345
-0.3
-0.205
-0.08
-0.06
0.01
-0.1
-0.175
-0.425
-0.365
-0.29
-0.27
-0.185
-0.11
-0.025
0.0
-0.1
-0.18
-0.385
-0.29
-0.285
-0.255
-0.2
-0.085
-0.005
-0.015
-0.105
-0.185
-0.415
-0.28
-0.29
-0.27
-0.16
-0.11
0.05
0.01
-0.085
-0.27
-0.425
-0.295
-0.28
-0.32
-0.15
-0.12
-0.015
-0.03
-0.09
-0.26
-0.445
-0.28
-0.28
-0.24
-0.115
-0.145
0.015
-0.005
-0.1
-0.245
-0.355
-0.265
-0.215
-0.17
-0.105
-0.05
0.12
0.1
-0.075
-0.23
-0.35
-0.225
-0.225
-0.185
-0.035
-0.005
0.125
0.08
-0.035
-0.185
-0.33
-0.16
-0.13
-0.11
-0.005
0.115
0.205
0.135
0.025
-0.135
-0.27
-0.07
-0.12
-0.035
0.02
0.04
0.19
0.15
0.045
-0.16
-0.265
-0.09
-0.11
-0.07
-0.005
-0.055
0.21
0.115
-0.05
-0.24
-0.275
-0.245
-0.21
-0.16
-0.055
-0.04
0.115
0.025
-0.04
-0.3
-0.29
-0.19
-0.19
-0.255
-0.11
-0.025
0.16
0.025
-0.045
-0.32
-0.32
-0.2
-0.17
-0.105
-0.09
-0.08
0.08
-0.015
-0.085
-0.38
-0.415
-0.325
-0.32
-0.285
-0.135
-0.05
0.015
0.0
0.02
-0.095
0.115
0.315
0.475
0.69
0.87
1.06
1.12
0.95
0.905
0.495
0.56
0.495
0.395
0.32
0.275
0.23
0.2
0.0
-0.065
-0.36
-0.315
-0.265
-0.245
-0.15
-0.105
0.02
-0.045
-0.105
-0.18
-0.4
-0.3
-0.24
-0.15
-0.07
-0.07
0.09
0.13
-0.065
-0.13
-0.3
-0.19
-0.19
-0.14
-0.005
0.035
0.115
0.14
-0.01
-0.165
-0.31
-0.115
-0.08
-0.14
0.01
0.005
0.24
0.18
0.02
-0.11
-0.245
-0.135
-0.065
-0.01
0.065
0.02
0.215
0.17
0.045
-0.125
-0.21
-0.085
-0.09
-0.06
0.13
0.135
0.18
0.23
0.11
-0.11
-0.185
-0.025
-0.045
-0.005
0.08
0.08
0.29
0.265
0.145
-0.04
-0.16
-0.055
0.03
0.075
0.125
0.105
0.31
0.23
0.115
-0.06
-0.1
0.03
0.01
0.075
0.165
0.165
0.41
0.355
0.24
-0.015
0.03
0.125
0.125
0.165
0.265
0.295
0.46
0.395
0.32
0.085
0.1
0.25
0.23
0.22
0.305
0.435
0.54
0.44
0.33
0.14
0.185
0.16
0.195
0.25
0.34
0.39
0.48
0.39
0.275
0.015
0.07
0.175
0.095
0.16
0.27
0.31
0.355
0.315
0.195
-0.13
-0.05
0.02
0.025
0.07
0.12
0.23
0.32
0.19
0.08
-0.185
-0.02
-0.055
-0.045
0.045
0.125
0.25
0.24
0.105
0.0
-0.195
-0.08
-0.1
-0.045
0.035
0.09
0.22
0.28
0.12
0.01
-0.245
-0.125
-0.02
-0.035
0.04
0.06
0.285
0.27
0.11
-0.065
-0.23
-0.02
-0.055
-0.01
0.105
0.155
0.26
0.255
0.105
-0.025
-0.155
-0.06
-0.055
-0.035
0.08
0.115
0.255
0.215
0.11
-0.07
-0.18
-0.03
-0.02
0.015
0.08
0.125
0.3
0.245
0.12
-0.04
-0.245
-0.04
-0.04
0.07
0.085
0.17
0.35
0.23
0.105
-0.05
-0.125
0.02
-0.055
0.01
0.12
0.195
0.31
0.245
0.07
-0.06
-0.165
-0.01
-0.01
0.095
0.125
0.135
0.23
0.22
0.125
-0.08
-0.125
0.0
-0.035
0.035
0.12
0.095
0.31
0.185
0.155
-0.13
-0.09
-0.01
-0.005
0.045
0.145
0.16
0.305
0.26
0.145
-0.14
-0.115
-0.03
-0.015
0.035
0.115
0.195
0.27
0.19
0.12
-0.13
-0.035
0.03
-0.03
0.035
0.125
0.235
0.335
0.23
0.125
-0.12
-0.025
0.035
0.0
0.015
0.14
0.23
0.295
0.215
0.135
-0.135
-0.015
0.005
-0.005
0.065
0.17
0.25
0.305
0.2
0.13
-0.15
-0.015
0.055
0.085
0.06
0.155
0.28
0.32
0.205
0.07
-0.15
0.015
0.02
0.035
0.165
0.225
0.355
0.325
0.205
0.05
-0.125
0.03
0.045
0.105
0.23
0.255
0.4
0.39
0.29
0.095
-0.09
0.09
0.105
0.105
0.195
0.21
0.385
0.395
0.22
0.05
-0.065
0.025
0.04
0.11
0.145
0.17
0.275
0.3
0.155
-0.01
-0.17
-0.01
-0.055
-0.035
0.09
0.105
0.26
0.275
0.085
-0.16
-0.205
-0.005
-0.025
0.025
0.09
0.11
0.28
0.205
0.105
-0.115
-0.185
-0.035
-0.035
0.005
0.09
0.075
0.24
0.155
0.015
-0.225
-0.295
-0.135
-0.18
-0.075
0.02
0.055
0.26
0.325
0.385
0.335
0.415
0.67
0.82
0.95
1.09
1.095
1.23
1.09
0.875
0.585
0.49
0.47
0.35
0.27
0.16
0.185
0.34
0.215
0.035
-0.26
-0.245
-0.13
-0.14
-0.095
-0.035
0.095
0.17
0.075
0.055
-0.2
-0.165
-0.1
-0.03
0.015
0.05
0.18
0.28
0.125
0.12
-0.185
-0.085
-0.015
0.0
0.02
0.12
0.185
0.25
0.125
0.035
-0.19
-0.065
0.03
0.055
0.075
0.215
0.29
0.19
0.195
0.115
-0.13
-0.06
-0.03
0.04
0.135
0.135
0.295
0.315
0.17
0.055
-0.14
-0.025
0.025
0.065
0.16
0.19
0.345
0.325
0.22
0.09
-0.14
0.055
0.07
0.065
0.165
0.26
0.36
0.35
0.175
0.09
-0.065
0.085
0.145
0.13
0.23
0.275
0.435
0.405
0.265
0.1
-0.045
0.09
0.08
0.165
0.22
0.28
0.46
0.385
0.295
0.08
-0.055
0.14
0.12
0.22
0.195
0.315
0.405
0.445
0.355
0.135
0.005
0.145
0.17
0.255
0.335
0.38
0.49
0.45
0.335
0.145
0.09
0.225
0.185
0.235
0.295
0.325
0.51
0.385
0.28
0.11
0.035
0.135
0.15
0.16
0.235
0.255
0.4
0.32
0.175
-0.04
-0.015
-0.055
0.015
0.06
0.135
0.155
0.365
0.215
0.1
-0.09
-0.055
-0.005
-0.035
-0.025
0.085
0.175
0.28
0.19
0.07
-0.135
-0.09
-0.03
-0.015
0.005
0.125
0.175
0.28
0.14
0.115
-0.205
-0.055
-0.01
0.06
0.07
0.12
0.25
0.315
0.18
0.125
-0.1
-0.03
0.0
0.015
0.02
0.155
0.24
0.34
0.195
0.06
-0.125
-0.04
-0.025
-0.015
0.145
0.165
0.32
0.335
0.17
0.03
-0.165
-0.045
0.03
-0.005
0.055
0.165
0.32
0.29
0.09
-0.05
-0.18
-0.02
0.055
0.015
0.11
0.085
0.255
0.295
0.13
-0.05
-0.185
-0.025
-0.02
0.055
0.16
0.15
0.27
0.265
0.16
-0.065
-0.205
-0.03
-0.025
-0.01
0.105
0.135
0.315
0.225
0.13
-0.075
-0.205
-0.03
0.0
0.015
0.1
0.135
0.265
0.2
0.105
-0.07
-0.21
-0.055
-0.075
-0.04
0.085
0.105
0.25
0.22
0.055
-0.14
-0.22
-0.06
-0.08
-0.055
0.09
0.115
0.285
0.175
0.06
-0.18
-0.15
-0.03
-0.05
-0.025
0.075
0.105
0.235
0.185
0.12
-0.12
-0.12
-0.07
-0.075
-0.045
0.06
0.055
0.255
0.185
0.08
-0.17
-0.165
-0.07
-0.075
-0.015
0.05
0.09
0.215
0.135
0.08
-0.185
-0.14
-0.095
-0.045
0.0
0.095
0.12
0.245
0.105
0.075
-0.2
-0.125
-0.085
0.005
0.085
0.12
0.195
0.26
0.145
0.105
-0.16
-0.08
-0.02
0.03
0.04
0.19
0.28
0.3
0.215
0.17
-0.095
-0.04
0.045
0.15
0.135
0.125
0.245
0.315
0.15
0.06
-0.19
-0.05
0.025
0.01
0.13
0.09
0.235
0.25
0.145
-0.065
-0.215
-0.08
-0.095
-0.115
0.03
0.08
0.175
0.215
0.04
-0.17
-0.29
-0.12
-0.165
-0.09
0.05
0.02
0.165
0.115
0.02
-0.13
-0.305
-0.22
-0.175
-0.115
0.0
0.015
0.165
0.14
-0.045
-0.205
-0.365
-0.22
-0.215
-0.25
-0.13
-0.11
0.03
0.02
-0.085
-0.135
-0.17
0.1
0.23
0.47
0.73
0.885
1.095
1.135
0.935
0.775
0.64
0.695
0.545
0.52
0.49
0.395
0.375
0.125
-0.035
-0.28
-0.34
-0.24
-0.24
-0.245
-0.175
-0.18
0.01
-0.05
-0.16
-0.355
-0.405
-0.29
-0.245
-0.18
-0.095
-0.105
0.085
-0.01
-0.205
-0.295
-0.3
-0.235
-0.215
-0.22
-0.095
-0.055
0.115
-0.005
-0.105
-0.335
-0.345
-0.3
-0.27
-0.165
-0.035
-0.015
0.095
-0.015
-0.12
-0.335
-0.285
-0.225
-0.225
-0.16
-0.06
-0.05
0.07
-0.04
-0.085
-0.34
-0.265
-0.185
-0.2
-0.15
-0.065
0.0
0.12
-0.025
-0.095
-0.365
-0.27
-0.18
-0.175
-0.125
0.0
0.07
0.1
-0.075
-0.08
-0.32
-0.215
-0.16
-0.115
-0.06
-0.03
0.12
0.19
-0.01
-0.125
-0.305
-0.17
-0.085
-0.065
-0.01
0.015
0.185
0.175
0.11
-0.025
-0.155
-0.11
-0.045
-0.035
0.065
0.135
0.23
0.225
0.145
0.005
-0.18
-0.075
0.09
0.06
0.185
0.18
0.325
0.325
0.215
0.035
-0.115
0.04
0.085
0.045
0.125
0.195
0.36
0.28
0.135
-0.01
-0.105
-0.035
-0.045
0.045
0.105
0.07
0.24
0.195
0.075
-0.155
-0.275
-0.105
-0.12
-0.025
0.0
-0.06
0.205
0.13
0.03
-0.25
-0.35
-0.155
-0.185
-0.095
-0.025
-0.06
0.065
0.065
-0.005
-0.235
-0.27
-0.165
-0.195
-0.11
-0.03
-0.085
0.095
0.005
-0.025
-0.255
-0.3
-0.18
-0.2
-0.155
-0.03
-0.06
0.09
-0.005
-0.04
-0.28
-0.27
-0.2
-0.19
-0.135
-0.01
-0.005
0.095
0.03
-0.06
-0.29
-0.265
-0.205
-0.145
-0.14
-0.03
0.035
0.13
0.0
-0.095
-0.315
-0.21
-0.19
-0.165
-0.18
-0.09
0.02
0.11
0.0
-0.06
-0.325
-0.255
-0.185
-0.175
-0.155
-0.1
0.01
0.105
-0.035
-0.095
-0.36
-0.235
-0.225
-0.22
-0.1
-0.045
0.04
0.105
-0.05
-0.135
-0.34
-0.26
-0.22
-0.22
-0.18
-0.025
0.07
0.1
-0.075
-0.17
-0.395
-0.235
-0.215
-0.26
-0.135
-0.07
0.04
0.09
-0.03
-0.225
-0.41
-0.295
-0.225
-0.13
-0.105
-0.06
0.095
0.03
-0.105
-0.285
-0.395
-0.26
-0.245
-0.175
-0.07
-0.105
0.04
0.035
-0.08
-0.255
-0.375
-0.21
-0.195
-0.185
-0.12
-0.06
0.12
0.025
-0.065
-0.255
-0.395
-0.24
-0.275
-0.165
-0.075
-0.06
0.06
0.085
-0.05
-0.245
-0.445
-0.24
-0.24
-0.155
-0.11
-0.085
0.095
0.06
-0.08
-0.305
-0.345
-0.245
-0.255
-0.205
-0.14
-0.115
0.075
0.0
-0.12
-0.33
-0.3
-0.3
-0.315
-0.235
-0.135
-0.105
0.06
-0.005
-0.095
-0.35
-0.315
-0.275
-0.255
-0.215
-0.115
-0.075
0.035
-0.055
-0.125
-0.365
-0.325
-0.25
-0.215
-0.21
-0.1
-0.025
0.05
-0.04
-0.075
-0.36
-0.325
-0.19
-0.205
-0.15
-0.065
0.04
0.12
-0.06
-0.135
-0.325
-0.235
-0.15
-0.125
-0.095
0.04
0.14
0.145
0.09
0.065
-0.28
-0.21
-0.19
-0.13
-0.085
0.05
0.12
0.115
-0.03
-0.065
-0.305
-0.21
-0.225
-0.11
-0.055
-0.095
0.035
0.065
-0.075
-0.15
-0.425
-0.315
-0.29
-0.245
-0.105
-0.155
-0.01
-0.02
-0.155
-0.225
-0.42
-0.275
-0.23
-0.29
-0.15
-0.135
-0.03
-0.035
-0.185
-0.315
-0.465
-0.305
-0.31
-0.285
-0.195
-0.175
-0.12
-0.135
-0.25
-0.42
-0.605
-0.485
-0.465
-0.425
-0.29
-0.23
0.06
0.09
0.125
0.105
0.16
0.43
0.605
0.745
0.89
0.915
1.1
0.99
0.79
0.51
0.225
0.27
0.14
0.055
-0.095
-0.11
0.025
-0.05
-0.16
-0.39
-0.515
-0.37
-0.405
-0.425
-0.31
-0.29
-0.105
-0.145
-0.22
-0.455
-0.515
-0.42
-0.375
-0.31
-0.215
-0.165
-0.09
-0.17
-0.225
-0.415
-0.445
-0.37
-0.325
-0.265
-0.255
-0.215
-0.03
-0.13
-0.235
-0.44
-0.48
-0.365
-0.305
-0.28
-0.205
-0.145
-0.02
-0.175
-0.22
-0.465
-0.415
-0.305
-0.335
-0.3
-0.205
-0.145
-0.045
-0.14
-0.205
-0.49
-0.4
-0.37
-0.325
-0.295
-0.18
-0.14
-0.045
-0.15
-0.19
-0.43
-0.435
-0.345
-0.285
-0.21
-0.17
-0.065
-0.03
-0.135
-0.2
-0.48
-0.41
-0.29
-0.255
-0.18
-0.16
-0.005
0.005
-0.105
-0.165
-0.385
-0.315
-0.24
-0.185
-0.14
-0.05
0.065
0.01
-0.035
-0.11
-0.325
-0.235
-0.15
-0.175
-0.045
-0.045
0.105
0.155
0.07
-0.085
-0.265
-0.13
-0.075
-0.085
0.04
0.05
0.17
0.165
0.105
-0.095
-0.26
-0.09
-0.08
-0.05
0.04
0.065
0.195
0.165
0.05
-0.125
-0.28
-0.13
-0.185
-0.155
-0.075
-0.04
0.13
0.06
-0.07
-0.31
-0.42
-0.28
-0.285
-0.27
-0.165
-0.11
0.025
-0.075
-0.18
-0.38
-0.44
-0.325
-0.35
-0.28
-0.185
-0.135
-0.02
-0.055
-0.155
-0.38
-0.525
-0.35
-0.33
-0.315
-0.22
-0.17
-0.035
-0.085
-0.215
-0.39
-0.455
-0.365
-0.315
-0.24
-0.195
-0.18
-0.045
-0.085
-0.195
-0.465
-0.425
-0.37
-0.395
-0.23
-0.205
-0.14
-0.04
-0.13
-0.22
-0.415
-0.425
-0.37
-0.365
-0.295
-0.195
-0.15
-0.085
-0.15
-0.245
-0.49
-0.455
-0.41
-0.355
-0.265
-0.19
-0.14
-0.03
-0.15
-0.22
-0.44
-0.385
-0.31
-0.3
-0.29
-0.19
-0.075
-0.035
-0.13
-0.21
-0.435
-0.34
-0.27
-0.28
-0.275
-0.175
-0.07
-0.025
-0.14
-0.175
-0.445
-0.36
-0.255
-0.29
-0.195
-0.075
0.0
0.02
-0.12
-0.2
-0.435
-0.31
-0.32
-0.27
-0.19
-0.13
0.015
-0.015
-0.095
-0.26
-0.42
-0.275
-0.25
-0.235
-0.145
-0.075
-0.03
-0.04
-0.155
-0.28
-0.445
-0.295
-0.275
-0.22
-0.1
-0.11
0.015
0.01
-0.14
-0.295
-0.43
-0.29
-0.25
-0.23
-0.115
-0.11
0.01
-0.035
-0.115
-0.3
-0.44
-0.295
-0.27
-0.22
-0.165
-0.1
0.045
0.015
-0.115
-0.25
-0.405
-0.235
-0.33
-0.27
-0.115
-0.075
0.055
-0.025
-0.145
-0.365
-0.47
-0.295
-0.335
-0.25
-0.165
-0.09
-0.05
-0.08
-0.18
-0.36
-0.445
-0.3
-0.325
-0.23
-0.165
-0.14
-0.005
-0.08
-0.15
-0.37
-0.36
-0.285
-0.225
-0.215
-0.16
-0.085
0.025
-0.055
-0.08
-0.35
-0.335
-0.24
-0.195
-0.165
-0.08
-0.02
0.18
0.035
-0.065
-0.29
-0.23
-0.17
-0.13
-0.09
-0.025
0.05
0.17
0.03
-0.065
-0.295
-0.23
-0.17
-0.175
-0.155
-0.06
0.01
0.085
0.01
-0.08
-0.345
-0.265
-0.22
-0.21
-0.19
-0.09
-0.005
0.075
-0.11
-0.17
-0.4
-0.255
-0.235
-0.18
-0.2
-0.14
0.0
0.065
-0.075
-0.185
-0.415
-0.32
-0.35
-0.21
-0.125
-0.125
0.04
0.04
-0.11
-0.3
-0.48
-0.355
-0.37
-0.35
-0.245
-0.27
-0.14
-0.095
-0.21
-0.34
-0.36
-0.07
0.105
0.225
0.465
0.655
0.915
0.985
1.01
0.85
0.68
0.78
0.69
0.605
0.61
0.43
0.435
0.265
-0.005
-0.255
-0.42
-0.265
-0.295
-0.29
-0.23
-0.2
-0.075
-0.09
-0.21
-0.375
-0.545
-0.375
-0.34
-0.26
-0.175
-0.14
-0.005
-0.02
-0.1
-0.315
-0.44
-0.285
-0.325
-0.225
-0.12
-0.14
0.01
-0.055
-0.16
-0.355
-0.455
-0.285
-0.315
-0.275
-0.195
-0.125
0.055
-0.045
-0.185
-0.37
-0.375
-0.29
-0.29
-0.265
-0.15
-0.11
0.065
-0.065
-0.145
-0.34
-0.385
-0.26
-0.235
-0.225
-0.11
-0.125
0.01
-0.035
-0.11
-0.325
-0.33
-0.255
-0.22
-0.215
-0.09
-0.05
0.09
-0.065
-0.13
-0.385
-0.23
-0.23
-0.245
-0.195
-0.09
-0.055
0.06
-0.02
-0.025
-0.335
-0.28
-0.2
-0.175
-0.18
-0.065
0.075
0.14
0.05
-0.05
-0.275
-0.185
-0.115
-0.095
-0.065
0.05
0.2
0.13
0.06
-0.01
-0.29
-0.165
-0.05
-0.08
0.04
0.08
0.195
0.22
0.1
0.005
-0.225
-0.1
-0.035
-0.03
0.055
0.085
0.235
0.235
0.1
-0.04
-0.335
-0.15
-0.11
-0.095
-0.025
0.02
0.16
0.115
-0.005
-0.16
-0.33
-0.21
-0.225
-0.21
-0.12
-0.145
0.05
-0.025
-0.16
-0.295
-0.445
-0.29
-0.28
-0.26
-0.115
-0.13
-0.015
-0.09
-0.18
-0.33
-0.445
-0.27
-0.31
-0.29
-0.225
-0.18
0.035
-0.035
-0.16
-0.32
-0.47
-0.345
-0.325
-0.25
-0.235
-0.23
-0.01
-0.05
-0.16
-0.295
-0.435
-0.35
-0.365
-0.315
-0.285
-0.12
0.015
-0.115
-0.195
-0.4
-0.455
-0.305
-0.33
-0.27
-0.18
-0.195
-0.055
-0.15
-0.21
-0.39
-0.46
-0.335
-0.315
-0.35
-0.22
-0.17
-0.035
-0.175
-0.265
-0.47
-0.405
-0.35
-0.4
-0.34
-0.205
-0.19
-0.105
-0.13
-0.26
-0.495
-0.41
-0.355
-0.36
-0.3
-0.25
-0.16
-0.115
-0.235
-0.225
-0.495
-0.455
-0.385
-0.355
-0.325
-0.22
-0.115
-0.075
-0.23
-0.29
-0.525
-0.42
-0.395
-0.39
-0.295
-0.195
-0.175
-0.08
-0.235
-0.28
-0.535
-0.46
-0.37
-0.36
-0.32
-0.26
-0.155
-0.095
-0.24
-0.34
-0.555
-0.425
-0.4
-0.335
-0.265
-0.23
-0.12
-0.085
-0.255
-0.375
-0.56
-0.45
-0.405
-0.395
-0.26
-0.28
-0.145
-0.13
-0.275
-0.435
-0.58
-0.385
-0.365
-0.4
-0.28
-0.225
-0.175
-0.195
-0.275
-0.42
-0.625
-0.43
-0.425
-0.425
-0.275
-0.27
-0.15
-0.14
-0.325
-0.46
-0.615
-0.44
-0.49
-0.405
-0.29
-0.375
-0.15
-0.225
-0.305
-0.51
-0.575
-0.505
-0.465
-0.45
-0.345
-0.34
-0.15
-0.2
-0.265
-0.545
-0.65
-0.49
-0.485
-0.44
-0.33
-0.3
-0.14
-0.185
-0.35
-0.535
-0.605
-0.45
-0.485
-0.43
-0.325
-0.275
-0.115
-0.185
-0.3
-0.485
-0.545
-0.405
-0.4
-0.31
-0.265
-0.235
-0.095
-0.145
-0.235
-0.44
-0.45
-0.345
-0.35
-0.3
-0.24
-0.215
-0.1
-0.16
-0.235
-0.49
-0.5
-0.44
-0.42
-0.38
-0.295
-0.255
-0.115
-0.265
-0.36
-0.575
-0.53
-0.555
-0.565
-0.445
-0.34
-0.305
-0.28
-0.415
-0.425
-0.68
-0.605
-0.475
-0.515
-0.49
-0.405
-0.305
-0.235
-0.41
-0.475
-0.7
-0.615
-0.585
-0.52
-0.465
-0.41
-0.34
-0.28
-0.465
-0.565
-0.79
-0.65
-0.635
-0.66
-0.57
-0.525
-0.42
-0.37
-0.37
-0.405
-0.445
-0.155
0.055
0.24
0.495
0.6
0.86
0.67
0.6
0.435
0.2
0.085
0.07
-0.05
-0.09
-0.185
-0.195
-0.305
-0.48
-0.61
-0.8
-0.72
-0.69
-0.7
-0.6
-0.605
-0.47
-0.5
-0.57
-0.705
-0.84
-0.67
-0.62
-0.59
-0.5
-0.475
-0.34
-0.45
-0.545
-0.66
-0.83
-0.67
-0.665
-0.605
-0.545
-0.51
-0.335
-0.395
-0.485
-0.695
-0.87
-0.695
-0.675
-0.665
-0.54
-0.485
-0.335
-0.435
-0.555
-0.745
-0.84
-0.7
-0.67
-0.67
-0.575
-0.545
-0.335
-0.445
-0.54
-0.74
-0.825
-0.72
-0.68
-0.61
-0.555
-0.515
-0.345
-0.415
-0.47
-0.755
-0.78
-0.67
-0.66
-0.58
-0.515
-0.495
-0.35
-0.38
-0.48
-0.75
-0.73
-0.64
-0.595
-0.575
-0.475
-0.35
-0.295
-0.34
-0.45
-0.71
-0.605
-0.545
-0.565
-0.475
-0.355
-0.275
-0.185
-0.355
-0.39
-0.58
-0.475
-0.48
-0.49
-0.41
-0.305
-0.21
-0.06
-0.195
-0.28
-0.525
-0.425
-0.365
-0.33
-0.265
-0.2
-0.115
-0.06
-0.15
-0.225
-0.47
-0.345
-0.285
-0.295
-0.22
-0.21
-0.08
-0.08
-0.19
-0.285
-0.53
-0.355
-0.355
-0.34
-0.265
-0.24
-0.17
-0.145
-0.27
-0.425
-0.595
-0.52
-0.49
-0.495
-0.34
-0.365
-0.24
-0.23
-0.385
-0.55
-0.71
-0.555
-0.515
-0.52
-0.435
-0.485
-0.135
-0.27
-0.365
-0.55
-0.7
-0.5
-0.565
-0.585
-0.39
-0.365
-0.255
-0.3
-0.395
-0.545
-0.69
-0.555
-0.555
-0.475
-0.425
-0.405
-0.23
-0.245
-0.38
-0.59
-0.685
-0.47
-0.55
-0.46
-0.4
-0.37
-0.215
-0.265
-0.39
-0.59
-0.67
-0.55
-0.535
-0.44
-0.365
-0.37
-0.19
-0.255
-0.345
-0.56
-0.64
-0.49
-0.515
-0.47
-0.38
-0.38
-0.17
-0.26
-0.345
-0.565
-0.58
-0.47
-0.455
-0.425
-0.41
-0.39
-0.135
-0.215
-0.31
-0.57
-0.57
-0.475
-0.45
-0.345
-0.345
-0.255
-0.115
-0.23
-0.335
-0.495
-0.495
-0.42
-0.43
-0.405
-0.31
-0.23
-0.085
-0.26
-0.325
-0.53
-0.505
-0.435
-0.465
-0.425
-0.305
-0.195
-0.17
-0.31
-0.385
-0.595
-0.455
-0.45
-0.41
-0.38
-0.34
-0.275
-0.155
-0.31
-0.35
-0.575
-0.505
-0.455
-0.48
-0.34
-0.28
-0.19
-0.225
-0.29
-0.385
-0.705
-0.51
-0.46
-0.445
-0.355
-0.315
-0.205
-0.19
-0.315
-0.44
-0.58
-0.47
-0.49
-0.465
-0.335
-0.3
-0.17
-0.205
-0.31
-0.4
-0.64
-0.47
-0.385
-0.38
-0.33
-0.29
-0.13
-0.155
-0.2
-0.385
-0.57
-0.41
-0.385
-0.385
-0.3
-0.25
-0.115
-0.025
-0.18
-0.35
-0.565
-0.39
-0.375
-0.32
-0.225
-0.16
-0.075
-0.1
-0.18
-0.355
-0.6
-0.385
-0.34
-0.32
-0.245
-0.15
-0.075
-0.135
-0.15
-0.42
-0.53
-0.37
-0.365
-0.32
-0.22
-0.215
-0.04
-0.05
-0.215
-0.41
-0.525
-0.38
-0.35
-0.275
-0.2
-0.175
-0.015
-0.02
-0.155
-0.44
-0.46
-0.305
-0.35
-0.31
-0.23
-0.21
-0.055
-0.175
-0.28
-0.465
-0.535
-0.355
-0.405
-0.325
-0.19
-0.285
-0.065
-0.22
-0.34
-0.57
-0.605
-0.485
-0.44
-0.405
-0.36
-0.375
-0.245
-0.32
-0.385
-0.68
-0.61
-0.52
-0.51
-0.48
-0.42
-0.345
-0.235
-0.4
-0.465
-0.62
-0.63
-0.655
-0.505
-0.39
-0.35
-0.325
-0.275
-0.35
-0.42
-0.695
-0.635
-0.595
-0.58
-0.55
-0.415
-0.3
-0.215
-0.275
-0.22
-0.335
-0.06
0.115
0.31
0.56
0.715
0.895
0.89
0.73
0.61
0.305
0.3
0.22
0.175
0.15
0.045
0.015
-0.055
-0.205
-0.29
-0.49
-0.41
-0.485
-0.435
-0.385
-0.325
-0.225
-0.155
-0.3
-0.395
-0.59
-0.425
-0.34
-0.235
-0.155
-0.13
-0.11
-0.05
-0.135
-0.265
-0.425
-0.335
-0.285
-0.245
-0.155
-0.115
0.05
-0.02
-0.115
-0.26
-0.355
-0.165
-0.24
-0.165
-0.105
-0.08
0.07
0.06
-0.045
-0.275
-0.34
-0.175
-0.23
-0.165
-0.1
-0.085
0.125
0.115
0.0
-0.175
-0.385
-0.21
-0.15
-0.13
-0.075
-0.04
0.17
0.125
0.025
-0.265
-0.295
-0.12
-0.12
-0.145
-0.05
0.045
0.15
0.035
-0.035
-0.22
-0.245
-0.155
-0.135
-0.1
-0.015
0.005
0.18
0.095
0.005
-0.22
-0.22
-0.09
-0.075
-0.02
0.06
0.11
0.295
0.185
0.145
-0.16
-0.16
-0.06
-0.015
0.095
0.185
0.28
0.35
0.24
0.18
-0.1
-0.005
0.13
0.13
0.175
0.22
0.295
0.36
0.295
0.255
0.07
0.04
0.115
0.095
0.18
0.21
0.285
0.41
0.23
0.115
-0.09
0.0
-0.01
0.025
0.07
0.145
0.215
0.27
0.115
0.015
-0.24
-0.16
-0.095
-0.1
-0.01
0.015
0.145
0.17
0.02
-0.105
-0.32
-0.2
-0.175
-0.16
-0.08
-0.075
0.11
0.095
-0.015
-0.14
-0.37
-0.255
-0.245
-0.165
-0.05
-0.05
0.08
0.06
-0.045
-0.225
-0.385
-0.235
-0.175
-0.18
-0.085
0.0
0.12
-0.005
-0.06
-0.2
-0.395
-0.29
-0.2
-0.215
-0.15
-0.085
0.075
0.04
-0.11
-0.265
-0.465
-0.26
-0.22
-0.175
-0.08
-0.055
0.1
0.04
-0.09
-0.29
-0.38
-0.285
-0.215
-0.205
-0.125
-0.09
0.095
0.025
-0.115
-0.3
-0.415
-0.26
-0.255
-0.19
-0.095
-0.005
0.14
-0.01
-0.09
-0.33
-0.365
-0.24
-0.2
-0.18
-0.09
-0.065
0.095
0.005
-0.095
-0.4
-0.33
-0.24
-0.24
-0.175
-0.075
-0.065
0.075
0.015
-0.06
-0.265
-0.325
-0.21
-0.195
-0.155
-0.065
-0.03
0.1
-0.02
-0.085
-0.29
-0.26
-0.2
-0.21
-0.15
0.02
0.02
0.135
0.02
-0.09
-0.29
-0.235
-0.205
-0.215
-0.11
-0.04
0.045
0.155
0.025
-0.05
-0.335
-0.245
-0.12
-0.185
-0.06
0.01
0.085
0.13
0.005
-0.095
-0.26
-0.21
-0.135
-0.125
-0.07
-0.055
0.095
0.16
0.035
-0.075
-0.32
-0.175
-0.12
-0.105
0.0
-0.005
0.13
0.135
0.04
-0.1
-0.295
-0.14
-0.125
-0.075
-0.045
0.035
0.125
0.205
0.11
-0.175
-0.255
-0.1
-0.095
-0.065
0.03
0.06
0.26
0.265
0.07
-0.05
-0.25
-0.055
-0.005
0.04
0.145
0.13
0.29
0.245
0.14
0.0
-0.19
-0.025
-0.045
-0.02
0.06
0.125
0.295
0.235
0.095
-0.08
-0.22
-0.04
-0.07
-0.055
0.02
0.055
0.26
0.195
0.03
-0.16
-0.34
-0.08
-0.125
-0.1
-0.025
0.005
0.215
0.155
0.08
-0.19
-0.335
-0.145
-0.13
-0.095
0.0
-0.025
0.155
0.055
0.03
-0.205
-0.28
-0.17
-0.19
-0.115
-0.075
0.005
0.12
-0.01
-0.095
-0.335
-0.325
-0.29
-0.25
-0.195
-0.11
-0.035
0.195
0.195
0.23
0.14
0.31
0.595
0.695
0.81
0.92
1.005
1.12
0.965
0.875
0.53
0.465
0.395
0.235
0.23
0.195
0.165
0.24
0.105
-0.065
-0.3
-0.31
-0.22
-0.195
-0.205
-0.09
-0.025
0.05
-0.04
-0.115
-0.355
-0.165
-0.21
-0.155
-0.095
0.025
0.14
0.18
0.03
-0.015
-0.25
-0.12
-0.15
-0.085
-0.01
0.075
0.17
0.165
0.045
-0.03
-0.27
-0.13
-0.115
-0.12
0.03
0.065
0.19
0.235
0.09
-0.08
-0.285
-0.12
-0.065
-0.055
0.065
0.08
0.235
0.145
0.065
-0.04
-0.275
-0.095
-0.085
-0.04
0.025
0.08
0.225
0.225
0.105
-0.035
-0.21
-0.075
-0.035
-0.06
0.035
0.055
0.27
0.23
0.105
-0.08
-0.255
-0.065
-0.125
-0.005
-0.02
0.075
0.265
0.225
0.115
-0.085
-0.2
-0.015
-0.04
-0.07
0.15
0.15
0.385
0.285
0.155
-0.025
-0.15
0.065
0.03
0.13
0.17
0.17
0.375
0.35
0.23
-0.01
-0.07
0.145
0.1
0.135
0.22
0.22
0.43
0.37
0.22
0.04
-0.01
0.1
0.085
0.13
0.255
0.315
0.385
0.325
0.24
0.025
-0.01
0.07
0.085
0.11
0.18
0.205
0.35
0.23
0.175
-0.1
-0.1
-0.045
-0.035
0.02
0.135
0.155
0.29
0.09
0.095
-0.17
-0.145
-0.025
-0.055
-0.055
0.06
0.11
0.285
0.135
0.09
-0.17
-0.13
-0.055
-0.025
0.03
0.105
0.21
0.2
0.19
0.11
-0.275
-0.125
-0.065
-0.055
0.015
0.045
0.19
0.18
0.095
0.035
-0.21
-0.1
-0.035
-0.045
0.03
0.035
0.16
0.155
0.07
-0.05
-0.18
-0.095
-0.045
-0.065
0.085
0.06
0.185
0.175
0.11
-0.045
-0.27
-0.075
-0.11
-0.05
0.025
0.08
0.25
0.21
0.075
-0.065
-0.24
-0.105
-0.13
-0.045
0.04
0.005
0.185
0.135
0.025
-0.085
-0.31
-0.155
-0.145
-0.125
-0.055
0.005
0.165
0.115
0.015
-0.185
-0.37
-0.18
-0.16
-0.11
-0.07
-0.035
0.155
0.055
-0.03
-0.22
-0.38
-0.175
-0.175
-0.145
-0.06
-0.035
0.125
0.0
-0.05
-0.22
-0.33
-0.18
-0.26
-0.16
-0.035
-0.06
0.16
0.055
-0.095
-0.255
-0.335
-0.19
-0.095
-0.135
-0.105
-0.02
0.01
0.005
-0.09
-0.285
-0.285
-0.205
-0.245
-0.19
-0.08
-0.115
0.055
0.01
-0.1
-0.355
-0.325
-0.24
-0.255
-0.175
-0.07
-0.04
0.08
-0.005
-0.105
-0.355
-0.29
-0.265
-0.22
-0.195
-0.14
-0.065
0.055
-0.065
-0.13
-0.375
-0.27
-0.235
-0.28
-0.205
-0.1
-0.03
0.04
-0.035
-0.135
-0.34
-0.25
-0.255
-0.23
-0.16
-0.07
0.08
0.085
-0.14
-0.215
-0.415
-0.275
-0.245
-0.23
-0.135
-0.1
0.07
0.05
-0.08
-0.175
-0.385
-0.29
-0.23
-0.17
-0.11
-0.095
0.04
0.055
-0.08
-0.2
-0.405
-0.23
-0.21
-0.2
-0.05
-0.085
0.045
0.06
0.025
-0.085
-0.275
-0.18
-0.18
-0.165
-0.065
-0.03
0.085
0.075
0.015
-0.195
-0.38
-0.265
-0.22
-0.18
-0.115
-0.085
0.065
-0.01
-0.125
-0.255
-0.44
-0.305
-0.305
-0.225
-0.19
-0.185
0.025
-0.05
-0.175
-0.3
-0.47
-0.27
-0.315
-0.225
-0.185
-0.16
0.0
-0.04
-0.13
-0.385
-0.475
-0.28
-0.28
-0.22
-0.17
-0.12
-0.065
-0.085
-0.195
-0.405
-0.495
-0.4
-0.45
-0.31
-0.27
-0.27
-0.13
-0.255
-0.33
-0.42
-0.525
-0.29
-0.155
-0.065
0.305
0.435
0.765
0.74
0.85
0.665
0.625
0.695
0.595
0.64
0.555
0.5
0.53
0.29
0.11
-0.32
-0.365
-0.365
-0.305
-0.27
-0.24
-0.19
-0.125
-0.195
-0.2
-0.47
-0.48
-0.405
-0.305
-0.265
-0.18
-0.07
0.015
-0.135
-0.18
-0.435
-0.37
-0.305
-0.27
-0.18
-0.08
-0.055
0.055
-0.105
-0.14
-0.335
-0.32
-0.255
-0.235
-0.16
-0.1
0.01
0.06
-0.045
-0.14
-0.38
-0.21
-0.215
-0.18
-0.105
-0.11
0.125
0.085
-0.015
-0.1
-0.315
-0.255
-0.205
-0.175
-0.09
-0.065
0.075
0.065
0.01
-0.175
-0.315
-0.165
-0.16
-0.14
-0.015
-0.02
0.1
0.14
0.025
-0.065
-0.28
-0.14
-0.11
-0.09
-0.015
-0.005
0.145
0.165
0.08
-0.12
-0.275
-0.16
-0.115
-0.055
0.075
0.085
0.255
0.235
0.095
-0.095
-0.27
-0.12
-0.08
-0.02
0.065
0.14
0.35
0.235
0.155
-0.07
-0.195
-0.01
-0.02
0.03
0.135
0.185
0.365
0.295
0.155
0.035
-0.115
0.015
0.03
0.09
0.15
0.18
0.37
0.305
0.185
-0.02
-0.11
0.015
0.02
0.07
0.14
0.175
0.295
0.185
0.13
-0.09
-0.185
-0.045
-0.06
0.015
0.075
0.03
0.21
0.085
0.035
-0.195
-0.2
-0.14
-0.13
-0.12
-0.025
0.005
0.17
0.025
-0.01
-0.24
-0.235
-0.14
-0.155
-0.095
-0.02
0.01
0.115
0.025
-0.04
-0.325
-0.24
-0.17
-0.115
-0.165
-0.075
0.06
0.13
-0.05
-0.055
-0.375
-0.29
-0.205
-0.175
-0.12
-0.06
0.05
0.07
-0.07
-0.095
-0.37
-0.27
-0.255
-0.225
-0.135
-0.105
0.035
0.025
-0.1
-0.185
-0.445
-0.275
-0.27
-0.21
-0.145
-0.14
0.035
0.055
-0.095
-0.18
-0.395
-0.265
-0.18
-0.215
-0.05
-0.035
0.05
0.1
-0.035
-0.215
-0.365
-0.2
-0.19
-0.09
-0.035
0.0
0.115
0.11
-0.005
-0.18
-0.355
-0.165
-0.17
-0.17
0.03
0.035
0.15
0.125
0.035
-0.135
-0.33
-0.12
-0.105
-0.09
0.025
0.015
0.19
0.155
-0.015
-0.175
-0.305
-0.215
-0.14
-0.085
0.015
-0.005
0.13
0.135
0.01
-0.19
-0.315
-0.135
-0.155
-0.09
0.0
0.065
0.195
0.14
0.0
-0.255
-0.32
-0.145
-0.145
-0.09
0.0
0.02
0.195
0.11
-0.02
-0.225
-0.28
-0.155
-0.145
-0.12
0.0
-0.035
0.155
0.1
-0.03
-0.225
-0.23
-0.18
-0.095
-0.03
0.045
-0.015
0.17
0.07
-0.02
-0.17
-0.21
-0.085
-0.09
-0.085
0.02
0.02
0.17
0.065
-0.01
-0.275
-0.17
-0.12
-0.1
-0.055
0.06
0.115
0.23
0.08
-0.04
-0.3
-0.19
-0.17
-0.1
-0.045
0.025
0.125
0.195
0.075
0.015
-0.195
-0.09
-0.12
-0.065
0.015
0.1
0.195
0.225
0.115
-0.005
-0.195
-0.055
-0.07
-0.095
0.01
0.01
0.17
0.205
0.08
-0.02
-0.26
-0.14
-0.125
-0.115
-0.015
0.03
0.12
0.085
-0.085
-0.2
-0.38
-0.28
-0.275
-0.205
-0.035
-0.085
0.08
0.02
-0.12
-0.255
-0.375
-0.245
-0.225
-0.275
-0.155
-0.08
0.005
0.05
-0.09
-0.265
-0.47
-0.26
-0.26
-0.245
-0.135
-0.11
0.0
-0.075
-0.195
-0.375
-0.51
-0.385
-0.405
-0.365
-0.25
-0.175
0.04
0.11
0.105
0.105
0.12
0.47
0.615
0.78
0.945
1.03
1.185
1.055
0.845
0.58
0.355
0.4
0.255
0.185
0.07
0.01
0.115
0.04
-0.105
-0.34
-0.415
-0.29
-0.32
-0.23
-0.17
-0.15
0.06
-0.025
-0.14
-0.34
-0.355
-0.135
-0.215
-0.17
-0.085
-0.155
0.08
0.045
-0.045
-0.245
-0.23
-0.145
-0.19
-0.13
-0.045
-0.02
0.205
0.095
-0.01
-0.275
-0.215
-0.12
-0.175
-0.095
-0.045
0.04
0.16
0.095
-0.045
-0.25
-0.17
-0.145
-0.13
-0.025
0.055
0.12
0.17
0.06
0.035
-0.25
-0.16
-0.075
-0.08
-0.02
0.035
0.155
0.22
0.09
0.04
-0.205
-0.06
-0.075
-0.03
0.06
0.09
0.225
0.255
0.11
0.07
-0.17
-0.055
-0.125
-0.005
0.14
0.115
0.205
0.245
0.18
0.055
-0.195
-0.05
0.05
0.025
0.09
0.175
0.275
0.32
0.215
0.05
-0.125
0.035
0.085
0.125
0.215
0.26
0.43
0.365
0.27
0.12
-0.02
0.145
0.065
0.21
0.235
0.225
0.475
0.405
0.29
0.185
-0.005
0.075
0.11
0.15
0.215
0.21
0.33
0.34
0.22
0.01
-0.17
-0.005
0.01
0.07
0.1
0.13
0.295
0.21
0.085
-0.055
-0.24
-0.105
-0.1
-0.075
0.01
0.06
0.18
0.1
0.03
-0.195
-0.28
-0.12
-0.125
-0.045
-0.015
-0.03
0.185
0.075
-0.015
-0.235
-0.27
-0.14
-0.195
-0.085
-0.015
0.07
0.2
0.08
-0.025
-0.25
-0.265
-0.105
-0.175
-0.1
0.01
0.04
0.175
0.085
-0.025
-0.21
-0.19
-0.2
-0.045
-0.08
0.0
0.055
0.21
0.115
-0.025
-0.225
-0.18
-0.12
-0.09
-0.025
0.03
0.11
0.16
0.055
0.025
-0.195
-0.15
-0.065
-0.03
-0.03
-0.005
0.185
0.305
0.13
0.08
-0.195
-0.125
-0.105
-0.035
-0.02
0.08
0.2
0.23
0.105
-0.03
-0.3
-0.115
-0.145
-0.105
-0.01
-0.005
0.13
0.155
0.005
-0.12
-0.335
-0.195
-0.17
-0.175
-0.07
-0.05
0.08
0.085
-0.035
-0.205
-0.345
-0.205
-0.185
-0.21
-0.12
-0.12
0.055
0.025
-0.125
-0.215
-0.43
-0.255
-0.22
-0.23
-0.09
-0.135
0.025
0.02
-0.135
-0.27
-0.395
-0.245
-0.245
-0.18
-0.115
-0.095
0.05
0.025
-0.015
-0.21
-0.39
-0.23
-0.24
-0.215
-0.095
-0.05
0.075
0.04
-0.015
-0.25
-0.42
-0.255
-0.21
-0.195
-0.12
-0.045
0.095
0.045
-0.04
-0.2
-0.325
-0.18
-0.17
-0.095
-0.025
-0.09
0.035
0.05
-0.035
-0.275
-0.33
-0.21
-0.215
-0.14
-0.08
-0.04
0.175
0.08
-0.035
-0.21
-0.23
-0.155
-0.14
-0.115
-0.035
-0.04
0.12
0.025
-0.025
-0.28
-0.25
-0.16
-0.155
-0.07
-0.035
0.045
0.11
0.05
0.015
-0.235
-0.21
-0.26
-0.19
-0.13
-0.065
0.01
0.175
0.07
-0.04
-0.245
-0.225
-0.125
-0.06
-0.13
0.005
0.06
0.135
0.09
-0.02
-0.2
-0.06
-0.025
-0.035
-0.025
0.12
0.17
0.305
0.16
0.075
-0.14
-0.03
-0.05
-0.005
0.12
0.16
0.275
0.305
0.155
0.045
-0.195
-0.035
-0.015
0.03
0.115
0.09
0.22
0.255
0.14
0.035
-0.22
-0.15
-0.145
-0.07
0.04
0.07
0.2
0.195
0.1
-0.085
-0.265
-0.1
-0.065
-0.035
0.045
0.055
0.275
0.19
0.085
-0.11
-0.21
-0.12
-0.075
0.03
0.1
0.045
0.215
0.17
0.045
-0.15
-0.38
-0.225
-0.225
-0.185
-0.02
0.045
0.235
0.285
0.285
0.21
0.26
0.58
0.755
0.915
1.055
1.26
1.33
1.26
1.155
0.84
0.57
0.715
0.535
0.46
0.37
0.235
0.32
0.3
0.15
-0.05
-0.24
-0.06
-0.065
-0.065
-0.01
-0.005
0.195
0.16
0.07
-0.135
-0.185
-0.095
-0.065
0.005
0.08
0.1
0.23
0.145
0.07
-0.14
-0.155
-0.035
-0.055
0.04
0.12
0.155
0.31
0.23
0.105
-0.16
-0.105
-0.02
-0.01
0.045
0.11
0.23
0.28
0.155
0.075
-0.135
-0.095
0.05
0.03
0.025
0.12
0.17
0.31
0.185
0.12
-0.1
-0.08
-0.02
-0.015
0.115
0.16
0.26
0.33
0.21
0.155
-0.115
-0.025
0.015
0.105
0.18
0.16
0.35
0.385
0.255
0.17
-0.055
0.075
0.11
0.125
0.2
0.26
0.395
0.395
0.28
0.215
-0.02
0.095
0.165
0.16
0.27
0.315
0.505
0.46
0.38
0.17
-0.04
0.155
0.25
0.24
0.27
0.39
0.51
0.46
0.385
0.225
0.08
0.19
0.25
0.305
0.38
0.405
0.52
0.45
0.455
0.305
0.115
0.225
0.225
0.36
0.445
0.43
0.575
0.54
0.44
0.27
0.11
0.215
0.21
0.265
0.35
0.375
0.48
0.375
0.27
0.1
-0.03
0.17
0.1
0.16
0.23
0.21
0.425
0.345
0.22
-0.02
-0.12
0.08
0.095
0.13
0.21
0.25
0.445
0.33
0.245
0.04
-0.055
0.07
0.075
0.13
0.21
0.235
0.365
0.305
0.21
-0.01
0.005
0.105
0.065
0.155
0.25
0.315
0.345
0.32
0.17
-0.035
-0.04
0.11
0.125
0.155
0.22
0.29
0.42
0.335
0.2
-0.035
-0.025
0.05
0.095
0.115
0.235
0.285
0.35
0.3
0.245
-0.03
-0.015
0.12
0.135
0.19
0.26
0.345
0.45
0.28
0.215
-0.07
0.065
0.14
0.135
0.165
0.23
0.335
0.385
0.28
0.26
-0.025
0.105
0.175
0.1
0.205
0.28
0.385
0.475
0.335
0.175
-0.04
0.025
0.125
0.13
0.2
0.265
0.405
0.445
0.27
0.16
-0.04
0.1
0.125
0.145
0.29
0.3
0.415
0.395
0.295
0.16
-0.015
0.15
0.195
0.245
0.27
0.36
0.475
0.48
0.35
0.19
0.015
0.175
0.195
0.24
0.335
0.35
0.55
0.505
0.415
0.315
0.0
0.15
0.24
0.23
0.335
0.39
0.53
0.505
0.325
0.185
0.05
0.23
0.145
0.26
0.345
0.34
0.525
0.465
0.345
0.205
0.07
0.16
0.135
0.215
0.285
0.315
0.495
0.435
0.345
0.145
0.04
0.155
0.175
0.215
0.31
0.33
0.485
0.405
0.335
0.075
0.005
0.145
0.15
0.2
0.25
0.32
0.44
0.35
0.255
0.06
0.065
0.115
0.17
0.19
0.29
0.355
0.465
0.37
0.315
0.095
0.06
0.13
0.16
0.23
0.325
0.39
0.515
0.345
0.325
0.08
0.17
0.265
0.235
0.29
0.43
0.485
0.55
0.42
0.42
0.175
0.17
0.22
0.29
0.26
0.415
0.445
0.585
0.41
0.345
0.105
0.205
0.26
0.295
0.33
0.39
0.475
0.505
0.385
0.255
0.02
0.185
0.285
0.23
0.325
0.315
0.49
0.48
0.365
0.25
0.015
0.17
0.185
0.14
0.26
0.35
0.435
0.43
0.3
0.18
-0.01
0.105
0.155
0.195
0.27
0.21
0.395
0.335
0.16
0.025
-0.225
-0.06
-0.01
0.015
0.13
0.225
0.45
0.555
0.59
0.57
0.56
0.865
1.06
1.215
1.335
1.245
1.425
1.29
1.03
0.785
0.525
0.56
0.44
0.355
0.265
0.23
0.39
0.315
0.14
-0.02
-0.18
-0.05
-0.065
0.04
0.1
0.09
0.295
0.27
0.2
0.07
-0.055
0.065
0.035
0.13
0.255
0.32
0.515
0.365
0.275
0.07
0.045
0.165
0.205
0.245
0.35
0.39
0.48
0.44
0.36
0.165
0.095
0.19
0.21
0.305
0.33
0.33
0.535
0.405
0.325
0.075
0.04
0.14
0.185
0.255
0.315
0.32
0.415
0.345
0.295
0.075
0.13
0.13
0.145
0.23
0.295
0.295
0.49
0.33
0.29
0.04
0.06
0.14
0.16
0.14
0.28
0.41
0.49
0.36
0.315
0.01
0.095
0.24
0.225
0.265
0.31
0.3
0.485
0.435
0.33
0.04
0.175
0.24
0.26
0.365
0.365
0.495
0.535
0.4
0.335
0.17
0.315
0.315
0.305
0.45
0.445
0.57
0.625
0.525
0.43
0.23
0.34
0.41
0.43
0.535
0.59
0.68
0.675
0.59
0.43
0.25
0.485
0.47
0.455
0.525
0.575
0.695
0.69
0.565
0.41
0.245
0.375
0.39
0.4
0.465
0.455
0.655
0.595
0.455
0.34
0.14
0.235
0.265
0.295
0.39
0.4
0.55
0.525
0.39
0.245
0.09
0.23
0.225
0.26
0.36
0.4
0.59
0.52
0.45
0.275
0.05
0.235
0.255
0.35
0.375
0.38
0.555
0.61
0.46
0.25
0.115
0.285
0.32
0.35
0.385
0.4
0.6
0.56
0.4
0.15
0.04
0.26
0.28
0.305
0.345
0.425
0.595
0.445
0.36
0.135
0.135
0.24
0.245
0.305
0.36
0.405
0.555
0.445
0.34
0.13
0.165
0.27
0.265
0.315
0.33
0.405
0.555
0.43
0.385
0.13
0.18
0.215
0.22
0.245
0.31
0.41
0.53
0.385
0.305
0.11
0.155
0.21
0.23
0.27
0.42
0.465
0.555
0.38
0.34
0.14
0.215
0.26
0.275
0.325
0.375
0.51
0.55
0.45
0.33
0.07
0.275
0.245
0.17
0.325
0.345
0.475
0.47
0.375
0.28
0.0
0.095
0.245
0.185
0.3
0.285
0.42
0.475
0.325
0.155
-0.01
0.105
0.105
0.125
0.23
0.23
0.34
0.36
0.245
0.115
-0.065
0.05
0.115
0.135
0.2
0.245
0.375
0.36
0.245
0.035
-0.095
0.075
0.105
0.115
0.185
0.23
0.445
0.435
0.32
0.065
-0.05
0.105
0.08
0.155
0.225
0.275
0.465
0.375
0.24
0.125
0.005
0.12
0.08
0.15
0.27
0.32
0.435
0.425
0.325
0.11
0.01
0.14
0.145
0.185
0.23
0.35
0.505
0.415
0.34
0.095
-0.03
0.075
0.07
0.23
0.225
0.165
0.49
0.38
0.255
-0.035
-0.085
0.06
0.07
0.145
0.2
0.19
0.33
0.265
0.12
-0.12
-0.075
0.0
-0.025
0.04
0.12
0.125
0.255
0.145
0.07
-0.125
-0.145
-0.07
-0.06
-0.005
0.06
0.12
0.25
0.135
0.125
-0.17
-0.125
-0.075
-0.035
0.015
0.14
0.185
0.235
0.09
0.1
-0.18
-0.115
-0.2
-0.085
-0.15
0.0
0.065
0.105
0.045
-0.015
-0.215
0.015
0.195
0.3
0.565
0.75
1.005
1.13
1.12
0.94
0.67
0.77
0.67
0.63
0.62
0.555
0.565
0.49
0.19
-0.045
-0.245
-0.11
-0.17
-0.14
-0.055
-0.05
0.075
0.055
-0.015
-0.23
-0.405
-0.165
-0.155
-0.135
0.015
0.045
0.21
0.13
0.02
-0.07
-0.285
-0.115
-0.08
-0.09
0.05
0.075
0.225
0.19
0.14
-0.05
-0.24
-0.125
-0.075
0.0
0.115
0.085
0.235
0.23
0.12
-0.025
-0.195
-0.025
-0.055
-0.025
0.1
0.125
0.26
0.225
0.075
-0.07
-0.16
-0.075
-0.075
-0.02
0.04
0.04
0.275
0.215
0.135
-0.035
-0.125
-0.02
-0.005
0.04
0.055
0.09
0.28
0.22
0.145
-0.13
-0.19
0.0
-0.055
0.105
0.145
0.175
0.32
0.27
0.16
-0.05
-0.07
0.045
0.07
0.07
0.19
0.25
0.365
0.29
0.17
-0.05
-0.015
0.05
0.11
0.14
0.215
0.26
0.385
0.33
0.265
-0.015
0.04
0.095
0.08
0.15
0.215
0.29
0.405
0.295
0.25
0.005
0.09
0.145
0.155
0.21
0.31
0.34
0.395
0.305
0.235
-0.03
0.04
0.09
0.055
0.075
0.195
0.225
0.315
0.14
0.04
-0.2
-0.12
-0.095
-0.025
0.03
0.04
0.125
0.185
0.065
-0.04
-0.265
-0.13
-0.095
-0.085
-0.05
-0.01
0.185
0.115
0.005
-0.12
-0.27
-0.14
-0.17
-0.095
-0.125
-0.05
0.09
0.1
-0.025
-0.155
-0.38
-0.24
-0.245
-0.17
-0.05
0.005
0.065
0.105
-0.055
-0.225
-0.355
-0.215
-0.18
-0.17
-0.065
-0.025
0.115
0.07
-0.06
-0.15
-0.345
-0.175
-0.185
-0.225
-0.145
-0.04
0.085
0.07
-0.08
-0.245
-0.43
-0.22
-0.25
-0.14
-0.095
-0.04
0.08
0.07
-0.075
-0.28
-0.395
-0.255
-0.175
-0.16
-0.135
-0.105
-0.03
0.015
-0.145
-0.315
-0.4
-0.23
-0.26
-0.24
-0.105
-0.135
0.12
-0.03
-0.1
-0.32
-0.385
-0.265
-0.31
-0.21
-0.075
-0.105
0.0
-0.04
-0.13
-0.34
-0.375
-0.325
-0.31
-0.24
-0.115
-0.09
0.02
-0.03
-0.195
-0.425
-0.355
-0.28
-0.285
-0.24
-0.145
-0.075
0.04
-0.03
-0.185
-0.39
-0.34
-0.275
-0.21
-0.155
-0.145
-0.035
0.09
-0.095
-0.155
-0.345
-0.26
-0.24
-0.135
-0.21
-0.1
-0.02
0.025
-0.075
-0.155
-0.395
-0.31
-0.295
-0.205
-0.155
-0.115
-0.03
0.01
-0.1
-0.18
-0.365
-0.3
-0.225
-0.23
-0.215
-0.055
0.055
-0.01
-0.155
-0.2
-0.425
-0.33
-0.29
-0.255
-0.145
-0.125
-0.015
0.06
-0.135
-0.255
-0.475
-0.27
-0.24
-0.175
-0.105
-0.085
0.015
0.0
-0.095
-0.215
-0.355
-0.215
-0.23
-0.2
-0.105
-0.025
0.14
0.125
0.0
-0.155
-0.26
-0.12
-0.15
-0.105
0.025
0.0
0.155
0.155
0.02
-0.155
-0.39
-0.23
-0.21
-0.175
-0.12
-0.095
0.085
0.055
-0.07
-0.27
-0.44
-0.305
-0.295
-0.235
-0.205
-0.155
0.035
-0.075
-0.19
-0.34
-0.415
-0.32
-0.31
-0.31
-0.195
-0.165
-0.03
-0.12
-0.18
-0.44
-0.455
-0.325
-0.37
-0.305
-0.305
-0.22
-0.03
-0.15
-0.18
-0.44
-0.55
-0.435
-0.47
-0.365
-0.295
-0.32
-0.125
-0.29
-0.345
-0.62
-0.555
-0.42
-0.28
-0.085
0.105
0.295
0.54
0.605
0.635
0.46
0.505
0.53
0.56
0.475
0.46
0.41
0.375
0.175
-0.045
-0.425
-0.465
-0.515
-0.47
-0.445
-0.385
-0.395
-0.36
-0.47
-0.52
-0.81
-0.66
-0.6
-0.575
-0.545
-0.455
-0.33
-0.275
-0.375
-0.485
-0.72
-0.6
-0.55
-0.56
-0.46
-0.395
-0.34
-0.26
-0.37
-0.52
-0.745
-0.565
-0.56
-0.6
-0.45
-0.38
-0.235
-0.29
-0.36
-0.465
-0.65
-0.57
-0.5
-0.52
-0.445
-0.4
-0.245
-0.315
-0.41
-0.525
-0.68
-0.53
-0.495
-0.46
-0.395
-0.37
-0.24
-0.24
-0.36
-0.54
-0.74
-0.575
-0.55
-0.49
-0.39
-0.355
-0.215
-0.235
-0.34
-0.505
-0.705
-0.53
-0.52
-0.455
-0.42
-0.305
-0.16
-0.255
-0.31
-0.49
-0.705
-0.47
-0.485
-0.395
-0.295
-0.285
-0.075
-0.12
-0.27
-0.45
-0.57
-0.43
-0.41
-0.39
-0.255
-0.23
-0.05
-0.13
-0.29
-0.42
-0.485
-0.39
-0.38
-0.29
-0.21
-0.18
-0.005
-0.105
-0.155
-0.44
-0.4
-0.24
-0.335
-0.295
-0.135
-0.145
0.02
-0.105
-0.14
-0.39
-0.47
-0.365
-0.355
-0.265
-0.235
-0.19
-0.075
-0.25
-0.285
-0.52
-0.49
-0.44
-0.46
-0.4
-0.355
-0.28
-0.14
-0.315
-0.42
-0.71
-0.655
-0.53
-0.48
-0.475
-0.46
-0.41
-0.295
-0.415
-0.455
-0.735
-0.59
-0.555
-0.595
-0.545
-0.445
-0.38
-0.34
-0.41
-0.505
-0.73
-0.655
-0.665
-0.595
-0.485
-0.46
-0.345
-0.3
-0.45
-0.55
-0.73
-0.655
-0.605
-0.59
-0.435
-0.46
-0.37
-0.32
-0.48
-0.57
-0.73
-0.645
-0.59
-0.56
-0.52
-0.495
-0.34
-0.27
-0.415
-0.545
-0.71
-0.6
-0.565
-0.59
-0.495
-0.425
-0.315
-0.32
-0.38
-0.605
-0.77
-0.575
-0.56
-0.56
-0.475
-0.44
-0.31
-0.345
-0.465
-0.625
-0.785
-0.66
-0.63
-0.545
-0.505
-0.485
-0.355
-0.37
-0.505
-0.655
-0.8
-0.605
-0.585
-0.565
-0.465
-0.46
-0.335
-0.39
-0.56
-0.625
-0.72
-0.54
-0.605
-0.54
-0.485
-0.4
-0.265
-0.275
-0.485
-0.68
-0.79
-0.665
-0.7
-0.52
-0.445
-0.53
-0.31
-0.43
-0.495
-0.7
-0.74
-0.625
-0.655
-0.6
-0.495
-0.455
-0.315
-0.34
-0.485
-0.72
-0.745
-0.62
-0.59
-0.515
-0.475
-0.485
-0.315
-0.385
-0.455
-0.715
-0.66
-0.57
-0.635
-0.58
-0.495
-0.43
-0.315
-0.47
-0.54
-0.76
-0.685
-0.62
-0.625
-0.56
-0.41
-0.43
-0.32
-0.51
-0.52
-0.72
-0.7
-0.61
-0.58
-0.56
-0.465
-0.415
-0.32
-0.405
-0.47
-0.75
-0.65
-0.595
-0.66
-0.58
-0.47
-0.34
-0.295
-0.405
-0.45
-0.72
-0.57
-0.5
-0.57
-0.425
-0.405
-0.32
-0.265
-0.395
-0.54
-0.72
-0.565
-0.41
-0.465
-0.39
-0.375
-0.18
-0.185
-0.375
-0.515
-0.68
-0.57
-0.485
-0.525
-0.425
-0.345
-0.255
-0.31
-0.4
-0.555
-0.735
-0.57
-0.535
-0.565
-0.505
-0.47
-0.305
-0.37
-0.47
-0.625
-0.81
-0.625
-0.655
-0.635
-0.525
-0.53
-0.35
-0.39
-0.53
-0.655
-0.82
-0.695
-0.665
-0.625
-0.58
-0.505
-0.335
-0.385
-0.525
-0.685
-0.815
-0.61
-0.635
-0.6
-0.53
-0.465
-0.325
-0.4
-0.575
-0.8
-0.87
-0.705
-0.64
-0.605
-0.495
-0.43
-0.08
-0.01
0.045
0.02
0.07
0.345
0.48
0.63
0.645
0.65
0.79
0.605
0.355
0.115
-0.045
-0.085
-0.32
-0.41
-0.365
-0.35
-0.255
-0.38
-0.47
-0.745
-0.715
-0.675
-0.65
-0.61
-0.54
-0.465
-0.32
-0.35
-0.51
-0.765
-0.69
-0.585
-0.565
-0.535
-0.435
-0.41
-0.33
-0.435
-0.51
-0.705
-0.66
-0.6
-0.6
-0.565
-0.435
-0.38
-0.3
-0.42
-0.53
-0.755
-0.61
-0.6
-0.635
-0.475
-0.445
-0.36
-0.27
-0.415
-0.565
-0.77
-0.64
-0.645
-0.575
-0.495
-0.465
-0.325
-0.325
-0.45
-0.515
-0.785
-0.67
-0.605
-0.52
-0.455
-0.435
-0.28
-0.3
-0.405
-0.545
-0.725
-0.6
-0.56
-0.56
-0.465
-0.47
-0.28
-0.31
-0.46
-0.605
-0.76
-0.54
-0.51
-0.425
-0.445
-0.5
-0.33
-0.265
-0.43
-0.595
-0.775
-0.625
-0.575
-0.525
-0.37
-0.395
-0.26
-0.325
-0.42
-0.565
-0.74
-0.535
-0.505
-0.465
-0.4
-0.34
-0.185
-0.195
-0.315
-0.465
-0.635
-0.47
-0.44
-0.4
-0.345
-0.315
-0.12
-0.18
-0.29
-0.47
-0.565
-0.46
-0.505
-0.415
-0.335
-0.345
-0.12
-0.255
-0.25
-0.555
-0.635
-0.465
-0.525
-0.48
-0.445
-0.425
-0.32
-0.345
-0.445
-0.69
-0.71
-0.595
-0.62
-0.535
-0.525
-0.46
-0.275
-0.395
-0.48
-0.695
-0.68
-0.595
-0.65
-0.6
-0.525
-0.47
-0.36
-0.435
-0.53
-0.805
-0.76
-0.65
-0.65
-0.63
-0.45
-0.48
-0.355
-0.45
-0.535
-0.785
-0.745
-0.7
-0.665
-0.585
-0.55
-0.51
-0.385
-0.505
-0.58
-0.845
-0.715
-0.7
-0.68
-0.635
-0.52
-0.495
-0.445
-0.535
-0.6
-0.885
-0.76
-0.695
-0.71
-0.635
-0.61
-0.495
-0.48
-0.54
-0.59
-0.92
-0.78
-0.665
-0.665
-0.635
-0.625
-0.495
-0.485
-0.605
-0.74
-0.995
-0.785
-0.71
-0.72
-0.655
-0.58
-0.465
-0.495
-0.615
-0.69
-0.915
-0.78
-0.745
-0.74
-0.625
-0.595
-0.45
-0.48
-0.605
-0.78
-0.92
-0.755
-0.76
-0.78
-0.64
-0.615
-0.48
-0.515
-0.59
-0.76
-0.99
-0.78
-0.75
-0.73
-0.595
-0.57
-0.485
-0.48
-0.465
-0.74
-0.905
-0.705
-0.7
-0.72
-0.605
-0.605
-0.37
-0.42
-0.54
-0.8
-0.855
-0.68
-0.735
-0.695
-0.56
-0.565
-0.42
-0.425
-0.57
-0.715
-0.87
-0.74
-0.72
-0.68
-0.59
-0.565
-0.4
-0.5
-0.595
-0.775
-0.84
-0.735
-0.735
-0.705
-0.66
-0.615
-0.485
-0.505
-0.585
-0.875
-0.89
-0.815
-0.71
-0.73
-0.665
-0.635
-0.445
-0.515
-0.63
-0.875
-0.855
-0.785
-0.775
-0.68
-0.64
-0.595
-0.485
-0.57
-0.66
-0.865
-0.83
-0.765
-0.725
-0.695
-0.595
-0.525
-0.45
-0.56
-0.635
-0.87
-0.735
-0.645
-0.66
-0.66
-0.565
-0.47
-0.38
-0.51
-0.51
-0.74
-0.71
-0.685
-0.625
-0.62
-0.605
-0.445
-0.36
-0.485
-0.605
-0.85
-0.755
-0.72
-0.695
-0.6
-0.565
-0.53
-0.525
-0.605
-0.725
-0.975
-0.905
-0.9
-0.76
-0.705
-0.715
-0.555
-0.65
-0.71
-0.82
-1.04
-0.925
-0.835
-0.865
-0.76
-0.775
-0.57
-0.64
-0.685
-0.895
-1.11
-0.92
-0.865
-0.88
-0.785
-0.73
-0.615
-0.65
-0.78
-1.0
-1.21
-1.02
-1.055
-1.025
-0.96
-0.88
-0.72
-0.725
-0.785
-0.825
-0.87
-0.575
-0.415
-0.24
-0.015
0.125
0.395
0.345
0.185
0.065
-0.16
-0.14
-0.215
-0.345
-0.475
-0.52
-0.55
-0.7
-0.92
-1.085
-1.255
-1.09
-1.19
-1.18
-1.09
-1.06
-0.91
-1.015
-1.06
-1.265
-1.35
-1.205
-1.175
-1.125
-1.055
-1.015
-0.88
-0.955
-1.02
-1.175
-1.295
-1.225
-1.185
-1.125
-1.03
-1.0
-0.855
-0.915
-0.96
-1.24
-1.22
-1.105
-1.125
-1.105
-1.02
-0.98
-0.8
-0.905
-0.97
-1.21
-1.215
-1.115
-1.12
-1.035
-0.905
-1.0
-0.785
-0.92
-1.005
-1.205
-1.125
-1.075
-1.05
-0.98
-0.94
-0.82
-0.72
-0.855
-0.915
-1.16
-1.07
-1.0
-0.97
-0.915
-0.815
-0.79
-0.685
-0.82
-0.84
-1.08
-1.045
-0.915
-0.92
-0.89
-0.8
-0.76
-0.73
-0.775
-0.82
-1.105
-0.97
-0.935
-0.915
-0.885
-0.8
-0.67
-0.665
-0.745
-0.835
-1.105
-0.965
-0.935
-0.86
-0.75
-0.74
-0.63
-0.625
-0.745
-0.87
-1.025
-0.91
-0.865
-0.85
-0.72
-0.695
-0.54
-0.51
-0.68
-0.845
-1.0
-0.84
-0.865
-0.785
-0.685
-0.69
-0.53
-0.555
-0.69
-0.865
-1.0
-0.85
-0.88
-0.865
-0.77
-0.78
-0.645
-0.66
-0.765
-0.945
-1.15
-0.99
-0.995
-0.95
-0.83
-0.82
-0.615
-0.745
-0.84
-1.035
-1.155
-0.98
-1.05
-0.945
-0.93
-0.875
-0.705
-0.79
-0.9
-1.06
-1.175
-1.075
-1.03
-0.945
-0.95
-0.88
-0.705
-0.87
-0.96
-1.09
-1.12
-1.015
-1.05
-0.955
-0.875
-0.88
-0.735
-0.795
-0.895
-1.065
-1.11
-1.04
-1.01
-0.935
-0.85
-0.865
-0.695
-0.77
-0.865
-1.05
-1.105
-1.01
-1.05
-0.985
-0.88
-0.835
-0.705
-0.82
-0.9
-1.14
-1.075
-1.045
-0.99
-0.925
-0.82
-0.815
-0.73
-0.845
-0.93
-1.18
-1.07
-1.01
-1.06
-0.965
-0.84
-0.81
-0.68
-0.795
-0.845
-1.12
-1.025
-0.925
-0.935
-0.87
-0.79
-0.715
-0.655
-0.72
-0.81
-1.12
-0.985
-0.96
-0.86
-0.795
-0.765
-0.62
-0.625
-0.69
-0.815
-1.03
-0.885
-0.795
-0.8
-0.64
-0.725
-0.6
-0.55
-0.71
-0.795
-0.955
-0.885
-0.78
-0.76
-0.63
-0.605
-0.48
-0.53
-0.67
-0.78
-0.945
-0.825
-0.77
-0.775
-0.715
-0.64
-0.55
-0.525
-0.64
-0.79
-1.015
-0.86
-0.85
-0.795
-0.67
-0.66
-0.55
-0.565
-0.715
-0.895
-1.075
-0.88
-0.86
-0.875
-0.765
-0.74
-0.575
-0.635
-0.71
-0.83
-1.025
-0.86
-0.855
-0.79
-0.74
-0.71
-0.535
-0.59
-0.685
-0.855
-1.0
-0.83
-0.87
-0.82
-0.7
-0.65
-0.45
-0.545
-0.645
-0.79
-0.84
-0.75
-0.755
-0.67
-0.595
-0.58
-0.455
-0.5
-0.56
-0.795
-0.84
-0.725
-0.7
-0.58
-0.515
-0.515
-0.34
-0.46
-0.495
-0.68
-0.685
-0.625
-0.59
-0.55
-0.445
-0.41
-0.285
-0.335
-0.47
-0.66
-0.64
-0.6
-0.525
-0.475
-0.445
-0.345
-0.155
-0.325
-0.41
-0.61
-0.525
-0.48
-0.465
-0.38
-0.28
-0.22
-0.115
-0.235
-0.32
-0.59
-0.49
-0.43
-0.44
-0.37
-0.29
-0.215
-0.135
-0.235
-0.32
-0.585
-0.5
-0.525
-0.54
-0.42
-0.38
-0.225
-0.16
-0.285
-0.43
-0.65
-0.47
-0.485
-0.48
-0.395
-0.32
-0.195
-0.215
-0.25
-0.36
-0.655
-0.5
-0.425
-0.37
-0.34
-0.24
-0.105
-0.095
-0.205
-0.345
-0.53
-0.38
-0.38
-0.38
-0.285
-0.24
-0.125
-0.105
-0.21
-0.29
-0.365
-0.11
0.09
0.25
0.555
0.69
1.01
1.13
1.125
0.94
0.735
0.91
0.86
0.76
0.755
0.685
0.675
0.48
0.19
-0.02
-0.19
-0.025
-0.025
-0.04
-0.025
-0.025
0.145
0.125
0.01
-0.175
-0.295
-0.13
-0.135
-0.02
0.095
0.115
0.265
0.205
0.08
-0.065
-0.145
-0.02
-0.03
0.095
0.15
0.155
0.385
0.28
0.09
-0.01
-0.055
0.035
0.02
0.105
0.21
0.235
0.44
0.38
0.23
0.0
0.055
0.16
0.18
0.18
0.27
0.345
0.54
0.4
0.35
0.135
0.16
0.29
0.2
0.315
0.4
0.445
0.57
0.5
0.425
0.245
0.29
0.305
0.31
0.415
0.49
0.55
0.665
0.595
0.51
0.275
0.405
0.495
0.415
0.465
0.555
0.67
0.755
0.62
0.59
0.355
0.47
0.495
0.485
0.625
0.725
0.795
0.88
0.73
0.725
0.475
0.625
0.67
0.735
0.795
0.815
0.945
0.965
0.86
0.8
0.55
0.72
0.795
0.755
0.87
0.865
1.04
1.035
0.93
0.795
0.585
0.8
0.76
0.85
0.885
0.91
1.04
1.015
0.915
0.765
0.55
0.71
0.745
0.785
0.8
0.81
0.98
0.935
0.785
0.675
0.5
0.635
0.61
0.615
0.685
0.715
0.865
0.83
0.74
0.565
0.345
0.5
0.47
0.55
0.61
0.655
0.815
0.765
0.685
0.475
0.355
0.55
0.485
0.58
0.655
0.69
0.8
0.79
0.7
0.52
0.37
0.535
0.525
0.65
0.71
0.76
0.895
0.805
0.775
0.575
0.515
0.515
0.545
0.655
0.695
0.705
0.86
0.77
0.755
0.57
0.49
0.57
0.56
0.655
0.795
0.78
0.92
0.82
0.755
0.52
0.54
0.64
0.595
0.64
0.745
0.775
0.94
0.825
0.825
0.49
0.545
0.645
0.665
0.66
0.735
0.845
0.875
0.785
0.765
0.55
0.565
0.685
0.61
0.685
0.74
0.845
0.94
0.775
0.76
0.505
0.575
0.625
0.65
0.71
0.75
0.86
0.96
0.87
0.71
0.51
0.595
0.63
0.685
0.775
0.825
0.915
0.955
0.855
0.795
0.545
0.64
0.705
0.755
0.83
0.87
1.015
0.975
0.835
0.745
0.58
0.72
0.67
0.77
0.88
0.83
0.98
1.0
0.875
0.72
0.57
0.695
0.705
0.73
0.845
0.845
1.065
1.045
0.865
0.785
0.6
0.705
0.81
0.895
0.92
0.915
1.115
1.0
0.915
0.78
0.635
0.835
0.795
0.81
0.915
0.935
1.12
1.055
0.97
0.805
0.62
0.805
0.785
0.845
0.92
1.0
1.115
1.08
0.96
0.815
0.67
0.82
0.805
0.875
0.98
0.975
1.12
1.075
0.995
0.8
0.745
0.91
0.86
0.925
0.98
1.035
1.17
1.11
1.04
0.81
0.73
0.815
0.85
0.9
0.935
0.985
1.145
1.04
0.93
0.79
0.725
0.82
0.83
0.83
0.925
0.955
1.105
0.985
0.865
0.64
0.66
0.72
0.81
0.82
0.905
0.98
1.095
0.975
0.94
0.64
0.65
0.785
0.755
0.82
0.915
0.94
1.025
0.93
0.87
0.61
0.7
0.76
0.765
0.785
0.845
0.98
0.985
0.88
0.815
0.555
0.62
0.6
0.715
0.825
0.88
1.075
1.255
1.275
1.41
1.24
1.515
1.68
1.85
1.965
1.96
2.13
2.07
1.85
1.635
1.285
1.295
1.205
1.1
1.015
0.975
1.14
1.145
1.005
0.765
0.58
0.72
0.67
0.735
0.84
0.86
1.035
1.01
0.91
0.78
0.59
0.72
0.755
0.82
0.925
0.95
1.085
1.065
0.935
0.8
0.635
0.8
0.86
0.875
0.975
1.01
1.14
1.125
1.02
0.89
0.715
0.885
0.915
0.96
1.055
1.095
1.2
1.18
1.11
0.96
0.77
0.96
0.965
0.99
1.15
1.09
1.26
1.24
1.145
0.955
0.82
0.99
0.995
1.045
1.135
1.175
1.32
1.245
1.15
0.935
0.88
1.095
1.0
0.995
1.11
1.19
1.33
1.24
1.14
1.01
1.005
0.995
1.0
1.095
1.215
1.23
1.4
1.235
1.13
0.99
1.0
1.08
1.07
1.125
1.2
1.265
1.405
1.305
1.21
1.005
0.95
1.14
1.115
1.185
1.285
1.315
1.405
1.32
1.26
1.03
1.17
1.22
1.185
1.235
1.355
1.44
1.545
1.43
1.37
1.135
1.19
1.255
1.285
1.285
1.36
1.445
1.47
1.34
1.34
1.03
1.08
0.99
1.155
1.2
1.265
1.38
1.3
1.3
1.135
0.87
0.995
1.02
1.055
1.06
1.16
1.32
1.285
1.145
1.025
0.81
0.975
0.99
0.965
1.08
1.11
1.275
1.24
1.1
0.97
0.765
0.925
0.95
0.97
1.075
1.09
1.245
1.22
1.14
1.015
0.725
0.87
0.92
0.965
0.98
1.085
1.18
1.19
1.045
0.86
0.755
0.965
0.91
0.995
1.075
1.085
1.255
1.255
1.115
1.02
0.82
0.96
0.925
0.975
1.1
1.14
1.26
1.265
1.11
0.93
0.78
0.965
0.96
1.045
1.07
1.085
1.265
1.175
1.09
0.9
0.81
0.965
0.935
0.98
1.045
1.055
1.285
1.175
1.16
0.95
0.855
1.0
0.965
0.94
1.105
1.15
1.255
1.21
1.13
0.925
0.855
0.95
0.92
1.03
1.11
1.165
1.32
1.195
1.165
0.895
0.915
0.985
1.03
1.045
1.075
1.235
1.34
1.145
1.145
0.885
0.965
1.1
1.1
1.035
1.165
1.26
1.32
1.235
1.17
0.945
1.015
1.01
1.06
1.125
1.2
1.33
1.365
1.22
1.165
0.965
1.0
1.045
1.065
1.095
1.16
1.29
1.345
1.21
1.12
0.835
0.915
1.02
1.04
1.13
1.125
1.255
1.255
1.135
1.045
0.855
1.03
1.05
0.98
1.125
1.215
1.36
1.35
1.175
1.04
0.835
1.0
1.05
1.02
1.16
1.175
1.32
1.325
1.205
1.005
0.82
1.005
1.01
1.025
1.105
1.175
1.255
1.35
1.12
1.045
0.835
1.02
1.055
1.105
1.18
1.2
1.39
1.34
1.2
1.035
0.9
1.1
1.07
1.175
1.265
1.255
1.41
1.37
1.27
1.14
1.05
1.185
1.15
1.25
1.305
1.32
1.49
1.46
1.34
1.165
1.035
1.18
1.19
1.15
1.3
1.33
1.45
1.365
1.29
1.13
0.96
1.105
1.1
1.17
1.27
1.275
1.46
1.375
1.255
0.975
1.02
1.165
1.14
1.15
1.21
1.24
1.42
1.32
1.235
1.035
1.005
1.13
1.12
1.14
1.265
1.26
1.395
1.24
