# TIPE ECG 2021 - ECG-ID Database v1.0.0 par Physionet
# [N° de la personne, N° de l'enregistrement, Période d'échantillonnage, Prénom, Age, Sexe, Date de l'enregistrement]
[26, 4, 0.002, "Coline", 31, "F", "13.05.2005"]
-0.37
-0.335
-0.325
-0.315
-0.32
-0.345
-0.365
-0.39
-0.395
-0.39
-0.37
-0.34
-0.33
-0.32
-0.315
-0.34
-0.365
-0.385
-0.4
-0.395
-0.375
-0.34
-0.335
-0.32
-0.325
-0.34
-0.37
-0.39
-0.395
-0.395
-0.37
-0.335
-0.33
-0.315
-0.315
-0.335
-0.365
-0.395
-0.39
-0.38
-0.365
-0.33
-0.315
-0.3
-0.32
-0.33
-0.355
-0.375
-0.375
-0.38
-0.355
-0.32
-0.3
-0.29
-0.31
-0.32
-0.355
-0.375
-0.375
-0.37
-0.35
-0.315
-0.305
-0.29
-0.305
-0.32
-0.355
-0.365
-0.37
-0.365
-0.34
-0.315
-0.305
-0.305
-0.315
-0.33
-0.36
-0.385
-0.375
-0.36
-0.345
-0.315
-0.31
-0.3
-0.31
-0.335
-0.35
-0.365
-0.38
-0.36
-0.34
-0.315
-0.305
-0.295
-0.31
-0.34
-0.37
-0.38
-0.37
-0.36
-0.345
-0.32
-0.305
-0.305
-0.315
-0.34
-0.365
-0.375
-0.37
-0.36
-0.34
-0.315
-0.305
-0.305
-0.315
-0.345
-0.37
-0.385
-0.37
-0.36
-0.335
-0.315
-0.315
-0.305
-0.32
-0.345
-0.365
-0.38
-0.375
-0.365
-0.345
-0.32
-0.305
-0.31
-0.31
-0.345
-0.37
-0.385
-0.37
-0.36
-0.31
-0.295
-0.29
-0.285
-0.29
-0.305
-0.315
-0.325
-0.305
-0.275
-0.255
-0.24
-0.235
-0.235
-0.25
-0.29
-0.295
-0.32
-0.315
-0.29
-0.25
-0.23
-0.22
-0.22
-0.235
-0.275
-0.3
-0.315
-0.31
-0.295
-0.275
-0.27
-0.26
-0.265
-0.28
-0.32
-0.365
-0.39
-0.375
-0.355
-0.34
-0.325
-0.31
-0.31
-0.34
-0.37
-0.395
-0.39
-0.395
-0.37
-0.33
-0.325
-0.315
-0.32
-0.34
-0.39
-0.4
-0.395
-0.385
-0.37
-0.335
-0.325
-0.325
-0.325
-0.35
-0.37
-0.395
-0.4
-0.395
-0.37
-0.33
-0.325
-0.315
-0.325
-0.34
-0.37
-0.395
-0.395
-0.405
-0.395
-0.37
-0.345
-0.33
-0.305
-0.295
-0.275
-0.22
-0.135
-0.015
0.095
0.23
0.3
0.35
0.385
0.405
0.365
0.275
0.18
0.105
0.055
-0.025
-0.165
-0.255
-0.3
-0.345
-0.41
-0.435
-0.41
-0.37
-0.345
-0.325
-0.32
-0.315
-0.325
-0.355
-0.39
-0.405
-0.41
-0.38
-0.35
-0.325
-0.32
-0.315
-0.33
-0.365
-0.385
-0.395
-0.395
-0.375
-0.345
-0.33
-0.31
-0.315
-0.33
-0.36
-0.37
-0.39
-0.38
-0.365
-0.325
-0.325
-0.315
-0.305
-0.315
-0.35
-0.375
-0.39
-0.385
-0.36
-0.325
-0.305
-0.3
-0.3
-0.315
-0.34
-0.355
-0.37
-0.365
-0.35
-0.32
-0.305
-0.29
-0.3
-0.31
-0.34
-0.355
-0.355
-0.345
-0.335
-0.3
-0.295
-0.29
-0.28
-0.305
-0.33
-0.35
-0.355
-0.345
-0.325
-0.29
-0.28
-0.27
-0.265
-0.29
-0.315
-0.335
-0.335
-0.32
-0.295
-0.27
-0.26
-0.245
-0.24
-0.255
-0.28
-0.31
-0.3
-0.28
-0.265
-0.23
-0.21
-0.195
-0.2
-0.215
-0.245
-0.26
-0.25
-0.235
-0.225
-0.195
-0.175
-0.165
-0.175
-0.19
-0.22
-0.235
-0.225
-0.22
-0.21
-0.175
-0.165
-0.17
-0.175
-0.2
-0.235
-0.255
-0.25
-0.25
-0.24
-0.215
-0.21
-0.215
-0.23
-0.26
-0.3
-0.32
-0.34
-0.32
-0.295
-0.275
-0.27
-0.275
-0.29
-0.31
-0.355
-0.375
-0.38
-0.375
-0.335
-0.315
-0.305
-0.31
-0.325
-0.345
-0.375
-0.39
-0.39
-0.38
-0.355
-0.33
-0.32
-0.315
-0.34
-0.37
-0.385
-0.405
-0.395
-0.385
-0.355
-0.34
-0.33
-0.325
-0.34
-0.375
-0.39
-0.41
-0.405
-0.395
-0.365
-0.35
-0.34
-0.35
-0.365
-0.39
-0.395
-0.415
-0.42
-0.39
-0.37
-0.345
-0.34
-0.34
-0.355
-0.39
-0.405
-0.415
-0.41
-0.38
-0.35
-0.33
-0.33
-0.33
-0.34
-0.375
-0.395
-0.405
-0.4
-0.375
-0.33
-0.325
-0.31
-0.315
-0.335
-0.375
-0.38
-0.385
-0.375
-0.365
-0.33
-0.32
-0.305
-0.31
-0.325
-0.365
-0.38
-0.375
-0.365
-0.35
-0.32
-0.325
-0.315
-0.31
-0.325
-0.36
-0.375
-0.375
-0.37
-0.35
-0.32
-0.305
-0.305
-0.31
-0.325
-0.36
-0.38
-0.375
-0.36
-0.355
-0.32
-0.31
-0.3
-0.32
-0.335
-0.365
-0.385
-0.39
-0.37
-0.355
-0.33
-0.31
-0.315
-0.315
-0.325
-0.36
-0.39
-0.385
-0.36
-0.355
-0.32
-0.31
-0.315
-0.33
-0.33
-0.37
-0.38
-0.385
-0.385
-0.35
-0.31
-0.305
-0.3
-0.315
-0.335
-0.365
-0.38
-0.385
-0.365
-0.345
-0.31
-0.305
-0.3
-0.32
-0.335
-0.36
-0.37
-0.375
-0.36
-0.34
-0.305
-0.3
-0.305
-0.315
-0.35
-0.365
-0.38
-0.38
-0.355
-0.325
-0.31
-0.3
-0.3
-0.315
-0.335
-0.36
-0.37
-0.365
-0.345
-0.325
-0.32
-0.305
-0.305
-0.31
-0.35
-0.365
-0.375
-0.365
-0.36
-0.32
-0.305
-0.295
-0.31
-0.32
-0.345
-0.355
-0.365
-0.36
-0.335
-0.3
-0.275
-0.26
-0.265
-0.265
-0.295
-0.305
-0.31
-0.3
-0.28
-0.25
-0.24
-0.23
-0.235
-0.25
-0.29
-0.315
-0.32
-0.315
-0.285
-0.245
-0.235
-0.22
-0.22
-0.23
-0.27
-0.3
-0.31
-0.31
-0.29
-0.265
-0.255
-0.26
-0.26
-0.27
-0.31
-0.345
-0.365
-0.37
-0.35
-0.32
-0.31
-0.3
-0.315
-0.33
-0.365
-0.39
-0.395
-0.365
-0.35
-0.32
-0.32
-0.305
-0.32
-0.34
-0.365
-0.395
-0.39
-0.375
-0.36
-0.335
-0.325
-0.315
-0.32
-0.335
-0.37
-0.4
-0.39
-0.365
-0.355
-0.32
-0.31
-0.305
-0.315
-0.335
-0.375
-0.4
-0.41
-0.39
-0.37
-0.34
-0.3
-0.27
-0.22
-0.17
-0.115
-0.035
0.075
0.18
0.285
0.365
0.425
0.46
0.45
0.365
0.245
0.135
0.06
-0.025
-0.14
-0.23
-0.255
-0.29
-0.32
-0.345
-0.36
-0.37
-0.365
-0.355
-0.335
-0.315
-0.295
-0.305
-0.315
-0.35
-0.365
-0.39
-0.38
-0.36
-0.33
-0.315
-0.305
-0.3
-0.31
-0.355
-0.365
-0.375
-0.375
-0.355
-0.33
-0.315
-0.3
-0.29
-0.315
-0.34
-0.36
-0.37
-0.37
-0.34
-0.31
-0.295
-0.285
-0.285
-0.305
-0.335
-0.355
-0.365
-0.355
-0.335
-0.305
-0.29
-0.275
-0.285
-0.3
-0.335
-0.355
-0.355
-0.35
-0.33
-0.31
-0.29
-0.275
-0.28
-0.295
-0.32
-0.34
-0.36
-0.34
-0.32
-0.29
-0.28
-0.265
-0.27
-0.275
-0.31
-0.33
-0.335
-0.33
-0.305
-0.27
-0.25
-0.235
-0.24
-0.26
-0.29
-0.32
-0.31
-0.29
-0.27
-0.24
-0.23
-0.215
-0.215
-0.23
-0.265
-0.27
-0.265
-0.255
-0.235
-0.2
-0.18
-0.17
-0.175
-0.19
-0.22
-0.235
-0.225
-0.215
-0.195
-0.16
-0.145
-0.145
-0.145
-0.165
-0.205
-0.22
-0.215
-0.21
-0.175
-0.15
-0.145
-0.15
-0.16
-0.19
-0.21
-0.235
-0.24
-0.225
-0.22
-0.205
-0.185
-0.185
-0.215
-0.235
-0.27
-0.295
-0.3
-0.29
-0.27
-0.26
-0.25
-0.255
-0.265
-0.29
-0.32
-0.34
-0.34
-0.335
-0.31
-0.29
-0.275
-0.285
-0.29
-0.325
-0.34
-0.36
-0.355
-0.33
-0.305
-0.295
-0.295
-0.29
-0.295
-0.325
-0.355
-0.37
-0.36
-0.33
-0.315
-0.31
-0.285
-0.285
-0.305
-0.345
-0.355
-0.37
-0.375
-0.355
-0.315
-0.3
-0.3
-0.295
-0.305
-0.35
-0.36
-0.375
-0.375
-0.35
-0.32
-0.31
-0.3
-0.31
-0.32
-0.355
-0.37
-0.37
-0.36
-0.35
-0.315
-0.3
-0.29
-0.3
-0.305
-0.34
-0.37
-0.37
-0.355
-0.34
-0.305
-0.29
-0.28
-0.29
-0.31
-0.33
-0.35
-0.35
-0.345
-0.32
-0.295
-0.28
-0.27
-0.28
-0.295
-0.325
-0.35
-0.34
-0.33
-0.32
-0.285
-0.28
-0.28
-0.28
-0.29
-0.325
-0.355
-0.35
-0.33
-0.315
-0.29
-0.29
-0.28
-0.285
-0.295
-0.335
-0.355
-0.355
-0.345
-0.33
-0.3
-0.29
-0.28
-0.295
-0.315
-0.35
-0.365
-0.365
-0.35
-0.325
-0.305
-0.295
-0.285
-0.3
-0.325
-0.35
-0.37
-0.36
-0.34
-0.325
-0.305
-0.29
-0.275
-0.295
-0.31
-0.335
-0.36
-0.355
-0.335
-0.325
-0.305
-0.3
-0.295
-0.295
-0.315
-0.345
-0.365
-0.36
-0.345
-0.315
-0.295
-0.29
-0.285
-0.295
-0.335
-0.34
-0.36
-0.355
-0.345
-0.315
-0.295
-0.285
-0.29
-0.3
-0.335
-0.355
-0.36
-0.355
-0.345
-0.31
-0.29
-0.285
-0.29
-0.315
-0.34
-0.355
-0.36
-0.36
-0.335
-0.305
-0.295
-0.285
-0.29
-0.3
-0.33
-0.345
-0.36
-0.36
-0.335
-0.3
-0.285
-0.28
-0.285
-0.295
-0.33
-0.35
-0.36
-0.345
-0.325
-0.29
-0.27
-0.255
-0.255
-0.27
-0.295
-0.305
-0.3
-0.29
-0.27
-0.235
-0.225
-0.205
-0.21
-0.22
-0.25
-0.29
-0.285
-0.29
-0.26
-0.22
-0.21
-0.195
-0.205
-0.22
-0.255
-0.27
-0.275
-0.255
-0.245
-0.22
-0.225
-0.215
-0.235
-0.245
-0.28
-0.295
-0.31
-0.305
-0.315
-0.315
-0.295
-0.29
-0.305
-0.32
-0.35
-0.36
-0.365
-0.36
-0.34
-0.31
-0.3
-0.295
-0.305
-0.315
-0.35
-0.37
-0.36
-0.35
-0.335
-0.31
-0.295
-0.3
-0.295
-0.325
-0.355
-0.37
-0.355
-0.35
-0.33
-0.295
-0.285
-0.28
-0.28
-0.305
-0.34
-0.35
-0.35
-0.345
-0.34
-0.315
-0.29
-0.265
-0.235
-0.23
-0.185
-0.125
-0.045
0.09
0.21
0.315
0.4
0.445
0.475
0.465
0.41
0.3
0.21
0.15
0.08
-0.015
-0.135
-0.195
-0.25
-0.3
-0.34
-0.345
-0.325
-0.295
-0.27
-0.26
-0.25
-0.255
-0.265
-0.3
-0.315
-0.34
-0.335
-0.31
-0.28
-0.275
-0.265
-0.255
-0.255
-0.29
-0.305
-0.335
-0.325
-0.305
-0.28
-0.26
-0.255
-0.255
-0.265
-0.295
-0.315
-0.33
-0.315
-0.3
-0.265
-0.255
-0.24
-0.24
-0.25
-0.295
-0.315
-0.315
-0.31
-0.295
-0.255
-0.25
-0.23
-0.235
-0.25
-0.285
-0.31
-0.315
-0.295
-0.28
-0.245
-0.24
-0.225
-0.23
-0.25
-0.27
-0.305
-0.305
-0.285
-0.26
-0.23
-0.23
-0.21
-0.215
-0.235
-0.265
-0.285
-0.29
-0.27
-0.25
-0.225
-0.215
-0.2
-0.185
-0.22
-0.255
-0.27
-0.255
-0.25
-0.22
-0.195
-0.18
-0.185
-0.175
-0.185
-0.21
-0.23
-0.22
-0.21
-0.19
-0.16
-0.14
-0.135
-0.14
-0.15
-0.175
-0.185
-0.185
-0.165
-0.145
-0.115
-0.095
-0.09
-0.1
-0.12
-0.145
-0.16
-0.145
-0.13
-0.115
-0.09
-0.08
-0.085
-0.095
-0.115
-0.15
-0.17
-0.175
-0.16
-0.14
-0.115
-0.115
-0.12
-0.16
-0.185
-0.2
-0.225
-0.235
-0.21
-0.195
-0.185
-0.18
-0.175
-0.195
-0.23
-0.255
-0.275
-0.275
-0.26
-0.235
-0.225
-0.22
-0.215
-0.235
-0.265
-0.285
-0.3
-0.295
-0.28
-0.255
-0.23
-0.225
-0.225
-0.235
-0.275
-0.29
-0.31
-0.3
-0.28
-0.255
-0.235
-0.235
-0.235
-0.25
-0.28
-0.305
-0.32
-0.305
-0.285
-0.26
-0.24
-0.225
-0.245
-0.25
-0.295
-0.32
-0.32
-0.305
-0.285
-0.255
-0.245
-0.235
-0.235
-0.255
-0.29
-0.305
-0.31
-0.3
-0.28
-0.25
-0.235
-0.225
-0.225
-0.25
-0.28
-0.295
-0.3
-0.295
-0.27
-0.24
-0.23
-0.21
-0.22
-0.24
-0.26
-0.295
-0.3
-0.28
-0.25
-0.22
-0.215
-0.2
-0.21
-0.23
-0.26
-0.28
-0.285
-0.265
-0.25
-0.215
-0.2
-0.195
-0.215
-0.23
-0.255
-0.28
-0.285
-0.26
-0.24
-0.205
-0.205
-0.205
-0.215
-0.23
-0.26
-0.28
-0.275
-0.265
-0.245
-0.215
-0.205
-0.2
-0.21
-0.23
-0.26
-0.29
-0.275
-0.26
-0.245
-0.22
-0.215
-0.21
-0.215
-0.23
-0.26
-0.275
-0.28
-0.26
-0.24
-0.225
-0.205
-0.2
-0.205
-0.235
-0.27
-0.275
-0.275
-0.26
-0.225
-0.205
-0.195
-0.195
-0.205
-0.245
-0.265
-0.27
-0.265
-0.255
-0.23
-0.205
-0.2
-0.2
-0.21
-0.235
-0.26
-0.275
-0.265
-0.25
-0.22
-0.205
-0.205
-0.205
-0.21
-0.24
-0.255
-0.27
-0.265
-0.25
-0.22
-0.205
-0.195
-0.2
-0.21
-0.24
-0.255
-0.275
-0.265
-0.245
-0.21
-0.195
-0.19
-0.195
-0.215
-0.245
-0.26
-0.275
-0.265
-0.24
-0.2
-0.195
-0.19
-0.195
-0.21
-0.24
-0.26
-0.27
-0.255
-0.24
-0.21
-0.2
-0.185
-0.195
-0.205
-0.23
-0.235
-0.24
-0.22
-0.19
-0.16
-0.14
-0.135
-0.135
-0.145
-0.175
-0.18
-0.175
-0.18
-0.155
-0.125
-0.11
-0.11
-0.13
-0.14
-0.17
-0.185
-0.185
-0.17
-0.15
-0.115
-0.1
-0.1
-0.115
-0.135
-0.165
-0.2
-0.195
-0.195
-0.17
-0.145
-0.14
-0.135
-0.16
-0.2
-0.235
-0.275
-0.275
-0.255
-0.225
-0.205
-0.19
-0.19
-0.2
-0.215
-0.245
-0.265
-0.265
-0.25
-0.23
-0.205
-0.2
-0.195
-0.2
-0.22
-0.255
-0.27
-0.26
-0.255
-0.24
-0.21
-0.195
-0.19
-0.205
-0.225
-0.25
-0.265
-0.26
-0.25
-0.22
-0.205
-0.2
-0.21
-0.225
-0.255
-0.27
-0.26
-0.215
-0.16
-0.065
0.035
0.14
0.25
0.325
0.36
0.41
0.445
0.49
0.51
0.495
0.42
0.33
0.24
0.13
-0.015
-0.16
-0.22
-0.245
-0.265
-0.23
-0.21
-0.185
-0.18
-0.195
-0.24
-0.25
-0.265
-0.26
-0.235
-0.21
-0.205
-0.205
-0.195
-0.21
-0.245
-0.26
-0.265
-0.265
-0.24
-0.21
-0.195
-0.185
-0.195
-0.21
-0.245
-0.255
-0.265
-0.26
-0.235
-0.195
-0.185
-0.175
-0.18
-0.19
-0.23
-0.245
-0.265
-0.245
-0.215
-0.185
-0.18
-0.165
-0.18
-0.185
-0.215
-0.24
-0.245
-0.225
-0.21
-0.175
-0.175
-0.16
-0.16
-0.17
-0.21
-0.235
-0.24
-0.22
-0.2
-0.17
-0.16
-0.155
-0.15
-0.16
-0.195
-0.21
-0.22
-0.205
-0.18
-0.145
-0.135
-0.13
-0.145
-0.15
-0.185
-0.2
-0.2
-0.175
-0.16
-0.13
-0.115
-0.105
-0.115
-0.13
-0.15
-0.17
-0.17
-0.155
-0.12
-0.095
-0.075
-0.07
-0.07
-0.095
-0.12
-0.13
-0.12
-0.105
-0.085
-0.045
-0.03
-0.03
-0.035
-0.055
-0.075
-0.095
-0.09
-0.08
-0.05
-0.02
-0.01
-0.015
-0.025
-0.045
-0.065
-0.095
-0.09
-0.085
-0.055
-0.03
-0.03
-0.02
-0.05
-0.085
-0.115
-0.13
-0.13
-0.12
-0.1
-0.08
-0.075
-0.09
-0.105
-0.145
-0.185
-0.195
-0.19
-0.165
-0.145
-0.135
-0.135
-0.135
-0.15
-0.185
-0.21
-0.22
-0.225
-0.205
-0.175
-0.16
-0.15
-0.145
-0.165
-0.2
-0.215
-0.23
-0.225
-0.21
-0.18
-0.165
-0.16
-0.16
-0.17
-0.2
-0.235
-0.24
-0.225
-0.21
-0.18
-0.165
-0.155
-0.16
-0.175
-0.22
-0.24
-0.24
-0.235
-0.21
-0.185
-0.17
-0.17
-0.18
-0.185
-0.21
-0.245
-0.24
-0.22
-0.205
-0.165
-0.15
-0.145
-0.16
-0.17
-0.205
-0.225
-0.22
-0.21
-0.19
-0.155
-0.15
-0.15
-0.145
-0.16
-0.2
-0.215
-0.21
-0.195
-0.185
-0.155
-0.13
-0.125
-0.14
-0.155
-0.185
-0.2
-0.21
-0.195
-0.165
-0.13
-0.12
-0.125
-0.135
-0.155
-0.185
-0.195
-0.2
-0.18
-0.16
-0.135
-0.13
-0.115
-0.125
-0.14
-0.17
-0.2
-0.195
-0.18
-0.165
-0.135
-0.125
-0.115
-0.13
-0.155
-0.18
-0.2
-0.2
-0.185
-0.165
-0.14
-0.125
-0.12
-0.13
-0.15
-0.19
-0.205
-0.195
-0.18
-0.155
-0.135
-0.13
-0.125
-0.135
-0.16
-0.185
-0.205
-0.2
-0.195
-0.16
-0.13
-0.12
-0.135
-0.14
-0.17
-0.185
-0.205
-0.205
-0.195
-0.16
-0.145
-0.135
-0.125
-0.14
-0.17
-0.195
-0.205
-0.205
-0.19
-0.155
-0.135
-0.125
-0.135
-0.145
-0.185
-0.19
-0.195
-0.19
-0.175
-0.155
-0.135
-0.13
-0.13
-0.145
-0.175
-0.205
-0.21
-0.2
-0.18
-0.15
-0.14
-0.13
-0.13
-0.14
-0.17
-0.195
-0.205
-0.195
-0.19
-0.155
-0.13
-0.125
-0.13
-0.14
-0.18
-0.21
-0.21
-0.2
-0.17
-0.145
-0.13
-0.125
-0.13
-0.15
-0.18
-0.21
-0.205
-0.185
-0.165
-0.14
-0.11
-0.095
-0.105
-0.115
-0.145
-0.15
-0.15
-0.13
-0.105
-0.065
-0.06
-0.055
-0.06
-0.085
-0.13
-0.145
-0.145
-0.125
-0.105
-0.075
-0.06
-0.045
-0.055
-0.07
-0.095
-0.115
-0.12
-0.11
-0.11
-0.085
-0.1
-0.085
-0.08
-0.1
-0.14
-0.165
-0.19
-0.195
-0.175
-0.155
-0.14
-0.145
-0.16
-0.175
-0.2
-0.22
-0.225
-0.21
-0.18
-0.16
-0.15
-0.145
-0.15
-0.185
-0.21
-0.225
-0.22
-0.21
-0.185
-0.16
-0.145
-0.155
-0.17
-0.185
-0.21
-0.225
-0.225
-0.205
-0.175
-0.155
-0.15
-0.15
-0.16
-0.19
-0.225
-0.255
-0.25
-0.225
-0.16
-0.12
-0.08
-0.005
0.065
0.12
0.195
0.285
0.375
0.455
0.52
0.58
0.605
0.56
0.45
0.315
0.23
0.12
0.01
-0.1
-0.125
-0.145
-0.165
-0.165
-0.185
-0.205
-0.205
-0.21
-0.21
-0.19
-0.165
-0.15
-0.14
-0.155
-0.17
-0.2
-0.22
-0.22
-0.22
-0.19
-0.165
-0.16
-0.145
-0.15
-0.165
-0.195
-0.2
-0.22
-0.215
-0.2
-0.165
-0.155
-0.135
-0.15
-0.145
-0.18
-0.2
-0.215
-0.2
-0.17
-0.14
-0.135
-0.125
-0.135
-0.135
-0.175
-0.195
-0.2
-0.18
-0.17
-0.13
-0.125
-0.12
-0.13
-0.135
-0.165
-0.185
-0.175
-0.17
-0.15
-0.125
-0.11
-0.09
-0.105
-0.125
-0.155
-0.18
-0.175
-0.16
-0.15
-0.125
-0.09
-0.085
-0.1
-0.105
-0.14
-0.165
-0.16
-0.15
-0.12
-0.08
-0.07
-0.07
-0.07
-0.1
-0.125
-0.145
-0.13
-0.105
-0.095
-0.055
-0.04
-0.04
-0.04
-0.05
-0.08
-0.095
-0.09
-0.075
-0.04
-0.01
0.0
0.01
-0.005
-0.015
-0.035
-0.055
-0.055
-0.02
0.005
0.015
0.025
0.035
0.025
-0.01
-0.03
-0.045
-0.04
-0.025
0.01
0.02
0.02
0.02
0.01
-0.035
-0.06
-0.07
-0.065
-0.055
-0.03
-0.025
-0.015
-0.025
-0.045
-0.08
-0.11
-0.135
-0.125
-0.115
-0.1
-0.085
-0.09
-0.08
-0.085
-0.14
-0.16
-0.175
-0.17
-0.155
-0.115
-0.11
-0.1
-0.11
-0.145
-0.165
-0.18
-0.18
-0.19
-0.17
-0.13
-0.12
-0.11
-0.11
-0.14
-0.17
-0.19
-0.195
-0.175
-0.16
-0.13
-0.125
-0.12
-0.12
-0.14
-0.175
-0.2
-0.2
-0.195
-0.165
-0.15
-0.125
-0.12
-0.125
-0.135
-0.175
-0.2
-0.19
-0.185
-0.155
-0.125
-0.125
-0.105
-0.12
-0.135
-0.17
-0.175
-0.175
-0.175
-0.155
-0.125
-0.11
-0.1
-0.105
-0.13
-0.155
-0.18
-0.165
-0.16
-0.135
-0.105
-0.09
-0.095
-0.1
-0.11
-0.15
-0.16
-0.165
-0.15
-0.145
-0.095
-0.08
-0.07
-0.1
-0.115
-0.145
-0.16
-0.165
-0.135
-0.115
-0.095
-0.085
-0.075
-0.095
-0.115
-0.155
-0.16
-0.165
-0.145
-0.12
-0.085
-0.09
-0.08
-0.09
-0.115
-0.14
-0.155
-0.145
-0.14
-0.115
-0.1
-0.09
-0.085
-0.095
-0.135
-0.15
-0.16
-0.15
-0.14
-0.115
-0.1
-0.095
-0.09
-0.095
-0.125
-0.155
-0.165
-0.17
-0.14
-0.12
-0.1
-0.095
-0.085
-0.11
-0.135
-0.16
-0.17
-0.15
-0.135
-0.105
-0.105
-0.09
-0.095
-0.115
-0.145
-0.145
-0.15
-0.155
-0.14
-0.11
-0.09
-0.085
-0.09
-0.11
-0.14
-0.155
-0.16
-0.15
-0.14
-0.11
-0.095
-0.085
-0.09
-0.105
-0.16
-0.145
-0.13
-0.1
-0.085
-0.08
-0.08
-0.095
-0.13
-0.145
-0.135
-0.115
-0.08
-0.05
-0.04
-0.03
-0.025
-0.035
-0.07
-0.075
-0.085
-0.07
-0.055
-0.025
-0.01
-0.01
-0.015
-0.04
-0.065
-0.085
-0.075
-0.065
-0.04
-0.005
0.005
0.015
-0.005
-0.03
-0.06
-0.085
-0.09
-0.085
-0.08
-0.05
-0.03
-0.035
-0.06
-0.1
-0.15
-0.17
-0.17
-0.145
-0.125
-0.09
-0.075
-0.085
-0.1
-0.11
-0.14
-0.16
-0.155
-0.135
-0.11
-0.1
-0.09
-0.09
-0.095
-0.12
-0.14
-0.16
-0.155
-0.145
-0.115
-0.09
-0.08
-0.075
-0.1
-0.12
-0.15
-0.155
-0.145
-0.125
-0.1
-0.09
-0.09
-0.095
-0.115
-0.125
-0.13
-0.125
-0.125
-0.035
0.075
0.18
0.265
0.35
0.42
0.475
0.485
0.505
0.55
0.535
0.485
0.405
0.355
0.29
0.165
-0.005
-0.105
-0.15
-0.17
-0.18
-0.16
-0.13
-0.1
-0.095
-0.09
-0.105
-0.12
-0.14
-0.16
-0.135
-0.1
-0.085
-0.075
-0.085
-0.095
-0.13
-0.145
-0.145
-0.13
-0.14
-0.11
-0.085
-0.07
-0.08
-0.09
-0.13
-0.145
-0.155
-0.13
-0.12
-0.095
-0.095
-0.06
-0.07
-0.09
-0.13
-0.15
-0.135
-0.12
-0.105
-0.075
-0.06
-0.055
-0.055
-0.085
-0.105
-0.13
-0.13
-0.12
-0.11
-0.08
-0.055
-0.045
-0.05
-0.07
-0.105
-0.125
-0.125
-0.11
-0.09
-0.055
-0.055
-0.05
-0.05
-0.06
-0.095
-0.125
-0.12
-0.1
-0.08
-0.045
-0.035
-0.04
-0.045
-0.06
-0.08
-0.095
-0.095
-0.07
-0.06
-0.025
-0.025
-0.005
-0.005
-0.03
-0.05
-0.07
-0.07
-0.045
-0.025
0.015
0.03
0.03
0.025
0.01
-0.005
-0.02
-0.025
0.0
0.025
0.055
0.06
0.065
0.055
0.035
0.02
0.0
0.0
0.025
0.055
0.065
0.08
0.085
0.075
0.04
0.02
0.0
0.0
0.015
0.03
0.04
0.06
0.055
0.025
0.005
-0.03
-0.055
-0.055
-0.045
-0.03
-0.02
-0.02
-0.015
-0.035
-0.075
-0.1
-0.12
-0.115
-0.095
-0.06
-0.065
-0.06
-0.06
-0.085
-0.12
-0.135
-0.16
-0.145
-0.13
-0.1
-0.09
-0.085
-0.09
-0.11
-0.135
-0.155
-0.165
-0.16
-0.145
-0.11
-0.11
-0.095
-0.09
-0.11
-0.14
-0.165
-0.175
-0.165
-0.155
-0.12
-0.105
-0.09
-0.095
-0.115
-0.145
-0.175
-0.175
-0.165
-0.135
-0.1
-0.095
-0.09
-0.1
-0.11
-0.13
-0.165
-0.165
-0.155
-0.135
-0.1
-0.09
-0.08
-0.09
-0.105
-0.14
-0.15
-0.14
-0.145
-0.13
-0.09
-0.08
-0.065
-0.08
-0.095
-0.13
-0.15
-0.14
-0.135
-0.11
-0.085
-0.06
-0.055
-0.07
-0.09
-0.115
-0.145
-0.145
-0.13
-0.1
-0.075
-0.075
-0.07
-0.08
-0.095
-0.12
-0.145
-0.145
-0.135
-0.115
-0.09
-0.075
-0.075
-0.085
-0.115
-0.135
-0.155
-0.165
-0.14
-0.115
-0.1
-0.08
-0.075
-0.09
-0.115
-0.135
-0.15
-0.155
-0.14
-0.105
-0.085
-0.08
-0.085
-0.1
-0.135
-0.14
-0.155
-0.155
-0.14
-0.11
-0.09
-0.085
-0.085
-0.1
-0.13
-0.145
-0.155
-0.15
-0.13
-0.1
-0.095
-0.08
-0.075
-0.095
-0.135
-0.135
-0.17
-0.16
-0.14
-0.11
-0.085
-0.085
-0.09
-0.105
-0.14
-0.15
-0.16
-0.15
-0.13
-0.11
-0.095
-0.09
-0.095
-0.105
-0.13
-0.145
-0.155
-0.155
-0.14
-0.105
-0.09
-0.09
-0.08
-0.1
-0.13
-0.155
-0.165
-0.145
-0.125
-0.1
-0.095
-0.085
-0.095
-0.1
-0.13
-0.15
-0.16
-0.15
-0.13
-0.09
-0.075
-0.055
-0.065
-0.075
-0.095
-0.115
-0.115
-0.095
-0.06
-0.03
-0.02
-0.005
-0.02
-0.03
-0.065
-0.095
-0.1
-0.095
-0.075
-0.03
-0.02
-0.015
-0.025
-0.03
-0.05
-0.065
-0.07
-0.065
-0.05
-0.02
-0.01
-0.015
-0.04
-0.06
-0.095
-0.11
-0.11
-0.11
-0.11
-0.1
-0.1
-0.1
-0.115
-0.125
-0.155
-0.17
-0.165
-0.155
-0.145
-0.115
-0.1
-0.095
-0.11
-0.13
-0.15
-0.18
-0.18
-0.155
-0.15
-0.11
-0.095
-0.095
-0.11
-0.14
-0.16
-0.185
-0.175
-0.15
-0.12
-0.11
-0.095
-0.1
-0.105
-0.14
-0.18
-0.2
-0.2
-0.18
-0.135
-0.085
-0.05
-0.025
0.035
0.08
0.145
0.225
0.31
0.41
0.495
0.55
0.595
0.61
0.56
0.46
0.345
0.265
0.18
0.08
-0.03
-0.055
-0.08
-0.1
-0.135
-0.16
-0.16
-0.165
-0.17
-0.155
-0.115
-0.095
-0.085
-0.085
-0.105
-0.145
-0.16
-0.175
-0.165
-0.145
-0.115
-0.095
-0.1
-0.1
-0.115
-0.15
-0.155
-0.17
-0.16
-0.14
-0.1
-0.095
-0.09
-0.09
-0.11
-0.135
-0.155
-0.145
-0.14
-0.12
-0.095
-0.095
-0.065
-0.075
-0.095
-0.115
-0.145
-0.15
-0.135
-0.125
-0.085
-0.075
-0.07
-0.07
-0.075
-0.11
-0.14
-0.135
-0.12
-0.105
-0.075
-0.06
-0.05
-0.07
-0.08
-0.11
-0.125
-0.13
-0.115
-0.105
-0.065
-0.05
-0.045
-0.055
-0.065
-0.1
-0.12
-0.11
-0.09
-0.075
-0.04
-0.035
-0.03
-0.045
-0.05
-0.08
-0.095
-0.085
-0.065
-0.05
-0.01
-0.005
0.005
0.0
-0.01
-0.04
-0.055
-0.05
-0.025
-0.005
0.025
0.045
0.045
0.035
0.025
0.0
-0.02
0.0
0.02
0.045
0.065
0.065
0.08
0.07
0.055
0.025
0.005
0.015
0.025
0.045
0.07
0.085
0.075
0.065
0.025
0.0
-0.02
-0.015
-0.01
0.005
0.03
0.035
0.03
0.0
-0.04
-0.05
-0.075
-0.075
-0.065
-0.05
-0.045
-0.03
-0.035
-0.06
-0.095
-0.115
-0.13
-0.125
-0.11
-0.075
-0.065
-0.07
-0.06
-0.08
-0.105
-0.135
-0.155
-0.15
-0.12
-0.095
-0.08
-0.075
-0.065
-0.09
-0.125
-0.135
-0.145
-0.14
-0.125
-0.1
-0.09
-0.085
-0.08
-0.105
-0.14
-0.16
-0.16
-0.15
-0.13
-0.095
-0.1
-0.085
-0.095
-0.105
-0.135
-0.16
-0.165
-0.15
-0.135
-0.11
-0.095
-0.08
-0.09
-0.105
-0.14
-0.16
-0.16
-0.15
-0.13
-0.11
-0.09
-0.08
-0.085
-0.1
-0.14
-0.165
-0.155
-0.135
-0.12
-0.095
-0.08
-0.065
-0.08
-0.11
-0.135
-0.15
-0.145
-0.125
-0.115
-0.09
-0.075
-0.065
-0.075
-0.105
-0.13
-0.145
-0.14
-0.13
-0.1
-0.08
-0.065
-0.06
-0.07
-0.09
-0.12
-0.145
-0.145
-0.115
-0.1
-0.08
-0.075
-0.07
-0.08
-0.095
-0.125
-0.14
-0.14
-0.12
-0.105
-0.085
-0.08
-0.08
-0.085
-0.105
-0.13
-0.14
-0.15
-0.125
-0.105
-0.09
-0.075
-0.08
-0.09
-0.115
-0.135
-0.155
-0.15
-0.13
-0.105
-0.085
-0.085
-0.08
-0.095
-0.125
-0.14
-0.155
-0.155
-0.125
-0.115
-0.09
-0.085
-0.08
-0.1
-0.125
-0.155
-0.17
-0.15
-0.125
-0.1
-0.08
-0.075
-0.085
-0.095
-0.14
-0.155
-0.165
-0.155
-0.135
-0.105
-0.095
-0.09
-0.09
-0.1
-0.14
-0.145
-0.16
-0.165
-0.135
-0.1
-0.09
-0.08
-0.085
-0.1
-0.15
-0.155
-0.16
-0.15
-0.135
-0.105
-0.095
-0.085
-0.085
-0.095
-0.135
-0.15
-0.15
-0.125
-0.105
-0.055
-0.045
-0.035
-0.025
-0.035
-0.055
-0.07
-0.08
-0.08
-0.06
-0.04
-0.035
-0.02
-0.03
-0.05
-0.075
-0.09
-0.08
-0.07
-0.05
-0.015
0.005
0.005
-0.005
-0.03
-0.07
-0.1
-0.12
-0.115
-0.08
-0.04
-0.03
-0.045
-0.07
-0.105
-0.145
-0.165
-0.165
-0.15
-0.14
-0.12
-0.1
-0.095
-0.11
-0.13
-0.155
-0.17
-0.175
-0.16
-0.135
-0.11
-0.1
-0.1
-0.1
-0.125
-0.17
-0.18
-0.175
-0.155
-0.135
-0.115
-0.105
-0.105
-0.12
-0.14
-0.15
-0.17
-0.16
-0.155
-0.14
-0.125
-0.13
-0.125
-0.13
-0.14
-0.13
-0.125
-0.065
0.025
0.13
0.25
0.355
0.445
0.505
0.53
0.56
0.57
0.575
0.53
0.465
0.4
0.325
0.235
0.08
-0.065
-0.12
-0.15
-0.17
-0.17
-0.125
-0.09
-0.08
-0.08
-0.115
-0.15
-0.155
-0.17
-0.17
-0.155
-0.13
-0.115
-0.11
-0.095
-0.125
-0.16
-0.165
-0.17
-0.17
-0.15
-0.11
-0.105
-0.095
-0.095
-0.12
-0.145
-0.165
-0.175
-0.16
-0.145
-0.11
-0.1
-0.085
-0.09
-0.105
-0.135
-0.15
-0.165
-0.165
-0.14
-0.1
-0.095
-0.08
-0.09
-0.1
-0.14
-0.155
-0.165
-0.145
-0.12
-0.09
-0.085
-0.075
-0.08
-0.095
-0.125
-0.155
-0.15
-0.135
-0.11
-0.085
-0.07
-0.05
-0.075
-0.09
-0.115
-0.13
-0.13
-0.115
-0.1
-0.07
-0.05
-0.045
-0.06
-0.065
-0.095
-0.11
-0.12
-0.1
-0.08
-0.045
-0.03
-0.03
-0.04
-0.05
-0.075
-0.085
-0.09
-0.07
-0.045
-0.01
0.01
0.02
0.005
-0.005
-0.025
-0.045
-0.035
-0.02
0.01
0.035
0.05
0.06
0.035
0.025
-0.005
-0.01
0.0
0.015
0.035
0.05
0.06
0.06
0.05
0.03
0.01
-0.02
-0.015
-0.005
0.025
0.045
0.045
0.04
0.015
-0.015
-0.045
-0.07
-0.075
-0.06
-0.04
-0.025
-0.025
-0.025
-0.05
-0.085
-0.105
-0.13
-0.13
-0.12
-0.1
-0.08
-0.075
-0.075
-0.1
-0.125
-0.15
-0.16
-0.175
-0.145
-0.12
-0.1
-0.09
-0.085
-0.105
-0.145
-0.165
-0.17
-0.165
-0.15
-0.115
-0.105
-0.105
-0.105
-0.11
-0.14
-0.175
-0.19
-0.17
-0.15
-0.115
-0.11
-0.1
-0.11
-0.12
-0.155
-0.175
-0.175
-0.165
-0.16
-0.13
-0.12
-0.11
-0.115
-0.125
-0.17
-0.185
-0.195
-0.18
-0.155
-0.125
-0.12
-0.105
-0.11
-0.135
-0.165
-0.185
-0.185
-0.17
-0.16
-0.12
-0.105
-0.095
-0.105
-0.125
-0.155
-0.165
-0.17
-0.16
-0.15
-0.12
-0.1
-0.09
-0.1
-0.115
-0.15
-0.165
-0.16
-0.145
-0.13
-0.09
-0.09
-0.08
-0.1
-0.115
-0.14
-0.16
-0.155
-0.145
-0.125
-0.095
-0.09
-0.085
-0.095
-0.1
-0.13
-0.165
-0.165
-0.145
-0.12
-0.095
-0.09
-0.085
-0.09
-0.11
-0.14
-0.16
-0.16
-0.15
-0.12
-0.095
-0.085
-0.085
-0.095
-0.125
-0.145
-0.16
-0.155
-0.14
-0.115
-0.095
-0.085
-0.085
-0.095
-0.13
-0.15
-0.175
-0.165
-0.15
-0.115
-0.09
-0.09
-0.095
-0.09
-0.13
-0.16
-0.17
-0.155
-0.14
-0.105
-0.1
-0.085
-0.09
-0.1
-0.13
-0.165
-0.165
-0.16
-0.15
-0.11
-0.085
-0.08
-0.09
-0.1
-0.14
-0.155
-0.16
-0.15
-0.125
-0.095
-0.08
-0.06
-0.06
-0.07
-0.095
-0.095
-0.105
-0.09
-0.07
-0.03
-0.025
-0.01
-0.015
-0.03
-0.06
-0.085
-0.09
-0.075
-0.055
-0.03
-0.01
0.0
0.0
0.0
-0.03
-0.065
-0.075
-0.075
-0.06
-0.035
-0.035
-0.025
-0.04
-0.05
-0.08
-0.115
-0.15
-0.155
-0.13
-0.095
-0.1
-0.08
-0.09
-0.1
-0.135
-0.165
-0.155
-0.15
-0.125
-0.105
-0.1
-0.085
-0.09
-0.105
-0.145
-0.165
-0.16
-0.155
-0.135
-0.1
-0.09
-0.09
-0.1
-0.105
-0.14
-0.16
-0.16
-0.155
-0.135
-0.095
-0.085
-0.08
-0.09
-0.115
-0.16
-0.185
-0.19
-0.17
-0.14
-0.09
-0.04
0.01
0.08
0.13
0.21
0.3
0.405
0.485
0.57
0.64
0.69
0.7
0.615
0.49
0.38
0.28
0.165
0.05
-0.025
-0.045
-0.065
-0.095
-0.105
-0.115
-0.13
-0.14
-0.15
-0.135
-0.11
-0.095
-0.08
-0.08
-0.095
-0.12
-0.15
-0.165
-0.16
-0.145
-0.115
-0.11
-0.1
-0.09
-0.1
-0.125
-0.14
-0.145
-0.155
-0.135
-0.105
-0.09
-0.075
-0.075
-0.09
-0.12
-0.135
-0.155
-0.145
-0.125
-0.095
-0.085
-0.08
-0.08
-0.08
-0.11
-0.13
-0.145
-0.14
-0.115
-0.085
-0.075
-0.06
-0.05
-0.06
-0.115
-0.135
-0.145
-0.125
-0.105
-0.075
-0.065
-0.05
-0.055
-0.075
-0.105
-0.135
-0.125
-0.115
-0.085
-0.05
-0.055
-0.04
-0.04
-0.055
-0.09
-0.11
-0.105
-0.095
-0.085
-0.045
-0.035
-0.03
-0.035
-0.04
-0.07
-0.09
-0.085
-0.065
-0.05
-0.015
0.0
0.005
0.015
-0.005
-0.035
-0.055
-0.05
-0.035
-0.025
0.025
0.055
0.055
0.045
0.035
0.015
0.0
0.005
0.015
0.04
0.06
0.085
0.09
0.085
0.06
0.025
0.02
0.015
0.025
0.05
0.07
0.075
0.085
0.05
0.025
0.005
-0.015
-0.025
-0.02
0.0
0.02
0.025
0.02
-0.01
-0.04
-0.06
-0.095
-0.09
-0.09
-0.06
-0.05
-0.05
-0.05
-0.07
-0.095
-0.11
-0.145
-0.14
-0.13
-0.105
-0.085
-0.08
-0.08
-0.095
-0.12
-0.135
-0.15
-0.15
-0.135
-0.105
-0.095
-0.085
-0.085
-0.085
-0.125
-0.15
-0.16
-0.15
-0.145
-0.11
-0.1
-0.085
-0.08
-0.11
-0.135
-0.145
-0.16
-0.155
-0.145
-0.11
-0.105
-0.085
-0.095
-0.105
-0.145
-0.16
-0.175
-0.165
-0.145
-0.11
-0.105
-0.1
-0.095
-0.11
-0.15
-0.17
-0.165
-0.16
-0.14
-0.12
-0.1
-0.085
-0.085
-0.105
-0.135
-0.16
-0.175
-0.165
-0.145
-0.11
-0.095
-0.07
-0.08
-0.095
-0.13
-0.15
-0.155
-0.145
-0.12
-0.09
-0.085
-0.08
-0.085
-0.09
-0.125
-0.14
-0.15
-0.135
-0.115
-0.09
-0.075
-0.065
-0.075
-0.095
-0.125
-0.145
-0.155
-0.135
-0.12
-0.08
-0.07
-0.06
-0.075
-0.095
-0.125
-0.15
-0.145
-0.135
-0.12
-0.085
-0.08
-0.075
-0.07
-0.085
-0.13
-0.155
-0.145
-0.14
-0.115
-0.08
-0.085
-0.09
-0.085
-0.085
-0.13
-0.155
-0.145
-0.15
-0.135
-0.09
-0.07
-0.07
-0.1
-0.115
-0.135
-0.145
-0.15
-0.135
-0.12
-0.09
-0.075
-0.075
-0.09
-0.12
-0.145
-0.16
-0.155
-0.135
-0.11
-0.095
-0.075
-0.09
-0.1
-0.125
-0.15
-0.165
-0.15
-0.135
-0.1
-0.07
-0.065
-0.07
-0.08
-0.09
-0.105
-0.12
-0.105
-0.085
-0.05
-0.025
-0.01
-0.005
-0.005
-0.055
-0.08
-0.095
-0.09
-0.07
-0.04
-0.025
-0.015
-0.01
-0.01
-0.03
-0.06
-0.075
-0.065
-0.055
-0.035
-0.03
-0.025
-0.025
-0.05
-0.095
-0.1
-0.125
-0.15
-0.145
-0.11
-0.1
-0.09
-0.09
-0.11
-0.155
-0.17
-0.175
-0.16
-0.155
-0.13
-0.115
-0.09
-0.105
-0.12
-0.16
-0.18
-0.18
-0.17
-0.15
-0.12
-0.115
-0.11
-0.11
-0.12
-0.155
-0.185
-0.18
-0.17
-0.14
-0.115
-0.11
-0.1
-0.1
-0.12
-0.15
-0.185
-0.19
-0.205
-0.19
-0.16
-0.135
-0.1
-0.08
-0.055
-0.005
0.045
0.14
0.27
0.385
0.495
0.575
0.61
0.645
0.655
0.575
0.46
0.365
0.305
0.21
0.12
-0.005
-0.055
-0.1
-0.14
-0.185
-0.2
-0.175
-0.155
-0.13
-0.1
-0.11
-0.1
-0.115
-0.13
-0.165
-0.18
-0.185
-0.165
-0.15
-0.125
-0.11
-0.095
-0.11
-0.14
-0.16
-0.18
-0.17
-0.155
-0.135
-0.11
-0.1
-0.1
-0.115
-0.14
-0.155
-0.165
-0.165
-0.165
-0.115
-0.11
-0.09
-0.095
-0.1
-0.14
-0.155
-0.17
-0.16
-0.14
-0.115
-0.09
-0.09
-0.08
-0.105
-0.135
-0.15
-0.165
-0.14
-0.125
-0.105
-0.075
-0.075
-0.07
-0.085
-0.12
-0.13
-0.155
-0.135
-0.11
-0.08
-0.065
-0.06
-0.06
-0.07
-0.105
-0.115
-0.125
-0.12
-0.105
-0.07
-0.05
-0.05
-0.035
-0.05
-0.08
-0.11
-0.11
-0.095
-0.075
-0.035
-0.02
-0.005
-0.005
-0.015
-0.06
-0.08
-0.06
-0.035
-0.025
0.01
0.025
0.045
0.04
0.025
0.0
-0.015
-0.01
0.0
0.01
0.06
0.08
0.085
0.08
0.06
0.03
0.01
0.01
0.02
0.04
0.065
0.07
0.08
0.075
0.06
0.03
-0.015
-0.025
0.0
0.01
0.02
0.02
0.025
0.01
-0.005
-0.05
-0.075
-0.085
-0.08
-0.075
-0.045
-0.04
-0.045
-0.055
-0.075
-0.11
-0.135
-0.145
-0.13
-0.11
-0.075
-0.07
-0.065
-0.08
-0.1
-0.135
-0.16
-0.155
-0.13
-0.12
-0.09
-0.085
-0.065
-0.08
-0.11
-0.145
-0.16
-0.15
-0.14
-0.11
-0.085
-0.085
-0.075
-0.105
-0.12
-0.15
-0.15
-0.155
-0.145
-0.125
-0.085
-0.07
-0.08
-0.1
-0.135
-0.15
-0.17
-0.16
-0.14
-0.115
-0.105
-0.1
-0.085
-0.095
-0.125
-0.15
-0.165
-0.16
-0.145
-0.1
-0.09
-0.085
-0.08
-0.1
-0.12
-0.14
-0.155
-0.15
-0.125
-0.1
-0.07
-0.07
-0.07
-0.095
-0.12
-0.12
-0.135
-0.135
-0.13
-0.09
-0.075
-0.06
-0.07
-0.07
-0.115
-0.135
-0.145
-0.145
-0.12
-0.09
-0.07
-0.055
-0.065
-0.095
-0.115
-0.135
-0.145
-0.12
-0.11
-0.085
-0.065
-0.06
-0.065
-0.09
-0.11
-0.13
-0.14
-0.13
-0.11
-0.09
-0.08
-0.075
-0.07
-0.08
-0.12
-0.145
-0.155
-0.14
-0.11
-0.08
-0.08
-0.07
-0.065
-0.085
-0.13
-0.155
-0.15
-0.135
-0.115
-0.08
-0.085
-0.08
-0.085
-0.105
-0.13
-0.14
-0.145
-0.13
-0.12
-0.085
-0.075
-0.075
-0.08
-0.095
-0.12
-0.14
-0.135
-0.12
-0.1
-0.06
-0.045
-0.04
-0.03
-0.045
-0.075
-0.09
-0.085
-0.06
-0.04
-0.02
-0.005
-0.02
-0.035
-0.04
-0.065
-0.08
-0.065
-0.07
-0.035
0.005
0.02
0.02
0.0
-0.035
-0.065
-0.095
-0.1
-0.085
-0.065
-0.04
-0.03
-0.05
-0.09
-0.115
-0.14
-0.165
-0.15
-0.14
-0.11
-0.08
-0.075
-0.08
-0.09
-0.125
-0.145
-0.16
-0.15
-0.14
-0.11
-0.085
-0.085
-0.08
-0.095
-0.13
-0.145
-0.155
-0.14
-0.13
-0.11
-0.09
-0.09
-0.09
-0.09
-0.13
-0.135
-0.155
-0.15
-0.125
-0.11
-0.09
-0.085
-0.08
-0.085
-0.135
-0.17
-0.17
-0.165
-0.13
-0.075
-0.025
0.05
0.125
0.21
0.27
0.33
0.42
0.485
0.535
0.6
0.635
0.605
0.515
0.405
0.305
0.2
0.07
-0.05
-0.095
-0.095
-0.11
-0.12
-0.135
-0.14
-0.155
-0.15
-0.135
-0.12
-0.105
-0.075
-0.075
-0.07
-0.07
-0.08
-0.125
-0.155
-0.15
-0.14
-0.125
-0.08
-0.065
-0.05
-0.07
-0.09
-0.125
-0.14
-0.14
-0.135
-0.115
-0.075
-0.065
-0.06
-0.07
-0.08
-0.11
-0.135
-0.135
-0.12
-0.095
-0.065
-0.065
-0.055
-0.07
-0.09
-0.12
-0.135
-0.13
-0.105
-0.105
-0.065
-0.05
-0.05
-0.06
-0.075
-0.105
-0.125
-0.125
-0.105
-0.085
-0.06
-0.045
-0.045
-0.05
-0.075
-0.095
-0.11
-0.11
-0.095
-0.07
-0.04
-0.03
-0.035
-0.04
-0.065
-0.095
-0.105
-0.1
-0.09
-0.04
-0.015
-0.01
0.0
-0.015
-0.04
-0.06
-0.07
-0.055
-0.04
-0.01
0.025
0.03
0.02
0.02
-0.005
-0.02
-0.025
-0.01
0.005
0.05
0.07
0.07
0.08
0.075
0.04
0.03
0.015
0.02
0.05
0.08
0.095
0.1
0.105
0.09
0.055
0.03
0.02
0.03
0.04
0.075
0.085
0.085
0.085
0.065
0.02
-0.01
-0.025
-0.02
-0.015
0.0
0.0
0.01
0.0
-0.035
-0.08
-0.105
-0.115
-0.11
-0.085
-0.06
-0.065
-0.055
-0.08
-0.085
-0.125
-0.14
-0.15
-0.14
-0.13
-0.095
-0.09
-0.08
-0.085
-0.11
-0.15
-0.175
-0.165
-0.155
-0.135
-0.105
-0.095
-0.085
-0.1
-0.115
-0.155
-0.175
-0.18
-0.165
-0.15
-0.11
-0.11
-0.09
-0.115
-0.13
-0.16
-0.185
-0.185
-0.17
-0.15
-0.13
-0.12
-0.115
-0.115
-0.145
-0.175
-0.19
-0.175
-0.16
-0.15
-0.115
-0.105
-0.1
-0.12
-0.135
-0.15
-0.17
-0.175
-0.165
-0.125
-0.105
-0.095
-0.09
-0.1
-0.115
-0.14
-0.16
-0.16
-0.14
-0.12
-0.095
-0.08
-0.07
-0.09
-0.105
-0.135
-0.145
-0.145
-0.13
-0.11
-0.085
-0.075
-0.06
-0.075
-0.105
-0.135
-0.155
-0.145
-0.13
-0.095
-0.075
-0.075
-0.065
-0.08
-0.105
-0.125
-0.145
-0.14
-0.125
-0.095
-0.08
-0.07
-0.065
-0.07
-0.115
-0.14
-0.155
-0.15
-0.14
-0.1
-0.08
-0.075
-0.075
-0.085
-0.12
-0.14
-0.15
-0.145
-0.125
-0.095
-0.085
-0.075
-0.07
-0.085
-0.125
-0.15
-0.15
-0.14
-0.125
-0.1
-0.09
-0.075
-0.075
-0.1
-0.125
-0.14
-0.155
-0.145
-0.12
-0.09
-0.09
-0.08
-0.075
-0.095
-0.12
-0.135
-0.15
-0.135
-0.13
-0.09
-0.085
-0.07
-0.075
-0.105
-0.135
-0.15
-0.15
-0.145
-0.115
-0.07
-0.07
-0.055
-0.055
-0.07
-0.095
-0.11
-0.105
-0.08
-0.055
-0.025
-0.01
-0.005
-0.015
-0.03
-0.075
-0.1
-0.11
-0.085
-0.06
-0.015
-0.005
0.005
0.0
-0.005
-0.04
-0.075
-0.09
-0.085
-0.065
-0.04
-0.04
-0.035
-0.045
-0.07
-0.105
-0.14
-0.155
-0.15
-0.125
-0.09
-0.08
-0.085
-0.09
-0.11
-0.145
-0.17
-0.17
-0.145
-0.125
-0.1
-0.09
-0.085
-0.105
-0.12
-0.145
-0.165
-0.165
-0.15
-0.115
-0.095
-0.085
-0.095
-0.105
-0.12
-0.145
-0.17
-0.16
-0.145
-0.12
-0.095
-0.09
-0.085
-0.095
-0.125
-0.16
-0.18
-0.175
-0.175
-0.155
-0.13
-0.105
-0.085
-0.065
-0.055
0.0
0.07
0.165
0.29
0.41
0.51
0.585
0.615
0.645
0.625
0.565
0.47
0.385
0.32
0.275
0.17
0.035
-0.025
-0.065
-0.125
-0.165
-0.17
-0.14
-0.12
-0.095
-0.075
-0.075
-0.08
-0.09
-0.125
-0.145
-0.16
-0.155
-0.135
-0.095
-0.09
-0.07
-0.075
-0.1
-0.135
-0.15
-0.16
-0.145
-0.115
-0.09
-0.08
-0.07
-0.065
-0.085
-0.12
-0.135
-0.135
-0.135
-0.12
-0.09
-0.08
-0.06
-0.06
-0.075
-0.11
-0.13
-0.13
-0.125
-0.115
-0.075
-0.06
-0.06
-0.06
-0.08
-0.11
-0.115
-0.13
-0.12
-0.1
-0.065
-0.06
-0.05
-0.05
-0.065
-0.09
-0.12
-0.11
-0.095
-0.085
-0.06
-0.04
-0.035
-0.04
-0.05
-0.085
-0.1
-0.1
-0.09
-0.06
-0.025
-0.015
-0.015
-0.025
-0.035
-0.065
-0.085
-0.07
-0.06
-0.035
-0.015
0.01
0.02
0.0
-0.015
-0.035
-0.045
-0.035
-0.01
0.015
0.03
0.055
0.06
0.045
0.03
0.005
-0.005
0.005
0.035
0.06
0.085
0.105
0.115
0.095
0.075
0.045
0.02
0.025
0.05
0.075
0.095
0.105
0.115
0.09
0.055
0.03
0.005
0.015
0.04
0.065
0.06
0.06
0.05
0.035
-0.005
-0.03
-0.055
-0.06
-0.04
-0.01
-0.005
0.0
-0.005
-0.02
-0.065
-0.085
-0.1
-0.105
-0.095
-0.055
-0.035
-0.03
-0.04
-0.055
-0.085
-0.11
-0.115
-0.11
-0.085
-0.065
-0.065
-0.055
-0.045
-0.06
-0.08
-0.115
-0.125
-0.11
-0.095
-0.075
-0.065
-0.04
-0.05
-0.06
-0.1
-0.12
-0.125
-0.115
-0.1
-0.065
-0.06
-0.045
-0.05
-0.07
-0.105
-0.125
-0.13
-0.125
-0.11
-0.08
-0.065
-0.06
-0.065
-0.075
-0.11
-0.13
-0.13
-0.11
-0.1
-0.075
-0.055
-0.05
-0.06
-0.075
-0.11
-0.125
-0.13
-0.115
-0.1
-0.065
-0.06
-0.05
-0.06
-0.06
-0.095
-0.125
-0.125
-0.115
-0.09
-0.05
-0.04
-0.035
-0.05
-0.06
-0.09
-0.125
-0.12
-0.1
-0.08
-0.05
-0.04
-0.035
-0.045
-0.065
-0.09
-0.105
-0.11
-0.095
-0.07
-0.04
-0.03
-0.02
-0.03
-0.06
-0.085
-0.115
-0.11
-0.09
-0.065
-0.04
-0.03
-0.02
-0.03
-0.065
-0.1
-0.115
-0.095
-0.075
-0.055
-0.04
-0.025
-0.03
-0.04
-0.065
-0.1
-0.115
-0.105
-0.085
-0.065
-0.045
-0.035
-0.035
-0.045
-0.06
-0.1
-0.11
-0.11
-0.085
-0.055
-0.04
-0.035
-0.03
-0.04
-0.075
-0.09
-0.11
-0.11
-0.09
-0.055
-0.045
-0.035
-0.03
-0.055
-0.085
-0.115
-0.115
-0.1
-0.085
-0.055
-0.045
-0.04
-0.03
-0.055
-0.09
-0.105
-0.11
-0.115
-0.09
-0.06
-0.04
-0.035
-0.04
-0.055
-0.095
-0.11
-0.105
-0.11
-0.085
-0.065
-0.045
-0.035
-0.035
-0.05
-0.085
-0.105
-0.105
-0.095
-0.075
-0.04
-0.02
-0.005
-0.015
-0.02
-0.04
-0.045
-0.055
-0.03
-0.005
0.01
0.015
0.03
0.02
0.01
-0.02
-0.055
-0.055
-0.035
-0.015
0.025
0.04
0.055
0.05
0.03
-0.015
-0.04
-0.05
-0.035
-0.035
-0.01
0.01
0.005
0.005
-0.005
-0.055
-0.11
-0.11
-0.1
-0.08
-0.055
-0.04
-0.045
-0.05
-0.065
-0.1
-0.12
-0.13
-0.105
-0.08
-0.05
-0.05
-0.045
-0.07
-0.08
-0.11
-0.115
-0.125
-0.11
-0.08
-0.05
-0.035
-0.04
-0.06
-0.08
-0.105
-0.12
-0.125
-0.105
-0.085
-0.055
-0.055
-0.045
-0.05
-0.075
-0.1
-0.125
-0.145
-0.13
-0.095
-0.075
-0.035
0.01
0.025
0.07
0.13
0.21
0.31
0.43
0.54
0.635
0.685
0.73
0.735
0.68
0.585
0.47
0.4
0.31
0.235
0.105
0.045
0.005
-0.035
-0.075
-0.085
-0.095
-0.095
-0.085
-0.055
-0.05
-0.035
-0.045
-0.055
-0.09
-0.11
-0.12
-0.125
-0.1
-0.055
-0.045
-0.05
-0.04
-0.055
-0.095
-0.115
-0.12
-0.11
-0.09
-0.065
-0.045
-0.045
-0.045
-0.055
-0.09
-0.105
-0.11
-0.1
-0.085
-0.065
-0.05
-0.035
-0.035
-0.04
-0.08
-0.1
-0.105
-0.095
-0.08
-0.045
-0.03
-0.015
-0.025
-0.045
-0.075
-0.09
-0.095
-0.105
-0.075
-0.04
-0.015
-0.015
-0.03
-0.04
-0.075
-0.095
-0.09
-0.08
-0.06
-0.025
-0.015
-0.01
-0.02
-0.025
-0.065
-0.075
-0.08
-0.07
-0.05
-0.025
-0.005
0.015
0.005
-0.015
-0.045
-0.07
-0.055
-0.03
-0.025
0.01
0.025
0.035
0.025
0.01
-0.005
-0.03
-0.025
-0.005
0.02
0.06
0.075
0.085
0.085
0.06
0.035
0.015
0.02
0.055
0.075
0.095
0.115
0.125
0.105
0.085
0.06
0.05
0.055
0.07
0.08
0.11
0.13
0.13
0.1
0.075
0.055
0.03
0.035
0.05
0.07
0.075
0.085
0.075
0.045
0.015
-0.015
-0.04
-0.035
-0.025
-0.005
0.02
0.015
0.005
-0.01
-0.045
-0.08
-0.085
-0.08
-0.065
-0.045
-0.02
-0.01
-0.015
-0.04
-0.08
-0.095
-0.105
-0.1
-0.09
-0.05
-0.035
-0.025
-0.025
-0.05
-0.1
-0.115
-0.105
-0.095
-0.07
-0.05
-0.04
-0.025
-0.035
-0.05
-0.085
-0.095
-0.1
-0.095
-0.085
-0.055
-0.045
-0.035
-0.04
-0.05
-0.095
-0.115
-0.11
-0.11
-0.085
-0.055
-0.045
-0.035
-0.04
-0.05
-0.09
-0.115
-0.13
-0.11
-0.09
-0.065
-0.055
-0.04
-0.05
-0.065
-0.1
-0.115
-0.13
-0.11
-0.105
-0.065
-0.045
-0.035
-0.06
-0.065
-0.1
-0.115
-0.12
-0.105
-0.08
-0.06
-0.05
-0.04
-0.045
-0.06
-0.09
-0.12
-0.115
-0.095
-0.075
-0.05
-0.035
-0.03
-0.045
-0.06
-0.085
-0.105
-0.1
-0.09
-0.065
-0.045
-0.03
-0.02
-0.04
-0.065
-0.09
-0.105
-0.095
-0.09
-0.07
-0.055
-0.035
-0.02
-0.03
-0.055
-0.085
-0.11
-0.105
-0.09
-0.065
-0.04
-0.025
-0.02
-0.035
-0.065
-0.095
-0.105
-0.1
-0.085
-0.065
-0.035
-0.035
-0.025
-0.045
-0.07
-0.1
-0.11
-0.105
-0.095
-0.06
-0.035
-0.03
-0.03
-0.045
-0.075
-0.095
-0.105
-0.11
-0.085
-0.06
-0.055
-0.06
-0.025
-0.025
-0.07
-0.09
-0.105
-0.115
-0.1
-0.055
-0.045
-0.03
-0.03
-0.045
-0.085
-0.1
-0.11
-0.105
-0.085
-0.05
-0.045
-0.025
-0.035
-0.045
-0.085
-0.11
-0.11
-0.11
-0.085
-0.06
-0.055
-0.035
-0.035
-0.055
-0.09
-0.11
-0.115
-0.105
-0.075
-0.05
-0.06
-0.035
-0.03
-0.05
-0.085
-0.135
-0.125
-0.1
-0.08
-0.06
-0.05
-0.04
-0.035
-0.05
-0.08
-0.095
-0.1
-0.095
-0.065
-0.025
-0.01
0.005
0.005
-0.01
-0.03
-0.05
-0.04
-0.03
-0.015
0.0
0.01
0.015
0.015
0.0
-0.04
-0.055
-0.045
-0.02
0.0
0.03
0.035
0.04
0.02
0.005
-0.045
-0.065
-0.07
-0.06
-0.055
-0.015
-0.005
-0.005
-0.04
-0.07
-0.11
-0.135
-0.13
-0.115
-0.1
-0.07
-0.055
-0.045
-0.06
-0.085
-0.115
-0.135
-0.13
-0.115
-0.09
-0.07
-0.06
-0.05
-0.07
-0.09
-0.125
-0.145
-0.135
-0.115
-0.095
-0.07
-0.065
-0.065
-0.07
-0.1
-0.12
-0.14
-0.135
-0.115
-0.08
-0.07
-0.065
-0.05
-0.07
-0.125
-0.155
-0.17
-0.17
-0.135
-0.08
-0.035
0.0
0.07
0.13
0.195
0.28
0.37
0.46
0.56
0.64
0.715
0.75
0.73
0.62
0.485
0.38
0.265
0.17
0.045
0.01
-0.01
-0.035
-0.05
-0.075
-0.09
-0.1
-0.11
-0.13
-0.11
-0.085
-0.07
-0.065
-0.07
-0.08
-0.12
-0.14
-0.14
-0.14
-0.115
-0.09
-0.07
-0.065
-0.07
-0.08
-0.13
-0.135
-0.14
-0.12
-0.1
-0.07
-0.065
-0.055
-0.055
-0.07
-0.115
-0.135
-0.13
-0.12
-0.1
-0.07
-0.055
-0.05
-0.07
-0.075
-0.105
-0.125
-0.125
-0.12
-0.105
-0.065
-0.055
-0.05
-0.05
-0.065
-0.105
-0.115
-0.12
-0.11
-0.105
-0.06
-0.035
-0.03
-0.03
-0.055
-0.095
-0.11
-0.105
-0.095
-0.075
-0.05
-0.03
-0.025
-0.025
-0.05
-0.075
-0.105
-0.095
-0.08
-0.045
-0.025
-0.02
0.005
0.0
-0.035
-0.07
-0.075
-0.07
-0.045
-0.02
0.005
0.015
0.015
0.02
0.005
-0.02
-0.035
-0.03
-0.01
0.01
0.05
0.065
0.075
0.06
0.04
0.03
0.02
0.03
0.03
0.06
0.09
0.105
0.1
0.08
0.065
0.04
0.03
0.035
0.05
0.075
0.095
0.115
0.105
0.085
0.04
0.02
0.0
0.0
0.005
0.025
0.055
0.06
0.045
0.03
-0.01
-0.04
-0.06
-0.065
-0.06
-0.03
-0.03
-0.005
-0.015
-0.035
-0.07
-0.085
-0.11
-0.105
-0.085
-0.055
-0.055
-0.035
-0.045
-0.06
-0.095
-0.115
-0.125
-0.125
-0.105
-0.08
-0.07
-0.06
-0.055
-0.075
-0.1
-0.12
-0.145
-0.125
-0.1
-0.075
-0.07
-0.05
-0.055
-0.07
-0.115
-0.13
-0.13
-0.12
-0.11
-0.075
-0.065
-0.06
-0.065
-0.09
-0.125
-0.14
-0.145
-0.13
-0.11
-0.09
-0.07
-0.065
-0.065
-0.085
-0.115
-0.135
-0.145
-0.13
-0.095
-0.08
-0.07
-0.065
-0.075
-0.085
-0.125
-0.145
-0.135
-0.12
-0.105
-0.085
-0.065
-0.07
-0.075
-0.075
-0.115
-0.135
-0.125
-0.115
-0.105
-0.065
-0.07
-0.055
-0.065
-0.075
-0.1
-0.13
-0.135
-0.115
-0.09
-0.055
-0.035
-0.035
-0.065
-0.08
-0.11
-0.125
-0.12
-0.1
-0.08
-0.06
-0.045
-0.035
-0.045
-0.075
-0.115
-0.125
-0.125
-0.1
-0.075
-0.055
-0.04
-0.05
-0.055
-0.08
-0.095
-0.14
-0.115
-0.1
-0.08
-0.07
-0.045
-0.05
-0.05
-0.11
-0.115
-0.12
-0.115
-0.105
-0.065
-0.055
-0.05
-0.035
-0.065
-0.085
-0.12
-0.12
-0.115
-0.095
-0.085
-0.06
-0.05
-0.05
-0.06
-0.1
-0.11
-0.125
-0.12
-0.1
-0.08
-0.05
-0.045
-0.055
-0.07
-0.09
-0.125
-0.13
-0.12
-0.1
-0.065
-0.055
-0.045
-0.05
-0.08
-0.1
-0.115
-0.115
-0.11
-0.1
-0.08
-0.065
-0.055
-0.05
-0.05
-0.095
-0.11
-0.135
-0.12
-0.09
-0.075
-0.055
-0.05
-0.05
-0.06
-0.1
-0.125
-0.145
-0.115
-0.085
-0.06
-0.045
-0.04
-0.04
-0.05
-0.06
-0.085
-0.09
-0.055
-0.025
-0.005
0.005
0.02
0.015
-0.01
-0.05
-0.065
-0.05
-0.04
-0.025
0.005
0.01
0.025
0.015
0.01
-0.015
-0.045
-0.055
-0.04
-0.02
-0.015
0.0
0.0
-0.01
-0.035
-0.07
-0.085
-0.105
-0.11
-0.1
-0.07
-0.055
-0.06
-0.06
-0.08
-0.135
-0.135
-0.135
-0.11
-0.105
-0.08
-0.065
-0.055
-0.065
-0.085
-0.125
-0.145
-0.135
-0.12
-0.09
-0.075
-0.06
-0.065
-0.075
-0.085
-0.12
-0.135
-0.145
-0.125
-0.1
-0.075
-0.06
-0.07
-0.075
-0.105
-0.125
-0.135
-0.14
-0.12
-0.1
-0.105
-0.09
-0.085
-0.08
-0.085
-0.085
-0.055
0.025
0.13
0.24
0.345
0.455
0.54
0.565
0.575
0.585
0.57
0.51
0.435
0.4
0.34
0.26
0.125
0.0
-0.08
-0.12
-0.16
-0.185
-0.17
-0.1
-0.08
-0.04
-0.05
-0.075
-0.105
-0.12
-0.13
-0.125
-0.1
-0.075
-0.075
-0.065
-0.06
-0.08
-0.115
-0.135
-0.13
-0.11
-0.1
-0.075
-0.06
-0.05
-0.06
-0.07
-0.105
-0.13
-0.13
-0.115
-0.115
-0.075
-0.05
-0.035
-0.04
-0.06
-0.105
-0.125
-0.125
-0.11
-0.075
-0.06
-0.04
-0.03
-0.045
-0.045
-0.08
-0.115
-0.115
-0.095
-0.075
-0.045
-0.035
-0.03
-0.035
-0.055
-0.085
-0.11
-0.115
-0.09
-0.075
-0.045
-0.025
-0.015
-0.035
-0.045
-0.075
-0.085
-0.095
-0.08
-0.06
-0.025
-0.005
-0.01
-0.015
-0.035
-0.055
-0.07
-0.075
-0.06
-0.035
0.0
0.01
0.025
0.025
-0.005
-0.04
-0.045
-0.03
-0.005
0.01
0.05
0.06
0.065
0.055
0.05
0.025
0.0
0.02
0.04
0.065
0.09
0.1
0.115
0.1
0.075
0.05
0.04
0.045
0.06
0.085
0.1
0.12
0.125
0.115
0.08
0.06
0.025
0.03
0.05
0.075
0.08
0.08
0.08
0.06
0.025
-0.01
-0.025
-0.035
-0.02
0.005
0.01
0.01
0.0
-0.02
-0.05
-0.075
-0.1
-0.095
-0.085
-0.05
-0.035
-0.03
-0.025
-0.06
-0.09
-0.11
-0.125
-0.115
-0.1
-0.075
-0.06
-0.05
-0.05
-0.065
-0.1
-0.125
-0.135
-0.125
-0.1
-0.07
-0.065
-0.045
-0.065
-0.085
-0.12
-0.14
-0.13
-0.125
-0.115
-0.085
-0.075
-0.065
-0.075
-0.085
-0.12
-0.15
-0.16
-0.145
-0.11
-0.085
-0.075
-0.055
-0.065
-0.08
-0.115
-0.13
-0.14
-0.13
-0.125
-0.085
-0.07
-0.05
-0.065
-0.08
-0.11
-0.125
-0.13
-0.11
-0.1
-0.055
-0.035
-0.03
-0.055
-0.065
-0.095
-0.12
-0.11
-0.1
-0.085
-0.06
-0.05
-0.03
-0.045
-0.045
-0.095
-0.11
-0.11
-0.095
-0.075
-0.035
-0.03
-0.025
-0.03
-0.055
-0.085
-0.105
-0.11
-0.1
-0.07
-0.045
-0.035
-0.03
-0.045
-0.065
-0.09
-0.105
-0.1
-0.09
-0.065
-0.04
-0.03
-0.03
-0.05
-0.07
-0.1
-0.125
-0.105
-0.09
-0.055
-0.05
-0.045
-0.04
-0.04
-0.07
-0.095
-0.125
-0.115
-0.095
-0.075
-0.055
-0.04
-0.03
-0.05
-0.085
-0.1
-0.11
-0.11
-0.09
-0.065
-0.04
-0.03
-0.03
-0.05
-0.09
-0.105
-0.115
-0.115
-0.09
-0.065
-0.055
-0.04
-0.03
-0.055
-0.09
-0.1
-0.115
-0.105
-0.095
-0.07
-0.05
-0.03
-0.035
-0.05
-0.1
-0.105
-0.12
-0.11
-0.095
-0.06
-0.045
-0.03
-0.035
-0.05
-0.09
-0.115
-0.115
-0.105
-0.09
-0.06
-0.05
-0.03
-0.035
-0.055
-0.085
-0.095
-0.1
-0.085
-0.065
-0.03
-0.015
0.005
-0.01
0.0
-0.02
-0.04
-0.045
-0.025
-0.015
0.005
0.01
0.02
0.015
0.005
-0.035
-0.05
-0.05
-0.035
-0.005
0.03
0.05
0.05
0.02
0.015
-0.025
-0.065
-0.06
-0.055
-0.03
0.0
0.005
0.01
-0.005
-0.045
-0.1
-0.125
-0.12
-0.11
-0.085
-0.055
-0.045
-0.045
-0.055
-0.07
-0.1
-0.11
-0.12
-0.11
-0.09
-0.06
-0.055
-0.04
-0.05
-0.075
-0.105
-0.125
-0.125
-0.1
-0.09
-0.06
-0.045
-0.04
-0.055
-0.075
-0.105
-0.13
-0.12
-0.105
-0.085
-0.055
-0.035
-0.045
-0.055
-0.09
-0.13
-0.155
-0.155
-0.13
-0.085
-0.015
0.015
0.085
0.155
0.205
0.285
0.355
0.455
0.54
0.595
0.65
0.705
0.685
0.595
0.465
0.375
0.27
0.175
0.05
0.005
-0.01
-0.03
-0.05
-0.07
-0.085
-0.085
-0.1
-0.1
-0.09
-0.055
-0.045
-0.04
-0.035
-0.05
-0.09
-0.095
-0.11
-0.11
-0.1
-0.08
-0.06
-0.04
-0.035
-0.06
-0.1
-0.115
-0.115
-0.105
-0.085
-0.07
-0.05
-0.035
-0.045
-0.065
-0.095
-0.105
-0.115
-0.115
-0.095
-0.045
-0.025
-0.03
-0.03
-0.045
-0.085
-0.105
-0.105
-0.09
-0.075
-0.035
-0.035
-0.02
-0.02
-0.045
-0.065
-0.09
-0.105
-0.08
-0.065
-0.035
-0.025
0.0
-0.015
-0.03
-0.07
-0.085
-0.085
-0.07
-0.05
-0.025
-0.005
0.005
-0.015
-0.02
-0.06
-0.08
-0.075
-0.05
-0.035
-0.005
0.01
0.02
0.015
-0.005
-0.035
-0.06
-0.045
-0.025
0.0
0.015
0.035
0.045
0.045
0.025
0.0
-0.015
-0.01
0.02
0.04
0.07
0.095
0.095
0.08
0.075
0.04
0.035
0.045
0.06
0.075
0.115
0.125
0.135
0.12
0.1
0.065
0.05
0.055
0.075
0.09
0.11
0.125
0.12
0.11
0.08
0.05
0.025
0.03
0.04
0.055
0.07
0.075
0.065
0.03
0.005
-0.015
-0.035
-0.035
-0.03
-0.005
0.015
0.01
0.01
-0.015
-0.045
-0.07
-0.09
-0.095
-0.06
-0.04
-0.025
-0.015
-0.01
-0.025
-0.055
-0.085
-0.1
-0.095
-0.08
-0.05
-0.025
-0.02
-0.025
-0.045
-0.07
-0.095
-0.115
-0.095
-0.075
-0.045
-0.04
-0.025
-0.03
-0.045
-0.08
-0.1
-0.11
-0.095
-0.08
-0.05
-0.04
-0.03
-0.04
-0.055
-0.09
-0.115
-0.115
-0.1
-0.085
-0.055
-0.045
-0.035
-0.035
-0.065
-0.09
-0.115
-0.115
-0.1
-0.09
-0.06
-0.04
-0.035
-0.045
-0.05
-0.08
-0.12
-0.11
-0.085
-0.07
-0.05
-0.035
-0.035
-0.03
-0.05
-0.08
-0.095
-0.1
-0.09
-0.075
-0.035
-0.025
-0.015
-0.025
-0.045
-0.075
-0.085
-0.095
-0.085
-0.06
-0.03
-0.01
-0.015
-0.025
-0.035
-0.065
-0.09
-0.09
-0.075
-0.055
-0.02
-0.015
0.0
-0.015
-0.045
-0.065
-0.085
-0.095
-0.08
-0.055
-0.02
-0.01
0.0
-0.02
-0.045
-0.075
-0.09
-0.09
-0.06
-0.045
-0.015
-0.01
-0.015
-0.03
-0.055
-0.075
-0.09
-0.085
-0.07
-0.05
-0.025
-0.02
-0.01
-0.025
-0.055
-0.085
-0.09
-0.085
-0.065
-0.045
-0.025
-0.01
-0.02
-0.03
-0.06
-0.075
-0.095
-0.085
-0.07
-0.045
-0.02
-0.01
-0.02
-0.035
-0.06
-0.07
-0.085
-0.08
-0.065
-0.035
-0.01
-0.005
-0.015
-0.03
-0.07
-0.075
-0.09
-0.085
-0.07
-0.035
-0.02
-0.01
-0.01
-0.025
-0.06
-0.07
-0.085
-0.08
-0.055
-0.025
-0.02
-0.01
-0.015
-0.03
-0.07
-0.09
-0.09
-0.075
-0.06
-0.03
-0.025
-0.01
-0.02
-0.03
-0.055
-0.075
-0.09
-0.08
-0.05
-0.02
-0.005
0.015
0.01
0.005
-0.03
-0.045
-0.03
-0.01
0.015
0.05
0.06
0.065
0.055
0.04
0.0
-0.02
-0.025
-0.01
0.015
0.045
0.06
0.07
0.06
0.06
0.025
-0.005
-0.01
-0.005
0.01
0.035
0.05
0.05
0.035
0.015
-0.015
-0.045
-0.065
-0.075
-0.07
-0.03
-0.02
-0.025
-0.03
-0.04
-0.08
-0.1
-0.09
-0.075
-0.06
-0.035
-0.02
-0.02
-0.03
-0.055
-0.08
-0.1
-0.1
-0.08
-0.06
-0.035
-0.035
-0.04
-0.03
-0.05
-0.075
-0.105
-0.1
-0.08
-0.055
-0.035
-0.025
-0.015
-0.035
-0.065
-0.085
-0.1
-0.115
-0.11
-0.08
-0.055
-0.03
-0.01
0.0
-0.01
0.055
0.125
0.23
0.34
0.455
0.555
0.63
0.685
0.71
0.7
0.65
0.555
0.46
0.39
0.345
0.26
0.125
0.05
0.0
-0.045
-0.08
-0.095
-0.08
-0.065
-0.045
-0.035
-0.025
-0.035
-0.035
-0.07
-0.085
-0.105
-0.11
-0.08
-0.045
-0.04
-0.035
-0.025
-0.035
-0.07
-0.09
-0.11
-0.1
-0.075
-0.04
-0.035
-0.03
-0.035
-0.05
-0.07
-0.085
-0.085
-0.09
-0.065
-0.045
-0.03
-0.02
-0.03
-0.035
-0.07
-0.095
-0.095
-0.08
-0.065
-0.045
-0.03
-0.005
-0.015
-0.03
-0.07
-0.085
-0.085
-0.085
-0.06
-0.03
-0.02
-0.005
-0.015
-0.045
-0.065
-0.085
-0.08
-0.06
-0.045
-0.025
-0.01
-0.005
-0.02
-0.02
-0.05
-0.07
-0.08
-0.06
-0.03
0.0
0.015
0.015
0.005
0.0
-0.04
-0.055
-0.05
-0.025
-0.005
0.03
0.04
0.055
0.04
0.02
-0.005
-0.02
-0.02
0.01
0.03
0.06
0.085
0.09
0.08
0.07
0.04
0.025
0.04
0.05
0.075
0.1
0.105
0.13
0.125
0.095
0.07
0.055
0.055
0.075
0.105
0.125
0.135
0.125
0.12
0.085
0.065
0.045
0.055
0.06
0.08
0.095
0.105
0.1
0.07
0.035
0.02
-0.005
-0.01
-0.005
0.025
0.035
0.04
0.03
0.02
-0.02
-0.035
-0.065
-0.06
-0.045
-0.025
-0.01
0.01
0.0
-0.02
-0.055
-0.085
-0.1
-0.09
-0.055
-0.035
-0.025
-0.015
-0.015
-0.03
-0.06
-0.08
-0.09
-0.08
-0.065
-0.03
-0.025
-0.01
-0.02
-0.045
-0.075
-0.085
-0.095
-0.085
-0.065
-0.035
-0.035
-0.04
-0.035
-0.045
-0.075
-0.095
-0.095
-0.09
-0.08
-0.06
-0.04
-0.035
-0.025
-0.035
-0.065
-0.095
-0.105
-0.085
-0.065
-0.04
-0.015
-0.005
-0.015
-0.035
-0.065
-0.09
-0.085
-0.075
-0.055
-0.025
-0.015
-0.01
-0.01
-0.025
-0.065
-0.08
-0.085
-0.045
-0.035
-0.005
0.005
0.015
0.01
-0.01
-0.05
-0.065
-0.06
-0.045
-0.025
0.0
0.01
0.01
0.005
-0.01
-0.035
-0.06
-0.06
-0.04
-0.02
0.01
0.02
0.005
0.005
-0.01
-0.04
-0.065
-0.05
-0.035
-0.015
0.005
0.02
0.02
0.01
-0.015
-0.04
-0.065
-0.06
-0.045
-0.025
0.0
0.01
0.02
0.005
-0.02
-0.05
-0.065
-0.065
-0.05
-0.025
0.0
0.0
0.005
0.0
-0.03
-0.055
-0.075
-0.07
-0.04
-0.02
-0.005
0.015
0.02
-0.01
-0.03
-0.055
-0.075
-0.07
-0.05
-0.015
0.005
0.005
0.01
0.0
-0.035
-0.055
-0.07
-0.065
-0.06
-0.015
0.0
0.015
0.015
-0.005
-0.045
-0.06
-0.065
-0.065
-0.055
-0.015
0.0
0.01
0.0
-0.01
-0.05
-0.065
-0.07
-0.07
-0.055
-0.015
0.005
0.01
0.005
-0.005
-0.055
-0.085
-0.08
-0.06
-0.04
-0.01
-0.01
0.0
-0.005
-0.01
-0.035
-0.065
-0.075
-0.06
-0.035
-0.01
0.0
0.01
0.01
0.0
-0.03
-0.055
-0.06
-0.045
-0.015
0.03
0.04
0.055
0.055
0.05
0.03
0.0
0.005
0.015
0.025
0.045
0.06
0.07
0.065
0.045
0.015
-0.005
0.015
0.025
0.04
0.085
0.085
0.09
0.075
0.045
0.01
-0.02
-0.02
0.005
0.02
0.05
0.045
0.035
0.01
-0.025
-0.06
-0.08
-0.08
-0.065
-0.045
-0.01
-0.005
0.0
0.0
-0.025
-0.07
-0.085
-0.09
-0.055
-0.045
-0.025
-0.025
-0.01
-0.015
-0.04
-0.07
-0.09
-0.075
-0.07
-0.04
-0.015
0.0
-0.005
-0.025
-0.05
-0.06
-0.075
-0.075
-0.06
-0.025
-0.02
-0.005
-0.015
-0.04
-0.075
-0.085
-0.105
-0.075
-0.03
0.02
0.1
0.19
0.285
0.385
0.45
0.52
0.595
0.63
0.68
0.755
0.755
0.68
0.57
0.48
0.35
0.24
0.07
0.01
-0.02
-0.005
-0.005
-0.015
0.005
0.005
-0.04
-0.065
-0.08
-0.08
-0.055
-0.03
-0.01
0.0
-0.01
-0.02
-0.06
-0.08
-0.095
-0.085
-0.05
-0.035
-0.015
0.005
-0.005
-0.02
-0.065
-0.075
-0.07
-0.08
-0.065
-0.02
-0.01
0.005
0.005
-0.015
-0.055
-0.07
-0.085
-0.055
-0.035
-0.015
0.0
0.0
-0.01
-0.015
-0.035
-0.06
-0.075
-0.055
-0.04
-0.01
0.015
0.01
0.0
-0.005
-0.04
-0.035
-0.05
-0.04
-0.03
0.01
0.02
0.02
0.025
0.015
-0.02
-0.05
-0.05
-0.02
-0.01
0.015
0.03
0.045
0.035
0.015
-0.015
-0.03
-0.03
-0.01
0.0
0.035
0.06
0.055
0.04
0.03
0.005
0.005
-0.01
0.015
0.035
0.075
0.09
0.095
0.09
0.07
0.04
0.02
0.04
0.065
0.095
0.125
0.145
0.14
0.14
0.12
0.095
0.075
0.085
0.1
0.14
0.155
0.155
0.16
0.155
0.125
0.105
0.085
0.095
0.115
0.145
0.16
0.155
0.155
0.14
0.1
0.075
0.05
0.06
0.07
0.09
0.105
0.125
0.1
0.075
0.04
0.005
-0.01
-0.01
-0.005
0.02
0.045
0.05
0.035
0.03
-0.015
-0.035
-0.055
-0.05
-0.025
-0.005
0.005
0.02
0.01
-0.005
-0.025
-0.06
-0.065
-0.06
-0.06
-0.015
0.005
0.005
0.02
-0.005
-0.05
-0.055
-0.07
-0.07
-0.055
-0.01
-0.01
0.01
0.01
-0.01
-0.045
-0.07
-0.075
-0.07
-0.045
-0.015
-0.01
0.005
-0.01
-0.01
-0.055
-0.08
-0.08
-0.065
-0.05
-0.02
-0.025
-0.005
-0.015
-0.015
-0.05
-0.07
-0.09
-0.06
-0.05
-0.02
-0.005
0.0
-0.005
-0.03
-0.065
-0.075
-0.08
-0.055
-0.05
0.0
0.01
0.005
-0.01
-0.01
-0.035
-0.055
-0.085
-0.055
-0.025
0.005
0.025
0.01
0.0
-0.005
-0.045
-0.065
-0.06
-0.05
-0.03
0.005
0.015
0.015
0.02
-0.005
-0.04
-0.05
-0.06
-0.03
-0.005
0.015
0.015
0.02
0.015
-0.01
-0.03
-0.045
-0.045
-0.04
-0.015
0.01
0.03
0.025
0.015
-0.015
-0.045
-0.055
-0.045
-0.025
-0.005
0.01
0.025
0.04
0.02
-0.01
-0.055
-0.065
-0.05
-0.035
0.005
0.02
0.025
0.03
0.01
-0.02
-0.025
-0.045
-0.045
-0.035
0.005
0.02
0.03
0.035
0.02
-0.015
-0.045
-0.055
-0.055
-0.025
0.005
0.02
0.02
0.025
0.005
-0.02
-0.045
-0.055
-0.04
-0.015
-0.005
0.01
0.025
0.02
0.01
-0.02
-0.04
-0.06
-0.035
-0.005
0.03
0.035
0.025
0.035
0.03
0.005
-0.005
-0.015
0.01
0.045
0.08
0.105
0.11
0.1
0.08
0.045
0.015
0.005
0.02
0.04
0.085
0.09
0.105
0.11
0.1
0.055
0.045
0.04
0.055
0.055
0.08
0.09
0.09
0.06
0.04
0.02
-0.01
0.0
-0.01
-0.015
0.015
0.025
0.03
0.01
0.0
-0.035
-0.045
-0.05
-0.04
-0.025
0.005
0.02
0.035
0.005
-0.015
-0.035
-0.06
-0.065
-0.05
-0.03
0.01
0.005
0.025
0.01
0.0
-0.055
-0.07
-0.06
-0.035
-0.025
0.01
0.02
0.025
0.005
-0.015
-0.035
-0.06
-0.065
-0.055
-0.035
-0.015
0.0
0.015
0.005
0.01
0.02
0.065
0.13
0.24
0.355
0.46
0.56
0.635
0.665
0.665
0.66
0.625
0.55
0.48
0.43
0.39
0.29
0.14
0.045
-0.03
-0.055
-0.095
-0.1
-0.065
-0.025
0.01
0.02
0.03
0.015
-0.025
-0.035
-0.055
-0.045
-0.03
-0.01
0.0
0.02
0.03
0.015
-0.025
-0.04
-0.045
-0.05
-0.03
0.005
0.025
0.03
0.035
0.015
-0.025
-0.04
-0.045
-0.035
-0.015
0.01
0.015
0.035
0.03
0.025
-0.01
-0.035
-0.035
-0.03
-0.01
0.02
0.04
0.045
0.045
0.04
-0.005
-0.03
-0.04
-0.015
0.005
0.035
0.045
0.05
0.04
0.035
0.005
-0.01
-0.03
-0.005
0.015
0.04
0.06
0.07
0.065
0.04
0.01
-0.005
-0.005
0.01
0.03
0.055
0.07
0.085
0.09
0.06
0.025
0.01
0.01
0.025
0.045
0.09
0.105
0.115
0.11
0.095
0.065
0.035
0.055
0.07
0.095
0.13
0.14
0.15
0.14
0.13
0.095
0.08
0.09
0.125
0.15
0.18
0.19
0.2
0.195
0.17
0.135
0.12
0.13
0.145
0.165
0.195
0.225
0.21
0.2
0.175
0.135
0.125
0.125
0.13
0.14
0.175
0.175
0.17
0.14
0.1
0.08
0.055
0.045
0.055
0.07
0.095
0.09
0.095
0.07
0.03
0.015
-0.01
-0.01
0.0
0.03
0.05
0.05
0.045
0.035
-0.005
-0.025
-0.055
-0.04
-0.025
0.01
0.01
0.01
0.025
0.015
-0.005
-0.03
-0.05
-0.05
-0.03
0.0
0.01
0.01
0.02
0.005
-0.035
-0.04
-0.07
-0.065
-0.05
-0.005
0.01
0.015
0.01
-0.005
-0.045
-0.06
-0.065
-0.055
-0.04
0.0
0.0
0.015
0.01
-0.005
-0.035
-0.05
-0.055
-0.04
-0.035
-0.005
-0.005
0.01
0.025
0.02
-0.02
-0.05
-0.055
-0.05
-0.025
0.025
0.02
0.035
0.035
0.01
-0.015
-0.045
-0.04
-0.035
-0.01
0.015
0.025
0.055
0.045
0.03
-0.015
-0.04
-0.045
-0.025
0.0
0.03
0.03
0.04
0.025
0.02
-0.015
-0.025
-0.045
-0.02
0.0
0.035
0.055
0.045
0.03
0.025
-0.025
-0.05
-0.035
-0.02
-0.005
0.03
0.03
0.04
0.03
0.01
-0.025
-0.035
-0.035
-0.04
-0.01
0.02
0.035
0.035
0.02
0.005
-0.03
-0.05
-0.045
-0.02
-0.005
0.035
0.035
0.02
0.025
0.0
-0.03
-0.04
-0.04
-0.04
-0.005
0.02
0.025
0.01
0.015
-0.01
-0.03
-0.04
-0.04
-0.025
-0.005
0.025
0.035
0.025
0.015
-0.005
-0.025
-0.04
-0.03
-0.025
0.01
0.02
0.035
0.04
0.04
0.0
-0.01
-0.015
-0.015
0.01
0.055
0.075
0.095
0.105
0.075
0.045
0.035
0.025
0.03
0.04
0.07
0.095
0.09
0.1
0.08
0.06
0.04
0.035
0.055
0.065
0.08
0.1
0.115
0.11
0.075
0.035
0.015
0.0
0.015
0.03
0.055
0.02
0.025
0.02
-0.005
-0.035
-0.055
-0.06
-0.04
-0.025
0.01
0.01
0.025
0.015
-0.005
-0.04
-0.05
-0.055
-0.035
-0.03
-0.005
0.0
0.01
0.0
-0.01
-0.04
-0.055
-0.07
-0.06
-0.03
0.01
0.01
0.015
0.015
0.0
-0.04
-0.07
-0.05
-0.035
-0.02
0.0
-0.01
-0.02
-0.025
-0.035
-0.035
-0.02
0.01
0.075
0.185
0.295
0.4
0.495
0.575
0.63
0.625
0.645
0.68
0.685
0.63
0.565
0.495
0.42
0.315
0.145
0.025
-0.03
-0.06
-0.055
-0.025
0.0
0.025
0.03
0.02
0.0
-0.035
-0.06
-0.055
-0.05
-0.02
0.005
0.02
0.015
0.005
-0.01
-0.055
-0.065
-0.06
-0.045
-0.02
0.005
0.01
0.02
0.005
-0.015
-0.045
-0.065
-0.065
-0.045
-0.005
0.0
0.02
0.015
0.015
-0.02
-0.04
-0.055
-0.045
-0.035
-0.01
0.025
0.025
0.03
0.02
-0.02
-0.04
-0.05
-0.045
-0.02
0.015
0.03
0.035
0.03
0.02
-0.01
-0.025
-0.045
-0.03
-0.025
0.01
0.03
0.045
0.045
0.03
-0.005
-0.015
-0.025
-0.02
-0.005
0.04
0.045
0.055
0.055
0.04
0.01
-0.01
-0.02
-0.005
0.025
0.05
0.06
0.075
0.085
0.075
0.045
0.03
0.0
0.01
0.055
0.095
0.105
0.11
0.11
0.105
0.08
0.06
0.05
0.075
0.105
0.14
0.155
0.16
0.165
0.145
0.11
0.1
0.09
0.11
0.13
0.17
0.17
0.185
0.17
0.145
0.115
0.09
0.09
0.105
0.12
0.135
0.145
0.13
0.13
0.115
0.075
0.04
0.04
0.045
0.045
0.065
0.07
0.08
0.055
0.03
-0.015
-0.025
-0.03
-0.025
-0.01
0.015
0.02
0.03
0.015
-0.01
-0.045
-0.06
-0.07
-0.055
-0.035
-0.01
0.005
0.01
-0.005
-0.03
-0.06
-0.085
-0.07
-0.06
-0.025
-0.01
0.0
-0.015
-0.03
-0.065
-0.11
-0.05
-0.06
-0.05
-0.04
-0.02
0.005
-0.01
-0.045
-0.07
-0.05
-0.075
-0.075
-0.06
-0.035
-0.02
-0.01
-0.01
-0.04
-0.085
-0.085
-0.08
-0.085
-0.055
-0.035
-0.025
-0.005
0.0
-0.02
-0.045
-0.08
-0.085
-0.085
-0.065
-0.03
-0.02
-0.01
-0.005
-0.015
-0.05
-0.07
-0.08
-0.075
-0.05
-0.025
-0.005
0.005
0.005
-0.01
-0.05
-0.065
-0.075
-0.065
-0.055
-0.02
0.0
-0.01
-0.005
-0.025
-0.055
-0.06
-0.065
-0.065
-0.04
-0.015
0.0
0.005
-0.015
-0.02
-0.05
-0.075
-0.08
-0.065
-0.045
-0.02
-0.02
-0.005
-0.015
-0.02
-0.05
-0.075
-0.085
-0.07
-0.045
-0.02
-0.01
-0.005
-0.02
-0.03
-0.065
-0.085
-0.085
-0.07
-0.055
-0.035
-0.015
-0.015
-0.025
-0.04
-0.065
-0.08
-0.08
-0.07
-0.05
-0.03
-0.02
-0.015
-0.025
-0.035
-0.06
-0.09
-0.085
-0.07
-0.055
-0.025
-0.03
-0.025
-0.025
-0.035
-0.075
-0.09
-0.095
-0.075
-0.045
-0.025
-0.025
-0.01
-0.025
-0.05
-0.085
-0.095
-0.095
-0.075
-0.065
-0.04
-0.015
-0.015
-0.025
-0.05
-0.075
-0.1
-0.08
-0.07
-0.05
-0.03
-0.02
-0.015
-0.03
-0.05
-0.08
-0.085
-0.06
-0.05
-0.02
0.0
0.005
0.015
0.025
-0.005
-0.01
-0.03
-0.02
-0.005
0.02
0.025
0.03
0.035
0.03
-0.005
-0.015
-0.035
-0.03
-0.015
0.03
0.055
0.07
0.06
0.035
-0.01
-0.02
-0.04
-0.04
-0.03
0.0
0.01
0.02
0.02
-0.02
-0.085
-0.1
-0.11
-0.105
-0.095
-0.065
-0.045
-0.03
-0.04
-0.055
-0.09
-0.1
-0.115
-0.115
-0.1
-0.05
-0.05
-0.035
-0.05
-0.06
-0.09
-0.105
-0.115
-0.105
-0.09
-0.055
-0.05
-0.045
-0.045
-0.055
-0.09
-0.12
-0.115
-0.095
-0.085
-0.06
-0.05
-0.04
-0.06
-0.09
-0.115
-0.13
-0.105
-0.065
-0.015
0.07
0.17
0.265
0.37
0.445
0.49
0.545
0.58
0.65
0.7
0.705
0.635
0.545
0.445
0.35
0.21
0.055
-0.03
-0.055
-0.055
-0.04
-0.035
-0.01
-0.02
-0.05
-0.085
-0.11
-0.115
-0.09
-0.08
-0.04
-0.04
-0.035
-0.045
-0.065
-0.095
-0.11
-0.11
-0.11
-0.085
-0.055
-0.04
-0.045
-0.05
-0.06
-0.085
-0.11
-0.115
-0.085
-0.06
-0.045
-0.03
-0.03
-0.035
-0.065
-0.09
-0.105
-0.105
-0.09
-0.06
-0.025
-0.02
-0.025
-0.04
-0.065
-0.09
-0.1
-0.085
-0.07
-0.05
-0.025
-0.02
-0.015
-0.025
-0.05
-0.07
-0.09
-0.085
-0.065
-0.035
-0.015
-0.01
-0.01
-0.025
-0.06
-0.07
-0.08
-0.075
-0.055
-0.025
-0.005
0.0
0.01
-0.005
-0.04
-0.06
-0.075
-0.07
-0.04
-0.005
0.015
0.03
0.025
-0.005
-0.025
-0.02
-0.035
-0.02
0.0
0.035
0.05
0.06
0.06
0.05
0.015
-0.005
0.005
0.015
0.04
0.08
0.095
0.115
0.105
0.09
0.06
0.045
0.04
0.06
0.08
0.11
0.125
0.14
0.13
0.115
0.075
0.055
0.05
0.055
0.07
0.1
0.115
0.115
0.11
0.1
0.045
0.01
0.005
0.025
0.035
0.06
0.06
0.065
0.05
0.025
0.0
-0.03
-0.045
-0.04
-0.025
0.0
0.005
0.015
-0.005
-0.02
-0.055
-0.08
-0.08
-0.065
-0.05
-0.02
-0.01
-0.01
-0.02
-0.04
-0.07
-0.085
-0.09
-0.07
-0.055
-0.04
-0.025
-0.005
-0.02
-0.045
-0.085
-0.1
-0.09
-0.07
-0.05
-0.03
-0.01
-0.02
-0.03
-0.05
-0.075
-0.105
-0.105
-0.08
-0.05
-0.02
-0.02
-0.02
-0.035
-0.06
-0.085
-0.1
-0.09
-0.08
-0.055
-0.03
-0.025
-0.015
-0.035
-0.07
-0.09
-0.1
-0.1
-0.08
-0.04
-0.02
-0.02
-0.015
-0.02
-0.045
-0.065
-0.085
-0.08
-0.065
-0.03
-0.015
-0.01
-0.005
-0.02
-0.045
-0.07
-0.085
-0.075
-0.06
-0.035
-0.015
0.0
0.0
-0.025
-0.06
-0.075
-0.085
-0.065
-0.04
-0.02
-0.01
0.005
0.01
-0.015
-0.05
-0.065
-0.08
-0.07
-0.045
-0.015
-0.015
0.0
-0.005
-0.01
-0.045
-0.065
-0.075
-0.075
-0.045
-0.025
-0.01
0.0
0.005
-0.015
-0.055
-0.075
-0.095
-0.075
-0.045
-0.02
-0.02
0.005
0.0
-0.015
-0.045
-0.075
-0.075
-0.07
-0.06
-0.015
-0.005
0.0
-0.01
-0.025
-0.07
-0.085
-0.09
-0.075
-0.045
-0.025
0.0
-0.01
-0.015
-0.025
-0.08
-0.1
-0.08
-0.07
-0.06
-0.02
-0.025
-0.025
-0.025
-0.03
-0.06
-0.08
-0.09
-0.075
-0.06
-0.025
-0.015
-0.01
-0.025
-0.045
-0.065
-0.09
-0.09
-0.065
-0.04
-0.015
0.0
-0.015
-0.01
-0.04
-0.055
-0.065
-0.07
-0.05
-0.03
0.005
0.025
0.03
0.03
0.01
0.0
-0.015
0.0
0.01
0.03
0.045
0.06
0.065
0.045
0.03
-0.01
-0.025
-0.015
0.005
0.035
0.055
0.07
0.08
0.07
0.035
0.005
-0.02
-0.02
-0.015
0.01
0.025
0.045
0.045
0.025
-0.035
-0.075
-0.1
-0.095
-0.08
-0.055
-0.025
-0.015
-0.02
-0.03
-0.07
-0.095
-0.1
-0.085
-0.08
-0.05
-0.035
-0.03
-0.025
-0.045
-0.065
-0.095
-0.12
-0.105
-0.085
-0.05
-0.04
-0.025
-0.02
-0.055
-0.085
-0.085
-0.11
-0.1
-0.08
-0.045
-0.045
-0.02
-0.03
-0.055
-0.1
-0.135
-0.135
-0.125
-0.07
-0.005
0.025
0.095
0.175
0.26
0.33
0.41
0.5
0.57
0.62
0.705
0.74
0.72
0.62
0.515
0.4
0.275
0.17
0.05
-0.005
-0.01
-0.02
-0.03
-0.035
-0.045
-0.07
-0.09
-0.1
-0.09
-0.07
-0.045
-0.03
-0.025
-0.04
-0.06
-0.085
-0.11
-0.11
-0.095
-0.08
-0.055
-0.04
-0.035
-0.03
-0.05
-0.08
-0.095
-0.11
-0.1
-0.075
-0.035
-0.02
-0.02
-0.025
-0.04
-0.085
-0.095
-0.08
-0.07
-0.05
-0.04
-0.02
-0.015
-0.02
-0.045
-0.065
-0.095
-0.09
-0.065
-0.04
-0.02
-0.005
-0.005
-0.02
-0.035
-0.07
-0.08
-0.08
-0.06
-0.03
-0.01
0.0
-0.015
-0.03
-0.04
-0.045
-0.06
-0.05
-0.045
-0.01
-0.005
0.015
0.02
0.0
-0.025
-0.045
-0.055
-0.05
-0.025
0.005
0.025
0.03
0.025
0.015
-0.015
-0.03
-0.04
-0.025
-0.01
0.025
0.045
0.06
0.06
0.055
0.03
0.025
0.015
0.015
0.035
0.075
0.09
0.115
0.11
0.11
0.075
0.05
0.045
0.06
0.08
0.115
0.13
0.15
0.14
0.135
0.1
0.08
0.06
0.085
0.1
0.13
0.13
0.145
0.14
0.12
0.085
0.04
0.04
0.05
0.07
0.08
0.07
0.085
0.07
0.05
0.005
-0.025
-0.035
-0.02
0.0
0.02
0.025
0.015
0.015
-0.015
-0.055
-0.07
-0.075
-0.045
-0.04
-0.015
-0.015
-0.005
-0.01
-0.03
-0.07
-0.09
-0.09
-0.085
-0.055
-0.02
-0.015
-0.015
-0.02
-0.035
-0.06
-0.075
-0.085
-0.07
-0.065
-0.02
-0.005
0.0
-0.015
-0.03
-0.07
-0.095
-0.1
-0.075
-0.055
-0.02
-0.005
-0.02
-0.035
-0.05
-0.08
-0.1
-0.09
-0.075
-0.06
-0.035
-0.015
-0.025
-0.03
-0.055
-0.09
-0.11
-0.09
-0.075
-0.055
-0.04
-0.025
-0.015
-0.03
-0.05
-0.07
-0.095
-0.095
-0.07
-0.045
-0.025
-0.015
-0.025
-0.04
-0.055
-0.075
-0.07
-0.07
-0.05
-0.025
-0.025
-0.01
0.005
-0.01
-0.045
-0.055
-0.075
-0.065
-0.045
-0.025
-0.02
-0.02
-0.005
-0.005
-0.045
-0.065
-0.07
-0.07
-0.055
-0.025
-0.01
-0.01
-0.01
-0.015
-0.05
-0.065
-0.075
-0.075
-0.045
-0.015
0.0
0.0
0.005
-0.015
-0.045
-0.07
-0.08
-0.08
-0.06
-0.01
0.0
0.01
0.0
-0.02
-0.055
-0.06
-0.08
-0.065
-0.04
-0.025
-0.015
-0.005
0.005
-0.015
-0.055
-0.085
-0.085
-0.075
-0.05
-0.015
-0.01
-0.01
0.005
-0.025
-0.055
-0.075
-0.08
-0.07
-0.05
-0.01
0.005
0.025
-0.005
-0.01
-0.03
-0.05
-0.04
-0.015
0.015
0.05
0.07
0.065
0.065
0.045
0.0
-0.02
-0.02
0.01
0.025
0.055
0.06
0.075
0.065
0.06
0.025
-0.005
0.015
0.025
0.03
0.06
0.055
0.04
0.03
0.005
-0.025
-0.04
-0.045
-0.07
-0.05
-0.02
-0.015
-0.005
-0.02
-0.035
-0.06
-0.09
-0.085
-0.05
-0.035
-0.02
-0.005
-0.015
-0.03
-0.06
-0.08
-0.1
-0.085
-0.07
-0.05
-0.025
-0.025
-0.025
-0.025
-0.06
-0.075
-0.09
-0.09
-0.065
-0.03
-0.025
-0.025
-0.015
-0.03
-0.06
-0.08
-0.09
-0.085
-0.08
-0.065
-0.06
-0.045
-0.03
-0.035
-0.035
-0.03
0.0
0.075
0.2
0.305
0.42
0.51
0.59
0.61
0.63
0.62
0.605
0.535
0.465
0.425
0.36
0.28
0.13
0.02
-0.05
-0.085
-0.13
-0.14
-0.115
-0.06
-0.035
-0.01
-0.01
-0.025
-0.065
-0.08
-0.09
-0.075
-0.06
-0.03
-0.015
-0.005
-0.015
-0.02
-0.06
-0.095
-0.09
-0.075
-0.055
-0.02
-0.02
-0.005
-0.015
-0.02
-0.06
-0.08
-0.085
-0.065
-0.045
-0.01
0.0
0.015
0.0
-0.015
-0.055
-0.06
-0.06
-0.05
-0.025
0.0
0.015
0.02
0.025
-0.005
-0.03
-0.05
-0.045
-0.035
-0.015
0.02
0.03
0.03
0.015
0.02
-0.02
-0.025
-0.035
-0.02
0.0
0.025
0.045
0.045
0.035
0.025
-0.01
-0.035
-0.03
0.0
0.02
0.045
0.06
0.075
0.065
0.04
0.01
-0.01
0.005
0.025
0.04
0.075
0.09
0.095
0.075
0.065
0.045
0.03
0.04
0.06
0.095
0.115
0.135
0.14
0.145
0.11
0.105
0.085
0.1
0.115
0.155
0.175
0.2
0.2
0.17
0.155
0.14
0.115
0.13
0.15
0.175
0.185
0.205
0.2
0.195
0.16
0.13
0.105
0.125
0.14
0.15
0.16
0.17
0.17
0.14
0.08
0.06
0.045
0.025
0.04
0.065
0.07
0.075
0.065
0.045
0.0
-0.02
-0.03
-0.025
-0.01
0.01
0.02
0.025
0.025
0.0
-0.03
-0.05
-0.06
-0.05
-0.04
0.0
0.005
0.02
0.015
-0.01
-0.055
-0.08
-0.06
-0.055
-0.05
-0.01
0.005
0.01
0.005
-0.02
-0.06
-0.075
-0.08
-0.06
-0.06
-0.02
-0.005
0.0
-0.025
-0.03
-0.06
-0.085
-0.09
-0.07
-0.055
-0.025
-0.01
0.005
-0.015
-0.025
-0.06
-0.08
-0.065
-0.055
-0.04
-0.015
-0.01
0.005
0.0
-0.01
-0.055
-0.075
-0.055
-0.05
-0.025
0.02
0.03
0.025
0.01
-0.005
-0.035
-0.05
-0.055
-0.025
-0.01
0.015
0.03
0.04
0.025
0.01
-0.015
-0.055
-0.05
-0.025
0.005
0.015
0.03
0.035
0.015
0.0
-0.02
-0.04
-0.04
-0.035
-0.01
0.015
0.035
0.04
0.03
-0.01
-0.03
-0.045
-0.035
-0.015
0.005
0.025
0.045
0.035
0.02
-0.005
-0.025
-0.05
-0.04
-0.02
0.0
0.02
0.025
0.03
0.02
-0.025
-0.035
-0.05
-0.04
-0.025
0.01
0.025
0.025
0.035
0.01
-0.03
-0.04
-0.065
-0.055
-0.025
0.005
0.015
0.02
0.015
0.0
-0.025
-0.05
-0.055
-0.05
-0.03
-0.005
0.005
0.025
0.02
0.005
-0.03
-0.04
-0.05
-0.045
-0.025
0.01
0.03
0.04
0.03
0.035
0.0
-0.01
-0.01
0.015
0.04
0.07
0.09
0.095
0.09
0.065
0.03
0.005
0.01
0.015
0.035
0.07
0.08
0.1
0.11
0.095
0.06
0.035
0.025
0.03
0.05
0.065
0.075
0.08
0.07
0.07
0.01
-0.005
-0.02
-0.05
-0.03
0.005
0.015
0.02
0.02
0.0
-0.04
-0.055
-0.06
-0.045
-0.025
0.02
0.03
0.035
0.035
0.01
-0.025
-0.04
-0.05
-0.03
0.005
0.03
0.035
0.045
0.03
0.01
-0.035
-0.045
-0.055
-0.03
-0.03
0.01
0.02
0.03
0.025
0.005
-0.03
-0.055
-0.045
-0.045
-0.025
-0.015
0.0
0.01
0.0
0.005
0.02
0.065
0.135
0.26
0.385
0.5
0.6
0.665
0.69
0.705
0.715
0.68
0.605
0.535
0.49
0.425
0.32
0.18
0.095
0.03
-0.025
-0.06
-0.06
-0.03
0.015
0.035
0.03
0.03
0.02
-0.02
-0.035
-0.045
-0.04
-0.02
0.005
0.025
0.03
0.015
0.0
-0.03
-0.045
-0.05
-0.04
-0.02
0.015
0.03
0.035
0.03
0.015
-0.015
-0.04
-0.045
-0.035
-0.015
0.025
0.03
0.04
0.04
0.025
-0.015
-0.035
-0.03
-0.015
0.0
0.025
0.045
0.05
0.045
0.03
0.0
-0.025
-0.035
-0.02
0.0
0.04
0.045
0.055
0.045
0.035
-0.005
-0.015
-0.015
-0.005
0.02
0.045
0.065
0.07
0.055
0.045
0.015
0.0
0.0
0.01
0.02
0.055
0.07
0.08
0.08
0.065
0.03
0.01
0.015
0.03
0.05
0.085
0.095
0.1
0.095
0.085
0.055
0.04
0.05
0.075
0.095
0.125
0.15
0.15
0.145
0.125
0.095
0.08
0.1
0.125
0.16
0.19
0.205
0.22
0.195
0.18
0.15
0.125
0.12
0.14
0.175
