# TIPE ECG 2021 - ECG-ID Database v1.0.0 par Physionet
# [N° de la personne, N° de l'enregistrement, Période d'échantillonnage, Prénom, Age, Sexe, Date de l'enregistrement]
[28, 3, 0.002, "Samuel", 44, "H", "13.05.2005"]
-0.005
0.02
0.025
0.04
-0.015
0.005
-0.005
-0.005
-0.015
-0.005
0.045
0.045
0.015
0.01
0.025
-0.005
0.01
0.015
0.005
-0.005
0.02
0.03
0.02
0.035
0.055
0.035
0.0
-0.025
-0.005
-0.03
0.01
0.05
0.04
0.035
0.04
0.0
-0.015
0.0
0.025
0.03
0.005
0.015
0.02
0.005
0.0
0.025
0.005
0.05
0.015
0.035
0.04
0.055
0.01
0.0
-0.01
0.015
0.01
0.01
-0.035
0.02
0.015
-0.01
-0.025
0.04
0.05
0.025
-0.02
0.02
0.005
-0.005
-0.005
-0.015
0.005
0.03
0.045
-0.015
-0.06
-0.055
-0.025
0.025
0.04
0.03
0.035
0.01
0.03
0.01
0.02
-0.005
-0.005
0.005
0.01
-0.075
-0.015
-0.005
-0.02
-0.005
0.035
-0.01
-0.06
-0.025
0.005
-0.045
0.0
0.02
-0.005
0.065
0.015
0.025
-0.03
-0.025
-0.03
-0.03
-0.005
0.0
0.06
0.015
0.015
-0.02
-0.02
-0.02
0.0
0.01
0.005
0.04
0.02
-0.025
0.02
0.01
-0.01
0.005
-0.025
-0.055
-0.02
0.045
0.02
0.01
0.03
0.0
-0.01
-0.01
0.0
-0.01
-0.015
-0.005
0.005
-0.015
-0.015
0.0
0.025
0.01
-0.01
-0.035
0.0
0.01
0.01
0.025
0.015
0.01
0.015
-0.04
0.01
0.01
0.005
0.005
-0.02
-0.055
0.01
0.025
0.01
0.005
-0.02
-0.02
-0.02
-0.01
0.03
0.015
0.035
0.04
0.0
0.01
0.0
0.01
0.08
0.04
0.04
-0.01
0.055
0.07
0.045
0.055
0.075
0.055
0.095
0.16
0.14
0.115
0.11
0.07
0.04
0.065
0.065
0.03
0.03
0.025
0.025
0.01
0.035
0.0
-0.015
0.055
0.05
0.03
0.055
0.015
0.005
-0.01
0.03
-0.015
-0.04
-0.02
-0.045
-0.035
0.01
-0.04
0.03
0.015
0.05
0.005
-0.02
-0.025
0.02
0.01
0.045
0.015
-0.025
-0.03
-0.02
-0.11
-0.115
-0.175
-0.19
-0.21
-0.145
-0.105
-0.065
-0.02
0.09
0.18
0.27
0.355
0.43
0.54
0.71
0.825
0.86
0.895
0.895
0.835
0.675
0.53
0.385
0.295
0.135
-0.035
-0.1
-0.085
-0.065
-0.09
-0.055
-0.04
-0.08
0.005
0.055
0.065
0.02
0.01
0.01
0.015
0.06
0.045
0.02
0.03
0.045
0.045
0.045
0.02
0.025
0.0
0.03
0.035
0.025
0.08
0.11
0.06
0.01
0.03
0.045
0.015
0.05
0.08
0.025
0.045
0.07
0.05
0.02
0.08
0.01
0.065
0.11
0.055
0.085
0.08
0.055
0.075
0.09
0.085
0.115
0.105
0.105
0.12
0.07
0.06
0.11
0.115
0.125
0.115
0.11
0.115
0.13
0.11
0.165
0.17
0.195
0.16
0.175
0.175
0.16
0.19
0.23
0.18
0.175
0.235
0.25
0.255
0.24
0.25
0.26
0.24
0.27
0.31
0.295
0.35
0.36
0.33
0.355
0.365
0.345
0.375
0.39
0.36
0.365
0.43
0.44
0.43
0.42
0.4
0.445
0.42
0.45
0.49
0.4
0.415
0.41
0.44
0.43
0.44
0.425
0.41
0.35
0.285
0.29
0.295
0.285
0.225
0.255
0.255
0.175
0.2
0.2
0.185
0.175
0.14
0.125
0.105
0.09
0.03
0.06
0.11
0.13
0.07
0.1
0.085
0.12
0.075
0.015
0.015
0.04
0.09
0.075
0.06
0.055
0.09
0.045
0.025
0.04
0.075
0.045
0.065
0.035
0.03
0.065
0.06
0.03
0.055
0.035
-0.005
0.005
0.04
0.0
0.01
0.085
0.105
0.065
0.03
-0.035
0.075
0.065
0.065
0.065
0.08
0.06
0.085
0.09
0.06
0.07
0.055
0.065
0.1
0.105
0.085
0.075
0.07
0.025
0.05
0.08
0.07
0.025
0.02
0.045
0.045
0.065
0.09
0.075
0.085
0.085
0.065
0.085
0.04
0.035
0.08
0.11
0.08
0.075
0.08
0.095
0.07
0.08
0.1
0.09
0.085
0.05
0.085
0.07
0.05
0.03
0.07
0.12
0.055
0.065
0.085
0.09
0.1
0.07
0.055
0.07
0.045
0.035
0.105
0.075
0.04
0.055
0.095
0.055
0.05
0.055
0.08
0.09
0.065
0.07
0.08
0.07
0.075
0.075
0.045
0.02
0.085
0.085
0.045
0.05
0.02
0.06
0.1
0.13
0.095
0.11
0.07
0.08
0.095
0.08
0.035
0.095
0.07
0.03
0.03
0.075
0.08
0.055
0.115
0.08
0.08
0.075
0.08
0.045
0.035
0.02
0.045
0.07
0.085
0.085
0.1
0.11
0.085
0.125
0.1
0.055
0.01
0.045
0.095
0.075
0.07
0.105
0.1
0.105
0.1
0.09
0.05
0.065
0.055
0.05
0.06
0.06
0.11
0.055
0.04
0.09
0.075
0.085
0.09
0.065
0.04
0.075
0.07
0.05
0.09
0.1
0.03
0.085
0.095
0.075
0.08
0.085
0.095
0.11
0.075
0.09
0.055
0.08
0.09
0.04
0.085
0.09
0.08
0.06
0.105
0.13
0.085
0.075
0.1
0.06
0.09
0.09
0.085
0.07
0.07
0.085
0.11
0.12
0.11
0.085
0.12
0.145
0.11
0.13
0.175
0.23
0.21
0.18
0.13
0.12
0.14
0.165
0.135
0.095
0.11
0.14
0.11
0.125
0.075
0.07
0.085
0.065
0.045
0.115
0.1
0.09
0.065
0.09
0.11
0.07
0.1
0.08
0.04
0.115
0.095
0.065
0.03
0.075
0.085
0.05
0.095
0.115
0.1
0.09
0.085
0.015
-0.005
0.075
0.07
0.07
0.06
0.0
-0.07
-0.085
-0.08
-0.095
-0.035
0.005
0.03
0.145
0.275
0.335
0.395
0.5
0.595
0.725
0.805
0.82
0.845
0.845
0.875
0.765
0.595
0.43
0.31
0.18
0.035
-0.03
-0.1
-0.12
-0.02
0.02
-0.045
0.025
0.075
0.095
0.135
0.15
0.1
0.05
0.075
0.135
0.15
0.115
0.1
0.115
0.095
0.08
0.085
0.07
0.13
0.135
0.09
0.095
0.1
0.1
0.105
0.095
0.06
0.105
0.135
0.085
0.09
0.14
0.095
0.1
0.13
0.1
0.115
0.13
0.115
0.175
0.155
0.1
0.065
0.115
0.12
0.145
0.15
0.145
0.18
0.155
0.115
0.17
0.17
0.145
0.15
0.15
0.165
0.2
0.215
0.205
0.185
0.165
0.195
0.2
0.19
0.205
0.21
0.24
0.24
0.25
0.25
0.225
0.255
0.25
0.31
0.285
0.275
0.29
0.33
0.355
0.355
0.39
0.37
0.36
0.38
0.365
0.365
0.425
0.435
0.435
0.495
0.45
0.405
0.405
0.43
0.475
0.47
0.45
0.495
0.5
0.465
0.465
0.415
0.465
0.44
0.395
0.45
0.505
0.42
0.41
0.395
0.36
0.29
0.24
0.25
0.235
0.26
0.27
0.275
0.24
0.225
0.215
0.185
0.165
0.175
0.14
0.11
0.17
0.145
0.115
0.09
0.085
0.115
0.06
0.075
0.095
0.105
0.15
0.125
0.08
0.015
0.1
0.08
0.085
0.12
0.065
0.045
0.09
0.115
0.12
0.07
0.075
0.065
0.075
0.085
0.03
0.035
0.1
0.08
0.05
0.06
0.08
0.08
0.055
0.06
0.03
0.07
0.13
0.085
0.075
0.09
0.09
0.09
0.11
0.06
0.065
0.095
0.085
0.02
-0.035
0.01
0.095
0.11
0.135
0.095
0.125
0.105
0.12
0.085
0.08
0.105
0.12
0.085
0.105
0.085
0.075
0.05
0.075
0.065
0.085
0.08
0.135
0.21
0.135
0.065
0.085
0.075
0.095
0.105
0.1
0.085
0.06
0.075
0.105
0.05
0.065
0.06
0.02
-0.03
0.02
0.09
0.115
0.13
0.13
0.095
0.08
0.11
0.115
0.11
0.085
0.1
0.095
0.07
0.065
0.06
0.035
0.06
0.065
0.02
0.035
0.065
0.055
0.08
0.06
0.09
0.105
0.1
0.11
0.095
0.07
0.05
0.06
0.055
0.065
0.08
0.115
0.105
0.065
0.035
0.045
0.025
0.015
0.01
0.02
0.035
0.05
0.085
0.085
0.08
0.1
0.085
0.07
0.085
0.075
0.045
0.055
0.07
0.08
0.07
0.04
0.04
0.005
0.045
0.055
0.0
0.015
0.01
-0.005
0.03
0.08
0.095
0.06
0.065
0.085
0.08
0.085
0.07
0.04
0.055
0.06
0.06
0.06
0.03
0.015
0.01
0.04
0.06
0.035
0.015
0.095
0.105
0.065
0.065
0.055
0.055
0.04
0.07
0.025
0.07
0.07
0.045
0.015
0.025
0.03
0.005
0.07
0.055
0.03
0.02
0.08
0.08
0.06
0.065
0.075
0.05
0.065
0.06
0.05
-0.01
-0.03
-0.02
0.03
0.095
0.095
0.07
0.07
0.115
0.115
0.125
0.07
0.09
0.105
0.11
0.145
0.115
0.16
0.125
0.085
0.095
0.165
0.11
0.12
0.1
0.09
0.07
0.095
0.12
0.13
0.075
0.05
0.055
0.025
0.05
0.06
0.025
0.035
0.04
0.01
0.005
0.0
0.04
0.08
0.07
0.055
0.08
0.06
0.04
0.025
0.04
0.045
0.025
0.035
0.015
-0.02
-0.045
-0.1
0.045
0.075
0.06
0.035
-0.04
-0.075
-0.1
-0.135
-0.14
-0.13
-0.085
-0.055
-0.015
0.08
0.185
0.285
0.375
0.435
0.49
0.65
0.765
0.845
0.89
0.935
0.89
0.815
0.625
0.455
0.315
0.22
0.07
-0.015
-0.035
-0.025
-0.03
-0.015
-0.03
-0.04
-0.07
0.015
0.075
0.105
0.075
0.06
0.05
0.06
0.065
0.07
0.055
0.08
0.09
0.055
0.065
0.065
0.025
0.05
0.06
0.025
0.04
0.02
0.025
0.035
0.04
0.045
0.035
0.08
0.095
0.08
0.075
0.105
0.1
0.095
0.1
0.11
0.09
0.07
0.1
0.105
0.09
0.08
0.04
0.035
-0.01
0.05
0.125
0.11
0.1
0.105
0.11
0.145
0.155
0.15
0.17
0.175
0.13
0.165
0.135
0.1
0.075
0.13
0.11
0.16
0.19
0.165
0.15
0.21
0.215
0.21
0.25
0.27
0.24
0.235
0.22
0.245
0.275
0.265
0.28
0.26
0.245
0.295
0.385
0.38
0.395
0.385
0.415
0.385
0.355
0.365
0.42
0.405
0.435
0.42
0.42
0.395
0.385
0.405
0.4
0.43
0.49
0.465
0.38
0.39
0.395
0.38
0.35
0.355
0.33
0.315
0.3
0.315
0.26
0.21
0.225
0.14
0.21
0.23
0.225
0.14
0.115
0.13
0.13
0.09
0.075
0.06
0.06
0.05
0.065
0.06
0.035
0.09
0.08
0.08
0.075
0.03
0.015
0.035
0.055
0.025
0.01
0.01
0.035
0.05
0.025
0.01
0.005
0.035
0.055
0.01
-0.03
0.015
0.025
0.075
0.065
0.015
0.01
0.015
0.02
0.05
0.075
0.05
0.02
0.035
0.03
0.015
0.015
-0.025
-0.015
-0.02
0.055
0.06
0.01
0.025
-0.02
-0.035
0.06
0.09
0.055
0.03
0.06
0.03
0.01
0.045
0.04
0.01
0.04
0.075
0.025
0.035
0.1
0.045
0.035
0.015
-0.005
0.01
0.035
0.06
0.065
0.06
0.065
-0.01
0.015
0.07
0.04
0.04
0.045
0.01
-0.035
0.02
0.06
0.005
0.075
0.115
0.075
0.025
0.03
-0.005
0.05
0.075
0.08
0.03
0.035
0.065
0.035
-0.02
0.015
0.055
0.02
-0.005
0.08
0.005
0.025
0.04
0.04
0.04
0.025
0.005
0.005
0.03
0.055
0.045
0.04
0.005
-0.025
-0.015
-0.03
-0.075
-0.04
0.04
0.12
0.075
0.025
0.075
0.04
0.035
0.04
0.035
0.01
0.01
0.03
0.03
0.02
0.005
-0.015
0.0
0.025
0.025
0.025
0.03
0.04
0.02
0.01
-0.015
-0.005
0.015
0.025
0.065
-0.045
-0.02
-0.01
0.02
0.025
0.03
0.015
0.02
0.035
0.045
0.01
0.045
0.045
0.025
0.0
0.045
-0.005
0.0
0.05
0.02
0.015
0.05
0.01
-0.015
-0.015
-0.005
-0.06
-0.04
-0.005
0.02
0.04
0.025
0.045
0.03
0.01
-0.02
-0.05
0.01
0.02
0.005
0.05
0.03
0.045
-0.005
-0.015
-0.01
-0.005
0.015
0.0
-0.01
0.03
0.03
0.06
0.025
0.045
0.025
0.015
0.06
0.0
-0.03
-0.03
-0.005
0.02
0.045
0.005
0.005
0.005
0.01
0.01
0.01
0.065
0.065
0.04
0.07
0.055
0.06
0.045
0.09
0.115
0.115
0.115
0.135
0.125
0.14
0.1
0.06
0.04
0.065
0.06
0.05
0.01
0.02
0.025
0.07
0.02
0.025
0.025
0.03
0.035
0.005
-0.03
0.0
-0.015
0.04
0.04
0.045
0.015
0.005
0.015
-0.025
-0.01
-0.02
-0.015
0.01
-0.015
-0.04
-0.005
0.0
0.02
0.005
-0.01
0.03
0.015
-0.03
-0.095
-0.12
-0.195
-0.175
-0.19
-0.19
-0.14
-0.04
-0.02
0.06
0.2
0.315
0.355
0.47
0.58
0.735
0.82
0.87
0.905
0.915
0.84
0.69
0.535
0.36
0.22
0.08
-0.015
-0.055
-0.105
-0.07
-0.065
-0.03
0.015
0.03
-0.005
0.025
0.03
0.05
0.045
0.02
0.015
-0.035
0.035
0.04
0.0
-0.015
0.04
0.03
0.04
0.02
0.04
0.02
0.025
0.035
0.01
0.035
0.02
0.01
0.01
0.08
0.065
0.065
0.05
0.03
0.015
0.01
0.085
0.09
0.05
0.04
0.055
0.04
0.035
0.08
0.065
0.05
0.04
0.065
0.08
0.13
0.08
0.09
0.06
0.09
0.09
0.1
0.135
0.13
0.095
0.125
0.105
0.105
0.11
0.11
0.08
0.095
0.11
0.16
0.19
0.195
0.18
0.135
0.195
0.22
0.21
0.205
0.245
0.26
0.255
0.24
0.255
0.24
0.25
0.265
0.27
0.305
0.305
0.32
0.34
0.375
0.37
0.375
0.38
0.355
0.365
0.41
0.46
0.435
0.415
0.395
0.41
0.41
0.41
0.365
0.38
0.395
0.395
0.375
0.41
0.305
0.29
0.3
0.335
0.315
0.285
0.245
0.27
0.225
0.22
0.18
0.15
0.125
0.125
0.125
0.12
0.185
0.11
0.09
0.03
0.06
0.07
0.04
0.075
0.03
0.02
0.045
0.02
0.07
0.08
0.07
0.005
0.035
0.035
0.04
0.035
0.02
0.02
0.03
0.025
-0.005
-0.035
0.0
-0.01
-0.01
0.035
0.015
0.015
-0.005
0.035
0.03
0.0
0.03
0.07
-0.005
-0.025
0.025
0.02
-0.025
-0.015
0.01
-0.005
0.025
0.045
0.015
0.035
0.055
0.06
0.035
0.02
0.0
0.015
0.015
0.005
0.0
0.005
0.015
0.045
-0.035
0.01
0.045
0.0
-0.005
0.005
0.03
0.035
0.04
0.025
0.055
0.04
0.02
0.03
0.025
0.055
0.04
0.015
0.06
0.055
0.07
0.025
-0.025
-0.005
0.03
0.015
-0.005
0.02
0.04
0.045
0.07
0.04
0.02
0.035
0.035
0.035
0.045
0.045
0.08
-0.015
-0.015
0.0
-0.025
-0.025
-0.015
0.03
0.04
0.03
0.05
0.06
0.05
0.045
0.04
-0.015
-0.015
-0.025
-0.03
0.0
0.035
0.025
0.02
0.045
0.045
-0.05
0.06
0.08
0.045
0.04
0.02
0.025
-0.01
-0.045
0.005
-0.005
-0.005
0.03
0.015
0.02
0.005
0.02
0.03
0.015
0.01
0.0
0.03
0.01
-0.01
0.01
0.01
0.0
0.015
-0.01
-0.025
-0.005
0.005
-0.03
-0.01
0.06
0.055
0.025
-0.01
-0.035
-0.03
0.02
0.035
0.03
-0.01
-0.04
-0.005
0.05
0.035
0.02
0.025
0.035
0.04
-0.01
0.0
0.035
0.04
0.035
-0.03
-0.005
0.0
-0.025
-0.055
-0.01
0.045
0.045
0.025
-0.035
-0.01
0.005
0.045
0.005
-0.005
-0.005
0.0
-0.025
0.03
-0.01
-0.06
0.0
0.0
0.02
0.015
-0.02
-0.015
0.025
0.055
0.03
-0.01
-0.025
-0.01
0.035
0.03
-0.015
0.005
-0.015
0.015
0.035
0.0
0.005
0.025
0.08
0.055
0.03
0.02
0.06
0.08
0.045
0.065
0.115
0.115
0.11
0.105
0.07
0.085
0.125
0.13
0.055
0.065
0.055
0.035
0.045
0.045
0.005
0.005
0.005
0.03
0.055
0.05
0.03
-0.005
-0.075
-0.045
0.01
-0.01
0.02
0.01
-0.07
0.0
0.04
0.015
0.005
-0.02
0.005
0.005
-0.01
-0.005
-0.01
-0.08
-0.075
-0.025
0.01
0.01
-0.005
0.015
-0.025
-0.06
-0.13
-0.15
-0.205
-0.225
-0.16
-0.11
-0.09
-0.01
0.065
0.115
0.245
0.345
0.445
0.575
0.74
0.85
0.835
0.835
0.855
0.81
0.7
0.595
0.41
0.24
0.11
-0.015
-0.095
-0.1
-0.07
-0.04
-0.02
-0.025
-0.045
-0.03
0.0
0.03
0.015
0.06
0.065
0.05
0.025
-0.01
-0.03
-0.05
0.005
0.08
0.045
0.005
0.015
0.04
0.035
0.04
-0.005
0.005
0.03
0.04
0.02
0.02
0.075
0.085
0.03
0.02
0.005
0.05
0.07
0.05
0.05
0.055
0.055
0.045
0.055
0.07
0.055
0.055
0.085
0.07
0.09
0.1
0.115
0.1
0.065
0.095
0.07
0.065
0.045
0.045
0.06
0.15
0.14
0.145
0.145
0.145
0.115
0.165
0.165
0.125
0.16
0.19
0.2
0.185
0.15
0.165
0.165
0.21
0.18
0.205
0.23
0.26
0.26
0.235
0.23
0.25
0.27
0.32
0.31
0.32
0.345
0.4
0.355
0.395
0.385
0.385
0.41
0.405
0.425
0.4
0.435
0.45
0.415
0.395
0.43
0.405
0.39
0.44
0.46
0.38
0.375
0.39
0.355
0.39
0.375
0.335
0.295
0.295
0.27
0.205
0.24
0.215
0.175
0.21
0.21
0.18
0.145
0.115
0.115
0.13
0.14
0.09
0.03
0.025
0.135
0.115
0.04
0.015
0.02
0.045
0.055
0.065
0.07
0.035
0.03
0.065
0.02
0.02
0.03
0.05
0.04
0.02
-0.04
-0.005
0.085
0.06
0.05
0.02
0.02
0.02
0.05
0.02
0.055
0.045
0.07
0.085
0.055
0.035
0.09
0.035
0.035
0.015
0.02
0.03
0.085
0.025
0.01
0.05
0.01
-0.025
-0.01
0.01
0.025
0.045
0.065
0.05
0.05
0.08
0.035
0.03
0.065
0.07
0.025
0.04
0.06
0.055
0.035
0.02
0.075
0.045
0.06
0.085
0.085
0.02
0.0
0.045
0.055
0.02
0.06
0.085
0.11
0.07
0.045
0.03
0.06
0.09
0.065
0.055
0.05
0.07
0.075
0.04
0.035
0.03
0.005
0.045
0.04
0.08
0.09
0.05
0.055
0.07
0.065
0.11
0.035
0.025
0.045
0.055
0.03
0.03
0.07
0.01
0.075
0.13
0.07
0.04
0.04
0.06
0.03
0.04
0.04
0.04
0.02
0.02
0.025
0.01
0.05
0.025
0.065
0.055
0.085
0.065
0.04
0.02
0.06
0.095
0.08
0.07
0.015
-0.02
0.03
0.05
0.01
0.085
0.075
0.025
0.03
0.04
0.095
0.1
0.04
-0.005
0.04
0.055
0.035
0.05
0.055
0.05
0.05
0.055
0.055
0.02
0.045
0.045
0.08
0.06
0.05
0.035
0.06
0.045
0.04
0.03
0.085
0.04
0.05
0.07
0.03
0.035
0.055
0.05
0.065
0.09
0.075
0.05
0.11
0.03
-0.005
0.025
0.01
0.035
0.025
0.005
0.05
0.05
0.025
0.06
0.06
0.11
0.065
0.09
0.065
0.085
0.1
0.055
0.005
0.07
0.045
0.075
0.07
0.06
0.065
0.08
0.06
0.045
0.045
0.06
0.03
0.08
0.07
0.065
0.055
0.09
0.08
0.005
0.06
0.08
0.06
0.095
0.075
0.105
0.075
0.105
0.145
0.125
0.115
0.155
0.11
0.105
0.165
0.185
0.195
0.17
0.17
0.105
0.13
0.1
0.09
0.1
0.09
0.115
0.13
0.135
0.055
0.06
0.075
0.08
0.04
0.045
0.06
0.03
0.05
0.1
0.085
0.09
0.045
0.035
0.025
0.045
0.075
0.015
0.1
0.135
0.055
0.05
0.04
0.04
0.035
0.12
0.105
0.075
0.06
0.065
0.0
0.015
-0.075
-0.105
-0.12
-0.115
-0.08
-0.005
0.085
0.17
0.235
0.33
0.435
0.445
0.49
0.625
0.77
0.815
0.835
0.875
0.845
0.775
0.625
0.475
0.315
0.185
0.025
-0.065
0.01
0.005
-0.025
-0.02
0.065
0.1
0.08
0.035
0.035
0.05
0.135
0.115
0.065
0.09
0.125
0.13
0.11
0.075
0.045
0.075
0.08
0.105
0.11
0.09
0.115
0.07
0.075
0.08
0.12
0.1
0.09
0.11
0.11
0.1
0.14
0.125
0.095
0.115
0.1
0.145
0.19
0.155
0.14
0.145
0.145
0.14
0.15
0.085
0.15
0.145
0.22
0.165
0.13
0.17
0.165
0.14
0.14
0.175
0.2
0.2
0.19
0.165
0.19
0.215
0.19
0.165
0.235
0.26
0.225
0.2
0.225
0.22
0.275
0.265
0.25
0.285
0.285
0.26
0.28
0.275
0.35
0.365
0.32
0.35
0.35
0.335
0.405
0.425
0.405
0.33
0.395
0.42
0.44
0.465
0.42
0.45
0.405
0.45
0.54
0.535
0.52
0.5
0.485
0.485
0.5
0.515
0.51
0.465
0.41
0.445
0.49
0.49
0.4
0.405
0.39
0.325
0.3
0.39
0.36
0.325
0.3
0.295
0.27
0.26
0.19
0.21
0.165
0.205
0.15
0.185
0.205
0.16
0.135
0.17
0.195
0.07
0.145
0.175
0.135
0.135
0.16
0.15
0.12
0.11
0.095
0.105
0.16
0.15
0.075
0.08
0.135
0.1
0.145
0.11
0.095
0.095
0.14
0.135
0.06
0.075
0.055
0.11
0.125
0.14
0.145
0.085
0.04
0.08
0.065
0.085
0.11
0.1
0.07
0.085
0.1
0.1
0.12
0.115
0.13
0.135
0.125
0.125
0.115
0.105
0.05
0.125
0.155
0.09
0.095
0.12
0.11
0.17
0.13
0.105
0.095
0.085
0.09
0.1
0.15
0.12
0.14
0.15
0.1
0.105
0.14
0.155
0.125
0.135
0.12
0.145
0.15
0.115
0.095
0.17
0.15
0.155
0.115
0.095
0.105
0.115
0.135
0.115
0.13
0.105
0.05
0.08
0.09
0.11
0.105
0.17
0.12
0.115
0.135
0.105
0.085
0.11
0.175
0.115
0.12
0.165
0.13
0.1
0.105
0.12
0.125
0.11
0.095
0.065
0.145
0.135
0.13
0.14
0.125
0.11
0.16
0.085
0.09
0.01
0.085
0.1
0.07
0.09
0.12
0.115
0.06
0.12
0.125
0.11
0.13
0.135
0.115
0.095
0.045
0.055
0.065
0.115
0.16
0.115
0.1
0.105
0.1
0.16
0.135
0.16
0.15
0.125
0.14
0.135
0.095
0.115
0.14
0.095
0.145
0.135
0.1
0.1
0.14
0.135
0.12
0.085
0.025
0.085
0.13
0.16
0.17
0.16
0.14
0.12
0.115
0.15
0.11
0.115
0.13
0.125
0.175
0.105
0.105
0.115
0.13
0.125
0.1
0.125
0.135
0.145
0.06
0.09
0.135
0.11
0.12
0.16
0.095
0.135
0.17
0.135
0.115
0.15
0.13
0.13
0.2
0.185
0.155
0.12
0.13
0.11
0.15
0.16
0.115
0.095
0.08
0.07
0.075
0.21
0.21
0.14
0.12
0.175
0.165
0.15
0.175
0.18
0.19
0.185
0.185
0.17
0.155
0.17
0.235
0.255
0.2
0.215
0.265
0.215
0.155
0.16
0.155
0.135
0.125
0.155
0.185
0.14
0.13
0.165
0.155
0.15
0.19
0.185
0.15
0.19
0.18
0.16
0.19
0.165
0.165
0.155
0.155
0.175
0.145
0.135
0.17
0.15
0.09
0.11
0.13
0.235
0.23
0.15
0.15
0.185
0.225
0.135
0.12
0.085
0.01
0.05
0.005
-0.005
0.03
0.12
0.13
0.12
0.23
0.34
0.415
0.455
0.565
0.64
0.68
0.78
0.9
0.895
0.87
0.855
0.775
0.645
0.48
0.445
0.27
0.125
0.1
0.105
0.08
0.035
0.17
0.135
0.14
0.165
0.15
0.19
0.185
0.16
0.18
0.185
0.17
0.18
0.225
0.2
0.185
0.225
0.18
0.195
0.17
0.19
0.18
0.185
0.22
0.205
0.21
0.22
0.205
0.21
0.245
0.215
0.155
0.195
0.2
0.245
0.24
0.24
0.255
0.285
0.245
0.24
0.215
0.225
0.27
0.25
0.28
0.31
0.29
0.275
0.25
0.215
0.195
0.2
0.245
0.245
0.295
0.305
0.265
0.27
0.25
0.32
0.325
0.325
0.345
0.275
0.325
0.355
0.315
0.31
0.33
0.355
0.34
0.355
0.37
0.375
0.375
0.4
0.43
0.405
0.43
0.44
0.425
0.44
0.47
0.465
0.465
0.48
0.54
0.505
0.49
0.515
0.515
0.535
0.55
0.525
0.51
0.58
0.55
0.53
0.555
0.615
0.56
0.56
0.605
0.58
0.51
0.53
0.5
0.53
0.505
0.51
0.5
0.505
0.48
0.44
0.41
0.365
0.37
0.425
0.39
0.34
0.29
0.285
0.285
0.31
0.295
0.31
0.295
0.255
0.295
0.27
0.24
0.285
0.22
0.185
0.175
0.235
0.165
0.215
0.285
0.21
0.24
0.275
0.22
0.225
0.21
0.19
0.225
0.215
0.2
0.195
0.165
0.18
0.2
0.215
0.255
0.285
0.285
0.2
0.165
0.19
0.215
0.195
0.18
0.19
0.23
0.26
0.26
0.255
0.22
0.22
0.25
0.245
0.205
0.175
0.245
0.215
0.25
0.19
0.18
0.185
0.185
0.205
0.185
0.175
0.245
0.23
0.23
0.245
0.18
0.18
0.24
0.245
0.28
0.25
0.255
0.215
0.235
0.19
0.24
0.2
0.155
0.195
0.22
0.23
0.24
0.24
0.2
0.21
0.21
0.195
0.235
0.22
0.24
0.22
0.23
0.215
0.21
0.195
0.205
0.205
0.22
0.24
0.255
0.26
0.225
0.28
0.185
0.17
0.22
0.18
0.2
0.25
0.245
0.215
0.245
0.23
0.195
0.185
0.135
0.19
0.275
0.205
0.195
0.215
0.24
0.2
0.215
0.2
0.205
0.175
0.125
0.165
0.21
0.215
0.21
0.2
0.205
0.25
0.21
0.175
0.205
0.215
0.195
0.185
0.195
0.2
0.215
0.18
0.21
0.19
0.19
0.205
0.195
0.215
0.25
0.175
0.18
0.205
0.17
0.18
0.21
0.19
0.19
0.165
0.195
0.255
0.165
0.185
0.145
0.17
0.195
0.19
0.195
0.245
0.24
0.21
0.16
0.185
0.165
0.14
0.19
0.185
0.17
0.24
0.225
0.21
0.215
0.19
0.22
0.205
0.2
0.22
0.195
0.19
0.2
0.18
0.19
0.18
0.2
0.165
0.195
0.22
0.195
0.19
0.22
0.2
0.18
0.21
0.175
0.18
0.15
0.205
0.205
0.22
0.185
0.175
0.195
0.23
0.18
0.18
0.18
0.15
0.155
0.165
0.205
0.15
0.18
0.175
0.195
0.235
0.215
0.205
0.205
0.225
0.215
0.225
0.205
0.155
0.165
0.205
0.21
0.2
0.235
0.285
0.29
0.31
0.28
0.3
0.25
0.225
0.23
0.265
0.245
0.265
0.225
0.195
0.21
0.225
0.195
0.175
0.135
0.15
0.145
0.185
0.185
0.18
0.215
0.18
0.175
0.175
0.165
0.2
0.18
0.195
0.175
0.15
0.16
0.165
0.19
0.165
0.12
0.105
0.13
0.17
0.23
0.22
0.165
0.165
0.1
0.115
0.105
0.035
0.025
0.03
0.0
0.04
0.06
0.1
0.17
0.28
0.385
0.43
0.5
0.58
0.665
0.815
0.9
0.935
0.975
0.99
0.925
0.77
0.645
0.515
0.345
0.17
0.06
0.07
0.06
0.07
0.09
0.1
0.15
0.185
0.175
0.195
0.19
0.18
0.17
0.19
0.21
0.175
0.2
0.185
0.17
0.21
0.19
0.18
0.12
0.19
0.185
0.175
0.205
0.225
0.18
0.19
0.24
0.16
0.17
0.175
0.185
0.18
0.19
0.21
0.175
0.135
0.15
0.16
0.185
0.225
0.26
0.21
0.225
0.235
0.19
0.225
0.22
0.185
0.185
0.215
0.235
0.22
0.24
0.275
0.25
0.255
0.265
0.265
0.29
0.255
0.27
0.27
0.275
0.275
0.28
0.275
0.245
0.26
0.3
0.31
0.3
0.315
0.325
0.355
0.365
0.36
0.345
0.37
0.385
0.39
0.415
0.375
0.41
0.405
0.4
0.395
0.375
0.45
0.5
0.5
0.51
0.515
0.535
0.545
0.555
0.495
0.485
0.475
0.495
0.55
0.545
0.535
0.5
0.555
0.525
0.505
0.59
0.525
0.505
0.49
0.485
0.465
0.435
0.41
0.425
0.385
0.325
0.325
0.315
0.3
0.3
0.29
0.25
0.22
0.23
0.22
0.22
0.195
0.095
0.12
0.15
0.22
0.28
0.215
0.19
0.195
0.205
0.195
0.145
0.17
0.135
0.13
0.15
0.15
0.175
0.15
0.125
0.115
0.115
0.1
0.115
0.13
0.135
0.145
0.18
0.14
0.135
0.14
0.16
0.17
0.17
0.14
0.155
0.125
0.13
0.12
0.14
0.13
0.1
0.135
0.13
0.11
0.12
0.175
0.15
0.09
0.095
0.13
0.175
0.16
0.17
0.17
0.175
0.18
0.16
0.14
0.09
0.11
0.15
0.18
0.16
0.16
0.18
0.13
0.135
0.16
0.155
0.165
0.11
0.115
0.165
0.15
0.155
0.15
0.11
0.135
0.135
0.12
0.185
0.195
0.16
0.135
0.16
0.14
0.175
0.12
0.1
0.085
0.135
0.13
0.135
0.21
0.16
0.15
0.13
0.135
0.135
0.17
0.15
0.145
0.15
0.165
0.165
0.14
0.13
0.14
0.115
0.095
0.09
0.085
0.14
0.155
0.14
0.125
0.165
0.125
0.12
0.1
0.095
0.1
0.105
0.16
0.105
0.11
0.13
0.135
0.115
0.125
0.125
0.115
0.095
0.13
0.15
0.14
0.125
0.115
0.13
0.12
0.095
0.1
0.125
0.18
0.14
0.13
0.13
0.115
0.12
0.11
0.065
0.1
0.13
0.14
0.115
0.085
0.12
0.085
0.055
0.09
0.12
0.07
0.085
0.135
0.125
0.11
0.115
0.12
0.1
0.07
0.1
0.09
0.055
0.075
0.14
0.15
0.155
0.115
0.1
0.07
0.06
0.05
0.145
0.17
0.105
0.075
0.11
0.1
0.075
0.095
0.12
0.145
0.14
0.085
0.075
0.115
0.085
0.115
0.115
0.095
0.105
0.09
0.11
0.13
0.085
0.06
0.05
0.03
0.02
0.125
0.1
0.085
0.135
0.13
0.085
0.075
0.12
0.125
0.085
0.095
0.115
0.105
0.135
0.125
0.075
0.01
0.04
0.065
0.115
0.11
0.13
0.125
0.13
0.15
0.16
0.17
0.2
0.15
0.215
0.235
0.16
0.145
0.125
0.155
0.13
0.145
0.1
0.06
0.1
0.18
0.16
0.145
0.135
0.095
0.065
0.09
0.105
0.065
0.095
0.085
0.065
0.06
0.09
0.085
0.035
0.06
0.075
0.06
0.05
0.105
0.095
0.085
0.09
0.09
0.08
0.11
0.06
0.04
0.085
0.1
0.04
0.035
-0.005
-0.065
-0.07
-0.13
-0.165
-0.115
-0.055
-0.035
0.005
0.095
0.215
0.31
0.435
0.485
0.58
0.665
0.735
0.82
0.85
0.935
0.95
0.9
0.705
0.57
0.405
0.27
0.16
0.055
-0.03
-0.01
0.07
0.06
0.11
0.045
0.06
0.05
0.085
0.085
0.075
0.115
0.115
0.05
0.07
0.055
0.04
0.07
0.125
0.12
0.08
0.085
0.12
0.085
0.085
0.115
0.07
0.085
0.115
0.105
0.1
0.08
0.1
0.125
0.11
0.07
0.09
0.115
0.1
0.125
0.105
0.115
0.085
0.115
0.145
0.15
0.075
0.135
0.105
0.115
0.095
0.14
0.15
0.135
0.055
0.09
0.075
0.125
0.18
0.165
0.16
0.185
0.195
0.135
0.195
0.2
0.125
0.16
0.21
0.205
0.17
0.2
0.215
0.23
0.26
0.22
0.205
0.245
0.28
0.285
0.265
0.27
0.305
0.29
0.32
0.335
0.32
0.35
0.325
0.315
0.35
0.415
0.41
0.39
0.44
0.435
0.405
0.43
0.415
0.42
0.455
0.485
0.445
0.43
0.425
0.445
0.44
0.46
0.405
0.395
0.38
0.415
0.415
0.39
0.39
0.375
0.3
0.29
0.3
0.245
0.275
0.27
0.2
0.205
0.195
0.18
0.12
0.16
0.19
0.13
0.145
0.135
0.12
0.085
0.075
0.105
0.085
0.105
0.09
0.07
0.07
0.095
0.06
0.065
0.06
0.075
0.035
0.05
0.03
0.04
0.045
0.015
0.005
0.01
0.085
0.095
0.065
0.05
0.07
0.04
0.105
0.085
0.055
0.025
0.015
-0.015
-0.015
-0.01
0.025
0.055
0.035
0.08
0.045
0.08
0.07
0.03
0.04
0.065
0.055
0.045
0.07
0.08
0.06
0.045
0.045
0.07
0.075
0.09
0.06
0.015
0.035
0.115
0.06
0.03
0.06
0.005
0.015
0.04
0.01
0.04
0.1
0.045
0.04
0.145
0.105
0.02
0.025
0.025
0.05
0.05
0.045
0.1
0.045
0.06
0.095
0.075
0.05
0.045
0.04
0.055
0.055
0.035
0.025
0.025
0.055
0.11
0.095
0.045
0.045
0.05
0.075
0.085
0.06
0.07
0.025
0.0
0.035
0.01
0.005
0.06
0.095
0.07
0.035
0.045
0.02
0.02
0.03
0.055
0.055
0.055
0.065
0.045
0.045
0.04
0.05
0.06
0.025
0.05
0.035
0.04
0.05
0.08
0.06
0.035
0.03
-0.025
0.0
0.035
0.02
0.015
-0.005
0.055
0.05
0.07
0.055
0.0
0.035
0.04
0.01
0.025
0.065
0.025
0.055
0.035
0.055
0.005
0.045
0.045
0.02
0.025
0.035
0.01
-0.02
0.0
0.035
0.04
0.015
0.015
-0.005
0.045
0.08
0.045
0.03
0.01
0.015
-0.015
0.06
0.005
-0.02
0.015
0.01
0.08
0.065
0.05
0.025
-0.05
0.03
0.07
0.06
0.015
0.065
-0.01
0.05
0.05
0.045
0.015
0.02
0.0
-0.035
0.045
0.08
0.035
0.065
0.035
0.0
-0.02
0.025
0.01
0.005
0.025
0.01
0.0
-0.03
0.025
0.025
-0.015
-0.005
0.05
0.03
0.055
0.065
0.025
0.0
0.02
-0.005
0.005
0.035
0.015
0.035
0.06
0.04
0.035
0.015
0.075
0.05
0.065
0.07
0.08
0.065
0.1
0.16
0.15
0.145
0.15
0.14
0.03
0.045
0.06
0.08
0.045
0.03
0.02
0.03
0.01
0.02
0.025
0.015
0.04
0.035
0.03
0.025
0.01
0.02
0.0
0.015
0.01
0.025
-0.015
-0.03
0.015
-0.03
-0.01
-0.01
-0.035
-0.015
0.065
0.075
0.025
0.015
0.0
-0.01
0.01
-0.01
-0.04
-0.06
-0.125
-0.13
-0.185
-0.22
-0.185
-0.15
-0.075
-0.015
0.09
0.135
0.25
0.335
0.425
0.47
0.61
0.755
0.8
0.85
0.855
0.81
0.75
0.62
0.46
0.34
0.2
0.065
-0.05
-0.085
-0.11
-0.05
0.015
-0.025
-0.03
0.005
0.055
0.045
0.055
0.045
0.055
-0.005
-0.05
-0.07
-0.06
-0.05
0.035
0.065
0.065
0.07
0.06
0.035
0.03
0.045
0.025
0.04
0.035
0.04
0.035
0.035
0.03
-0.005
-0.01
0.045
0.02
0.015
0.04
0.075
0.08
0.075
0.065
0.065
0.055
0.04
0.06
0.12
0.075
0.04
0.055
0.075
0.045
0.025
-0.05
0.075
0.1
0.125
0.135
0.045
0.035
0.075
0.105
0.1
0.11
0.115
0.125
0.14
0.165
0.125
0.15
0.16
0.145
0.125
0.145
0.19
0.14
0.13
0.17
0.165
0.235
0.245
0.2
0.195
0.23
0.215
0.275
0.32
0.335
0.31
0.305
0.305
0.335
0.38
0.34
0.355
0.38
0.38
0.345
0.35
0.35
0.385
0.355
0.39
0.42
0.415
0.42
0.395
0.39
0.38
0.38
0.38
0.34
0.32
0.35
0.29
0.25
0.265
0.255
0.18
0.155
0.225
0.2
0.19
0.175
0.105
0.11
0.12
0.14
0.115
0.05
0.025
0.005
0.03
0.09
0.075
0.05
0.09
0.065
0.015
0.035
0.015
-0.01
0.01
0.005
-0.05
-0.035
0.01
0.025
0.045
0.015
-0.005
-0.025
0.0
-0.02
-0.005
0.05
0.02
0.005
0.005
-0.02
-0.04
-0.015
0.005
-0.03
-0.025
0.035
0.0
-0.02
-0.025
-0.05
-0.01
-0.035
0.005
-0.015
-0.015
0.005
0.025
0.005
0.06
0.005
-0.045
-0.03
-0.03
-0.015
0.015
0.06
0.03
-0.015
-0.03
-0.05
0.005
0.065
0.01
-0.005
0.005
0.015
0.015
-0.01
0.005
-0.005
-0.03
-0.02
0.05
0.04
0.01
-0.025
-0.015
0.0
0.0
0.0
-0.005
-0.045
0.0
0.0
0.0
0.0
0.06
0.04
-0.01
-0.02
-0.035
-0.01
0.0
-0.005
0.08
0.02
0.0
-0.005
-0.015
-0.015
0.0
0.04
0.005
0.025
-0.035
0.0
-0.005
-0.055
0.035
-0.03
-0.015
-0.02
0.0
0.025
-0.025
0.005
0.03
-0.015
-0.01
0.04
0.015
0.01
-0.015
-0.01
-0.01
-0.04
-0.005
0.01
-0.015
-0.02
-0.03
0.02
0.02
-0.005
-0.05
0.0
0.03
-0.025
-0.04
-0.01
-0.045
-0.01
-0.015
-0.06
-0.03
0.02
0.015
-0.02
-0.015
-0.03
-0.04
0.025
0.025
0.0
-0.025
0.01
-0.025
0.005
-0.055
-0.04
-0.025
0.0
0.025
-0.005
-0.015
0.015
-0.02
-0.06
-0.01
0.0
-0.015
-0.015
-0.02
-0.025
0.025
0.045
0.01
-0.035
-0.04
-0.03
-0.01
-0.015
0.005
-0.02
-0.025
0.02
-0.03
-0.04
-0.04
-0.05
0.005
0.02
0.01
-0.08
-0.025
0.005
-0.02
0.005
0.025
-0.01
-0.04
-0.035
-0.02
-0.03
-0.05
0.025
-0.03
-0.015
0.02
-0.02
0.015
-0.01
-0.01
0.005
0.005
0.01
0.015
-0.075
-0.11
-0.085
-0.06
0.02
-0.03
0.005
0.065
0.035
0.035
-0.005
0.025
0.0
-0.01
-0.01
-0.005
-0.045
0.075
0.05
0.025
0.085
0.11
0.09
0.08
0.065
0.065
0.065
0.07
0.065
0.05
0.045
-0.03
-0.03
0.02
-0.005
-0.065
-0.14
-0.055
0.045
0.03
-0.03
-0.04
-0.05
-0.015
-0.01
-0.02
-0.01
-0.005
0.02
-0.005
0.0
0.0
-0.05
-0.025
-0.065
-0.08
-0.09
-0.04
-0.045
0.01
0.005
-0.055
-0.07
-0.01
-0.02
-0.03
-0.055
-0.19
-0.235
-0.22
-0.255
-0.185
-0.185
-0.19
-0.075
0.1
0.205
0.325
0.365
0.44
0.495
0.63
0.75
0.81
0.84
0.835
0.77
0.63
0.4
0.305
0.21
0.035
-0.13
-0.14
-0.115
-0.08
-0.025
0.015
-0.035
-0.06
-0.03
0.02
0.015
0.04
0.035
-0.03
-0.055
-0.04
0.005
0.005
-0.04
-0.055
-0.045
-0.025
-0.005
0.015
0.0
-0.005
-0.035
0.005
-0.01
0.0
0.03
0.01
0.0
-0.005
0.005
0.005
-0.015
0.01
-0.01
-0.005
-0.025
0.03
0.055
0.02
0.015
0.015
0.055
0.025
0.105
0.02
0.0
0.035
0.04
0.055
0.06
0.06
0.005
-0.025
0.06
0.08
0.055
0.055
0.055
0.095
0.085
0.1
0.065
0.095
0.095
0.07
0.075
0.12
0.125
0.12
0.14
0.135
0.135
0.15
0.135
0.17
0.195
0.185
0.17
0.17
0.235
0.24
0.24
0.295
0.265
0.23
0.26
0.275
0.325
0.375
0.355
0.31
0.32
0.315
0.33
0.3
0.315
0.36
0.41
0.4
0.41
0.345
0.375
0.405
0.42
0.345
0.375
0.345
0.325
0.28
0.305
0.305
0.23
0.245
0.205
0.2
0.19
0.185
0.175
0.185
0.145
0.14
0.14
0.105
0.06
0.08
0.075
0.065
0.045
0.045
0.055
0.01
-0.02
-0.005
0.01
-0.02
-0.02
0.035
0.015
0.025
0.02
0.02
0.015
0.0
-0.03
-0.075
-0.05
0.03
-0.015
-0.035
0.005
-0.055
-0.055
-0.01
-0.005
-0.005
-0.005
-0.025
-0.035
-0.01
0.03
0.0
-0.015
-0.025
-0.005
0.02
-0.015
0.0
-0.025
-0.005
-0.035
-0.08
-0.005
0.02
-0.01
-0.04
0.01
0.015
-0.015
-0.015
-0.04
0.02
0.035
0.025
0.02
-0.02
-0.025
0.0
0.02
0.015
0.05
-0.03
-0.01
0.0
-0.025
-0.045
-0.05
-0.055
-0.015
0.02
0.03
0.05
0.015
0.03
0.02
0.02
0.005
-0.035
-0.04
-0.015
-0.005
0.015
-0.01
0.01
0.01
0.04
0.13
0.025
-0.015
0.035
0.01
-0.015
-0.01
0.01
0.005
-0.03
0.01
0.005
-0.025
0.0
0.045
0.04
0.02
-0.03
-0.045
-0.04
0.015
0.03
0.035
0.025
0.0
0.01
0.005
0.0
-0.04
-0.02
0.005
-0.035
0.0
0.02
0.02
0.025
0.03
0.065
-0.015
-0.005
0.015
0.01
0.01
0.03
-0.105
-0.045
0.045
0.005
-0.055
-0.07
-0.01
0.03
0.04
0.025
0.005
0.005
-0.01
-0.03
-0.015
-0.06
-0.035
0.015
0.005
0.04
-0.015
-0.05
-0.025
0.0
0.02
0.025
-0.01
0.06
0.07
0.025
-0.01
0.01
0.035
0.02
-0.01
0.025
0.005
-0.03
-0.03
0.015
0.01
-0.015
-0.005
-0.005
0.0
0.02
0.02
-0.01
-0.03
-0.02
0.02
-0.005
-0.005
0.005
0.01
-0.025
-0.04
-0.025
0.04
0.04
-0.015
-0.01
0.035
-0.01
-0.05
0.01
0.025
0.015
-0.035
0.02
0.025
-0.02
-0.03
0.035
0.04
0.04
0.035
0.0
-0.015
0.015
-0.005
0.06
0.04
-0.005
-0.01
0.05
0.055
0.04
0.055
0.07
0.035
0.07
0.105
0.085
0.07
0.085
0.07
0.05
0.08
0.065
0.075
0.075
0.015
0.035
0.045
0.01
-0.025
-0.005
0.03
0.045
0.055
0.015
0.02
0.03
0.005
-0.005
-0.005
-0.03
-0.02
-0.025
0.0
0.08
0.075
0.03
0.015
-0.035
-0.015
-0.04
0.01
0.025
0.03
0.025
0.0
-0.045
-0.06
-0.04
0.0
-0.03
-0.08
-0.15
-0.15
-0.19
-0.175
-0.185
-0.12
-0.07
-0.05
0.065
0.24
0.29
0.37
0.395
0.45
0.605
0.675
0.785
0.845
0.83
0.805
0.675
0.54
0.405
0.24
0.075
-0.02
-0.115
-0.155
-0.13
-0.125
-0.07
-0.045
-0.035
-0.05
-0.035
0.015
-0.005
-0.015
0.035
0.05
0.02
0.045
0.055
0.05
0.03
0.055
0.07
0.04
0.065
0.055
0.025
0.04
0.02
0.005
0.02
0.06
0.095
0.015
0.025
0.04
0.035
0.055
0.04
0.065
0.045
0.06
0.105
0.025
0.05
0.065
0.065
0.115
0.11
0.065
0.075
0.09
0.08
0.095
0.1
0.155
0.115
0.075
0.08
0.11
0.065
0.075
0.135
0.14
0.1
0.13
0.14
0.12
0.135
0.14
0.11
0.15
0.17
0.17
0.28
0.22
0.165
0.175
0.165
0.225
0.235
0.21
0.19
0.21
0.26
0.255
0.235
0.28
0.31
0.325
0.335
0.36
0.35
0.36
0.38
0.38
0.38
0.405
0.41
0.4
0.4
0.38
0.4
0.425
0.435
0.43
0.405
0.38
0.43
0.43
0.44
0.405
0.39
0.39
0.42
0.38
0.29
0.255
0.27
0.295
0.3
0.255
0.215
0.225
0.225
0.18
0.175
0.18
0.155
0.125
0.165
0.095
0.085
0.1
0.115
0.12
0.085
0.045
0.085
0.005
0.03
0.045
0.0
0.055
0.075
0.06
0.035
-0.01
-0.015
0.06
0.075
0.085
0.055
0.03
0.08
0.035
0.015
0.04
0.06
-0.025
0.02
0.06
-0.035
-0.01
0.05
0.05
0.055
0.05
0.025
-0.045
0.065
0.065
0.02
0.035
0.08
0.055
0.07
0.045
0.05
0.02
0.025
0.045
0.075
0.05
0.035
0.04
0.09
0.025
0.01
0.035
0.06
0.05
0.06
0.06
0.045
0.035
0.035
0.02
0.035
0.045
0.06
0.015
0.01
0.06
0.05
0.055
0.055
0.05
0.03
0.05
0.045
0.08
0.05
0.06
0.095
0.03
0.02
0.035
0.085
0.065
0.055
0.04
0.03
0.06
0.075
0.075
0.065
-0.01
-0.03
-0.035
0.015
0.105
0.085
0.08
0.07
0.06
0.035
0.04
-0.005
-0.005
0.0
-0.015
0.015
0.09
0.095
0.055
0.065
0.075
0.09
0.05
0.025
-0.01
-0.04
0.04
0.09
0.045
0.025
0.03
0.03
0.005
0.055
0.055
0.05
0.055
0.05
0.055
0.015
-0.01
0.015
0.045
0.02
0.025
0.035
0.055
0.02
0.02
0.04
0.045
0.03
0.035
0.03
0.005
0.08
0.025
-0.03
0.055
0.04
0.055
0.04
0.04
0.04
0.025
0.02
0.04
0.035
0.035
0.025
-0.005
-0.01
0.005
-0.005
0.01
0.03
0.055
0.065
0.075
0.075
0.06
0.035
0.045
0.055
0.005
0.02
0.02
0.025
0.025
-0.01
0.025
0.1
0.025
0.04
0.03
0.045
0.055
0.04
0.025
0.045
0.04
0.035
0.025
0.045
0.02
0.005
0.03
0.02
0.02
0.025
-0.01
-0.005
0.1
0.045
0.035
0.1
0.08
0.085
0.08
0.075
0.03
0.03
0.055
0.095
0.125
0.125
0.115
0.12
0.125
0.11
0.1
0.055
0.05
0.045
0.06
0.085
0.03
0.05
0.07
0.045
0.04
0.005
0.0
-0.025
0.06
0.07
0.0
0.0
-0.045
0.015
0.03
0.01
0.03
0.025
0.015
0.07
0.04
0.03
0.035
0.055
0.01
-0.005
0.015
0.025
0.04
0.0
-0.04
-0.05
-0.055
-0.095
-0.13
-0.085
-0.095
-0.13
-0.125
-0.085
-0.065
0.04
0.145
0.26
0.31
0.38
0.435
0.585
0.66
0.805
0.775
0.735
0.74
0.7
0.51
0.41
0.31
0.185
0.03
-0.065
-0.075
-0.12
-0.085
-0.06
-0.06
-0.03
0.01
-0.01
0.005
0.005
0.025
0.03
0.015
-0.005
0.035
0.08
0.06
0.04
0.035
0.08
0.065
0.045
-0.005
-0.005
0.015
0.03
-0.01
-0.03
0.03
0.075
0.055
0.07
0.075
0.085
0.025
0.0
0.045
0.065
0.065
0.115
0.06
0.075
0.055
0.085
0.1
0.07
0.055
0.03
0.075
0.095
0.06
0.105
0.095
0.125
0.085
0.065
0.1
0.1
0.105
0.1
0.125
0.12
0.14
0.085
0.08
0.125
0.155
0.13
0.13
0.16
0.125
0.17
0.215
0.21
0.17
0.215
0.17
0.175
0.215
0.165
0.21
0.23
0.285
0.27
0.25
0.275
0.295
0.295
0.32
0.345
0.37
0.33
0.36
0.33
0.355
0.42
0.395
0.405
0.43
0.37
0.37
0.385
0.435
0.41
0.38
0.375
0.35
0.4
0.42
0.385
0.365
0.37
0.34
0.3
0.29
0.32
0.27
0.235
0.26
0.26
0.22
0.2
0.165
0.125
0.125
0.12
0.115
0.12
0.09
0.095
0.055
0.065
0.04
0.035
0.095
0.075
0.04
0.055
0.06
0.065
0.02
0.0
0.005
0.015
0.015
0.05
0.045
-0.02
0.065
0.015
0.04
0.01
0.0
0.005
-0.01
-0.035
0.015
0.03
0.01
0.025
0.005
-0.02
-0.005
0.03
0.045
0.025
0.01
0.005
0.03
0.025
0.02
0.015
0.005
-0.01
0.015
0.0
0.015
0.015
0.075
0.025
0.05
0.0
-0.075
-0.035
0.045
0.025
0.025
0.015
0.055
0.02
0.015
0.025
0.05
0.015
0.03
0.055
0.05
0.045
0.045
0.075
0.08
0.015
-0.04
0.06
0.025
0.03
0.03
0.015
0.05
0.03
0.005
0.03
0.04
0.0
-0.01
-0.01
0.0
0.02
0.03
0.045
0.005
0.07
0.01
-0.01
0.035
0.035
0.015
0.02
0.045
0.045
0.005
0.005
-0.025
-0.05
-0.02
0.005
0.02
0.065
0.06
0.0
-0.005
0.045
0.045
0.01
0.05
0.015
0.0
0.02
0.02
0.015
-0.01
-0.015
-0.015
-0.05
-0.005
0.025
0.02
0.005
0.025
0.03
0.0
-0.01
0.0
0.025
0.025
0.005
-0.01
0.005
-0.015
-0.025
-0.03
-0.065
-0.055
0.02
0.035
-0.005
0.03
0.025
0.07
0.005
-0.015
-0.045
-0.015
-0.015
-0.02
-0.005
0.025
0.045
-0.02
0.005
0.01
-0.035
-0.045
-0.03
-0.01
0.01
0.055
0.015
0.005
-0.005
0.02
-0.02
-0.035
0.0
0.045
-0.01
0.0
-0.015
0.005
-0.005
-0.02
-0.05
-0.11
-0.045
0.015
-0.015
-0.045
0.035
0.055
0.045
0.03
0.01
-0.015
0.03
-0.02
-0.005
0.03
0.02
0.0
-0.015
-0.05
-0.095
-0.085
0.075
0.08
0.08
0.085
0.075
0.055
0.075
0.125
0.1
0.09
0.08
0.075
0.055
0.04
0.075
0.025
0.02
-0.04
-0.035
-0.05
-0.035
0.045
0.03
0.02
0.035
0.025
0.025
-0.015
-0.05
-0.025
-0.025
-0.005
-0.015
-0.005
-0.03
-0.06
-0.045
-0.05
-0.065
-0.02
0.05
0.035
-0.015
0.045
-0.005
-0.01
-0.025
-0.05
-0.045
-0.06
-0.065
-0.065
-0.15
-0.19
-0.185
-0.245
-0.225
-0.11
-0.12
-0.075
0.055
0.15
0.24
0.335
0.42
0.47
0.54
0.66
0.735
0.74
0.775
0.8
0.755
0.605
0.45
0.3
0.13
-0.005
-0.115
-0.13
-0.13
-0.12
-0.095
-0.035
-0.02
-0.01
0.015
-0.015
-0.03
-0.04
-0.06
-0.035
0.04
0.02
0.01
0.01
0.015
-0.015
-0.02
-0.01
0.02
0.01
0.03
0.035
0.03
-0.005
-0.01
-0.035
-0.035
0.065
0.04
0.0
0.01
0.05
0.03
0.01
0.0
0.04
0.02
0.04
0.045
0.02
0.01
0.085
0.1
0.045
0.055
0.005
-0.015
0.035
0.065
0.035
0.05
0.025
0.05
0.085
0.055
0.08
0.07
0.075
0.03
0.07
0.07
0.085
0.065
0.055
0.11
0.135
0.09
0.12
0.165
0.13
0.17
0.135
0.135
0.18
0.21
0.175
0.175
0.2
0.17
0.2
0.235
0.255
0.25
0.255
0.295
0.3
0.27
0.275
0.295
0.315
0.28
0.3
0.335
0.36
0.4
0.365
0.34
0.345
0.345
0.34
0.435
0.4
0.365
0.345
0.345
0.365
0.35
0.35
0.355
0.26
0.31
0.285
0.265
0.24
0.23
0.19
0.175
0.15
0.13
0.115
0.15
0.165
0.055
0.09
0.095
0.085
0.1
0.09
0.0
0.01
0.045
0.055
0.04
0.03
0.01
-0.015
-0.01
0.005
0.01
0.005
0.025
0.0
-0.035
-0.04
-0.01
-0.035
-0.05
-0.02
-0.03
-0.02
-0.02
0.0
-0.02
-0.03
-0.005
-0.01
-0.05
-0.025
-0.045
0.005
0.01
0.0
-0.01
0.01
-0.005
-0.005
0.0
-0.03
-0.05
-0.055
0.01
-0.03
-0.07
-0.02
0.055
0.015
-0.025
-0.03
-0.025
0.01
0.035
0.01
-0.015
-0.03
-0.03
-0.03
-0.025
-0.025
0.04
0.025
0.0
0.005
0.0
0.025
0.005
-0.055
-0.075
-0.07
-0.07
0.03
0.08
0.065
0.04
-0.015
-0.025
-0.06
-0.01
0.015
-0.02
0.02
0.08
0.005
-0.025
-0.035
-0.01
-0.025
-0.03
-0.015
-0.04
-0.02
0.02
-0.02
0.05
0.035
0.02
0.0
0.02
-0.005
-0.015
-0.005
0.0
0.0
-0.04
-0.04
-0.025
-0.045
-0.015
0.025
0.005
-0.005
0.04
0.04
0.01
0.005
-0.005
-0.055
-0.035
-0.045
-0.075
-0.035
0.01
-0.025
-0.03
0.02
0.03
0.0
-0.015
-0.025
0.01
0.045
-0.015
-0.035
-0.04
-0.03
-0.05
-0.025
-0.055
-0.02
-0.05
-0.03
-0.04
-0.045
-0.015
0.015
0.04
0.01
0.025
-0.035
-0.025
0.005
0.0
0.0
-0.03
-0.005
0.0
-0.055
0.0
-0.015
-0.025
-0.035
-0.005
0.0
-0.015
-0.03
-0.045
-0.06
-0.025
-0.025
-0.015
-0.025
-0.005
-0.005
-0.02
-0.025
-0.05
-0.045
-0.055
-0.03
-0.01
0.025
-0.015
0.01
-0.02
-0.025
-0.035
-0.035
0.02
0.02
-0.02
-0.03
-0.065
-0.015
0.045
0.04
-0.035
0.005
0.02
0.015
0.06
0.08
0.045
0.075
0.105
0.065
0.09
0.075
0.04
0.045
0.015
0.015
0.03
0.035
-0.045
-0.025
-0.035
-0.005
0.04
0.06
-0.08
-0.085
-0.025
-0.01
-0.045
-0.015
0.015
-0.005
-0.01
-0.05
0.0
0.03
-0.015
-0.075
-0.065
-0.065
-0.025
0.005
-0.03
-0.035
-0.035
0.015
-0.035
-0.05
-0.02
-0.05
-0.025
-0.05
-0.105
-0.15
-0.155
-0.165
-0.24
-0.2
-0.195
-0.185
-0.06
0.005
0.09
0.165
0.325
0.395
0.46
0.525
0.635
0.715
0.815
0.795
0.795
0.745
0.605
0.45
0.335
0.19
0.04
-0.065
-0.065
-0.14
-0.12
-0.085
-0.04
-0.015
0.005
-0.035
-0.03
-0.05
-0.02
0.025
0.035
0.035
0.015
0.015
0.03
0.035
0.01
-0.015
0.03
0.03
-0.05
-0.065
-0.035
0.005
0.02
0.025
0.005
-0.025
-0.02
-0.005
0.05
0.045
0.04
0.035
0.015
0.01
0.0
-0.01
0.015
0.025
0.005
-0.005
0.015
0.04
0.005
0.03
0.05
0.045
0.07
0.06
0.095
0.075
0.1
0.065
0.05
0.085
0.09
0.055
0.075
0.06
0.085
0.095
0.09
0.115
0.095
0.13
0.115
0.1
0.13
0.095
0.11
0.105
0.12
0.135
0.135
0.2
0.175
0.19
0.22
0.205
0.215
0.215
0.255
0.255
0.315
0.25
0.275
0.27
0.28
0.28
0.29
0.375
0.4
0.355
0.335
0.365
0.385
0.37
0.37
0.375
0.355
0.375
0.43
0.37
0.335
0.315
0.35
0.35
0.36
0.335
0.325
0.26
0.185
0.175
0.285
0.3
0.255
0.195
0.165
0.16
0.115
0.105
0.115
0.07
0.065
0.075
0.075
0.065
0.055
0.04
0.005
0.05
0.06
0.035
0.015
0.015
-0.005
0.0
0.04
0.025
-0.01
0.015
-0.03
-0.02
-0.04
-0.085
-0.07
-0.015
0.015
-0.015
0.015
0.03
0.01
0.05
-0.06
-0.045
-0.045
-0.05
-0.07
-0.06
-0.035
0.03
0.065
0.055
0.005
0.005
-0.03
-0.015
0.02
-0.03
-0.045
0.01
-0.005
-0.065
-0.025
-0.005
-0.055
-0.02
-0.02
0.03
0.005
-0.015
0.0
0.0
0.0
-0.005
-0.01
-0.025
0.005
-0.045
-0.015
0.02
0.0
0.035
-0.02
0.035
-0.065
-0.035
0.005
0.035
0.015
0.045
0.015
0.005
0.025
0.02
0.035
0.025
0.015
-0.02
-0.02
-0.04
-0.03
0.015
0.01
-0.035
0.0
0.025
-0.055
-0.035
0.045
0.025
0.025
0.04
-0.015
-0.03
0.01
0.005
0.01
-0.015
0.005
0.025
-0.035
-0.06
-0.01
-0.03
-0.01
0.04
0.01
-0.01
0.04
0.035
0.015
-0.035
0.0
0.0
-0.025
-0.055
-0.045
-0.04
0.015
0.03
0.035
-0.015
0.01
0.0
0.01
-0.03
0.01
-0.01
-0.03
0.005
-0.04
0.025
0.015
0.01
0.0
-0.015
-0.02
-0.055
-0.025
0.04
0.02
-0.05
-0.025
-0.025
-0.015
-0.04
-0.01
0.015
-0.005
0.01
0.02
-0.03
-0.045
-0.04
-0.06
-0.035
-0.025
-0.02
-0.025
0.025
0.025
0.0
0.02
0.015
-0.035
0.005
0.005
0.01
0.0
-0.015
-0.035
-0.085
0.01
-0.005
-0.025
-0.01
-0.055
-0.015
0.02
0.02
0.02
-0.005
0.0
-0.03
-0.025
-0.03
-0.015
-0.02
-0.02
0.0
-0.03
-0.01
0.0
-0.02
0.07
0.05
-0.005
0.03
0.06
0.035
0.055
0.08
0.05
0.055
0.105
0.115
0.105
0.085
0.055
0.0
0.04
0.055
0.005
0.02
0.025
0.015
0.03
0.015
0.04
0.005
0.01
-0.005
-0.025
-0.01
-0.015
-0.02
-0.01
0.025
-0.005
-0.035
0.01
-0.025
-0.015
-0.04
0.02
0.01
-0.04
-0.015
0.005
-0.045
-0.065
-0.065
-0.045
-0.055
0.025
-0.005
-0.045
-0.08
-0.085
-0.135
-0.175
-0.15
-0.205
-0.23
-0.12
-0.04
0.045
0.18
0.29
0.375
0.445
0.555
0.635
0.675
0.78
0.82
0.855
0.85
0.735
0.56
0.38
0.26
0.1
-0.025
-0.11
-0.14
-0.125
-0.065
-0.015
0.01
-0.025
0.0
0.045
0.01
-0.01
0.02
0.025
0.03
0.035
0.025
0.035
0.01
0.01
0.055
0.04
0.05
0.03
0.045
0.08
-0.02
-0.025
0.055
0.055
-0.015
0.0
0.01
0.055
0.08
0.05
0.035
0.08
0.015
-0.03
0.0
0.03
0.025
0.075
0.06
0.02
0.05
0.06
0.055
0.095
0.1
0.065
0.085
0.095
0.12
0.105
0.1
0.115
0.095
0.095
0.075
0.07
0.095
0.105
0.12
0.18
0.105
0.085
0.11
0.12
0.165
0.145
0.13
0.135
0.175
0.17
0.195
0.19
0.195
0.195
0.23
0.235
0.215
0.3
0.26
0.255
0.265
0.27
0.295
0.27
0.335
0.345
0.345
0.345
0.36
0.39
0.425
0.4
0.395
0.4
0.385
0.42
0.42
0.385
0.385
0.395
0.415
0.42
0.43
0.39
0.385
0.375
0.38
0.355
0.36
0.305
0.295
0.335
0.31
0.26
0.24
0.215
0.22
0.195
0.195
0.185
0.17
0.16
0.125
0.07
0.08
0.07
0.035
0.065
0.09
0.15
0.12
0.095
0.01
0.035
0.03
0.045
0.045
0.065
0.08
0.045
0.0
0.01
-0.04
0.01
0.06
0.005
0.065
0.05
0.025
0.015
0.04
0.055
0.08
0.06
0.04
-0.01
-0.015
0.015
0.05
0.075
0.02
0.05
0.025
0.025
0.01
0.05
-0.01
0.04
0.045
0.035
0.035
0.005
0.085
0.09
0.055
0.035
0.035
0.03
0.07
0.08
-0.005
0.025
0.04
0.04
0.03
0.015
0.03
0.05
0.015
0.045
0.06
0.095
0.08
0.015
0.015
0.07
0.075
0.09
0.065
0.06
0.02
0.005
0.03
0.105
0.09
0.035
0.02
0.05
0.085
0.055
0.075
0.115
0.07
0.05
0.075
0.015
0.045
0.04
0.01
0.07
0.16
0.105
0.035
0.07
0.105
0.035
0.0
0.0
0.035
0.07
0.07
0.025
0.05
0.1
0.095
0.01
0.02
0.06
0.055
0.065
0.05
0.065
0.085
0.04
0.035
0.03
0.045
0.09
0.1
0.04
0.035
0.05
0.01
0.06
0.08
0.08
0.055
0.08
0.065
0.02
0.025
0.03
0.035
0.07
0.06
0.02
0.065
0.045
0.05
0.035
0.09
0.09
0.05
0.02
0.045
0.08
0.09
0.12
0.06
0.105
0.08
0.05
0.01
0.04
0.085
0.075
0.07
0.07
0.025
0.035
0.055
0.04
0.04
0.045
0.04
0.02
0.055
0.095
0.115
0.06
0.105
0.065
0.05
0.04
0.05
0.07
0.075
0.05
0.02
0.0
-0.045
0.005
0.11
0.11
0.105
0.1
0.055
0.095
0.115
0.12
0.07
0.065
0.08
0.065
0.105
0.095
0.12
0.135
0.145
0.13
0.155
0.125
0.105
0.16
0.15
0.12
0.045
0.065
0.145
0.14
0.115
0.08
0.085
0.07
0.06
0.065
0.08
0.07
0.07
0.04
0.1
0.085
0.05
0.04
0.065
0.085
0.115
0.105
0.09
0.085
0.04
0.035
0.07
0.05
0.05
0.045
0.05
0.075
0.055
0.025
0.055
0.055
0.06
0.07
-0.01
-0.015
-0.025
-0.045
-0.105
-0.095
-0.055
-0.045
-0.035
0.035
0.18
0.32
0.41
0.49
0.475
0.58
0.685
0.77
0.81
0.83
0.8
0.78
0.67
0.53
0.365
0.225
0.04
-0.055
-0.1
-0.125
-0.08
0.0
0.015
0.02
0.035
0.095
0.015
0.05
0.065
0.08
0.04
0.115
0.125
0.105
0.08
0.11
0.085
0.065
0.085
0.085
0.15
0.11
0.105
0.08
0.08
0.05
0.09
0.115
0.11
0.095
0.075
0.085
0.115
0.13
0.1
0.115
0.12
0.06
0.06
0.11
0.11
0.135
0.155
0.09
0.11
0.11
0.08
0.105
0.135
0.155
0.145
0.165
0.185
0.17
0.155
0.155
0.18
0.155
0.145
0.19
0.175
0.16
0.195
0.17
0.205
0.23
0.225
0.18
0.215
0.225
0.19
0.235
0.24
0.235
0.255
0.305
0.265
0.23
0.22
0.27
0.295
0.37
0.32
0.35
0.36
0.335
0.355
0.42
0.365
0.36
0.37
0.395
0.385
0.43
0.45
0.445
0.41
0.42
0.495
0.5
0.43
0.45
0.47
0.43
0.46
0.48
0.435
0.425
0.44
0.395
0.355
0.38
0.355
0.325
0.245
0.235
0.25
0.255
0.27
0.215
0.24
0.235
0.225
0.215
0.195
0.145
0.125
0.14
0.11
0.08
0.055
0.13
0.135
0.09
0.105
0.11
0.095
0.085
0.085
0.075
0.08
0.14
0.135
0.08
0.08
0.045
0.01
0.045
0.09
0.075
0.045
0.095
0.07
0.07
0.07
0.025
0.025
0.08
0.11
0.035
0.07
0.075
0.05
0.035
0.03
0.08
0.05
0.07
0.015
0.045
0.075
0.085
0.085
0.11
0.065
0.04
0.055
0.06
0.035
0.055
0.12
0.11
0.07
0.02
0.1
0.085
0.045
0.095
0.085
0.015
0.035
0.08
0.05
0.015
0.04
0.05
0.06
0.095
0.065
0.045
0.125
0.155
0.045
0.04
0.065
0.075
0.075
0.065
0.08
0.03
0.07
0.12
0.11
0.065
0.075
0.055
0.06
0.045
0.035
0.04
0.09
0.135
0.07
0.085
0.07
0.055
0.07
0.08
0.045
0.06
0.045
-0.045
0.05
0.07
0.035
0.005
0.035
0.11
0.065
0.055
0.045
0.065
0.05
0.03
0.06
0.07
0.06
0.045
0.01
0.035
0.085
0.1
0.085
0.02
0.02
0.02
0.055
0.075
0.08
0.035
0.07
0.055
0.065
0.055
0.065
0.05
0.025
-0.01
-0.03
0.03
0.03
0.04
0.025
0.055
0.025
0.02
-0.005
0.035
0.07
0.08
0.045
0.045
0.015
0.0
0.015
0.04
0.075
0.04
-0.005
0.03
0.095
0.06
0.08
0.045
0.035
0.02
0.04
0.04
0.015
0.035
0.01
0.01
0.065
0.09
0.08
0.09
0.05
0.005
0.02
0.045
0.055
-0.02
-0.015
0.01
0.035
0.01
0.02
0.035
0.015
0.02
0.1
0.085
0.055
0.01
0.035
0.06
0.1
0.075
0.02
0.05
0.05
0.08
0.065
0.06
0.075
0.13
0.125
0.125
0.12
0.145
0.125
0.085
0.08
0.1
0.08
0.045
0.045
0.07
0.06
0.055
0.04
0.03
0.01
0.01
0.025
-0.015
0.015
0.0
0.015
0.025
0.02
0.01
0.065
0.06
0.005
0.035
0.03
0.015
0.025
0.04
0.01
0.015
0.035
0.015
-0.005
0.0
-0.03
-0.025
0.005
0.045
0.0
-0.06
-0.1
-0.11
-0.185
-0.155
-0.115
-0.135
-0.09
0.015
0.115
0.22
0.315
0.37
0.39
0.53
0.695
0.765
0.815
0.83
0.885
0.83
0.675
0.52
0.39
0.235
0.09
-0.025
-0.05
-0.055
-0.07
-0.04
-0.05
-0.065
-0.08
0.005
0.03
0.05
0.08
0.1
0.08
0.04
0.04
0.04
0.03
0.075
0.045
0.075
0.06
0.005
-0.03
-0.055
-0.05
0.045
0.05
0.06
0.05
0.035
0.065
0.085
0.055
0.035
0.09
0.065
0.06
0.065
0.055
0.05
0.05
0.035
0.04
0.06
0.045
0.04
0.055
0.08
0.05
0.075
0.11
0.14
0.115
0.12
0.11
0.08
0.075
0.13
0.125
0.105
0.115
0.04
0.09
0.11
0.14
0.15
0.1
0.11
0.18
0.145
0.15
0.17
0.195
0.175
0.17
0.17
0.145
0.145
0.15
0.18
0.24
0.24
0.28
0.29
0.3
0.25
0.285
0.295
0.295
0.345
0.37
0.33
0.33
0.305
0.335
0.34
0.41
0.375
0.37
0.43
0.44
0.395
0.36
0.41
0.455
0.45
0.375
0.415
0.36
0.365
0.405
0.415
0.36
0.315
0.31
0.27
0.26
0.23
0.24
0.195
0.185
0.18
0.18
0.18
0.085
0.07
0.125
0.13
0.115
0.115
0.11
0.075
0.07
0.06
0.05
0.01
0.07
0.095
0.075
0.065
0.025
0.02
0.045
0.015
0.04
0.045
0.055
0.02
0.015
0.02
0.03
0.02
0.02
0.015
0.005
0.0
-0.01
0.02
-0.06
0.005
0.055
0.015
0.005
0.055
0.035
-0.005
-0.03
0.01
0.01
0.03
0.045
0.015
0.005
-0.005
0.0
0.04
0.025
0.015
0.04
0.035
0.03
0.015
0.015
0.05
0.025
0.065
0.05
0.025
0.035
0.055
0.085
0.075
0.01
-0.02
-0.025
0.005
0.04
0.03
0.05
0.05
0.015
0.03
0.04
0.02
0.02
0.025
0.005
0.005
-0.01
0.035
0.05
0.05
0.055
0.025
-0.03
0.065
0.085
-0.02
-0.025
0.03
0.065
0.04
0.035
0.025
0.015
0.02
-0.01
0.015
0.05
0.055
0.035
0.045
0.01
0.055
0.005
0.075
0.07
0.015
0.02
0.05
0.065
0.035
0.01
0.015
0.0
0.035
0.005
0.005
0.025
0.0
-0.01
0.05
0.035
0.025
0.04
0.01
0.0
-0.015
0.015
0.035
0.04
0.055
0.045
0.0
-0.02
0.01
0.045
-0.015
0.01
0.06
0.04
-0.03
-0.005
0.015
0.01
-0.01
0.015
0.025
0.025
0.015
0.045
0.015
0.02
0.03
-0.015
-0.025
-0.02
0.005
0.005
0.015
0.015
0.0
-0.02
-0.01
0.09
0.095
0.05
0.03
-0.02
0.0
0.005
-0.05
0.03
0.035
0.005
0.065
0.05
0.01
0.02
0.025
0.07
0.055
-0.01
-0.035
-0.01
0.045
-0.02
-0.055
-0.025
-0.005
-0.045
0.0
0.05
0.005
-0.03
0.02
0.05
0.035
0.0
0.025
0.04
0.045
0.055
0.015
0.04
0.035
0.035
0.015
-0.01
0.05
0.055
0.115
0.075
0.08
0.065
0.12
0.17
0.13
0.16
0.135
0.055
0.015
0.03
0.04
0.025
0.02
0.005
0.025
0.015
0.055
0.045
-0.005
-0.005
0.035
0.025
0.015
-0.015
-0.005
0.025
-0.005
-0.03
-0.07
0.01
0.015
0.065
0.035
0.015
0.015
0.01
0.045
0.015
0.045
0.005
-0.005
-0.045
0.0
-0.005
-0.04
-0.05
-0.09
-0.11
-0.15
-0.19
-0.19
-0.175
-0.135
-0.13
-0.035
0.095
0.135
0.205
0.275
0.375
0.475
0.6
0.73
0.785
0.79
0.825
0.825
0.705
0.635
0.49
0.34
0.22
0.075
-0.09
-0.07
-0.065
-0.045
0.0
-0.03
-0.015
-0.035
0.005
0.035
0.0
-0.03
0.05
0.07
0.01
0.02
0.045
0.0
0.03
0.015
-0.005
0.035
0.01
-0.005
0.03
0.04
0.05
-0.01
0.025
-0.02
0.0
0.035
0.07
0.04
0.055
0.075
0.09
0.03
0.025
0.06
0.045
0.06
0.065
0.01
0.04
0.05
0.04
0.0
0.11
0.11
0.055
0.08
0.125
0.105
0.055
0.09
0.09
0.06
0.08
0.085
0.035
0.02
0.055
0.105
0.13
0.165
0.115
0.11
0.115
0.145
0.12
0.175
0.19
0.15
0.17
0.16
0.17
0.18
0.17
0.16
0.205
0.155
0.245
0.25
0.215
0.26
0.265
0.295
0.33
0.335
0.315
0.335
0.295
0.33
0.315
0.37
0.35
0.34
0.345
0.375
0.375
0.415
0.43
0.45
0.395
0.41
0.365
0.36
0.38
0.385
0.355
0.38
0.33
0.29
0.265
0.24
0.25
0.25
0.21
0.215
0.2
0.225
0.195
0.155
0.185
0.14
0.095
0.135
0.155
0.085
0.04
0.06
0.02
0.065
0.04
0.035
0.05
0.05
0.07
0.03
0.11
0.06
0.035
0.065
0.07
0.05
-0.02
-0.04
-0.055
-0.025
-0.02
0.035
0.04
0.04
0.025
0.005
0.015
0.0
0.005
0.01
0.02
0.07
0.035
0.0
0.025
0.025
-0.035
-0.04
-0.06
-0.045
-0.02
0.055
0.105
0.05
-0.01
0.015
-0.015
0.015
0.075
0.04
0.035
0.02
0.025
0.015
-0.025
0.045
0.015
-0.02
-0.005
-0.005
0.025
0.1
0.045
0.015
0.065
0.03
0.045
0.035
0.025
0.035
0.05
0.03
-0.005
-0.015
-0.015
0.01
-0.015
0.04
0.03
0.055
0.05
0.06
0.03
0.025
0.045
0.05
0.01
0.03
0.03
0.03
0.0
-0.045
0.015
0.05
0.03
0.015
0.045
0.06
0.05
0.01
0.03
0.055
0.055
0.06
0.01
-0.01
0.0
0.01
0.025
0.025
0.02
0.03
-0.01
0.01
0.025
0.035
0.04
0.055
0.015
0.0
0.06
0.045
0.01
0.0
0.0
0.0
0.015
0.035
0.005
0.025
0.035
0.055
0.04
0.055
0.03
-0.03
0.01
0.03
0.035
0.01
-0.015
-0.045
-0.045
0.025
0.005
0.005
0.02
0.06
0.025
0.025
0.06
0.025
0.025
0.025
0.015
0.02
0.02
-0.01
0.02
0.02
0.055
0.005
0.035
0.03
0.02
0.015
0.005
0.0
-0.015
-0.01
0.01
-0.015
0.0
0.035
0.035
0.015
0.025
0.02
-0.005
0.0
0.05
0.005
0.015
0.04
0.02
0.02
-0.015
-0.015
0.02
0.0
-0.01
-0.04
-0.03
-0.005
0.03
0.035
0.04
0.025
0.04
0.045
0.035
0.03
0.1
0.045
-0.055
-0.045
0.005
-0.06
-0.005
0.02
-0.01
-0.005
0.03
0.07
0.03
0.0
0.05
-0.025
-0.025
0.03
0.05
0.1
0.065
0.05
0.08
0.055
0.05
0.055
0.055
0.115
0.125
0.12
0.115
0.105
0.045
0.015
0.05
0.065
0.04
0.07
0.045
0.035
0.04
0.045
0.075
0.02
0.01
0.005
-0.025
-0.005
0.05
0.015
0.02
0.025
0.005
0.025
0.025
0.025
0.0
0.035
-0.02
0.015
-0.005
0.005
0.03
0.005
-0.03
-0.025
-0.025
0.02
0.005
-0.01
-0.045
-0.015
-0.025
-0.06
-0.1
-0.145
-0.165
-0.15
-0.15
-0.155
-0.115
-0.025
0.06
0.155
0.255
0.34
0.43
0.57
0.685
0.76
0.765
0.815
0.88
0.815
0.665
0.525
0.39
0.315
0.145
0.03
-0.055
-0.09
-0.14
-0.035
0.0
0.005
0.01
-0.005
0.055
0.06
-0.01
-0.035
-0.05
-0.015
-0.025
0.04
0.09
0.08
0.07
0.045
0.04
0.05
0.025
0.075
0.07
0.03
0.03
0.05
0.09
0.015
-0.01
-0.015
0.01
0.035
0.025
0.04
0.06
0.09
0.055
0.045
0.1
0.06
0.025
0.07
0.08
0.065
0.04
0.035
0.04
0.07
0.1
0.04
0.055
0.075
0.04
0.08
0.15
0.19
0.115
0.11
0.09
0.115
0.12
0.1
0.09
0.075
0.16
0.14
0.15
0.13
0.15
0.13
0.095
0.15
0.18
0.2
0.225
0.2
0.2
0.25
0.22
0.195
0.235
0.225
0.23
0.26
0.285
0.28
0.305
0.335
0.31
0.325
0.335
0.355
0.335
0.35
0.4
0.435
0.385
0.355
0.365
0.4
0.365
0.415
0.39
0.4
0.435
0.415
0.435
0.415
0.365
0.335
0.325
0.32
0.31
0.28
0.29
0.285
0.265
0.215
0.195
0.15
0.175
0.24
0.15
0.095
0.145
0.135
0.085
0.07
0.08
0.04
0.06
0.1
0.065
0.055
0.085
0.065
0.055
0.035
0.025
-0.005
-0.05
-0.02
0.02
0.105
0.075
0.065
0.025
0.04
0.005
0.075
0.04
0.035
0.03
0.035
0.055
0.03
0.015
-0.01
-0.01
0.0
0.025
0.065
0.025
0.01
0.03
0.025
0.015
0.0
0.02
0.005
0.045
0.015
-0.005
-0.015
0.015
-0.05
-0.085
0.015
0.1
0.07
0.09
0.095
0.035
0.04
0.055
0.04
0.005
0.0
0.01
0.015
0.03
0.06
0.02
0.045
0.05
0.03
0.045
0.04
0.035
0.035
0.075
0.03
0.025
0.03
0.08
0.03
0.055
0.07
0.04
-0.06
-0.015
0.11
0.04
-0.005
-0.05
0.04
0.085
0.08
0.065
0.045
0.055
0.065
0.005
0.015
0.065
-0.005
0.065
0.045
0.0
0.02
0.08
0.02
0.0
0.05
0.075
0.03
0.04
0.04
0.045
0.035
0.03
0.025
-0.02
-0.01
0.045
0.07
0.025
0.0
0.05
0.065
0.045
0.0
-0.01
0.045
0.035
0.015
0.035
0.03
0.01
0.085
0.085
0.06
0.015
0.04
0.05
0.04
0.02
-0.015
-0.04
-0.03
0.0
0.07
0.085
0.07
0.025
0.04
0.045
0.04
-0.03
-0.01
0.025
0.04
0.065
0.06
0.01
0.025
0.015
0.025
0.04
0.04
0.035
0.025
0.065
0.025
-0.02
-0.03
0.02
0.03
0.03
0.025
0.04
0.055
-0.01
-0.01
0.07
0.07
0.055
0.035
-0.065
-0.025
0.015
0.085
0.07
0.07
0.065
0.055
0.02
0.03
-0.015
-0.03
-0.03
0.005
0.085
0.06
0.065
0.05
0.02
0.075
0.035
-0.015
-0.025
0.04
0.085
0.075
0.035
0.055
0.04
0.025
0.035
0.02
0.09
0.06
0.065
0.09
-0.015
0.005
0.06
0.02
-0.01
0.025
0.04
0.035
0.115
0.055
0.025
0.085
0.08
0.045
0.025
0.075
0.11
0.085
0.145
0.14
0.115
0.15
0.185
0.125
0.105
0.065
0.115
0.095
0.105
0.075
0.08
0.08
0.055
-0.005
0.035
0.095
0.07
0.045
0.04
0.065
0.075
0.065
-0.01
-0.005
0.01
0.02
0.025
-0.005
0.0
0.02
0.03
0.04
0.06
0.01
0.03
0.03
0.02
0.015
0.055
0.08
0.025
0.04
0.045
0.04
-0.025
-0.085
-0.115
-0.115
-0.085
-0.125
-0.115
-0.1
-0.04
0.075
0.195
0.275
0.36
0.42
0.56
0.675
0.76
0.885
0.885
0.85
0.81
0.73
0.575
0.415
0.31
0.165
0.005
-0.065
-0.07
-0.095
-0.06
-0.01
-0.005
-0.01
0.08
0.065
0.045
0.06
0.08
0.05
0.045
0.03
-0.025
0.065
0.165
0.1
0.035
0.06
0.065
0.065
0.065
0.065
0.05
0.12
0.085
0.07
0.05
0.045
0.055
0.01
0.085
0.035
0.095
0.13
0.14
0.16
0.12
0.13
0.09
0.045
0.055
0.095
0.1
0.115
0.145
0.12
0.1
0.09
0.12
0.135
0.075
0.045
0.05
0.13
0.21
0.18
0.185
0.215
0.165
0.125
0.135
0.17
0.195
0.22
0.205
0.135
0.12
0.175
0.185
0.19
0.21
0.22
0.25
0.205
0.265
0.28
0.275
0.305
0.255
0.235
0.24
0.3
0.31
0.35
0.345
0.365
0.345
0.335
0.345
0.42
0.35
0.4
0.425
0.445
0.45
0.46
0.445
0.405
0.435
0.475
0.415
0.445
0.485
0.47
0.445
0.38
0.405
0.42
0.405
0.395
0.375
0.4
0.345
0.36
0.305
0.315
0.28
0.25
0.23
0.21
0.21
0.21
0.19
0.185
0.18
0.165
0.175
0.155
0.09
0.12
0.13
0.095
0.095
0.125
0.1
0.08
0.105
0.12
0.085
0.065
0.055
0.06
0.06
0.135
0.065
0.065
0.055
0.075
0.035
0.055
0.1
0.085
0.085
0.115
0.11
0.06
0.085
0.05
0.06
0.085
0.055
0.035
0.05
0.09
0.09
0.035
0.045
0.09
0.07
0.075
0.065
0.055
0.065
0.1
0.11
0.1
0.08
0.065
0.045
0.09
0.105
0.065
0.07
0.07
0.07
0.065
0.115
0.065
0.05
0.05
0.085
0.07
0.145
0.155
0.115
0.06
0.095
0.165
0.085
0.055
0.065
0.075
0.105
0.105
0.095
0.07
0.11
0.105
0.11
0.095
0.115
0.105
0.095
0.125
0.14
0.065
0.05
0.025
0.06
0.08
0.115
0.12
0.145
0.1
0.03
0.105
0.115
0.075
0.06
0.085
0.035
0.035
0.075
0.13
0.135
0.075
0.08
0.065
0.075
0.075
0.11
0.095
0.075
0.1
0.045
0.09
0.12
0.03
0.085
0.105
0.1
0.09
0.06
0.075
0.075
0.055
0.07
0.06
0.055
0.09
0.07
0.1
0.08
0.105
0.06
0.04
0.09
0.115
0.085
0.045
0.025
0.075
0.1
0.06
0.065
0.115
0.09
0.07
0.05
0.09
0.1
0.07
0.05
0.065
0.08
0.09
0.095
0.07
0.07
0.09
0.11
0.055
0.07
0.085
0.09
0.11
0.045
0.06
0.08
0.07
0.065
0.06
0.105
0.08
0.065
0.05
0.03
0.04
0.11
0.105
0.085
0.125
0.065
-0.015
0.05
0.05
0.04
0.005
0.09
0.09
0.045
0.055
0.1
0.095
0.065
0.105
0.07
0.045
0.1
0.07
0.045
0.06
0.105
0.085
0.035
0.06
0.06
0.05
0.04
0.04
0.08
0.09
0.115
0.11
0.085
0.07
0.1
0.075
0.085
0.055
0.055
0.08
0.11
0.125
0.105
0.07
0.03
0.065
0.09
0.115
0.16
0.15
0.175
0.185
0.15
0.18
0.14
0.115
0.11
0.11
0.095
0.065
0.0
0.05
0.115
0.11
0.075
0.03
0.035
0.09
0.09
0.085
0.08
0.075
0.085
0.1
0.07
0.075
0.05
0.07
0.09
0.025
0.085
0.035
0.045
0.08
0.05
0.04
0.015
0.04
0.065
0.06
0.065
0.015
0.02
0.04
0.0
-0.035
-0.09
-0.1
-0.11
-0.09
-0.075
-0.03
0.01
0.105
0.19
0.28
0.37
0.475
0.47
0.65
0.765
0.8
0.815
0.85
0.81
0.74
0.535
0.44
0.335
0.245
0.045
-0.095
-0.04
-0.035
-0.06
-0.045
0.0
0.005
0.06
0.065
0.075
0.05
0.03
0.07
0.08
0.05
0.055
0.055
0.06
0.065
0.09
0.075
0.07
0.04
0.07
0.075
0.09
0.06
0.11
0.065
0.045
0.06
0.035
0.025
0.09
0.095
0.105
0.085
0.09
0.135
0.155
0.09
0.11
0.12
0.1
0.085
0.1
0.11
0.125
0.135
0.1
0.08
0.08
0.1
0.075
0.09
0.13
0.15
0.13
0.15
0.095
0.145
0.105
0.105
0.16
0.145
0.17
0.15
0.155
0.205
0.19
0.18
0.21
0.18
0.205
0.245
0.205
0.17
0.24
0.22
0.24
0.245
0.23
0.265
0.305
0.29
0.335
0.315
0.3
0.33
0.35
0.37
0.36
0.35
0.385
0.33
0.375
0.39
0.385
0.415
0.43
0.43
0.445
0.335
0.405
0.43
0.44
0.42
0.425
0.465
0.435
0.42
0.365
0.32
0.355
0.375
0.33
0.325
0.315
0.29
0.285
0.24
0.26
0.245
0.19
0.17
0.12
0.15
0.185
0.17
0.145
0.125
0.13
0.105
0.095
0.1
0.105
0.09
0.095
0.065
0.04
0.09
0.095
0.01
0.05
0.075
0.055
-0.02
0.04
0.045
0.045
0.025
0.01
0.015
0.02
0.085
0.095
0.065
0.04
0.03
0.01
0.04
0.055
0.04
0.02
0.05
0.07
0.025
0.06
0.03
0.01
0.085
0.09
0.015
0.12
0.085
0.07
0.035
0.075
0.045
0.055
0.065
0.025
0.05
0.05
0.03
0.0
0.05
0.055
0.065
0.03
0.055
0.055
0.045
0.055
0.055
0.015
0.085
0.115
0.08
0.07
0.06
0.045
0.04
0.105
0.075
0.055
0.08
0.055
0.025
0.015
0.08
0.08
0.12
0.045
0.02
0.07
0.07
0.075
0.06
0.04
0.09
0.025
0.03
0.02
0.05
0.11
0.085
0.07
0.065
0.05
0.055
0.04
0.01
0.08
0.09
0.1
0.055
0.09
0.055
0.05
0.02
0.02
0.065
0.07
0.02
0.015
0.075
0.085
0.045
0.065
0.075
0.015
0.035
0.07
0.045
0.05
0.11
0.08
0.06
0.02
0.065
0.03
0.015
0.04
0.005
0.03
0.075
0.055
0.03
0.035
0.08
0.04
0.045
0.035
0.02
-0.02
0.025
0.075
0.06
0.025
0.08
0.05
0.09
0.035
0.0
0.035
0.1
0.05
0.02
0.04
0.055
0.04
0.02
0.03
0.025
0.04
0.075
0.07
0.025
0.055
0.075
0.03
0.02
0.025
0.02
0.045
0.11
0.075
0.025
0.04
0.025
0.03
0.03
0.025
0.01
0.025
0.035
0.035
0.035
0.025
-0.005
0.025
0.02
0.075
0.06
0.085
0.045
0.045
0.02
0.055
0.025
-0.03
0.035
0.075
0.11
0.085
0.01
0.005
0.0
0.02
0.03
0.03
0.07
0.11
0.085
0.055
0.06
0.06
0.085
0.065
0.105
0.035
0.055
0.085
0.055
0.09
0.07
0.06
0.05
0.105
0.135
0.12
0.13
0.105
0.13
0.135
0.12
0.115
0.1
0.07
0.075
0.06
0.075
0.06
0.045
0.055
0.055
0.065
0.12
0.05
0.0
-0.01
-0.01
0.05
0.025
0.03
0.045
0.045
0.015
0.05
0.05
0.025
0.055
0.05
0.045
0.065
0.025
0.025
0.04
0.005
0.005
0.05
0.04
-0.015
-0.01
-0.02
-0.065
-0.145
-0.155
-0.155
-0.105
-0.07
-0.005
0.045
0.105
0.205
0.29
0.335
0.445
0.61
0.68
0.79
0.87
0.88
0.855
0.875
0.72
0.545
0.375
0.275
0.105
-0.045
-0.065
-0.095
-0.06
0.05
0.08
0.025
0.04
0.04
0.055
0.055
0.045
0.045
0.06
0.085
0.075
0.075
0.05
0.04
0.025
0.04
0.08
0.03
0.115
0.07
0.085
0.105
0.055
0.07
0.01
0.045
0.07
0.05
0.06
0.12
0.075
0.08
0.105
0.065
0.02
0.04
0.065
0.06
0.07
0.095
0.1
0.09
0.155
0.13
0.065
0.085
0.095
0.095
0.09
0.13
0.1
0.135
0.115
0.105
0.105
0.11
0.085
0.155
0.155
0.205
0.195
0.165
0.165
0.145
0.17
0.18
0.15
0.16
0.165
0.2
0.225
0.25
0.215
0.19
0.19
0.25
0.24
0.23
0.245
0.24
0.255
0.335
0.32
0.29
0.285
0.285
0.345
0.36
0.405
0.4
0.395
0.35
0.34
0.34
0.38
0.43
0.43
0.435
0.495
0.465
0.435
0.435
0.44
0.455
0.41
0.425
0.42
0.385
0.39
0.37
0.325
0.35
0.305
0.265
0.24
0.28
0.255
0.205
0.235
0.2
0.175
0.17
0.195
0.175
0.135
0.115
0.085
0.09
0.13
0.125
0.08
0.06
0.06
0.055
0.035
0.0
0.05
0.105
0.115
0.11
0.115
0.06
0.07
0.025
0.045
0.055
0.075
0.065
0.075
0.075
0.065
0.06
0.055
0.035
0.03
0.025
0.05
0.065
0.07
0.025
0.02
0.065
0.065
0.06
0.085
0.05
0.02
0.02
0.04
0.03
0.075
0.035
0.01
0.05
0.055
0.04
0.06
0.05
0.09
0.085
0.105
0.085
0.045
0.035
0.08
0.07
0.04
0.045
0.08
0.075
0.065
0.07
0.09
0.045
0.115
0.05
0.055
0.07
0.065
0.05
0.055
0.055
0.06
0.07
0.055
0.045
0.0
0.085
0.115
0.055
0.06
0.06
0.045
0.015
0.04
0.105
0.1
0.09
0.04
0.045
0.095
0.095
0.06
0.055
0.07
0.055
0.04
0.075
0.09
0.075
0.055
0.045
0.09
0.08
0.045
0.1
0.11
0.09
0.045
0.05
0.095
0.03
0.01
0.025
0.05
0.05
0.015
0.065
0.06
0.065
0.07
0.065
0.01
0.02
0.065
0.025
0.035
0.065
0.075
0.045
0.04
0.08
0.035
0.035
0.04
0.075
0.045
0.07
0.11
0.03
0.075
0.045
0.0
0.07
0.085
0.07
0.065
0.04
0.02
0.04
0.045
0.03
0.02
0.04
0.055
0.04
0.085
0.08
0.08
0.08
0.03
0.06
0.015
0.03
0.015
0.03
0.02
0.06
0.045
0.045
0.055
0.025
-0.005
0.045
0.05
0.06
0.06
0.09
0.09
