# TIPE ECG 2021 - ECG-ID Database v1.0.0 par Physionet
# [N° de la personne, N° de l'enregistrement, Période d'échantillonnage, Prénom, Age, Sexe, Date de l'enregistrement]
[30, 5, 0.002, "Malo", 28, "H", "24.05.2005"]
-0.815
-0.795
-0.83
-0.855
-0.835
-0.815
-0.83
-0.825
-0.83
-0.77
-0.78
-0.805
-0.86
-0.86
-0.88
-0.865
-0.835
-0.83
-0.82
-0.83
-0.82
-0.82
-0.815
-0.84
-0.825
-0.785
-0.83
-0.86
-0.825
-0.845
-0.83
-0.835
-0.86
-0.885
-0.8
-0.83
-0.86
-0.845
-0.825
-0.835
-0.82
-0.835
-0.84
-0.855
-0.84
-0.85
-0.85
-0.83
-0.805
-0.83
-0.84
-0.825
-0.86
-0.855
-0.795
-0.78
-0.86
-0.845
-0.85
-0.855
-0.875
-0.84
-0.85
-0.825
-0.805
-0.82
-0.89
-0.87
-0.81
-0.85
-0.885
-0.835
-0.855
-0.825
-0.845
-0.83
-0.86
-0.83
-0.825
-0.815
-0.845
-0.835
-0.865
-0.875
-0.885
-0.84
-0.83
-0.82
-0.845
-0.84
-0.87
-0.865
-0.83
-0.785
-0.81
-0.78
-0.855
-0.885
-0.815
-0.84
-0.87
-0.83
-0.88
-0.825
-0.79
-0.855
-0.815
-0.81
-0.87
-0.85
-0.825
-0.825
-0.835
-0.84
-0.81
-0.81
-0.81
-0.84
-0.875
-0.855
-0.84
-0.805
-0.85
-0.84
-0.835
-0.86
-0.86
-0.83
-0.84
-0.87
-0.85
-0.875
-0.815
-0.755
-0.815
-0.815
-0.83
-0.845
-0.85
-0.855
-0.83
-0.845
-0.82
-0.83
-0.82
-0.875
-0.84
-0.825
-0.795
-0.81
-0.87
-0.83
-0.82
-0.845
-0.86
-0.855
-0.85
-0.83
-0.81
-0.83
-0.855
-0.9
-0.85
-0.8
-0.82
-0.835
-0.81
-0.825
-0.81
-0.79
-0.765
-0.875
-0.885
-0.88
-0.845
-0.8
-0.8
-0.865
-0.855
-0.825
-0.85
-0.87
-0.825
-0.825
-0.84
-0.835
-0.795
-0.8
-0.845
-0.86
-0.81
-0.88
-0.855
-0.835
-0.83
-0.815
-0.78
-0.865
-0.85
-0.83
-0.86
-0.83
-0.815
-0.86
-0.825
-0.835
-0.825
-0.82
-0.845
-0.835
-0.82
-0.84
-0.84
-0.86
-0.85
-0.875
-0.805
-0.79
-0.79
-0.795
-0.805
-0.87
-0.845
-0.835
-0.835
-0.875
-0.85
-0.845
-0.865
-0.845
-0.865
-0.83
-0.82
-0.795
-0.78
-0.825
-0.81
-0.83
-0.86
-0.835
-0.81
-0.85
-0.87
-0.82
-0.835
-0.86
-0.82
-0.82
-0.86
-0.88
-0.85
-0.82
-0.835
-0.84
-0.85
-0.805
-0.8
-0.85
-0.865
-0.815
-0.8
-0.76
-0.825
-0.845
-0.89
-0.855
-0.81
-0.8
-0.775
-0.79
-0.785
-0.79
-0.795
-0.83
-0.845
-0.77
-0.815
-0.785
-0.785
-0.795
-0.805
-0.84
-0.78
-0.785
-0.805
-0.84
-0.805
-0.865
-0.785
-0.765
-0.765
-0.805
-0.825
-0.785
-0.77
-0.74
-0.82
-0.815
-0.82
-0.82
-0.855
-0.845
-0.845
-0.855
-0.85
-0.835
-0.84
-0.86
-0.845
-0.845
-0.935
-0.905
-0.865
-0.825
-0.87
-0.82
-0.825
-0.825
-0.87
-0.87
-0.8
-0.8
-0.845
-0.86
-0.88
-0.895
-0.85
-0.945
-0.955
-0.99
-1.005
-1.035
-1.075
-1.06
-0.97
-0.83
-0.7
-0.585
-0.46
-0.34
-0.205
-0.095
0.065
0.185
0.34
0.57
0.735
0.815
0.83
0.79
0.705
0.505
0.305
0.01
-0.32
-0.58
-0.715
-0.82
-0.84
-0.86
-0.865
-0.815
-0.84
-0.895
-0.84
-0.84
-0.845
-0.835
-0.83
-0.79
-0.805
-0.8
-0.82
-0.83
-0.845
-0.805
-0.84
-0.825
-0.815
-0.855
-0.865
-0.82
-0.835
-0.82
-0.805
-0.825
-0.775
-0.775
-0.825
-0.87
-0.84
-0.815
-0.84
-0.84
-0.78
-0.76
-0.815
-0.805
-0.745
-0.79
-0.825
-0.83
-0.815
-0.81
-0.82
-0.795
-0.78
-0.785
-0.76
-0.735
-0.775
-0.805
-0.77
-0.745
-0.765
-0.715
-0.745
-0.745
-0.745
-0.725
-0.73
-0.72
-0.735
-0.73
-0.69
-0.66
-0.735
-0.73
-0.68
-0.705
-0.74
-0.71
-0.625
-0.615
-0.675
-0.67
-0.635
-0.6
-0.635
-0.635
-0.61
-0.63
-0.58
-0.585
-0.545
-0.53
-0.58
-0.55
-0.545
-0.55
-0.54
-0.485
-0.52
-0.495
-0.43
-0.42
-0.48
-0.44
-0.435
-0.46
-0.465
-0.465
-0.445
-0.445
-0.425
-0.415
-0.43
-0.45
-0.435
-0.435
-0.44
-0.505
-0.495
-0.465
-0.44
-0.53
-0.53
-0.525
-0.55
-0.555
-0.56
-0.65
-0.66
-0.67
-0.69
-0.675
-0.73
-0.73
-0.69
-0.73
-0.75
-0.755
-0.785
-0.77
-0.755
-0.795
-0.79
-0.79
-0.785
-0.85
-0.81
-0.805
-0.815
-0.8
-0.79
-0.81
-0.83
-0.785
-0.77
-0.84
-0.835
-0.82
-0.83
-0.81
-0.8
-0.86
-0.86
-0.87
-0.865
-0.83
-0.785
-0.835
-0.835
-0.835
-0.84
-0.81
-0.845
-0.835
-0.84
-0.85
-0.8
-0.83
-0.83
-0.825
-0.8
-0.86
-0.88
-0.83
-0.8
-0.83
-0.845
-0.845
-0.84
-0.84
-0.83
-0.87
-0.805
-0.78
-0.84
-0.83
-0.85
-0.885
-0.845
-0.84
-0.82
-0.815
-0.845
-0.835
-0.83
-0.84
-0.84
-0.845
-0.865
-0.855
-0.845
-0.825
-0.785
-0.775
-0.825
-0.86
-0.855
-0.855
-0.85
-0.81
-0.815
-0.835
-0.825
-0.85
-0.805
-0.865
-0.785
-0.78
-0.845
-0.83
-0.83
-0.83
-0.82
-0.79
-0.795
-0.79
-0.78
-0.865
-0.915
-0.88
-0.83
-0.845
-0.845
-0.82
-0.82
-0.865
-0.885
-0.855
-0.82
-0.805
-0.835
-0.835
-0.855
-0.845
-0.865
-0.825
-0.805
-0.79
-0.83
-0.85
-0.83
-0.84
-0.845
-0.84
-0.9
-0.84
-0.785
-0.87
-0.855
-0.82
-0.82
-0.805
-0.82
-0.82
-0.885
-0.905
-0.875
-0.82
-0.825
-0.82
-0.845
-0.835
-0.84
-0.825
-0.89
-0.875
-0.855
-0.835
-0.85
-0.83
-0.845
-0.83
-0.865
-0.845
-0.855
-0.87
-0.84
-0.835
-0.885
-0.82
-0.83
-0.84
-0.845
-0.84
-0.88
-0.86
-0.88
-0.825
-0.835
-0.86
-0.845
-0.85
-0.89
-0.87
-0.875
-0.84
-0.865
-0.825
-0.815
-0.865
-0.85
-0.88
-0.865
-0.85
-0.855
-0.85
-0.855
-0.87
-0.86
-0.845
-0.84
-0.875
-0.885
-0.855
-0.85
-0.805
-0.87
-0.855
-0.805
-0.825
-0.855
-0.87
-0.85
-0.84
-0.835
-0.805
-0.83
-0.845
-0.855
-0.83
-0.815
-0.855
-0.86
-0.85
-0.865
-0.87
-0.865
-0.875
-0.88
-0.855
-0.835
-0.82
-0.83
-0.86
-0.9
-0.89
-0.865
-0.875
-0.85
-0.85
-0.815
-0.825
-0.825
-0.865
-0.875
-0.835
-0.835
-0.855
-0.92
-0.84
-0.805
-0.85
-0.88
-0.855
-0.84
-0.845
-0.875
-0.865
-0.9
-0.855
-0.855
-0.84
-0.84
-0.895
-0.855
-0.855
-0.865
-0.87
-0.84
-0.82
-0.86
-0.865
-0.83
-0.845
-0.83
-0.875
-0.82
-0.845
-0.875
-0.84
-0.86
-0.875
-0.865
-0.9
-0.885
-0.86
-0.835
-0.85
-0.84
-0.85
-0.84
-0.845
-0.84
-0.86
-0.88
-0.83
-0.815
-0.845
-0.855
-0.835
-0.84
-0.855
-0.8
-0.84
-0.845
-0.815
-0.77
-0.855
-0.8
-0.77
-0.81
-0.835
-0.82
-0.87
-0.85
-0.785
-0.81
-0.83
-0.76
-0.775
-0.81
-0.85
-0.85
-0.85
-0.845
-0.855
-0.87
-0.84
-0.81
-0.8
-0.805
-0.785
-0.805
-0.88
-0.86
-0.8
-0.86
-0.825
-0.83
-0.855
-0.83
-0.845
-0.875
-0.925
-0.865
-0.865
-0.9
-0.875
-0.825
-0.855
-0.875
-0.88
-0.87
-0.9
-0.915
-0.91
-0.875
-0.895
-0.87
-0.865
-0.86
-0.85
-0.895
-0.915
-0.915
-0.92
-0.97
-0.995
-1.01
-1.06
-1.07
-1.055
-0.99
-0.92
-0.87
-0.7
-0.615
-0.555
-0.415
-0.275
-0.065
0.025
0.155
0.305
0.485
0.63
0.745
0.825
0.785
0.75
0.535
0.32
-0.03
-0.355
-0.615
-0.72
-0.83
-0.875
-0.89
-0.915
-0.9
-0.855
-0.865
-0.9
-0.87
-0.875
-0.85
-0.82
-0.835
-0.805
-0.83
-0.86
-0.875
-0.905
-0.87
-0.86
-0.88
-0.87
-0.88
-0.835
-0.85
-0.86
-0.875
-0.85
-0.87
-0.825
-0.85
-0.875
-0.83
-0.825
-0.875
-0.845
-0.845
-0.835
-0.84
-0.83
-0.845
-0.795
-0.815
-0.815
-0.82
-0.835
-0.83
-0.795
-0.785
-0.805
-0.835
-0.845
-0.82
-0.81
-0.8
-0.785
-0.79
-0.76
-0.755
-0.825
-0.795
-0.775
-0.765
-0.72
-0.765
-0.735
-0.75
-0.765
-0.76
-0.74
-0.74
-0.715
-0.705
-0.705
-0.72
-0.715
-0.7
-0.65
-0.695
-0.675
-0.69
-0.645
-0.61
-0.635
-0.6
-0.6
-0.625
-0.635
-0.59
-0.565
-0.54
-0.575
-0.565
-0.535
-0.52
-0.505
-0.515
-0.495
-0.48
-0.49
-0.48
-0.48
-0.455
-0.455
-0.405
-0.48
-0.475
-0.45
-0.45
-0.5
-0.48
-0.455
-0.45
-0.49
-0.505
-0.5
-0.52
-0.495
-0.49
-0.545
-0.565
-0.585
-0.64
-0.635
-0.57
-0.59
-0.65
-0.675
-0.675
-0.735
-0.705
-0.685
-0.745
-0.78
-0.745
-0.76
-0.785
-0.815
-0.82
-0.845
-0.785
-0.8
-0.795
-0.775
-0.79
-0.86
-0.835
-0.77
-0.845
-0.88
-0.855
-0.85
-0.855
-0.845
-0.825
-0.81
-0.8
-0.84
-0.83
-0.86
-0.825
-0.835
-0.865
-0.83
-0.81
-0.85
-0.835
-0.855
-0.835
-0.79
-0.815
-0.825
-0.84
-0.87
-0.84
-0.835
-0.865
-0.885
-0.85
-0.84
-0.765
-0.82
-0.845
-0.845
-0.825
-0.845
-0.83
-0.825
-0.85
-0.85
-0.82
-0.845
-0.855
-0.87
-0.81
-0.825
-0.865
-0.865
-0.88
-0.85
-0.83
-0.81
-0.815
-0.83
-0.81
-0.805
-0.9
-0.855
-0.86
-0.815
-0.78
-0.84
-0.84
-0.84
-0.82
-0.825
-0.84
-0.83
-0.865
-0.87
-0.83
-0.845
-0.835
-0.815
-0.82
-0.875
-0.82
-0.8
-0.835
-0.865
-0.875
-0.835
-0.775
-0.805
-0.87
-0.87
-0.835
-0.785
-0.845
-0.88
-0.855
-0.87
-0.875
-0.855
-0.83
-0.805
-0.835
-0.84
-0.86
-0.85
-0.88
-0.845
-0.855
-0.825
-0.84
-0.845
-0.815
-0.815
-0.815
-0.855
-0.825
-0.875
-0.85
-0.835
-0.81
-0.81
-0.84
-0.845
-0.865
-0.845
-0.81
-0.855
-0.845
-0.835
-0.865
-0.855
-0.875
-0.865
-0.855
-0.85
-0.84
-0.855
-0.825
-0.805
-0.83
-0.885
-0.87
-0.845
-0.905
-0.87
-0.81
-0.83
-0.85
-0.85
-0.82
-0.835
-0.85
-0.86
-0.86
-0.81
-0.82
-0.84
-0.86
-0.84
-0.865
-0.875
-0.88
-0.86
-0.87
-0.84
-0.815
-0.83
-0.88
-0.84
-0.85
-0.86
-0.81
-0.88
-0.86
-0.805
-0.845
-0.88
-0.86
-0.83
-0.86
-0.85
-0.855
-0.86
-0.845
-0.885
-0.865
-0.825
-0.83
-0.845
-0.89
-0.865
-0.82
-0.88
-0.845
-0.85
-0.88
-0.85
-0.85
-0.785
-0.855
-0.895
-0.835
-0.87
-0.875
-0.85
-0.845
-0.81
-0.83
-0.805
-0.82
-0.83
-0.89
-0.915
-0.895
-0.85
-0.83
-0.84
-0.85
-0.87
-0.855
-0.87
-0.86
-0.84
-0.83
-0.83
-0.87
-0.85
-0.85
-0.865
-0.895
-0.86
-0.845
-0.85
-0.825
-0.82
-0.825
-0.845
-0.825
-0.835
-0.865
-0.86
-0.875
-0.83
-0.83
-0.925
-0.88
-0.8
-0.83
-0.895
-0.905
-0.865
-0.84
-0.855
-0.87
-0.86
-0.83
-0.825
-0.84
-0.825
-0.855
-0.855
-0.885
-0.835
-0.83
-0.84
-0.85
-0.845
-0.82
-0.835
-0.88
-0.905
-0.895
-0.875
-0.83
-0.855
-0.895
-0.845
-0.84
-0.87
-0.855
-0.81
-0.825
-0.86
-0.84
-0.845
-0.85
-0.855
-0.845
-0.845
-0.865
-0.82
-0.865
-0.87
-0.86
-0.81
-0.84
-0.84
-0.81
-0.855
-0.865
-0.85
-0.82
-0.8
-0.78
-0.775
-0.815
-0.84
-0.775
-0.79
-0.785
-0.82
-0.805
-0.8
-0.815
-0.845
-0.825
-0.83
-0.815
-0.84
-0.86
-0.815
-0.86
-0.875
-0.8
-0.8
-0.79
-0.775
-0.795
-0.84
-0.835
-0.835
-0.85
-0.855
-0.82
-0.87
-0.84
-0.85
-0.875
-0.88
-0.905
-0.87
-0.85
-0.855
-0.84
-0.84
-0.88
-0.89
-0.865
-0.915
-0.92
-0.87
-0.85
-0.9
-0.9
-0.905
-0.885
-0.82
-0.865
-0.9
-0.92
-0.91
-0.945
-1.0
-1.025
-0.995
-1.01
-1.015
-0.995
-0.975
-0.895
-0.795
-0.69
-0.605
-0.46
-0.325
-0.175
-0.025
0.17
0.3
0.43
0.615
0.715
0.8
0.8
0.695
0.585
0.4
0.165
-0.205
-0.485
-0.64
-0.795
-0.825
-0.87
-0.87
-0.895
-0.835
-0.84
-0.895
-0.865
-0.875
-0.845
-0.84
-0.82
-0.835
-0.835
-0.84
-0.85
-0.885
-0.84
-0.82
-0.85
-0.845
-0.81
-0.825
-0.805
-0.83
-0.84
-0.84
-0.845
-0.81
-0.81
-0.845
-0.85
-0.86
-0.835
-0.785
-0.795
-0.83
-0.9
-0.845
-0.83
-0.785
-0.805
-0.845
-0.82
-0.8
-0.8
-0.815
-0.785
-0.775
-0.775
-0.79
-0.84
-0.76
-0.805
-0.78
-0.785
-0.775
-0.815
-0.77
-0.795
-0.76
-0.76
-0.77
-0.73
-0.715
-0.745
-0.755
-0.73
-0.72
-0.73
-0.69
-0.685
-0.69
-0.635
-0.665
-0.71
-0.715
-0.675
-0.61
-0.645
-0.65
-0.65
-0.625
-0.605
-0.585
-0.645
-0.605
-0.6
-0.585
-0.565
-0.53
-0.52
-0.525
-0.505
-0.525
-0.515
-0.52
-0.495
-0.495
-0.495
-0.44
-0.45
-0.425
-0.455
-0.43
-0.425
-0.46
-0.44
-0.47
-0.455
-0.445
-0.445
-0.46
-0.46
-0.49
-0.49
-0.48
-0.53
-0.565
-0.57
-0.555
-0.58
-0.585
-0.615
-0.64
-0.66
-0.685
-0.69
-0.705
-0.715
-0.725
-0.735
-0.745
-0.745
-0.765
-0.79
-0.79
-0.765
-0.83
-0.845
-0.855
-0.84
-0.795
-0.84
-0.825
-0.83
-0.83
-0.855
-0.875
-0.82
-0.805
-0.815
-0.815
-0.82
-0.815
-0.85
-0.86
-0.84
-0.85
-0.865
-0.85
-0.845
-0.84
-0.84
-0.85
-0.85
-0.83
-0.875
-0.885
-0.83
-0.81
-0.825
-0.875
-0.84
-0.855
-0.875
-0.845
-0.84
-0.865
-0.795
-0.845
-0.87
-0.83
-0.845
-0.87
-0.86
-0.86
-0.845
-0.845
-0.825
-0.81
-0.875
-0.875
-0.865
-0.875
-0.84
-0.88
-0.875
-0.825
-0.86
-0.825
-0.825
-0.785
-0.725
-0.865
-0.925
-0.89
-0.875
-0.855
-0.815
-0.845
-0.87
-0.87
-0.87
-0.87
-0.825
-0.83
-0.845
-0.855
-0.835
-0.85
-0.87
-0.855
-0.835
-0.88
-0.865
-0.88
-0.9
-0.845
-0.82
-0.85
-0.865
-0.84
-0.82
-0.88
-0.85
-0.86
-0.875
-0.82
-0.795
-0.84
-0.855
-0.84
-0.845
-0.905
-0.875
-0.865
-0.895
-0.815
-0.815
-0.83
-0.855
-0.84
-0.81
-0.86
-0.865
-0.835
-0.92
-0.915
-0.87
-0.85
-0.81
-0.835
-0.825
-0.885
-0.89
-0.84
-0.81
-0.84
-0.83
-0.885
-0.895
-0.85
-0.89
-0.86
-0.9
-0.88
-0.84
-0.845
-0.815
-0.81
-0.885
-0.88
-0.865
-0.895
-0.855
-0.84
-0.9
-0.9
-0.83
-0.83
-0.86
-0.875
-0.87
-0.88
-0.845
-0.84
-0.895
-0.88
-0.86
-0.855
-0.775
-0.765
-0.885
-0.89
-0.87
-0.84
-0.865
-0.9
-0.885
-0.855
-0.835
-0.825
-0.87
-0.885
-0.875
-0.86
-0.91
-0.85
-0.78
-0.875
-0.88
-0.835
-0.88
-0.86
-0.83
-0.87
-0.84
-0.83
-0.84
-0.85
-0.895
-0.82
-0.86
-0.875
-0.875
-0.83
-0.845
-0.875
-0.835
-0.855
-0.87
-0.85
-0.86
-0.85
-0.825
-0.855
-0.87
-0.83
-0.84
-0.845
-0.885
-0.9
-0.915
-0.895
-0.805
-0.82
-0.88
-0.805
-0.78
-0.82
-0.89
-0.865
-0.875
-0.89
-0.83
-0.845
-0.85
-0.83
-0.82
-0.88
-0.845
-0.83
-0.825
-0.825
-0.91
-0.92
-0.89
-0.825
-0.845
-0.87
-0.835
-0.83
-0.84
-0.875
-0.845
-0.88
-0.935
-0.86
-0.83
-0.85
-0.835
-0.835
-0.865
-0.835
-0.845
-0.87
-0.875
-0.8
-0.79
-0.84
-0.84
-0.81
-0.81
-0.835
-0.84
-0.84
-0.88
-0.8
-0.82
-0.83
-0.845
-0.875
-0.855
-0.81
-0.835
-0.845
-0.815
-0.825
-0.85
-0.785
-0.795
-0.825
-0.81
-0.815
-0.815
-0.825
-0.795
-0.775
-0.8
-0.795
-0.785
-0.765
-0.745
-0.715
-0.765
-0.815
-0.8
-0.735
-0.775
-0.83
-0.885
-0.835
-0.845
-0.78
-0.77
-0.78
-0.81
-0.77
-0.79
-0.77
-0.79
-0.775
-0.795
-0.77
-0.845
-0.835
-0.825
-0.83
-0.79
-0.845
-0.84
-0.865
-0.825
-0.83
-0.875
-0.905
-0.85
-0.86
-0.865
-0.825
-0.825
-0.845
-0.87
-0.83
-0.845
-0.9
-0.865
-0.785
-0.825
-0.86
-0.79
-0.825
-0.9
-0.955
-0.985
-0.985
-1.03
-0.985
-0.96
-1.0
-0.935
-0.825
-0.7
-0.595
-0.5
-0.385
-0.15
-0.045
0.09
0.215
0.355
0.505
0.64
0.725
0.83
0.81
0.735
0.555
0.335
0.005
-0.265
-0.57
-0.725
-0.755
-0.825
-0.82
-0.85
-0.915
-0.88
-0.835
-0.825
-0.83
-0.825
-0.785
-0.785
-0.805
-0.785
-0.855
-0.825
-0.815
-0.79
-0.85
-0.84
-0.83
-0.835
-0.845
-0.8
-0.8
-0.84
-0.81
-0.815
-0.815
-0.825
-0.845
-0.835
-0.825
-0.77
-0.81
-0.83
-0.78
-0.765
-0.765
-0.735
-0.805
-0.825
-0.825
-0.795
-0.81
-0.81
-0.78
-0.775
-0.78
-0.78
-0.745
-0.77
-0.775
-0.72
-0.735
-0.8
-0.765
-0.775
-0.77
-0.745
-0.75
-0.76
-0.72
-0.695
-0.685
-0.71
-0.67
-0.685
-0.7
-0.695
-0.725
-0.715
-0.69
-0.67
-0.675
-0.65
-0.63
-0.66
-0.65
-0.63
-0.635
-0.61
-0.59
-0.56
-0.56
-0.565
-0.53
-0.6
-0.56
-0.515
-0.525
-0.55
-0.5
-0.48
-0.485
-0.51
-0.49
-0.475
-0.445
-0.515
-0.505
-0.45
-0.345
-0.37
-0.395
-0.42
-0.405
-0.425
-0.45
-0.42
-0.405
-0.43
-0.42
-0.4
-0.455
-0.475
-0.45
-0.48
-0.5
-0.53
-0.55
-0.57
-0.56
-0.59
-0.56
-0.635
-0.66
-0.66
-0.62
-0.66
-0.735
-0.735
-0.705
-0.745
-0.745
-0.74
-0.745
-0.77
-0.78
-0.765
-0.83
-0.845
-0.79
-0.795
-0.785
-0.81
-0.79
-0.825
-0.81
-0.785
-0.81
-0.78
-0.805
-0.84
-0.825
-0.8
-0.775
-0.78
-0.81
-0.825
-0.845
-0.82
-0.815
-0.855
-0.845
-0.785
-0.75
-0.8
-0.85
-0.815
-0.83
-0.855
-0.79
-0.79
-0.815
-0.82
-0.835
-0.84
-0.825
-0.845
-0.83
-0.815
-0.77
-0.765
-0.815
-0.775
-0.785
-0.8
-0.865
-0.835
-0.815
-0.835
-0.81
-0.82
-0.79
-0.8
-0.815
-0.83
-0.83
-0.83
-0.83
-0.845
-0.805
-0.815
-0.785
-0.78
-0.825
-0.82
-0.795
-0.81
-0.815
-0.85
-0.82
-0.81
-0.81
-0.82
-0.79
-0.825
-0.835
-0.83
-0.835
-0.805
-0.775
-0.805
-0.785
-0.775
-0.78
-0.785
-0.805
-0.785
-0.78
-0.81
-0.785
-0.84
-0.81
-0.835
-0.795
-0.785
-0.795
-0.8
-0.84
-0.815
-0.77
-0.775
-0.795
-0.815
-0.84
-0.855
-0.83
-0.805
-0.845
-0.79
-0.775
-0.78
-0.76
-0.815
-0.845
-0.845
-0.825
-0.855
-0.87
-0.84
-0.83
-0.765
-0.775
-0.79
-0.835
-0.84
-0.83
-0.825
-0.855
-0.835
-0.825
-0.81
-0.845
-0.8
-0.81
-0.8
-0.835
-0.84
-0.84
-0.805
-0.785
-0.79
-0.83
-0.8
-0.795
-0.84
-0.86
-0.87
-0.84
-0.805
-0.815
-0.83
-0.775
-0.795
-0.86
-0.82
-0.795
-0.835
-0.84
-0.8
-0.835
-0.79
-0.77
-0.8
-0.84
-0.805
-0.815
-0.87
-0.87
-0.825
-0.815
-0.81
-0.805
-0.795
-0.82
-0.835
-0.785
-0.82
-0.84
-0.815
-0.77
-0.805
-0.855
-0.83
-0.83
-0.81
-0.815
-0.855
-0.87
-0.795
-0.755
-0.81
-0.795
-0.81
-0.835
-0.81
-0.8
-0.79
-0.785
-0.735
-0.74
-0.745
-0.715
-0.745
-0.775
-0.83
-0.835
-0.845
-0.78
-0.74
-0.75
-0.765
-0.77
-0.765
-0.78
-0.79
-0.77
-0.775
-0.79
-0.77
-0.825
-0.79
-0.7
-0.8
-0.82
-0.795
-0.785
-0.795
-0.86
-0.825
-0.84
-0.87
-0.845
-0.825
-0.855
-0.84
-0.83
-0.825
-0.815
-0.835
-0.83
-0.83
-0.835
-0.83
-0.865
-0.865
-0.825
-0.84
-0.82
-0.86
-0.83
-0.82
-0.875
-0.9
-0.955
-0.975
-1.005
-1.03
-1.03
-1.05
-0.955
-0.855
-0.705
-0.65
-0.5
-0.37
-0.245
-0.095
0.065
0.215
0.355
0.515
0.705
0.815
0.895
0.91
0.845
0.645
0.44
0.2
-0.175
-0.485
-0.61
-0.745
-0.785
-0.8
-0.845
-0.87
-0.83
-0.83
-0.875
-0.835
-0.825
-0.815
-0.75
-0.74
-0.73
-0.805
-0.84
-0.855
-0.84
-0.8
-0.76
-0.8
-0.815
-0.79
-0.845
-0.83
-0.81
-0.795
-0.805
-0.785
-0.785
-0.765
-0.8
-0.795
-0.795
-0.8
-0.76
-0.825
-0.83
-0.755
-0.73
-0.76
-0.755
-0.765
-0.76
-0.77
-0.755
-0.765
-0.795
-0.78
-0.69
-0.785
-0.805
-0.715
-0.735
-0.75
-0.715
-0.72
-0.75
-0.765
-0.73
-0.69
-0.74
-0.735
-0.715
-0.69
-0.725
-0.715
-0.69
-0.705
-0.675
-0.69
-0.67
-0.66
-0.69
-0.67
-0.63
-0.625
-0.665
-0.615
-0.605
-0.61
-0.635
-0.595
-0.57
-0.595
-0.58
-0.54
-0.525
-0.52
-0.475
-0.49
-0.485
-0.495
-0.5
-0.475
-0.435
-0.41
-0.47
-0.425
-0.38
-0.375
-0.385
-0.38
-0.39
-0.405
-0.395
-0.37
-0.385
-0.385
-0.37
-0.45
-0.435
-0.455
-0.44
-0.39
-0.435
-0.495
-0.51
-0.465
-0.53
-0.56
-0.565
-0.58
-0.615
-0.635
-0.64
-0.69
-0.65
-0.635
-0.655
-0.745
-0.735
-0.735
-0.78
-0.765
-0.77
-0.775
-0.78
-0.75
-0.75
-0.735
-0.735
-0.77
-0.825
-0.785
-0.81
-0.795
-0.775
-0.79
-0.795
-0.79
-0.795
-0.805
-0.825
-0.805
-0.815
-0.82
-0.8
-0.785
-0.82
-0.805
-0.805
-0.8
-0.82
-0.85
-0.81
-0.78
-0.84
-0.79
-0.83
-0.815
-0.815
-0.77
-0.795
-0.82
-0.825
-0.83
-0.81
-0.785
-0.84
-0.795
-0.78
-0.865
-0.84
-0.83
-0.8
-0.83
-0.81
-0.785
-0.76
-0.79
-0.82
-0.805
-0.81
-0.82
-0.84
-0.81
-0.79
-0.79
-0.825
-0.785
-0.79
-0.77
-0.82
-0.79
-0.825
-0.86
-0.77
-0.795
-0.79
-0.795
-0.77
-0.81
-0.795
-0.815
-0.8
-0.81
-0.81
-0.76
-0.805
-0.775
-0.81
-0.835
-0.8
-0.78
-0.805
-0.775
-0.805
-0.78
-0.805
-0.805
-0.785
-0.8
-0.78
-0.78
-0.845
-0.805
-0.82
-0.795
-0.815
-0.82
-0.855
-0.785
-0.755
-0.785
-0.825
-0.815
-0.76
-0.805
-0.805
-0.795
-0.78
-0.78
-0.77
-0.78
-0.795
-0.84
-0.79
-0.775
-0.825
-0.825
-0.8
-0.82
-0.82
-0.785
-0.8
-0.785
-0.785
-0.78
-0.78
-0.81
-0.795
-0.83
-0.79
-0.78
-0.775
-0.8
-0.765
-0.805
-0.8
-0.785
-0.77
-0.81
-0.79
-0.84
-0.805
-0.795
-0.79
-0.78
-0.78
-0.78
-0.79
-0.86
-0.82
-0.78
-0.81
-0.8
-0.755
-0.8
-0.765
-0.8
-0.79
-0.785
-0.75
-0.79
-0.79
-0.77
-0.745
-0.785
-0.805
-0.78
-0.76
-0.775
-0.775
-0.77
-0.815
-0.77
-0.785
-0.82
-0.805
-0.74
-0.75
-0.83
-0.78
-0.77
-0.77
-0.79
-0.795
-0.785
-0.73
-0.775
-0.775
-0.795
-0.735
-0.775
-0.835
-0.835
-0.825
-0.78
-0.785
-0.755
-0.79
-0.805
-0.775
-0.78
-0.765
-0.78
-0.755
-0.775
-0.78
-0.78
-0.805
-0.785
-0.785
-0.83
-0.795
-0.745
-0.705
-0.755
-0.755
-0.755
-0.765
-0.775
-0.785
-0.805
-0.815
-0.76
-0.775
-0.78
-0.75
-0.79
-0.765
-0.77
-0.755
-0.76
-0.765
-0.745
-0.75
-0.765
-0.795
-0.765
-0.775
-0.755
-0.805
-0.735
-0.78
-0.755
-0.755
-0.75
-0.775
-0.775
-0.765
-0.745
-0.765
-0.815
-0.755
-0.705
-0.705
-0.765
-0.785
-0.755
-0.765
-0.735
-0.775
-0.735
-0.78
-0.785
-0.78
-0.79
-0.77
-0.75
-0.725
-0.72
-0.73
-0.76
-0.765
-0.71
-0.7
-0.725
-0.735
-0.74
-0.75
-0.685
-0.735
-0.74
-0.705
-0.68
-0.725
-0.72
-0.675
-0.675
-0.71
-0.73
-0.75
-0.735
-0.66
-0.685
-0.68
-0.745
-0.77
-0.725
-0.78
-0.74
-0.7
-0.705
-0.74
-0.7
-0.715
-0.73
-0.685
-0.675
-0.73
-0.72
-0.725
-0.745
-0.755
-0.735
-0.785
-0.755
-0.755
-0.775
-0.77
-0.795
-0.775
-0.77
-0.775
-0.745
-0.755
-0.755
-0.705
-0.74
-0.78
-0.755
-0.76
-0.78
-0.745
-0.725
-0.72
-0.75
-0.7
-0.77
-0.83
-0.805
-0.835
-0.9
-0.925
-0.895
-0.935
-0.945
-0.89
-0.815
-0.695
-0.585
-0.475
-0.36
-0.24
-0.09
0.095
0.215
0.4
0.57
0.665
0.81
0.91
0.905
0.88
0.77
0.595
0.335
0.035
-0.295
-0.495
-0.605
-0.705
-0.8
-0.755
-0.76
-0.74
-0.74
-0.735
-0.765
-0.78
-0.73
-0.715
-0.71
-0.685
-0.745
-0.71
-0.69
-0.685
-0.705
-0.755
-0.76
-0.73
-0.73
-0.725
-0.71
-0.735
-0.775
-0.765
-0.745
-0.73
-0.715
-0.745
-0.71
-0.67
-0.705
-0.715
-0.71
-0.7
-0.75
-0.705
-0.69
-0.69
-0.705
-0.705
-0.705
-0.685
-0.685
-0.68
-0.755
-0.715
-0.66
-0.645
-0.68
-0.675
-0.695
-0.66
-0.65
-0.675
-0.675
-0.66
-0.67
-0.665
-0.655
-0.625
-0.61
-0.65
-0.595
-0.595
-0.6
-0.645
-0.63
-0.65
-0.625
-0.58
-0.57
-0.57
-0.575
-0.535
-0.505
-0.58
-0.59
-0.555
-0.515
-0.475
-0.5
-0.525
-0.505
-0.47
-0.495
-0.415
-0.38
-0.435
-0.395
-0.415
-0.43
-0.405
-0.37
-0.35
-0.35
-0.355
-0.365
-0.355
-0.365
-0.325
-0.325
-0.29
-0.305
-0.35
-0.34
-0.28
-0.29
-0.355
-0.355
-0.32
-0.335
-0.365
-0.36
-0.41
-0.41
-0.41
-0.435
-0.445
-0.435
-0.47
-0.47
-0.475
-0.49
-0.555
-0.6
-0.59
-0.62
-0.64
-0.63
-0.645
-0.64
-0.635
-0.625
-0.67
-0.68
-0.645
-0.66
-0.665
-0.685
-0.71
-0.675
-0.725
-0.7
-0.68
-0.73
-0.685
-0.72
-0.74
-0.705
-0.695
-0.665
-0.655
-0.67
-0.755
-0.715
-0.71
-0.655
-0.67
-0.68
-0.73
-0.725
-0.705
-0.715
-0.715
-0.715
-0.67
-0.655
-0.705
-0.695
-0.71
-0.73
-0.715
-0.685
-0.695
-0.705
-0.685
-0.7
-0.705
-0.705
-0.705
-0.71
-0.695
-0.68
-0.685
-0.7
-0.71
-0.695
-0.695
-0.69
-0.67
-0.64
-0.645
-0.685
-0.745
-0.765
-0.69
-0.725
-0.705
-0.65
-0.63
-0.665
-0.685
-0.705
-0.715
-0.725
-0.7
-0.74
-0.69
-0.7
-0.7
-0.685
-0.665
-0.69
-0.71
-0.695
-0.675
-0.735
-0.725
-0.67
-0.675
-0.69
-0.695
-0.665
-0.685
-0.68
-0.69
-0.73
-0.7
-0.695
-0.7
-0.705
-0.695
-0.67
-0.675
-0.72
-0.72
-0.73
-0.67
-0.61
-0.66
-0.735
-0.695
-0.71
-0.74
-0.705
-0.685
-0.71
-0.715
-0.695
-0.695
-0.73
-0.66
-0.635
-0.66
-0.705
-0.725
-0.74
-0.74
-0.74
-0.695
-0.625
-0.685
-0.705
-0.74
-0.74
-0.695
-0.72
-0.7
-0.62
-0.685
-0.685
-0.7
-0.73
-0.725
-0.735
-0.71
-0.745
-0.72
-0.65
-0.645
-0.735
-0.71
-0.73
-0.725
-0.745
-0.71
-0.68
-0.665
-0.715
-0.71
-0.725
-0.73
-0.725
-0.685
-0.705
-0.74
-0.725
-0.71
-0.705
-0.71
-0.69
-0.695
-0.725
-0.71
-0.715
-0.69
-0.735
-0.745
-0.705
-0.71
-0.695
-0.655
-0.725
-0.74
-0.72
-0.715
-0.735
-0.705
-0.68
-0.695
-0.705
-0.73
-0.7
-0.65
-0.72
-0.76
-0.72
-0.725
-0.71
-0.715
-0.715
-0.72
-0.7
-0.695
-0.685
-0.73
-0.705
-0.715
-0.715
-0.705
-0.73
-0.695
-0.745
-0.74
-0.72
-0.745
-0.735
-0.71
-0.69
-0.705
-0.685
-0.705
-0.77
-0.72
-0.71
-0.705
-0.715
-0.7
-0.705
-0.685
-0.675
-0.705
-0.785
-0.76
-0.735
-0.7
-0.705
-0.695
-0.735
-0.695
-0.69
-0.665
-0.695
-0.715
-0.74
-0.735
-0.73
-0.72
-0.715
-0.7
-0.69
-0.71
-0.735
-0.76
-0.735
-0.735
-0.73
-0.695
-0.71
-0.715
-0.71
-0.68
-0.725
-0.715
-0.715
-0.74
-0.71
-0.68
-0.725
-0.71
-0.715
-0.715
-0.7
-0.75
-0.705
-0.695
-0.71
-0.7
-0.715
-0.71
-0.675
-0.735
-0.72
-0.7
-0.745
-0.745
-0.735
-0.72
-0.71
-0.68
-0.66
-0.685
-0.65
-0.735
-0.74
-0.7
-0.71
-0.715
-0.74
-0.745
-0.71
-0.715
-0.72
-0.725
-0.725
-0.73
-0.675
-0.71
-0.695
-0.735
-0.675
-0.645
-0.69
-0.74
-0.765
-0.715
-0.67
-0.665
-0.72
-0.65
-0.635
-0.72
-0.71
-0.69
-0.695
-0.695
-0.625
-0.68
-0.675
-0.64
-0.645
-0.7
-0.675
-0.67
-0.67
-0.67
-0.66
-0.665
-0.68
-0.66
-0.65
-0.66
-0.635
-0.655
-0.65
-0.655
-0.655
-0.65
-0.68
-0.62
-0.635
-0.715
-0.645
-0.63
-0.61
-0.625
-0.65
-0.565
-0.6
-0.705
-0.665
-0.66
-0.655
-0.645
-0.655
-0.65
-0.635
-0.615
-0.605
-0.64
-0.625
-0.605
-0.615
-0.585
-0.62
-0.66
-0.625
-0.615
-0.645
-0.6
-0.595
-0.615
-0.605
-0.555
-0.6
-0.58
-0.575
-0.555
-0.56
-0.55
-0.575
-0.565
-0.615
-0.62
-0.615
-0.57
-0.575
-0.645
-0.62
-0.585
-0.625
-0.62
-0.555
-0.58
-0.555
-0.585
-0.575
-0.61
-0.61
-0.57
-0.59
-0.605
-0.62
-0.67
-0.625
-0.58
-0.575
-0.585
-0.575
-0.625
-0.68
-0.635
-0.66
-0.655
-0.655
-0.62
-0.625
-0.635
-0.645
-0.655
-0.635
-0.62
-0.6
-0.625
-0.69
-0.625
-0.575
-0.615
-0.675
-0.625
-0.61
-0.71
-0.745
-0.715
-0.785
-0.805
-0.835
-0.845
-0.81
-0.725
-0.625
-0.505
-0.375
-0.335
-0.245
-0.04
0.11
0.295
0.38
0.505
0.68
0.9
1.015
1.085
1.055
1.01
0.78
0.63
0.42
0.06
-0.24
-0.445
-0.56
-0.62
-0.625
-0.68
-0.65
-0.605
-0.615
-0.63
-0.54
-0.585
-0.595
-0.645
-0.6
-0.585
-0.62
-0.625
-0.595
-0.565
-0.595
-0.605
-0.6
-0.605
-0.595
-0.55
-0.585
-0.62
-0.65
-0.615
-0.61
-0.59
-0.59
-0.54
-0.635
-0.635
-0.585
-0.59
-0.595
-0.585
-0.55
-0.595
-0.56
-0.585
-0.62
-0.57
-0.59
-0.585
-0.58
-0.57
-0.57
-0.525
-0.525
-0.58
-0.55
-0.555
-0.545
-0.525
-0.525
-0.575
-0.545
-0.52
-0.54
-0.56
-0.52
-0.5
-0.535
-0.5
-0.42
-0.42
-0.5
-0.545
-0.505
-0.515
-0.48
-0.45
-0.43
-0.425
-0.47
-0.45
-0.465
-0.43
-0.405
-0.425
-0.415
-0.39
-0.38
-0.34
-0.335
-0.31
-0.35
-0.35
-0.345
-0.34
-0.305
-0.28
-0.28
-0.285
-0.29
-0.29
-0.275
-0.215
-0.25
-0.28
-0.22
-0.23
-0.19
-0.19
-0.185
-0.225
-0.21
-0.275
-0.265
-0.23
-0.2
-0.185
-0.235
-0.29
-0.275
-0.265
-0.28
-0.285
-0.285
-0.35
-0.315
-0.365
-0.385
-0.43
-0.42
-0.405
-0.405
-0.425
-0.51
-0.55
-0.5
-0.525
-0.52
-0.52
-0.565
-0.575
-0.56
-0.555
-0.58
-0.595
-0.53
-0.6
-0.565
-0.545
-0.585
-0.59
-0.62
-0.63
-0.605
-0.59
-0.605
-0.625
-0.63
-0.62
-0.585
-0.635
-0.645
-0.63
-0.61
-0.625
-0.57
-0.59
-0.63
-0.63
-0.61
-0.615
-0.67
-0.65
-0.64
-0.625
-0.595
-0.595
-0.615
-0.615
-0.62
-0.605
-0.605
-0.625
-0.65
-0.6
-0.63
-0.615
-0.615
-0.615
-0.615
-0.65
-0.58
-0.62
-0.665
-0.65
-0.63
-0.61
-0.625
-0.62
-0.6
-0.635
-0.62
-0.625
-0.61
-0.625
-0.64
-0.625
-0.58
-0.59
-0.625
-0.655
-0.64
-0.645
-0.655
-0.6
-0.615
-0.63
-0.64
-0.61
-0.61
-0.605
-0.59
-0.65
-0.645
-0.63
-0.64
-0.635
-0.635
-0.615
-0.635
-0.6
-0.615
-0.615
-0.64
-0.625
-0.61
-0.62
-0.595
-0.625
-0.64
-0.625
-0.615
-0.65
-0.655
-0.64
-0.6
-0.6
-0.615
-0.595
-0.635
-0.65
-0.66
-0.625
-0.675
-0.615
-0.625
-0.655
-0.635
-0.615
-0.665
-0.73
-0.66
-0.675
-0.69
-0.635
-0.63
-0.655
-0.675
-0.66
-0.645
-0.64
-0.63
-0.635
-0.68
-0.645
-0.655
-0.605
-0.675
-0.625
-0.67
-0.625
-0.605
-0.665
-0.66
-0.635
-0.66
-0.69
-0.665
-0.645
-0.65
-0.64
-0.65
-0.685
-0.645
-0.65
-0.625
-0.645
-0.65
-0.675
-0.71
-0.68
-0.66
-0.645
-0.665
-0.65
-0.65
-0.695
-0.675
-0.655
-0.635
-0.61
-0.64
-0.73
-0.695
-0.64
-0.655
-0.665
-0.675
-0.66
-0.66
-0.61
-0.625
-0.695
-0.63
-0.605
-0.67
-0.71
-0.64
-0.625
-0.685
-0.64
-0.65
-0.69
-0.74
-0.7
-0.675
-0.635
-0.61
-0.665
-0.685
-0.66
-0.685
-0.685
-0.645
-0.64
-0.69
-0.675
-0.655
-0.665
-0.705
-0.68
-0.65
-0.67
-0.665
-0.655
-0.64
-0.655
-0.63
-0.63
-0.655
-0.6
-0.585
-0.695
-0.67
-0.65
-0.69
-0.665
-0.655
-0.685
-0.705
-0.665
-0.62
-0.62
-0.64
-0.68
-0.685
-0.67
-0.635
-0.655
-0.64
-0.67
-0.67
-0.705
-0.655
-0.65
-0.67
-0.685
-0.655
-0.68
-0.66
-0.625
-0.635
-0.625
-0.7
-0.695
-0.665
-0.7
-0.63
-0.59
-0.615
-0.69
-0.655
-0.69
-0.635
-0.635
-0.675
-0.66
-0.655
-0.67
-0.665
-0.64
-0.62
-0.67
-0.69
-0.625
-0.63
-0.665
-0.68
-0.68
-0.67
-0.695
-0.7
-0.67
-0.63
-0.615
-0.665
-0.665
-0.685
-0.69
-0.645
-0.63
-0.675
-0.685
-0.66
-0.675
-0.635
-0.675
-0.68
-0.65
-0.67
-0.68
-0.665
-0.61
-0.625
-0.685
-0.65
-0.65
-0.705
-0.7
-0.67
-0.64
-0.64
-0.67
-0.66
-0.62
-0.665
-0.665
-0.66
-0.665
-0.64
-0.625
-0.67
-0.68
-0.67
-0.645
-0.64
-0.67
-0.655
-0.655
-0.64
-0.665
-0.65
-0.65
-0.67
-0.68
-0.645
-0.64
-0.655
-0.67
-0.65
-0.59
-0.62
-0.6
-0.61
-0.64
-0.645
-0.61
-0.595
-0.635
-0.615
-0.63
-0.66
-0.635
-0.575
-0.595
-0.615
-0.655
-0.655
-0.62
-0.625
-0.675
-0.66
-0.605
-0.56
-0.585
-0.61
-0.595
-0.625
-0.63
-0.65
-0.65
-0.635
-0.63
-0.675
-0.66
-0.655
-0.675
-0.69
-0.695
-0.645
-0.66
-0.67
-0.7
-0.68
-0.715
-0.7
-0.705
-0.735
-0.64
-0.66
-0.685
-0.685
-0.66
-0.645
-0.655
-0.68
-0.635
-0.6
-0.595
-0.7
-0.805
-0.79
-0.775
-0.81
-0.825
-0.83
-0.89
-0.89
-0.83
-0.73
-0.61
-0.49
-0.355
-0.295
-0.21
-0.06
0.115
0.255
0.395
0.595
0.715
0.84
0.945
1.01
0.99
0.845
0.69
0.43
0.12
-0.205
-0.405
-0.52
-0.59
-0.665
-0.68
-0.635
-0.605
-0.72
-0.71
-0.685
-0.67
-0.65
-0.62
-0.62
-0.605
-0.645
-0.66
-0.705
-0.665
-0.64
-0.685
-0.68
-0.635
-0.63
-0.635
-0.655
-0.67
-0.665
-0.655
-0.66
-0.67
-0.655
-0.635
-0.635
-0.625
-0.615
-0.645
-0.625
-0.605
-0.605
-0.635
-0.635
-0.6
-0.63
-0.575
-0.575
-0.6
-0.575
-0.565
-0.58
-0.63
-0.71
-0.67
-0.59
-0.56
-0.565
-0.555
-0.57
-0.585
-0.555
-0.56
-0.615
-0.6
-0.575
-0.54
-0.58
-0.545
-0.565
-0.535
-0.53
-0.53
-0.52
-0.495
-0.5
-0.515
-0.46
-0.49
-0.515
-0.46
-0.47
-0.5
-0.435
-0.41
-0.445
-0.46
-0.435
-0.36
-0.425
-0.41
-0.385
-0.445
-0.41
-0.34
-0.35
-0.335
-0.305
-0.31
-0.28
-0.29
-0.265
-0.245
-0.25
-0.28
-0.235
-0.28
-0.26
-0.28
-0.29
-0.25
-0.23
-0.245
-0.21
-0.24
-0.22
-0.245
-0.19
-0.255
-0.26
-0.31
-0.3
-0.3
-0.33
-0.375
-0.38
-0.355
-0.395
-0.425
-0.45
-0.42
-0.505
-0.505
-0.49
-0.515
-0.505
-0.475
-0.505
-0.53
-0.6
-0.59
-0.585
-0.565
-0.575
-0.625
-0.605
-0.62
-0.62
-0.605
-0.61
-0.65
-0.675
-0.64
-0.59
-0.61
-0.59
-0.625
-0.65
-0.66
-0.64
-0.625
-0.695
-0.675
-0.625
-0.61
-0.63
-0.655
-0.575
-0.63
-0.635
-0.63
-0.655
-0.68
-0.63
-0.675
-0.635
-0.575
-0.605
-0.665
-0.61
-0.625
-0.64
-0.63
-0.65
-0.64
-0.625
-0.655
-0.635
-0.655
-0.65
-0.605
-0.58
-0.575
-0.635
-0.625
-0.65
-0.645
-0.63
-0.65
-0.65
-0.615
-0.64
-0.68
-0.64
-0.63
-0.6
-0.57
-0.64
-0.625
-0.58
-0.61
-0.665
-0.655
-0.625
-0.64
-0.65
-0.62
-0.585
-0.635
-0.635
-0.595
-0.655
-0.64
-0.61
-0.63
-0.64
-0.595
-0.585
-0.645
-0.595
-0.61
-0.63
-0.57
-0.595
-0.665
-0.625
-0.595
-0.635
-0.69
-0.64
-0.615
-0.66
-0.625
-0.625
-0.62
-0.58
-0.59
-0.615
-0.63
-0.635
-0.635
-0.62
-0.595
-0.6
-0.62
-0.61
-0.62
-0.66
-0.655
-0.65
-0.635
-0.69
-0.62
-0.64
-0.63
-0.61
-0.585
-0.59
-0.615
-0.655
-0.66
-0.635
-0.615
-0.61
-0.585
-0.635
-0.63
-0.61
-0.665
-0.645
-0.625
-0.635
-0.595
-0.685
-0.665
-0.63
-0.62
-0.63
-0.605
-0.625
-0.625
-0.605
-0.605
-0.64
-0.62
-0.61
-0.645
-0.675
-0.67
-0.605
-0.63
-0.58
-0.615
-0.66
-0.64
-0.635
-0.615
-0.63
-0.635
-0.625
-0.625
-0.63
-0.63
-0.66
-0.63
-0.6
-0.615
-0.64
-0.655
-0.64
-0.63
-0.625
-0.7
-0.675
-0.6
-0.585
-0.615
-0.65
-0.635
-0.635
-0.64
-0.615
-0.595
-0.56
-0.595
-0.615
-0.665
-0.62
-0.625
-0.635
-0.695
-0.66
-0.62
-0.615
-0.63
-0.635
-0.6
-0.605
-0.65
-0.63
-0.63
-0.625
-0.6
-0.62
-0.62
-0.6
-0.655
-0.655
-0.615
-0.63
-0.625
-0.6
-0.595
-0.66
-0.665
-0.63
-0.615
-0.62
-0.625
-0.625
-0.635
-0.62
-0.61
-0.61
-0.625
-0.58
-0.64
-0.62
-0.55
-0.645
-0.66
-0.62
-0.62
-0.63
-0.63
-0.63
-0.585
-0.575
-0.61
-0.63
-0.63
-0.61
-0.62
-0.625
-0.605
-0.585
-0.635
-0.635
-0.625
-0.615
-0.62
-0.59
-0.61
-0.61
-0.565
-0.605
-0.635
-0.62
-0.63
-0.63
-0.62
-0.58
-0.61
-0.635
-0.61
-0.575
-0.62
-0.58
-0.595
-0.615
-0.6
-0.6
-0.61
-0.65
-0.63
-0.6
-0.6
-0.61
-0.585
-0.62
-0.645
-0.61
-0.585
-0.595
-0.58
-0.56
-0.57
-0.6
-0.595
-0.61
-0.62
-0.56
-0.61
-0.6
-0.585
-0.55
-0.58
-0.58
-0.56
-0.57
-0.505
-0.53
-0.53
-0.57
-0.585
-0.56
-0.555
-0.53
-0.555
-0.565
-0.57
-0.555
-0.535
-0.555
-0.57
-0.62
-0.615
-0.595
-0.535
-0.535
-0.545
-0.52
-0.535
-0.505
-0.56
-0.61
-0.575
-0.555
-0.57
-0.575
-0.595
-0.58
-0.6
-0.605
-0.625
-0.605
-0.66
-0.605
-0.605
-0.61
-0.575
-0.58
-0.6
-0.555
-0.585
-0.635
-0.655
-0.6
-0.615
-0.645
-0.625
-0.64
-0.615
-0.555
-0.575
-0.615
-0.635
-0.685
-0.72
-0.78
-0.8
-0.775
-0.78
-0.74
-0.605
-0.505
-0.465
-0.34
-0.225
-0.115
0.1
0.24
0.355
0.47
0.65
0.82
0.97
1.03
1.1
1.025
0.945
0.75
0.51
0.165
-0.075
-0.36
-0.565
-0.575
-0.56
-0.635
-0.625
-0.595
-0.61
-0.605
-0.595
-0.585
-0.56
-0.565
-0.48
-0.575
-0.595
-0.58
-0.58
-0.57
-0.555
-0.59
-0.585
-0.57
-0.585
-0.615
-0.57
-0.515
-0.51
-0.595
-0.585
-0.595
-0.525
-0.58
-0.565
-0.575
-0.55
-0.575
-0.55
-0.535
-0.51
-0.535
-0.535
-0.555
-0.555
-0.545
-0.57
-0.545
-0.495
-0.54
-0.52
-0.54
-0.525
-0.505
-0.52
-0.53
-0.495
-0.505
-0.51
-0.49
-0.485
-0.485
-0.45
-0.465
-0.46
-0.495
-0.48
-0.475
-0.405
-0.46
-0.49
-0.49
-0.44
-0.41
-0.45
-0.365
-0.375
-0.35
-0.37
-0.39
-0.38
-0.41
-0.35
-0.34
-0.395
-0.32
-0.28
-0.265
-0.275
-0.27
-0.295
-0.29
-0.285
-0.26
-0.225
-0.21
-0.24
-0.17
-0.175
-0.15
-0.125
-0.22
-0.2
-0.15
-0.14
-0.16
-0.14
-0.16
-0.155
-0.09
-0.12
-0.115
-0.11
-0.115
-0.17
-0.19
-0.17
-0.16
-0.13
-0.15
-0.175
-0.2
-0.195
-0.22
-0.235
-0.24
-0.3
-0.295
-0.275
-0.295
-0.365
-0.38
-0.355
-0.33
-0.35
-0.42
-0.445
-0.47
-0.505
-0.48
-0.445
-0.485
-0.485
-0.49
-0.51
-0.475
-0.435
-0.44
-0.48
-0.495
-0.55
-0.47
-0.485
-0.5
-0.56
-0.52
-0.515
-0.515
-0.495
-0.52
-0.535
-0.55
-0.5
-0.51
-0.53
-0.485
-0.5
-0.515
-0.535
-0.495
-0.52
-0.5
-0.58
-0.57
-0.485
-0.5
-0.49
-0.46
-0.475
-0.51
-0.51
-0.505
-0.53
-0.505
-0.535
-0.545
-0.54
-0.5
-0.51
-0.525
-0.545
-0.485
-0.445
-0.545
-0.56
-0.515
-0.535
-0.455
-0.49
-0.5
-0.525
-0.5
-0.505
-0.55
-0.555
-0.525
-0.505
-0.505
-0.51
-0.475
-0.5
-0.485
-0.495
-0.46
-0.465
-0.515
-0.51
-0.515
-0.54
-0.57
-0.49
-0.46
-0.49
-0.52
-0.525
-0.5
-0.52
-0.495
-0.485
-0.485
-0.53
-0.51
-0.515
-0.515
-0.505
-0.49
-0.475
-0.455
-0.5
-0.54
-0.515
-0.47
-0.51
-0.545
-0.52
-0.49
-0.495
-0.48
-0.525
-0.46
-0.5
-0.485
-0.54
-0.56
-0.51
-0.465
-0.48
-0.495
-0.5
-0.55
-0.505
-0.515
-0.54
-0.525
-0.485
-0.5
-0.49
-0.495
-0.465
-0.525
-0.54
-0.545
-0.53
-0.515
-0.525
-0.47
-0.505
-0.525
-0.51
-0.52
-0.535
-0.53
-0.505
-0.49
-0.45
-0.43
-0.46
-0.54
-0.515
-0.545
-0.495
-0.49
-0.54
-0.52
-0.495
-0.505
-0.53
-0.5
-0.455
-0.52
-0.515
-0.51
-0.5
-0.515
-0.53
-0.53
-0.54
-0.525
-0.485
-0.54
-0.51
-0.435
-0.46
-0.515
-0.48
-0.525
-0.49
-0.54
-0.525
-0.505
-0.465
-0.445
-0.545
-0.52
-0.485
-0.485
-0.495
-0.53
-0.535
-0.52
-0.515
-0.5
-0.48
-0.515
-0.48
-0.495
-0.465
-0.5
-0.505
-0.52
-0.53
-0.495
-0.515
-0.48
-0.46
-0.505
-0.465
-0.485
-0.52
-0.54
-0.505
-0.49
-0.46
-0.485
-0.455
-0.465
-0.47
-0.45
-0.51
-0.53
-0.515
-0.5
-0.545
-0.515
-0.44
-0.505
-0.5
-0.455
-0.46
-0.505
-0.54
-0.495
-0.485
-0.46
-0.465
-0.49
-0.47
-0.43
-0.465
-0.48
-0.51
-0.525
-0.525
-0.49
-0.48
-0.485
-0.48
-0.46
-0.5
-0.52
-0.47
-0.5
-0.46
-0.465
-0.475
-0.49
-0.505
-0.495
-0.51
-0.51
-0.43
-0.485
-0.475
-0.48
-0.485
-0.5
-0.48
-0.46
-0.47
-0.46
-0.435
-0.505
-0.52
-0.49
-0.47
-0.48
-0.465
-0.455
-0.465
-0.49
-0.495
-0.485
-0.49
-0.485
-0.44
-0.46
-0.455
-0.465
-0.47
-0.485
-0.505
-0.49
-0.465
-0.435
-0.45
-0.495
-0.48
-0.475
-0.475
-0.485
-0.475
-0.425
-0.43
-0.395
-0.42
-0.475
-0.465
-0.42
-0.425
-0.47
-0.47
-0.445
-0.44
-0.385
-0.385
-0.42
-0.435
-0.405
-0.47
-0.465
-0.485
-0.505
-0.535
-0.425
-0.38
-0.375
-0.36
-0.41
-0.47
-0.445
-0.415
-0.445
-0.48
-0.48
-0.465
-0.44
-0.43
-0.455
-0.505
-0.455
-0.48
-0.505
-0.53
-0.52
-0.49
-0.495
-0.485
-0.455
-0.5
-0.475
-0.42
-0.48
-0.505
-0.5
-0.475
-0.525
-0.49
-0.48
-0.5
-0.505
-0.52
-0.555
-0.595
-0.575
-0.665
-0.66
-0.69
-0.69
-0.635
-0.49
-0.39
-0.28
-0.2
-0.06
0.085
0.215
0.37
0.465
0.545
0.78
0.96
1.06
1.145
1.19
1.145
1.025
0.85
0.635
0.285
-0.02
-0.245
-0.365
-0.395
-0.445
-0.485
-0.52
-0.46
-0.48
-0.49
-0.44
-0.495
-0.47
-0.425
-0.41
-0.415
-0.39
-0.355
-0.395
-0.45
-0.515
-0.475
-0.485
-0.475
-0.445
-0.43
-0.42
-0.47
-0.465
-0.475
-0.47
-0.45
-0.415
-0.43
-0.43
-0.425
-0.41
-0.43
-0.445
-0.46
-0.46
-0.45
-0.475
-0.44
-0.395
-0.38
-0.375
-0.39
-0.42
-0.435
-0.42
-0.425
-0.44
-0.39
-0.34
-0.375
-0.385
-0.45
-0.43
-0.375
-0.355
-0.365
-0.38
-0.36
-0.36
-0.355
-0.35
-0.31
-0.345
-0.33
-0.315
-0.31
-0.335
-0.29
-0.275
-0.335
-0.355
-0.315
-0.305
-0.28
-0.27
-0.265
-0.27
-0.27
-0.26
-0.2
-0.19
-0.175
-0.225
-0.19
-0.16
-0.185
-0.2
-0.145
-0.145
-0.175
-0.13
-0.125
-0.125
-0.095
-0.105
-0.045
-0.045
-0.04
-0.06
-0.055
-0.05
-0.01
-0.04
-0.05
-0.05
-0.045
-0.02
-0.015
-0.03
-0.045
-0.025
-0.005
-0.005
-0.085
-0.17
-0.17
-0.155
-0.16
-0.115
-0.105
-0.13
-0.265
-0.315
-0.255
-0.26
-0.29
-0.315
-0.35
-0.34
-0.325
-0.32
-0.375
-0.415
-0.38
-0.365
-0.395
-0.38
-0.385
-0.415
-0.425
-0.395
-0.42
-0.425
-0.395
-0.455
-0.5
-0.445
-0.43
-0.435
-0.45
-0.435
-0.44
-0.43
-0.42
-0.41
-0.425
-0.425
-0.405
-0.475
-0.445
-0.41
-0.435
-0.45
-0.475
-0.475
-0.46
-0.415
-0.44
-0.495
-0.46
-0.44
-0.42
-0.415
-0.44
-0.425
-0.45
-0.395
-0.445
-0.445
-0.435
-0.42
-0.455
-0.46
-0.435
-0.41
-0.455
-0.43
-0.455
-0.455
-0.435
-0.44
-0.445
-0.445
-0.475
-0.44
-0.415
-0.4
-0.39
-0.465
-0.49
-0.465
-0.45
-0.43
-0.425
-0.445
-0.44
-0.37
-0.42
-0.48
-0.465
-0.455
-0.41
-0.41
-0.42
-0.42
-0.46
-0.475
-0.43
-0.465
-0.47
-0.42
-0.43
-0.455
-0.46
-0.475
-0.475
-0.405
-0.395
-0.425
-0.415
-0.42
-0.5
-0.47
-0.45
-0.465
-0.415
-0.475
-0.46
-0.41
-0.425
-0.44
-0.42
-0.435
-0.45
-0.52
-0.505
-0.425
-0.455
-0.46
-0.47
-0.44
-0.43
-0.415
-0.4
-0.46
-0.485
-0.45
-0.445
-0.48
-0.44
-0.46
-0.445
-0.45
-0.475
-0.405
-0.44
-0.47
-0.43
-0.485
-0.505
-0.485
-0.47
-0.48
-0.465
-0.465
-0.465
-0.415
-0.43
-0.455
-0.435
-0.475
-0.475
-0.475
-0.45
-0.475
-0.435
-0.445
-0.465
-0.475
-0.45
-0.47
-0.475
-0.445
-0.45
-0.43
-0.47
-0.49
-0.48
-0.45
-0.47
-0.47
-0.49
-0.46
-0.415
-0.475
-0.47
-0.4
-0.45
-0.46
-0.48
-0.48
-0.48
-0.465
-0.455
-0.485
-0.435
-0.47
-0.465
-0.48
-0.48
-0.515
-0.44
-0.385
-0.415
-0.49
-0.51
-0.5
-0.49
-0.43
-0.45
-0.44
-0.455
-0.46
-0.485
-0.48
-0.45
-0.455
-0.465
-0.485
-0.48
-0.485
-0.475
-0.47
-0.495
-0.49
-0.43
-0.445
-0.445
-0.485
-0.475
-0.485
-0.44
-0.435
-0.475
-0.5
-0.425
-0.43
-0.45
-0.485
-0.42
-0.465
-0.445
-0.455
-0.525
-0.465
-0.46
-0.43
-0.425
-0.455
-0.45
-0.445
-0.44
-0.425
-0.39
-0.42
-0.44
-0.515
-0.52
-0.475
-0.445
-0.435
-0.445
-0.47
-0.495
-0.525
-0.505
-0.485
-0.485
-0.465
-0.45
-0.505
-0.49
-0.445
-0.43
-0.42
-0.425
-0.45
-0.42
-0.42
-0.445
-0.415
-0.4
-0.455
-0.435
-0.45
-0.455
-0.405
-0.43
-0.445
-0.395
-0.405
-0.44
-0.435
-0.445
-0.43
-0.41
-0.41
-0.405
-0.405
-0.395
-0.425
-0.42
-0.41
-0.435
-0.455
-0.415
-0.39
-0.345
-0.385
-0.37
-0.405
-0.36
-0.375
-0.405
-0.415
-0.48
-0.445
-0.415
-0.375
-0.405
-0.365
-0.34
-0.425
-0.47
-0.415
-0.38
-0.43
-0.415
-0.41
-0.49
-0.49
-0.47
-0.45
-0.455
-0.45
-0.415
-0.46
-0.445
-0.47
-0.48
-0.46
-0.5
-0.48
-0.41
-0.375
-0.395
-0.455
-0.45
-0.43
-0.425
-0.445
-0.5
-0.415
-0.445
-0.49
-0.54
-0.585
-0.605
-0.63
-0.655
-0.67
-0.635
-0.495
-0.425
-0.3
-0.14
-0.055
0.025
0.215
0.33
0.395
0.59
0.71
0.82
0.995
1.105
1.165
1.05
1.015
0.855
0.64
0.3
0.01
-0.2
-0.33
-0.465
-0.49
-0.465
-0.45
-0.48
-0.475
-0.5
-0.46
-0.495
-0.43
-0.435
-0.44
-0.41
-0.42
-0.445
-0.425
-0.405
-0.415
-0.43
-0.44
-0.46
-0.425
-0.435
-0.41
-0.425
-0.425
-0.435
-0.44
-0.415
-0.4
-0.435
-0.41
-0.365
-0.445
-0.45
-0.38
-0.415
-0.445
-0.385
-0.38
-0.435
-0.41
-0.39
-0.35
-0.395
-0.415
-0.415
-0.38
-0.405
-0.375
-0.365
-0.39
-0.395
-0.41
-0.35
-0.35
-0.38
-0.395
-0.36
-0.32
-0.31
-0.335
-0.355
-0.345
-0.29
-0.3
-0.345
-0.375
-0.335
-0.28
-0.185
-0.275
-0.27
-0.275
-0.285
-0.28
-0.245
-0.24
-0.205
-0.21
-0.22
-0.25
-0.165
-0.185
-0.22
-0.19
-0.17
-0.185
-0.13
-0.09
-0.11
-0.09
-0.08
-0.065
-0.095
-0.08
-0.025
-0.065
-0.045
-0.035
-0.04
-0.04
-0.01
-0.01
0.04
0.02
-0.01
0.045
0.01
-0.01
0.005
0.035
0.005
-0.075
-0.015
-0.03
-0.045
-0.09
-0.09
-0.07
-0.05
-0.06
-0.105
-0.165
-0.225
-0.235
-0.24
-0.19
-0.175
-0.205
-0.27
-0.275
-0.265
-0.34
-0.31
-0.365
-0.35
-0.335
-0.325
-0.355
-0.4
-0.35
-0.285
-0.33
-0.39
-0.42
-0.405
-0.395
-0.34
-0.33
-0.39
-0.39
-0.37
-0.37
-0.375
-0.41
-0.405
-0.4
-0.355
-0.35
-0.395
-0.4
-0.375
-0.4
-0.405
-0.36
-0.385
-0.38
-0.35
-0.4
-0.375
-0.36
-0.37
-0.44
-0.35
-0.375
-0.34
-0.41
-0.38
-0.375
-0.365
-0.38
-0.405
-0.44
-0.395
-0.355
-0.39
-0.375
-0.355
-0.44
-0.39
-0.22
-0.285
-0.405
-0.425
-0.43
-0.39
-0.355
-0.335
-0.355
-0.42
-0.37
-0.375
-0.38
-0.37
-0.38
-0.395
-0.36
-0.34
-0.345
-0.36
-0.35
-0.375
-0.36
-0.395
-0.385
-0.415
-0.395
-0.38
-0.345
-0.335
-0.325
-0.345
-0.37
-0.405
-0.4
-0.425
-0.35
-0.345
-0.395
-0.385
-0.335
-0.37
-0.395
-0.335
-0.35
-0.375
-0.35
-0.38
-0.355
-0.38
-0.355
-0.34
-0.405
-0.35
-0.345
-0.365
-0.34
-0.335
-0.455
-0.45
-0.385
-0.405
-0.375
-0.265
-0.3
-0.41
-0.365
-0.41
-0.405
-0.335
-0.325
-0.365
-0.405
-0.38
-0.36
-0.355
-0.375
-0.435
-0.39
-0.395
-0.37
-0.385
-0.355
-0.34
-0.385
-0.37
-0.37
-0.35
-0.405
-0.415
-0.41
-0.375
-0.385
-0.385
-0.495
-0.43
-0.32
-0.34
-0.365
-0.35
-0.395
-0.4
-0.41
-0.4
-0.395
-0.415
-0.36
-0.4
-0.405
-0.38
-0.355
-0.395
-0.31
-0.36
-0.4
-0.395
-0.355
-0.345
-0.305
-0.41
-0.41
-0.42
-0.41
-0.4
-0.41
-0.44
-0.43
-0.365
-0.37
-0.395
-0.405
-0.365
-0.36
-0.39
-0.41
-0.425
-0.405
-0.385
-0.335
-0.385
-0.395
-0.37
-0.35
-0.41
-0.435
-0.39
-0.315
-0.38
-0.425
-0.43
-0.44
-0.345
-0.31
-0.4
-0.405
-0.39
-0.38
-0.375
-0.37
-0.43
-0.42
-0.385
-0.405
-0.41
-0.395
-0.365
-0.365
-0.335
-0.335
-0.375
-0.45
-0.435
-0.385
-0.395
-0.415
-0.41
-0.38
-0.46
-0.37
-0.375
-0.405
-0.395
-0.36
-0.36
-0.435
-0.425
-0.4
-0.38
-0.355
-0.335
-0.35
-0.365
-0.355
-0.36
-0.335
-0.355
-0.385
-0.37
-0.345
-0.35
-0.325
-0.36
-0.335
-0.405
-0.375
-0.37
-0.355
-0.36
-0.385
-0.385
-0.39
-0.365
-0.39
-0.395
-0.41
-0.34
-0.285
-0.32
-0.325
-0.35
-0.345
-0.41
-0.385
-0.425
-0.4
-0.41
-0.39
-0.38
-0.395
-0.41
-0.44
-0.41
-0.37
-0.41
-0.39
-0.385
-0.405
-0.35
-0.36
-0.37
-0.445
-0.415
-0.42
-0.405
-0.405
-0.41
-0.405
-0.405
-0.455
-0.475
-0.515
-0.51
-0.58
-0.57
-0.55
-0.465
-0.415
-0.365
-0.265
-0.125
-0.08
0.03
0.175
0.355
0.49
0.59
0.605
0.745
0.905
1.04
1.03
0.95
0.835
0.65
0.49
0.135
-0.085
-0.25
-0.34
-0.455
-0.51
-0.505
-0.47
-0.48
-0.44
-0.41
-0.39
-0.5
-0.43
-0.385
-0.395
-0.385
-0.365
-0.385
-0.41
-0.35
-0.375
-0.34
-0.36
-0.395
-0.37
-0.365
-0.385
-0.385
-0.36
-0.345
-0.34
-0.39
-0.345
-0.36
-0.35
-0.34
-0.385
-0.405
-0.345
-0.325
-0.35
-0.36
-0.35
-0.355
-0.37
-0.345
-0.365
-0.34
-0.335
-0.325
-0.32
-0.355
-0.27
-0.245
-0.285
-0.285
-0.335
-0.36
-0.29
-0.26
-0.385
-0.35
-0.26
-0.195
-0.255
-0.28
-0.295
-0.315
-0.25
-0.24
-0.22
-0.235
-0.18
-0.235
-0.24
-0.22
-0.22
-0.21
-0.19
-0.115
-0.11
-0.205
-0.23
-0.22
-0.16
-0.185
-0.145
-0.085
-0.075
-0.09
-0.095
-0.12
-0.05
-0.04
-0.035
-0.08
-0.005
-0.02
-0.035
-0.005
0.04
0.05
0.04
0.06
0.06
0.03
0.015
0.04
0.09
0.07
0.03
0.07
0.115
0.005
0.025
0.075
0.075
0.015
-0.05
-0.045
-0.075
-0.055
-0.095
-0.095
-0.085
-0.095
-0.11
-0.21
-0.17
-0.185
-0.24
-0.23
-0.215
-0.28
-0.26
-0.265
-0.27
-0.305
-0.28
-0.315
-0.28
-0.335
-0.36
-0.37
-0.315
-0.305
-0.34
-0.345
-0.36
-0.445
-0.36
-0.325
-0.32
-0.365
-0.405
-0.345
-0.345
-0.345
-0.39
-0.395
-0.355
-0.355
-0.38
-0.385
-0.445
-0.4
-0.38
-0.395
-0.385
-0.335
-0.36
-0.375
-0.365
-0.37
-0.38
-0.36
-0.425
-0.425
-0.39
-0.375
-0.4
-0.37
-0.365
-0.345
-0.395
-0.41
-0.405
-0.38
-0.325
-0.355
-0.34
-0.395
-0.45
-0.405
-0.405
-0.38
-0.36
-0.31
-0.335
-0.38
-0.44
-0.405
-0.355
-0.35
-0.36
-0.395
-0.38
-0.36
-0.34
-0.365
-0.405
-0.365
-0.385
-0.365
-0.395
-0.38
-0.355
-0.385
-0.355
-0.35
-0.34
-0.355
-0.385
-0.375
-0.395
-0.435
-0.38
-0.37
-0.38
-0.375
-0.41
-0.395
-0.36
-0.385
-0.385
-0.43
-0.41
-0.35
-0.395
-0.405
-0.4
-0.37
-0.41
-0.4
-0.385
-0.38
-0.395
-0.385
-0.34
-0.315
-0.42
-0.455
-0.42
-0.38
-0.345
-0.38
-0.405
-0.38
-0.41
-0.415
-0.4
-0.405
-0.405
-0.385
-0.37
-0.435
-0.4
-0.415
-0.415
-0.42
-0.425
-0.425
-0.43
-0.36
-0.36
-0.355
-0.42
-0.375
-0.34
-0.39
-0.395
-0.435
-0.43
-0.39
-0.39
-0.405
-0.36
-0.34
-0.385
-0.39
-0.43
-0.46
-0.43
-0.375
-0.43
-0.445
-0.435
-0.43
-0.395
-0.39
-0.385
-0.405
-0.395
-0.395
-0.39
-0.415
-0.39
-0.38
-0.39
-0.385
-0.415
-0.37
-0.385
-0.38
-0.41
-0.385
-0.41
-0.44
-0.41
-0.39
-0.38
-0.405
-0.395
-0.4
-0.37
-0.445
-0.385
-0.375
-0.405
-0.41
-0.42
-0.405
-0.37
-0.415
-0.39
-0.39
-0.42
-0.43
-0.425
-0.41
-0.38
-0.365
-0.355
-0.39
-0.415
-0.46
-0.38
-0.365
-0.34
-0.345
-0.37
-0.385
-0.385
-0.375
-0.44
-0.415
-0.395
-0.38
-0.35
-0.295
-0.34
-0.405
-0.42
-0.34
-0.39
-0.385
-0.37
-0.37
-0.39
-0.425
-0.405
-0.38
-0.34
-0.375
-0.4
-0.385
-0.375
-0.33
-0.425
-0.4
-0.39
-0.41
-0.39
-0.385
-0.43
-0.445
-0.37
-0.4
-0.475
-0.435
-0.415
-0.425
-0.415
-0.43
-0.42
-0.445
-0.39
-0.435
-0.46
-0.44
-0.43
-0.435
-0.39
-0.41
-0.435
-0.46
-0.46
-0.445
-0.385
-0.405
-0.45
-0.535
-0.59
-0.565
-0.65
-0.625
-0.52
-0.42
-0.335
-0.245
-0.215
-0.075
0.04
0.21
0.3
0.45
0.56
0.68
0.795
0.88
0.955
0.97
0.965
0.84
0.605
0.39
0.14
-0.13
-0.285
-0.395
-0.475
-0.51
-0.415
-0.415
-0.5
-0.45
-0.43
-0.415
-0.405
-0.46
-0.45
-0.385
-0.395
-0.45
-0.47
-0.41
-0.385
-0.385
-0.425
-0.41
-0.425
-0.435
-0.415
-0.405
-0.41
-0.405
-0.395
-0.4
-0.4
-0.37
-0.42
-0.37
-0.395
-0.455
-0.44
-0.39
-0.395
-0.385
-0.36
-0.355
-0.45
-0.445
-0.41
-0.345
-0.375
-0.385
-0.395
-0.33
-0.295
-0.37
-0.435
-0.43
-0.4
-0.37
-0.365
-0.36
-0.35
-0.325
-0.38
-0.37
-0.305
-0.275
-0.325
-0.34
-0.32
-0.295
-0.34
-0.36
-0.335
-0.295
-0.325
-0.31
-0.265
-0.29
-0.3
-0.27
-0.245
-0.245
-0.245
-0.225
-0.215
-0.24
-0.22
-0.22
-0.205
-0.175
-0.15
-0.145
-0.175
-0.17
-0.155
-0.165
-0.13
-0.1
-0.1
-0.09
-0.09
-0.06
-0.065
-0.065
-0.055
-0.05
-0.04
-0.045
-0.015
-0.055
-0.05
-0.005
-0.075
-0.07
-0.05
-0.06
-0.015
-0.075
-0.14
-0.12
-0.11
-0.145
-0.185
-0.185
-0.215
-0.215
-0.235
-0.245
-0.215
-0.25
-0.285
-0.33
-0.365
-0.355
-0.35
-0.33
-0.305
-0.36
-0.425
-0.39
-0.4
-0.37
-0.385
-0.445
-0.485
-0.41
-0.4
-0.405
-0.445
-0.44
-0.475
-0.435
-0.415
-0.445
-0.49
-0.48
-0.425
-0.455
-0.475
-0.405
-0.38
-0.425
-0.45
-0.48
-0.51
-0.435
-0.47
-0.485
-0.46
-0.43
-0.475
-0.485
-0.48
-0.46
-0.405
-0.445
-0.44
-0.45
-0.44
-0.455
-0.43
-0.445
-0.43
-0.45
-0.47
-0.445
-0.48
-0.485
-0.45
-0.47
-0.445
-0.42
-0.445
-0.5
-0.435
-0.41
-0.4
-0.445
-0.45
-0.47
-0.52
-0.46
-0.465
-0.49
-0.49
-0.485
-0.435
-0.455
-0.46
-0.455
-0.445
-0.455
-0.455
-0.485
-0.455
-0.45
-0.475
-0.505
-0.46
-0.44
-0.435
-0.435
-0.48
-0.485
-0.455
-0.45
-0.48
-0.45
-0.45
-0.445
-0.47
-0.45
-0.45
-0.455
-0.455
-0.45
-0.46
-0.47
-0.475
-0.445
-0.45
-0.49
-0.42
-0.42
-0.475
-0.465
-0.465
-0.475
-0.425
-0.43
-0.415
-0.47
-0.465
-0.465
-0.455
-0.445
-0.405
-0.495
-0.48
-0.48
-0.485
-0.465
-0.49
-0.45
-0.435
-0.46
-0.47
-0.45
-0.475
-0.5
-0.49
-0.475
-0.465
-0.46
-0.465
-0.46
-0.49
-0.48
-0.45
-0.49
-0.46
-0.445
-0.435
-0.475
-0.47
-0.455
-0.435
-0.425
-0.465
-0.545
-0.505
-0.485
-0.465
-0.49
-0.495
-0.485
-0.475
-0.495
-0.43
-0.44
-0.46
-0.485
-0.5
-0.485
-0.465
-0.465
-0.47
-0.445
-0.47
-0.485
-0.485
-0.47
-0.455
-0.51
-0.52
-0.48
-0.465
-0.455
-0.465
-0.485
-0.465
-0.39
-0.505
-0.48
-0.46
-0.5
-0.49
-0.465
-0.45
-0.45
-0.46
-0.52
-0.485
-0.48
-0.46
-0.48
-0.5
-0.44
-0.45
-0.5
-0.475
-0.495
-0.475
-0.485
-0.47
-0.505
-0.485
-0.455
-0.415
-0.48
-0.455
-0.485
-0.53
-0.515
-0.475
-0.475
-0.505
-0.495
-0.46
-0.47
-0.46
-0.44
-0.455
-0.525
-0.53
-0.535
-0.485
-0.42
-0.47
-0.485
-0.485
-0.5
-0.5
-0.435
-0.49
-0.52
-0.47
-0.5
-0.505
-0.475
-0.44
-0.48
-0.515
-0.49
-0.495
-0.505
-0.515
-0.46
-0.495
-0.465
-0.43
-0.43
-0.445
-0.47
-0.45
-0.47
-0.465
-0.435
-0.475
-0.47
-0.44
-0.425
-0.465
-0.45
-0.435
-0.455
-0.4
-0.455
-0.47
-0.405
-0.41
-0.465
-0.455
-0.49
-0.5
-0.52
-0.47
-0.45
-0.47
-0.45
-0.42
-0.44
-0.485
-0.46
-0.415
-0.475
-0.44
-0.445
-0.48
-0.46
-0.485
-0.49
-0.515
-0.49
-0.515
-0.51
-0.5
-0.52
-0.525
-0.51
-0.45
-0.51
-0.55
-0.51
-0.515
-0.535
-0.485
-0.475
-0.495
-0.485
-0.535
-0.52
-0.525
-0.52
-0.485
-0.5
-0.515
-0.595
-0.61
-0.64
-0.68
-0.76
-0.74
-0.66
-0.635
-0.55
-0.4
-0.285
-0.225
-0.13
-0.04
0.095
0.235
0.365
0.495
0.555
0.755
0.89
0.92
0.96
0.965
0.83
0.67
0.445
0.125
-0.155
-0.29
-0.41
-0.465
-0.55
-0.505
-0.5
-0.5
-0.53
-0.595
-0.545
-0.525
-0.495
-0.475
-0.495
-0.5
-0.5
-0.51
-0.485
-0.505
-0.485
-0.495
-0.53
-0.53
-0.51
-0.5
-0.48
-0.485
-0.53
-0.515
-0.505
-0.455
-0.465
-0.45
-0.475
-0.49
-0.55
-0.53
-0.495
-0.53
-0.505
-0.395
-0.425
-0.465
-0.44
-0.51
-0.525
-0.525
-0.45
-0.475
-0.435
-0.435
-0.47
-0.45
-0.465
-0.46
-0.45
-0.46
-0.47
-0.465
-0.455
-0.435
-0.445
-0.43
-0.36
-0.395
-0.465
-0.45
-0.435
-0.455
-0.395
-0.4
-0.41
-0.39
-0.36
-0.375
-0.365
-0.345
-0.355
-0.4
-0.365
-0.335
-0.36
-0.355
-0.295
-0.305
-0.32
-0.3
-0.3
-0.285
-0.25
-0.23
-0.245
-0.205
-0.245
-0.23
-0.28
-0.24
-0.26
-0.25
-0.19
-0.175
-0.175
-0.205
-0.15
-0.125
-0.12
-0.11
-0.085
-0.17
-0.17
-0.145
-0.155
-0.15
-0.135
-0.2
-0.18
-0.18
-0.17
-0.195
-0.195
-0.205
-0.245
-0.28
-0.29
-0.32
-0.325
-0.3
-0.31
-0.39
-0.395
-0.4
-0.42
-0.425
-0.425
-0.455
-0.415
-0.405
-0.42
-0.475
-0.49
-0.5
-0.515
-0.505
-0.52
-0.555
-0.5
-0.475
-0.565
-0.555
-0.51
-0.52
-0.515
-0.53
-0.5
-0.53
-0.535
-0.53
-0.55
-0.585
-0.5
-0.505
-0.48
-0.535
-0.55
-0.56
-0.57
-0.57
-0.545
-0.575
-0.545
-0.535
-0.535
-0.54
-0.535
-0.56
-0.535
-0.53
-0.535
-0.535
-0.525
-0.535
-0.525
-0.48
-0.52
-0.58
-0.57
-0.585
-0.585
-0.55
-0.52
-0.545
-0.56
-0.525
-0.52
-0.525
-0.53
-0.53
-0.55
-0.505
-0.52
-0.585
-0.56
-0.535
-0.55
-0.535
-0.595
-0.595
-0.575
-0.52
-0.5
-0.52
-0.51
-0.525
-0.565
-0.55
-0.545
-0.57
-0.56
-0.545
-0.535
-0.545
-0.545
-0.525
-0.5
-0.57
-0.57
-0.565
-0.55
-0.56
-0.525
-0.535
-0.535
-0.525
-0.53
-0.59
-0.525
-0.535
-0.57
-0.57
-0.56
-0.58
-0.555
-0.52
-0.555
-0.545
-0.545
-0.565
-0.565
-0.515
-0.49
-0.535
-0.55
-0.595
-0.58
-0.565
-0.52
-0.525
-0.57
-0.535
-0.55
-0.57
-0.54
-0.55
-0.52
-0.56
-0.57
-0.56
-0.535
-0.5
-0.565
-0.605
-0.615
-0.58
-0.555
-0.605
-0.575
-0.58
-0.6
-0.54
-0.54
-0.545
-0.515
-0.555
-0.56
-0.56
-0.595
-0.595
-0.56
-0.58
-0.54
-0.54
-0.555
-0.54
-0.62
-0.595
-0.54
-0.56
-0.57
-0.55
-0.555
-0.56
-0.565
-0.55
-0.545
-0.515
-0.55
-0.56
-0.56
-0.52
-0.56
-0.555
-0.57
-0.605
-0.59
-0.51
-0.51
-0.51
-0.58
-0.58
-0.605
-0.585
-0.575
-0.565
-0.585
-0.56
-0.55
-0.535
-0.52
-0.555
-0.585
-0.585
-0.55
-0.565
-0.61
-0.575
-0.555
-0.585
-0.595
-0.535
-0.59
-0.545
-0.555
-0.515
-0.48
-0.56
-0.58
-0.585
-0.575
-0.53
-0.525
-0.57
-0.555
-0.555
-0.6
-0.54
-0.51
-0.545
-0.57
-0.57
-0.56
-0.61
-0.595
-0.55
-0.56
-0.545
-0.505
-0.555
-0.55
-0.535
-0.55
-0.615
-0.595
-0.57
-0.545
-0.54
-0.555
-0.595
-0.545
-0.515
-0.545
-0.545
-0.56
-0.555
-0.55
-0.57
-0.56
-0.555
-0.54
-0.495
-0.495
-0.52
-0.56
-0.57
-0.53
-0.54
-0.55
-0.53
-0.5
-0.525
-0.54
-0.505
-0.49
-0.51
-0.505
-0.505
-0.525
-0.525
-0.495
-0.485
-0.5
-0.555
-0.545
-0.53
-0.49
-0.47
-0.535
-0.55
-0.515
-0.5
-0.51
-0.51
-0.49
-0.52
-0.5
-0.485
-0.495
-0.54
-0.475
-0.48
-0.545
-0.515
-0.5
-0.49
-0.48
-0.505
-0.515
-0.525
-0.48
-0.485
-0.48
-0.485
-0.49
-0.495
-0.47
-0.5
-0.51
-0.52
-0.505
-0.475
-0.47
-0.525
-0.505
-0.475
-0.465
-0.455
-0.45
-0.44
-0.505
-0.535
-0.485
-0.525
-0.505
-0.505
-0.475
-0.47
-0.505
-0.525
-0.485
-0.495
-0.485
-0.475
-0.475
-0.495
-0.48
-0.435
-0.44
-0.5
-0.495
-0.525
-0.475
-0.47
-0.515
-0.515
-0.47
-0.465
-0.455
-0.45
-0.475
-0.455
-0.49
-0.505
-0.475
-0.475
-0.475
-0.5
-0.49
-0.43
-0.45
-0.46
-0.475
-0.445
-0.49
-0.505
-0.425
-0.48
-0.49
-0.485
-0.475
-0.49
-0.46
-0.43
-0.41
-0.44
-0.425
-0.47
-0.465
-0.395
-0.39
-0.41
-0.4
-0.415
-0.42
-0.39
-0.375
-0.365
-0.38
-0.4
-0.43
-0.43
-0.42
-0.36
-0.37
-0.355
-0.405
-0.44
-0.47
-0.415
-0.415
-0.455
-0.395
-0.41
-0.4
-0.41
-0.42
-0.385
-0.405
-0.385
-0.35
-0.35
-0.41
-0.41
-0.41
-0.385
-0.38
-0.435
-0.465
-0.465
-0.43
-0.445
-0.44
-0.38
-0.41
-0.44
-0.485
-0.49
-0.485
-0.415
-0.385
-0.41
-0.43
-0.425
-0.425
-0.43
-0.43
-0.435
-0.44
-0.445
-0.43
-0.445
-0.445
-0.47
-0.51
-0.51
-0.53
-0.595
-0.625
-0.65
-0.595
-0.585
-0.44
-0.35
-0.27
-0.23
-0.085
0.055
0.235
0.405
0.51
0.605
0.725
0.87
1.035
1.15
1.21
1.185
1.065
0.95
0.73
0.455
0.18
-0.08
-0.27
-0.31
-0.34
-0.365
-0.425
-0.395
-0.415
-0.395
-0.39
-0.4
-0.395
-0.365
-0.38
-0.375
-0.35
-0.35
-0.39
-0.41
-0.425
-0.42
-0.44
-0.47
-0.435
-0.44
-0.4
-0.435
-0.435
-0.42
-0.405
-0.45
-0.405
-0.42
-0.415
-0.44
-0.41
-0.41
-0.39
-0.4
-0.4
-0.385
-0.37
-0.395
-0.39
-0.39
-0.325
-0.365
-0.38
-0.37
-0.375
-0.385
-0.38
-0.38
-0.415
-0.395
-0.33
-0.36
-0.35
-0.33
-0.3
-0.32
-0.32
-0.33
-0.375
-0.33
-0.3
-0.305
-0.285
-0.325
-0.335
-0.32
-0.33
-0.32
-0.285
-0.31
-0.28
-0.24
-0.26
-0.235
-0.23
-0.245
-0.24
-0.26
-0.235
-0.265
-0.245
-0.145
-0.16
-0.175
-0.145
-0.205
-0.195
-0.15
-0.135
-0.125
-0.12
-0.1
-0.085
-0.13
-0.07
-0.045
-0.065
-0.04
-0.05
-0.065
-0.035
0.0
0.02
0.0
-0.065
-0.09
-0.1
-0.025
-0.015
-0.025
-0.005
0.005
-0.065
-0.08
-0.095
-0.12
-0.085
-0.08
-0.11
-0.155
-0.12
-0.15
-0.22
-0.21
-0.24
-0.25
-0.25
-0.24
-0.275
-0.325
-0.265
-0.295
-0.345
-0.35
-0.36
-0.36
-0.36
-0.375
-0.37
-0.345
-0.36
-0.415
-0.38
-0.35
-0.39
-0.405
-0.375
-0.395
-0.43
-0.46
-0.395
-0.4
-0.405
-0.41
-0.43
-0.41
-0.405
-0.4
-0.415
-0.405
-0.36
-0.41
-0.385
-0.37
-0.4
-0.43
-0.455
-0.425
-0.41
-0.41
-0.41
-0.39
-0.385
-0.39
-0.405
-0.43
-0.405
-0.385
-0.42
-0.395
-0.35
-0.375
-0.425
-0.45
-0.425
-0.435
-0.41
-0.405
-0.41
-0.425
-0.415
-0.355
-0.36
-0.365
-0.4
-0.415
-0.44
-0.405
-0.42
-0.38
-0.395
-0.385
-0.365
-0.4
-0.46
-0.42
-0.425
-0.405
-0.42
-0.41
-0.39
-0.4
-0.38
-0.4
-0.45
-0.405
-0.325
-0.37
-0.43
-0.43
-0.425
-0.43
-0.41
-0.395
-0.435
-0.445
-0.435
-0.43
-0.42
-0.375
-0.36
-0.415
-0.39
-0.385
-0.455
-0.425
-0.44
-0.425
-0.42
-0.395
-0.38
-0.405
-0.41
-0.395
-0.43
-0.405
-0.375
-0.46
-0.485
-0.42
-0.42
-0.41
-0.4
-0.415
-0.44
-0.445
-0.41
-0.4
-0.425
-0.43
-0.45
-0.445
-0.375
-0.365
-0.445
-0.425
-0.38
-0.495
-0.5
-0.43
-0.405
-0.43
-0.43
-0.425
-0.46
-0.45
-0.42
-0.415
-0.395
-0.44
-0.465
-0.42
-0.395
-0.435
-0.46
-0.415
-0.41
-0.475
-0.445
-0.405
-0.405
-0.385
-0.415
-0.445
-0.47
-0.415
-0.41
-0.38
-0.45
-0.44
-0.41
-0.43
-0.42
-0.415
-0.485
-0.47
-0.44
-0.4
-0.435
-0.45
-0.455
-0.445
-0.41
-0.405
-0.43
-0.435
-0.48
-0.46
-0.395
-0.445
-0.465
-0.42
-0.42
-0.445
-0.47
-0.445
-0.46
-0.475
-0.45
-0.43
-0.4
-0.42
-0.435
-0.435
-0.45
-0.445
-0.425
-0.48
-0.455
-0.4
-0.44
-0.415
-0.415
-0.435
-0.41
-0.47
-0.46
-0.475
-0.475
-0.375
-0.37
-0.365
-0.455
-0.485
-0.49
-0.465
-0.425
-0.465
-0.435
-0.425
-0.44
-0.455
-0.455
-0.485
-0.485
-0.455
-0.42
-0.445
-0.43
-0.46
-0.45
-0.47
-0.385
-0.39
-0.44
-0.435
-0.425
-0.435
-0.45
-0.42
-0.42
-0.445
-0.435
-0.44
-0.42
-0.395
-0.37
-0.41
-0.45
-0.475
-0.46
-0.425
-0.46
-0.45
-0.455
-0.445
-0.44
-0.44
-0.405
-0.395
-0.42
-0.455
-0.43
-0.47
-0.48
-0.395
-0.425
-0.465
-0.405
-0.44
-0.44
-0.43
-0.425
-0.45
-0.42
-0.425
-0.485
-0.44
-0.39
-0.42
-0.455
-0.44
-0.445
-0.44
-0.435
-0.41
-0.43
-0.415
-0.405
-0.42
-0.425
-0.43
-0.425
-0.455
-0.44
-0.44
-0.46
-0.48
-0.445
-0.415
-0.395
-0.385
-0.43
-0.43
-0.43
-0.47
-0.475
-0.435
-0.41
-0.41
-0.395
-0.375
-0.365
-0.405
-0.435
-0.43
-0.465
-0.455
-0.41
-0.43
-0.475
-0.465
-0.435
-0.45
-0.43
-0.4
-0.4
-0.455
-0.48
-0.415
-0.415
-0.395
-0.455
-0.465
-0.425
-0.4
-0.405
-0.445
-0.445
-0.44
-0.415
-0.41
-0.47
-0.44
-0.43
-0.425
-0.42
-0.4
-0.39
-0.385
-0.41
-0.415
-0.38
-0.39
-0.43
-0.4
-0.4
-0.355
-0.38
-0.415
-0.39
-0.39
-0.44
-0.41
-0.38
-0.43
-0.45
-0.42
-0.38
-0.385
-0.425
-0.41
-0.395
-0.395
-0.34
-0.42
-0.45
-0.45
-0.425
-0.42
-0.42
-0.43
-0.43
-0.44
-0.44
-0.46
-0.465
-0.43
-0.44
-0.475
-0.47
-0.475
-0.475
-0.43
-0.44
-0.515
-0.475
-0.44
-0.425
-0.44
-0.47
-0.425
-0.44
-0.43
-0.435
-0.45
-0.475
-0.485
-0.535
-0.555
-0.555
-0.595
-0.65
-0.685
-0.63
-0.585
-0.46
-0.3
-0.19
-0.175
-0.01
0.135
0.25
0.4
0.55
0.655
0.825
1.01
1.15
1.225
1.255
1.225
1.03
0.79
0.605
0.27
-0.015
-0.155
-0.265
-0.385
-0.37
-0.425
-0.45
-0.45
-0.42
-0.43
-0.38
-0.435
-0.47
-0.39
-0.36
-0.37
-0.425
-0.4
-0.43
-0.425
-0.425
-0.39
-0.41
-0.445
-0.425
-0.415
-0.4
-0.44
-0.415
-0.46
-0.415
-0.435
-0.445
-0.41
-0.43
-0.435
-0.43
-0.375
-0.43
-0.425
-0.38
-0.365
-0.325
-0.435
-0.46
-0.405
-0.385
-0.375
-0.38
-0.41
-0.345
-0.315
-0.345
-0.4
-0.375
-0.36
-0.375
-0.36
-0.365
-0.37
-0.34
-0.345
-0.32
-0.33
-0.31
-0.33
-0.355
-0.32
-0.315
-0.325
-0.32
-0.31
-0.275
-0.34
-0.315
-0.26
-0.27
-0.255
-0.28
-0.245
-0.22
-0.24
-0.225
-0.22
-0.23
-0.24
-0.165
-0.13
-0.205
-0.195
-0.15
-0.15
-0.14
-0.155
-0.125
-0.12
-0.1
-0.09
-0.08
-0.085
-0.035
-0.045
-0.03
-0.035
-0.03
-0.025
-0.005
-0.04
-0.035
-0.03
-0.01
0.005
-0.025
-0.015
-0.01
-0.05
-0.01
-0.01
-0.025
-0.025
-0.045
-0.085
-0.12
-0.115
-0.135
-0.17
-0.185
-0.18
-0.18
-0.25
-0.295
-0.265
-0.2
-0.195
-0.24
-0.28
-0.34
-0.29
-0.325
-0.33
-0.35
-0.37
-0.365
-0.38
-0.37
-0.34
-0.36
-0.41
-0.395
-0.395
-0.405
-0.355
-0.435
-0.375
-0.38
-0.405
-0.39
-0.42
-0.385
-0.365
-0.345
-0.375
-0.42
-0.41
-0.415
-0.425
-0.445
-0.405
-0.4
-0.36
-0.37
-0.415
-0.445
-0.39
-0.375
-0.415
-0.43
-0.425
-0.39
-0.34
-0.365
-0.35
-0.36
-0.39
-0.4
-0.445
-0.405
-0.395
-0.43
-0.385
-0.4
-0.415
-0.445
-0.4
-0.405
-0.395
-0.38
-0.41
-0.405
-0.355
-0.345
-0.425
-0.4
-0.375
-0.38
-0.385
-0.395
-0.385
-0.415
-0.36
-0.4
-0.435
-0.405
-0.395
-0.455
-0.365
-0.375
-0.44
-0.43
-0.415
-0.385
-0.385
-0.395
-0.44
-0.45
-0.425
-0.45
-0.43
-0.425
-0.37
-0.41
-0.4
-0.415
-0.435
-0.395
-0.38
-0.405
-0.43
-0.415
-0.44
-0.41
-0.415
-0.395
-0.41
-0.475
-0.355
-0.38
-0.475
-0.45
-0.375
-0.395
-0.39
-0.425
-0.475
-0.425
-0.395
-0.445
-0.46
-0.425
-0.425
-0.43
-0.41
-0.41
-0.395
-0.45
-0.4
-0.43
-0.43
-0.445
-0.435
-0.47
-0.48
-0.42
-0.45
-0.455
-0.435
-0.465
-0.42
-0.44
-0.41
-0.425
-0.405
-0.44
-0.45
-0.43
-0.42
-0.435
-0.44
-0.43
-0.455
-0.41
-0.39
-0.43
-0.46
-0.445
-0.42
-0.455
-0.43
-0.415
-0.44
-0.46
-0.46
-0.425
-0.415
-0.455
-0.455
-0.445
-0.44
-0.41
-0.425
-0.425
-0.41
-0.41
-0.445
-0.42
-0.38
-0.38
-0.405
-0.365
-0.38
-0.415
-0.42
-0.435
-0.455
-0.375
-0.42
-0.405
-0.41
-0.39
-0.38
-0.42
-0.425
-0.415
-0.42
-0.385
-0.415
-0.45
-0.405
-0.375
-0.395
-0.42
-0.43
-0.42
-0.45
-0.43
-0.42
-0.455
-0.42
-0.395
-0.365
-0.365
-0.375
-0.42
-0.48
-0.415
-0.405
-0.44
-0.42
-0.4
-0.395
-0.38
-0.37
-0.385
-0.435
-0.4
-0.37
-0.455
-0.435
-0.34
-0.35
-0.37
-0.425
-0.42
-0.415
-0.445
-0.435
-0.425
-0.42
-0.375
-0.38
-0.345
-0.365
-0.375
-0.46
-0.41
-0.415
-0.41
-0.43
-0.4
-0.4
-0.46
-0.45
-0.395
-0.41
-0.41
-0.385
-0.395
-0.38
-0.325
-0.375
-0.455
-0.465
-0.45
-0.44
-0.37
-0.375
-0.385
-0.35
-0.395
-0.405
-0.355
-0.335
-0.42
-0.455
-0.435
-0.405
-0.435
-0.41
-0.415
-0.355
-0.335
-0.41
-0.44
-0.455
-0.45
-0.43
-0.445
-0.42
-0.385
-0.42
-0.41
-0.41
-0.425
-0.425
-0.425
-0.385
-0.41
-0.42
-0.39
-0.37
-0.375
-0.425
-0.445
-0.43
-0.485
-0.465
-0.355
-0.315
-0.34
-0.315
-0.295
-0.33
-0.445
-0.405
-0.405
-0.41
-0.39
-0.385
-0.36
-0.365
-0.34
-0.395
-0.45
-0.44
-0.375
-0.36
-0.41
-0.375
-0.39
-0.405
-0.385
-0.405
-0.36
-0.37
-0.38
-0.41
-0.415
-0.425
-0.42
-0.415
-0.425
-0.38
-0.29
-0.38
-0.415
-0.445
-0.47
-0.44
-0.4
-0.365
-0.405
-0.405
-0.43
-0.395
-0.385
-0.4
-0.405
-0.375
-0.385
-0.385
-0.43
-0.375
-0.4
-0.435
-0.43
-0.47
-0.435
-0.425
-0.47
-0.485
-0.505
-0.54
-0.55
-0.55
-0.53
-0.405
-0.18
-0.055
-0.11
0.01
0.225
0.385
0.485
0.52
0.71
0.83
0.98
1.065
1.07
1.01
0.95
0.8
0.56
0.225
-0.015
-0.225
-0.355
-0.395
-0.425
-0.4
-0.41
-0.41
-0.425
-0.42
-0.385
-0.395
-0.37
-0.37
-0.36
-0.345
-0.325
-0.32
-0.3
-0.35
-0.395
-0.37
-0.33
-0.26
-0.305
-0.33
-0.32
-0.345
-0.35
-0.335
-0.295
-0.32
-0.345
-0.315
-0.33
-0.34
-0.32
-0.29
-0.305
-0.295
-0.31
-0.335
-0.31
-0.3
-0.305
-0.285
-0.275
-0.275
-0.33
-0.29
-0.255
-0.28
-0.25
-0.285
-0.31
-0.285
-0.33
-0.255
-0.215
-0.14
-0.305
-0.275
-0.18
-0.16
-0.205
-0.225
-0.19
-0.21
-0.22
-0.23
-0.195
-0.24
-0.205
-0.21
-0.185
-0.16
-0.165
-0.185
-0.165
-0.21
-0.16
-0.145
-0.14
-0.135
-0.08
-0.06
-0.055
-0.09
-0.035
-0.03
-0.005
-0.04
-0.075
-0.02
-0.04
0.05
0.07
0.0
0.035
0.015
0.02
0.035
0.15
0.14
0.09
0.1
0.06
0.12
0.12
0.075
0.08
0.13
0.145
0.135
0.115
0.085
0.095
0.1
0.065
0.045
0.07
0.01
0.03
0.025
-0.005
-0.07
-0.065
-0.08
-0.095
-0.175
-0.125
-0.12
-0.155
-0.19
-0.215
-0.18
-0.175
-0.21
-0.235
-0.225
-0.255
-0.275
-0.305
-0.295
-0.3
-0.26
-0.26
-0.305
-0.34
-0.26
-0.29
-0.28
-0.26
-0.265
-0.355
-0.335
-0.305
-0.325
-0.275
-0.3
-0.315
-0.33
-0.26
-0.295
-0.31
-0.305
-0.285
-0.255
-0.33
-0.315
-0.345
-0.32
-0.29
-0.3
-0.31
-0.29
-0.305
-0.34
-0.33
-0.325
-0.325
-0.295
-0.27
-0.305
-0.31
-0.335
-0.37
-0.36
-0.35
-0.335
-0.39
-0.33
-0.285
-0.29
-0.28
-0.295
-0.34
-0.33
-0.315
-0.32
-0.35
-0.335
-0.3
-0.275
-0.32
-0.325
-0.29
-0.3
-0.255
-0.29
-0.285
-0.24
-0.24
-0.28
-0.285
-0.375
-0.375
-0.315
-0.28
-0.315
-0.31
-0.325
-0.295
-0.265
-0.31
-0.335
-0.31
-0.345
-0.32
-0.31
-0.31
-0.315
-0.335
-0.345
-0.32
-0.32
-0.295
-0.3
-0.34
-0.335
-0.33
-0.3
-0.315
-0.31
-0.33
-0.285
-0.265
-0.29
-0.26
-0.27
-0.355
-0.28
-0.27
-0.33
-0.37
-0.36
-0.335
-0.335
-0.24
-0.25
-0.255
-0.25
-0.315
-0.35
-0.32
-0.32
-0.395
-0.37
-0.35
-0.32
-0.33
-0.29
-0.33
-0.37
-0.28
-0.31
-0.28
-0.275
-0.265
-0.365
-0.395
-0.295
-0.29
-0.325
-0.37
-0.325
-0.34
-0.325
-0.315
-0.3
-0.295
-0.325
-0.335
-0.29
-0.3
-0.325
-0.315
-0.37
-0.36
-0.33
-0.31
-0.28
-0.295
-0.315
-0.29
-0.33
-0.37
-0.295
-0.3
-0.355
-0.275
-0.3
-0.34
-0.36
-0.33
-0.325
-0.335
-0.35
-0.34
-0.37
-0.34
-0.315
-0.325
-0.34
-0.325
-0.325
-0.335
-0.325
-0.36
-0.38
-0.305
-0.305
-0.325
-0.33
-0.36
-0.355
-0.34
-0.325
-0.295
-0.31
-0.305
-0.32
-0.325
-0.315
-0.285
-0.28
-0.245
-0.35
-0.38
-0.315
-0.32
-0.31
-0.245
-0.295
-0.39
-0.36
-0.32
-0.335
-0.375
-0.35
-0.36
-0.345
-0.285
-0.32
-0.33
-0.305
-0.295
-0.355
-0.31
-0.315
-0.25
-0.265
-0.225
-0.26
-0.315
-0.295
-0.31
-0.31
-0.275
-0.295
-0.33
-0.345
-0.3
-0.235
-0.26
-0.28
-0.325
-0.325
-0.32
-0.35
-0.29
-0.265
-0.315
-0.29
-0.315
-0.295
-0.29
-0.28
-0.29
-0.29
-0.28
-0.29
-0.32
-0.285
-0.285
-0.365
-0.315
-0.325
-0.385
-0.325
-0.3
-0.3
-0.305
-0.32
-0.335
-0.37
-0.34
-0.3
-0.35
-0.325
-0.29
-0.315
-0.3
-0.27
-0.275
-0.31
-0.29
-0.28
-0.38
-0.36
-0.39
-0.415
-0.4
-0.425
-0.465
-0.505
-0.445
-0.365
-0.325
-0.22
-0.06
-0.015
0.08
0.2
0.335
0.405
0.56
0.67
0.8
0.85
0.93
1.0
1.0
0.895
0.775
0.59
0.39
0.175
-0.08
-0.245
-0.305
-0.345
-0.4
-0.375
-0.35
-0.31
-0.345
-0.34
-0.32
-0.245
-0.285
-0.32
-0.325
-0.315
-0.295
-0.325
-0.325
-0.25
-0.275
-0.23
-0.285
-0.29
-0.265
-0.34
-0.315
-0.315
-0.3
-0.295
-0.315
-0.295
-0.285
-0.285
-0.28
-0.29
-0.26
-0.26
-0.275
-0.24
-0.305
-0.29
-0.235
-0.26
-0.24
-0.245
-0.26
-0.31
-0.27
-0.245
-0.27
-0.2
-0.235
-0.245
-0.235
-0.235
-0.245
-0.235
-0.215
-0.24
-0.25
-0.23
-0.215
-0.22
-0.21
-0.17
-0.18
-0.195
-0.2
-0.215
-0.235
-0.175
-0.14
-0.145
-0.155
-0.135
-0.14
-0.08
-0.06
-0.135
-0.195
-0.165
-0.12
-0.085
-0.115
-0.06
0.01
0.0
-0.095
-0.11
-0.075
-0.04
-0.025
0.0
0.005
0.01
0.015
0.05
0.015
0.025
0.06
0.11
0.05
0.045
0.07
0.1
0.085
0.115
0.12
0.12
0.085
0.08
0.095
0.065
0.025
0.075
0.075
0.05
0.005
0.005
0.005
0.02
-0.015
0.01
-0.03
-0.085
-0.065
-0.075
-0.115
-0.205
-0.175
-0.15
-0.13
-0.195
-0.21
-0.245
-0.23
-0.21
-0.28
-0.305
-0.245
-0.235
-0.26
-0.275
-0.28
-0.3
-0.31
-0.27
-0.29
-0.3
-0.28
-0.295
-0.305
-0.295
-0.285
-0.335
-0.355
-0.305
-0.265
-0.32
-0.295
-0.3
-0.295
-0.29
-0.285
-0.285
-0.255
-0.29
-0.31
-0.315
-0.3
-0.285
-0.3
-0.29
-0.31
-0.28
-0.255
-0.29
-0.3
-0.31
-0.315
-0.305
-0.27
-0.3
-0.285
-0.3
-0.23
-0.24
-0.295
-0.305
-0.305
-0.32
-0.315
-0.28
-0.255
-0.335
-0.285
-0.285
-0.34
-0.305
-0.245
-0.295
-0.315
-0.27
-0.275
-0.305
-0.355
-0.315
-0.285
-0.27
-0.275
-0.255
-0.245
-0.26
-0.205
-0.275
-0.38
-0.315
-0.285
-0.355
-0.315
-0.285
-0.295
-0.28
-0.28
-0.32
-0.29
-0.285
-0.285
-0.26
-0.29
-0.325
-0.29
-0.265
-0.27
-0.295
-0.315
-0.315
-0.285
-0.27
-0.29
-0.285
-0.25
-0.225
-0.265
-0.325
-0.305
-0.28
-0.3
-0.28
-0.24
-0.31
-0.32
-0.285
-0.305
-0.32
-0.26
-0.31
-0.285
-0.255
-0.285
-0.295
-0.3
-0.285
-0.28
-0.31
-0.315
-0.27
-0.285
-0.32
-0.27
-0.28
-0.28
-0.285
-0.3
-0.335
-0.315
-0.345
-0.32
-0.275
-0.23
-0.285
-0.285
-0.31
-0.31
-0.325
-0.31
-0.3
-0.315
-0.29
-0.265
-0.27
-0.34
-0.345
-0.335
-0.275
-0.265
-0.23
-0.285
-0.28
-0.24
-0.3
-0.28
-0.305
-0.31
-0.305
-0.345
-0.37
-0.35
-0.285
-0.225
-0.255
-0.305
-0.31
-0.33
-0.305
-0.31
-0.3
-0.325
-0.32
-0.3
-0.3
-0.27
-0.275
-0.3
-0.3
-0.315
-0.325
-0.34
-0.295
-0.28
-0.29
-0.3
-0.325
-0.31
-0.22
-0.22
-0.365
-0.335
-0.3
-0.285
-0.295
-0.325
-0.295
-0.32
-0.295
-0.305
-0.305
-0.285
-0.285
-0.3
-0.25
-0.29
-0.28
-0.295
-0.28
-0.27
-0.29
-0.285
-0.245
-0.29
-0.27
-0.255
-0.24
-0.265
-0.25
-0.255
-0.23
-0.245
-0.245
-0.26
-0.27
-0.275
-0.29
-0.29
-0.32
-0.355
-0.32
-0.275
-0.255
-0.235
-0.235
-0.245
-0.22
-0.245
-0.265
-0.295
-0.29
-0.295
-0.27
-0.27
-0.29
-0.31
-0.295
-0.345
-0.305
-0.29
-0.31
-0.315
-0.315
-0.31
-0.31
-0.32
-0.305
-0.33
-0.345
-0.31
-0.3
-0.265
-0.27
-0.32
-0.33
-0.34
-0.305
-0.355
-0.395
-0.37
-0.365
-0.395
-0.445
-0.47
-0.485
-0.49
-0.475
-0.395
-0.325
-0.195
-0.12
-0.06
0.065
0.195
0.32
0.5
0.565
0.665
0.805
0.895
0.975
1.055
1.085
1.03
0.905
0.735
0.52
0.225
-0.015
-0.17
-0.275
-0.305
-0.34
-0.355
-0.285
-0.31
-0.375
-0.355
-0.3
-0.335
-0.325
-0.31
-0.265
-0.255
-0.245
-0.28
-0.335
-0.355
-0.305
-0.295
-0.28
-0.285
-0.29
-0.29
-0.315
-0.31
-0.305
-0.295
-0.265
-0.265
-0.315
-0.26
-0.3
-0.305
-0.305
-0.27
-0.25
-0.275
-0.31
-0.28
-0.25
-0.23
-0.29
-0.27
-0.29
-0.255
-0.27
-0.285
-0.35
-0.26
-0.255
-0.23
-0.215
-0.215
-0.215
-0.23
-0.3
-0.2
-0.215
-0.27
-0.26
-0.2
-0.235
-0.25
-0.225
-0.23
-0.225
-0.215
-0.22
-0.2
-0.205
-0.18
-0.18
-0.17
-0.12
-0.14
-0.225
-0.175
-0.145
-0.105
-0.14
-0.115
-0.105
-0.115
-0.09
-0.095
-0.135
-0.08
-0.07
-0.065
-0.01
0.025
-0.025
-0.04
-0.035
0.01
0.035
0.02
0.005
-0.01
0.0
0.07
0.065
0.055
0.115
0.09
0.06
0.085
0.095
0.02
0.045
0.085
0.03
0.03
0.05
0.03
0.0
0.01
-0.04
-0.035
-0.07
-0.06
-0.065
-0.085
-0.125
-0.135
-0.105
-0.135
-0.195
-0.23
-0.17
-0.155
-0.205
-0.245
-0.28
-0.27
-0.29
-0.285
-0.31
-0.34
-0.28
-0.27
-0.285
-0.29
-0.275
-0.28
-0.3
-0.345
-0.35
-0.325
-0.285
-0.29
-0.335
-0.35
-0.345
-0.32
-0.335
-0.325
-0.345
-0.35
-0.29
-0.3
-0.295
-0.29
-0.34
-0.365
-0.32
-0.305
-0.32
-0.37
-0.375
-0.345
-0.355
-0.35
-0.325
-0.34
-0.34
-0.345
-0.365
-0.37
-0.345
-0.29
-0.35
-0.33
-0.315
-0.295
-0.32
-0.315
-0.35
-0.405
-0.36
-0.34
-0.32
-0.35
-0.355
-0.35
-0.35
-0.32
-0.34
-0.345
-0.335
-0.305
-0.315
-0.335
-0.345
-0.355
-0.325
-0.32
-0.355
-0.345
-0.355
-0.325
-0.355
-0.325
-0.305
-0.325
-0.335
-0.37
-0.345
-0.36
-0.37
-0.34
-0.34
-0.33
-0.325
-0.34
-0.35
-0.33
-0.365
-0.42
-0.38
-0.335
-0.3
-0.285
-0.335
-0.395
-0.405
-0.41
-0.295
-0.34
-0.345
-0.36
-0.365
-0.34
-0.325
-0.325
-0.37
-0.36
-0.355
-0.32
-0.355
-0.365
-0.34
-0.335
-0.355
-0.36
-0.405
-0.385
-0.39
-0.345
-0.335
-0.365
-0.365
-0.35
-0.385
-0.38
-0.35
-0.345
-0.4
-0.38
-0.35
-0.345
-0.4
-0.42
-0.35
-0.39
-0.4
-0.37
-0.37
-0.325
-0.3
-0.385
-0.355
-0.365
-0.395
-0.385
-0.375
-0.42
-0.4
-0.36
-0.385
-0.33
-0.355
-0.37
-0.385
-0.365
-0.35
-0.355
-0.385
-0.415
-0.37
-0.395
-0.39
-0.385
-0.36
-0.395
-0.37
-0.375
-0.385
-0.375
-0.39
-0.365
-0.37
-0.39
-0.375
-0.355
-0.36
-0.435
-0.405
-0.36
-0.365
-0.38
-0.435
-0.385
-0.375
-0.34
-0.37
-0.42
-0.395
-0.385
-0.38
-0.375
-0.41
-0.38
-0.39
-0.435
-0.39
-0.4
-0.375
-0.385
-0.385
-0.385
-0.405
-0.375
-0.42
-0.38
-0.405
-0.42
-0.34
-0.395
-0.39
-0.355
-0.36
-0.365
-0.38
-0.435
-0.415
-0.4
-0.405
-0.395
-0.38
-0.365
-0.38
-0.395
-0.385
-0.375
-0.375
-0.36
