# TIPE ECG 2021 - ECG-ID Database v1.0.0 par Physionet
# [N° de la personne, N° de l'enregistrement, Période d'échantillonnage, Prénom, Age, Sexe, Date de l'enregistrement]
[31, 1, 0.002, "Thomas", 58, "H", "12.05.2005"]
-0.03
-0.015
-0.02
-0.015
0.045
-0.015
-0.035
-0.02
-0.015
-0.025
0.0
0.005
-0.03
-0.015
-0.045
-0.015
0.005
-0.045
-0.05
-0.01
-0.035
-0.045
-0.035
-0.015
-0.02
0.02
0.025
-0.02
-0.01
-0.08
0.0
-0.035
-0.075
0.005
-0.02
-0.02
-0.04
-0.04
-0.105
-0.05
0.015
0.01
-0.03
-0.03
0.01
-0.03
-0.025
-0.015
-0.03
-0.005
-0.005
-0.04
0.0
0.01
0.0
-0.04
-0.02
-0.015
-0.055
-0.005
-0.085
-0.07
-0.08
-0.065
-0.005
-0.045
-0.03
0.0
-0.09
-0.06
-0.02
-0.005
-0.045
-0.05
-0.03
-0.045
-0.01
0.01
0.01
-0.05
0.005
0.035
-0.005
0.015
0.03
0.025
0.015
0.01
0.005
-0.025
0.015
0.04
0.085
0.075
0.05
0.04
-0.03
0.05
0.09
0.085
0.08
0.045
0.0
0.05
0.055
-0.025
-0.01
-0.005
-0.085
-0.08
-0.06
-0.065
-0.075
-0.08
-0.05
-0.02
-0.065
-0.025
-0.055
-0.06
-0.045
-0.07
-0.035
-0.035
-0.06
-0.075
-0.055
-0.055
-0.03
-0.155
-0.095
-0.09
-0.07
-0.035
-0.045
-0.065
-0.02
-0.055
-0.065
-0.02
-0.085
-0.095
-0.08
-0.055
-0.115
-0.125
-0.05
-0.08
-0.095
-0.06
-0.02
0.04
0.13
0.3
0.415
0.59
0.75
0.98
1.045
1.15
1.145
1.035
0.97
0.78
0.615
0.36
0.065
-0.11
-0.325
-0.325
-0.36
-0.315
-0.325
-0.27
-0.36
-0.33
-0.275
-0.29
-0.27
-0.205
-0.145
-0.215
-0.17
-0.115
-0.08
-0.055
-0.09
-0.065
-0.08
-0.1
-0.08
-0.07
-0.09
-0.09
-0.055
-0.085
-0.065
-0.08
-0.05
-0.06
-0.06
-0.08
-0.04
-0.025
-0.065
-0.05
-0.07
-0.065
-0.07
-0.015
-0.01
-0.09
0.025
-0.035
-0.06
-0.015
0.005
-0.02
-0.035
-0.08
0.02
-0.04
-0.03
-0.03
-0.05
-0.05
-0.03
0.06
0.065
0.03
0.02
0.0
0.015
0.025
0.05
0.025
0.055
0.04
0.0
0.05
0.11
0.015
0.1
0.095
0.08
0.12
0.115
0.065
0.09
0.125
0.13
0.105
0.14
0.205
0.135
0.185
0.16
0.14
0.165
0.185
0.175
0.17
0.15
0.19
0.155
0.175
0.2
0.135
0.165
0.2
0.12
0.18
0.23
0.195
0.195
0.215
0.185
0.19
0.115
0.19
0.135
0.14
0.12
0.11
0.125
0.085
0.14
0.11
0.07
0.085
0.01
0.025
0.035
-0.005
0.025
-0.015
0.025
0.035
-0.03
0.03
-0.03
-0.035
-0.035
-0.075
-0.025
-0.035
-0.04
-0.06
-0.07
-0.08
-0.105
-0.055
0.025
-0.03
-0.085
-0.05
-0.055
-0.065
-0.04
-0.015
-0.045
-0.03
-0.045
-0.105
-0.085
0.005
-0.06
-0.07
-0.06
-0.045
-0.07
-0.075
-0.01
-0.08
-0.08
-0.065
-0.075
-0.07
-0.1
-0.055
-0.06
-0.05
-0.045
-0.04
0.0
-0.02
-0.095
-0.065
-0.025
-0.1
-0.065
-0.06
-0.015
-0.055
-0.08
-0.075
-0.07
-0.055
-0.06
-0.06
-0.04
-0.035
-0.025
-0.06
-0.06
-0.05
-0.065
-0.085
-0.065
-0.035
-0.065
-0.065
-0.1
-0.075
-0.03
-0.055
-0.07
-0.055
-0.015
-0.03
-0.11
-0.04
-0.025
-0.075
-0.1
-0.09
-0.07
-0.065
-0.065
-0.06
-0.035
-0.09
-0.055
-0.065
-0.06
-0.08
-0.055
-0.075
-0.095
-0.065
-0.095
-0.04
-0.115
-0.07
-0.07
-0.065
-0.09
-0.07
-0.1
-0.11
-0.105
-0.06
-0.05
-0.1
-0.035
-0.035
-0.09
-0.025
-0.065
-0.07
0.005
-0.05
-0.08
-0.085
-0.045
-0.065
-0.07
0.035
0.005
-0.06
-0.045
-0.01
0.005
0.07
0.035
0.0
-0.035
0.05
0.02
0.045
-0.025
0.01
-0.015
0.05
0.01
-0.015
0.01
-0.115
-0.06
-0.055
-0.06
-0.085
-0.08
-0.135
-0.055
-0.045
-0.09
-0.095
-0.12
-0.09
-0.075
-0.08
-0.145
-0.09
-0.05
-0.05
-0.075
-0.115
-0.09
-0.13
-0.095
-0.08
-0.16
-0.035
-0.06
-0.095
-0.075
-0.035
-0.12
-0.135
-0.13
-0.05
-0.085
-0.08
-0.13
-0.1
-0.16
-0.13
-0.12
-0.19
-0.09
-0.095
-0.025
0.08
0.26
0.405
0.54
0.755
0.97
1.04
1.205
1.265
1.125
1.01
0.735
0.56
0.39
0.145
-0.065
-0.295
-0.385
-0.39
-0.315
-0.31
-0.32
-0.33
-0.34
-0.285
-0.3
-0.26
-0.265
-0.185
-0.205
-0.115
-0.115
-0.125
-0.08
-0.06
-0.095
-0.105
-0.11
-0.095
-0.09
-0.065
-0.105
-0.1
-0.065
-0.08
-0.115
-0.11
-0.065
-0.035
-0.065
-0.09
-0.05
-0.105
-0.08
-0.06
-0.04
-0.075
-0.065
-0.03
0.035
-0.005
-0.015
0.03
-0.04
-0.02
-0.105
-0.03
-0.005
0.005
-0.06
-0.04
-0.045
0.005
0.02
-0.025
0.015
-0.005
0.03
0.06
0.035
-0.005
0.015
0.03
0.06
0.03
0.035
0.01
0.08
0.11
0.075
0.1
0.12
0.09
0.095
0.11
0.105
0.1
0.15
0.125
0.165
0.175
0.205
0.135
0.18
0.2
0.155
0.105
0.185
0.245
0.205
0.155
0.16
0.155
0.175
0.17
0.215
0.175
0.175
0.235
0.23
0.14
0.185
0.155
0.155
0.195
0.165
0.165
0.16
0.13
0.12
0.135
0.145
0.1
0.095
0.055
0.045
0.06
0.015
0.055
0.04
0.025
0.035
0.03
0.065
-0.01
-0.045
-0.045
-0.045
-0.035
-0.03
0.005
-0.01
0.0
-0.04
-0.05
-0.035
0.085
-0.14
-0.095
-0.015
0.0
-0.085
-0.135
-0.07
-0.02
-0.02
-0.055
-0.075
-0.04
-0.09
-0.085
-0.1
-0.07
-0.06
-0.085
-0.105
-0.06
-0.075
-0.035
-0.11
-0.08
-0.115
-0.065
-0.065
-0.075
-0.115
-0.065
-0.035
-0.01
-0.06
-0.005
-0.07
-0.02
-0.06
-0.1
-0.08
-0.04
-0.035
-0.01
-0.05
-0.01
-0.06
-0.12
-0.075
-0.06
-0.09
-0.085
-0.065
-0.075
-0.045
-0.055
-0.115
-0.04
-0.07
-0.09
-0.055
-0.04
-0.065
-0.025
-0.065
-0.07
-0.075
-0.04
-0.1
-0.055
-0.055
-0.06
-0.095
-0.05
-0.085
-0.045
-0.065
-0.055
-0.06
-0.08
-0.07
-0.02
-0.03
-0.115
-0.145
-0.13
-0.045
-0.07
-0.015
-0.08
-0.05
-0.055
-0.045
-0.06
-0.01
-0.085
-0.11
-0.08
-0.055
-0.11
-0.06
-0.04
-0.085
-0.045
-0.04
-0.03
-0.09
-0.05
-0.08
-0.06
-0.035
-0.035
-0.01
-0.02
0.035
-0.03
-0.05
-0.045
-0.095
-0.045
0.025
0.04
0.07
0.03
0.065
0.045
-0.015
0.015
0.005
-0.04
-0.03
0.025
-0.035
-0.055
-0.065
-0.04
-0.06
-0.08
-0.075
-0.04
-0.105
-0.045
-0.07
-0.08
-0.075
-0.09
-0.1
-0.095
-0.145
-0.185
-0.165
-0.06
-0.045
-0.115
-0.11
-0.085
-0.145
-0.085
-0.07
-0.09
-0.14
-0.105
-0.15
-0.125
-0.1
-0.115
-0.185
-0.11
-0.105
-0.115
-0.18
-0.055
-0.125
-0.16
-0.12
-0.14
-0.135
-0.115
-0.11
-0.085
0.055
0.015
0.145
0.3
0.46
0.645
0.82
1.03
1.2
1.145
1.15
1.075
0.83
0.69
0.445
0.195
0.0
-0.22
-0.395
-0.41
-0.365
-0.37
-0.39
-0.325
-0.375
-0.345
-0.355
-0.265
-0.245
-0.195
-0.195
-0.165
-0.19
-0.185
-0.105
-0.15
-0.135
-0.125
-0.145
-0.1
-0.08
-0.12
-0.135
-0.2
-0.055
-0.07
-0.085
-0.105
-0.1
-0.13
-0.115
-0.16
-0.065
-0.125
-0.085
-0.14
-0.09
-0.07
-0.105
-0.1
-0.06
-0.09
-0.115
-0.085
-0.07
-0.02
-0.065
-0.065
-0.12
-0.085
-0.055
-0.065
-0.035
-0.02
0.0
-0.02
-0.01
-0.05
-0.055
0.025
0.0
-0.065
-0.015
0.005
0.005
-0.005
-0.02
-0.005
0.055
0.03
0.025
0.0
0.04
0.08
0.01
0.035
0.11
0.055
0.09
0.115
0.18
0.085
0.105
0.045
0.125
0.11
0.1
0.145
0.15
0.11
0.17
0.16
0.16
0.135
0.17
0.175
0.15
0.165
0.145
0.14
0.115
0.12
0.1
0.16
0.14
0.14
0.1
0.15
0.08
0.13
0.115
0.06
0.005
-0.01
0.005
0.0
0.035
0.04
-0.075
-0.035
0.015
0.0
0.045
-0.005
-0.05
-0.005
0.005
-0.06
-0.11
-0.11
-0.09
-0.13
-0.115
-0.135
-0.1
-0.015
-0.015
-0.05
-0.07
-0.115
-0.12
-0.075
-0.09
-0.13
-0.155
-0.105
-0.085
-0.12
-0.09
-0.12
-0.08
-0.07
-0.125
-0.135
-0.065
-0.095
-0.055
-0.125
-0.1
-0.12
-0.14
-0.055
-0.1
-0.085
-0.105
-0.085
-0.105
-0.03
-0.175
-0.15
-0.105
-0.105
-0.06
-0.05
-0.09
-0.21
-0.025
-0.075
-0.06
-0.03
-0.115
-0.155
-0.125
-0.105
-0.11
-0.1
-0.065
-0.095
-0.105
-0.095
-0.085
-0.075
-0.195
-0.105
-0.105
-0.075
-0.02
-0.075
-0.08
-0.08
-0.08
-0.07
-0.055
-0.055
-0.115
-0.095
-0.135
-0.08
-0.135
-0.06
-0.08
-0.12
-0.09
-0.165
-0.12
-0.105
-0.02
-0.06
-0.05
-0.115
-0.06
-0.015
-0.04
-0.045
-0.105
-0.12
-0.09
-0.06
-0.08
-0.105
-0.12
-0.1
-0.105
-0.09
-0.075
-0.085
-0.095
-0.07
-0.105
-0.07
-0.025
-0.07
-0.065
-0.04
-0.045
-0.01
0.05
-0.06
-0.08
0.01
0.015
-0.05
-0.005
0.01
0.025
0.035
0.05
0.025
0.05
0.025
0.04
-0.04
-0.025
-0.015
0.025
0.045
0.015
-0.035
-0.055
0.01
-0.05
-0.055
-0.04
-0.08
-0.12
-0.07
-0.055
-0.11
-0.055
-0.085
-0.08
-0.065
-0.045
-0.055
-0.085
-0.09
-0.05
-0.05
-0.095
-0.04
-0.04
-0.1
-0.035
-0.065
-0.06
-0.135
-0.055
-0.055
-0.035
-0.01
-0.05
-0.125
-0.075
-0.08
-0.04
-0.085
-0.115
-0.155
-0.1
-0.1
-0.07
-0.095
0.01
0.02
0.065
0.225
0.33
0.51
0.72
0.9
1.01
1.13
1.17
1.12
0.95
0.895
0.59
0.415
0.235
0.05
-0.195
-0.26
-0.225
-0.225
-0.3
-0.33
-0.3
-0.245
-0.2
-0.175
-0.165
-0.15
-0.17
-0.075
-0.07
-0.085
-0.025
-0.075
-0.045
-0.015
-0.075
-0.03
-0.04
-0.045
0.02
0.01
-0.02
0.0
-0.09
-0.005
0.025
-0.025
0.0
-0.02
0.01
0.005
-0.075
-0.1
-0.025
0.005
0.02
-0.05
0.02
-0.065
0.075
-0.01
0.005
0.02
0.02
0.02
-0.02
0.025
0.045
0.035
-0.04
0.045
0.055
0.055
0.035
0.025
0.08
0.065
0.05
0.02
0.045
0.045
0.1
0.05
0.125
0.11
0.15
0.18
0.135
0.105
0.12
0.08
0.095
0.11
0.16
0.095
0.215
0.2
0.145
0.15
0.21
0.205
0.175
0.21
0.205
0.285
0.205
0.195
0.235
0.21
0.225
0.23
0.2
0.215
0.23
0.24
0.245
0.25
0.205
0.22
0.22
0.225
0.17
0.195
0.235
0.19
0.225
0.135
0.15
0.17
0.19
0.17
0.11
0.17
0.105
0.08
0.115
0.13
0.07
0.06
0.04
0.065
0.08
0.045
0.065
0.01
-0.03
0.0
0.005
0.025
0.025
-0.025
-0.025
0.035
0.04
-0.005
-0.04
-0.04
0.015
0.035
-0.07
-0.005
0.02
-0.04
0.025
-0.01
0.035
-0.01
-0.015
-0.005
-0.015
-0.04
-0.01
0.01
-0.035
-0.03
-0.02
0.01
-0.04
-0.025
-0.06
-0.015
-0.025
0.035
-0.06
-0.055
0.025
0.025
-0.11
-0.035
0.005
-0.02
-0.02
0.05
0.035
0.0
0.05
-0.005
0.015
-0.05
0.005
0.04
-0.055
-0.065
-0.025
-0.005
-0.015
-0.025
-0.055
0.01
-0.02
-0.04
-0.05
-0.025
-0.015
0.055
0.03
-0.04
-0.015
0.0
-0.055
0.005
0.0
-0.055
0.025
-0.03
-0.015
0.005
-0.045
-0.02
-0.015
-0.005
0.05
-0.02
-0.035
0.0
0.0
-0.01
-0.03
-0.05
0.025
-0.04
0.015
-0.035
-0.05
-0.02
-0.045
-0.04
-0.005
-0.065
0.0
-0.07
-0.08
-0.03
0.0
-0.01
0.015
-0.035
0.005
-0.005
-0.035
-0.02
0.01
-0.035
0.01
-0.055
-0.04
0.0
-0.015
-0.045
-0.025
0.035
0.095
0.075
0.055
0.07
0.08
-0.05
0.065
0.07
0.05
0.035
0.11
0.04
0.01
0.04
0.01
-0.015
0.035
-0.005
-0.13
-0.075
-0.055
-0.055
-0.05
-0.055
-0.015
-0.085
-0.06
-0.07
-0.08
-0.07
-0.07
-0.03
-0.08
-0.025
-0.045
-0.08
-0.07
-0.08
-0.12
-0.055
-0.065
-0.075
-0.05
-0.08
-0.07
-0.12
-0.045
-0.065
-0.09
-0.11
-0.07
-0.07
-0.07
-0.055
-0.145
-0.135
-0.16
-0.12
-0.145
-0.11
-0.035
-0.05
0.0
0.15
0.275
0.44
0.595
0.88
1.035
1.185
1.235
1.17
1.085
0.955
0.7
0.53
0.275
0.05
-0.195
-0.28
-0.27
-0.265
-0.3
-0.28
-0.23
-0.225
-0.245
-0.255
-0.2
-0.165
-0.155
-0.125
-0.115
-0.045
-0.14
-0.075
-0.095
-0.055
-0.025
-0.045
-0.075
-0.045
-0.065
-0.055
-0.04
-0.07
-0.09
-0.08
-0.065
-0.145
-0.06
-0.09
-0.06
0.01
-0.015
-0.05
-0.065
-0.02
0.0
-0.065
0.0
-0.035
-0.05
-0.065
-0.035
-0.005
-0.025
0.05
-0.02
0.005
0.05
0.035
0.02
0.025
-0.04
-0.035
0.035
0.01
-0.005
0.05
0.08
-0.025
0.055
0.015
-0.015
0.035
0.1
0.13
0.12
0.085
0.1
0.03
0.14
0.15
0.105
0.105
0.13
0.185
0.165
0.145
0.15
0.19
0.18
0.21
0.185
0.235
0.195
0.21
0.18
0.23
0.235
0.22
0.225
0.24
0.215
0.2
0.265
0.205
0.245
0.245
0.225
0.285
0.225
0.225
0.21
0.22
0.225
0.215
0.115
0.23
0.18
0.155
0.145
0.21
0.185
0.105
0.15
0.095
0.065
0.095
0.05
0.1
0.01
0.095
0.065
0.075
0.04
0.0
-0.03
0.005
0.025
0.045
0.045
0.025
0.04
0.0
0.025
-0.055
-0.015
-0.01
-0.07
0.0
0.015
0.01
-0.03
-0.035
-0.02
0.015
-0.02
0.04
-0.025
-0.005
-0.015
-0.01
-0.035
-0.01
0.005
0.015
-0.03
-0.03
0.01
0.005
-0.095
-0.05
-0.05
-0.085
-0.04
0.015
0.005
0.0
-0.015
-0.005
0.015
0.02
-0.015
-0.015
-0.025
-0.03
0.005
0.005
0.04
-0.01
-0.02
-0.04
-0.015
-0.035
-0.045
0.01
0.035
-0.015
-0.04
-0.03
-0.01
-0.035
-0.07
-0.05
-0.005
-0.05
0.05
-0.015
0.055
-0.005
-0.035
-0.03
-0.055
-0.04
-0.035
-0.01
-0.005
0.01
-0.025
0.015
0.025
0.01
-0.005
0.0
0.0
-0.005
0.01
0.045
-0.015
-0.03
-0.025
-0.025
-0.02
-0.02
-0.05
-0.05
0.0
-0.015
-0.03
-0.035
-0.01
0.015
-0.025
-0.04
0.025
0.015
-0.035
-0.03
-0.025
-0.015
0.015
0.02
0.015
0.0
0.04
-0.02
0.04
0.03
0.08
0.105
0.09
0.075
0.02
0.01
0.04
0.03
0.045
0.145
0.095
0.08
0.095
0.075
0.1
0.06
0.055
0.005
0.05
0.03
0.045
0.01
0.08
0.005
0.01
0.015
-0.025
-0.015
0.0
0.0
-0.005
-0.005
0.005
-0.025
0.025
-0.025
-0.035
-0.025
-0.01
-0.01
0.02
-0.015
0.045
-0.055
-0.075
0.01
-0.025
-0.035
-0.015
-0.025
-0.06
-0.095
-0.075
0.015
0.025
-0.035
0.015
-0.05
0.0
-0.03
-0.025
-0.045
-0.1
-0.035
-0.045
-0.055
-0.04
0.035
0.155
0.305
0.435
0.62
0.85
1.04
1.215
1.265
1.245
1.215
1.12
0.925
0.675
0.465
0.285
0.045
-0.185
-0.265
-0.23
-0.21
-0.18
-0.235
-0.205
-0.27
-0.24
-0.22
-0.17
-0.115
-0.07
-0.15
0.015
-0.07
-0.03
-0.03
0.005
0.005
-0.01
0.01
-0.025
0.04
-0.02
-0.015
-0.035
0.0
-0.015
-0.005
-0.025
-0.01
-0.015
0.055
0.025
0.01
0.01
-0.015
0.005
0.01
-0.02
-0.04
0.01
0.095
0.065
0.065
0.015
0.055
0.015
0.025
0.06
0.0
0.02
0.06
0.085
0.1
0.08
0.07
0.05
0.055
0.07
0.07
0.055
0.08
0.145
0.16
0.055
0.09
0.115
0.125
0.12
0.135
0.11
0.155
0.15
0.12
0.18
0.195
0.18
0.22
0.145
0.19
0.14
0.235
0.26
0.25
0.225
0.235
0.25
0.22
0.2
0.31
0.265
0.265
0.25
0.22
0.295
0.27
0.26
0.27
0.31
0.275
0.29
0.255
0.265
0.275
0.265
0.29
0.275
0.315
0.27
0.16
0.195
0.25
0.215
0.18
0.185
0.19
0.165
0.17
0.11
0.11
0.14
0.23
0.07
0.06
0.07
0.08
0.125
0.075
0.035
0.055
0.055
0.03
0.02
0.06
0.075
0.075
0.04
-0.025
0.005
0.07
0.09
0.085
0.04
0.065
0.04
0.055
0.04
0.005
0.045
0.04
0.015
0.1
0.02
0.005
0.06
0.07
0.055
0.035
0.055
0.02
0.05
0.075
0.085
0.12
0.12
0.06
0.02
0.01
0.015
0.01
0.095
0.16
0.06
0.02
0.07
0.06
0.08
0.075
0.075
0.06
0.08
0.1
0.1
0.075
0.105
0.045
-0.01
0.125
0.085
0.1
0.165
0.125
0.15
0.06
0.085
0.09
0.095
0.085
0.12
0.09
0.08
0.08
0.095
0.055
0.085
0.1
0.07
0.075
0.075
0.11
0.07
0.06
0.14
0.075
0.075
0.11
0.09
0.07
0.125
-0.015
0.09
0.09
0.14
0.075
0.06
0.06
0.115
0.125
0.1
0.085
0.1
0.12
0.1
0.035
0.085
0.105
0.11
0.16
0.18
0.075
0.09
0.095
0.055
0.065
0.09
0.08
0.13
0.125
0.095
0.1
0.19
0.15
0.095
0.125
0.195
0.11
0.175
0.18
0.18
0.23
0.23
0.225
0.22
0.26
0.31
0.285
0.235
0.24
0.185
0.185
0.205
0.21
0.205
0.18
0.205
0.15
0.15
0.2
0.11
0.105
0.105
0.13
0.04
0.11
0.13
0.08
0.18
0.13
0.075
0.115
0.16
0.115
0.07
0.1
0.135
0.13
0.14
0.12
0.08
0.06
0.18
0.105
0.1
0.13
0.07
0.13
0.105
0.11
0.135
0.16
0.14
0.14
0.145
0.14
0.055
0.055
0.155
0.1
0.085
0.115
0.15
0.175
0.205
0.3
0.45
0.675
0.87
1.03
1.2
1.375
1.45
1.46
1.4
1.23
1.02
0.785
0.555
0.365
0.1
-0.105
-0.085
-0.12
-0.08
-0.1
-0.065
-0.085
-0.065
-0.075
-0.02
0.015
0.065
0.09
0.095
0.1
0.18
0.125
0.21
0.19
0.155
0.105
0.15
0.185
0.185
0.12
0.13
0.145
0.17
0.145
0.155
0.13
0.095
0.165
0.155
0.165
0.165
0.12
0.215
0.15
0.155
0.165
0.19
0.125
0.135
0.215
0.195
0.165
0.125
0.195
0.195
0.21
0.195
0.155
0.205
0.25
0.21
0.215
0.21
0.2
0.215
0.25
0.24
0.255
0.205
0.225
0.22
0.235
0.21
0.275
0.29
0.26
0.305
0.29
0.27
0.29
0.25
0.3
0.305
0.39
0.31
0.35
0.37
0.335
0.32
0.375
0.35
0.38
0.365
0.385
0.37
0.395
0.4
0.41
0.38
0.41
0.42
0.395
0.425
0.395
0.405
0.4
0.42
0.4
0.405
0.435
0.375
0.395
0.425
0.41
0.34
0.37
0.325
0.305
0.285
0.31
0.34
0.27
0.29
0.28
0.26
0.155
0.205
0.245
0.21
0.21
0.175
0.19
0.225
0.215
0.195
0.165
0.16
0.185
0.265
0.13
0.08
0.175
0.16
0.12
0.165
0.135
0.095
0.135
0.18
0.125
0.115
0.15
0.145
0.135
0.165
0.165
0.155
0.145
0.135
0.11
0.1
0.13
0.14
0.115
0.145
0.185
0.185
0.12
0.11
0.13
0.19
0.2
0.155
0.135
0.16
0.13
0.105
0.185
0.16
0.1
0.17
0.14
0.16
0.115
0.065
0.17
0.13
0.23
0.145
0.11
0.115
0.155
0.13
0.1
0.07
0.115
0.205
0.18
0.16
0.19
0.13
0.145
0.18
0.18
0.16
0.115
0.11
0.095
0.12
0.105
0.115
0.145
0.21
0.135
0.17
0.17
0.125
0.145
0.095
0.085
0.145
0.17
0.145
0.125
0.15
0.11
0.095
0.09
0.165
0.11
0.155
0.155
0.165
0.155
0.13
0.115
0.06
0.095
0.095
0.115
0.11
0.125
0.125
0.15
0.14
0.105
0.16
0.1
0.08
0.07
0.14
0.135
0.15
0.125
0.165
0.135
0.185
0.185
0.145
0.15
0.22
0.185
0.13
0.14
0.19
0.18
0.3
0.205
0.21
0.22
0.265
0.27
0.27
0.235
0.19
0.135
0.155
0.19
0.17
0.2
0.205
0.2
0.155
0.18
0.175
0.045
0.13
0.07
0.08
0.1
0.05
0.07
0.07
0.1
0.09
0.055
0.115
0.085
0.075
0.115
0.09
0.085
0.075
0.095
0.07
0.0
0.01
0.09
0.105
0.045
0.095
0.09
0.105
0.055
0.07
0.095
0.02
0.11
0.095
0.06
0.04
0.025
0.06
0.09
0.06
0.06
0.13
0.135
0.14
0.39
0.545
0.645
0.85
1.075
1.235
1.35
1.375
1.31
1.235
1.07
0.85
0.64
0.365
0.165
-0.09
-0.215
-0.22
-0.2
-0.18
-0.245
-0.14
-0.185
-0.125
-0.175
-0.115
-0.085
-0.01
0.015
-0.015
0.015
0.06
0.085
0.1
0.025
0.095
0.075
0.08
0.09
0.03
0.145
0.12
0.105
0.065
0.13
0.065
0.11
0.105
0.075
0.105
0.105
0.135
0.075
0.08
0.11
0.135
0.13
0.1
0.11
0.12
0.135
0.15
0.11
0.115
0.145
0.095
0.155
0.185
0.08
0.2
0.17
0.155
0.16
0.16
0.175
0.185
0.155
0.18
0.195
0.2
0.25
0.19
0.2
0.19
0.21
0.225
0.22
0.22
0.24
0.265
0.29
0.315
0.305
0.305
0.295
0.28
0.275
0.255
0.275
0.355
0.3
0.335
0.33
0.345
0.345
0.325
0.33
0.38
0.39
0.365
0.385
0.39
0.355
0.365
0.42
0.36
0.405
0.37
0.38
0.395
0.385
0.39
0.395
0.36
0.28
0.36
0.335
0.33
0.35
0.32
0.42
0.325
0.3
0.3
0.255
0.24
0.235
0.215
0.24
0.245
0.22
0.17
0.185
0.185
0.22
0.145
0.125
0.16
0.155
0.12
0.155
0.145
0.12
0.135
0.13
0.135
0.145
0.14
0.075
0.075
0.115
0.115
0.11
0.11
0.1
0.115
0.13
0.12
0.11
0.14
0.12
0.075
0.155
0.165
0.09
0.085
0.095
0.075
0.095
0.155
0.165
0.135
0.08
0.11
0.105
0.0
0.105
0.135
0.09
0.125
0.12
0.09
0.05
0.1
0.105
0.115
0.155
0.12
0.095
0.135
0.135
0.105
0.16
0.09
0.08
0.105
0.095
0.14
0.08
0.125
0.16
0.09
0.095
0.075
0.115
0.115
0.16
0.105
0.175
0.155
0.13
0.115
0.13
0.085
0.125
0.09
0.135
0.085
0.1
0.12
0.14
0.155
0.155
0.125
0.09
0.115
0.105
0.11
0.11
0.11
0.13
0.14
0.1
0.125
0.105
0.1
0.13
0.07
0.12
0.16
0.14
0.135
0.09
0.235
0.18
0.135
0.06
0.1
0.13
0.135
0.115
0.13
0.125
0.13
0.12
0.15
0.155
0.19
0.17
0.19
0.2
0.12
0.19
0.225
0.17
0.14
0.205
0.195
0.23
0.235
0.21
0.255
0.225
0.235
0.225
0.355
0.28
0.225
0.25
0.275
0.235
0.22
0.275
0.235
0.21
0.17
0.19
0.14
0.13
0.14
0.125
0.135
0.155
0.155
0.135
0.125
0.09
0.065
0.145
0.145
0.055
0.085
0.095
0.14
0.105
0.115
0.125
0.025
0.07
0.11
0.125
0.135
0.09
0.095
0.085
0.1
0.03
0.12
0.085
0.09
0.135
0.055
0.06
0.1
0.085
0.045
-0.03
0.02
0.075
0.065
0.11
0.145
0.26
0.265
0.445
0.59
0.81
0.93
1.21
1.335
1.38
1.385
1.245
1.115
0.905
0.725
0.475
0.285
0.06
-0.225
-0.295
-0.19
-0.21
-0.2
-0.135
-0.185
-0.18
-0.165
-0.12
-0.12
-0.065
-0.025
-0.015
-0.01
0.08
0.105
0.075
0.105
0.1
0.09
0.095
0.11
0.08
0.045
0.11
0.11
0.115
0.065
0.095
0.065
0.11
0.17
0.18
0.11
0.08
0.075
0.13
0.07
0.165
0.2
0.19
0.14
0.155
0.115
0.145
0.175
0.095
0.15
0.18
0.175
0.175
0.19
0.205
0.18
0.205
0.16
0.19
0.17
0.195
0.17
0.215
0.245
0.225
0.19
0.285
0.245
0.25
0.23
0.235
0.26
0.22
0.295
0.28
0.285
0.27
0.33
0.305
0.26
0.35
0.33
0.37
0.33
0.34
0.39
0.38
0.39
0.365
0.36
0.34
0.32
0.405
0.44
0.34
0.365
0.415
0.405
0.335
0.39
0.37
0.37
0.37
0.405
0.385
0.325
0.38
0.42
0.35
0.345
0.385
0.36
0.345
0.34
0.36
0.32
0.275
0.335
0.32
0.245
0.21
0.28
0.25
0.265
0.175
0.16
0.26
0.235
0.16
0.155
0.14
0.14
0.175
0.23
0.195
0.12
0.155
0.16
0.11
0.13
0.125
0.13
0.11
0.115
0.11
0.065
0.125
0.11
0.11
0.13
0.095
0.13
0.11
0.105
0.105
0.125
0.09
0.03
0.135
0.13
0.12
0.145
0.095
0.08
0.105
0.085
0.145
0.16
0.145
0.15
0.135
0.065
0.11
0.095
0.115
0.11
0.13
0.13
0.1
0.145
0.13
0.165
0.115
0.195
0.15
0.15
0.17
0.115
0.135
0.145
0.155
0.065
0.115
0.145
0.16
0.195
0.145
0.135
0.15
0.2
0.16
0.195
0.14
0.175
0.12
0.185
0.16
0.155
0.165
0.14
0.125
0.195
0.17
0.145
0.155
0.165
0.18
0.185
0.165
0.175
0.12
0.16
0.18
0.145
0.17
0.175
0.18
0.14
0.2
0.18
0.145
0.14
0.17
0.22
0.21
0.145
0.19
0.155
0.15
0.21
0.165
0.175
0.17
0.21
0.205
0.215
0.19
0.125
0.17
0.185
0.2
0.2
0.225
0.195
0.22
0.215
0.21
0.2
0.225
0.205
0.31
0.285
0.275
0.305
0.29
0.275
0.32
0.325
0.285
0.295
0.31
0.23
0.21
0.235
0.25
0.26
0.155
0.195
0.165
0.235
0.175
0.14
0.2
0.14
0.125
0.14
0.08
0.085
0.12
0.135
0.125
0.135
0.145
0.13
0.09
0.15
0.17
0.08
0.14
0.08
0.135
0.13
0.115
0.015
0.085
0.15
0.115
0.15
0.155
0.12
0.115
0.115
0.115
0.035
0.095
0.11
0.085
0.05
0.05
0.08
0.095
0.13
0.08
0.235
0.335
0.45
0.64
0.85
1.09
1.275
1.4
1.5
1.395
1.33
1.205
1.03
0.72
0.51
0.285
0.075
-0.195
-0.19
-0.145
-0.165
-0.165
-0.11
-0.14
-0.135
-0.095
-0.11
-0.08
-0.035
0.025
0.025
0.085
0.075
0.055
0.125
0.19
0.185
0.16
0.16
0.155
0.13
0.125
0.2
0.1
0.12
0.175
0.125
0.26
0.17
0.135
0.165
0.23
0.2
0.125
0.245
0.185
0.175
0.2
0.215
0.2
0.16
0.205
0.195
0.22
0.215
0.28
0.27
0.29
0.225
0.295
0.23
0.265
0.26
0.28
0.295
0.315
0.33
0.315
0.305
0.35
0.355
0.35
0.35
0.35
0.37
0.295
0.345
0.385
0.445
0.425
0.335
0.345
0.445
0.485
0.425
0.395
0.465
0.46
0.485
0.495
0.525
0.515
0.52
0.475
0.5
0.55
0.565
0.5
0.56
0.51
0.505
0.515
0.54
0.515
0.6
0.54
0.59
0.585
0.57
0.52
0.56
0.565
0.57
0.535
0.535
0.52
0.53
0.505
0.535
0.48
0.48
0.49
0.465
0.41
0.435
0.43
0.395
0.44
0.365
0.33
0.34
0.375
0.35
0.315
0.32
0.32
0.335
0.32
0.285
0.265
0.335
0.325
0.29
0.23
0.275
0.235
0.24
0.255
0.265
0.3
0.225
0.19
0.235
0.29
0.26
0.265
0.23
0.25
0.16
0.22
0.28
0.235
0.225
0.255
0.23
0.26
0.24
0.245
0.205
0.235
0.21
0.24
0.24
0.29
0.315
0.245
0.2
0.21
0.18
0.265
0.265
0.18
0.24
0.205
0.23
0.2
0.23
0.2
0.175
0.245
0.245
0.235
0.235
0.215
0.23
0.18
0.22
0.23
0.26
0.205
0.205
0.245
0.205
0.215
0.255
0.275
0.265
0.235
0.255
0.23
0.265
0.22
0.21
0.2
0.225
0.24
0.205
0.225
0.25
0.275
0.32
0.27
0.195
0.175
0.255
0.19
0.205
0.21
0.25
0.21
0.23
0.17
0.245
0.205
0.25
0.235
0.225
0.21
0.18
0.225
0.215
0.195
0.175
0.205
0.245
0.26
0.265
0.235
0.24
0.26
0.255
0.27
0.22
0.3
0.245
0.33
0.3
0.265
0.26
0.365
0.275
0.325
0.32
0.345
0.325
0.335
0.355
0.395
0.415
0.37
0.405
0.375
0.3
0.395
0.36
0.29
0.28
0.34
0.29
0.32
0.305
0.28
0.25
0.245
0.24
0.19
0.225
0.19
0.22
0.23
0.205
0.25
0.23
0.195
0.195
0.225
0.235
0.24
0.2
0.22
0.21
0.26
0.19
0.25
0.225
0.215
0.2
0.165
0.2
0.205
0.23
0.245
0.195
0.255
0.21
0.21
0.215
0.21
0.185
0.155
0.235
0.155
0.105
0.19
0.23
0.27
0.385
0.47
0.73
0.9
1.085
1.28
1.49
1.655
1.61
1.505
1.495
1.335
1.04
0.825
0.535
0.26
0.01
-0.075
-0.085
-0.105
-0.045
-0.01
-0.045
-0.045
-0.04
0.015
0.015
0.1
0.155
0.185
0.155
0.205
0.185
0.205
0.2
0.135
0.2
0.23
0.14
0.19
0.235
0.25
0.22
0.225
0.23
0.195
0.255
0.295
0.23
0.23
0.255
0.225
0.235
0.23
0.275
0.255
0.23
0.25
0.25
0.24
0.255
0.24
0.255
0.255
0.3
0.24
0.245
0.325
0.27
0.28
0.355
0.305
0.32
0.31
0.285
0.285
0.27
0.34
0.29
0.325
0.295
0.36
0.31
0.355
0.375
0.355
0.385
0.36
0.39
0.41
0.415
0.39
0.38
0.435
0.44
0.395
0.49
0.51
0.455
0.475
0.485
0.495
0.485
0.505
0.545
0.51
0.5
0.545
0.505
0.545
0.5
0.525
0.52
0.545
0.445
0.515
0.52
0.56
0.595
0.485
0.51
0.51
0.5
0.525
0.525
0.53
0.495
0.515
0.505
0.445
0.405
0.42
0.45
0.45
0.42
0.42
0.41
0.38
0.355
0.335
0.35
0.355
0.31
0.325
0.315
0.29
0.34
0.285
0.285
0.26
0.24
0.17
0.27
0.265
0.19
0.18
0.315
0.295
0.27
0.29
0.26
0.205
0.18
0.25
0.195
0.22
0.24
0.185
0.21
0.25
0.25
0.215
0.235
0.21
0.215
0.245
0.25
0.195
0.2
0.265
0.295
0.22
0.25
0.255
0.21
0.225
0.24
0.215
0.225
0.19
0.245
0.21
0.235
0.225
0.225
0.285
0.26
0.205
0.2
0.285
0.275
0.25
0.245
0.205
0.235
0.27
0.28
0.21
0.24
0.255
0.24
0.235
0.21
0.24
0.23
0.19
0.235
0.205
0.265
0.25
0.225
0.22
0.245
0.24
0.23
0.23
0.185
0.245
0.27
0.235
0.2
0.23
0.235
0.23
0.26
0.205
0.2
0.265
0.215
0.235
0.205
0.215
0.23
0.24
0.205
0.185
0.305
0.26
0.165
0.23
0.21
0.2
0.21
0.185
0.19
0.25
0.28
0.245
0.22
0.235
0.235
0.22
0.21
0.245
0.275
0.37
0.3
0.25
0.31
0.35
0.28
0.29
0.275
0.29
0.295
0.355
0.355
0.355
0.34
0.39
0.395
0.365
0.32
0.225
0.305
0.35
0.285
0.24
0.235
0.3
0.335
0.235
0.255
0.22
0.2
0.255
0.24
0.175
0.215
0.235
0.27
0.22
0.2
0.19
0.21
0.235
0.195
0.19
0.19
0.23
0.19
0.2
0.21
0.135
0.2
0.21
0.155
0.155
0.2
0.205
0.225
0.14
0.23
0.215
0.175
0.2
0.155
0.15
0.105
0.15
0.105
0.11
0.095
0.14
0.195
0.32
0.385
0.53
0.75
1.005
1.165
1.355
1.515
1.555
1.565
1.465
1.34
1.075
0.83
0.62
0.445
0.13
-0.11
-0.155
-0.11
-0.115
-0.12
-0.095
-0.105
-0.09
-0.085
-0.02
0.025
-0.005
0.09
0.125
0.14
0.165
0.15
0.185
0.17
0.18
0.185
0.16
0.185
0.22
0.19
0.155
0.185
0.17
0.185
0.19
0.175
0.2
0.21
0.205
0.21
0.195
0.22
0.205
0.2
0.24
0.24
0.215
0.245
0.225
0.2
0.225
0.25
0.275
0.28
0.275
0.26
0.31
0.285
0.265
0.27
0.25
0.25
0.25
0.285
0.285
0.29
0.3
0.31
0.32
0.34
0.345
0.365
0.3
0.285
0.35
0.33
0.345
0.355
0.425
0.345
0.38
0.415
0.39
0.42
0.465
0.435
0.38
0.395
0.425
0.455
0.48
0.38
0.5
0.495
0.44
0.48
0.48
0.51
0.515
0.505
0.525
0.52
0.495
0.535
0.55
0.495
0.47
0.51
0.545
0.49
0.5
0.47
0.45
0.465
0.485
0.445
0.47
0.49
0.415
0.41
0.415
0.415
0.365
0.385
0.38
0.345
0.375
0.365
0.32
0.29
0.33
0.345
0.325
0.32
0.3
0.215
0.275
0.245
0.27
0.295
0.24
0.28
0.265
0.215
0.245
0.21
0.19
0.24
0.265
0.245
0.175
0.245
0.195
0.165
0.21
0.185
0.19
0.245
0.26
0.285
0.21
0.145
0.14
0.215
0.19
0.255
0.225
0.255
0.19
0.21
0.18
0.225
0.24
0.22
0.235
0.21
0.245
0.23
0.27
0.23
0.25
0.21
0.23
0.205
0.22
0.18
0.175
0.22
0.265
0.225
0.24
0.275
0.205
0.225
0.285
0.195
0.185
0.2
0.195
0.245
0.23
0.22
0.225
0.24
0.19
0.22
0.255
0.24
0.25
0.18
0.21
0.185
0.225
0.18
0.25
0.22
0.26
0.23
0.25
0.21
0.205
0.19
0.21
0.22
0.24
0.235
0.32
0.23
0.235
0.235
0.24
0.205
0.2
0.195
0.255
0.245
0.195
0.245
0.235
0.245
0.255
0.255
0.235
0.245
0.225
0.26
0.26
0.24
0.24
0.27
0.29
0.215
0.23
0.265
0.275
0.235
0.265
0.23
0.32
0.32
0.315
0.275
0.29
0.44
0.305
0.305
0.3
0.3
0.305
0.275
0.265
0.235
0.165
0.23
0.205
0.205
0.215
0.22
0.22
0.19
0.16
0.175
0.18
0.21
0.14
0.195
0.225
0.22
0.195
0.195
0.18
0.205
0.16
0.21
0.185
0.195
0.17
0.23
0.155
0.19
0.23
0.165
0.15
0.17
0.175
0.145
0.18
0.21
0.215
0.255
0.185
0.165
0.135
0.2
0.205
0.225
0.325
0.445
0.57
0.75
0.87
1.115
1.355
1.485
1.53
1.475
1.39
1.235
1.045
0.8
0.605
0.415
0.195
-0.11
-0.185
-0.085
-0.03
-0.065
-0.13
-0.095
-0.095
-0.115
-0.08
0.005
0.065
0.055
0.11
0.14
0.19
0.19
0.14
0.185
0.15
0.2
0.19
0.13
0.215
0.21
0.23
0.185
0.205
0.215
0.17
0.165
0.215
0.2
0.14
0.17
0.25
0.255
0.205
0.21
0.205
0.245
0.22
0.25
0.195
0.175
0.23
0.22
0.24
0.23
0.25
0.26
0.285
0.3
0.255
0.235
0.185
0.285
0.28
0.255
0.26
0.305
0.275
0.3
0.3
0.23
0.285
0.32
0.3
0.375
0.305
0.335
0.395
0.365
0.33
0.33
0.33
0.365
0.38
0.395
0.37
0.41
0.375
0.42
0.43
0.435
0.405
0.43
0.445
0.405
0.48
0.46
0.4
0.475
0.46
0.515
0.485
0.47
0.475
0.5
0.51
0.505
0.41
0.47
0.43
0.505
0.5
0.51
0.485
0.49
0.505
0.45
0.45
0.485
0.455
0.445
0.41
0.37
0.365
0.36
0.375
0.35
0.34
0.325
0.335
0.3
0.325
0.255
0.275
0.275
0.33
0.25
0.32
0.265
0.22
0.25
0.265
0.245
0.205
0.245
0.24
0.22
0.23
0.23
0.23
0.17
0.24
0.25
0.225
0.185
0.225
0.225
0.24
0.21
0.25
0.2
0.22
0.205
0.215
0.19
0.22
0.195
0.185
0.2
0.235
0.235
0.29
0.215
0.195
0.265
0.22
0.215
0.24
0.18
0.19
0.2
0.225
0.21
0.165
0.22
0.23
0.135
0.215
0.235
0.205
0.23
0.255
0.235
0.23
0.205
0.215
0.195
0.19
0.195
0.185
0.24
0.22
0.17
0.21
0.225
0.2
0.215
0.22
0.23
0.19
0.23
0.235
0.205
0.215
0.205
0.225
0.205
0.24
0.18
0.12
0.17
0.185
0.225
0.24
0.265
0.19
0.175
0.155
0.27
0.24
0.245
0.245
0.17
0.195
0.21
0.19
0.28
0.225
0.17
0.235
0.235
0.2
0.18
0.24
0.245
0.265
0.275
0.35
0.22
0.23
0.265
0.29
0.3
0.27
0.325
0.3
0.32
0.3
0.29
0.285
0.23
0.235
0.235
0.26
0.255
0.205
0.185
0.205
0.215
0.2
0.22
0.21
0.17
0.18
0.215
0.125
0.125
0.195
0.205
0.2
0.16
0.16
0.175
0.155
0.18
0.17
0.185
0.21
0.195
0.14
0.135
0.18
0.19
0.205
0.21
0.195
0.125
0.155
0.17
0.17
0.17
0.17
0.13
0.13
0.15
0.125
0.13
0.115
0.12
0.2
0.2
0.39
0.47
0.65
0.875
1.06
1.29
1.465
1.535
1.48
1.395
1.285
1.075
0.855
0.585
0.325
0.14
-0.035
-0.1
-0.08
-0.09
-0.09
-0.15
-0.1
-0.095
-0.055
-0.04
-0.01
0.035
0.065
0.085
0.095
0.11
0.15
0.17
0.2
0.235
0.195
0.175
0.155
0.175
0.12
0.17
0.165
0.215
0.195
0.175
0.185
0.205
0.125
0.195
0.245
0.23
0.21
0.185
0.2
0.205
0.235
0.22
0.235
0.215
0.195
0.235
0.255
0.245
0.195
0.215
0.245
0.27
0.24
0.22
0.22
0.245
0.305
0.25
0.245
0.295
0.295
0.31
0.245
0.27
0.285
0.33
0.3
0.295
0.31
0.305
0.355
0.33
0.27
0.365
0.315
0.34
0.38
0.345
0.41
0.41
0.38
0.4
0.39
0.43
0.425
0.45
0.44
0.405
0.435
0.435
0.5
0.52
0.445
0.455
0.455
0.45
0.47
0.485
0.435
0.505
0.48
0.455
0.48
0.505
0.49
0.465
0.505
0.48
0.44
0.45
0.43
0.36
0.45
0.395
0.415
0.37
0.355
0.385
0.355
0.35
0.35
0.3
0.29
0.305
0.265
0.245
0.27
0.225
0.31
0.265
0.255
0.26
0.255
0.23
0.215
0.235
0.225
0.2
0.235
0.23
0.195
0.16
0.2
0.205
0.175
0.185
0.18
0.185
0.2
0.22
0.18
0.225
0.19
0.205
0.16
0.185
0.185
0.185
0.205
0.18
0.165
0.17
0.205
0.175
0.175
0.21
0.2
0.11
0.24
0.22
0.18
0.205
0.195
0.165
0.175
0.175
0.195
0.2
0.2
0.175
0.19
0.195
0.23
0.17
0.155
0.185
0.195
0.19
0.17
0.2
0.175
0.14
0.18
0.195
0.195
0.2
0.2
0.205
0.235
0.19
0.185
0.22
0.17
0.17
0.15
0.17
0.165
0.165
0.235
0.245
0.22
0.205
0.17
0.145
0.165
0.205
0.18
0.17
0.175
0.095
0.22
0.17
0.19
0.145
0.17
0.175
0.15
0.185
0.25
0.195
0.195
0.215
0.23
0.205
0.25
0.235
0.21
0.225
0.225
0.265
0.275
0.285
0.29
0.23
0.255
0.25
0.245
0.275
0.25
0.3
0.235
0.205
0.24
0.245
0.23
0.21
0.22
0.13
0.17
0.2
0.17
0.165
0.15
0.125
0.15
0.13
0.135
0.12
0.12
0.12
0.105
0.22
0.185
0.105
0.105
0.12
0.07
0.17
0.13
0.145
0.14
0.145
0.13
0.11
0.095
0.17
0.115
0.16
0.145
0.16
0.14
0.11
0.1
0.11
0.08
0.075
0.06
0.035
0.07
0.075
0.11
0.205
0.31
0.385
0.56
0.835
1.065
1.25
1.405
1.53
1.51
1.45
1.37
1.145
0.915
0.695
0.4
0.17
-0.085
-0.125
-0.13
-0.115
-0.095
-0.13
-0.09
-0.065
-0.1
-0.11
-0.05
0.03
0.065
0.085
0.11
0.125
0.115
0.115
0.15
0.13
0.145
0.165
0.2
0.145
0.16
0.165
0.14
0.11
0.125
0.22
0.16
0.16
0.16
0.14
0.18
0.145
0.17
0.165
0.175
0.19
0.145
0.135
0.21
0.2
0.165
0.225
0.215
0.205
0.25
0.245
0.205
0.23
0.21
0.19
0.18
0.225
0.275
0.235
0.195
0.2
0.245
0.22
0.185
0.295
0.25
0.325
0.315
0.23
0.275
0.29
0.265
0.29
0.355
0.36
0.315
0.31
0.335
0.325
0.295
0.36
0.39
0.415
0.37
0.365
0.33
0.425
0.46
0.41
0.36
0.435
0.45
0.435
0.44
0.47
0.435
0.485
0.485
0.45
0.46
0.45
0.44
0.425
0.425
0.46
0.43
0.48
0.425
0.4
0.445
0.455
0.47
0.405
0.39
0.32
0.38
0.34
0.36
0.34
0.315
0.33
0.31
0.225
0.255
0.27
0.245
0.27
0.24
0.26
0.24
0.17
0.225
0.21
0.25
0.235
0.215
0.15
0.18
0.155
0.14
0.17
0.195
0.155
0.2
0.165
0.15
0.125
0.165
0.14
0.165
0.17
0.17
0.17
0.175
0.075
0.09
0.155
0.115
0.165
0.19
0.21
0.18
0.185
0.155
0.16
0.155
0.16
0.13
0.16
0.15
0.17
0.13
0.155
0.16
0.145
0.125
0.125
0.14
0.15
0.155
0.195
0.15
0.155
0.185
0.065
0.155
0.185
0.255
0.115
0.125
0.13
0.145
0.135
0.155
0.15
0.155
0.155
0.175
0.16
0.11
0.145
0.13
0.16
0.175
0.125
0.15
0.19
0.205
0.145
0.18
0.17
0.125
0.11
0.125
0.13
0.13
0.14
0.15
0.11
0.15
0.125
0.145
0.23
0.155
0.12
0.125
0.17
0.145
0.085
0.155
0.22
0.22
0.225
0.22
0.225
0.17
0.2
0.165
0.15
0.235
0.22
0.2
0.19
0.275
0.26
0.225
0.22
0.24
0.2
0.27
0.26
0.255
0.215
0.25
0.23
0.175
0.165
0.095
0.155
0.17
0.12
0.12
0.165
0.145
0.115
0.14
0.125
0.12
0.13
0.17
0.145
0.11
0.09
0.095
0.13
0.135
0.1
0.11
0.115
0.155
0.125
0.125
0.145
0.11
0.085
0.075
0.065
0.135
0.09
0.115
0.135
0.14
0.115
0.11
0.1
0.055
0.06
0.045
0.055
0.065
0.07
0.125
0.15
0.255
0.415
0.575
0.745
0.93
1.185
1.42
1.54
1.545
1.49
1.385
1.16
0.955
0.67
0.44
0.235
-0.025
-0.125
-0.2
-0.145
-0.145
-0.16
-0.125
-0.135
-0.135
-0.13
-0.06
0.01
0.01
0.075
0.09
0.08
0.085
0.11
0.1
0.1
0.175
0.15
0.12
0.095
0.09
0.165
0.145
0.13
0.14
0.115
0.115
0.11
0.095
0.115
0.145
0.12
0.145
0.105
0.175
0.215
0.175
0.08
0.08
0.19
0.18
0.15
0.16
0.175
0.145
0.13
0.14
0.19
0.205
0.18
0.17
0.19
0.19
0.16
0.135
0.225
0.215
0.305
0.23
0.205
0.18
0.22
0.29
0.25
0.24
0.26
0.23
0.265
0.27
0.275
0.29
0.3
0.33
0.3
0.275
0.335
0.35
0.405
0.39
0.345
0.305
0.365
0.375
0.365
0.355
0.365
0.375
0.415
0.43
0.41
0.375
0.405
0.405
0.385
0.41
0.43
0.44
0.38
0.44
0.445
0.395
0.39
0.4
0.46
0.435
0.365
0.4
0.4
0.35
0.365
0.36
0.37
0.32
0.3
0.25
0.305
0.295
0.235
0.205
0.225
0.225
0.22
0.22
0.19
0.205
0.185
0.18
0.14
0.155
0.155
0.11
0.165
0.16
0.2
0.14
0.115
0.145
0.1
0.095
0.16
0.175
0.13
0.15
0.085
0.13
0.14
0.065
0.095
0.135
0.09
0.11
0.115
0.105
0.065
0.14
0.19
0.105
0.165
0.055
0.055
0.1
0.13
0.15
0.11
0.11
0.075
0.13
0.145
0.095
0.11
0.13
0.095
0.095
0.075
0.14
0.15
0.125
0.13
0.115
0.095
0.095
0.1
0.115
0.11
0.095
0.09
0.055
0.08
0.12
0.1
0.115
0.11
0.11
0.06
0.115
0.14
0.115
0.085
0.075
0.12
0.135
0.115
0.16
0.08
0.065
0.09
0.135
0.075
0.12
0.12
0.12
0.06
0.065
0.11
0.085
0.085
0.09
0.05
0.125
0.055
0.11
0.15
0.065
0.055
0.135
0.13
0.095
0.12
0.18
0.13
0.115
0.14
0.11
0.09
0.13
0.155
0.11
0.155
0.195
0.2
0.21
0.19
0.15
0.22
0.22
0.21
0.2
0.185
0.16
0.13
0.135
0.17
0.165
0.18
0.1
0.105
0.095
0.1
0.015
0.035
0.02
0.135
0.1
0.095
0.08
0.09
0.075
0.04
0.075
0.035
0.085
0.07
0.045
0.03
0.04
0.055
0.025
0.075
0.065
0.045
0.09
0.075
0.08
-0.05
0.085
0.075
0.09
0.13
0.035
0.035
0.085
0.025
-0.055
-0.065
0.0
0.02
0.005
0.045
0.05
0.16
0.25
0.44
0.615
0.87
1.05
1.2
1.365
1.415
1.355
1.22
1.12
0.855
0.585
0.38
0.18
-0.12
-0.24
-0.23
-0.185
-0.205
-0.26
-0.235
-0.265
-0.17
-0.155
-0.155
-0.18
-0.145
-0.035
0.06
0.02
0.025
0.025
0.03
0.05
0.025
0.03
0.075
0.035
0.03
0.04
0.025
0.04
0.04
0.04
0.055
0.065
0.115
0.08
0.035
0.03
0.055
-0.005
0.065
0.09
0.05
-0.01
0.05
0.075
0.055
0.045
0.06
0.13
0.07
0.075
0.115
0.07
0.065
0.095
0.14
0.115
0.125
0.14
0.095
0.085
0.085
0.135
0.145
0.115
0.115
0.175
0.13
0.145
0.185
0.155
0.19
0.165
0.19
0.205
0.2
0.2
0.185
0.145
0.245
0.26
0.22
0.26
0.25
0.25
0.25
0.27
0.28
0.27
0.265
0.29
0.275
0.285
0.34
0.3
0.335
0.35
0.35
0.28
0.335
0.33
0.35
0.355
0.36
0.265
0.325
0.335
0.305
0.265
0.28
0.3
0.285
0.29
0.25
0.21
0.32
0.305
0.235
0.205
0.24
0.25
0.19
0.2
0.14
0.14
0.165
0.165
0.105
0.12
0.135
0.11
0.095
0.025
0.055
0.085
0.035
0.03
0.06
0.085
0.095
0.045
0.05
0.05
0.03
0.07
0.035
0.055
0.045
0.065
-0.05
0.05
0.045
0.08
0.0
0.065
0.09
0.035
0.055
0.07
0.015
0.1
0.155
0.025
0.0
0.025
0.015
0.065
0.01
0.02
0.055
0.045
0.025
0.055
0.015
0.04
0.085
0.02
0.045
0.07
0.05
0.065
0.06
0.03
0.005
-0.005
0.085
0.08
0.025
0.05
0.05
0.06
0.05
0.05
-0.025
0.035
0.03
0.015
0.075
0.125
0.065
0.07
0.03
0.06
0.05
0.025
0.105
0.06
0.065
0.005
0.04
0.04
-0.015
0.035
0.07
0.085
0.07
0.025
0.06
0.07
0.025
0.02
0.005
0.07
0.055
0.045
0.06
0.025
0.02
0.025
0.01
0.0
0.01
0.055
0.06
0.06
0.06
0.04
0.065
0.04
0.105
0.1
0.1
0.145
0.115
0.11
0.11
0.085
0.095
0.135
0.17
0.165
0.105
0.1
0.075
0.135
0.205
0.165
0.15
0.155
0.125
0.14
0.125
0.125
0.115
0.065
0.045
0.04
0.0
0.02
0.095
0.05
0.035
0.02
-0.005
0.01
0.01
-0.02
0.08
0.02
0.005
0.025
0.045
0.005
0.0
0.04
0.065
0.015
-0.01
0.005
0.025
0.015
0.05
-0.005
0.035
-0.02
0.045
0.035
0.04
0.025
0.05
0.02
0.01
-0.02
-0.045
-0.035
-0.095
-0.095
-0.105
0.015
0.065
0.09
0.235
0.46
0.55
0.805
0.98
1.205
1.39
1.455
1.4
1.305
1.155
0.895
0.67
0.52
0.285
-0.06
-0.29
-0.325
-0.3
-0.255
-0.27
-0.27
-0.225
-0.245
-0.195
-0.195
-0.13
-0.11
-0.065
-0.055
0.02
0.01
0.005
0.055
0.025
0.03
0.02
-0.035
-0.04
-0.01
0.07
0.035
0.035
-0.045
0.0
0.015
0.065
0.095
0.025
0.06
0.055
0.03
0.045
0.045
0.05
0.035
0.035
0.06
0.055
0.03
0.125
0.11
0.125
0.03
0.055
0.04
0.075
0.095
0.085
0.06
0.08
0.09
0.105
0.14
0.05
0.045
0.135
0.185
0.095
0.115
0.175
0.13
0.17
0.155
0.145
0.18
0.2
0.17
0.195
0.23
0.19
0.215
0.29
0.185
0.215
0.175
0.255
0.235
0.235
0.235
0.265
0.335
0.29
0.29
0.26
0.3
0.37
0.33
0.275
0.325
0.34
0.285
0.34
0.35
0.33
0.33
0.335
0.345
0.315
0.345
0.365
0.365
0.305
0.36
0.31
0.275
0.305
0.365
0.265
0.245
0.26
0.255
0.23
0.24
0.19
0.185
0.24
0.125
0.135
0.195
0.09
0.135
0.14
0.11
0.065
0.13
0.145
0.135
0.145
0.115
0.0
0.06
0.045
0.03
0.04
0.115
0.065
0.105
0.08
0.03
0.01
0.05
0.065
0.08
0.035
0.045
0.055
0.05
0.015
0.095
0.055
0.05
0.06
-0.02
0.045
0.035
0.06
0.06
0.015
0.055
0.03
0.03
0.01
0.0
0.04
0.105
0.115
0.075
0.06
0.03
0.03
0.025
0.025
0.055
0.015
0.015
0.055
0.055
0.025
0.07
0.04
0.02
0.075
0.07
0.055
0.03
-0.015
0.04
0.045
0.065
0.08
0.075
0.04
0.025
0.04
0.035
0.08
0.045
0.045
0.06
0.045
0.055
0.05
0.05
0.055
0.045
0.035
0.0
0.02
-0.035
0.015
0.075
0.05
0.065
0.005
0.04
0.055
0.04
0.015
0.045
0.07
0.045
0.045
0.01
0.03
0.05
0.005
0.035
0.025
0.02
0.01
0.005
0.045
0.03
0.045
0.02
0.055
0.095
0.105
0.005
0.01
0.07
0.065
0.08
0.095
0.1
0.125
0.135
0.075
0.125
0.1
0.17
0.17
0.12
0.095
0.155
0.12
0.145
0.115
0.1
0.085
0.11
0.115
0.075
0.1
0.085
0.065
0.045
0.04
0.07
-0.005
0.02
0.0
-0.015
0.025
-0.05
-0.005
0.02
0.0
-0.01
0.01
-0.045
0.005
0.015
0.005
0.015
0.005
-0.045
0.005
-0.075
-0.01
0.005
-0.03
-0.01
0.035
0.015
-0.025
-0.02
0.01
0.03
-0.055
-0.045
0.04
-0.03
-0.03
-0.045
-0.085
-0.065
-0.02
-0.045
0.01
0.045
0.04
0.185
0.4
0.62
0.81
1.1
1.27
1.345
1.37
1.36
1.28
1.09
0.805
0.59
0.35
0.105
-0.195
-0.32
-0.305
-0.305
-0.295
-0.28
-0.24
-0.235
-0.295
-0.2
-0.17
-0.155
-0.135
-0.075
-0.07
-0.07
0.03
0.02
0.01
-0.025
-0.02
-0.02
0.015
0.035
0.03
0.015
-0.01
-0.03
-0.03
-0.025
0.0
0.01
0.04
0.04
0.015
0.015
0.04
0.005
0.05
0.08
0.07
0.04
0.035
0.07
0.08
0.025
0.08
0.095
0.07
0.05
0.0
0.025
0.11
0.13
0.09
0.1
0.125
0.105
0.1
0.07
0.185
0.135
0.13
0.125
0.125
0.175
0.14
0.16
0.18
0.185
0.15
0.115
0.165
0.18
0.215
0.205
0.215
0.205
0.27
0.27
0.245
0.27
0.31
0.27
0.265
0.3
0.335
0.285
0.335
0.385
0.345
0.325
0.33
0.355
0.34
0.335
0.365
0.37
0.355
0.305
0.35
0.36
0.31
0.375
0.36
0.395
0.37
0.345
0.36
0.41
0.28
0.335
0.335
0.285
0.21
0.2
0.275
0.23
0.245
0.24
0.23
0.205
0.24
0.23
0.175
0.165
0.165
0.155
0.16
0.135
0.145
0.095
0.095
0.095
0.1
0.12
0.13
0.11
0.055
0.08
0.055
0.105
0.11
-0.01
0.035
0.065
0.13
0.055
0.025
0.025
0.025
0.035
0.025
-0.03
0.01
0.075
0.04
0.055
0.07
0.07
0.035
0.04
0.04
0.015
0.01
0.04
0.065
0.08
0.015
0.05
0.01
0.035
0.025
0.03
0.05
0.03
0.005
-0.01
-0.01
0.035
0.03
0.005
0.02
0.01
0.025
0.015
0.005
0.03
0.045
-0.06
-0.015
0.005
0.03
0.015
0.025
0.0
0.005
0.0
0.01
0.02
0.005
0.01
-0.015
-0.025
0.035
0.075
0.005
-0.015
0.105
0.01
-0.03
0.02
-0.005
-0.015
0.015
0.06
0.005
-0.025
-0.005
0.0
0.04
0.01
-0.065
0.0
0.07
-0.01
0.0
0.0
-0.025
-0.02
-0.015
0.005
0.035
-0.005
-0.015
-0.01
-0.02
0.005
-0.025
-0.015
-0.025
0.0
-0.01
-0.005
-0.04
0.025
0.03
0.085
0.07
0.055
0.085
0.03
0.06
0.02
0.105
0.075
0.045
0.03
0.04
0.13
0.115
0.145
0.15
0.1
0.155
0.195
0.15
0.12
0.14
0.07
0.105
0.125
0.115
0.04
0.075
0.07
0.045
0.035
0.03
-0.005
0.035
0.05
0.045
0.005
0.025
-0.015
-0.04
0.01
0.025
0.0
0.005
0.03
0.025
-0.05
-0.035
-0.055
0.03
-0.01
0.025
-0.055
0.01
0.025
0.08
-0.015
0.0
0.025
-0.03
-0.035
0.035
0.02
-0.03
0.005
-0.04
0.03
-0.005
-0.045
-0.035
-0.05
-0.045
-0.035
-0.02
0.015
0.17
0.355
0.465
0.68
0.875
1.09
1.265
1.365
1.32
1.25
1.135
0.975
0.73
0.48
0.205
-0.03
-0.255
-0.34
-0.3
-0.35
-0.28
-0.295
-0.235
-0.25
-0.295
-0.17
-0.175
-0.185
-0.095
-0.04
-0.075
-0.05
0.02
0.02
-0.025
-0.02
0.045
0.055
0.02
-0.015
-0.01
-0.03
-0.035
0.035
0.04
-0.04
-0.025
0.0
0.0
-0.02
0.0
0.02
0.01
0.025
0.005
0.035
0.05
0.0
0.04
0.01
-0.01
0.075
0.085
0.04
0.035
0.03
0.07
0.02
0.09
0.055
0.065
0.065
0.06
0.055
0.085
0.09
0.12
0.13
0.105
0.13
0.14
0.14
0.16
0.105
0.145
0.105
0.1
0.12
0.15
0.115
0.15
0.125
0.215
0.165
0.24
0.215
0.21
0.175
0.2
0.245
0.26
0.25
0.245
0.225
0.21
0.21
0.225
0.27
0.305
0.3
0.25
0.31
0.37
0.265
0.28
0.29
0.29
0.27
0.325
0.31
0.295
0.28
0.31
0.305
0.295
0.265
0.225
0.29
0.255
0.28
0.22
0.27
0.23
0.225
0.19
0.125
0.18
0.19
0.14
0.1
0.125
0.165
0.15
0.14
0.09
0.085
0.05
0.05
0.115
0.085
0.005
0.055
0.07
0.09
0.045
0.08
0.055
0.055
0.05
0.045
0.0
0.02
0.005
0.07
0.125
0.09
0.085
0.05
0.03
0.055
0.085
0.08
0.04
0.075
0.05
0.06
0.005
0.03
0.04
0.025
0.09
0.065
0.08
0.035
0.07
0.06
0.0
0.075
0.04
0.07
0.07
0.06
0.055
0.06
0.085
0.07
0.05
-0.005
0.075
0.09
0.045
0.085
0.085
0.08
0.08
0.065
0.065
0.04
0.115
0.06
0.05
0.095
0.1
0.035
0.025
0.04
0.065
0.08
0.085
0.025
0.02
0.14
0.095
0.06
0.025
0.07
0.045
0.035
0.055
0.035
0.06
0.085
0.05
0.02
0.03
0.085
0.085
0.08
0.075
0.065
0.035
0.07
0.08
0.1
0.035
0.04
0.04
0.05
0.085
0.105
0.085
0.09
0.06
0.045
0.085
0.085
0.04
0.075
0.14
0.11
0.125
0.1
0.155
0.105
0.1
0.095
0.135
0.22
0.175
0.165
0.155
0.07
0.085
0.185
0.17
0.13
0.135
0.145
0.15
0.165
0.115
0.045
0.08
0.02
0.04
0.07
0.04
0.05
0.03
0.0
0.015
0.01
0.03
0.065
0.04
0.04
0.05
0.005
0.05
0.055
0.055
0.03
0.03
0.02
0.035
0.02
-0.035
0.09
0.04
0.015
-0.02
0.02
0.03
-0.005
0.05
0.025
0.04
0.01
0.0
-0.015
-0.03
0.005
-0.015
-0.035
-0.045
0.005
0.065
0.155
0.28
0.415
0.66
0.855
1.0
1.175
1.285
1.27
1.24
1.19
1.06
0.75
0.56
0.335
0.07
-0.15
-0.28
-0.27
-0.255
-0.22
-0.26
-0.24
-0.25
-0.205
-0.18
-0.13
-0.125
-0.11
-0.07
-0.065
-0.04
-0.055
0.05
0.07
0.07
0.03
0.03
0.025
0.045
0.08
0.015
0.005
0.055
0.05
0.105
0.025
0.065
0.0
0.06
0.095
0.045
0.03
0.06
0.065
0.075
0.07
0.085
0.09
0.06
0.04
0.06
0.1
0.01
0.055
0.17
0.15
0.105
0.105
0.125
0.075
0.115
0.13
0.075
0.055
0.075
0.075
0.14
0.18
0.175
0.165
0.13
0.135
0.18
0.13
0.155
0.18
0.17
0.18
0.19
0.25
0.215
0.18
0.31
0.25
0.25
0.28
0.25
0.25
0.24
0.245
0.245
0.275
0.345
0.245
0.26
0.325
0.325
0.295
0.36
0.295
0.27
0.335
0.345
0.305
0.305
0.405
0.305
0.315
0.32
0.345
0.335
0.3
0.3
0.325
0.29
0.275
0.25
0.23
0.27
0.27
0.21
0.265
0.21
0.185
0.225
0.22
0.155
0.16
0.145
0.1
0.095
0.125
0.135
0.16
0.165
0.13
0.155
0.09
0.09
0.155
0.01
0.06
0.075
0.075
0.05
0.1
0.045
0.05
0.035
0.045
0.06
0.03
0.045
0.065
0.065
0.095
0.055
0.015
0.025
0.03
0.06
0.085
0.055
0.04
0.05
0.085
0.035
0.035
0.08
0.09
0.04
0.0
0.05
0.085
0.025
0.055
0.085
0.065
0.09
0.06
0.03
0.035
0.08
0.045
0.05
0.07
0.09
0.09
0.07
0.035
0.035
0.015
0.08
0.045
0.05
0.025
0.075
0.08
0.04
0.05
0.03
0.04
0.04
0.03
0.06
0.045
0.04
0.06
0.095
0.03
0.06
0.075
0.045
0.04
0.095
0.05
0.06
0.045
0.03
0.045
0.04
0.02
0.005
0.03
0.03
0.05
0.04
0.02
0.06
0.03
0.035
0.07
0.075
0.005
0.02
0.055
0.035
0.035
0.065
0.0
0.04
0.02
0.025
0.025
-0.01
0.04
0.09
0.055
0.065
0.095
0.07
0.09
0.025
0.025
0.07
0.09
0.095
0.085
0.09
0.095
0.175
0.115
0.105
0.095
0.09
0.145
0.15
0.165
0.15
0.085
0.08
0.055
0.125
0.055
0.06
0.015
0.03
0.01
0.015
-0.005
-0.01
0.015
0.095
-0.005
0.035
-0.03
-0.015
-0.015
0.04
-0.02
-0.04
-0.03
0.04
0.01
0.02
-0.01
0.075
0.02
-0.02
-0.015
-0.01
-0.05
-0.01
0.02
0.005
-0.03
-0.005
0.0
0.005
0.015
0.015
0.015
-0.03
-0.02
-0.045
-0.095
-0.035
-0.055
-0.025
-0.005
0.075
0.17
0.255
0.485
0.62
0.84
1.09
1.28
1.345
1.365
1.305
1.2
0.975
0.755
0.545
0.245
0.02
-0.22
-0.275
-0.28
-0.235
-0.26
-0.26
-0.22
-0.22
-0.23
-0.19
-0.17
-0.135
-0.09
-0.05
-0.035
0.025
0.015
0.025
-0.03
-0.03
-0.02
-0.065
0.02
0.05
0.045
-0.055
0.02
0.05
0.035
-0.045
0.02
0.02
0.02
0.02
0.03
0.04
0.01
0.02
0.02
0.0
0.025
-0.02
0.065
0.055
0.06
0.075
0.07
0.03
0.05
0.065
0.01
0.015
0.025
0.12
0.115
0.08
0.095
0.085
0.095
0.075
0.035
0.12
0.145
0.145
0.11
0.125
0.115
0.12
0.185
0.14
0.165
0.195
0.17
0.235
0.12
0.105
0.18
0.2
0.235
0.14
0.2
0.19
0.24
0.265
0.26
0.265
0.22
0.195
0.23
0.295
0.275
0.265
0.295
0.32
0.275
0.29
0.3
0.28
0.26
0.285
0.32
0.325
0.29
0.28
0.32
0.285
0.25
0.285
0.265
0.27
0.27
0.205
0.255
0.26
0.2
0.225
0.215
0.15
0.185
0.17
0.16
0.12
0.18
0.11
0.07
0.09
0.115
0.05
0.08
0.085
0.015
0.07
0.115
0.03
-0.01
0.02
0.015
0.03
0.005
0.045
0.0
0.035
0.06
-0.08
0.02
0.015
0.025
0.065
0.04
-0.05
-0.02
0.025
0.045
-0.045
-0.015
-0.04
0.0
0.0
-0.005
0.01
-0.005
-0.05
-0.005
0.02
0.0
-0.02
-0.01
-0.005
-0.015
0.03
0.035
-0.01
0.02
0.03
0.005
0.005
0.005
0.02
-0.005
0.01
-0.04
-0.03
0.04
0.02
0.04
-0.065
0.07
0.06
-0.01
0.005
0.01
-0.015
0.035
-0.005
-0.01
-0.01
-0.015
0.02
-0.01
-0.01
-0.005
0.0
0.02
-0.005
-0.025
-0.02
-0.035
0.015
-0.025
0.02
0.025
0.025
0.0
0.015
-0.03
-0.025
-0.025
0.06
0.0
0.02
-0.035
0.015
0.01
0.025
-0.02
-0.045
-0.035
-0.025
0.0
0.005
-0.005
0.02
-0.005
0.01
-0.075
0.045
0.04
0.0
0.05
0.005
0.045
0.05
0.035
0.005
0.07
0.025
0.05
0.045
0.075
0.115
0.095
0.085
0.12
0.13
0.06
0.125
0.055
0.1
0.065
0.045
0.045
0.09
0.165
0.065
0.015
0.015
-0.005
-0.005
0.02
-0.025
-0.02
-0.02
-0.035
-0.015
-0.025
-0.055
-0.04
-0.065
-0.065
0.01
0.015
-0.01
-0.04
-0.02
-0.055
-0.06
-0.06
-0.08
0.015
-0.06
0.0
0.025
-0.02
-0.04
-0.045
-0.02
-0.035
-0.03
-0.035
-0.07
-0.06
-0.01
-0.025
-0.08
-0.115
-0.065
-0.07
-0.02
-0.095
-0.125
0.02
0.125
0.275
0.4
0.585
0.795
0.98
1.16
1.33
1.325
1.37
1.3
1.135
0.84
0.595
0.34
0.075
-0.215
-0.31
-0.345
-0.295
-0.255
-0.285
-0.3
-0.245
-0.28
-0.26
-0.22
-0.165
-0.16
-0.095
-0.045
-0.025
-0.02
0.015
-0.035
0.005
-0.02
0.005
-0.015
-0.035
0.04
-0.06
-0.005
-0.05
-0.02
-0.015
0.0
-0.005
0.01
-0.02
0.025
0.005
0.005
0.03
-0.025
0.025
0.045
0.075
0.0
-0.015
0.04
-0.005
-0.005
0.085
0.07
0.055
0.05
0.05
0.115
0.07
0.08
0.03
0.085
0.07
0.03
0.065
0.07
0.08
0.085
0.085
0.115
0.09
0.165
0.1
0.13
0.145
0.12
0.13
0.115
0.135
0.175
0.145
0.175
0.215
0.25
0.225
0.2
0.17
0.2
0.215
0.23
0.245
0.22
0.19
0.265
0.27
0.275
0.255
0.265
0.33
0.285
0.29
0.3
0.27
0.265
0.275
0.27
0.245
0.325
0.325
0.29
0.29
0.21
0.3
0.3
0.31
0.31
0.25
0.205
0.235
0.21
0.185
0.2
0.19
0.125
0.155
0.19
0.145
0.14
0.16
0.06
0.15
0.09
0.05
0.08
0.07
0.09
0.05
0.08
0.06
0.01
0.05
0.05
0.045
0.03
0.02
0.03
-0.02
0.035
0.005
0.01
0.04
0.01
-0.005
0.03
-0.005
-0.035
-0.05
0.035
-0.025
-0.04
0.03
0.035
0.0
-0.02
-0.02
-0.045
0.04
-0.02
0.06
0.05
0.0
0.04
0.0
-0.025
0.005
-0.005
-0.015
-0.02
-0.005
0.025
0.03
0.015
-0.03
-0.03
-0.02
0.035
-0.01
-0.04
0.015
-0.035
-0.05
0.05
0.02
-0.01
0.025
0.01
0.025
0.015
-0.005
-0.01
0.04
0.005
0.0
0.01
0.015
-0.015
0.01
-0.01
0.01
0.03
-0.02
-0.005
-0.01
-0.005
0.01
-0.065
-0.07
-0.005
0.005
0.035
-0.055
-0.005
-0.045
-0.015
0.035
-0.045
0.0
-0.06
-0.02
0.015
-0.08
-0.035
-0.05
0.0
-0.09
-0.005
0.01
-0.025
-0.025
0.01
-0.015
0.0
-0.03
0.005
0.015
-0.02
-0.05
0.05
0.01
0.03
-0.005
0.005
0.0
0.035
0.06
0.055
0.11
0.105
0.02
0.025
0.085
0.075
0.025
0.125
0.06
0.09
0.045
0.0
-0.005
0.02
-0.11
-0.025
-0.02
0.005
0.005
-0.025
-0.095
-0.055
-0.05
-0.05
-0.045
-0.01
-0.055
-0.045
-0.055
-0.065
-0.065
-0.07
-0.07
-0.01
-0.005
-0.06
-0.115
-0.04
-0.045
-0.075
-0.045
-0.065
-0.115
-0.005
-0.07
-0.075
-0.065
-0.07
-0.045
-0.055
-0.03
-0.025
-0.105
-0.125
-0.09
-0.045
-0.04
-0.045
-0.01
0.075
0.15
0.34
0.485
0.745
0.95
1.11
1.24
1.315
1.265
1.185
1.08
0.905
0.61
0.345
0.115
-0.16
-0.365
-0.36
-0.29
-0.31
-0.25
-0.22
-0.28
-0.285
-0.285
-0.29
-0.23
-0.225
-0.205
-0.17
-0.12
-0.07
-0.055
-0.02
-0.005
-0.02
-0.03
0.0
-0.005
0.005
-0.005
-0.02
-0.06
-0.035
-0.02
-0.06
-0.015
-0.01
-0.015
-0.045
-0.02
0.0
-0.025
-0.02
0.035
-0.005
-0.02
0.025
0.055
0.03
0.03
0.005
0.005
0.01
0.15
0.02
0.01
0.055
0.08
0.035
0.0
0.02
0.06
0.08
0.075
0.065
0.07
0.085
0.065
0.055
0.08
0.085
0.095
0.115
0.15
0.15
0.05
0.125
0.155
0.125
0.18
0.14
0.1
0.115
0.155
0.19
0.18
0.195
0.195
0.21
0.215
0.23
0.235
0.27
0.27
0.23
0.23
0.21
0.245
0.275
0.3
0.28
0.275
0.215
0.22
0.265
0.24
0.285
0.25
0.255
0.265
0.285
0.28
0.295
0.295
0.225
0.24
0.23
0.22
0.195
0.225
0.22
0.145
0.155
0.18
0.155
0.135
0.16
0.085
0.07
0.075
0.045
0.13
0.095
0.095
0.04
0.04
0.05
0.065
0.04
0.015
-0.025
0.02
0.01
0.03
0.0
0.04
-0.02
-0.045
-0.025
0.045
0.015
0.0
0.0
-0.015
-0.05
0.005
-0.035
-0.03
-0.015
0.03
-0.02
-0.01
0.005
-0.01
-0.005
-0.02
0.005
-0.035
-0.045
0.02
0.005
0.015
-0.005
-0.035
0.02
-0.005
-0.025
-0.055
0.015
0.035
0.04
-0.005
0.0
0.03
0.0
-0.02
0.025
-0.02
-0.02
0.005
-0.05
-0.025
0.015
-0.025
0.025
0.075
0.0
-0.08
0.045
-0.02
-0.03
0.02
-0.025
-0.105
-0.01
0.02
0.005
0.06
-0.025
0.015
-0.005
0.005
-0.04
-0.035
-0.06
-0.015
-0.025
-0.04
0.005
0.015
0.005
-0.025
-0.005
-0.05
-0.025
-0.06
-0.07
0.035
0.015
0.055
0.005
-0.015
0.0
-0.02
-0.02
0.0
-0.005
0.005
0.025
0.05
0.005
0.06
0.025
-0.005
0.06
0.075
0.1
0.13
0.09
0.075
0.085
0.03
0.095
0.065
0.115
0.085
0.05
0.02
0.065
0.03
0.015
-0.06
-0.04
-0.005
-0.01
0.005
-0.015
-0.03
0.005
-0.06
-0.065
-0.05
-0.035
-0.05
-0.055
0.035
-0.03
-0.035
-0.01
-0.075
-0.05
-0.03
-0.02
-0.05
-0.07
-0.035
-0.06
-0.02
-0.075
-0.085
-0.05
-0.01
0.01
0.0
-0.09
-0.095
0.01
-0.08
-0.05
-0.015
-0.11
-0.105
-0.105
-0.105
-0.095
-0.055
0.01
0.11
0.35
0.44
0.655
0.84
1.085
1.27
1.36
1.345
1.245
1.17
0.98
0.72
0.41
0.185
-0.08
-0.34
-0.355
-0.31
-0.3
-0.29
-0.31
-0.29
-0.33
-0.3
-0.27
-0.185
-0.17
-0.115
-0.105
-0.065
-0.06
-0.1
-0.07
-0.07
0.0
-0.005
0.0
0.005
0.015
0.02
-0.015
0.005
-0.035
-0.03
-0.04
-0.035
0.02
0.035
-0.06
0.03
0.01
0.02
-0.02
-0.015
-0.03
0.015
0.09
0.01
0.015
0.005
0.05
-0.02
0.03
0.03
-0.02
0.075
0.07
0.05
0.03
0.035
0.065
0.03
0.07
0.08
0.04
0.055
0.12
0.11
0.015
0.095
0.16
0.155
0.145
0.16
0.175
0.115
0.13
0.17
0.145
0.16
0.16
0.15
0.175
0.205
0.16
0.165
0.165
0.175
0.17
0.235
0.23
0.25
0.22
0.255
0.265
0.27
0.215
0.265
0.24
0.265
0.295
0.335
0.275
0.27
0.285
0.34
0.295
0.26
0.295
0.305
0.295
0.285
0.23
0.24
0.22
0.245
0.235
0.2
0.19
0.19
0.21
0.155
0.14
0.15
0.155
0.14
0.105
0.09
0.045
0.065
0.095
0.085
0.075
0.0
0.01
0.04
0.035
0.05
0.04
0.05
0.065
0.01
-0.035
-0.025
-0.065
0.04
0.005
-0.045
-0.025
0.03
0.005
-0.03
-0.005
0.005
-0.02
-0.025
-0.01
0.015
0.02
-0.035
-0.025
-0.035
-0.06
-0.085
0.04
-0.025
-0.03
-0.065
-0.01
0.01
0.0
0.02
0.015
-0.065
-0.045
-0.065
-0.02
-0.025
0.02
0.015
0.01
-0.01
0.005
-0.085
-0.015
0.0
-0.025
0.015
0.04
0.02
-0.065
-0.015
0.08
-0.045
-0.055
-0.01
-0.005
-0.02
0.01
-0.03
-0.02
-0.03
-0.005
0.0
-0.01
0.045
0.03
-0.01
0.02
-0.02
-0.045
0.005
-0.02
-0.04
-0.015
-0.02
0.0
-0.05
-0.035
-0.035
-0.06
-0.08
0.035
0.015
0.025
0.01
0.0
-0.015
0.02
-0.035
0.01
0.0
0.0
-0.005
0.03
0.065
0.02
0.005
0.035
0.065
0.065
0.095
0.08
0.07
0.07
0.08
0.07
0.13
0.13
0.085
0.13
0.09
0.03
-0.01
0.025
0.11
0.015
0.01
0.065
0.03
-0.035
-0.055
0.02
-0.01
-0.025
-0.01
-0.075
-0.05
-0.015
0.015
-0.06
0.02
-0.07
-0.055
-0.025
-0.04
-0.06
-0.02
-0.03
-0.035
-0.08
-0.035
0.015
-0.015
-0.03
-0.035
-0.02
-0.07
-0.08
-0.05
-0.08
-0.035
-0.025
-0.06
-0.06
-0.085
-0.03
-0.075
-0.07
-0.105
-0.105
-0.045
-0.04
-0.01
0.095
0.235
0.45
0.64
0.89
1.085
1.29
1.38
1.315
1.25
1.205
0.99
0.69
0.475
0.17
-0.045
-0.315
-0.355
-0.34
-0.31
-0.3
-0.35
-0.34
-0.3
-0.245
-0.215
-0.175
-0.145
-0.14
-0.115
-0.105
-0.05
-0.11
-0.035
-0.05
-0.08
-0.04
-0.03
-0.055
-0.03
-0.06
0.0
0.005
0.02
-0.005
-0.07
-0.04
-0.015
-0.01
-0.045
-0.015
-0.005
-0.065
-0.015
0.0
0.03
-0.035
0.005
-0.01
-0.005
-0.055
-0.01
0.015
0.05
0.065
0.045
0.06
0.07
0.01
0.055
0.03
0.05
0.015
0.03
0.075
0.04
0.085
0.13
0.035
0.065
0.09
0.085
0.12
0.06
0.095
0.085
0.085
0.115
0.135
0.15
0.145
0.13
0.15
0.21
0.135
0.135
0.22
0.225
0.165
0.2
0.21
0.235
0.255
0.295
0.215
0.265
0.25
0.27
0.255
0.26
0.255
0.235
0.26
0.3
0.275
0.255
0.275
0.285
0.275
0.305
0.295
0.245
0.175
0.275
0.28
0.19
0.21
0.28
0.18
0.23
0.18
0.15
0.15
0.2
0.195
0.135
0.13
0.105
0.085
0.1
0.07
0.065
0.055
0.08
0.055
0.035
0.055
0.02
0.045
-0.025
0.005
0.015
-0.015
-0.015
-0.005
-0.06
0.015
-0.05
0.04
-0.02
-0.04
-0.02
-0.01
0.03
0.015
-0.02
-0.025
-0.005
-0.035
-0.045
0.015
-0.005
0.0
-0.025
-0.035
-0.015
-0.015
-0.025
-0.005
0.02
-0.01
0.01
0.035
-0.01
-0.035
0.0
0.025
-0.05
-0.05
0.035
-0.015
-0.02
-0.015
-0.015
-0.03
0.0
-0.025
0.025
0.02
-0.02
-0.045
-0.08
-0.025
-0.01
0.02
-0.03
0.005
-0.02
-0.025
-0.005
0.02
-0.025
0.0
0.04
-0.02
-0.03
0.015
-0.03
-0.035
0.04
-0.065
-0.05
-0.035
-0.06
-0.065
-0.005
0.045
0.0
-0.035
0.025
-0.055
-0.005
-0.005
-0.045
-0.035
-0.035
-0.055
0.03
0.015
0.01
0.0
-0.015
-0.01
0.02
0.075
0.02
0.04
0.03
0.05
0.05
0.01
0.01
0.04
0.075
0.105
0.11
0.07
0.075
0.055
0.035
-0.005
0.045
0.105
0.055
0.075
0.045
0.03
0.0
0.005
0.02
-0.01
-0.065
-0.055
-0.05
-0.06
0.015
-0.02
-0.09
-0.025
-0.05
-0.055
-0.085
-0.05
-0.01
-0.055
-0.05
-0.03
-0.085
-0.05
-0.09
-0.035
0.04
-0.075
-0.08
-0.055
-0.065
-0.035
-0.05
0.04
-0.045
-0.12
-0.09
-0.025
-0.05
-0.055
-0.01
-0.07
-0.095
-0.08
-0.065
-0.055
-0.01
0.025
0.105
0.22
0.37
0.59
0.795
1.005
1.09
1.215
1.31
1.225
1.145
0.825
0.665
0.48
0.24
-0.025
-0.27
-0.365
-0.32
-0.35
-0.33
-0.29
-0.315
-0.285
-0.295
-0.26
-0.24
-0.2
-0.15
-0.14
-0.095
-0.075
-0.095
-0.04
-0.05
0.02
-0.025
-0.08
-0.01
0.0
-0.045
-0.045
0.005
0.005
-0.02
-0.005
0.01
-0.005
0.0
0.05
-0.005
-0.01
0.02
0.01
-0.05
0.02
0.05
0.0
0.005
0.0
0.05
0.04
0.02
0.025
0.005
0.04
0.05
-0.015
0.075
0.045
0.04
0.07
0.06
0.02
0.08
0.085
0.045
0.06
0.11
0.155
0.12
0.07
0.08
0.11
0.125
0.1
0.11
0.1
0.175
0.12
0.13
0.16
0.135
0.13
0.215
0.25
0.205
0.19
0.265
0.2
0.19
0.2
0.22
0.19
0.205
0.225
0.25
0.235
0.275
0.265
0.325
0.265
0.26
0.185
0.255
0.245
0.275
0.27
0.255
0.315
0.305
0.305
0.28
0.22
0.255
0.245
0.24
0.24
0.27
0.295
0.25
0.165
0.065
0.15
0.175
0.175
0.165
0.12
0.145
0.125
0.085
0.065
0.06
0.065
0.1
0.095
0.115
0.005
0.025
0.0
-0.025
0.08
0.0
0.045
0.01
0.025
-0.005
0.02
0.03
0.07
0.01
-0.005
0.0
0.035
0.075
0.015
-0.015
0.015
0.015
-0.025
-0.03
0.02
0.04
0.025
0.03
0.02
-0.005
-0.01
-0.035
0.0
-0.01
0.0
-0.015
-0.055
0.045
0.02
0.0
0.01
0.095
0.01
-0.04
0.02
0.01
0.025
0.03
0.0
0.025
0.015
0.005
-0.02
0.01
0.015
-0.035
-0.03
0.01
0.005
0.005
0.0
0.03
-0.025
0.04
0.045
0.015
0.015
-0.005
0.01
-0.01
0.045
0.01
0.01
-0.06
0.005
0.02
0.055
0.02
-0.025
-0.005
0.0
0.015
0.015
0.0
0.02
-0.02
-0.01
0.0
0.035
0.035
-0.02
0.015
0.005
0.025
-0.01
0.02
0.045
0.04
0.015
0.025
0.055
0.065
0.035
0.02
0.095
0.05
0.05
0.05
0.025
0.05
0.145
0.095
0.075
0.13
0.13
0.09
0.095
0.095
0.085
0.005
0.03
0.07
0.035
-0.02
-0.04
-0.015
-0.01
0.005
-0.015
-0.03
-0.02
-0.05
-0.055
-0.015
0.005
-0.045
-0.025
0.0
-0.07
-0.04
-0.04
-0.04
-0.055
-0.07
-0.035
-0.125
-0.08
-0.005
-0.025
0.005
0.005
-0.01
-0.01
-0.01
0.0
-0.035
-0.02
-0.07
-0.08
-0.035
-0.035
-0.045
-0.095
-0.05
-0.045
-0.035
0.03
0.11
0.28
0.43
0.62
0.805
1.005
1.2
1.295
1.3
1.255
1.08
0.915
0.695
0.445
0.12
0.01
-0.275
-0.35
-0.35
-0.315
-0.32
-0.335
-0.24
-0.225
-0.225
-0.23
-0.205
-0.185
-0.16
-0.13
-0.075
-0.12
-0.045
-0.015
-0.02
-0.015
0.035
-0.01
-0.025
0.005
-0.03
-0.06
-0.015
0.0
-0.03
-0.06
0.015
-0.005
0.01
0.0
0.01
-0.005
0.01
0.02
-0.005
0.0
-0.055
-0.005
0.005
-0.015
-0.005
0.02
0.025
0.07
0.055
0.01
0.075
0.05
0.045
0.06
0.065
0.02
0.045
0.07
0.105
0.0
0.075
0.105
0.04
0.06
0.095
0.085
0.115
0.115
0.105
0.125
0.13
0.17
0.195
0.11
0.125
0.165
0.185
0.195
0.185
0.115
0.235
0.205
0.16
0.17
0.17
0.18
0.22
0.245
0.235
0.235
0.225
0.265
0.32
0.245
0.25
0.33
0.245
0.26
0.29
0.235
0.32
0.295
0.255
0.275
0.305
0.275
0.285
0.265
0.27
0.255
0.215
0.17
0.23
0.235
0.2
0.175
0.18
0.205
0.195
0.155
0.135
0.135
0.09
0.125
0.055
0.085
0.115
0.09
0.11
0.06
0.005
-0.015
0.015
0.04
0.04
0.01
0.08
0.035
0.0
0.04
0.045
0.015
-0.03
0.02
0.01
-0.02
-0.025
0.015
-0.035
0.025
0.005
-0.02
0.005
0.0
0.02
0.015
0.04
0.01
-0.005
-0.025
-0.025
-0.025
0.005
0.03
-0.005
-0.02
0.02
0.005
-0.005
0.015
-0.02
0.005
-0.01
-0.025
-0.04
-0.015
0.01
0.01
0.035
0.025
0.01
-0.005
0.025
0.0
0.01
0.035
0.0
-0.005
0.0
0.02
-0.05
-0.02
-0.015
-0.005
-0.015
0.01
0.05
0.03
0.05
-0.025
0.0
-0.015
0.025
-0.01
-0.02
0.045
-0.035
-0.045
-0.03
-0.01
0.025
0.09
0.01
-0.015
-0.025
0.045
0.0
-0.06
-0.035
0.035
-0.01
0.01
0.035
0.03
0.05
0.055
0.045
0.015
0.05
0.075
-0.015
0.055
0.06
0.045
0.07
0.11
0.1
0.125
0.12
0.095
0.095
0.11
0.07
0.04
0.085
0.075
0.015
0.04
0.025
-0.04
0.01
-0.015
-0.02
-0.03
-0.065
-0.03
0.015
-0.01
-0.055
-0.045
-0.035
-0.055
0.0
-0.02
-0.01
-0.025
-0.045
-0.1
-0.08
-0.08
-0.085
-0.055
0.0
-0.04
-0.045
-0.025
0.0
-0.01
-0.02
0.02
-0.08
-0.045
-0.05
-0.09
-0.02
-0.06
-0.07
-0.11
-0.09
-0.13
-0.15
-0.095
-0.055
-0.01
0.09
0.225
0.375
0.58
0.84
1.01
1.145
1.295
1.34
1.345
1.245
1.085
0.79
0.535
0.255
0.025
-0.23
-0.36
-0.305
-0.36
-0.27
-0.2
-0.25
-0.245
-0.22
-0.205
-0.175
-0.155
-0.155
-0.13
-0.075
-0.035
-0.06
-0.04
-0.005
0.0
-0.05
-0.04
-0.025
-0.04
-0.005
0.015
-0.01
-0.065
-0.04
-0.045
-0.035
0.005
0.07
0.01
-0.045
-0.015
-0.035
0.0
-0.01
0.0
-0.01
-0.015
-0.025
0.04
0.065
0.065
0.03
0.025
0.015
-0.04
0.045
0.03
0.04
0.05
-0.035
0.07
0.105
0.075
0.12
0.09
0.075
0.105
0.065
0.1
0.09
0.07
0.08
0.085
0.135
0.095
0.12
0.155
0.175
0.155
0.155
0.155
0.14
0.19
0.17
0.18
0.19
0.195
0.175
0.255
0.26
0.235
0.235
0.185
0.28
0.25
0.235
0.2
0.29
0.335
0.215
0.32
0.26
0.25
0.275
0.275
0.29
0.31
0.285
0.285
0.265
0.26
0.315
0.265
0.26
0.245
0.265
0.225
0.18
0.22
0.245
0.195
0.18
0.185
0.13
0.135
0.145
0.14
0.15
0.1
0.055
0.035
0.085
0.12
0.115
0.04
0.045
0.045
-0.03
0.025
0.05
0.06
-0.005
0.05
-0.03
-0.03
0.015
0.005
0.005
0.0
0.05
-0.015
-0.005
-0.01
-0.05
-0.005
-0.015
0.025
0.015
-0.005
0.025
-0.02
-0.005
0.015
0.04
-0.03
-0.045
-0.06
-0.005
0.105
0.045
0.0
-0.03
0.005
0.005
-0.015
0.02
0.045
-0.02
-0.015
-0.025
-0.065
-0.02
-0.02
-0.02
0.025
0.05
-0.005
-0.005
0.0
0.0
-0.055
-0.035
0.055
0.025
-0.025
0.005
0.025
-0.02
0.04
-0.01
0.0
-0.015
-0.005
0.03
-0.02
-0.03
-0.055
0.015
0.035
0.055
0.045
-0.015
-0.005
0.03
0.0
-0.005
-0.045
-0.03
-0.02
-0.005
0.08
0.045
-0.05
0.02
0.04
0.075
0.015
0.005
0.065
0.05
0.055
0.035
0.02
0.025
0.055
0.06
0.015
0.04
0.085
0.07
0.065
0.07
0.145
0.105
0.095
0.105
0.075
0.08
0.135
0.09
0.11
0.095
0.105
0.06
0.03
0.04
0.075
0.005
0.005
-0.02
0.04
0.05
0.01
-0.015
-0.025
-0.02
-0.04
-0.03
-0.01
-0.025
-0.04
-0.025
-0.01
-0.035
-0.01
-0.025
-0.075
-0.03
-0.04
-0.015
0.0
0.005
0.0
-0.06
-0.04
-0.015
-0.03
-0.065
-0.015
-0.01
0.005
-0.01
-0.01
-0.055
-0.085
-0.115
-0.11
-0.1
-0.07
-0.08
-0.055
0.01
0.05
0.185
0.355
0.545
0.76
0.965
1.2
1.36
1.415
1.36
1.225
1.125
0.885
0.675
0.395
0.115
-0.13
-0.325
-0.335
-0.27
-0.265
-0.335
-0.3
-0.28
-0.285
-0.245
-0.2
-0.12
-0.09
-0.07
-0.11
-0.075
-0.02
-0.055
-0.03
-0.01
-0.005
-0.015
-0.02
-0.04
-0.035
-0.035
-0.015
-0.03
0.005
-0.04
-0.03
-0.045
0.0
0.095
-0.01
-0.015
-0.02
-0.01
-0.04
0.01
0.0
-0.02
-0.005
0.05
0.005
0.02
0.06
-0.005
-0.02
0.01
0.03
0.05
-0.03
0.03
0.055
0.075
0.08
0.05
0.075
0.12
0.11
0.105
0.07
0.075
0.075
0.095
0.09
0.15
0.095
0.135
0.15
0.12
0.08
0.125
0.145
0.155
0.175
0.22
0.195
0.2
0.14
0.075
0.21
0.25
0.17
0.25
0.235
0.255
0.29
0.26
0.285
0.25
0.265
0.205
0.25
0.305
0.305
0.285
0.27
0.295
0.285
0.28
0.275
0.33
0.28
0.23
0.24
0.25
0.25
0.285
0.22
0.18
0.2
0.22
0.27
0.19
0.2
0.165
0.16
0.125
0.155
0.155
0.14
0.04
0.075
0.11
0.075
0.06
0.02
0.025
0.015
0.07
0.06
0.01
-0.015
0.025
0.01
-0.035
0.025
0.02
0.0
0.025
0.025
-0.045
-0.09
-0.085
0.0
-0.03
-0.02
-0.01
-0.04
0.0
-0.015
-0.055
-0.045
-0.04
0.0
-0.035
-0.055
-0.005
-0.005
-0.005
-0.01
-0.03
-0.075
0.01
-0.01
-0.01
-0.04
-0.005
-0.025
0.0
-0.055
-0.03
-0.05
-0.03
-0.075
-0.11
0.025
0.01
-0.005
0.005
-0.04
-0.06
-0.05
-0.01
-0.015
-0.085
-0.01
-0.04
-0.07
-0.02
-0.06
-0.03
-0.035
-0.035
-0.02
-0.05
-0.045
-0.08
-0.04
-0.065
-0.02
-0.055
0.015
-0.055
0.02
-0.065
-0.025
-0.035
-0.03
-0.005
-0.065
-0.06
0.0
-0.025
-0.07
-0.005
-0.03
-0.065
-0.015
-0.045
-0.015
-0.015
-0.03
0.0
0.025
-0.01
0.03
-0.015
-0.075
-0.045
-0.025
0.015
0.025
0.025
0.08
0.045
0.01
0.055
0.06
0.07
0.045
0.06
0.06
0.09
0.06
0.005
0.005
0.045
0.02
0.005
0.105
0.025
0.03
-0.03
-0.045
-0.035
-0.045
-0.06
-0.1
-0.03
0.015
-0.045
-0.1
-0.065
-0.1
-0.01
-0.03
-0.03
-0.035
-0.06
-0.08
-0.125
-0.095
-0.055
-0.01
-0.035
-0.075
0.0
-0.01
-0.07
-0.04
-0.055
-0.08
-0.1
-0.07
-0.11
-0.06
-0.065
-0.08
0.0
-0.04
-0.105
-0.07
-0.045
-0.08
-0.05
0.015
0.09
0.28
0.41
0.6
0.75
0.925
1.18
1.25
1.255
1.235
1.1
0.96
0.665
0.415
0.17
-0.04
-0.285
-0.375
-0.315
-0.29
-0.29
-0.3
-0.26
