# TIPE ECG 2021 - ECG-ID Database v1.0.0 par Physionet
# [N° de la personne, N° de l'enregistrement, Période d'échantillonnage, Prénom, Age, Sexe, Date de l'enregistrement]
[34, 1, 0.002, "Laura", 49, "F", "12.05.2005"]
0.48
0.47
0.515
0.57
0.505
0.455
0.5
0.385
0.58
0.5
0.54
0.505
0.575
0.45
0.485
0.455
0.38
0.425
0.475
0.585
0.465
0.505
0.62
0.695
0.64
0.515
0.49
0.51
0.535
0.5
0.57
0.49
0.565
0.62
0.59
0.595
0.595
0.61
0.575
0.53
0.615
0.58
0.61
0.64
0.595
0.6
0.595
0.605
0.545
0.5
0.64
0.575
0.525
0.505
0.52
0.5
0.485
0.515
0.535
0.565
0.565
0.625
0.45
0.485
0.555
0.485
0.55
0.43
0.51
0.47
0.5
0.54
0.46
0.455
0.425
0.525
0.485
0.5
0.515
0.505
0.425
0.505
0.565
0.535
0.43
0.475
0.455
0.51
0.51
0.57
0.51
0.535
0.37
0.295
0.26
0.27
0.275
0.415
0.42
0.63
0.825
0.995
1.165
1.345
1.495
1.535
1.545
1.435
1.295
1.16
1.02
0.845
0.815
0.745
0.475
0.545
0.565
0.535
0.495
0.55
0.605
0.565
0.505
0.545
0.46
0.53
0.51
0.42
0.49
0.615
0.52
0.505
0.48
0.495
0.39
0.47
0.43
0.48
0.465
0.465
0.415
0.43
0.5
0.51
0.53
0.515
0.53
0.495
0.4
0.54
0.585
0.55
0.49
0.52
0.46
0.47
0.43
0.45
0.455
0.455
0.455
0.655
0.65
0.58
0.505
0.5
0.525
0.505
0.57
0.575
0.535
0.56
0.515
0.545
0.5
0.485
0.525
0.45
0.495
0.575
0.545
0.67
0.63
0.545
0.58
0.45
0.44
0.48
0.63
0.61
0.5
0.555
0.565
0.565
0.565
0.54
0.54
0.515
0.535
0.605
0.625
0.62
0.595
0.605
0.64
0.67
0.615
0.665
0.7
0.685
0.605
0.62
0.745
0.695
0.675
0.575
0.595
0.63
0.7
0.645
0.655
0.61
0.775
0.7
0.765
0.7
0.68
0.7
0.635
0.595
0.605
0.6
0.655
0.685
0.655
0.615
0.66
0.595
0.655
0.73
0.635
0.505
0.605
0.54
0.57
0.675
0.595
0.61
0.665
0.555
0.6
0.595
0.62
0.555
0.56
0.55
0.525
0.51
0.53
0.56
0.62
0.57
0.65
0.63
0.58
0.585
0.62
0.59
0.56
0.56
0.58
0.525
0.575
0.625
0.61
0.545
0.595
0.565
0.645
0.705
0.6
0.525
0.505
0.68
0.72
0.625
0.495
0.505
0.485
0.555
0.72
0.66
0.54
0.61
0.665
0.58
0.585
0.645
0.635
0.585
0.65
0.65
0.64
0.63
0.63
0.625
0.605
0.59
0.64
0.65
0.61
0.63
0.7
0.685
0.63
0.685
0.715
0.715
0.745
0.69
0.675
0.67
0.675
0.7
0.705
0.73
0.77
0.675
0.65
0.675
0.675
0.7
0.69
0.61
0.655
0.665
0.625
0.605
0.725
0.615
0.57
0.63
0.62
0.6
0.595
0.52
0.655
0.69
0.65
0.7
0.61
0.59
0.66
0.64
0.625
0.57
0.605
0.605
0.61
0.655
0.66
0.6
0.63
0.565
0.605
0.61
0.72
0.595
0.635
0.61
0.535
0.52
0.47
0.47
0.44
0.48
0.52
0.61
0.74
0.845
1.025
1.15
1.165
1.325
1.45
1.57
1.465
1.36
1.235
1.015
0.925
0.865
0.755
0.67
0.725
0.715
0.72
0.675
0.72
0.755
0.7
0.645
0.55
0.58
0.835
0.715
0.555
0.575
0.61
0.52
0.605
0.58
0.56
0.56
0.595
0.625
0.59
0.605
0.48
0.55
0.7
0.68
0.595
0.55
0.495
0.555
0.62
0.63
0.64
0.63
0.675
0.63
0.64
0.655
0.69
0.58
0.63
0.695
0.63
0.725
0.7
0.68
0.63
0.62
0.71
0.65
0.6
0.59
0.64
0.65
0.63
0.62
0.64
0.64
0.66
0.69
0.695
0.635
0.625
0.625
0.585
0.73
0.66
0.59
0.61
0.845
0.7
0.69
0.67
0.655
0.7
0.73
0.75
0.655
0.635
0.72
0.635
0.67
0.7
0.76
0.76
0.595
0.695
0.805
0.725
0.74
0.72
0.725
0.83
0.815
0.77
0.69
0.69
0.85
0.75
0.775
0.865
0.765
0.7
0.78
0.84
0.79
0.775
0.805
0.795
0.79
0.735
0.805
0.765
0.81
0.82
0.795
0.665
0.71
0.775
0.615
0.84
0.795
0.755
0.705
0.715
0.655
0.64
0.745
0.715
0.7
0.75
0.785
0.735
0.69
0.625
0.665
0.735
0.63
0.665
0.695
0.655
0.725
0.73
0.755
0.705
0.68
0.59
0.625
0.715
0.65
0.785
0.665
0.64
0.69
0.6
0.61
0.665
0.75
0.735
0.595
0.69
0.69
0.685
0.695
0.79
0.605
0.615
0.685
0.68
0.715
0.74
0.66
0.73
0.72
0.68
0.685
0.66
0.675
0.67
0.78
0.865
0.76
0.72
0.69
0.73
0.75
0.81
0.735
0.67
0.695
0.745
0.68
0.81
0.865
0.695
0.66
0.745
0.67
0.81
0.79
0.755
0.76
0.865
0.855
0.735
0.615
0.78
0.86
0.795
0.77
0.845
0.88
0.795
0.77
0.825
0.765
0.705
0.785
0.71
0.785
0.785
0.745
0.675
0.695
0.745
0.695
0.765
0.735
0.815
0.71
0.8
0.8
0.655
0.79
0.69
0.785
0.71
0.765
0.765
0.675
0.735
0.82
0.71
0.72
0.74
0.71
0.685
0.695
0.72
0.755
0.725
0.725
0.73
0.67
0.555
0.545
0.605
0.58
0.73
0.83
0.95
1.035
1.2
1.255
1.31
1.515
1.64
1.7
1.395
1.36
1.13
1.005
1.01
0.89
0.785
0.79
0.755
0.785
0.8
0.815
0.77
0.8
0.735
0.695
0.715
0.735
0.745
0.735
0.675
0.755
0.7
0.69
0.73
0.795
0.82
0.655
0.69
0.8
0.775
0.775
0.77
0.765
0.76
0.715
0.705
0.715
0.75
0.675
0.685
0.715
0.805
0.76
0.79
0.72
0.665
0.705
0.775
0.715
0.73
0.825
0.85
0.76
0.725
0.76
0.78
0.765
0.795
0.705
0.745
0.75
0.765
0.765
0.725
0.605
0.68
0.77
0.765
0.81
0.75
0.85
0.795
0.825
0.735
0.76
0.795
0.71
0.755
0.82
0.8
0.8
0.85
0.905
0.895
0.815
0.675
0.65
0.785
0.87
0.635
0.575
0.845
0.815
0.83
0.94
1.155
1.0
0.855
0.835
0.72
0.82
0.68
0.73
0.91
0.885
1.09
1.13
1.025
0.8
0.8
0.86
0.94
0.89
0.85
1.005
0.98
0.75
0.86
0.96
1.05
0.935
0.78
0.88
0.99
0.96
0.87
0.835
0.82
0.895
0.99
0.905
0.77
0.845
1.025
0.9
0.84
0.785
0.69
0.73
0.76
0.91
1.0
0.91
0.75
0.735
0.68
0.835
0.88
0.845
0.745
0.75
0.845
0.86
0.81
0.705
0.7
0.795
0.86
0.89
0.925
0.8
0.82
0.8
0.835
0.89
0.825
0.88
0.845
0.86
0.76
0.89
0.895
0.88
0.925
0.835
0.645
0.755
0.77
0.655
0.73
0.85
0.805
0.825
0.815
0.97
0.86
0.915
1.015
0.865
0.91
0.725
0.695
0.775
0.855
0.66
0.74
0.94
1.035
0.915
0.98
0.83
0.885
0.76
0.885
0.88
0.835
0.875
0.875
0.875
0.875
0.94
0.955
0.945
0.99
0.94
0.905
0.91
0.85
0.775
0.86
0.9
0.895
0.96
0.91
0.835
0.805
0.855
0.875
0.76
0.81
0.765
0.725
0.785
0.885
0.815
1.005
0.98
0.835
0.785
0.75
0.83
0.86
0.84
0.98
0.795
0.78
0.855
0.84
0.785
0.81
0.865
0.95
0.845
0.89
0.81
0.78
0.88
0.8
0.915
0.955
0.905
0.85
0.755
0.67
0.725
0.645
0.655
0.665
0.665
0.785
0.88
0.975
1.2
1.205
1.445
1.57
1.585
1.595
1.67
1.695
1.58
1.545
1.195
0.995
0.93
0.84
0.78
0.82
0.95
1.0
0.965
0.99
1.04
0.96
0.99
0.915
0.795
0.705
0.715
0.805
0.89
0.855
0.89
0.83
0.835
0.83
0.94
0.765
0.675
0.785
0.81
0.85
0.935
0.89
0.78
0.85
0.83
0.84
0.9
0.925
0.825
0.805
0.815
0.9
0.925
0.805
0.78
0.88
0.95
0.905
0.99
0.96
0.945
0.715
0.805
0.87
0.805
0.8
0.905
0.875
0.895
0.9
0.925
0.855
0.825
0.86
0.94
0.85
0.945
0.92
0.845
0.915
0.86
0.89
0.89
0.815
0.855
0.89
0.945
0.95
0.985
0.92
0.94
0.91
0.9
0.895
0.865
0.785
0.875
0.875
0.9
0.93
0.925
0.945
0.98
0.925
0.89
0.955
0.98
1.045
1.015
0.97
1.01
0.955
0.965
0.98
0.945
0.985
0.955
1.075
1.07
0.99
0.95
0.995
0.935
1.005
1.045
1.01
0.93
0.985
0.95
0.905
0.96
0.92
0.95
0.88
0.86
0.89
0.865
0.85
0.93
0.91
0.885
0.87
0.89
0.89
0.865
0.9
0.92
0.945
0.92
0.89
0.875
0.91
0.9
0.91
0.865
0.76
0.745
0.86
0.875
1.065
0.975
1.03
0.815
0.86
0.86
0.9
0.895
0.87
0.885
0.8
0.905
0.815
0.76
0.84
0.815
0.785
0.82
0.86
0.85
0.81
0.735
0.86
0.935
0.81
0.86
0.925
0.935
0.945
0.9
0.955
0.945
0.885
0.955
0.88
0.82
0.87
0.88
0.95
0.98
1.015
1.015
0.985
0.975
1.015
0.95
1.035
1.1
1.175
1.155
1.02
0.96
0.96
0.96
1.005
0.97
0.935
1.035
1.07
1.12
1.055
1.0
0.975
1.095
1.2
1.02
1.115
1.145
1.085
1.075
1.175
1.095
1.04
1.045
1.005
1.01
1.03
1.12
1.09
1.08
1.045
1.085
1.09
1.0
0.955
0.96
0.955
0.98
0.975
1.025
0.99
0.995
1.005
1.04
0.995
0.97
0.94
0.97
0.97
1.045
1.08
0.92
0.96
0.935
0.92
0.98
1.05
0.935
0.935
0.985
1.03
1.105
1.035
1.005
1.025
0.96
1.02
0.96
0.95
0.825
0.915
0.87
0.865
0.895
0.765
0.75
0.81
0.905
1.05
1.23
1.385
1.49
1.6
1.785
1.83
1.835
1.855
1.72
1.615
1.395
1.285
1.195
1.105
1.045
1.015
1.035
1.055
1.01
1.03
1.055
1.02
1.0
0.995
1.0
0.945
1.025
1.01
0.965
1.075
0.955
0.945
1.005
0.925
0.935
0.925
0.91
0.975
0.965
0.925
0.975
0.955
1.015
1.05
1.035
1.005
0.97
0.96
0.98
0.9
0.885
0.905
0.99
0.995
1.03
0.965
0.94
0.98
0.88
0.975
0.945
0.95
0.945
0.93
0.875
0.855
0.935
1.035
0.93
0.9
0.97
0.95
1.02
1.06
1.09
0.94
1.065
1.065
0.945
0.985
1.02
1.055
0.95
0.97
1.0
0.975
0.925
0.98
1.0
1.04
0.995
1.015
0.995
0.97
0.925
1.015
1.005
1.055
1.02
1.04
1.05
1.06
1.095
1.105
1.04
1.04
1.045
1.045
1.115
1.07
1.095
1.13
1.1
1.055
1.115
1.045
1.1
1.11
1.005
1.025
1.115
1.035
1.145
1.065
1.045
1.1
1.245
1.14
1.12
1.01
1.085
1.075
1.06
0.995
0.97
1.09
1.01
1.04
0.94
0.905
1.03
1.075
1.025
1.01
0.96
0.985
1.04
1.045
1.005
1.02
1.04
0.975
0.945
0.98
0.98
0.985
0.98
0.985
0.95
0.975
0.985
0.98
0.94
0.995
1.11
0.97
0.94
0.835
0.92
0.985
0.9
0.885
0.925
0.99
0.97
0.95
1.055
1.005
0.84
0.91
0.985
0.94
0.94
0.985
0.905
0.905
0.99
0.955
0.96
0.99
0.94
1.005
0.985
0.835
0.85
0.92
0.885
1.04
1.075
1.04
0.895
0.91
0.93
0.98
0.95
0.87
0.92
0.975
0.95
0.965
0.98
0.925
0.94
0.935
0.975
0.96
0.995
1.09
1.095
0.905
0.955
0.97
0.935
0.935
0.93
0.975
0.905
0.96
0.98
0.975
1.0
0.905
0.895
0.985
0.935
1.045
1.055
0.99
0.955
0.97
0.975
0.965
0.995
0.99
1.025
0.915
1.02
0.945
0.985
0.995
0.965
1.0
0.94
0.96
0.9
0.955
0.965
0.96
0.975
1.03
0.91
0.86
0.87
0.87
0.875
0.845
0.955
0.98
0.905
0.96
0.905
0.89
0.945
0.88
0.825
0.89
0.875
0.9
0.94
0.975
0.985
0.955
0.965
0.855
0.92
0.895
0.945
0.945
0.84
0.84
0.88
0.82
0.72
0.82
0.825
0.815
0.855
0.945
1.06
1.215
1.34
1.49
1.57
1.67
1.71
1.67
1.63
1.5
1.335
1.24
0.96
0.96
0.95
0.855
0.965
0.895
0.93
0.915
0.985
0.92
0.965
0.925
0.86
0.84
0.855
0.915
0.915
0.84
0.885
0.865
0.865
0.845
0.84
0.845
0.885
0.86
0.87
0.88
0.865
0.87
0.89
0.885
0.875
0.845
0.8
0.885
0.87
0.915
0.925
0.85
0.855
0.91
0.975
0.8
0.875
0.905
0.935
0.805
0.835
0.87
0.815
0.82
0.86
0.805
0.865
0.9
0.87
0.89
0.905
0.905
0.895
0.855
0.905
0.985
0.91
0.87
0.84
0.825
0.88
0.95
0.955
0.84
0.855
0.765
0.945
0.85
0.855
0.86
0.88
0.875
0.94
0.875
0.86
0.865
0.91
0.93
0.945
0.965
0.965
0.975
0.86
0.93
0.965
0.97
0.885
0.94
0.93
0.915
0.915
1.04
0.925
0.93
1.01
0.985
0.995
0.94
1.065
0.995
0.905
0.95
0.955
0.865
0.925
0.96
0.975
0.98
1.005
0.98
1.005
0.99
1.02
0.895
0.87
0.855
0.885
0.85
0.83
0.895
0.895
0.9
0.9
0.87
0.91
0.88
0.9
0.85
0.92
0.875
0.895
0.785
0.79
0.765
0.795
0.89
0.845
0.785
0.855
0.83
0.9
0.81
0.83
0.81
0.785
0.83
0.78
0.82
0.665
0.795
0.93
0.845
0.835
0.87
0.825
0.79
0.85
0.915
0.825
0.78
0.835
0.74
0.765
0.79
0.855
0.795
0.865
0.87
0.86
0.825
0.74
0.765
0.79
0.785
0.8
0.915
0.89
0.91
0.785
0.77
0.745
0.84
0.785
0.825
0.8
0.815
0.835
0.84
0.84
0.82
0.78
0.75
0.81
0.84
0.84
0.87
0.92
0.79
0.725
0.755
0.81
0.77
0.785
0.775
0.98
0.935
0.885
0.755
0.745
0.845
0.855
0.845
0.735
0.82
0.8
0.83
0.905
0.845
0.79
0.795
0.81
0.75
0.81
0.86
0.78
0.84
0.775
0.885
0.82
0.845
0.77
0.745
0.78
0.78
0.715
0.745
0.8
0.805
0.85
0.795
0.81
0.81
0.72
0.755
0.695
0.755
0.775
0.82
0.72
0.8
0.74
0.8
0.71
0.74
0.75
0.765
0.72
0.79
0.79
0.8
0.745
0.715
0.7
0.72
0.685
0.775
0.645
0.735
0.78
0.695
0.67
0.605
0.63
0.615
0.63
0.77
0.725
0.85
1.015
0.95
1.08
1.22
1.33
1.34
1.385
1.425
1.295
1.25
1.105
1.03
0.92
0.75
0.695
0.715
0.69
0.755
0.73
0.715
0.71
0.765
0.79
0.765
0.68
0.705
0.685
0.64
0.665
0.715
0.735
0.67
0.75
0.66
0.72
0.695
0.545
0.665
0.75
0.7
0.71
0.81
0.725
0.645
0.59
0.63
0.655
0.675
0.7
0.615
0.655
0.68
0.715
0.665
0.64
0.65
0.605
0.695
0.675
0.695
0.66
0.635
0.675
0.66
0.64
0.66
0.635
0.64
0.72
0.685
0.71
0.605
0.605
0.64
0.66
0.67
0.73
0.72
0.73
0.66
0.74
0.62
0.68
0.645
0.64
0.585
0.715
0.805
0.725
0.675
0.7
0.655
0.705
0.645
0.675
0.675
0.705
0.7
0.71
0.77
0.67
0.765
0.79
0.75
0.75
0.665
0.7
0.795
0.775
0.765
0.78
0.815
0.775
0.735
0.725
0.76
0.765
0.81
0.81
0.795
0.79
0.735
0.65
0.7
0.785
0.705
0.86
0.86
0.72
0.71
0.725
0.735
0.785
0.615
0.63
0.7
0.68
0.69
0.72
0.625
0.71
0.625
0.695
0.68
0.67
0.645
0.645
0.63
0.65
0.685
0.66
0.62
0.605
0.62
0.63
0.635
0.615
0.62
0.61
0.62
0.625
0.685
0.67
0.58
0.57
0.675
0.495
0.65
0.625
0.605
0.585
0.57
0.585
0.545
0.59
0.65
0.675
0.545
0.605
0.57
0.565
0.58
0.645
0.595
0.555
0.565
0.58
0.71
0.61
0.6
0.65
0.655
0.555
0.615
0.615
0.515
0.57
0.605
0.6
0.59
0.625
0.62
0.595
0.625
0.63
0.575
0.62
0.59
0.58
0.615
0.625
0.595
0.61
0.56
0.55
0.6
0.64
0.585
0.555
0.58
0.61
0.585
0.57
0.62
0.61
0.615
0.56
0.63
0.655
0.605
0.635
0.53
0.56
0.675
0.7
0.56
0.645
0.565
0.635
0.685
0.635
0.575
0.655
0.605
0.55
0.585
0.7
0.59
0.56
0.66
0.595
0.625
0.595
0.645
0.635
0.54
0.565
0.66
0.655
0.59
0.58
0.485
0.545
0.6
0.625
0.655
0.535
0.55
0.57
0.625
0.55
0.525
0.605
0.45
0.58
0.515
0.59
0.455
0.555
0.515
0.495
0.51
0.52
0.56
0.475
0.58
0.68
0.52
0.51
0.595
0.47
0.51
0.505
0.53
0.53
0.69
0.46
0.39
0.305
0.37
0.375
0.515
0.61
0.62
0.765
0.895
0.935
1.03
1.105
1.215
1.31
1.295
1.13
0.905
0.845
0.865
0.725
0.585
0.585
0.59
0.45
0.47
0.56
0.47
0.51
0.545
0.57
0.595
0.47
0.48
0.42
0.58
0.47
0.515
0.605
0.475
0.375
0.42
0.515
0.525
0.44
0.43
0.405
0.36
0.405
0.465
0.525
0.47
0.475
0.535
0.455
0.465
0.46
0.47
0.485
0.565
0.52
0.495
0.515
0.45
0.405
0.44
0.48
0.48
0.375
0.405
0.485
0.49
0.52
0.485
0.495
0.46
0.49
0.475
0.435
0.45
0.62
0.54
0.52
0.47
0.46
0.47
0.475
0.445
0.385
0.495
0.445
0.515
0.465
0.455
0.445
0.46
0.465
0.49
0.525
0.515
0.48
0.47
0.52
0.47
0.495
0.54
0.415
0.45
0.495
0.575
0.54
0.625
0.54
0.44
0.505
0.555
0.635
0.63
0.545
0.58
0.625
0.555
0.55
0.51
0.575
0.49
0.51
0.52
0.55
0.535
0.57
0.56
0.535
0.61
0.645
0.525
0.54
0.59
0.52
0.495
0.545
0.535
0.54
0.52
0.48
0.505
0.445
0.45
0.45
0.465
0.515
0.46
0.49
0.49
0.49
0.475
0.48
0.46
0.44
0.495
0.505
0.47
0.465
0.545
0.435
0.345
0.395
0.275
0.315
0.4
0.41
0.475
0.405
0.37
0.49
0.39
0.425
0.455
0.365
0.405
0.42
0.405
0.46
0.345
0.425
0.365
0.36
0.4
0.405
0.35
0.355
0.385
0.355
0.345
0.34
0.375
0.4
0.39
0.375
0.38
0.335
0.305
0.37
0.415
0.42
0.39
0.425
0.35
0.41
0.355
0.345
0.315
0.365
0.405
0.4
0.32
0.44
0.48
0.505
0.395
0.335
0.455
0.44
0.35
0.39
0.37
0.43
0.45
0.345
0.355
0.33
0.365
0.335
0.33
0.45
0.4
0.355
0.415
0.44
0.405
0.4
0.35
0.37
0.37
0.4
0.57
0.275
0.33
0.465
0.405
0.41
0.415
0.33
0.38
0.465
0.39
0.435
0.415
0.45
0.41
0.345
0.405
0.365
0.385
0.44
0.405
0.45
0.355
0.345
0.325
0.385
0.355
0.355
0.315
0.4
0.325
0.365
0.39
0.35
0.35
0.33
0.385
0.355
0.35
0.45
0.44
0.39
0.365
0.385
0.33
0.405
0.33
0.325
0.365
0.34
0.33
0.385
0.445
0.34
0.335
0.395
0.345
0.335
0.365
0.4
0.335
0.345
0.475
0.22
0.16
0.17
0.255
0.315
0.265
0.41
0.51
0.675
0.77
0.82
0.915
1.015
1.195
1.15
1.065
0.95
0.87
0.715
0.625
0.54
0.38
0.39
0.33
0.32
0.385
0.405
0.375
0.32
0.215
0.29
0.35
0.315
0.275
0.255
0.39
0.35
0.32
0.3
0.285
0.295
0.375
0.285
0.21
0.265
0.315
0.31
0.28
0.32
0.325
0.285
0.32
0.275
0.335
0.34
0.34
0.315
0.305
0.305
0.295
0.315
0.34
0.31
0.295
0.51
0.395
0.275
0.37
0.355
0.235
0.235
0.335
0.385
0.445
0.23
0.265
0.225
0.28
0.275
0.25
0.295
0.29
0.275
0.255
0.3
0.355
0.285
0.37
0.47
0.31
0.255
0.31
0.36
0.32
0.355
0.38
0.33
0.38
0.315
0.385
0.33
0.285
0.28
0.295
0.31
0.375
0.34
0.295
0.34
0.375
0.275
0.375
0.39
0.41
0.355
0.335
0.375
0.435
0.42
0.36
0.395
0.45
0.46
0.375
0.415
0.435
0.41
0.435
0.495
0.435
0.365
0.405
0.425
0.42
0.42
0.395
0.39
0.45
0.55
0.315
0.425
0.465
0.39
0.39
0.4
0.37
0.335
0.34
0.385
0.395
0.37
0.42
0.335
0.265
0.325
0.26
0.23
0.32
0.31
0.315
0.355
0.25
0.215
0.25
0.21
0.275
0.3
0.295
0.295
0.325
0.155
0.3
0.35
0.345
0.275
0.27
0.27
0.29
0.24
0.22
0.245
0.315
0.3
0.34
0.27
0.245
0.28
0.235
0.275
0.26
0.21
0.295
0.3
0.225
0.215
0.25
0.31
0.3
0.295
0.265
0.26
0.27
0.265
0.27
0.335
0.275
0.26
0.19
0.305
0.25
0.21
0.25
0.245
0.2
0.3
0.29
0.265
0.35
0.31
0.26
0.24
0.235
0.34
0.31
0.33
0.195
0.19
0.23
0.255
0.26
0.27
0.26
0.265
0.22
0.25
0.245
0.245
0.315
0.275
0.265
0.25
0.32
0.18
0.155
0.255
0.32
0.275
0.235
0.25
0.285
0.325
0.25
0.265
0.22
0.3
0.26
0.295
0.225
0.21
0.23
0.22
0.255
0.215
0.22
0.255
0.255
0.275
0.345
0.255
0.28
0.275
0.285
0.26
0.21
0.285
0.275
0.285
0.33
0.3
0.29
0.265
0.305
0.195
0.23
0.335
0.26
0.285
0.3
0.2
0.255
0.205
0.25
0.415
0.265
0.195
0.23
0.135
0.105
0.2
0.27
0.19
0.31
0.225
0.205
0.205
0.2
0.19
0.26
0.19
0.175
0.185
0.185
0.275
0.25
0.175
0.165
0.13
0.215
0.19
0.29
0.145
0.165
0.19
0.26
0.205
0.14
0.11
0.16
0.2
0.095
0.135
0.255
0.435
0.575
0.605
0.62
0.805
0.99
0.97
0.965
0.9
0.81
0.65
0.52
0.47
0.355
0.27
0.275
0.205
0.165
0.215
0.195
0.135
0.225
0.25
0.215
0.27
0.295
0.145
0.19
0.18
0.115
0.15
0.215
0.175
0.075
0.165
0.175
0.145
0.13
0.17
0.22
0.115
0.18
0.12
0.15
0.185
0.16
0.105
0.105
0.125
0.175
0.16
0.17
0.155
0.185
0.18
0.22
0.175
0.025
0.21
0.13
0.19
0.21
0.235
0.15
0.15
0.26
0.2
0.155
0.15
0.13
0.115
0.18
0.235
0.1
0.155
0.185
0.105
0.235
0.11
0.115
0.28
0.15
0.2
0.24
0.2
0.215
0.18
0.105
0.15
0.225
0.25
0.205
0.2
0.22
0.23
0.195
0.155
0.22
0.195
0.235
0.265
0.22
0.22
0.185
0.27
0.29
0.18
0.32
0.275
0.265
0.33
0.32
0.23
0.21
0.265
0.22
0.255
0.26
0.275
0.265
0.245
0.305
0.35
0.365
0.285
0.335
0.25
0.32
0.28
0.15
0.265
0.29
0.245
0.24
0.295
0.33
0.25
0.13
0.215
0.14
0.275
0.235
0.245
0.255
0.19
0.225
0.215
0.275
0.175
0.03
0.12
0.185
0.195
0.225
0.185
0.15
0.12
0.1
0.085
0.17
0.205
0.16
0.09
0.14
0.22
0.175
0.135
0.125
0.155
0.14
0.175
0.17
0.155
0.185
0.215
0.1
0.075
0.105
0.065
0.235
0.105
0.185
0.125
0.14
0.15
0.125
0.19
0.175
0.11
0.125
0.125
0.17
0.135
0.055
0.185
0.105
0.1
0.075
0.05
0.065
0.165
0.15
0.175
0.24
0.15
0.12
0.165
0.14
0.045
0.005
0.095
0.115
0.155
0.255
0.165
0.085
0.11
0.175
0.17
0.16
0.13
0.14
0.075
0.115
0.13
0.075
0.165
0.205
0.125
0.155
0.14
0.13
0.1
0.12
0.085
0.15
0.15
0.11
0.175
0.105
0.125
0.075
0.09
0.13
0.175
0.05
0.135
0.24
0.12
0.16
0.17
0.15
0.095
0.135
0.2
0.06
0.13
0.12
0.165
0.15
0.095
0.105
0.115
0.09
0.13
0.145
0.14
0.15
0.03
0.085
0.075
0.17
0.145
0.155
0.115
0.025
0.22
0.145
0.14
0.11
0.155
0.2
0.205
0.14
0.135
0.12
0.235
0.145
0.09
0.11
0.21
0.185
0.155
0.11
0.13
0.11
0.075
0.145
0.13
0.115
0.05
0.12
0.13
0.105
0.115
0.12
0.115
0.09
0.105
0.115
0.105
0.06
0.065
0.05
0.095
0.07
0.095
0.08
0.02
0.02
0.125
0.075
0.145
0.13
0.08
0.08
-0.06
0.14
0.025
0.085
0.025
0.08
0.06
0.005
-0.02
-0.06
0.0
0.065
0.145
0.32
0.375
0.475
0.575
0.745
0.75
0.79
0.885
0.845
0.79
0.76
0.61
0.345
0.205
0.245
0.075
0.13
0.07
0.07
0.09
0.085
0.14
0.165
0.215
0.095
0.0
0.105
0.04
0.035
-0.01
0.05
-0.045
0.015
0.1
0.07
0.07
0.025
-0.025
0.0
0.02
0.075
0.04
0.155
0.1
0.045
0.055
0.065
0.02
0.01
-0.005
0.12
-0.005
0.05
0.05
0.09
0.06
0.075
0.045
-0.05
0.02
0.075
0.07
0.095
0.035
0.025
0.095
-0.015
0.11
0.115
0.07
0.105
0.11
-0.08
0.03
0.02
0.165
0.035
-0.02
0.005
0.09
0.14
0.115
0.095
0.12
0.075
0.005
0.02
0.065
0.06
0.12
0.105
0.07
0.01
0.075
0.095
0.065
0.005
0.045
0.115
0.07
0.1
0.095
0.09
0.175
0.115
0.085
0.14
0.145
0.105
0.1
0.12
0.31
0.245
0.2
0.13
0.12
0.145
0.15
0.115
0.135
0.155
0.155
0.27
0.165
0.14
0.195
0.17
0.17
0.13
0.215
0.225
0.21
0.2
0.115
0.19
0.11
0.135
0.13
0.13
0.065
0.095
0.115
0.11
0.05
0.075
0.085
0.0
0.05
0.125
0.09
0.045
0.195
0.02
0.11
0.045
0.07
0.155
0.03
0.035
0.05
0.035
-0.005
0.035
0.035
0.11
-0.025
0.0
0.065
0.035
0.03
0.08
0.075
0.09
0.06
0.06
0.04
-0.02
0.08
0.02
-0.045
0.035
0.055
0.005
0.045
0.04
0.035
-0.005
0.025
0.06
-0.005
0.03
0.02
-0.055
0.025
0.045
0.015
0.105
0.015
-0.01
0.2
0.055
0.065
0.015
0.075
-0.045
-0.115
0.02
-0.005
0.065
0.01
-0.02
0.12
0.04
-0.06
-0.06
-0.025
0.035
0.015
0.065
0.105
0.115
0.05
0.02
-0.04
0.05
0.12
-0.045
0.09
0.145
0.015
-0.02
0.04
0.085
0.075
0.075
-0.01
0.05
0.08
0.065
0.095
-0.085
0.12
0.03
0.015
-0.07
-0.005
0.04
0.01
0.02
0.075
0.045
0.04
0.025
-0.045
0.085
0.05
0.05
0.01
0.065
0.02
0.01
0.025
0.05
0.025
0.07
0.04
0.015
0.03
0.09
0.06
-0.005
0.055
0.095
0.005
0.015
0.045
-0.015
0.065
0.015
0.09
0.135
0.045
0.04
0.01
-0.06
0.08
0.045
0.02
0.075
0.06
0.06
0.0
0.06
-0.01
0.075
0.095
-0.035
0.02
0.035
-0.025
-0.055
0.115
0.04
0.01
0.065
0.005
0.0
-0.02
0.055
0.105
-0.005
-0.06
0.035
0.025
-0.05
-0.075
-0.035
0.01
0.105
0.095
0.1
0.0
-0.06
-0.045
-0.03
-0.015
-0.05
-0.015
0.005
0.015
0.035
0.015
0.045
-0.065
-0.04
-0.015
0.005
-0.135
-0.18
-0.19
-0.055
0.12
0.035
0.235
0.26
0.345
0.415
0.58
0.725
0.84
0.725
0.665
0.7
0.45
0.33
0.225
0.13
0.055
0.035
0.14
0.0
0.095
0.06
0.035
-0.07
0.005
0.015
-0.03
-0.05
-0.03
-0.055
0.015
0.055
-0.075
0.01
0.06
-0.115
-0.115
0.0
-0.04
-0.025
-0.025
-0.05
-0.05
0.005
0.03
-0.085
-0.055
-0.1
0.075
0.01
-0.045
-0.04
-0.035
-0.035
0.055
-0.035
0.02
-0.065
-0.045
-0.015
0.0
-0.015
-0.09
0.025
0.04
-0.005
-0.01
0.0
0.0
-0.03
-0.035
-0.08
0.03
-0.01
-0.025
0.015
0.06
0.07
-0.02
-0.035
0.04
-0.035
-0.11
-0.13
-0.085
0.02
0.08
-0.01
-0.025
-0.015
0.0
0.1
0.045
-0.025
0.03
-0.045
-0.005
-0.035
0.02
0.015
0.075
0.19
-0.045
0.1
0.04
0.085
0.09
0.065
0.04
0.045
0.19
0.065
0.035
0.065
0.055
0.09
0.125
0.225
0.135
0.05
0.105
0.125
0.11
0.135
0.105
0.105
0.115
0.11
0.105
0.14
0.18
0.11
0.06
0.065
0.055
0.03
0.08
0.15
0.07
0.02
0.075
0.11
0.11
0.005
0.015
0.07
0.07
0.08
-0.01
-0.04
-0.035
0.005
0.075
-0.055
-0.125
0.0
-0.035
-0.06
0.09
0.1
0.095
-0.03
0.04
0.045
-0.065
-0.035
0.025
-0.045
-0.025
-0.01
-0.045
-0.09
-0.095
0.035
0.025
0.01
-0.04
-0.04
-0.055
-0.12
-0.01
-0.12
-0.045
-0.065
-0.09
-0.135
-0.06
-0.05
0.08
0.07
0.055
-0.04
-0.07
0.0
-0.07
-0.04
-0.045
-0.025
-0.07
0.005
-0.09
-0.05
-0.07
-0.11
0.01
0.01
0.015
0.03
-0.055
0.03
0.03
-0.09
-0.12
-0.105
-0.015
0.04
-0.02
-0.08
0.04
-0.05
-0.05
-0.055
-0.07
0.0
-0.01
-0.025
0.02
0.045
0.105
0.12
-0.045
-0.045
-0.06
0.01
-0.03
0.035
0.09
-0.055
-0.005
-0.09
-0.005
-0.01
0.04
-0.095
0.0
-0.01
-0.085
0.045
0.065
-0.01
-0.025
-0.055
-0.025
-0.085
-0.095
0.01
-0.03
-0.045
0.01
-0.11
-0.045
-0.065
-0.055
-0.045
-0.015
-0.02
0.0
0.005
-0.015
0.03
0.0
-0.01
0.025
-0.03
-0.145
-0.015
0.02
0.045
-0.045
-0.095
-0.115
-0.075
-0.015
-0.045
0.0
0.045
-0.04
0.03
0.04
-0.025
-0.065
0.035
0.05
0.025
-0.03
0.045
-0.065
-0.02
-0.025
-0.015
-0.01
-0.025
-0.015
-0.06
0.015
0.07
-0.07
-0.05
-0.055
-0.07
-0.04
0.005
-0.07
-0.045
-0.035
0.005
-0.085
-0.095
-0.035
-0.08
-0.075
-0.1
-0.125
-0.015
-0.005
-0.065
0.035
-0.02
-0.11
0.03
-0.09
-0.115
-0.1
-0.075
-0.01
-0.08
-0.075
-0.035
-0.135
-0.135
-0.095
-0.13
-0.115
-0.16
-0.195
-0.19
-0.09
0.01
0.035
0.14
0.26
0.355
0.425
0.525
0.645
0.77
0.685
0.605
0.53
0.32
0.255
0.13
0.055
0.04
0.03
-0.06
-0.08
-0.085
-0.055
-0.07
-0.08
0.04
-0.095
-0.05
-0.075
-0.035
0.005
0.03
-0.075
-0.055
-0.21
-0.18
-0.195
-0.105
-0.085
-0.085
-0.065
-0.085
-0.04
-0.115
-0.055
-0.08
-0.095
-0.045
-0.085
-0.01
-0.085
-0.105
-0.095
-0.06
-0.125
-0.085
-0.095
-0.11
-0.12
-0.015
-0.005
-0.09
-0.065
-0.145
-0.115
-0.04
-0.115
-0.18
-0.06
-0.08
-0.065
-0.1
-0.04
-0.065
-0.085
-0.11
-0.03
-0.045
0.01
-0.135
-0.13
-0.055
-0.09
-0.15
-0.03
-0.065
-0.115
-0.125
-0.03
-0.045
-0.1
-0.01
-0.05
-0.08
0.005
-0.055
-0.035
-0.1
-0.075
-0.02
0.02
0.0
0.005
0.145
0.125
-0.065
-0.05
0.015
0.0
0.055
0.005
-0.01
0.01
0.105
0.03
0.04
0.045
0.005
0.07
0.03
0.015
0.09
0.03
0.065
0.07
0.13
0.025
0.02
-0.01
0.02
0.11
0.05
0.085
-0.005
0.035
-0.005
0.025
0.0
0.07
0.02
0.03
0.11
0.035
0.045
0.055
-0.11
-0.105
-0.14
-0.115
-0.085
-0.015
-0.075
-0.01
-0.025
-0.06
-0.09
-0.01
-0.08
0.0
-0.04
-0.03
-0.13
-0.005
-0.14
-0.075
-0.08
-0.05
-0.095
-0.075
-0.055
-0.145
-0.115
-0.125
-0.1
0.025
0.035
-0.035
-0.035
-0.115
-0.115
-0.11
-0.045
-0.085
-0.045
-0.05
-0.16
-0.095
-0.12
-0.07
-0.065
-0.06
-0.06
-0.095
-0.18
-0.12
-0.09
-0.12
-0.075
-0.035
-0.045
0.005
-0.045
-0.06
0.045
-0.185
-0.16
-0.08
-0.025
-0.06
-0.125
-0.1
-0.14
-0.09
-0.09
-0.06
-0.065
-0.09
-0.025
-0.045
-0.03
-0.115
-0.05
-0.075
-0.015
-0.06
-0.13
-0.11
-0.025
0.01
-0.01
-0.095
-0.105
-0.045
-0.025
-0.075
-0.08
-0.085
-0.105
-0.115
-0.095
-0.035
-0.015
-0.095
-0.025
-0.075
-0.105
-0.055
-0.035
-0.12
0.01
-0.01
-0.05
-0.075
-0.065
-0.145
-0.105
-0.05
-0.065
-0.085
-0.04
-0.065
-0.07
-0.07
-0.105
-0.06
-0.06
-0.155
-0.055
-0.075
-0.055
-0.01
-0.04
-0.12
-0.125
-0.095
-0.095
-0.005
-0.005
-0.015
-0.02
-0.125
-0.05
-0.02
-0.115
-0.115
-0.05
-0.03
-0.095
-0.08
-0.085
-0.03
0.07
0.015
-0.125
-0.13
-0.105
-0.045
-0.01
-0.075
-0.03
-0.03
-0.015
-0.055
-0.05
-0.035
-0.115
-0.05
-0.165
-0.165
-0.06
-0.04
-0.095
-0.09
-0.06
-0.045
-0.13
-0.125
-0.185
-0.09
-0.06
-0.11
-0.095
-0.115
-0.145
-0.145
-0.155
-0.185
-0.105
-0.085
-0.01
0.0
-0.045
-0.045
-0.075
-0.09
-0.065
-0.085
-0.045
-0.095
-0.13
-0.12
-0.08
-0.11
-0.125
-0.17
-0.23
-0.185
-0.165
-0.165
-0.13
-0.075
0.035
0.25
0.305
0.405
0.41
0.545
0.55
0.685
0.685
0.585
0.41
0.3
0.21
0.005
0.015
-0.035
-0.12
-0.035
-0.1
-0.115
-0.145
-0.11
-0.115
-0.05
-0.08
-0.135
-0.08
-0.035
-0.09
-0.095
-0.05
-0.305
-0.155
-0.035
-0.16
-0.1
-0.13
-0.15
-0.07
-0.09
-0.185
-0.19
-0.17
-0.09
-0.105
-0.07
-0.135
-0.125
-0.07
-0.075
-0.135
-0.085
-0.12
-0.16
-0.145
-0.12
-0.075
-0.155
-0.08
-0.125
-0.105
-0.12
-0.16
-0.17
-0.07
0.015
-0.025
-0.13
-0.135
-0.155
-0.16
-0.145
-0.095
-0.075
-0.12
-0.115
-0.14
-0.13
-0.1
-0.135
-0.17
-0.115
-0.1
-0.04
-0.05
-0.045
-0.055
-0.2
-0.14
-0.2
-0.08
0.025
-0.045
-0.125
-0.1
-0.095
0.055
-0.08
-0.11
-0.065
-0.025
-0.02
-0.05
-0.13
-0.015
0.02
-0.08
0.005
0.0
-0.04
-0.05
0.01
-0.005
-0.01
0.015
0.085
-0.005
0.095
0.05
0.035
0.0
0.03
0.015
-0.02
0.005
0.06
0.075
0.06
0.02
0.03
0.05
-0.055
0.05
-0.045
-0.01
-0.01
-0.02
-0.06
-0.09
-0.005
0.015
-0.04
-0.04
-0.05
-0.055
-0.065
-0.12
-0.055
-0.08
-0.01
-0.095
-0.13
-0.155
-0.06
-0.03
-0.065
-0.105
-0.135
-0.125
-0.115
-0.18
-0.08
0.055
-0.175
-0.09
-0.105
-0.125
-0.04
-0.065
-0.12
-0.195
-0.17
-0.14
-0.11
-0.16
-0.105
-0.17
-0.1
-0.12
-0.135
-0.16
-0.15
-0.125
-0.125
-0.04
-0.08
-0.1
-0.085
-0.21
-0.12
-0.13
-0.115
-0.135
-0.05
-0.15
-0.095
-0.12
-0.12
-0.105
-0.12
-0.155
-0.145
-0.065
-0.04
-0.095
-0.055
-0.075
-0.165
-0.07
-0.105
-0.14
-0.11
-0.2
-0.16
-0.165
-0.08
-0.075
-0.025
-0.025
-0.145
-0.155
-0.18
-0.09
0.005
-0.04
-0.015
-0.085
-0.04
-0.06
-0.19
-0.11
-0.095
-0.13
-0.09
-0.08
-0.115
0.005
-0.07
-0.125
-0.105
-0.085
-0.025
-0.1
-0.17
-0.17
-0.11
-0.15
-0.175
-0.05
-0.145
-0.095
-0.12
-0.135
-0.145
-0.115
-0.09
-0.1
-0.165
-0.16
-0.085
-0.055
-0.085
-0.075
-0.12
-0.015
-0.045
-0.11
-0.045
-0.165
-0.145
-0.06
-0.065
-0.04
-0.13
-0.145
-0.065
-0.13
-0.065
0.01
-0.145
-0.12
-0.04
-0.1
-0.11
-0.065
-0.055
0.0
-0.11
-0.075
-0.08
-0.055
-0.075
-0.06
-0.1
-0.14
-0.115
0.03
0.06
-0.005
-0.045
-0.185
-0.195
-0.115
-0.105
0.02
-0.025
-0.095
-0.175
-0.115
-0.085
-0.165
-0.17
-0.14
-0.08
-0.13
-0.105
-0.095
-0.09
-0.135
-0.12
-0.165
-0.165
-0.13
-0.035
-0.11
-0.165
-0.16
-0.145
-0.16
-0.165
-0.125
-0.15
-0.16
-0.23
-0.13
-0.125
-0.105
0.01
-0.085
-0.215
-0.125
-0.125
-0.21
-0.27
-0.23
-0.17
-0.195
-0.11
-0.005
0.1
0.18
0.37
0.485
0.52
0.635
0.72
0.615
0.59
0.48
0.215
0.085
0.03
-0.005
-0.02
-0.145
-0.115
-0.1
-0.115
-0.08
-0.07
-0.135
-0.155
-0.12
-0.22
-0.215
-0.135
-0.14
-0.09
-0.28
-0.245
-0.1
-0.11
-0.13
-0.15
-0.09
-0.105
-0.1
-0.12
-0.12
-0.215
-0.085
-0.195
-0.15
-0.205
-0.17
-0.13
-0.07
-0.08
-0.215
-0.115
-0.145
-0.195
-0.2
-0.185
-0.145
-0.115
-0.145
-0.165
-0.16
-0.16
-0.135
-0.125
-0.135
-0.14
-0.1
-0.125
-0.075
-0.16
-0.255
-0.175
-0.1
-0.115
-0.175
-0.195
-0.165
-0.14
-0.085
-0.065
-0.075
-0.105
-0.085
-0.1
-0.18
-0.09
-0.21
-0.165
-0.11
-0.055
-0.145
-0.155
-0.16
-0.13
-0.16
-0.13
-0.13
-0.07
0.01
-0.085
-0.14
-0.02
-0.075
-0.11
-0.135
-0.12
-0.055
-0.07
-0.07
-0.02
-0.035
0.02
0.04
0.05
-0.035
0.06
0.065
-0.025
-0.09
-0.09
-0.01
-0.02
-0.025
0.03
-0.09
-0.02
0.0
-0.035
0.01
0.02
-0.01
-0.035
-0.145
-0.045
-0.065
0.015
-0.03
-0.065
-0.035
-0.055
0.06
-0.01
-0.105
-0.135
-0.075
-0.095
-0.175
-0.14
-0.115
-0.085
-0.13
0.07
-0.105
-0.14
-0.08
-0.105
-0.18
-0.12
-0.095
0.06
-0.11
-0.15
-0.335
-0.16
-0.18
-0.115
-0.075
-0.095
-0.095
-0.135
-0.175
-0.2
-0.15
-0.185
-0.09
-0.065
-0.115
-0.085
-0.22
-0.19
-0.13
-0.085
-0.18
-0.155
-0.03
0.03
-0.16
-0.165
-0.22
-0.18
-0.22
-0.175
-0.16
-0.17
-0.16
-0.175
-0.15
-0.11
-0.14
-0.215
-0.175
-0.145
-0.205
-0.135
-0.085
-0.15
-0.22
-0.19
-0.15
-0.095
-0.115
-0.11
-0.1
-0.1
-0.105
-0.115
-0.055
-0.115
-0.12
-0.125
-0.16
-0.13
-0.175
-0.195
-0.145
-0.15
-0.04
-0.04
-0.13
-0.12
-0.045
-0.09
-0.1
-0.23
-0.185
-0.105
-0.125
-0.095
-0.24
-0.24
-0.085
-0.1
-0.2
-0.18
-0.185
-0.125
-0.07
-0.105
-0.095
-0.11
-0.155
-0.1
-0.15
-0.145
-0.24
-0.19
-0.105
-0.125
-0.2
-0.085
-0.08
-0.21
-0.215
-0.1
-0.105
-0.075
-0.19
-0.14
-0.105
-0.19
-0.095
-0.125
-0.18
-0.085
-0.06
-0.15
-0.135
-0.14
-0.08
-0.185
-0.19
-0.095
-0.115
-0.13
-0.09
-0.02
-0.09
-0.045
-0.185
-0.125
-0.105
-0.06
-0.065
-0.15
-0.08
-0.11
-0.125
-0.185
-0.13
-0.095
-0.16
-0.155
-0.205
-0.17
-0.11
-0.015
0.035
-0.075
-0.145
-0.265
-0.195
-0.15
-0.265
-0.085
-0.125
-0.165
-0.175
-0.21
-0.22
-0.195
-0.17
-0.15
-0.165
-0.13
-0.135
-0.18
-0.13
-0.12
-0.22
-0.185
-0.15
-0.22
-0.175
-0.135
-0.18
-0.185
-0.125
-0.135
-0.23
-0.255
-0.305
-0.295
-0.26
-0.2
-0.075
0.01
0.095
0.25
0.345
0.48
0.545
0.615
0.58
0.5
0.54
0.375
0.155
0.025
0.07
-0.055
-0.145
-0.15
-0.18
-0.14
-0.18
-0.19
-0.13
-0.155
-0.145
-0.13
-0.245
-0.215
-0.245
-0.16
-0.145
-0.18
-0.175
-0.14
-0.225
-0.14
-0.205
-0.23
-0.24
-0.1
-0.21
-0.19
-0.185
-0.12
-0.09
-0.16
-0.155
-0.185
-0.28
-0.175
-0.225
-0.255
-0.21
-0.19
-0.145
-0.16
-0.24
-0.2
-0.275
-0.15
-0.155
-0.105
-0.145
-0.135
-0.105
-0.145
-0.215
-0.245
-0.25
-0.195
-0.185
-0.16
-0.165
-0.18
-0.12
-0.21
-0.18
-0.175
-0.135
-0.105
-0.105
-0.135
-0.17
-0.145
-0.205
-0.19
-0.2
-0.185
-0.165
-0.115
-0.165
-0.1
-0.11
-0.18
-0.16
-0.195
-0.2
-0.12
-0.115
-0.1
-0.17
-0.165
-0.115
-0.09
-0.155
-0.15
-0.05
-0.1
-0.06
-0.045
0.035
-0.035
-0.035
-0.08
-0.17
-0.02
0.155
-0.015
-0.13
0.045
-0.045
0.0
-0.03
-0.03
-0.04
-0.08
-0.1
-0.04
-0.045
0.03
0.04
-0.005
-0.115
-0.165
-0.055
-0.14
-0.105
-0.065
-0.045
-0.165
-0.175
-0.115
-0.085
-0.155
-0.2
-0.215
-0.195
0.01
-0.175
-0.065
-0.055
-0.025
-0.15
-0.225
-0.155
-0.15
-0.13
-0.215
-0.16
-0.145
-0.14
-0.16
-0.14
-0.14
-0.25
-0.24
-0.23
-0.115
-0.135
-0.145
-0.13
-0.18
-0.16
-0.2
-0.195
-0.195
-0.22
-0.175
-0.13
-0.115
-0.16
-0.18
-0.195
-0.175
-0.215
-0.28
-0.195
-0.165
-0.19
-0.185
-0.24
-0.25
-0.17
0.005
-0.18
-0.215
-0.185
-0.15
-0.22
-0.115
-0.17
-0.14
-0.085
-0.14
-0.27
-0.21
-0.215
-0.205
-0.17
-0.15
-0.055
-0.05
-0.125
-0.255
-0.21
-0.195
-0.215
-0.19
-0.175
-0.15
-0.175
-0.185
-0.15
-0.205
-0.16
-0.215
-0.27
-0.095
-0.105
-0.15
-0.185
-0.2
-0.14
-0.12
-0.175
-0.23
-0.13
-0.145
-0.08
-0.135
-0.125
-0.26
-0.145
-0.19
-0.205
-0.265
-0.13
-0.08
-0.105
-0.045
-0.23
-0.24
-0.14
-0.13
-0.165
-0.145
-0.165
-0.185
-0.13
-0.21
-0.055
-0.095
-0.1
-0.19
-0.125
-0.2
-0.19
-0.17
-0.165
-0.135
-0.17
-0.155
-0.17
-0.15
-0.14
-0.19
-0.135
-0.115
-0.145
-0.185
-0.08
-0.065
-0.15
-0.205
-0.145
-0.12
-0.175
-0.185
-0.16
-0.185
-0.135
-0.19
-0.175
-0.235
-0.25
-0.22
-0.21
-0.14
-0.2
-0.23
-0.17
-0.215
-0.27
-0.21
-0.095
-0.1
-0.22
-0.26
-0.225
-0.15
-0.18
-0.175
-0.225
-0.235
-0.27
-0.24
-0.155
-0.085
-0.19
-0.205
-0.21
-0.24
-0.31
-0.295
-0.345
-0.285
-0.135
-0.005
0.235
0.205
0.245
0.4
0.39
0.535
0.565
0.435
0.395
0.32
0.155
-0.015
-0.05
-0.15
-0.265
-0.205
-0.145
-0.05
-0.21
-0.255
-0.2
-0.235
-0.235
-0.21
-0.13
-0.19
-0.205
-0.11
-0.205
-0.19
-0.24
-0.21
-0.21
-0.19
-0.225
-0.26
-0.26
-0.28
-0.26
-0.19
-0.22
-0.205
-0.12
-0.195
-0.17
-0.235
-0.22
-0.3
-0.26
-0.22
-0.185
-0.21
-0.215
-0.23
-0.195
-0.185
-0.145
-0.19
-0.27
-0.205
-0.165
-0.285
-0.24
-0.265
-0.275
-0.225
-0.17
-0.21
-0.23
-0.12
-0.04
-0.165
-0.255
-0.1
-0.265
-0.245
-0.19
-0.105
-0.245
-0.175
-0.155
-0.205
-0.175
-0.18
-0.215
-0.225
-0.145
-0.195
-0.15
-0.225
-0.2
-0.11
-0.175
-0.135
-0.18
-0.09
-0.255
-0.26
-0.14
-0.13
-0.19
-0.155
-0.205
-0.09
-0.03
-0.08
-0.115
-0.135
-0.13
-0.14
-0.08
-0.065
-0.145
-0.095
-0.08
-0.065
-0.085
-0.065
-0.065
-0.045
-0.06
-0.165
-0.055
-0.02
-0.135
-0.04
0.02
-0.145
-0.135
-0.09
-0.09
-0.15
-0.13
-0.085
-0.08
-0.17
-0.2
-0.14
-0.17
-0.12
-0.135
-0.155
-0.085
-0.185
-0.235
-0.135
-0.175
-0.185
-0.17
-0.15
-0.165
-0.13
-0.115
-0.235
-0.15
-0.24
-0.295
-0.325
-0.215
-0.11
-0.135
-0.21
-0.2
-0.145
-0.265
-0.2
-0.17
-0.26
-0.275
-0.27
-0.195
-0.065
-0.17
-0.27
-0.225
-0.18
-0.225
-0.29
-0.185
-0.155
-0.195
-0.145
-0.31
-0.345
-0.285
-0.29
-0.17
-0.125
-0.145
-0.145
-0.235
-0.26
-0.2
-0.25
-0.25
-0.3
-0.2
-0.135
-0.165
-0.23
-0.225
-0.21
-0.175
-0.175
-0.18
-0.31
-0.225
-0.175
-0.125
-0.23
-0.155
-0.16
-0.165
-0.24
-0.195
-0.23
-0.25
-0.18
-0.175
-0.205
-0.155
-0.095
-0.22
-0.105
-0.195
-0.205
-0.32
-0.285
-0.25
-0.18
-0.12
-0.15
-0.145
-0.185
-0.19
-0.215
-0.205
-0.17
-0.12
-0.15
-0.195
-0.2
-0.11
-0.185
-0.23
-0.335
-0.175
-0.175
-0.095
-0.07
-0.215
-0.15
-0.235
-0.265
-0.265
-0.23
-0.175
-0.185
-0.17
-0.2
-0.17
-0.2
-0.18
-0.175
-0.165
-0.26
-0.155
-0.135
-0.17
-0.18
-0.285
-0.15
-0.165
-0.135
-0.16
-0.2
-0.275
-0.12
0.015
-0.23
-0.195
-0.135
-0.05
-0.14
-0.165
-0.18
-0.215
-0.135
-0.21
-0.29
-0.12
-0.245
-0.24
-0.21
-0.21
-0.21
-0.23
-0.215
-0.205
-0.155
-0.245
-0.2
-0.175
-0.24
-0.27
-0.195
-0.145
-0.195
-0.205
-0.235
-0.205
-0.24
-0.18
-0.175
-0.22
-0.265
-0.16
-0.17
-0.23
-0.335
-0.25
-0.285
-0.325
-0.215
-0.245
-0.15
-0.15
0.005
0.185
0.285
0.355
0.44
0.525
0.625
0.485
0.435
0.285
0.215
0.17
0.02
-0.185
-0.15
-0.21
-0.26
-0.315
-0.16
-0.105
-0.125
-0.15
-0.06
-0.27
-0.3
-0.25
-0.29
-0.235
-0.21
-0.165
-0.16
-0.135
-0.245
-0.27
-0.225
-0.29
-0.265
-0.12
-0.215
-0.25
-0.215
-0.15
-0.175
-0.21
-0.31
-0.27
-0.21
-0.15
-0.275
-0.235
-0.235
-0.12
-0.17
-0.15
-0.205
-0.23
-0.255
-0.215
-0.275
-0.26
-0.105
-0.15
-0.23
-0.27
-0.29
-0.26
-0.33
-0.24
-0.15
-0.235
-0.21
-0.15
-0.27
-0.215
-0.195
-0.215
-0.225
-0.145
-0.185
-0.28
-0.31
-0.12
-0.145
-0.17
-0.08
-0.185
-0.27
-0.175
-0.175
-0.24
-0.13
-0.18
-0.26
-0.175
-0.17
-0.15
-0.13
-0.075
-0.2
-0.21
-0.195
-0.215
-0.18
-0.135
-0.11
-0.12
-0.07
-0.055
-0.11
-0.13
-0.18
-0.13
0.02
-0.015
-0.155
-0.135
-0.13
-0.085
-0.055
0.02
-0.075
-0.105
-0.07
-0.05
-0.06
0.015
-0.095
-0.15
-0.15
-0.07
-0.115
-0.14
-0.17
-0.125
-0.07
-0.08
-0.085
-0.215
-0.13
-0.165
-0.15
-0.1
-0.25
-0.1
-0.165
-0.125
-0.11
-0.255
-0.235
-0.22
-0.14
-0.08
-0.255
-0.245
-0.24
-0.145
-0.15
-0.26
-0.245
-0.225
-0.195
-0.225
-0.17
-0.18
-0.245
-0.2
-0.115
-0.25
-0.23
-0.19
-0.22
-0.205
-0.245
-0.23
-0.245
-0.29
-0.3
-0.19
-0.23
-0.175
-0.2
-0.145
-0.275
-0.245
-0.205
-0.105
-0.17
-0.305
-0.28
-0.21
-0.245
-0.195
-0.255
-0.245
-0.255
-0.195
-0.3
-0.215
-0.23
-0.235
-0.19
-0.15
-0.165
-0.165
-0.135
-0.215
-0.28
-0.21
-0.31
-0.25
-0.135
-0.15
-0.2
-0.065
-0.145
-0.285
-0.255
-0.2
-0.16
-0.175
-0.25
-0.21
-0.13
-0.2
-0.17
-0.2
-0.2
-0.205
-0.225
-0.13
-0.225
-0.26
-0.245
-0.24
-0.185
-0.19
-0.195
-0.215
-0.25
-0.205
-0.19
-0.2
-0.17
-0.115
-0.075
-0.185
-0.265
-0.095
-0.225
-0.175
-0.175
-0.2
-0.14
-0.19
-0.205
-0.225
-0.215
-0.29
-0.14
-0.13
-0.23
-0.18
-0.11
-0.17
-0.12
-0.1
-0.1
-0.18
-0.225
-0.115
-0.12
-0.26
-0.14
-0.165
-0.13
-0.15
-0.235
-0.205
-0.105
-0.13
-0.195
-0.035
-0.08
-0.235
-0.19
-0.175
-0.2
-0.18
-0.205
-0.295
-0.24
-0.175
-0.16
-0.165
-0.195
-0.295
-0.23
-0.135
-0.195
-0.215
-0.155
-0.14
-0.225
-0.155
-0.165
-0.18
-0.305
-0.23
-0.225
-0.18
-0.1
-0.205
-0.26
-0.18
-0.18
-0.265
-0.24
-0.17
-0.135
-0.21
-0.265
-0.23
-0.31
-0.325
-0.255
-0.285
-0.34
-0.265
-0.115
-0.035
0.065
0.145
0.235
0.34
0.56
0.57
0.545
0.495
0.44
0.33
0.165
0.035
-0.145
-0.225
-0.17
-0.14
-0.23
-0.28
-0.085
-0.155
-0.305
-0.205
-0.01
-0.115
-0.27
-0.225
-0.225
-0.195
-0.215
-0.18
-0.215
-0.315
-0.26
-0.265
-0.27
-0.295
-0.275
-0.19
-0.225
-0.245
-0.24
-0.21
-0.245
-0.255
-0.245
-0.24
-0.19
-0.26
-0.31
-0.215
-0.08
-0.21
-0.245
-0.105
-0.15
-0.23
-0.19
-0.19
-0.265
-0.265
-0.245
-0.28
-0.125
-0.215
-0.215
-0.2
-0.25
-0.255
-0.22
-0.235
-0.13
-0.2
-0.155
-0.27
-0.275
-0.26
-0.225
-0.2
-0.25
-0.155
-0.205
-0.17
-0.085
-0.225
-0.23
-0.21
-0.23
-0.175
-0.175
-0.13
-0.19
-0.2
-0.135
-0.175
-0.24
-0.07
-0.075
-0.065
-0.225
-0.24
-0.125
-0.14
-0.15
-0.16
-0.15
-0.135
-0.03
-0.115
-0.1
-0.13
-0.125
-0.06
-0.065
-0.09
-0.095
-0.085
-0.12
-0.045
-0.005
-0.07
-0.095
-0.045
-0.09
0.03
0.045
-0.1
-0.08
-0.06
-0.01
-0.075
-0.085
-0.105
-0.205
-0.1
-0.14
-0.165
-0.08
-0.13
-0.05
0.005
-0.09
-0.17
-0.185
-0.145
-0.18
-0.175
-0.165
-0.19
-0.045
-0.235
-0.175
-0.285
-0.255
-0.205
-0.21
-0.155
-0.2
-0.16
-0.135
-0.035
-0.125
-0.345
-0.3
-0.22
-0.16
-0.175
-0.245
-0.18
-0.15
-0.08
-0.115
-0.14
-0.28
-0.265
-0.185
-0.245
-0.25
-0.21
-0.255
-0.18
-0.17
-0.265
-0.275
-0.21
-0.235
-0.19
-0.255
-0.155
-0.29
-0.25
-0.24
-0.145
-0.185
-0.15
-0.22
-0.26
-0.285
-0.19
-0.16
-0.21
-0.235
-0.285
-0.185
-0.165
-0.065
-0.24
-0.22
-0.175
-0.11
-0.205
-0.07
-0.22
-0.24
-0.185
-0.205
-0.22
-0.205
-0.25
-0.2
-0.23
-0.215
-0.2
-0.225
-0.18
-0.145
-0.195
-0.185
-0.13
-0.175
-0.195
-0.275
-0.2
-0.29
-0.2
-0.185
-0.285
-0.11
-0.065
-0.265
-0.195
-0.245
-0.18
-0.205
-0.215
-0.17
-0.215
-0.17
-0.195
-0.21
-0.185
-0.17
-0.135
-0.155
-0.23
-0.16
-0.245
-0.175
-0.165
-0.135
-0.215
-0.17
-0.165
-0.195
-0.12
-0.125
-0.14
-0.175
-0.18
-0.175
-0.23
-0.13
-0.125
-0.145
-0.15
-0.245
-0.215
-0.2
-0.09
-0.07
-0.13
-0.135
-0.18
-0.125
-0.175
-0.305
-0.225
-0.22
-0.155
-0.19
-0.14
-0.25
-0.245
-0.27
-0.26
-0.13
-0.175
-0.2
-0.175
-0.28
-0.285
-0.21
-0.23
-0.21
-0.21
-0.235
-0.15
-0.095
-0.205
-0.185
-0.16
-0.15
-0.15
-0.2
-0.355
-0.305
-0.29
-0.175
-0.23
-0.205
-0.15
-0.205
-0.25
-0.2
-0.285
-0.34
-0.385
-0.265
-0.295
-0.325
-0.27
-0.155
-0.035
0.075
0.17
0.26
0.395
0.515
0.585
0.64
0.55
0.435
0.32
0.175
0.06
-0.025
-0.085
-0.165
-0.175
-0.24
-0.35
-0.16
-0.01
0.025
-0.305
-0.28
-0.205
-0.19
-0.21
-0.27
-0.25
-0.155
-0.22
-0.28
-0.29
-0.285
-0.285
-0.26
-0.245
-0.22
-0.255
-0.22
-0.23
-0.185
-0.255
-0.21
-0.21
-0.2
-0.155
-0.215
-0.22
-0.24
-0.285
-0.23
-0.195
-0.195
-0.125
-0.215
-0.27
-0.2
-0.21
-0.265
-0.195
-0.265
-0.18
-0.28
-0.24
-0.125
-0.235
-0.295
-0.225
-0.205
-0.24
-0.285
-0.22
-0.235
-0.24
-0.195
-0.23
-0.175
-0.21
-0.195
-0.255
-0.215
-0.195
-0.15
-0.145
-0.175
-0.15
-0.205
-0.24
-0.2
-0.17
-0.125
-0.145
-0.2
-0.21
-0.175
-0.07
-0.155
-0.165
-0.11
-0.175
-0.155
-0.225
-0.07
-0.16
-0.145
-0.06
-0.055
-0.08
-0.185
-0.12
-0.12
-0.085
-0.11
-0.04
-0.045
-0.115
-0.085
-0.06
-0.025
-0.015
-0.1
-0.075
0.01
-0.075
-0.045
-0.135
-0.065
-0.035
-0.08
-0.06
-0.08
-0.05
0.0
-0.15
-0.135
-0.11
-0.17
-0.195
-0.155
-0.14
-0.155
-0.22
-0.135
-0.165
-0.14
-0.185
-0.16
-0.085
-0.185
-0.2
-0.195
-0.205
-0.195
-0.155
-0.145
-0.185
-0.135
-0.22
-0.21
-0.28
-0.25
-0.19
-0.215
-0.16
-0.125
-0.235
-0.2
-0.18
-0.205
-0.175
-0.18
-0.315
-0.24
-0.095
-0.19
-0.195
-0.24
-0.22
-0.285
-0.265
-0.12
-0.195
-0.23
-0.24
-0.115
-0.265
-0.315
-0.2
-0.165
-0.18
-0.285
-0.3
-0.16
-0.17
-0.15
-0.225
-0.31
-0.255
-0.24
-0.07
-0.26
-0.27
-0.185
-0.215
-0.16
-0.145
-0.24
-0.275
-0.25
-0.16
-0.22
-0.185
-0.225
-0.29
-0.19
-0.13
-0.17
-0.22
-0.24
-0.245
-0.12
-0.155
-0.195
-0.16
-0.195
-0.115
-0.13
-0.23
-0.265
-0.21
-0.22
-0.255
-0.28
-0.105
-0.19
-0.105
-0.16
-0.215
-0.215
-0.19
-0.155
-0.215
-0.24
-0.22
-0.275
-0.245
-0.09
-0.16
-0.215
-0.26
-0.17
-0.12
-0.095
-0.135
-0.155
-0.235
-0.145
-0.205
-0.235
-0.21
-0.195
-0.24
-0.115
-0.155
-0.225
-0.22
-0.05
-0.22
-0.17
-0.175
-0.11
-0.135
-0.175
-0.165
-0.15
-0.155
-0.21
-0.19
-0.16
-0.17
-0.205
-0.105
-0.19
-0.215
-0.19
-0.205
-0.205
-0.19
-0.285
-0.26
-0.185
-0.18
-0.255
-0.195
-0.215
-0.245
-0.2
-0.185
-0.225
-0.24
-0.245
-0.21
-0.215
-0.255
-0.215
-0.215
-0.185
-0.155
-0.25
-0.27
-0.23
-0.23
-0.155
-0.175
-0.285
-0.085
-0.065
-0.265
-0.265
-0.25
-0.185
-0.23
-0.27
-0.28
-0.19
-0.27
-0.395
-0.435
-0.39
-0.205
-0.11
-0.08
0.12
0.13
0.245
0.36
0.48
0.515
0.615
0.515
0.38
0.3
0.155
0.035
-0.05
-0.04
-0.17
-0.175
-0.23
-0.165
-0.245
-0.165
-0.155
-0.225
-0.165
-0.22
-0.24
-0.235
-0.255
-0.255
-0.24
-0.2
-0.255
-0.27
-0.255
-0.315
-0.26
-0.18
-0.285
-0.31
-0.29
-0.21
-0.285
-0.29
-0.18
-0.14
-0.19
-0.14
-0.2
-0.19
-0.2
-0.275
-0.295
-0.295
-0.31
-0.265
-0.195
-0.21
-0.155
-0.26
-0.285
-0.22
-0.275
-0.195
-0.255
-0.22
-0.205
-0.115
-0.305
-0.29
-0.175
-0.195
-0.19
-0.245
-0.285
-0.285
-0.205
-0.3
-0.365
-0.2
-0.21
-0.27
-0.155
-0.11
-0.155
-0.195
-0.15
-0.29
-0.235
-0.195
-0.3
-0.24
-0.245
-0.09
-0.18
-0.245
-0.1
-0.2
-0.195
-0.22
-0.185
-0.09
-0.135
-0.1
-0.095
-0.15
-0.17
-0.155
-0.12
-0.17
-0.13
-0.08
-0.115
-0.14
-0.19
-0.08
-0.025
-0.125
-0.175
-0.105
-0.045
-0.095
-0.04
-0.03
0.03
-0.015
-0.105
-0.11
-0.115
-0.07
-0.125
-0.035
-0.105
-0.15
-0.15
-0.065
-0.07
-0.135
-0.115
-0.105
-0.14
-0.155
-0.08
-0.165
-0.175
-0.215
-0.185
-0.22
-0.07
-0.22
-0.23
-0.18
-0.19
-0.185
-0.165
-0.205
-0.21
-0.21
-0.3
-0.285
-0.185
-0.24
-0.24
-0.215
-0.25
-0.2
-0.195
-0.24
-0.265
-0.21
-0.185
-0.14
-0.23
-0.235
-0.125
-0.25
-0.21
-0.245
-0.255
-0.24
-0.225
-0.16
-0.215
-0.275
-0.22
-0.205
-0.165
-0.28
-0.19
-0.265
-0.25
-0.235
-0.22
-0.18
-0.2
-0.27
-0.355
-0.25
-0.21
-0.21
-0.16
-0.135
-0.225
-0.22
-0.23
-0.25
-0.255
-0.225
-0.2
-0.19
-0.25
-0.265
-0.235
-0.155
-0.115
-0.185
-0.28
-0.195
-0.115
-0.19
-0.27
-0.27
-0.22
-0.145
-0.05
-0.315
-0.21
-0.195
-0.24
-0.235
-0.25
-0.18
-0.22
-0.215
-0.18
-0.21
-0.255
-0.2
-0.225
-0.195
-0.23
-0.185
-0.07
-0.28
-0.19
-0.195
-0.285
-0.25
-0.24
-0.26
-0.185
-0.15
-0.205
-0.215
-0.24
-0.26
-0.12
-0.295
-0.325
-0.29
-0.26
-0.195
-0.21
-0.195
-0.155
-0.2
-0.125
-0.1
-0.135
-0.175
-0.215
-0.245
-0.15
-0.195
-0.16
-0.1
-0.115
-0.145
-0.185
-0.24
-0.14
-0.195
-0.245
-0.25
-0.16
-0.245
-0.16
-0.25
-0.22
-0.265
-0.16
-0.135
-0.125
-0.235
-0.27
-0.285
-0.37
-0.28
-0.28
-0.27
-0.15
-0.195
-0.225
-0.105
-0.145
-0.28
-0.235
-0.2
-0.285
-0.25
-0.3
-0.325
-0.195
-0.255
-0.185
-0.25
-0.305
-0.27
-0.245
-0.28
-0.185
-0.18
-0.145
-0.24
-0.285
-0.335
-0.305
-0.36
-0.295
-0.24
-0.205
-0.07
-0.06
0.115
0.26
0.275
0.44
0.55
0.52
0.53
0.465
0.4
0.125
0.035
-0.04
-0.21
-0.17
-0.11
-0.16
-0.195
-0.185
-0.205
-0.265
-0.21
-0.095
-0.075
-0.285
-0.26
-0.265
-0.255
-0.21
-0.215
-0.29
-0.2
-0.265
-0.25
-0.26
-0.255
-0.24
-0.24
-0.18
-0.275
-0.195
-0.195
-0.17
-0.29
-0.28
-0.265
-0.25
-0.285
-0.24
-0.18
-0.205
-0.175
-0.215
-0.295
-0.3
-0.245
-0.225
-0.245
-0.205
-0.205
-0.21
-0.24
-0.17
-0.115
-0.225
-0.27
-0.195
-0.275
-0.19
-0.195
-0.175
-0.195
-0.29
-0.22
-0.18
-0.2
-0.235
-0.215
-0.2
-0.14
-0.205
-0.16
-0.185
-0.15
-0.165
-0.24
-0.26
-0.295
-0.195
-0.115
-0.215
-0.22
-0.21
-0.15
-0.23
-0.23
-0.165
-0.13
-0.205
-0.09
-0.135
-0.1
-0.135
-0.105
-0.14
-0.165
-0.15
-0.08
-0.11
-0.05
-0.09
-0.055
-0.115
-0.16
-0.155
-0.11
-0.095
-0.055
-0.07
-0.025
-0.03
0.02
-0.005
0.0
-0.015
-0.01
-0.045
-0.055
-0.07
-0.17
-0.125
-0.07
-0.11
-0.135
-0.13
-0.205
-0.105
-0.085
-0.165
-0.105
-0.195
-0.05
-0.03
-0.13
-0.15
-0.19
-0.185
-0.15
-0.075
-0.11
-0.14
-0.255
-0.3
-0.245
-0.11
-0.16
-0.195
-0.195
-0.165
-0.17
-0.165
-0.13
-0.135
-0.17
-0.175
-0.18
-0.235
-0.19
-0.155
-0.235
-0.2
-0.195
-0.175
-0.22
-0.315
-0.28
-0.155
-0.225
-0.08
-0.135
-0.06
-0.23
-0.255
-0.285
-0.155
-0.18
-0.17
-0.145
-0.19
-0.11
-0.16
-0.17
-0.255
-0.165
-0.205
-0.295
-0.21
-0.095
-0.175
-0.095
-0.12
-0.18
-0.265
-0.21
-0.25
-0.18
-0.2
-0.195
-0.16
-0.18
-0.11
-0.13
-0.22
-0.2
-0.2
-0.255
-0.18
-0.12
-0.165
-0.095
-0.115
-0.13
-0.205
-0.165
-0.165
-0.21
-0.08
-0.11
-0.2
-0.2
-0.09
-0.165
-0.11
-0.135
-0.165
-0.205
-0.215
-0.17
-0.17
-0.125
-0.125
-0.15
-0.165
-0.085
-0.11
-0.23
-0.18
-0.13
-0.19
-0.05
-0.165
-0.195
-0.255
-0.205
-0.22
-0.165
-0.07
-0.17
-0.13
-0.195
-0.14
-0.165
-0.14
-0.145
-0.15
-0.175
-0.19
-0.105
-0.05
-0.085
-0.225
-0.18
-0.125
-0.12
-0.12
-0.08
-0.065
-0.13
-0.1
-0.01
-0.135
-0.13
-0.155
-0.145
-0.145
-0.08
-0.11
-0.195
-0.14
-0.165
-0.105
-0.2
-0.2
-0.16
-0.19
-0.18
-0.08
-0.085
-0.19
-0.19
-0.115
-0.07
-0.135
-0.175
-0.16
-0.115
-0.2
-0.245
-0.25
-0.175
-0.09
-0.13
-0.15
-0.11
-0.24
-0.15
-0.19
-0.115
-0.08
-0.12
-0.175
-0.215
-0.165
-0.02
-0.175
-0.27
-0.315
-0.115
-0.075
-0.14
-0.18
-0.23
-0.285
-0.265
-0.23
-0.13
-0.07
0.03
0.1
0.21
0.395
0.395
0.51
0.585
0.68
0.63
0.475
0.43
0.25
0.12
0.065
-0.05
-0.125
-0.1
-0.075
-0.085
-0.16
-0.18
-0.09
-0.08
-0.12
-0.275
-0.155
-0.085
-0.095
-0.19
-0.125
-0.145
-0.075
-0.175
-0.175
-0.23
-0.155
-0.085
-0.185
-0.205
-0.12
-0.19
-0.2
-0.17
-0.115
-0.085
-0.185
-0.22
-0.095
-0.09
-0.145
-0.08
-0.1
-0.115
-0.1
-0.16
-0.305
-0.155
-0.165
-0.13
-0.075
-0.22
-0.2
-0.105
-0.175
-0.195
-0.07
-0.175
-0.055
-0.03
-0.05
-0.215
-0.19
-0.135
-0.16
-0.155
-0.16
-0.08
-0.035
-0.11
-0.175
-0.13
-0.14
-0.145
-0.12
-0.105
-0.155
-0.095
-0.105
-0.05
-0.065
-0.075
-0.155
-0.13
-0.07
-0.095
-0.07
-0.08
-0.105
-0.115
-0.065
-0.04
-0.08
-0.025
-0.025
-0.035
-0.045
-0.12
-0.06
0.01
0.02
-0.005
-0.005
0.015
0.03
-0.035
0.005
0.09
0.055
-0.005
-0.03
0.09
0.0
0.04
-0.015
0.035
0.03
0.085
-0.005
0.055
-0.01
0.075
0.075
0.07
0.04
-0.025
-0.01
-0.015
-0.08
-0.005
0.055
-0.005
-0.07
-0.075
-0.05
-0.055
-0.085
-0.09
-0.08
-0.06
-0.07
-0.085
-0.065
-0.07
-0.025
-0.125
-0.19
-0.145
-0.055
-0.03
-0.025
-0.035
-0.045
-0.105
-0.06
-0.145
-0.065
-0.125
-0.09
-0.075
-0.145
-0.105
-0.045
-0.035
-0.085
-0.17
-0.065
-0.07
-0.095
0.09
-0.055
-0.075
-0.14
-0.15
-0.13
-0.105
-0.05
-0.095
-0.07
-0.1
-0.115
-0.185
-0.1
-0.09
-0.04
-0.005
-0.1
-0.09
-0.055
-0.115
-0.14
-0.065
-0.105
-0.1
-0.04
-0.125
-0.175
-0.14
-0.045
-0.045
-0.08
0.0
-0.04
-0.015
-0.045
-0.045
-0.045
-0.075
0.0
-0.065
-0.115
-0.14
0.06
-0.06
-0.145
-0.12
0.005
-0.05
-0.005
-0.075
-0.105
-0.115
-0.08
-0.085
-0.04
-0.035
-0.085
-0.04
-0.02
-0.06
-0.065
-0.07
-0.1
-0.09
-0.065
-0.025
-0.025
-0.15
0.085
0.0
-0.025
-0.06
-0.075
-0.03
-0.08
-0.035
0.005
-0.125
-0.09
-0.065
-0.045
-0.055
0.0
-0.06
-0.05
0.01
-0.01
-0.01
-0.05
-0.015
0.06
-0.035
-0.02
-0.095
-0.055
0.02
-0.045
0.035
0.01
0.05
-0.08
-0.095
0.065
-0.01
-0.01
-0.085
-0.015
0.055
0.03
0.085
-0.045
-0.02
0.045
-0.07
-0.015
0.035
-0.015
0.005
0.03
0.0
-0.03
-0.05
-0.03
-0.01
-0.06
-0.03
-0.07
-0.075
-0.045
-0.085
-0.1
0.08
0.0
-0.025
-0.04
-0.05
-0.11
-0.07
-0.07
-0.16
0.11
0.075
-0.005
0.04
-0.065
0.025
0.045
-0.07
-0.035
-0.07
0.0
-0.08
-0.05
-0.06
-0.06
-0.065
-0.045
-0.02
-0.075
-0.12
-0.095
-0.165
-0.13
-0.03
-0.09
0.075
0.165
0.32
0.4
0.545
0.63
0.62
0.72
0.805
0.69
0.61
0.53
0.35
0.185
0.115
0.01
0.01
-0.005
0.015
-0.035
0.045
0.1
-0.005
-0.06
-0.03
0.045
0.07
-0.075
-0.08
-0.105
-0.09
-0.105
-0.06
-0.01
-0.035
-0.07
-0.045
-0.02
-0.075
-0.03
-0.04
-0.04
0.055
0.04
-0.105
0.015
0.05
0.035
-0.11
-0.035
-0.055
-0.1
0.0
0.1
0.075
0.015
-0.03
-0.085
-0.055
-0.075
0.075
-0.055
0.025
0.035
0.03
0.055
-0.12
-0.06
-0.015
-0.06
-0.06
0.05
0.0
-0.005
0.075
0.005
-0.045
-0.065
-0.035
0.02
0.025
-0.045
0.035
-0.025
-0.115
0.025
-0.005
-0.01
0.05
0.01
0.04
-0.035
-0.07
0.035
0.065
0.07
0.04
-0.015
0.035
0.05
0.135
0.07
0.02
0.07
0.105
0.075
0.215
0.17
0.07
0.06
0.06
0.045
0.17
0.175
0.095
0.14
0.085
0.08
0.175
0.175
0.175
0.15
0.16
0.165
0.095
0.175
0.11
0.225
0.14
0.095
0.115
0.065
0.13
0.135
0.24
0.165
0.055
0.12
0.11
0.1
0.12
0.13
0.12
0.085
0.05
0.09
-0.125
0.005
0.095
0.07
-0.045
-0.05
0.04
0.095
0.145
0.015
0.095
0.01
0.03
0.03
-0.02
-0.015
0.09
0.085
0.075
0.015
-0.01
-0.045
0.085
0.025
-0.035
0.015
0.0
0.03
0.045
0.075
0.01
0.05
0.03
0.035
-0.01
0.025
0.2
-0.005
0.01
0.01
-0.015
-0.05
0.025
0.025
-0.08
-0.02
0.015
-0.02
0.125
0.01
-0.025
-0.01
0.06
0.105
-0.035
-0.005
0.09
0.035
-0.04
0.03
0.08
0.025
0.075
0.055
-0.02
0.01
0.01
0.035
0.075
0.11
0.04
0.01
0.125
-0.005
-0.03
-0.05
0.025
0.105
-0.03
-0.025
0.02
0.155
0.07
-0.05
0.005
0.115
0.085
0.055
-0.025
0.105
0.03
-0.035
0.095
0.02
-0.03
0.055
0.04
0.03
0.05
0.12
0.035
0.09
0.03
0.04
0.015
0.075
0.105
0.015
-0.02
0.0
-0.02
0.08
0.07
0.02
0.065
0.045
0.005
0.085
0.05
0.07
-0.005
0.03
0.045
0.09
0.02
0.085
0.105
0.125
0.01
-0.005
0.04
0.045
0.145
0.08
0.075
-0.045
0.015
0.1
0.255
0.085
0.095
0.11
0.065
0.09
0.12
0.145
0.075
0.02
0.045
0.085
0.115
0.03
0.05
0.06
0.07
0.145
-0.01
0.075
0.07
0.05
0.04
0.085
0.005
0.005
0.02
0.04
0.05
0.05
0.14
0.02
-0.015
0.015
0.03
0.075
0.05
0.055
0.05
0.06
0.08
-0.015
0.02
0.04
0.06
-0.015
0.035
0.095
0.03
0.05
0.045
0.04
-0.005
-0.02
0.025
0.055
0.05
-0.015
-0.005
0.045
-0.005
-0.065
-0.04
0.035
0.045
0.18
0.395
0.495
0.44
0.515
0.62
0.785
0.815
0.905
0.81
0.75
0.57
0.315
0.15
0.125
0.185
0.11
0.03
0.125
-0.015
0.0
0.06
0.06
0.025
0.095
0.04
-0.005
0.06
-0.03
0.0
0.0
0.065
0.045
0.005
-0.065
-0.02
0.0
-0.04
-0.045
-0.015
0.015
0.01
-0.005
0.015
0.03
0.045
-0.025
0.01
0.06
-0.135
0.045
-0.01
0.035
0.0
0.045
-0.025
-0.01
0.04
0.06
0.005
-0.005
0.03
0.09
-0.015
0.045
0.085
0.025
0.075
0.03
0.025
0.09
0.075
0.035
-0.04
0.0
0.065
0.135
0.045
-0.05
0.02
0.04
0.025
0.0
0.125
0.03
-0.02
0.025
-0.035
0.02
0.125
0.015
0.125
0.0
0.06
0.14
0.01
-0.02
0.055
-0.015
0.11
0.06
0.16
0.215
0.055
0.07
0.16
0.24
0.085
0.17
0.17
0.135
0.19
0.15
0.11
0.14
0.185
0.22
0.25
0.195
0.165
0.2
0.215
0.165
0.145
0.19
0.175
0.15
0.165
0.12
0.18
0.19
0.175
0.195
0.21
0.135
0.13
0.045
0.14
0.16
0.13
0.045
0.135
0.075
0.09
0.095
0.09
0.175
0.14
0.06
0.1
0.105
0.155
0.09
0.105
0.045
0.065
0.095
0.17
0.065
0.035
0.0
0.02
-0.005
0.06
0.09
0.025
0.01
0.01
0.055
0.06
0.025
0.07
0.015
0.03
0.05
-0.04
0.03
-0.02
0.1
0.065
0.065
0.08
0.005
-0.01
0.08
0.04
-0.025
-0.005
0.08
0.015
0.045
0.12
-0.035
-0.005
0.045
0.02
0.0
0.075
0.035
-0.06
0.145
0.055
0.015
-0.005
0.115
-0.02
0.0
0.01
0.02
-0.11
0.015
0.095
0.075
0.09
0.115
0.115
0.065
-0.005
-0.05
-0.01
0.06
0.01
0.1
0.09
0.1
-0.005
-0.025
0.13
0.05
0.08
0.125
0.04
0.065
0.01
-0.005
0.04
0.07
0.04
0.09
0.035
0.045
0.05
0.02
0.11
0.045
0.03
0.085
0.005
0.04
0.025
0.025
0.0
0.045
0.09
0.075
0.055
-0.025
-0.06
-0.06
0.125
0.1
-0.015
0.03
0.1
0.16
0.035
0.105
0.06
0.08
0.065
0.065
0.045
0.07
0.135
0.095
0.04
-0.02
0.125
0.15
0.05
0.04
0.04
0.12
0.085
0.18
0.095
0.0
0.005
0.08
0.12
0.145
0.205
0.1
-0.02
0.05
0.11
0.1
0.055
-0.01
0.1
0.185
0.06
-0.055
0.01
0.015
0.095
0.065
0.09
0.03
-0.025
-0.01
0.065
0.035
0.04
0.03
0.005
0.03
-0.02
0.0
0.055
-0.06
0.015
0.065
0.015
0.045
0.03
0.055
-0.04
-0.03
0.11
0.02
0.02
0.065
0.015
0.11
0.02
-0.035
-0.06
-0.045
-0.035
-0.01
-0.135
-0.045
0.085
0.125
0.14
0.22
0.325
0.5
0.615
0.675
0.76
0.805
0.88
0.74
0.46
0.355
0.27
0.18
0.155
0.09
0.07
0.015
0.1
0.045
0.06
-0.015
0.045
0.09
0.085
0.01
0.01
0.04
-0.075
-0.015
-0.01
-0.02
-0.045
0.095
0.08
0.085
-0.105
-0.055
-0.025
0.01
0.025
-0.01
0.06
0.045
0.055
0.065
-0.05
-0.05
0.02
-0.08
-0.04
0.0
0.065
0.095
0.06
-0.06
-0.035
0.075
0.015
-0.1
-0.03
-0.005
0.005
0.065
0.01
-0.005
0.03
0.0
0.105
0.045
-0.005
0.1
0.025
0.0
0.06
0.105
0.065
-0.015
0.035
0.1
0.065
0.03
0.005
0.05
0.035
0.04
0.045
0.015
0.04
0.065
-0.055
0.09
0.07
-0.015
0.115
0.02
0.02
0.075
0.045
-0.005
0.055
0.14
0.035
0.08
0.11
0.04
0.255
0.18
0.09
-0.01
0.105
0.165
0.22
0.225
0.225
0.27
0.095
0.145
0.175
0.24
0.185
0.125
0.18
0.25
0.265
0.26
0.105
0.095
0.155
0.07
0.04
0.075
0.14
0.215
0.17
0.105
0.195
0.11
0.135
0.015
0.12
0.07
0.08
0.155
0.075
0.145
0.19
0.045
0.0
0.07
0.065
0.005
0.07
0.09
0.03
-0.02
0.025
0.02
0.035
0.02
0.045
0.095
0.04
-0.08
-0.06
0.04
0.045
0.03
0.005
0.02
0.035
0.03
-0.06
0.12
0.035
0.025
-0.025
-0.01
0.02
0.03
0.005
-0.045
0.0
-0.01
0.075
0.03
-0.005
-0.03
-0.005
-0.04
0.1
0.01
-0.075
0.005
0.075
-0.005
-0.08
-0.06
0.015
-0.015
0.01
-0.01
0.045
0.05
0.105
0.07
0.06
0.045
-0.03
-0.015
0.0
0.005
0.1
0.07
0.0
-0.005
-0.025
-0.005
0.045
0.03
0.185
0.175
-0.015
0.04
0.09
0.025
-0.03
0.03
0.035
-0.045
-0.075
-0.045
0.025
0.045
0.015
0.045
0.055
0.005
0.02
0.005
0.025
-0.015
0.08
0.045
-0.01
0.025
0.02
0.01
0.02
0.0
0.005
0.055
0.135
0.035
-0.035
0.085
0.125
0.105
-0.075
0.05
-0.025
0.1
0.085
0.065
-0.07
0.005
0.01
0.125
0.06
0.08
0.055
0.035
0.1
0.09
0.05
0.03
-0.02
0.04
0.04
0.12
0.07
0.0
-0.015
0.115
0.085
0.115
0.07
0.05
0.04
0.08
0.035
-0.055
0.035
0.02
0.045
-0.055
-0.01
0.025
-0.01
0.0
0.015
0.005
-0.055
0.03
0.0
0.01
0.05
0.075
-0.02
0.045
0.035
-0.07
0.045
-0.025
0.06
0.045
0.02
-0.08
-0.085
0.04
0.025
0.015
0.105
0.055
-0.03
0.015
-0.08
-0.055
0.01
0.005
-0.03
-0.07
0.01
-0.1
-0.15
-0.005
0.115
0.05
0.245
0.32
0.39
0.515
0.605
0.72
0.675
0.7
0.675
0.505
0.335
0.27
0.17
0.035
0.06
0.065
0.02
-0.005
0.045
0.155
0.03
-0.06
-0.1
-0.01
0.015
0.055
0.075
0.055
0.1
0.045
-0.06
0.055
-0.05
-0.125
-0.025
-0.015
0.015
-0.055
-0.01
-0.05
-0.025
-0.055
-0.12
-0.085
-0.005
-0.05
-0.055
0.0
-0.045
-0.03
0.055
-0.04
-0.045
-0.005
-0.07
-0.06
-0.05
-0.01
-0.02
0.045
0.035
0.095
-0.14
-0.09
-0.06
0.06
0.005
-0.04
-0.05
-0.03
-0.02
0.005
-0.07
-0.095
0.015
0.01
0.105
0.005
-0.07
-0.02
0.035
-0.04
-0.03
0.04
0.0
-0.05
0.0
0.055
0.06
-0.015
0.07
-0.025
0.06
0.02
0.03
0.09
0.06
-0.02
0.0
0.08
0.065
0.035
0.015
0.04
0.075
0.145
0.05
0.11
0.095
0.14
0.11
0.135
0.1
0.115
0.09
0.075
0.175
0.13
0.12
0.105
0.125
0.215
0.145
0.02
0.165
0.15
0.07
0.065
0.04
0.145
0.13
0.135
0.155
0.075
0.0
0.06
0.12
0.1
0.18
0.09
0.015
0.075
0.11
0.01
0.0
0.045
0.025
-0.04
0.015
0.125
-0.015
-0.025
0.005
-0.02
0.02
0.06
0.015
0.015
0.005
0.065
0.03
-0.06
-0.13
-0.02
0.005
-0.005
0.01
0.005
-0.05
-0.02
0.055
-0.1
0.0
0.04
-0.035
-0.03
0.02
0.005
-0.01
-0.015
-0.06
-0.005
0.01
-0.005
0.01
0.025
-0.015
-0.06
-0.025
0.0
0.01
0.005
-0.11
-0.04
0.06
0.01
-0.1
-0.075
0.015
0.085
0.055
-0.065
-0.065
0.02
0.015
0.06
-0.075
-0.005
0.125
0.005
-0.02
0.0
-0.015
0.02
-0.005
-0.01
-0.055
-0.025
0.005
-0.045
-0.065
0.085
0.06
0.03
0.02
0.025
-0.055
0.075
0.025
0.075
0.12
0.06
-0.06
-0.01
0.03
0.06
0.065
-0.035
-0.05
0.035
0.055
0.075
-0.01
0.05
0.035
0.055
0.05
-0.035
0.045
0.11
-0.025
-0.09
0.0
-0.005
-0.025
-0.015
-0.1
-0.02
-0.145
-0.04
0.12
0.045
0.05
0.05
0.145
0.12
0.095
0.075
0.07
0.055
0.015
-0.07
0.075
0.145
-0.01
0.005
0.04
0.1
0.025
-0.045
-0.035
0.005
0.03
0.035
0.05
-0.01
-0.03
-0.1
0.04
0.11
-0.075
-0.1
0.025
0.075
-0.035
-0.065
0.02
-0.045
-0.045
-0.04
-0.145
-0.11
-0.095
-0.115
0.03
0.04
0.025
0.095
0.01
0.025
-0.13
-0.075
-0.01
0.01
0.06
-0.035
-0.08
-0.07
-0.07
-0.03
0.03
-0.01
-0.085
-0.075
0.085
0.0
0.095
0.12
0.275
0.43
0.5
0.54
0.615
0.68
0.78
0.645
0.57
0.32
0.22
0.19
0.14
0.03
0.015
0.02
0.045
0.05
0.08
-0.015
0.015
-0.04
-0.125
-0.05
0.08
-0.06
-0.025
0.085
-0.095
-0.1
0.005
-0.03
-0.035
-0.085
0.0
-0.035
-0.13
-0.08
-0.02
0.005
-0.095
-0.16
-0.16
-0.025
0.04
-0.015
-0.08
-0.07
-0.08
-0.035
-0.055
-0.125
-0.08
-0.015
-0.075
-0.04
-0.1
-0.03
-0.08
-0.095
0.04
0.035
-0.005
-0.085
-0.075
-0.01
-0.075
-0.05
-0.025
-0.07
-0.03
-0.03
-0.065
-0.01
0.015
0.055
-0.075
0.02
0.005
-0.025
0.0
-0.09
-0.11
-0.035
-0.01
-0.075
-0.025
0.05
-0.065
-0.03
-0.02
-0.035
-0.14
-0.18
0.105
0.03
0.155
0.125
0.02
-0.035
0.05
-0.01
0.025
-0.015
-0.05
0.0
0.1
0.145
0.065
0.0
0.125
0.15
0.095
0.02
-0.025
0.165
0.125
0.14
0.115
-0.01
0.03
0.03
0.03
0.065
0.115
0.07
0.02
0.09
0.045
-0.005
0.12
-0.02
-0.05
0.13
0.13
0.155
0.025
0.04
0.03
0.0
-0.065
0.02
-0.025
0.015
0.08
0.0
0.02
0.025
-0.085
-0.035
-0.015
0.06
0.07
-0.02
-0.015
-0.08
-0.075
-0.06
-0.03
0.015
-0.02
-0.07
-0.075
-0.03
-0.01
-0.045
-0.035
0.02
-0.135
-0.08
-0.03
-0.085
-0.09
-0.035
-0.11
-0.085
-0.01
0.015
-0.065
-0.09
-0.155
-0.06
-0.08
-0.175
0.025
-0.015
0.035
0.0
-0.13
-0.025
-0.005
0.05
-0.06
0.0
-0.04
-0.07
0.07
-0.08
-0.16
-0.03
-0.005
-0.035
-0.095
-0.065
-0.015
-0.025
-0.01
-0.025
0.005
-0.08
-0.085
-0.035
-0.06
0.03
-0.03
-0.05
0.0
0.025
-0.09
-0.06
-0.065
-0.03
0.08
0.035
-0.015
-0.055
-0.12
-0.025
-0.025
-0.03
-0.085
0.035
0.03
0.0
-0.035
0.035
0.035
-0.095
0.025
-0.005
0.035
0.02
-0.035
0.055
0.08
-0.055
-0.04
-0.005
0.07
-0.01
-0.01
0.03
0.025
-0.05
-0.065
0.005
0.025
-0.065
0.125
0.025
0.035
-0.005
0.03
0.03
0.01
0.055
-0.02
0.045
-0.05
-0.03
-0.025
-0.11
-0.1
0.08
0.065
-0.16
-0.065
0.07
0.025
-0.055
-0.05
-0.075
-0.05
0.06
0.01
-0.035
-0.045
-0.085
-0.01
-0.07
-0.03
-0.035
-0.075
-0.06
0.0
0.04
-0.115
-0.13
0.015
-0.15
-0.055
-0.045
-0.05
-0.05
-0.115
-0.22
-0.17
-0.185
-0.17
-0.105
-0.135
0.1
0.275
0.375
0.42
0.595
0.665
0.775
0.815
0.765
0.72
0.58
0.435
0.205
0.17
0.17
0.025
0.01
0.045
-0.12
-0.025
-0.055
0.01
-0.025
-0.03
0.04
-0.015
-0.045
-0.125
-0.025
-0.075
-0.07
-0.035
0.0
-0.03
-0.19
-0.15
0.005
-0.055
-0.04
-0.115
-0.135
-0.105
-0.02
-0.02
0.025
-0.035
-0.05
-0.115
-0.065
-0.065
-0.005
0.09
-0.09
-0.065
-0.085
-0.035
-0.085
0.015
-0.025
-0.1
-0.13
-0.04
-0.045
-0.015
-0.03
0.04
0.0
-0.095
-0.1
-0.02
-0.005
-0.005
-0.115
-0.075
-0.025
-0.01
0.055
0.02
-0.075
-0.065
-0.045
0.02
0.02
-0.045
-0.1
-0.055
-0.08
-0.01
0.065
0.035
0.045
0.005
-0.02
-0.01
0.035
0.005
-0.06
0.02
0.045
0.025
-0.07
0.03
0.06
-0.005
0.15
0.0
0.025
0.11
0.075
0.08
0.135
0.095
0.095
0.06
0.165
0.115
0.03
0.06
0.16
0.185
0.16
0.105
0.16
0.135
0.07
0.15
0.095
0.065
0.125
0.135
0.035
0.09
0.035
0.025
0.04
0.195
0.085
0.025
0.04
-0.015
0.055
0.03
0.1
0.095
0.005
-0.08
-0.01
-0.045
-0.025
-0.015
0.035
-0.015
-0.045
-0.01
-0.02
0.06
0.035
-0.04
0.015
0.015
-0.085
-0.12
-0.11
-0.035
0.035
0.075
0.025
0.07
-0.12
-0.105
0.02
-0.05
0.005
-0.035
-0.035
-0.08
-0.035
-0.06
-0.04
0.01
0.03
0.04
-0.115
-0.065
-0.055
0.0
0.01
-0.13
-0.075
-0.015
-0.025
0.06
0.005
-0.045
0.015
-0.045
-0.08
-0.02
-0.075
-0.08
0.025
0.065
0.025
-0.105
0.005
-0.005
-0.04
-0.045
0.0
-0.06
-0.1
-0.02
-0.01
0.15
-0.015
0.0
-0.03
0.03
-0.005
-0.085
0.04
0.1
0.015
-0.035
0.015
0.02
-0.005
0.075
0.195
-0.115
-0.13
-0.055
-0.02
0.02
0.03
0.055
-0.035
0.04
0.075
0.055
0.025
0.055
0.075
0.01
0.115
0.025
0.045
0.075
0.055
0.01
-0.005
0.02
-0.03
-0.015
0.005
0.035
-0.08
-0.04
0.0
0.03
-0.08
-0.055
-0.055
-0.075
-0.065
0.03
-0.02
-0.01
0.01
-0.065
-0.015
-0.03
0.055
-0.09
-0.045
-0.06
-0.08
-0.03
-0.045
-0.12
-0.035
0.025
-0.01
-0.11
-0.085
-0.02
-0.05
0.005
-0.1
0.015
-0.05
-0.095
-0.125
-0.125
-0.21
-0.2
-0.105
-0.075
-0.055
0.11
0.14
0.33
0.48
0.46
0.53
0.715
0.73
0.72
0.61
0.53
0.33
0.275
0.14
0.14
0.005
-0.125
-0.05
-0.03
-0.05
0.035
0.025
-0.015
-0.045
-0.045
0.03
-0.07
0.0
-0.02
-0.09
-0.11
-0.05
-0.07
0.035
0.03
-0.03
-0.105
0.0
-0.065
-0.095
0.005
0.0
0.015
-0.07
-0.035
0.015
-0.04
-0.075
-0.08
-0.15
-0.015
0.0
-0.055
-0.1
0.01
-0.005
-0.045
-0.035
0.015
0.015
0.005
-0.07
-0.1
-0.045
-0.03
0.04
-0.035
0.07
-0.015
-0.15
0.0
0.0
0.03
0.035
-0.085
-0.105
-0.025
-0.005
0.015
0.01
0.01
-0.025
0.05
-0.045
0.085
0.09
0.0
0.065
0.1
-0.055
0.005
0.025
0.075
-0.06
0.05
-0.025
0.085
0.005
0.005
-0.025
0.055
0.07
0.115
0.115
0.115
0.155
0.165
0.07
0.015
0.12
0.115
0.075
0.08
0.23
0.14
0.085
0.175
0.135
0.17
0.285
0.255
0.03
0.08
0.04
0.225
0.175
0.25
0.185
0.165
0.16
0.21
0.085
0.185
0.215
0.125
0.08
0.085
0.095
-0.03
0.1
0.125
0.01
0.09
0.14
0.045
0.185
0.075
-0.035
-0.01
0.15
0.05
0.015
0.055
-0.045
0.005
-0.005
0.03
0.08
0.035
0.08
0.15
0.07
0.05
-0.005
0.055
-0.04
-0.005
0.08
0.03
0.02
0.045
0.03
0.1
0.01
0.085
0.085
0.02
0.085
0.095
0.0
0.055
0.105
0.06
0.05
0.125
0.22
0.06
0.02
-0.065
-0.095
-0.035
0.13
0.055
0.12
0.03
0.15
0.11
0.065
0.07
0.06
0.07
0.16
0.115
0.115
0.075
0.03
0.075
0.035
0.055
0.09
0.06
0.04
0.12
0.08
0.15
0.125
0.005
0.005
0.09
0.27
0.215
0.105
0.12
0.175
0.115
0.19
0.165
0.105
0.175
0.15
0.09
0.27
0.165
0.15
0.125
0.175
0.15
0.13
0.14
0.155
0.15
0.08
0.115
0.11
0.17
0.145
0.14
0.075
0.12
0.23
0.205
0.09
0.105
0.065
0.045
-0.025
0.06
0.02
0.115
0.2
0.13
0.105
0.145
0.2
0.085
0.055
0.06
0.12
0.095
0.145
0.225
0.19
0.115
0.075
0.05
0.115
0.22
0.105
0.015
0.055
0.095
0.015
0.01
-0.025
-0.05
-0.075
0.03
-0.025
0.06
0.255
0.375
0.5
0.575
0.615
0.71
1.01
1.015
0.915
0.865
0.575
0.425
0.37
0.285
0.135
0.055
0.145
0.11
0.125
0.07
0.165
0.2
0.14
0.155
0.13
0.1
0.15
0.19
0.135
0.075
0.16
0.075
0.055
0.185
0.11
0.11
0.125
0.14
0.03
0.11
0.13
0.14
0.15
0.15
0.11
0.18
0.16
0.125
0.125
0.18
0.14
0.21
0.215
0.09
0.095
0.005
0.23
0.33
0.295
0.215
0.13
0.135
0.15
0.1
0.1
0.13
0.14
0.17
0.125
0.16
0.18
0.195
0.2
0.175
0.15
0.13
0.045
0.11
0.27
0.205
0.265
0.145
0.16
0.385
0.295
0.185
0.145
0.23
0.185
0.135
0.26
0.325
0.23
0.3
0.235
0.245
0.255
0.225
0.345
0.275
0.23
0.285
0.305
0.29
0.27
0.33
0.38
0.365
0.375
0.305
0.28
0.345
0.41
0.385
0.4
0.455
0.315
0.34
0.365
0.335
0.355
0.4
0.43
0.35
0.375
0.405
0.38
0.465
0.28
0.29
0.385
0.49
0.41
0.37
0.325
0.375
0.335
0.345
0.355
0.375
0.39
0.255
0.26
0.29
0.355
0.235
0.285
0.24
0.315
0.245
0.225
0.29
0.28
0.34
0.245
0.335
0.265
0.295
0.245
0.25
0.365
0.41
0.36
0.405
0.33
0.375
0.26
0.275
0.415
0.385
0.225
0.2
0.295
0.305
0.31
0.35
0.33
0.335
0.285
0.34
0.345
0.365
0.355
0.385
0.29
0.375
0.295
0.305
0.35
0.27
0.265
0.335
0.44
0.36
0.305
0.42
0.325
0.27
0.335
0.295
0.355
0.42
0.4
0.475
0.435
0.39
0.325
0.36
0.325
0.38
0.405
0.475
0.395
0.375
0.32
0.495
0.46
0.43
0.385
0.355
0.435
0.365
0.495
0.445
0.47
0.315
0.45
0.43
0.435
0.43
0.415
0.38
0.495
0.48
0.4
0.41
0.36
0.395
0.52
0.485
0.335
0.4
0.47
0.445
0.395
0.41
0.4
0.33
0.36
0.475
0.495
0.475
0.405
0.475
0.505
