# TIPE ECG 2021 - ECG-ID Database v1.0.0 par Physionet
# [Numéro de la personne, Période d'échantillonnage, Prénom, Age, Sexe, Date de l'enregistrement]
[14, 0.002, Kerry, 21, H, 26.04.2005]
0.25
0.16
0.11
0.04
-0.025
-0.02
0.045
0.175
0.26
0.345
0.375
0.255
0.18
0.06
0.08
0.09
0.195
0.275
0.27
0.285
0.28
0.12
-0.045
-0.145
-0.16
-0.19
-0.13
-0.02
0.12
0.215
0.225
0.115
0.06
-0.065
-0.07
-0.075
0.08
0.155
0.255
0.3
0.285
0.185
0.08
-0.07
-0.085
-0.03
0.08
0.17
0.265
0.26
0.21
0.145
0.085
-0.05
-0.025
-0.035
0.03
0.11
0.295
0.355
0.28
0.16
0.075
-0.04
0.01
0.035
0.1
0.13
0.29
0.255
0.235
0.185
0.125
-0.01
0.025
0.035
0.14
0.145
0.235
0.22
0.195
0.09
0.085
-0.03
-0.015
0.055
0.145
0.21
0.38
0.335
0.29
0.19
0.065
-0.05
0.05
0.08
0.175
0.22
0.35
0.325
0.235
0.17
0.135
0.07
0.04
0.16
0.2
0.26
0.44
0.415
0.365
0.26
0.205
0.065
0.08
0.12
0.195
0.275
0.42
0.41
0.33
0.26
0.2
0.12
0.155
0.265
0.34
0.335
0.465
0.455
0.395
0.35
0.3
0.16
0.13
0.26
0.34
0.35
0.435
0.425
0.305
0.215
0.15
0.115
0.115
0.17
0.205
0.285
0.41
0.385
0.31
0.215
0.165
0.045
0.075
0.08
0.185
0.255
0.305
0.275
0.18
0.09
0.05
0.005
-0.03
0.055
0.125
0.18
0.25
0.19
0.07
0.045
0.0
-0.075
-0.055
0.11
0.2
0.245
0.27
0.265
0.155
0.055
-0.065
-0.08
-0.02
0.035
0.06
0.23
0.265
0.175
0.125
0.11
-0.06
-0.075
-0.015
0.1
0.16
0.29
0.26
0.175
0.11
0.085
-0.055
-0.055
-0.12
-0.035
0.025
0.17
0.22
0.165
0.055
0.035
-0.085
-0.045
-0.02
0.07
0.1
0.245
0.235
0.19
0.115
0.07
-0.04
-0.03
-0.025
0.055
0.09
0.21
0.27
0.235
0.09
0.065
-0.055
-0.025
0.04
0.13
0.14
0.25
0.18
0.125
0.07
0.035
-0.105
-0.06
-0.03
0.115
0.14
0.265
0.3
0.225
0.09
0.02
-0.17
-0.19
-0.035
0.135
0.155
0.26
0.235
0.215
0.12
0.02
-0.08
-0.11
-0.02
0.07
0.14
0.285
0.3
0.21
0.08
0.015
-0.06
-0.07
0.01
0.07
0.1
0.275
0.26
0.15
0.055
0.0
-0.075
-0.1
-0.045
0.04
0.145
0.205
0.2
0.12
0.03
-0.035
-0.11
-0.05
0.015
0.08
0.165
0.28
0.27
0.21
0.15
0.06
-0.075
-0.06
0.005
0.095
0.185
0.23
0.26
0.145
0.11
0.015
-0.055
-0.115
-0.045
0.025
0.175
0.25
0.25
0.13
0.045
-0.045
-0.065
-0.055
0.06
0.12
0.215
0.2
0.155
0.06
0.065
0.025
0.0
0.01
0.065
0.085
0.2
0.28
0.265
0.205
0.21
0.05
0.0
-0.01
0.115
0.145
0.28
0.275
0.26
0.17
0.1
0.05
0.035
0.09
0.14
0.14
0.26
0.255
0.21
0.055
-0.02
-0.11
-0.07
-0.025
0.1
0.13
0.23
0.215
0.19
0.07
-0.01
-0.175
-0.12
-0.015
0.06
0.115
0.27
0.265
0.25
0.14
0.05
-0.125
-0.13
-0.095
0.025
0.1
0.21
0.245
0.215
0.13
0.035
-0.12
-0.09
-0.02
0.075
0.055
0.165
0.165
0.12
0.04
0.03
-0.055
-0.03
0.03
0.165
0.22
0.305
0.305
0.25
0.135
0.09
-0.03
-0.03
0.05
0.16
0.255
0.37
0.34
0.27
0.115
0.03
-0.095
-0.155
-0.075
-0.005
0.045
0.115
0.07
-0.025
-0.075
-0.075
-0.125
-0.15
-0.035
0.095
0.175
0.285
0.26
0.185
0.105
-0.02
-0.085
-0.065
0.01
0.08
0.165
0.26
0.255
0.17
0.06
-0.04
-0.06
-0.045
0.05
0.12
0.22
0.29
0.275
0.195
0.14
0.015
-0.07
0.005
0.11
0.16
0.27
0.315
0.3
0.175
0.075
-0.05
-0.055
0.005
0.09
0.115
0.245
0.28
0.285
0.2
0.105
-0.02
-0.01
0.015
0.085
0.16
0.285
0.29
0.27
0.19
0.11
-0.06
-0.035
0.02
0.105
0.175
0.31
0.325
0.26
0.195
0.11
-0.015
-0.01
0.075
0.24
0.305
0.445
0.36
0.305
0.17
0.125
0.0
0.06
0.145
0.25
0.29
0.395
0.405
0.39
0.31
0.255
0.1
0.115
0.16
0.245
0.265
0.415
0.415
0.35
0.32
0.29
0.165
0.185
0.245
0.325
0.335
0.425
0.41
0.41
0.33
0.265
0.12
0.1
0.175
0.295
0.31
0.415
0.42
0.305
0.215
0.155
0.05
0.065
0.105
0.19
0.25
0.365
0.325
0.26
0.18
0.105
-0.05
-0.045
0.01
0.11
0.21
0.295
0.265
0.235
0.135
0.01
-0.105
-0.055
0.035
0.13
0.185
0.255
0.2
0.1
0.04
0.035
-0.02
-0.04
0.05
0.085
0.16
0.26
0.22
0.135
0.07
-0.01
-0.07
-0.075
0.015
0.07
0.165
0.195
0.185
0.165
0.16
-0.005
-0.095
-0.055
0.025
0.04
0.125
0.23
0.26
0.175
0.13
-0.02
-0.095
-0.105
-0.015
0.095
0.25
0.27
0.19
0.07
0.07
-0.095
-0.14
-0.085
0.04
0.1
0.195
0.225
0.195
0.09
0.055
-0.05
-0.065
-0.01
0.115
0.15
0.265
0.275
0.2
0.115
0.06
-0.095
-0.06
-0.05
0.07
0.12
0.26
0.225
0.23
0.19
0.14
-0.065
-0.025
-0.025
0.035
0.05
0.21
0.205
0.205
0.085
0.045
-0.085
-0.12
-0.085
0.05
0.125
0.29
0.3
0.195
0.095
0.05
-0.11
-0.085
0.025
0.11
0.11
0.23
0.26
0.205
0.065
0.0
-0.05
-0.045
-0.02
0.045
0.12
0.31
0.37
0.26
0.11
0.045
-0.105
-0.13
-0.015
0.12
0.17
0.28
0.25
0.18
0.1
-0.01
-0.16
-0.135
-0.02
0.07
0.105
0.225
0.215
0.16
0.135
0.02
-0.075
-0.085
-0.02
0.095
0.135
0.28
0.3
0.265
0.11
-0.04
-0.11
-0.115
-0.01
0.105
0.19
0.29
0.25
0.13
0.06
-0.045
-0.125
-0.105
0.025
0.08
0.16
0.255
0.24
0.155
0.04
-0.06
-0.085
-0.06
0.005
0.01
0.155
0.28
0.235
0.1
0.04
-0.055
-0.09
-0.06
0.07
0.155
0.22
0.205
0.215
0.155
0.045
-0.11
-0.085
-0.055
0.01
0.08
0.255
0.31
0.27
0.185
0.08
-0.09
-0.075
-0.06
0.03
0.095
0.26
0.315
0.27
0.145
0.11
-0.035
-0.045
0.01
0.095
0.155
0.3
0.315
0.275
0.14
0.03
-0.095
-0.015
0.045
0.14
0.165
0.33
0.325
0.215
0.075
0.005
-0.135
-0.135
-0.095
0.03
0.11
0.32
0.29
0.21
0.08
0.05
-0.095
-0.07
0.0
0.095
0.105
0.23
0.24
0.19
0.08
0.05
-0.07
-0.065
-0.04
-0.005
0.1
0.27
0.255
0.16
0.055
0.015
-0.105
-0.105
-0.08
0.11
0.2
0.32
0.315
0.27
0.17
0.12
-0.01
0.01
0.07
0.12
0.2
0.345
0.31
0.24
0.23
0.12
-0.085
-0.095
-0.07
0.01
0.035
0.145
0.175
0.065
-0.06
-0.09
-0.145
-0.045
0.06
0.1
0.19
0.27
0.295
0.155
0.055
0.0
-0.1
-0.08
0.005
0.075
0.15
0.21
0.17
0.13
0.085
0.015
-0.015
0.04
0.155
0.245
0.265
0.275
0.225
0.14
0.07
0.015
-0.025
-0.04
0.125
0.225
0.295
0.32
0.24
0.1
0.08
0.005
0.035
-0.03
0.075
0.12
0.26
0.29
0.23
0.135
0.115
0.01
0.0
0.03
0.115
0.14
0.255
0.285
0.25
0.185
0.165
0.07
0.1
0.1
0.17
0.235
0.36
0.345
0.34
0.235
0.145
-0.015
0.0
0.085
0.245
0.27
0.405
0.37
0.335
0.29
0.19
0.035
0.03
0.085
0.215
0.28
0.43
0.395
0.365
0.29
0.27
0.145
0.115
0.155
0.25
0.285
0.465
0.425
0.405
0.335
0.295
0.13
0.16
0.195
0.26
0.315
0.465
0.515
0.455
0.36
0.295
0.12
0.16
0.205
0.305
0.33
0.445
0.495
0.415
0.245
0.18
0.07
0.09
0.205
0.3
0.365
0.42
0.38
0.255
0.165
0.09
-0.045
-0.05
0.09
0.18
0.205
0.31
0.33
0.23
0.145
0.065
-0.045
0.03
0.135
0.205
0.27
0.34
0.295
0.19
0.095
0.07
0.015
0.0
0.085
0.16
0.235
0.275
0.205
0.17
0.155
0.075
0.0
-0.07
0.055
0.13
0.2
0.29
0.24
0.11
0.055
-0.015
-0.065
-0.035
0.095
0.17
0.225
0.275
0.235
0.145
0.09
-0.01
-0.05
-0.035
0.07
0.105
0.215
0.275
0.245
0.12
0.06
-0.025
-0.01
-0.025
0.055
0.13
0.25
0.24
0.24
0.16
0.085
-0.055
-0.055
0.03
0.13
0.13
0.26
0.275
0.2
0.115
0.035
-0.085
-0.03
-0.03
0.045
0.125
0.26
0.25
0.245
0.185
0.105
-0.07
-0.055
-0.065
0.055
0.1
0.24
0.245
0.22
0.13
0.115
-0.07
-0.085
0.015
0.125
0.18
0.31
0.28
0.21
0.1
0.065
-0.115
-0.08
-0.015
0.09
0.11
0.225
0.22
0.15
0.07
0.11
-0.02
-0.05
-0.03
0.065
0.1
0.28
0.295
0.26
0.16
0.07
-0.085
-0.105
0.005
0.095
0.105
0.25
0.25
0.205
0.11
0.03
-0.15
-0.13
-0.025
0.085
0.13
0.205
0.225
0.19
0.07
-0.02
-0.045
-0.025
0.035
0.11
0.165
0.215
0.215
0.135
0.095
0.045
-0.065
-0.09
-0.02
0.095
0.18
0.275
0.285
0.175
0.12
-0.01
-0.1
-0.055
0.045
0.105
0.205
0.275
0.26
0.135
0.075
-0.025
-0.08
-0.09
-0.04
0.075
0.195
0.26
0.23
0.135
0.085
-0.025
-0.12
-0.075
0.025
0.1
0.2
0.205
0.19
0.115
0.045
-0.085
-0.115
-0.115
0.02
0.095
0.26
0.28
0.25
0.135
0.085
-0.065
-0.1
-0.095
0.03
0.08
0.185
0.25
0.2
0.125
0.05
-0.135
-0.105
-0.065
0.015
0.095
0.205
0.25
0.165
0.08
0.07
-0.065
-0.04
0.0
0.08
0.12
0.25
0.25
0.23
0.13
0.065
-0.06
-0.115
-0.055
0.06
0.12
0.265
0.3
0.265
0.205
0.175
0.01
-0.04
0.02
0.07
0.095
0.26
0.3
0.26
0.145
0.02
-0.125
-0.1
0.01
0.115
0.15
0.26
0.245
0.22
0.12
0.07
-0.09
-0.105
-0.03
0.025
0.04
0.2
0.21
0.17
0.075
0.005
-0.07
-0.06
-0.035
0.065
0.105
0.235
0.265
0.195
0.06
0.025
-0.095
-0.13
-0.055
0.105
0.16
0.27
0.235
0.21
0.225
0.145
0.015
-0.015
0.055
0.145
0.225
0.29
0.325
0.265
0.185
0.135
0.07
0.085
0.14
0.175
0.165
0.255
0.215
0.055
-0.02
-0.1
-0.26
-0.25
-0.09
0.05
0.15
0.295
0.305
0.19
0.11
0.02
-0.02
-0.02
-0.005
0.1
0.17
0.245
0.245
0.18
0.085
-0.08
-0.075
0.0
0.08
0.165
0.255
0.3
0.29
0.145
0.04
-0.07
-0.045
0.025
0.115
0.185
0.3
0.29
0.27
0.18
0.11
-0.045
-0.03
-0.02
0.125
0.21
0.315
0.32
0.28
0.16
0.095
-0.025
-0.045
-0.02
0.06
0.125
0.28
0.285
0.26
0.19
0.115
-0.05
-0.005
0.1
0.19
0.185
0.315
0.34
0.3
0.19
0.125
-0.025
0.0
0.045
0.16
0.225
0.39
0.385
0.335
0.21
0.135
0.01
0.065
0.065
0.14
0.195
0.425
0.46
0.37
0.275
0.255
0.135
0.17
0.165
0.245
0.31
0.45
0.425
0.345
0.26
0.225
0.16
0.13
0.24
0.315
0.35
0.44
0.455
0.45
0.3
0.22
0.155
0.155
0.23
0.305
0.36
0.435
0.455
0.355
0.24
0.205
0.085
-0.005
0.075
0.21
0.305
0.425
0.42
0.355
0.265
0.14
0.005
0.005
0.1
0.155
0.205
0.305
0.31
0.22
0.105
0.055
-0.08
-0.095
0.045
0.15
0.175
0.28
0.29
0.21
0.125
0.065
-0.02
-0.035
0.04
0.13
0.245
0.315
0.285
0.17
0.09
0.01
-0.055
-0.07
0.03
0.135
0.23
0.29
0.23
0.125
0.045
-0.06
-0.07
-0.03
0.07
0.175
0.235
0.275
0.25
0.16
0.08
-0.04
-0.045
-0.055
0.04
0.085
0.2
0.26
0.27
0.185
0.105
-0.095
-0.1
-0.075
0.08
0.125
0.23
0.235
0.22
0.13
0.075
-0.085
-0.075
-0.03
0.06
0.12
0.305
0.33
0.285
0.15
0.09
-0.03
-0.04
0.0
0.09
0.145
0.33
0.305
0.28
0.135
0.06
-0.125
-0.1
-0.035
0.045
0.14
0.27
0.275
0.235
0.105
0.09
-0.01
-0.07
-0.035
0.06
0.12
0.245
0.225
0.105
0.03
0.015
-0.125
-0.065
0.065
0.145
0.19
0.32
0.28
0.175
0.08
0.015
-0.1
-0.1
-0.025
0.125
0.175
0.26
0.3
0.185
0.13
0.065
-0.09
-0.12
-0.055
0.045
0.125
0.25
0.24
0.155
0.045
0.005
-0.085
-0.125
0.015
0.125
0.17
0.245
0.23
0.1
0.04
-0.02
-0.06
-0.09
-0.035
0.055
0.16
0.295
0.245
0.12
0.045
-0.035
-0.115
-0.095
0.01
0.11
0.2
0.23
0.195
0.135
0.095
0.03
-0.045
-0.025
0.04
0.06
0.175
0.26
0.27
0.145
0.005
-0.08
-0.105
-0.08
0.0
0.045
0.14
0.225
0.24
0.125
0.035
-0.105
-0.08
-0.075
0.02
0.1
0.185
0.18
0.17
0.065
0.055
-0.09
-0.075
-0.085
0.0
0.08
0.22
0.245
0.17
0.075
0.055
-0.08
-0.08
-0.025
0.085
0.15
0.235
0.18
0.165
0.105
0.065
-0.095
-0.075
-0.02
0.05
0.085
0.245
0.225
0.225
0.135
0.065
-0.09
-0.055
-0.07
0.055
0.09
0.23
0.265
0.175
0.07
0.03
-0.095
-0.09
-0.04
0.05
0.105
0.26
0.245
0.24
0.17
0.125
-0.035
-0.05
0.005
0.095
0.115
0.255
0.245
0.16
0.085
0.02
-0.095
-0.065
-0.025
0.055
0.125
0.27
0.235
0.175
0.07
-0.015
-0.135
-0.115
-0.075
-0.03
0.03
0.175
0.175
0.1
-0.035
-0.085
-0.16
-0.145
-0.06
0.035
0.155
0.27
0.22
0.12
0.015
-0.08
-0.22
-0.185
-0.06
0.025
0.095
0.19
0.18
0.11
0.025
-0.025
-0.065
-0.025
0.07
0.135
0.23
0.27
0.27
0.24
0.23
0.1
-0.02
-0.005
0.07
0.065
0.145
0.205
0.145
0.025
-0.07
-0.2
-0.295
-0.295
-0.16
-0.09
0.015
0.07
0.13
0.045
-0.03
-0.12
-0.1
-0.07
-0.025
0.05
0.155
0.155
0.15
0.055
-0.025
-0.21
-0.19
-0.165
0.0
0.09
0.205
0.21
0.18
0.08
0.01
-0.155
-0.115
-0.095
0.01
0.04
0.185
0.19
0.15
0.055
-0.035
-0.185
-0.155
-0.07
0.025
0.065
0.15
0.19
0.16
0.075
0.04
-0.105
-0.16
-0.105
0.005
0.055
0.16
0.18
0.09
0.05
-0.005
-0.18
-0.185
-0.07
0.03
0.055
0.225
0.205
0.155
0.05
0.03
-0.095
-0.095
-0.075
0.03
0.08
0.19
0.185
0.15
0.085
0.04
-0.125
-0.135
-0.045
0.035
0.125
0.31
0.36
0.27
0.105
0.02
-0.135
-0.13
-0.04
0.075
0.13
0.285
0.27
0.215
0.12
0.03
-0.04
-0.035
0.055
0.125
0.155
0.29
0.31
0.245
0.165
0.08
-0.015
-0.015
0.06
0.135
0.16
0.31
0.255
0.17
0.095
0.01
-0.12
-0.105
0.015
0.15
0.165
0.245
0.205
0.16
0.055
-0.06
-0.125
-0.135
-0.07
0.02
0.09
0.195
0.11
0.0
-0.115
-0.17
-0.23
-0.2
-0.1
-0.1
-0.01
0.11
0.105
-0.025
-0.06
-0.195
-0.295
-0.24
-0.115
-0.055
0.06
0.09
0.055
-0.06
-0.14
-0.285
-0.275
-0.225
-0.17
-0.165
0.02
0.075
0.005
-0.06
-0.115
-0.225
-0.195
-0.2
-0.135
-0.025
0.085
0.075
-0.015
-0.13
-0.18
-0.33
-0.335
-0.27
-0.175
-0.09
0.04
0.035
-0.01
-0.11
-0.185
-0.335
-0.295
-0.28
-0.17
-0.095
0.04
0.06
0.01
-0.105
-0.145
-0.285
-0.33
-0.27
-0.19
-0.11
0.0
-0.03
-0.015
-0.07
-0.145
-0.315
-0.26
-0.19
-0.03
-0.015
0.075
0.09
0.02
-0.135
-0.16
-0.3
-0.29
-0.215
-0.135
-0.1
0.01
-0.02
-0.025
-0.135
-0.225
-0.325
-0.29
-0.215
-0.135
-0.11
0.035
0.01
-0.065
-0.12
-0.17
-0.245
-0.245
-0.13
-0.12
-0.12
-0.02
-0.04
-0.115
-0.175
-0.225
-0.305
-0.275
-0.215
-0.125
-0.05
0.04
0.04
0.05
-0.1
-0.205
-0.34
-0.33
-0.235
-0.16
-0.035
0.07
0.035
-0.04
-0.15
-0.22
-0.29
-0.255
-0.19
-0.11
-0.02
0.035
0.005
-0.125
-0.185
-0.205
-0.235
-0.29
-0.225
-0.135
-0.065
0.0
0.015
-0.075
-0.195
-0.31
-0.34
-0.295
-0.19
-0.145
-0.03
0.095
0.07
-0.065
-0.185
-0.29
-0.355
-0.32
-0.22
-0.14
-0.01
0.085
0.045
-0.105
-0.19
-0.325
-0.345
-0.295
-0.155
-0.1
0.03
0.015
-0.005
-0.095
-0.195
-0.34
-0.345
-0.32
-0.205
-0.1
0.02
-0.015
-0.08
-0.165
-0.215
-0.34
-0.29
-0.27
-0.17
-0.11
0.08
0.075
-0.02
-0.155
-0.22
-0.355
-0.33
-0.3
-0.165
-0.13
0.02
0.02
-0.03
-0.12
-0.15
-0.305
-0.315
-0.265
-0.115
-0.09
0.045
0.04
-0.005
-0.125
-0.145
-0.29
-0.295
-0.21
-0.08
-0.035
0.08
0.05
-0.03
-0.165
-0.19
-0.3
-0.275
-0.22
-0.105
-0.05
0.05
0.01
-0.105
-0.215
-0.225
-0.355
-0.31
-0.23
-0.185
-0.16
-0.07
-0.01
-0.055
-0.145
-0.155
-0.295
-0.345
-0.28
-0.155
-0.08
0.02
0.02
-0.095
-0.21
-0.34
-0.44
-0.395
-0.285
-0.16
-0.095
-0.03
-0.04
-0.145
-0.18
-0.225
-0.33
-0.35
-0.245
-0.115
-0.025
0.075
0.07
-0.075
-0.135
-0.135
-0.275
-0.28
-0.16
-0.095
-0.025
0.075
0.09
-0.05
-0.175
-0.295
-0.35
-0.385
-0.335
-0.25
-0.14
-0.115
-0.17
-0.225
-0.26
-0.35
-0.365
-0.35
-0.195
-0.15
-0.11
-0.07
-0.075
-0.165
-0.245
-0.335
-0.335
-0.295
-0.19
-0.16
-0.055
-0.01
-0.065
-0.185
-0.235
-0.335
-0.36
-0.34
-0.21
-0.15
-0.005
0.055
-0.005
-0.115
-0.205
-0.35
-0.345
-0.285
-0.18
-0.135
-0.025
-0.01
-0.045
-0.12
-0.2
-0.355
-0.3
-0.315
-0.21
-0.125
0.005
-0.01
-0.035
-0.12
-0.19
-0.35
-0.33
-0.255
-0.17
-0.14
0.07
0.045
-0.05
-0.13
-0.18
-0.3
-0.28
-0.245
-0.165
-0.13
0.005
0.01
0.005
-0.07
-0.17
-0.335
-0.325
-0.255
-0.095
-0.045
0.12
0.1
-0.005
-0.115
-0.17
-0.235
-0.205
-0.15
-0.05
-0.015
0.13
0.155
0.065
-0.035
-0.065
-0.22
-0.225
-0.19
-0.045
0.045
0.175
0.175
0.055
-0.04
-0.085
-0.145
-0.12
-0.03
0.015
0.045
0.12
0.095
0.005
-0.09
-0.115
-0.14
-0.17
-0.115
0.005
0.085
0.1
0.11
-0.005
-0.075
-0.175
-0.27
-0.26
-0.18
-0.14
-0.02
0.055
0.005
-0.14
-0.19
-0.29
-0.33
-0.35
-0.31
-0.2
-0.1
0.015
-0.03
-0.15
-0.2
-0.31
-0.405
-0.37
-0.245
-0.135
-0.045
-0.025
-0.045
-0.175
-0.245
-0.365
-0.395
-0.36
-0.255
-0.175
-0.115
-0.105
-0.17
-0.235
-0.28
-0.39
-0.385
-0.325
-0.27
-0.18
-0.04
-0.055
-0.15
-0.215
-0.29
-0.425
-0.415
-0.37
-0.27
-0.22
-0.08
-0.045
-0.06
-0.22
-0.235
-0.385
-0.4
-0.38
-0.34
-0.235
-0.1
-0.095
-0.1
-0.215
-0.275
-0.395
-0.355
-0.305
-0.22
-0.15
-0.055
-0.075
-0.11
-0.205
-0.26
-0.39
-0.415
-0.375
-0.275
-0.185
-0.055
-0.06
-0.12
-0.22
-0.285
-0.43
-0.445
-0.37
-0.25
-0.19
-0.05
-0.05
-0.155
-0.215
-0.305
-0.445
-0.41
-0.365
-0.28
-0.24
-0.105
-0.11
-0.16
-0.22
-0.23
-0.395
-0.385
-0.33
-0.225
-0.175
-0.075
-0.035
-0.07
-0.195
-0.255
-0.4
-0.455
-0.4
-0.31
-0.205
-0.06
-0.1
-0.2
-0.305
-0.33
-0.415
-0.4
-0.355
-0.265
-0.155
-0.015
-0.03
-0.17
-0.325
-0.385
-0.47
-0.455
-0.345
-0.3
-0.18
-0.09
-0.14
-0.245
-0.33
-0.38
-0.465
-0.435
-0.3
-0.17
-0.13
-0.115
-0.115
-0.175
-0.235
-0.345
-0.435
-0.41
-0.305
-0.23
-0.135
-0.065
-0.125
-0.21
-0.275
-0.415
-0.46
-0.455
-0.38
-0.295
-0.17
-0.125
-0.105
-0.2
-0.27
-0.405
-0.455
-0.4
-0.355
-0.32
-0.165
-0.125
-0.18
-0.245
-0.3
-0.43
-0.445
-0.475
-0.335
-0.25
-0.09
-0.07
-0.07
-0.235
-0.305
-0.435
-0.45
-0.38
-0.27
-0.235
-0.16
-0.16
-0.185
-0.255
-0.32
-0.475
-0.49
-0.415
-0.305
-0.24
-0.115
-0.095
-0.155
-0.22
-0.27
-0.435
-0.425
-0.435
-0.345
-0.29
-0.135
-0.15
-0.18
-0.28
-0.345
-0.455
-0.425
-0.39
-0.31
-0.26
-0.095
-0.13
-0.16
-0.255
-0.335
-0.505
-0.465
-0.41
-0.345
-0.28
-0.095
-0.055
-0.125
-0.285
-0.375
-0.5
-0.43
-0.345
-0.21
-0.165
-0.03
-0.04
-0.125
-0.215
-0.285
-0.45
-0.485
-0.41
-0.305
-0.2
-0.095
-0.08
-0.145
-0.21
-0.27
-0.355
-0.365
-0.31
-0.235
-0.14
-0.04
-0.075
-0.16
-0.31
-0.395
-0.475
-0.465
-0.39
-0.285
-0.205
-0.11
-0.145
-0.21
-0.365
-0.445
-0.51
-0.46
-0.365
-0.28
-0.175
-0.02
-0.07
-0.255
-0.31
-0.44
-0.45
-0.42
-0.325
-0.205
-0.175
-0.1
-0.155
-0.26
-0.34
-0.415
-0.44
-0.385
-0.305
-0.26
-0.2
-0.105
-0.135
-0.2
-0.21
-0.315
-0.35
-0.365
-0.275
-0.175
-0.075
-0.065
-0.155
-0.235
-0.26
-0.365
-0.41
-0.34
-0.26
-0.21
-0.095
-0.115
-0.18
-0.32
-0.37
-0.53
-0.555
-0.56
-0.405
-0.33
-0.19
-0.2
-0.19
-0.245
-0.285
-0.4
-0.355
-0.325
-0.275
-0.25
-0.135
-0.085
-0.09
-0.185
-0.305
-0.445
-0.425
-0.385
-0.275
-0.24
-0.1
-0.05
-0.055
-0.16
-0.225
-0.405
-0.39
-0.34
-0.26
-0.235
-0.08
-0.065
-0.155
-0.24
-0.275
-0.44
-0.48
-0.375
-0.25
-0.17
-0.025
-0.005
-0.1
-0.175
-0.27
-0.445
-0.44
-0.4
-0.265
-0.215
-0.065
-0.02
-0.095
-0.19
-0.245
-0.395
-0.39
-0.34
-0.21
-0.085
0.1
0.04
-0.055
-0.17
-0.265
-0.37
-0.33
-0.28
-0.215
-0.16
0.025
0.025
-0.065
-0.15
-0.205
-0.31
-0.34
-0.26
-0.12
-0.07
0.045
0.03
-0.045
-0.15
-0.23
-0.285
-0.26
-0.19
-0.09
-0.015
0.1
0.105
0.0
-0.11
-0.16
-0.185
-0.2
-0.145
-0.045
0.06
0.1
0.09
0.025
-0.055
-0.165
-0.165
-0.215
-0.13
-0.025
0.03
0.06
0.07
-0.02
-0.095
-0.215
-0.19
-0.215
-0.12
-0.11
0.005
0.06
-0.06
-0.165
-0.15
-0.245
-0.335
-0.29
-0.115
-0.11
-0.03
-0.01
-0.08
-0.195
-0.255
-0.38
-0.335
-0.29
-0.205
-0.175
-0.06
-0.09
-0.105
-0.19
-0.255
-0.4
-0.345
-0.33
-0.205
-0.185
-0.02
0.03
-0.04
-0.16
-0.25
-0.405
-0.45
-0.42
-0.32
-0.22
-0.07
-0.07
-0.09
-0.205
-0.235
-0.41
-0.46
-0.375
-0.25
-0.175
-0.015
-0.1
-0.2
-0.23
-0.3
-0.415
-0.42
-0.33
-0.21
-0.19
-0.055
-0.015
-0.085
-0.18
-0.23
-0.4
-0.4
-0.345
-0.255
-0.235
-0.06
-0.045
-0.105
-0.23
-0.245
-0.405
-0.405
-0.325
-0.215
-0.165
0.0
-0.015
-0.09
-0.215
-0.25
-0.385
-0.365
-0.3
-0.255
-0.195
-0.075
-0.055
-0.13
-0.21
-0.22
-0.325
-0.35
-0.265
-0.165
-0.155
-0.065
-0.09
-0.175
-0.22
-0.265
-0.38
-0.38
-0.245
-0.195
-0.175
-0.09
-0.07
-0.11
-0.19
-0.28
-0.35
-0.365
-0.295
-0.155
-0.055
0.0
-0.055
-0.135
-0.235
-0.35
-0.415
-0.37
-0.24
-0.175
-0.12
-0.085
-0.105
-0.125
-0.205
-0.325
-0.365
-0.325
-0.22
-0.185
-0.12
-0.03
-0.045
-0.125
-0.195
-0.305
-0.405
-0.36
-0.24
-0.15
-0.05
-0.04
-0.08
-0.175
-0.2
-0.315
-0.345
-0.345
-0.26
-0.165
-0.025
-0.035
-0.075
-0.145
-0.22
-0.375
-0.435
-0.405
-0.32
-0.2
-0.06
-0.045
-0.09
-0.145
-0.2
-0.365
-0.355
-0.37
-0.315
-0.27
-0.065
-0.08
-0.12
-0.19
-0.27
-0.415
-0.32
-0.295
-0.235
-0.2
-0.085
-0.13
-0.165
-0.23
-0.25
-0.39
-0.37
-0.33
-0.255
-0.24
-0.075
-0.08
-0.13
-0.225
-0.26
-0.41
-0.37
-0.345
-0.26
-0.21
-0.06
-0.045
-0.14
-0.205
-0.315
-0.43
-0.415
-0.36
-0.285
-0.265
-0.125
-0.115
-0.165
-0.25
-0.3
-0.365
-0.365
-0.275
-0.17
-0.115
0.005
0.005
-0.065
-0.13
-0.24
-0.43
-0.42
-0.345
-0.295
-0.2
-0.04
-0.05
-0.15
-0.25
-0.29
-0.38
-0.37
-0.34
-0.26
-0.195
-0.055
-0.06
-0.115
-0.215
-0.335
-0.46
-0.395
-0.28
-0.225
-0.11
-0.04
-0.075
-0.12
-0.185
-0.29
-0.38
-0.34
-0.27
-0.16
-0.08
0.04
0.0
-0.09
-0.18
-0.27
-0.325
-0.33
-0.25
-0.165
-0.085
0.02
0.025
-0.06
-0.175
-0.27
-0.345
-0.315
-0.17
-0.145
-0.11
-0.075
-0.145
-0.275
-0.3
-0.395
-0.335
-0.365
-0.285
-0.175
-0.05
-0.04
-0.09
-0.18
-0.26
-0.39
-0.39
-0.28
-0.185
-0.145
-0.025
-0.02
-0.08
-0.17
-0.23
-0.39
-0.4
-0.38
-0.26
-0.165
-0.055
-0.06
-0.105
-0.215
-0.28
-0.44
-0.425
-0.41
-0.285
-0.185
0.01
0.01
-0.045
-0.1
-0.12
-0.245
-0.235
-0.2
-0.15
-0.155
-0.01
0.025
0.045
-0.025
-0.1
-0.23
-0.21
-0.235
-0.175
-0.155
-0.055
-0.1
-0.16
-0.25
-0.32
-0.49
-0.49
-0.445
-0.275
-0.205
-0.06
-0.04
-0.095
-0.22
-0.255
-0.375
-0.385
-0.29
-0.2
-0.2
0.015
-0.01
-0.03
-0.125
-0.195
-0.32
-0.295
-0.215
-0.15
-0.125
-0.03
-0.025
-0.09
-0.15
-0.2
-0.315
-0.315
-0.305
-0.23
-0.155
-0.065
-0.045
-0.13
-0.19
-0.235
-0.295
-0.255
-0.18
-0.105
-0.07
0.01
0.02
-0.04
-0.12
-0.215
-0.3
-0.355
-0.295
-0.145
-0.085
0.035
0.03
-0.07
-0.12
-0.25
-0.335
-0.245
-0.15
-0.115
0.035
0.055
-0.01
-0.075
-0.15
-0.265
-0.29
-0.255
-0.145
-0.06
-0.005
0.04
0.045
-0.035
-0.12
-0.23
-0.235
-0.21
-0.145
-0.075
0.055
0.08
0.06
-0.01
-0.05
-0.135
-0.16
-0.13
-0.04
-0.03
0.08
0.125
0.085
0.01
-0.04
-0.185
-0.195
-0.165
-0.065
-0.01
0.15
0.225
0.165
0.065
-0.03
-0.195
-0.165
-0.145
-0.055
-0.005
0.175
0.16
0.09
-0.025
-0.06
-0.16
-0.23
-0.21
-0.16
-0.105
0.04
0.075
-0.005
-0.095
-0.135
-0.28
-0.28
-0.24
-0.16
-0.075
0.055
0.03
-0.02
-0.195
-0.265
-0.41
-0.395
-0.285
-0.205
-0.145
-0.025
-0.005
-0.09
-0.195
-0.26
-0.4
-0.37
-0.325
-0.18
-0.17
-0.04
-0.015
-0.05
-0.175
-0.255
-0.415
-0.4
-0.305
-0.19
-0.135
-0.02
-0.05
-0.165
-0.25
-0.32
-0.38
-0.34
-0.28
-0.16
-0.085
-0.04
-0.06
-0.16
-0.255
-0.285
-0.4
-0.385
-0.245
-0.215
-0.14
-0.08
-0.11
-0.18
-0.21
-0.275
-0.395
-0.315
-0.265
-0.22
-0.14
0.015
-0.045
-0.165
-0.25
-0.325
-0.405
-0.335
-0.235
-0.095
-0.01
0.015
-0.09
-0.19
-0.275
-0.395
-0.45
-0.405
-0.3
-0.16
-0.05
0.025
0.03
-0.07
-0.155
-0.255
-0.37
-0.345
-0.28
-0.22
-0.085
-0.01
-0.065
-0.175
-0.255
-0.375
-0.405
-0.38
-0.24
-0.145
-0.005
-0.035
-0.065
-0.155
-0.225
-0.345
-0.39
-0.355
-0.23
-0.215
-0.08
-0.05
-0.085
-0.16
-0.235
-0.37
-0.35
-0.335
-0.285
-0.18
-0.04
-0.03
-0.145
-0.22
-0.25
-0.375
-0.33
-0.33
-0.19
-0.115
-0.04
-0.035
-0.08
-0.195
-0.205
-0.37
-0.39
-0.365
-0.26
-0.19
-0.03
-0.015
-0.015
-0.115
-0.17
-0.36
-0.395
-0.315
-0.145
-0.11
-0.035
-0.065
-0.1
-0.24
-0.295
-0.405
-0.335
-0.31
-0.215
-0.16
-0.075
-0.035
-0.065
-0.175
-0.25
-0.39
-0.36
-0.23
-0.125
-0.125
-0.01
-0.01
-0.07
-0.195
-0.3
-0.405
-0.37
-0.295
-0.235
-0.185
-0.055
-0.045
-0.08
-0.155
-0.225
-0.3
-0.315
-0.27
-0.18
-0.085
-0.005
-0.055
-0.145
-0.22
-0.285
-0.365
-0.38
-0.26
-0.155
-0.035
0.065
0.06
-0.01
-0.11
-0.15
-0.3
-0.335
-0.24
-0.155
-0.165
-0.035
-0.015
-0.12
-0.165
-0.25
-0.335
-0.305
-0.2
-0.13
-0.1
0.01
-0.03
-0.165
-0.21
-0.31
-0.355
-0.325
-0.215
-0.16
-0.055
0.015
-0.005
-0.105
-0.2
-0.325
-0.405
-0.31
-0.235
-0.175
-0.11
-0.035
-0.03
-0.155
-0.265
-0.38
-0.38
-0.33
-0.235
-0.165
0.0
-0.01
-0.085
-0.17
-0.205
-0.325
-0.365
-0.345
-0.21
-0.14
0.0
0.01
-0.01
-0.105
-0.135
-0.265
-0.25
-0.185
-0.105
-0.08
0.04
0.06
0.015
-0.055
-0.15
-0.265
-0.255
-0.295
-0.235
-0.16
-0.03
-0.08
-0.14
-0.245
-0.355
-0.54
-0.495
-0.41
-0.245
-0.185
-0.04
-0.03
-0.075
-0.185
-0.205
-0.34
-0.335
-0.285
-0.14
-0.06
0.03
-0.035
-0.05
-0.16
-0.215
-0.27
-0.27
-0.29
-0.215
-0.185
-0.055
-0.02
0.0
-0.105
-0.185
-0.365
-0.295
-0.2
-0.065
-0.055
0.035
0.0
-0.085
-0.19
-0.19
-0.31
-0.35
-0.255
-0.145
-0.08
0.015
0.04
-0.025
-0.095
-0.14
-0.26
-0.24
-0.165
-0.125
-0.04
0.035
0.06
0.005
-0.08
-0.175
-0.315
-0.275
-0.215
-0.115
-0.03
0.045
0.01
-0.03
-0.085
-0.15
-0.225
-0.195
-0.08
-0.02
0.025
0.13
0.135
-0.02
-0.08
-0.18
-0.14
-0.155
-0.07
-0.025
0.025
0.1
0.13
0.03
-0.055
-0.12
-0.14
-0.105
-0.02
0.065
0.18
0.25
0.25
0.115
0.035
-0.065
-0.095
-0.07
0.005
0.085
0.26
0.26
0.205
0.05
-0.025
-0.125
-0.145
-0.09
0.03
0.065
0.175
0.195
0.15
0.095
-0.005
-0.1
-0.115
-0.11
-0.065
-0.01
0.155
0.16
0.125
0.005
-0.1
-0.245
-0.25
-0.205
-0.14
-0.13
0.065
0.045
0.02
-0.075
-0.155
-0.305
-0.28
-0.205
-0.11
-0.025
0.09
0.035
-0.065
-0.17
-0.215
-0.37
-0.31
-0.255
-0.11
-0.085
-0.01
-0.02
-0.065
-0.115
-0.115
-0.295
-0.295
-0.255
-0.17
-0.105
0.045
0.065
-0.02
-0.14
-0.2
-0.33
-0.335
-0.225
-0.125
-0.115
-0.005
0.05
0.02
-0.055
-0.11
-0.235
-0.31
-0.28
-0.16
-0.11
0.005
-0.015
-0.105
-0.18
-0.245
-0.305
-0.32
-0.245
-0.17
-0.09
0.005
0.02
-0.02
-0.105
-0.2
-0.33
-0.25
-0.18
-0.135
-0.105
0.035
0.045
-0.015
-0.1
-0.2
-0.29
-0.285
-0.195
-0.12
-0.03
0.065
0.055
-0.045
-0.16
-0.25
-0.31
-0.275
-0.175
-0.11
-0.035
0.045
-0.005
-0.075
-0.105
-0.195
-0.25
-0.31
-0.225
-0.175
-0.05
0.05
0.04
-0.08
-0.19
-0.31
-0.31
-0.29
-0.155
-0.07
-0.005
0.025
-0.015
-0.145
-0.245
-0.35
-0.29
-0.26
-0.175
-0.07
0.065
0.065
0.015
-0.075
-0.12
-0.28
-0.37
-0.27
-0.19
-0.085
0.025
0.075
0.005
-0.085
-0.16
-0.295
-0.275
-0.265
-0.15
-0.15
0.0
0.02
-0.01
-0.135
-0.155
-0.28
-0.275
-0.225
-0.14
-0.16
-0.02
-0.02
-0.1
-0.15
-0.145
-0.305
-0.255
-0.225
-0.14
-0.09
0.035
0.02
-0.05
-0.14
-0.19
-0.335
-0.315
-0.265
-0.14
-0.08
0.08
0.13
0.035
-0.065
-0.125
-0.32
-0.345
-0.28
-0.16
-0.09
0.03
-0.015
-0.125
-0.22
-0.225
-0.35
-0.265
-0.17
-0.09
-0.065
0.09
0.085
0.01
-0.11
-0.23
-0.36
-0.395
-0.33
-0.22
-0.115
0.0
0.025
-0.1
-0.165
-0.2
-0.26
-0.245
-0.19
-0.08
-0.05
0.04
0.005
-0.075
-0.19
-0.22
-0.26
-0.305
-0.18
-0.09
-0.06
0.045
0.1
0.015
-0.1
-0.19
-0.295
-0.3
-0.225
-0.145
-0.05
0.07
0.05
-0.02
-0.085
-0.155
-0.24
-0.205
-0.105
-0.045
0.045
0.11
0.07
0.015
-0.13
-0.24
-0.27
-0.29
-0.155
-0.025
0.045
0.09
0.025
-0.075
-0.185
-0.305
-0.305
-0.29
-0.23
-0.17
-0.045
0.0
0.02
-0.03
-0.115
-0.335
-0.315
-0.255
-0.14
-0.075
0.035
0.015
-0.015
-0.115
-0.155
-0.245
-0.29
-0.28
-0.145
-0.08
-0.01
0.01
0.01
-0.07
-0.14
-0.275
-0.23
-0.23
-0.14
-0.065
0.11
0.08
0.025
-0.065
-0.085
-0.215
-0.25
-0.19
-0.085
-0.025
0.08
0.08
0.07
-0.045
-0.12
-0.285
-0.295
-0.32
-0.235
-0.15
-0.015
-0.07
-0.17
-0.22
-0.23
-0.305
-0.25
-0.195
-0.11
-0.045
0.05
0.04
-0.03
-0.125
-0.165
-0.265
-0.255
-0.22
-0.075
-0.005
0.045
0.04
-0.005
-0.07
-0.13
-0.225
-0.245
-0.155
-0.08
-0.075
0.035
0.04
-0.045
-0.125
-0.15
-0.205
-0.17
-0.065
-0.005
0.005
0.09
0.07
-0.01
-0.11
-0.145
-0.255
-0.295
-0.195
-0.08
0.015
0.11
0.105
-0.015
-0.09
-0.185
-0.225
-0.2
-0.105
-0.01
0.055
0.095
0.11
0.025
-0.035
-0.13
-0.205
-0.185
-0.105
-0.01
0.075
0.155
0.19
0.095
-0.005
-0.125
-0.18
-0.155
-0.035
0.02
0.085
0.155
0.115
0.07
0.055
-0.095
-0.21
-0.155
-0.04
0.03
0.18
0.245
0.24
0.145
0.07
-0.1
-0.11
-0.06
0.055
0.12
0.29
0.285
0.25
0.14
0.07
-0.01
-0.025
-0.04
0.095
0.1
0.25
0.29
0.245
0.145
0.06
-0.06
-0.065
-0.035
0.075
0.13
0.255
0.285
0.175
0.085
0.025
-0.14
-0.11
-0.075
0.025
0.025
0.155
0.2
0.125
-0.005
-0.09
-0.235
-0.22
-0.14
-0.08
-0.03
0.105
0.08
0.08
-0.035
-0.09
-0.21
-0.19
-0.125
-0.02
0.005
0.12
0.07
0.005
-0.115
-0.15
-0.23
-0.24
-0.155
-0.045
-0.015
0.14
0.135
0.05
-0.065
-0.145
-0.255
-0.275
-0.25
-0.095
-0.045
0.0
0.05
0.0
-0.055
-0.12
-0.185
-0.195
-0.12
-0.06
-0.045
0.05
0.04
0.025
-0.055
-0.15
-0.27
-0.225
-0.15
-0.07
0.04
0.115
0.125
0.09
-0.01
-0.135
-0.255
-0.275
-0.2
-0.105
0.0
0.115
0.14
0.005
-0.05
-0.17
-0.255
-0.27
-0.17
-0.03
0.09
0.165
0.125
0.03
-0.02
-0.15
-0.195
-0.205
-0.12
-0.035
0.04
0.115
0.085
0.02
-0.025
-0.155
-0.23
-0.255
-0.125
-0.065
0.045
0.1
0.1
0.005
-0.11
-0.24
-0.205
-0.15
-0.07
0.025
0.19
0.165
0.12
-0.02
-0.085
-0.235
-0.225
-0.195
-0.08
0.01
0.16
0.17
0.095
-0.015
-0.1
-0.24
-0.245
-0.205
-0.065
0.0
0.07
0.08
0.085
0.045
-0.02
-0.165
-0.09
-0.115
-0.06
0.025
0.155
0.075
-0.035
-0.075
-0.115
-0.26
-0.21
-0.145
-0.06
-0.04
0.07
0.1
0.01
-0.065
-0.065
-0.195
-0.23
-0.195
-0.075
-0.045
0.13
0.19
0.17
0.04
-0.085
-0.245
-0.195
-0.14
0.015
0.05
0.17
0.08
-0.02
-0.09
-0.135
-0.275
-0.25
-0.165
-0.04
0.035
0.14
0.11
0.045
-0.005
-0.06
-0.2
-0.205
-0.11
-0.095
-0.045
0.05
0.055
-0.04
-0.085
-0.14
-0.235
-0.185
-0.145
-0.05
0.0
0.105
0.145
0.07
-0.02
-0.085
-0.18
-0.23
-0.18
-0.07
0.035
0.17
0.14
0.035
-0.085
-0.125
-0.245
-0.245
-0.11
-0.02
0.04
0.1
0.06
0.0
-0.09
-0.155
-0.185
-0.145
-0.05
0.05
0.12
0.165
0.135
0.035
-0.03
-0.145
-0.155
-0.165
-0.07
0.055
0.205
0.2
0.135
0.005
-0.03
-0.105
-0.155
-0.105
-0.035
0.03
0.12
0.11
0.095
0.025
-0.055
-0.22
-0.25
-0.21
-0.08
0.03
0.165
0.155
0.075
-0.045
-0.12
-0.245
-0.195
-0.15
-0.03
0.0
0.14
0.14
0.1
-0.04
-0.11
-0.24
-0.245
-0.195
-0.07
-0.06
0.08
0.07
0.095
0.03
-0.07
-0.22
-0.205
-0.15
-0.03
0.055
0.235
0.25
0.18
0.045
-0.025
-0.165
-0.145
-0.045
0.065
0.06
0.145
0.165
0.135
0.055
-0.005
-0.125
-0.05
-0.035
-0.005
0.035
0.185
0.15
0.06
-0.05
-0.125
-0.34
-0.325
-0.225
-0.1
-0.05
0.14
0.15
0.13
0.05
0.02
-0.145
-0.15
-0.08
-0.02
0.045
0.175
0.185
0.08
0.04
-0.04
-0.11
-0.115
-0.065
0.0
0.085
0.205
0.185
0.1
0.01
-0.09
-0.18
-0.16
-0.07
0.04
0.155
0.24
0.19
0.08
0.025
-0.01
-0.11
-0.125
-0.075
0.02
0.115
0.235
0.19
0.1
0.07
0.015
-0.085
-0.095
0.02
0.11
0.12
0.205
0.22
0.135
0.07
-0.045
-0.095
-0.09
0.015
0.085
0.15
0.24
0.23
0.155
0.09
-0.025
-0.115
-0.095
0.04
0.175
0.245
0.28
0.225
0.135
0.065
-0.06
-0.025
0.05
0.135
0.2
0.34
0.385
0.285
0.2
0.14
0.02
0.055
0.095
0.215
0.26
0.35
0.34
0.3
0.225
0.155
0.06
0.095
0.145
0.21
0.26
0.395
0.405
0.37
0.255
0.2
0.045
0.125
0.14
0.185
0.215
0.38
0.37
0.32
0.225
0.17
0.065
0.075
0.095
0.17
0.21
0.335
0.28
0.21
0.11
0.07
-0.11
-0.105
-0.015
0.075
0.09
0.275
0.27
0.165
0.08
0.045
-0.145
-0.145
-0.08
0.06
0.125
0.21
0.215
0.135
0.045
0.04
-0.1
-0.06
-0.02
0.06
0.115
0.24
0.18
0.135
0.035
-0.035
-0.175
-0.175
-0.1
0.02
0.09
0.205
0.205
0.1
0.0
-0.01
-0.07
-0.085
-0.045
0.035
0.105
0.185
0.17
0.075
-0.015
-0.045
-0.135
-0.125
-0.09
-0.04
0.05
0.215
0.245
0.115
0.02
-0.035
-0.09
-0.09
-0.02
0.095
0.21
0.25
0.165
0.09
0.03
-0.06
-0.095
-0.08
0.015
0.065
0.175
0.185
0.145
0.09
0.04
-0.07
-0.09
-0.075
0.025
0.065
0.16
0.225
0.185
0.07
0.03
-0.12
-0.16
-0.11
0.025
0.085
0.185
0.23
0.215
0.09
0.045
-0.095
-0.095
-0.08
0.01
0.04
0.125
0.15
0.135
0.045
0.085
-0.05
-0.04
-0.01
0.065
0.1
0.215
0.175
0.155
0.105
0.04
-0.11
-0.11
-0.1
0.005
0.08
0.26
0.215
0.18
0.065
0.025
-0.16
-0.155
-0.07
0.03
0.1
0.215
0.17
0.2
0.105
0.025
-0.18
-0.18
-0.095
0.025
0.085
0.245
0.3
0.175
0.03
-0.04
-0.145
-0.105
-0.075
0.03
0.055
0.23
0.225
0.205
0.13
0.07
-0.155
-0.145
-0.065
0.04
0.165
0.295
0.265
0.125
0.035
0.005
-0.12
-0.12
-0.085
-0.01
0.06
0.175
0.23
0.155
0.06
-0.02
-0.07
-0.08
-0.035
0.09
0.14
0.205
0.185
0.125
0.03
-0.055
-0.16
-0.05
0.085
0.175
0.215
0.26
0.21
0.135
0.115
0.015
-0.085
-0.05
0.02
0.07
0.13
0.215
0.19
0.11
0.085
0.025
-0.05
-0.085
-0.005
0.03
0.14
0.23
0.185
0.105
0.01
-0.135
-0.16
-0.105
-0.005
0.055
0.255
0.295
0.135
0.07
0.0
-0.11
-0.1
-0.06
0.0
0.085
0.235
0.205
0.145
0.02
-0.02
-0.09
-0.07
-0.07
0.0
0.005
0.14
0.18
0.18
0.08
0.01
-0.11
-0.1
-0.005
0.12
0.17
0.3
0.3
0.27
0.13
0.095
-0.015
0.02
0.04
0.14
0.21
0.345
0.3
0.18
0.08
-0.055
-0.195
-0.195
-0.13
-0.09
-0.035
0.17
0.14
0.1
0.01
-0.05
-0.175
-0.15
-0.08
0.08
0.105
0.215
0.21
0.13
0.035
0.02
-0.135
-0.115
-0.055
0.065
0.075
0.2
0.185
0.12
0.01
-0.015
-0.095
-0.07
0.03
0.11
0.12
0.26
0.265
0.175
0.105
0.11
-0.045
-0.1
-0.065
0.12
0.165
0.24
0.18
0.115
0.03
0.05
-0.035
-0.09
0.01
0.115
0.155
0.22
0.24
0.135
0.005
-0.09
-0.17
-0.105
-0.02
0.08
0.19
0.285
0.325
0.275
0.175
0.095
0.0
-0.035
0.055
0.16
0.215
0.27
0.27
0.19
0.135
0.09
0.065
0.05
0.125
0.16
0.205
0.3
0.34
0.255
0.17
0.06
0.045
0.04
0.12
0.25
0.34
0.435
0.42
0.3
0.21
0.085
0.08
0.105
0.205
0.24
0.33
0.395
0.375
0.33
0.265
0.105
0.1
0.16
0.275
0.335
0.445
0.46
0.43
0.35
0.265
0.14
0.08
0.04
0.12
0.205
0.31
0.325
0.32
0.23
0.155
0.01
0.015
0.06
0.14
0.125
0.275
0.33
0.3
0.185
0.075
-0.095
-0.035
0.02
0.095
0.08
0.25
0.235
0.195
0.085
0.065
-0.09
-0.09
-0.02
0.03
0.105
0.28
0.245
0.15
0.05
0.02
-0.11
-0.125
-0.065
0.05
0.08
0.235
0.27
0.21
0.095
0.06
-0.065
0.015
0.01
0.035
0.055
0.185
0.215
0.22
0.14
0.03
-0.065
-0.02
0.055
0.095
0.12
0.17
0.185
0.13
0.06
0.01
-0.135
-0.175
-0.085
0.03
0.095
0.265
0.22
0.155
0.055
-0.005
-0.095
-0.13
-0.015
0.095
0.1
0.19
0.24
0.15
0.075
0.015
-0.09
-0.075
0.0
0.175
0.24
0.3
0.29
0.145
0.075
0.005
-0.085
-0.075
0.03
0.13
0.195
0.305
0.285
0.165
0.085
-0.05
-0.115
-0.135
-0.01
0.125
0.165
0.22
0.19
0.105
0.07
-0.03
-0.075
-0.035
0.075
0.1
0.235
0.255
0.265
0.155
0.115
-0.025
-0.065
-0.065
0.055
0.115
0.255
0.295
0.23
0.15
0.095
-0.065
-0.085
-0.085
-0.045
0.035
0.18
0.21
0.205
0.105
0.065
-0.09
-0.08
-0.065
0.05
0.12
0.27
0.275
0.265
0.14
0.075
-0.085
-0.11
-0.05
0.065
0.115
0.24
0.26
0.25
0.125
0.065
-0.08
-0.055
-0.01
0.13
0.185
0.275
0.25
0.215
0.14
0.09
-0.025
-0.025
-0.045
0.055
0.12
0.28
0.24
0.19
0.075
0.0
-0.155
-0.155
-0.075
0.05
0.105
0.25
0.275
0.19
0.065
0.01
-0.065
-0.02
0.05
0.165
0.205
0.355
0.365
0.235
0.105
0.075
-0.07
-0.055
0.01
0.115
0.175
0.315
0.345
0.275
0.16
0.095
-0.015
-0.035
-0.035
0.07
0.17
0.31
0.305
0.165
0.005
-0.05
-0.105
-0.105
-0.015
0.065
0.09
0.195
0.195
0.125
0.05
-0.005
-0.11
-0.035
0.04
0.12
0.195
0.26
0.25
0.155
0.055
-0.04
-0.08
-0.105
-0.005
0.11
0.18
0.245
0.205
0.125
0.045
-0.02
-0.07
-0.03
0.07
0.125
0.195
0.29
0.275
0.26
0.155
0.0
-0.03
0.03
0.14
0.185
0.3
0.32
0.315
0.245
0.2
0.095
0.1
0.055
0.09
0.15
0.25
0.24
0.135
-0.045
-0.1
-0.22
-0.215
-0.095
0.0
0.09
0.245
0.295
0.27
0.145
0.09
-0.075
-0.1
-0.08
0.04
0.1
0.225
0.265
0.245
0.15
0.08
-0.04
-0.02
0.02
0.105
0.125
0.275
0.245
0.215
0.125
0.095
-0.02
-0.03
0.005
0.14
0.19
0.32
0.29
0.275
0.21
0.135
-0.025
-0.025
0.03
0.19
0.25
0.335
0.31
0.24
0.14
0.1
-0.045
-0.045
0.035
0.12
0.185
0.325
0.315
0.24
0.165
0.13
0.005
0.055
0.135
0.21
0.21
0.345
0.34
0.245
0.155
0.1
-0.025
-0.025
0.045
0.2
0.27
0.375
0.425
0.315
0.18
0.125
0.07
0.125
0.235
0.305
0.37
0.46
0.47
0.375
0.26
0.255
0.165
0.125
0.25
0.36
0.42
0.48
0.47
0.41
0.255
0.18
0.145
0.19
0.305
0.39
0.445
0.49
0.455
0.39
0.335
0.23
0.175
0.18
0.265
0.315
0.35
0.43
0.43
0.35
0.285
0.19
0.115
0.155
0.22
0.275
0.405
0.425
0.44
0.325
0.23
0.07
0.005
0.07
0.175
0.225
0.37
0.385
0.33
0.235
0.155
0.035
0.015
0.045
0.125
0.175
0.245
0.28
0.245
0.18
0.15
0.02
0.02
0.06
0.14
0.23
0.365
0.31
0.255
0.12
0.03
-0.095
-0.035
0.0
0.13
0.125
0.26
0.325
0.3
0.195
0.13
-0.01
0.03
0.065
0.125
0.15
0.295
0.305
0.27
0.135
0.1
-0.045
-0.02
0.065
0.155
0.185
0.34
0.36
0.29
0.155
0.17
-0.015
-0.04
0.03
0.125
0.195
0.33
0.36
0.27
0.13
0.085
-0.07
-0.03
0.03
0.135
0.18
0.365
0.38
0.29
0.185
0.115
0.015
-0.02
0.07
0.18
0.275
0.4
0.345
0.285
0.17
0.08
-0.035
0.02
0.085
0.125
0.205
0.36
0.33
0.28
0.16
0.1
-0.02
-0.045
0.06
0.19
0.245
0.31
0.355
0.27
0.195
0.105
0.01
-0.005
0.09
0.22
0.275
0.395
0.42
0.31
0.145
0.06
-0.03
-0.005
0.11
0.155
0.205
0.345
0.34
0.275
0.175
0.105
0.025
0.045
0.115
0.21
0.295
0.36
0.31
0.21
0.12
0.005
-0.005
-0.01
0.115
0.19
0.305
0.34
0.335
0.22
0.16
0.085
0.015
0.035
0.125
0.19
0.32
0.285
0.275
0.245
0.2
0.095
0.035
0.03
0.1
0.165
0.315
0.33
0.31
0.19
0.105
0.025
0.03
0.085
0.15
0.23
0.39
0.33
0.27
0.18
0.135
0.01
0.005
0.045
0.185
0.265
0.405
0.38
0.31
0.26
0.19
-0.015
0.0
0.03
0.13
0.22
0.36
0.295
0.215
0.205
0.21
0.045
0.025
0.025
0.1
0.18
0.335
0.335
0.265
0.18
0.185
0.035
-0.005
0.085
0.215
0.27
0.385
0.37
0.33
0.185
0.1
-0.05
-0.02
0.08
0.19
0.17
0.34
0.405
0.34
0.19
0.1
0.03
0.065
0.115
0.215
0.275
0.38
0.415
0.325
0.22
0.14
0.035
0.095
0.185
0.265
0.315
0.39
0.415
0.29
0.205
0.115
0.075
0.06
0.15
0.285
0.39
0.485
0.415
0.295
0.18
0.115
0.06
0.03
0.1
0.23
0.24
0.315
0.275
0.185
0.135
0.095
0.03
0.04
0.08
0.17
0.29
0.395
0.385
0.275
0.19
0.07
0.005
0.055
0.18
0.23
0.34
0.37
0.33
0.255
0.19
0.065
-0.005
0.025
0.135
0.245
0.355
0.34
0.305
0.19
0.155
0.105
0.145
0.14
0.195
0.265
0.375
0.39
0.32
0.275
0.21
0.075
0.075
0.105
0.275
0.36
0.415
0.405
0.31
0.155
0.07
-0.055
-0.035
-0.02
0.07
0.135
0.31
0.32
0.25
0.21
0.19
0.065
0.13
0.12
0.19
0.255
0.395
0.365
0.285
0.215
0.185
0.07
0.05
0.12
0.185
0.21
0.36
0.38
0.32
0.19
0.195
0.1
0.135
0.21
0.25
0.255
0.395
0.37
0.27
0.165
0.165
0.085
0.13
0.165
0.215
0.26
0.43
0.37
0.295
0.24
0.245
0.11
0.12
0.19
0.27
0.315
0.465
0.47
0.325
0.215
0.15
0.06
0.075
0.19
0.24
0.325
0.45
0.43
0.345
0.23
0.14
0.095
0.125
0.215
0.3
0.375
0.495
0.515
0.475
0.31
0.18
0.11
0.105
0.21
0.32
0.385
0.49
0.505
0.395
0.31
0.23
0.2
0.255
0.32
0.375
0.495
0.565
0.56
0.43
0.395
0.295
0.215
0.235
0.34
0.45
0.51
0.575
0.59
0.485
0.395
0.32
0.31
0.305
0.31
0.4
0.49
0.575
0.565
0.455
0.365
0.24
0.265
0.28
0.325
0.35
0.46
0.53
0.49
0.425
0.315
0.155
0.185
0.25
0.365
0.37
0.45
0.43
0.355
0.275
0.215
0.085
0.135
0.17
0.24
0.285
0.38
0.385
0.385
0.29
0.26
0.11
0.08
0.105
0.19
0.24
0.395
0.36
0.35
0.29
0.24
0.115
0.065
0.09
0.195
0.235
0.365
0.385
0.34
0.24
0.2
0.075
0.04
0.165
0.295
0.345
0.475
0.43
0.355
0.255
0.23
0.065
0.045
0.09
0.145
0.155
0.32
0.365
0.3
0.225
0.18
0.1
0.105
0.125
0.205
0.28
0.41
0.44
0.36
0.26
0.21
0.08
0.095
0.16
0.235
0.305
0.425
0.435
0.34
0.255
0.17
0.095
0.065
0.155
0.215
0.295
0.415
0.395
0.31
0.235
0.155
0.09
0.105
0.185
0.28
0.37
0.46
0.445
0.355
0.29
0.2
0.11
0.035
0.06
0.145
0.295
0.42
0.395
0.29
0.265
0.165
0.11
0.13
0.205
0.275
0.36
0.41
0.33
0.29
0.21
0.085
0.05
0.105
0.24
0.32
0.41
0.43
0.355
0.28
0.265
0.14
0.09
0.155
0.265
0.285
0.37
0.39
0.33
0.24
0.175
0.04
0.045
0.08
0.215
0.305
0.375
0.415
0.39
0.27
0.175
0.09
0.15
0.125
0.22
0.27
0.395
0.405
0.39
0.275
0.285
0.15
0.14
0.115
0.23
0.285
0.44
0.385
0.405
0.305
0.255
0.125
0.115
0.16
0.235
0.21
0.41
0.43
0.365
0.275
0.21
0.015
0.03
0.1
0.235
0.3
0.445
0.43
0.34
0.22
0.21
0.05
0.07
0.145
0.27
0.305
0.45
0.5
0.41
0.26
0.19
0.075
0.06
0.1
0.195
0.25
0.405
0.44
0.34
0.26
0.24
0.125
0.095
0.175
0.285
0.3
0.395
0.435
0.335
0.24
0.15
0.02
0.07
0.18
0.235
0.29
0.415
0.425
0.35
0.22
0.17
0.125
0.115
0.175
0.25
0.345
0.48
0.475
0.35
0.295
0.26
0.16
0.145
0.195
0.305
0.365
0.46
0.475
0.36
0.205
0.165
0.125
0.12
0.185
0.245
0.35
0.45
0.435
0.385
0.295
0.185
0.135
0.12
0.235
0.32
0.435
0.465
0.46
0.395
0.325
0.19
0.11
0.14
0.26
0.37
0.455
0.5
0.45
0.355
0.27
0.13
0.175
0.155
0.265
0.33
0.44
0.44
0.395
0.275
0.17
0.06
0.12
0.125
0.26
0.385
0.485
0.415
0.335
0.25
0.245
0.12
0.105
0.085
0.195
0.285
0.41
0.4
0.4
0.285
0.28
0.125
0.135
0.15
0.25
0.31
0.45
0.43
0.395
0.32
0.255
0.115
0.195
0.275
0.32
0.375
0.535
0.525
0.45
0.4
0.43
0.235
0.215
0.28
0.405
0.42
0.505
0.475
0.435
0.27
0.205
0.085
0.055
0.025
0.1
0.16
0.345
0.38
0.365
0.3
0.31
0.17
0.14
0.25
0.335
0.395
0.475
0.475
0.39
0.26
0.23
0.17
0.175
0.235
0.28
0.365
0.475
0.485
0.435
0.33
0.28
0.155
0.15
0.265
0.36
0.42
0.505
0.475
0.43
0.32
0.26
0.165
0.195
0.3
0.295
0.35
0.435
0.46
0.42
0.35
0.295
0.185
0.23
0.28
0.335
0.425
0.485
0.435
0.33
0.34
0.285
0.195
0.25
0.32
0.41
0.49
0.58
0.545
0.455
0.385
0.305
0.225
0.2
0.3
0.365
0.53
0.61
0.57
0.46
0.38
0.31
0.29
0.315
0.375
0.425
0.56
0.62
0.555
0.48
0.4
0.3
0.32
0.34
0.4
0.47
0.605
0.645
0.605
0.53
0.45
0.34
0.345
0.415
0.495
0.54
0.65
0.71
0.655
0.525
0.425
0.325
0.38
0.43
0.545
0.58
0.705
0.73
0.68
0.54
0.445
0.29
0.33
0.375
0.47
0.51
0.655
0.575
0.515
0.435
0.39
0.215
0.21
0.215
0.33
0.38
0.505
0.55
0.455
0.375
0.325
0.175
0.185
0.225
0.33
0.39
0.48
0.46
0.435
0.33
0.265
0.12
0.155
0.25
0.375
0.41
0.57
0.54
0.45
0.34
0.28
0.155
0.185
0.245
0.33
0.38
0.495
0.46
0.385
0.285
0.25
0.175
0.175
0.24
0.315
0.345
0.445
0.435
0.355
0.27
0.205
0.125
0.13
0.215
0.28
0.355
0.49
0.455
0.34
0.315
0.23
0.105
0.11
0.21
0.35
0.405
0.505
0.525
0.445
0.32
0.245
0.195
0.215
0.28
0.34
0.435
0.52
0.52
0.43
0.31
0.18
0.175
0.14
0.24
0.35
0.42
0.5
0.465
0.42
0.295
0.135
0.11
0.18
0.245
0.31
0.37
0.445
0.4
0.335
0.3
0.195
0.205
0.24
0.35
0.385
0.47
0.5
0.46
0.375
0.315
0.195
0.185
0.17
0.255
0.35
0.54
0.51
0.485
0.37
0.3
0.2
0.185
0.205
0.305
0.36
0.485
0.495
0.445
0.345
0.285
0.13
0.115
0.145
0.27
0.37
0.51
0.47
0.405
0.33
0.285
0.145
0.185
0.225
0.32
0.38
0.495
0.525
0.435
0.345
0.32
0.155
0.155
0.225
0.32
0.335
0.45
0.45
0.395
0.315
0.26
0.105
0.135
0.2
0.325
0.34
0.47
0.46
0.39
0.285
0.275
0.095
0.065
0.23
0.39
0.43
0.59
0.58
0.445
0.325
0.28
0.165
0.165
0.2
0.3
0.345
0.435
0.465
0.39
0.24
0.21
0.13
0.135
0.23
0.385
0.43
0.515
0.465
0.375
0.26
0.195
0.125
0.135
0.21
0.33
0.42
0.545
0.525
0.45
0.345
0.28
0.165
0.135
0.245
0.315
0.405
0.5
0.525
0.42
0.415
0.36
0.28
0.24
0.265
0.37
0.465
0.56
0.55
0.455
0.345
0.225
0.16
0.125
0.215
0.31
0.455
0.53
0.475
0.34
0.245
0.14
0.15
0.15
0.28
0.305
0.45
0.47
0.49
0.375
0.295
0.125
0.105
0.15
0.25
0.33
0.46
0.505
0.435
0.315
0.22
0.105
0.12
0.165
0.26
0.34
0.475
0.5
0.44
0.31
0.26
0.135
0.18
0.2
0.34
0.405
0.555
0.495
0.445
0.41
0.41
0.25
0.22
0.235
0.345
0.475
0.66
0.61
0.55
0.43
0.37
0.185
0.18
0.195
0.22
0.23
0.4
0.36
0.305
0.225
0.215
0.03
0.04
0.145
0.24
0.36
0.485
0.495
0.45
0.35
0.29
0.095
0.115
0.175
0.295
0.33
0.49
0.49
0.425
0.32
0.285
0.145
0.19
0.245
0.35
0.355
0.47
0.505
0.445
0.33
0.26
0.165
0.145
0.24
0.33
0.43
0.515
0.46
0.425
0.355
0.295
0.23
0.215
0.265
0.385
0.42
0.44
0.44
0.345
0.285
0.22
0.185
0.18
0.29
0.39
0.425
0.54
0.54
0.44
0.355
0.23
0.175
0.205
0.3
0.395
0.47
0.535
0.52
0.405
0.34
0.28
0.275
0.29
0.33
0.4
0.525
0.625
0.545
0.43
0.42
0.29
0.27
0.32
0.355
0.42
0.535
0.605
0.58
0.535
0.495
0.375
0.34
0.375
0.445
0.535
0.655
0.65
0.66
0.51
0.435
0.3
0.345
0.33
0.4
0.49
0.64
0.67
0.66
0.6
0.545
0.385
0.355
0.405
0.45
0.5
0.625
0.615
0.615
0.5
0.405
0.265
0.26
0.285
0.39
0.465
0.625
0.57
0.475
0.36
0.27
0.12
0.155
0.21
0.335
0.36
0.455
0.485
0.46
0.355
0.31
0.205
0.16
0.195
0.255
0.32
0.5
0.455
0.46
0.4
0.295
0.105
0.105
0.16
0.26
0.32
0.495
0.465
0.35
0.22
0.225
0.13
0.1
0.17
0.285
0.32
0.445
0.495
0.405
0.285
0.23
0.095
0.095
0.165
0.28
0.315
0.46
0.47
0.415
0.305
0.245
0.16
0.15
0.2
0.305
0.37
0.46
0.4
0.32
0.25
0.175
0.07
0.095
0.15
0.265
0.405
0.475
0.44
0.345
0.24
0.21
0.115
0.135
0.24
0.295
0.375
0.47
0.445
0.34
0.28
0.205
0.1
0.15
0.255
0.315
0.375
0.41
0.38
0.32
0.215
0.155
0.125
0.13
0.235
0.295
0.405
0.48
0.44
0.31
0.23
0.17
0.14
0.115
0.225
0.3
0.375
0.425
0.425
0.35
0.265
0.115
0.105
0.135
0.225
0.25
0.345
0.4
0.435
0.325
0.245
0.065
0.08
0.095
0.19
0.275
0.42
0.43
0.34
0.205
0.18
0.07
0.125
0.155
0.235
0.31
0.48
0.48
0.435
0.295
0.25
0.1
0.12
0.13
0.235
0.27
0.355
0.38
0.34
0.245
0.235
0.115
0.095
0.14
0.225
0.22
0.415
0.41
0.34
0.255
0.255
0.05
0.06
0.105
0.215
0.22
0.385
0.4
0.31
0.225
0.175
0.055
0.065
0.17
0.295
0.32
0.475
0.5
0.405
0.26
0.175
0.03
0.045
0.12
0.225
0.27
0.405
0.37
0.315
0.265
0.21
0.085
0.125
0.235
0.29
0.28
0.385
0.37
0.255
0.12
0.11
0.04
0.055
0.145
0.25
0.35
0.455
0.38
0.31
0.24
0.17
0.06
0.08
0.23
0.285
0.32
0.4
0.355
0.26
0.195
0.16
0.08
0.06
0.15
0.235
0.33
0.425
0.435
0.33
0.18
0.075
0.015
0.055
0.155
0.22
0.355
0.41
0.415
0.33
0.23
0.12
0.08
0.08
0.155
0.22
0.345
0.425
0.415
0.28
0.2
0.085
0.08
0.145
0.22
0.23
0.37
0.445
0.395
0.33
0.295
0.16
0.115
0.125
0.21
0.3
0.41
0.425
0.375
0.285
0.26
0.145
0.14
0.155
0.275
0.33
0.465
0.445
0.415
0.26
0.205
0.115
0.11
0.095
0.215
0.305
0.425
0.415
0.345
0.25
0.23
0.07
0.055
0.085
0.185
0.265
0.425
0.44
0.385
0.275
0.265
0.105
0.08
0.12
0.195
0.28
0.38
0.355
0.33
0.21
0.145
0.09
0.11
0.135
0.28
0.325
0.45
0.43
0.32
0.26
0.21
0.075
0.15
0.23
0.315
0.4
0.52
0.47
0.35
0.255
0.205
0.08
0.06
0.15
0.28
0.385
0.505
0.49
0.44
0.315
0.235
0.07
0.07
0.15
0.195
0.21
0.285
0.315
0.265
0.175
0.165
0.09
0.115
0.23
0.36
0.4
0.45
0.435
0.375
0.29
0.21
0.09
0.115
0.23
0.305
0.405
0.48
0.455
0.355
0.255
0.2
0.135
0.16
0.25
0.345
0.41
0.4
0.42
0.37
0.255
0.17
0.125
0.2
0.265
0.33
0.39
0.455
0.495
0.38
0.29
0.18
0.17
0.21
0.29
0.305
0.43
0.5
0.47
0.345
0.295
0.165
0.18
0.25
0.365
0.41
0.47
0.51
0.49
0.41
0.385
0.23
0.14
0.155
0.315
0.315
0.445
0.505
0.485
0.415
0.41
0.255
0.225
0.255
0.365
0.42
0.545
0.525
0.51
0.42
0.345
0.245
0.255
0.265
0.405
0.5
0.615
0.61
0.57
0.5
0.465
0.285
0.34
0.395
0.415
0.495
0.705
0.685
0.595
0.53
0.47
0.35
0.36
0.42
0.525
0.505
0.665
0.605
0.5
0.36
0.4
0.345
0.365
0.43
0.505
0.48
0.59
0.62
0.56
0.475
0.41
0.25
0.28
0.315
0.4
0.48
0.61
0.605
0.47
0.375
0.28
0.135
0.15
0.26
0.365
0.415
0.475
0.47
0.415
0.36
0.25
0.155
0.205
0.265
0.35
0.435
0.48
0.48
0.39
0.32
0.24
0.11
0.105
0.225
0.395
0.445
0.49
0.455
0.395
0.315
0.19
0.16
0.185
0.265
0.385
0.485
0.55
0.495
0.325
0.2
0.155
0.155
0.15
0.285
0.36
0.435
0.545
0.505
0.365
0.315
0.215
0.15
0.11
0.225
0.335
0.465
0.51
0.515
0.435
0.3
0.175
0.15
0.155
0.27
0.365
0.48
0.505
0.455
0.33
0.305
0.22
0.215
0.24
0.3
0.375
0.5
0.51
0.455
0.37
0.285
0.165
0.19
0.255
0.365
0.41
0.525
0.525
0.46
0.35
0.32
0.175
0.175
0.22
0.325
0.36
0.51
0.535
0.425
0.36
0.32
0.165
0.21
0.305
0.34
0.355
0.495
0.505
0.49
0.39
0.33
0.15
0.145
0.155
0.3
0.37
0.49
0.55
0.475
0.39
0.335
0.18
0.17
0.29
0.36
0.37
0.515
0.52
0.44
0.365
0.3
0.175
0.145
0.265
0.4
0.39
0.515
0.54
0.455
0.325
0.265
0.175
0.17
0.225
0.335
0.445
0.535
0.45
0.33
0.235
0.185
0.09
0.055
0.115
0.235
0.325
0.4
0.425
0.355
0.255
0.175
0.07
0.09
0.175
0.305
0.41
0.405
0.4
0.275
0.185
0.155
0.05
0.1
0.195
0.21
0.27
0.365
0.355
0.305
0.25
0.175
0.13
0.165
0.195
0.23
0.35
0.41
0.41
0.295
0.22
0.09
0.035
0.08
0.18
0.25
0.32
0.345
0.325
0.25
0.17
0.065
0.09
0.095
0.2
0.23
0.365
0.4
0.39
0.265
0.19
0.0
0.025
0.09
0.225
0.26
0.36
0.385
0.37
0.255
0.21
0.11
0.145
0.085
0.17
0.24
0.365
0.39
0.355
0.235
0.14
-0.015
0.005
0.135
0.25
0.3
0.455
0.4
0.33
0.2
0.13
-0.02
0.05
0.095
0.245
0.295
0.445
0.425
0.34
0.27
0.175
-0.01
0.015
0.075
0.245
0.295
0.415
0.4
0.365
0.225
0.19
0.16
0.16
0.215
0.285
0.32
0.415
0.39
0.33
0.25
0.22
0.1
0.115
0.23
0.325
0.405
0.48
0.48
0.42
0.29
0.17
0.025
0.075
0.185
0.275
0.34
0.475
0.46
0.335
0.24
0.195
0.115
0.105
0.17
0.235
0.26
0.39
0.405
0.325
0.2
0.14
0.07
0.07
0.175
0.255
0.34
0.435
0.44
0.365
0.305
0.19
0.145
0.155
0.22
0.29
0.355
0.38
0.3
0.27
0.23
0.2
0.11
0.125
0.195
0.27
0.365
0.455
0.445
0.37
0.315
0.24
0.165
0.185
0.255
0.365
0.47
0.515
0.515
0.44
0.38
0.22
0.165
0.155
0.22
0.23
0.325
0.37
0.335
0.205
0.13
0.045
0.065
0.09
0.2
0.31
0.485
0.51
0.455
0.335
0.295
0.18
0.17
0.19
0.24
0.31
0.43
0.445
0.435
0.35
0.26
0.145
0.19
0.24
0.355
0.37
0.47
0.455
0.43
0.34
0.31
0.21
0.215
0.205
0.24
0.25
0.445
0.455
0.43
0.39
0.33
0.18
0.185
0.235
0.35
0.38
0.5
0.495
0.455
0.365
0.33
0.215
0.185
0.22
0.31
0.385
0.575
0.575
0.515
0.465
0.34
0.165
0.205
0.28
0.375
0.405
0.535
0.505
0.465
0.35
0.345
0.23
0.245
0.345
0.435
0.49
0.61
0.61
0.53
0.44
0.355
0.245
0.255
0.34
0.43
0.475
0.635
0.675
0.59
0.505
0.45
0.36
0.355
0.385
0.475
0.59
0.71
0.7
0.645
0.59
0.475
0.36
0.42
0.485
0.535
0.645
0.735
0.715
0.62
0.535
0.405
0.33
0.4
0.475
0.58
0.615
0.72
0.695
0.565
0.485
0.41
0.34
0.365
0.43
0.48
0.535
0.595
0.57
0.47
0.4
0.275
0.23
0.265
0.345
0.395
0.53
0.55
0.485
0.43
0.4
0.27
0.27
0.3
0.335
0.415
0.575
0.555
0.535
0.445
0.395
0.255
0.24
0.215
0.29
0.33
0.47
0.545
0.505
0.405
0.335
0.235
0.235
0.25
0.365
0.41
0.535
0.535
0.51
0.405
0.405
0.205
0.165
0.21
0.355
0.42
0.595
0.61
0.56
0.405
0.305
0.205
0.215
0.215
0.335
0.465
0.585
0.565
0.52
0.38
0.33
0.17
0.175
0.235
0.36
0.42
0.6
0.61
0.54
0.39
0.405
0.29
0.295
0.32
0.37
0.42
0.61
0.595
0.535
0.465
0.4
0.325
0.295
0.305
0.395
0.45
0.58
0.615
0.515
0.42
0.365
0.245
0.285
0.365
0.45
0.51
0.625
0.62
0.55
0.43
0.35
0.3
0.37
0.49
0.525
0.575
0.63
0.515
0.455
0.36
0.325
0.275
0.265
0.38
0.47
0.58
0.715
0.69
0.54
0.435
0.355
0.285
0.325
0.39
0.455
0.545
0.625
0.635
0.52
0.44
0.38
0.3
0.305
0.395
0.51
0.555
0.615
0.635
0.53
0.48
0.335
0.27
0.305
0.435
0.51
0.615
0.65
0.58
0.485
0.44
0.355
0.34
0.335
0.37
0.385
0.545
0.66
0.63
0.565
0.495
0.375
0.34
0.375
0.485
0.56
0.64
0.655
0.565
0.485
0.415
0.28
0.345
0.425
0.5
0.535
0.625
0.61
0.56
0.5
0.435
0.32
0.37
0.375
0.48
0.54
0.63
0.62
0.595
0.515
0.475
0.355
0.365
0.365
0.395
0.47
0.635
0.645
0.585
0.49
0.465
0.335
0.33
0.405
0.505
0.55
0.715
0.665
0.595
0.545
0.495
0.38
0.41
0.395
0.53
0.58
0.72
0.715
0.63
0.545
0.495
0.42
0.48
0.51
0.54
0.565
0.7
0.705
0.67
0.54
0.495
0.385
0.325
0.425
0.535
0.605
0.655
0.615
0.545
0.48
0.48
0.355
0.315
0.355
0.445
0.53
0.665
0.675
0.595
0.475
0.44
0.355
0.315
0.39
0.52
0.605
0.69
0.68
0.64
0.53
0.45
0.34
0.345
0.41
0.505
0.57
0.635
0.61
0.57
0.515
0.43
0.365
0.405
0.49
0.545
0.66
0.76
0.695
0.615
0.595
0.54
0.445
0.45
0.52
0.585
0.74
0.78
0.75
0.66
0.57
0.435
0.425
0.405
0.455
0.46
0.53
0.555
0.555
0.405
0.335
0.18
0.2
0.28
0.39
0.505
0.64
0.655
0.635
0.535
0.445
0.31
0.315
0.295
0.395
0.49
0.65
0.685
0.63
0.56
0.53
0.365
0.41
0.45
0.55
0.545
0.65
0.61
0.56
0.515
0.46
0.305
0.325
0.365
0.49
0.54
0.675
0.695
0.665
0.515
0.375
0.275
0.315
0.385
0.5
0.505
0.675
0.71
0.635
0.53
0.5
0.3
0.31
0.35
0.48
0.56
0.675
0.7
0.67
0.54
0.53
0.415
0.4
0.46
0.575
0.585
0.715
0.685
0.625
0.555
0.47
0.315
0.33
0.445
0.58
0.6
0.745
0.8
0.73
0.655
0.625
0.505
0.51
0.58
0.665
0.695
0.76
0.75
0.71
0.645
0.56
0.47
0.515
0.61
0.705
0.755
0.825
0.855
0.78
0.715
0.65
0.545
0.535
0.635
0.735
0.835
0.935
0.89
0.81
0.705
0.64
0.515
0.5
0.61
0.725
0.83
0.85
0.8
0.73
0.66
0.575
0.545
0.545
0.6
0.635
0.695
0.735
0.715
0.62
0.565
0.44
0.415
0.4
0.515
0.61
0.735
0.75
0.695
0.615
0.515
0.395
0.335
0.365
0.43
0.49
0.615
0.665
0.665
0.555
0.49
0.35
0.34
0.33
0.46
0.525
0.635
0.67
0.64
0.585
0.505
0.41
0.42
0.415
0.515
0.595
0.68
0.665
0.58
0.46
0.41
0.3
0.325
0.375
0.535
0.585
0.68
0.65
0.665
0.52
0.42
0.31
0.335
0.4
0.525
0.58
0.69
0.705
0.615
0.475
0.45
0.305
0.32
0.395
0.485
0.525
0.71
0.715
0.64
0.49
0.45
0.355
0.37
0.44
0.51
0.565
0.72
0.695
0.61
0.52
0.485
0.395
0.365
0.435
0.525
0.595
0.685
0.685
0.6
0.475
0.46
0.385
0.38
0.445
0.535
0.56
0.65
0.67
0.6
0.56
0.51
0.35
0.405
0.505
0.58
0.665
0.77
0.735
0.6
0.505
0.455
0.34
0.33
0.39
0.495
0.545
0.665
0.72
0.655
0.535
0.435
0.35
0.31
0.42
0.495
0.55
0.68
0.65
0.565
0.51
0.445
0.35
0.35
0.5
0.56
0.61
0.67
0.66
0.54
0.47
0.405
0.365
0.395
0.54
0.655
0.65
0.675
0.635
0.505
0.42
0.35
0.345
0.4
0.51
0.595
0.685
0.715
0.68
0.555
0.475
0.325
0.265
0.33
0.5
0.585
0.675
0.64
0.635
0.535
0.485
0.38
0.355
0.38
0.48
0.53
0.6
0.63
0.645
0.51
0.46
0.34
0.415
0.445
0.515
0.525
0.68
0.66
0.635
0.56
0.53
0.4
0.395
0.415
0.465
0.51
0.66
0.65
0.57
0.465
0.47
0.34
0.315
0.39
0.56
0.59
0.685
0.645
0.555
0.475
0.44
0.325
0.32
0.39
0.52
0.555
0.695
0.69
0.62
0.555
0.445
0.275
0.33
0.41
0.51
0.59
0.73
0.705
0.63
0.5
0.42
0.295
0.305
0.44
0.575
0.615
0.775
0.72
0.595
0.525
0.455
0.375
0.4
0.48
0.54
0.66
0.735
0.675
0.595
0.535
0.405
0.265
0.325
0.505
0.58
0.615
0.72
0.695
0.585
0.5
0.45
0.34
0.31
0.415
0.52
0.575
0.625
0.59
0.535
0.49
0.47
0.405
0.415
0.475
0.495
0.545
0.66
0.605
0.56
0.48
0.385
0.285
0.24
0.365
0.49
0.6
0.63
0.615
0.585
0.47
0.335
0.33
0.39
0.49
0.58
0.705
0.73
0.68
0.59
0.52
0.405
0.395
0.41
0.535
0.605
0.675
0.67
0.715
0.62
0.48
0.355
0.33
0.335
0.425
0.46
0.565
0.555
0.505
0.43
0.45
0.345
0.315
0.375
0.5
0.525
0.685
0.66
0.595
0.525
0.45
0.31
0.34
0.355
0.425
0.495
0.64
0.66
0.685
0.575
0.53
0.39
0.385
0.405
0.485
0.525
0.635
0.595
0.615
0.57
0.555
0.425
0.395
0.42
0.5
0.54
0.69
0.71
0.675
0.56
0.5
0.39
0.385
0.47
0.555
0.55
0.605
0.605
0.59
0.48
0.47
0.385
0.44
0.465
0.565
0.6
0.73
0.74
0.595
0.52
0.505
0.365
0.38
0.44
0.56
0.615
0.715
0.735
0.675
0.6
0.525
0.4
0.415
0.51
0.585
0.67
0.77
0.79
0.715
0.595
0.505
0.45
0.445
0.57
0.64
0.64
0.75
0.815
0.755
0.63
0.56
0.485
0.53
0.61
0.645
0.725
0.795
0.745
0.69
0.64
0.585
0.535
0.58
0.7
0.75
0.805
0.89
0.83
0.73
0.64
0.515
0.495
0.47
0.585
0.645
0.785
0.87
0.835
0.735
0.665
0.515
0.475
0.44
0.545
0.555
0.68
0.72
0.705
0.585
0.53
0.39
0.35
0.36
0.44
0.51
0.685
0.715
0.59
0.505
0.44
0.37
0.34
0.365
0.49
0.545
0.655
0.68
0.65
0.565
0.5
0.345
0.32
0.38
0.51
0.525
0.595
0.615
0.63
0.505
0.385
0.295
0.37
0.46
0.505
0.54
0.655
0.605
0.525
0.465
0.46
0.325
0.32
0.355
0.45
0.49
0.68
0.63
0.575
0.44
0.41
0.295
0.355
0.39
0.475
0.53
0.655
0.665
0.625
0.505
0.46
0.35
0.315
0.385
0.465
0.485
0.615
0.605
0.575
0.495
0.435
0.325
0.275
0.365
0.48
0.585
0.675
0.685
0.585
0.415
0.435
0.335
0.32
0.37
0.495
0.585
0.715
0.695
0.58
0.45
0.345
0.245
0.3
0.365
0.44
0.56
0.65
0.64
0.6
0.525
0.46
0.345
0.315
0.365
0.455
0.56
0.68
0.665
0.605
0.49
0.395
0.305
0.335
0.42
0.455
0.535
0.66
0.66
0.56
0.475
0.385
0.305
0.32
0.45
0.57
0.62
0.625
0.57
0.485
0.425
0.305
0.245
0.285
0.41
0.47
0.66
0.695
0.665
0.525
0.405
0.26
0.245
0.255
0.335
0.395
0.54
0.6
0.62
0.56
0.505
0.3
0.33
0.35
0.465
0.525
0.655
0.645
0.57
0.48
0.45
0.345
0.33
0.31
0.43
0.525
0.65
0.67
0.56
0.415
0.38
0.27
0.265
0.29
0.325
0.4
0.585
0.6
0.6
0.535
0.44
0.295
0.305
0.38
0.5
0.49
0.625
0.605
0.52
0.41
0.375
0.21
0.24
0.325
0.475
0.525
0.675
0.645
0.59
0.44
0.465
0.325
0.295
0.33
0.42
0.435
0.535
0.525
0.54
0.425
0.395
0.265
0.26
0.355
0.455
0.5
0.605
0.59
0.49
0.395
0.37
0.32
0.325
0.42
0.485
0.51
0.64
0.645
0.55
0.48
0.44
0.35
0.385
0.445
0.505
0.56
0.65
0.63
0.49
0.445
0.425
0.355
0.365
0.455
0.52
0.555
0.59
0.6
0.57
0.475
0.41
0.325
0.335
0.41
0.5
0.57
0.575
0.6
0.535
0.465
0.375
0.31
0.35
0.395
0.465
0.565
0.64
0.595
0.51
0.51
0.38
0.32
0.36
0.46
0.505
0.59
0.635
0.6
0.49
0.415
0.315
0.245
0.265
0.375
0.46
0.565
0.58
0.595
0.515
0.455
0.275
0.27
0.315
0.405
0.46
0.605
0.67
0.625
0.54
0.495
0.395
0.37
0.395
0.465
0.555
0.69
0.715
0.71
0.595
0.55
0.41
0.44
0.465
0.515
0.575
0.625
0.515
0.49
0.41
0.36
0.18
0.155
0.2
0.33
0.365
0.57
0.615
0.575
0.475
0.485
0.32
0.295
0.335
0.455
0.49
0.645
0.655
0.6
0.475
0.38
0.25
0.23
0.31
0.44
0.545
0.69
0.7
0.62
0.52
0.495
0.345
0.335
0.4
0.465
0.495
0.63
0.635
0.6
0.515
0.445
0.33
0.335
0.43
0.56
0.585
0.645
0.625
0.565
0.505
0.45
0.33
0.365
0.465
0.56
0.58
0.69
0.685
0.615
0.555
0.47
0.34
0.365
0.47
0.55
0.62
0.71
0.765
0.685
0.6
0.48
0.365
0.37
0.46
0.545
0.635
0.805
0.79
0.685
0.615
0.52
0.43
0.475
0.535
0.61
0.71
0.775
0.72
0.66
0.61
0.565
0.47
0.495
0.63
0.73
0.81
0.8
0.79
0.705
0.605
0.56
0.565
0.55
0.65
0.72
0.84
0.885
0.86
0.815
0.72
0.55
0.56
0.61
0.635
0.61
0.775
0.775
0.735
0.685
0.61
0.495
0.54
0.55
0.61
0.635
0.725
0.695
0.7
0.615
0.53
0.47
0.43
0.415
0.435
0.51
0.715
0.74
0.705
0.615
0.54
0.365
0.355
0.405
0.47
0.54
0.695
0.72
0.63
0.5
0.42
0.29
0.305
0.35
0.455
0.55
0.67
0.645
0.605
0.515
0.495
0.375
0.375
0.405
0.505
0.525
0.695
0.7
0.585
0.44
0.44
0.28
0.245
0.35
0.49
0.52
0.67
0.62
0.55
0.495
0.44
0.295
0.315
0.4
0.485
0.54
0.695
0.68
0.605
0.49
0.51
0.385
0.305
0.38
0.485
0.53
0.605
0.59
0.54
0.48
0.42
0.325
0.37
0.425
0.515
0.545
0.65
0.675
0.61
0.535
0.465
0.325
0.29
0.385
0.5
0.6
0.695
0.66
0.55
0.47
0.415
0.305
0.33
0.44
0.51
0.58
0.68
0.685
0.61
0.545
0.415
0.365
0.41
0.49
0.555
0.63
0.675
0.685
0.55
0.45
0.34
0.275
0.29
0.365
0.48
0.625
0.64
0.645
0.595
0.52
0.38
0.295
0.305
0.485
0.57
0.645
0.65
0.555
0.46
0.41
0.345
0.39
0.38
0.435
0.515
0.665
0.69
0.675
0.6
0.52
0.355
0.3
0.35
0.44
0.52
0.62
0.625
0.645
0.535
0.485
0.29
0.26
0.345
0.455
0.535
0.68
0.655
0.62
0.505
0.44
0.31
0.34
0.4
0.465
0.48
0.67
0.655
0.605
0.505
0.47
0.33
0.31
0.365
0.48
0.53
0.685
0.75
0.64
0.5
0.455
0.25
0.29
0.355
0.415
0.5
0.67
0.675
0.61
0.565
0.495
0.33
0.355
0.455
0.575
0.61
0.68
0.665
0.61
0.495
0.45
0.375
0.345
0.415
0.545
0.6
0.7
0.665
0.58
0.465
0.405
0.285
0.295
0.37
0.48
0.525
0.675
0.645
0.49
0.44
0.43
0.31
0.33
0.43
0.565
0.61
0.605
0.605
0.535
0.44
0.365
0.295
0.32
0.39
0.49
0.505
0.55
0.54
0.485
0.4
0.36
0.285
0.32
0.415
0.465
0.555
0.62
0.6
0.535
0.44
0.345
0.34
0.4
0.485
0.6
0.685
0.73
0.695
0.58
0.525
0.335
0.355
0.465
0.58
0.65
0.715
0.715
0.615
0.525
0.39
0.265
0.25
0.27
0.33
0.37
0.48
0.5
0.5
0.45
0.385
0.23
0.255
0.34
0.45
0.465
0.595
0.62
0.58
0.435
0.425
0.375
0.385
0.36
0.445
0.46
0.565
0.585
0.58
0.5
0.51
0.345
0.325
0.37
0.47
0.465
0.64
0.685
0.62
0.515
0.465
0.335
0.32
0.36
0.47
0.525
0.67
0.65
0.63
0.525
0.415
0.32
0.38
0.385
0.515
0.525
0.685
0.69
0.565
0.475
0.435
0.315
0.365
0.41
0.51
0.535
0.69
0.71
0.595
0.48
0.475
0.37
0.37
0.46
0.54
0.61
0.75
0.725
0.625
0.51
0.505
0.38
0.41
0.495
0.605
0.61
0.72
0.755
0.715
0.59
0.53
0.47
0.465
0.58
0.68
0.725
0.855
0.815
0.73
0.645
0.565
0.515
0.5
0.57
0.68
0.765
0.85
0.845
0.77
0.65
0.615
0.52
0.52
0.6
0.715
0.765
0.825
0.85
0.775
0.66
0.535
0.49
0.51
0.575
0.645
0.75
0.815
0.81
0.665
0.575
0.47
0.45
0.46
0.51
0.56
0.665
0.73
0.71
0.63
0.56
0.405
0.355
0.395
0.435
0.485
0.585
0.605
0.595
0.515
0.47
0.32
0.29
0.29
0.41
0.525
0.63
0.63
0.655
0.575
0.46
0.255
0.27
0.24
0.33
0.44
0.61
0.6
0.56
0.47
0.43
0.315
0.335
0.35
0.46
0.495
0.625
0.635
0.62
0.5
0.44
0.325
0.31
0.365
0.48
0.54
0.67
0.63
0.575
0.46
0.385
0.275
0.34
0.355
0.445
0.52
0.685
0.695
0.575
0.455
0.39
0.28
0.25
0.325
0.42
0.46
0.55
0.57
0.51
0.415
0.385
0.28
0.335
0.41
0.51
0.54
0.67
0.665
0.55
0.48
0.43
0.265
0.255
0.38
0.465
0.535
0.68
0.71
0.545
0.485
0.4
0.26
0.295
0.415
0.51
0.525
0.6
0.59
0.545
0.44
0.375
0.285
0.225
0.33
0.47
0.56
0.625
0.58
0.505
0.375
0.335
0.285
0.3
0.4
0.48
0.555
0.635
0.605
0.56
0.445
0.355
0.265
0.235
0.33
0.41
0.505
0.59
0.56
0.47
0.385
0.3
0.285
0.3
0.38
0.445
0.515
0.59
0.585
0.475
0.405
0.255
0.23
0.265
0.385
0.455
0.545
0.565
0.575
0.425
0.39
0.3
0.31
0.355
0.41
0.405
0.515
0.57
0.535
0.475
0.42
0.325
0.33
0.365
0.45
0.51
0.605
0.55
0.47
0.41
0.345
0.285
0.31
0.285
0.4
0.435
0.555
0.555
0.485
0.395
0.34
0.19
0.26
0.325
0.44
0.47
0.625
0.58
0.51
0.435
0.425
0.28
0.285
0.265
0.365
0.46
0.61
0.635
0.54
0.445
0.42
0.275
0.245
0.27
0.375
0.445
0.6
0.64
0.59
0.49
0.465
0.295
0.29
0.33
0.42
0.5
0.625
0.62
0.55
0.435
0.335
0.215
0.28
0.36
0.425
0.455
0.64
0.58
0.515
0.43
0.365
0.235
0.27
0.39
0.485
0.46
0.585
0.57
0.53
0.43
0.335
0.225
0.205
0.245
0.305
0.46
0.605
0.585
0.49
0.375
0.285
0.225
0.235
0.325
0.365
0.435
0.525
0.515
0.425
0.395
0.305
0.21
0.235
0.295
0.47
0.52
0.56
0.555
0.49
0.41
0.285
0.25
0.295
0.405
0.48
0.52
0.62
0.625
0.52
0.455
0.41
0.385
0.41
0.43
0.44
0.5
0.48
0.415
0.265
0.245
0.09
0.04
0.095
0.24
0.325
0.515
0.56
0.57
0.455
0.36
0.185
0.16
0.205
0.345
0.4
0.55
0.595
0.54
0.405
0.385
0.24
0.265
0.285
0.38
0.45
0.565
0.545
0.485
0.42
0.415
0.3
0.31
0.315
0.375
0.455
0.57
0.55
0.52
0.47
0.42
0.235
0.225
0.325
0.405
0.415
0.6
0.605
0.56
0.445
0.385
0.2
0.19
0.29
0.39
0.435
0.615
0.595
0.485
0.35
0.34
0.23
0.27
0.35
0.445
0.525
0.645
0.62
0.54
0.45
0.395
0.26
0.29
0.35
0.445
0.5
0.645
0.62
0.565
0.46
0.405
0.24
0.27
0.375
0.495
0.52
0.68
0.705
0.605
0.47
0.465
0.375
0.385
0.455
0.56
0.595
0.705
0.7
0.605
0.47
0.425
0.355
0.415
0.52
0.62
0.67
0.785
0.795
0.655
0.53
0.44
0.31
0.33
0.46
0.58
0.66
0.7
0.645
0.605
0.51
0.455
0.35
0.33
0.44
0.475
0.555
0.65
0.59
0.545
0.495
0.29
0.275
0.23
0.285
0.395
0.46
0.53
0.555
0.455
0.355
0.245
0.22
0.265
0.35
0.48
0.57
0.585
0.535
0.36
0.315
0.175
0.15
0.13
0.27
0.345
0.47
0.52
0.48
0.4
0.35
0.22
0.21
0.235
0.34
0.39
0.52
0.54
0.455
0.325
0.29
0.165
0.135
0.15
0.26
0.34
0.49
0.49
0.475
0.325
0.265
0.13
0.15
0.205
0.325
0.335
0.49
0.535
0.5
0.375
0.315
0.18
0.23
0.29
0.345
0.35
0.465
0.475
0.455
0.34
0.33
0.165
0.155
0.22
0.345
0.39
0.48
0.485
0.45
0.325
0.295
0.165
0.155
0.21
0.335
0.345
0.445
0.5
0.44
0.325
0.27
0.185
0.195
0.24
0.305
0.355
0.51
0.53
0.43
0.365
0.285
0.12
0.11
0.225
0.32
0.395
0.51
0.51
0.365
0.26
0.275
0.215
0.215
0.295
0.375
0.4
0.46
0.465
0.35
0.245
0.24
0.13
0.125
0.265
0.41
0.495
0.495
0.375
0.34
0.255
0.155
0.12
0.175
0.27
0.335
0.385
0.455
0.415
0.305
0.24
0.175
0.125
0.13
0.205
0.28
0.41
0.455
0.37
0.245
0.22
0.125
0.165
0.2
0.265
0.36
0.475
0.48
0.41
0.305
0.22
0.115
0.16
0.215
0.275
0.325
0.43
0.475
0.455
0.375
0.295
0.155
0.14
0.17
0.275
0.285
0.39
0.395
0.38
0.31
0.225
0.085
0.1
0.11
0.17
0.25
0.46
0.445
0.425
0.36
0.23
0.01
0.075
0.105
0.275
0.32
0.405
0.375
0.335
0.285
0.245
0.095
0.125
0.145
0.235
0.315
0.485
