# TIPE ECG 2021 - ECG-ID Database v1.0.0 par Physionet
# [Numéro de la personne, Période d'échantillonnage, Prénom, Age, Sexe, Date de l'enregistrement]
[14, 0.002, Kerry, 21, H, 26.04.2005]
1.195
1.225
1.24
1.34
1.36
1.545
1.58
1.5
1.425
1.36
1.255
1.285
1.325
1.4
1.395
1.525
1.485
1.47
1.4
1.345
1.27
1.27
1.285
1.345
1.375
1.505
1.525
1.535
1.445
1.405
1.24
1.27
1.295
1.355
1.41
1.555
1.485
1.48
1.435
1.38
1.235
1.25
1.315
1.36
1.39
1.5
1.485
1.42
1.345
1.325
1.27
1.24
1.305
1.34
1.375
1.505
1.515
1.485
1.39
1.355
1.2
1.205
1.315
1.405
1.415
1.515
1.495
1.4
1.345
1.32
1.29
1.34
1.37
1.445
1.49
1.565
1.57
1.495
1.43
1.375
1.325
1.285
1.345
1.415
1.45
1.585
1.595
1.51
1.48
1.405
1.29
1.255
1.325
1.42
1.55
1.675
1.65
1.59
1.51
1.4
1.35
1.325
1.335
1.38
1.485
1.555
1.6
1.485
1.395
1.3
1.29
1.275
1.335
1.4
1.53
1.56
1.545
1.455
1.385
1.265
1.255
1.215
1.255
1.32
1.44
1.46
1.45
1.335
1.285
1.17
1.185
1.19
1.305
1.345
1.41
1.39
1.35
1.32
1.3
1.16
1.215
1.175
1.215
1.245
1.35
1.365
1.37
1.325
1.27
1.125
1.115
1.1
1.215
1.285
1.43
1.355
1.375
1.24
1.18
1.08
1.07
1.125
1.165
1.265
1.435
1.44
1.395
1.295
1.22
1.075
1.065
1.08
1.155
1.255
1.38
1.345
1.285
1.26
1.215
1.085
1.08
1.12
1.195
1.185
1.285
1.295
1.27
1.215
1.2
1.055
1.11
1.115
1.16
1.21
1.34
1.295
1.26
1.27
1.21
1.09
1.045
1.095
1.165
1.215
1.325
1.375
1.305
1.215
1.15
1.07
1.055
1.125
1.195
1.2
1.295
1.34
1.285
1.165
1.13
1.025
1.05
1.115
1.185
1.175
1.28
1.305
1.235
1.195
1.12
1.03
1.07
1.075
1.155
1.23
1.31
1.31
1.19
1.12
1.01
0.965
0.995
1.045
1.095
1.225
1.35
1.355
1.23
1.145
1.07
1.07
1.095
1.145
1.14
1.225
1.315
1.27
1.15
1.12
1.01
0.99
1.01
1.12
1.175
1.235
1.26
1.255
1.15
1.16
1.005
1.035
1.025
1.055
1.125
1.28
1.295
1.295
1.19
1.155
1.005
0.965
0.98
1.03
1.03
1.215
1.23
1.22
1.115
1.06
0.95
0.975
0.98
1.08
1.115
1.195
1.21
1.175
1.08
1.1
0.95
0.96
1.03
1.085
1.085
1.245
1.21
1.145
1.07
1.04
0.915
0.93
1.025
1.09
1.135
1.22
1.175
1.13
1.07
1.065
0.975
0.955
0.975
1.03
1.035
1.175
1.185
1.14
1.07
1.065
0.9
0.935
1.0
1.09
1.05
1.1
1.105
1.11
1.115
1.08
0.965
0.91
0.96
1.01
1.02
1.17
1.165
1.105
1.065
1.035
0.925
0.925
0.975
1.015
1.06
1.17
1.15
1.07
1.02
0.99
0.86
0.835
0.915
0.98
1.015
1.125
1.18
1.08
1.005
0.99
0.88
0.855
0.97
1.08
1.11
1.14
1.155
1.135
1.085
1.005
0.905
0.87
0.955
1.01
1.135
1.23
1.13
1.055
1.01
0.93
0.87
0.9
0.955
1.005
1.095
1.135
1.15
1.04
0.99
0.915
0.91
0.925
0.935
1.01
1.08
1.09
1.03
0.98
1.035
0.955
0.905
0.905
0.96
1.0
1.08
1.06
1.03
1.03
1.065
0.93
0.93
0.89
0.93
1.03
1.145
1.145
1.165
1.065
1.005
0.89
0.89
0.88
0.975
1.085
1.19
1.21
1.24
1.105
1.025
0.86
0.855
0.865
0.99
1.065
1.18
1.115
1.08
1.02
0.99
0.835
0.815
0.855
0.975
0.96
1.075
1.095
1.035
0.995
0.99
0.805
0.79
0.82
0.92
0.975
1.08
1.055
1.04
0.99
0.925
0.785
0.855
0.8
0.855
0.965
1.085
1.09
1.01
0.925
0.92
0.795
0.755
0.715
0.845
0.92
1.05
1.12
1.05
1.0
0.935
0.83
0.795
0.86
0.975
1.02
1.06
1.075
0.975
0.97
0.965
0.875
0.945
0.97
0.975
1.015
1.1
1.035
0.905
0.815
0.82
0.7
0.66
0.72
0.85
0.93
1.035
1.045
1.01
0.925
0.83
0.75
0.765
0.79
0.84
0.95
1.035
1.04
0.955
0.91
0.81
0.735
0.735
0.815
0.88
0.995
1.045
1.04
1.01
1.0
0.85
0.755
0.8
0.885
0.895
0.945
0.99
1.035
0.985
0.9
0.77
0.765
0.77
0.865
0.935
1.045
1.09
1.07
1.01
0.985
0.845
0.785
0.785
0.86
0.905
0.995
1.06
0.995
0.955
0.955
0.775
0.71
0.82
0.955
0.96
1.1
1.13
1.055
0.95
0.91
0.775
0.795
0.855
0.94
0.97
1.075
1.06
1.08
0.975
0.945
0.825
0.875
0.89
0.96
0.995
1.155
1.095
1.085
1.05
1.04
0.88
0.865
0.86
0.925
0.965
1.135
1.19
1.125
1.07
1.095
0.95
0.905
0.98
1.11
1.05
1.135
1.17
1.135
1.01
0.955
0.865
0.885
0.95
1.02
1.085
1.2
1.14
1.1
1.03
0.97
0.8
0.74
0.795
0.93
1.02
1.075
1.03
0.97
0.91
0.82
0.735
0.755
0.805
0.895
0.945
1.05
1.025
0.93
0.82
0.785
0.75
0.73
0.78
0.81
0.865
0.955
0.945
0.905
0.855
0.805
0.71
0.615
0.695
0.805
0.88
0.97
0.97
0.89
0.79
0.72
0.665
0.64
0.725
0.81
0.86
0.965
0.98
0.92
0.855
0.725
0.725
0.74
0.77
0.795
0.86
0.93
0.955
0.875
0.77
0.62
0.6
0.65
0.76
0.87
0.97
1.015
1.005
0.88
0.785
0.71
0.695
0.68
0.74
0.81
0.91
0.91
0.915
0.875
0.8
0.65
0.66
0.655
0.7
0.745
0.845
0.87
0.86
0.825
0.78
0.665
0.715
0.74
0.81
0.82
0.97
0.98
0.955
0.89
0.775
0.635
0.7
0.685
0.76
0.775
0.8
0.855
0.89
0.82
0.81
0.67
0.635
0.665
0.77
0.815
0.955
0.93
0.93
0.835
0.725
0.615
0.64
0.7
0.785
0.825
0.94
0.945
0.86
0.75
0.755
0.7
0.705
0.735
0.805
0.84
0.95
0.92
0.9
0.87
0.835
0.7
0.645
0.74
0.815
0.83
0.94
0.95
0.935
0.87
0.78
0.655
0.63
0.69
0.745
0.8
0.93
0.945
0.885
0.875
0.805
0.735
0.725
0.775
0.82
0.89
1.015
1.005
0.88
0.79
0.715
0.63
0.695
0.745
0.785
0.895
0.965
0.94
0.9
0.87
0.78
0.65
0.615
0.685
0.78
0.82
0.945
0.97
0.95
0.855
0.775
0.71
0.73
0.77
0.825
0.895
0.97
0.925
0.835
0.82
0.695
0.68
0.67
0.765
0.85
0.96
1.015
1.04
0.95
0.845
0.74
0.695
0.64
0.77
0.865
0.95
0.995
0.975
0.91
0.88
0.765
0.725
0.7
0.76
0.83
0.98
1.03
1.01
0.915
0.845
0.735
0.7
0.725
0.84
0.87
1.0
1.01
0.965
0.8
0.75
0.695
0.72
0.775
0.85
0.86
1.0
0.97
0.945
0.86
0.8
0.74
0.765
0.73
0.84
0.905
1.07
1.035
0.99
0.93
0.875
0.71
0.67
0.685
0.795
0.895
1.005
1.065
1.025
0.92
0.835
0.7
0.75
0.82
0.89
0.905
0.98
0.98
0.98
0.945
0.93
0.81
0.8
0.825
0.86
0.89
1.065
1.09
1.065
1.005
0.98
0.85
0.83
0.835
0.915
0.975
1.075
1.085
1.03
0.96
0.9
0.75
0.8
0.78
0.775
0.905
1.07
1.05
0.97
0.915
0.855
0.805
0.815
0.885
0.94
0.985
1.02
1.045
1.045
0.965
0.88
0.8
0.76
0.8
0.88
0.89
1.045
1.04
1.0
0.92
0.85
0.865
0.81
0.885
0.95
1.03
1.085
1.095
1.085
1.005
0.89
0.82
0.865
0.955
1.005
1.14
1.205
1.14
1.04
0.94
0.83
0.755
0.735
0.82
0.81
0.85
0.865
0.89
0.84
0.765
0.625
0.63
0.695
0.755
0.775
0.91
0.96
0.96
0.895
0.885
0.77
0.775
0.75
0.88
0.905
1.04
1.05
0.975
0.9
0.84
0.735
0.73
0.775
0.855
0.9
1.06
1.085
1.05
0.935
0.895
0.795
0.765
0.72
0.84
0.9
1.02
0.995
0.98
0.935
0.855
0.715
0.725
0.735
0.86
0.93
1.04
1.015
0.95
0.865
0.875
0.69
0.695
0.78
0.915
0.875
1.02
1.12
1.08
0.915
0.86
0.73
0.76
0.855
0.905
0.915
1.005
1.055
1.025
0.955
0.97
0.83
0.78
0.8
0.905
1.03
1.105
1.075
1.015
0.96
0.92
0.8
0.79
0.9
0.985
1.005
1.155
1.135
1.02
0.915
0.85
0.735
0.78
0.915
1.04
1.045
1.1
1.095
1.05
0.995
0.905
0.83
0.84
0.935
0.94
0.96
1.05
1.06
1.085
0.97
0.88
0.835
0.83
0.91
0.92
0.96
1.07
1.035
0.93
0.91
0.83
0.74
0.765
0.81
0.85
0.885
0.925
0.9
0.83
0.755
0.66
0.57
0.61
0.75
0.835
0.89
0.925
0.93
0.85
0.8
0.67
0.59
0.635
0.715
0.78
0.85
0.935
0.935
0.8
0.765
0.68
0.72
0.7
0.75
0.79
0.855
0.93
0.9
0.845
0.795
0.68
0.63
0.68
0.795
0.805
0.88
0.855
0.87
0.88
0.82
0.615
0.6
0.675
0.72
0.765
0.895
0.88
0.855
0.74
0.655
0.55
0.625
0.695
0.745
0.785
0.92
0.915
0.91
0.785
0.69
0.63
0.725
0.74
0.815
0.78
0.9
0.925
0.915
0.825
0.81
0.62
0.665
0.715
0.76
0.81
0.925
0.955
0.94
0.865
0.885
0.715
0.67
0.74
0.855
0.835
0.92
0.895
0.845
0.8
0.77
0.62
0.63
0.73
0.835
0.845
0.945
0.965
0.87
0.78
0.75
0.685
0.71
0.75
0.845
0.835
0.915
0.93
0.895
0.88
0.815
0.705
0.66
0.735
0.815
0.865
0.955
0.985
0.875
0.795
0.745
0.725
0.775
0.79
0.88
0.935
0.91
0.885
0.88
0.76
0.69
0.68
0.72
0.78
0.825
0.885
0.94
0.935
0.9
0.835
0.69
0.595
0.675
0.74
0.815
0.915
0.99
0.955
0.875
0.81
0.745
0.68
0.7
0.75
0.815
0.96
1.005
1.055
1.035
0.975
0.775
0.63
0.585
0.675
0.68
0.78
0.975
0.965
0.9
0.835
0.725
0.69
0.6
0.725
0.835
0.955
0.96
0.935
0.815
0.78
0.7
0.69
0.68
0.74
0.795
0.95
0.95
0.905
0.845
0.785
0.695
0.73
0.735
0.725
0.785
0.975
0.97
0.925
0.835
0.835
0.715
0.63
0.655
0.775
0.775
0.895
0.92
0.995
0.85
0.855
0.71
0.63
0.695
0.81
0.785
0.93
0.95
0.92
0.895
0.785
0.61
0.65
0.755
0.875
0.88
0.975
0.96
0.925
0.855
0.85
0.755
0.74
0.77
0.835
0.91
1.01
0.965
0.92
0.885
0.865
0.765
0.755
0.81
0.855
0.865
0.955
0.975
0.875
0.84
0.83
0.755
0.77
0.765
0.86
0.96
1.085
1.03
0.955
0.865
0.8
0.725
0.74
0.795
0.825
0.92
0.95
0.935
0.87
0.815
0.825
0.72
0.7
0.78
0.825
0.865
0.975
0.925
0.895
0.835
0.735
0.675
0.635
0.715
0.795
0.87
0.98
0.975
0.875
0.78
0.685
0.65
0.56
0.565
0.675
0.855
0.935
0.885
0.855
0.755
0.655
0.62
0.575
0.685
0.775
0.925
0.96
0.9
0.805
0.78
0.66
0.595
0.645
0.72
0.8
0.95
0.96
0.985
0.9
0.82
0.7
0.775
0.74
0.735
0.765
0.87
0.79
0.68
0.65
0.67
0.515
0.45
0.475
0.61
0.68
0.855
0.855
0.815
0.795
0.73
0.595
0.585
0.65
0.69
0.665
0.815
0.805
0.745
0.71
0.67
0.475
0.495
0.565
0.675
0.725
0.865
0.85
0.8
0.71
0.715
0.585
0.59
0.65
0.7
0.755
0.87
0.885
0.845
0.705
0.675
0.575
0.605
0.65
0.665
0.71
0.89
0.875
0.815
0.765
0.69
0.595
0.575
0.6
0.645
0.73
0.895
0.89
0.77
0.705
0.715
0.62
0.63
0.665
0.69
0.705
0.83
0.81
0.755
0.715
0.71
0.645
0.63
0.71
0.765
0.78
0.86
0.895
0.855
0.755
0.71
0.675
0.685
0.76
0.88
0.94
1.04
1.035
0.93
0.815
0.7
0.625
0.665
0.845
0.855
0.915
0.98
0.965
0.935
0.855
0.82
0.8
0.755
0.8
0.9
1.01
0.995
0.955
0.875
0.845
0.795
0.69
0.71
0.8
0.815
0.95
0.935
1.0
0.96
0.905
0.685
0.59
0.655
0.765
0.785
0.91
0.9
0.875
0.805
0.77
0.615
0.62
0.69
0.695
0.73
0.87
0.865
0.83
0.78
0.76
0.57
0.525
0.56
0.605
0.585
0.735
0.775
0.795
0.71
0.66
0.525
0.545
0.52
0.595
0.66
0.85
0.895
0.88
0.735
0.67
0.475
0.55
0.6
0.605
0.6
0.775
0.83
0.805
0.685
0.675
0.505
0.545
0.575
0.595
0.635
0.81
0.775
0.715
0.69
0.615
0.46
0.51
0.505
0.61
0.655
0.745
0.75
0.695
0.62
0.57
0.455
0.47
0.5
0.54
0.585
0.74
0.735
0.7
0.66
0.625
0.495
0.51
0.64
0.725
0.685
0.745
0.795
0.72
0.66
0.6
0.51
0.55
0.57
0.65
0.74
0.77
0.8
0.72
0.645
0.56
0.44
0.405
0.535
0.59
0.665
0.745
0.775
0.68
0.69
0.645
0.575
0.51
0.54
0.57
0.665
0.725
0.7
0.62
0.61
0.575
0.54
0.515
0.57
0.675
0.715
0.77
0.745
0.665
0.575
0.465
0.455
0.525
0.61
0.635
0.72
0.8
0.765
0.69
0.635
0.535
0.435
0.425
0.485
0.56
0.695
0.765
0.735
0.665
0.725
0.605
0.52
0.525
0.59
0.62
0.815
0.82
0.73
0.575
0.525
0.445
0.465
0.535
0.635
0.71
0.855
0.825
0.745
0.67
0.59
0.47
0.53
0.5
0.59
0.64
0.775
0.805
0.745
0.665
0.595
0.405
0.46
0.555
0.61
0.665
0.815
0.765
0.675
0.615
0.6
0.495
0.53
0.535
0.58
0.595
0.74
0.765
0.75
0.645
0.645
0.57
0.545
0.595
0.69
0.685
0.79
0.75
0.72
0.725
0.645
0.495
0.505
0.5
0.6
0.67
0.78
0.84
0.79
0.685
0.685
0.54
0.495
0.555
0.655
0.7
0.805
0.81
0.74
0.655
0.585
0.515
0.495
0.55
0.635
0.725
0.835
0.79
0.71
0.665
0.625
0.525
0.54
0.62
0.74
0.72
0.81
0.815
0.78
0.71
0.65
0.515
0.545
0.61
0.665
0.685
0.76
0.78
0.735
0.77
0.695
0.595
0.61
0.615
0.705
0.765
0.81
0.855
0.825
0.785
0.665
0.57
0.555
0.61
0.68
0.77
0.77
0.765
0.74
0.68
0.595
0.595
0.65
0.71
0.755
0.815
0.865
0.795
0.715
0.655
0.535
0.455
0.455
0.56
0.65
0.8
0.835
0.775
0.74
0.66
0.52
0.525
0.535
0.63
0.63
0.795
0.835
0.775
0.66
0.635
0.525
0.54
0.55
0.605
0.625
0.735
0.775
0.765
0.645
0.645
0.52
0.515
0.585
0.65
0.64
0.785
0.74
0.74
0.69
0.69
0.625
0.615
0.64
0.7
0.765
0.915
0.92
0.92
0.84
0.77
0.555
0.48
0.485
0.595
0.61
0.725
0.675
0.56
0.51
0.53
0.44
0.475
0.595
0.645
0.67
0.77
0.785
0.745
0.695
0.655
0.495
0.52
0.575
0.65
0.67
0.84
0.845
0.76
0.64
0.605
0.465
0.455
0.565
0.64
0.66
0.77
0.83
0.82
0.775
0.685
0.525
0.465
0.61
0.695
0.73
0.85
0.815
0.715
0.685
0.625
0.52
0.525
0.6
0.63
0.69
0.775
0.83
0.77
0.67
0.585
0.455
0.51
0.575
0.665
0.73
0.795
0.775
0.735
0.665
0.57
0.525
0.54
0.605
0.63
0.685
0.79
0.8
0.725
0.67
0.615
0.59
0.565
0.625
0.675
0.8
0.805
0.74
0.705
0.655
0.595
0.595
0.59
0.67
0.72
0.86
0.885
0.905
0.815
0.725
0.585
0.54
0.57
0.66
0.76
0.895
0.89
0.93
0.86
0.805
0.615
0.67
0.705
0.775
0.77
0.87
0.885
0.895
0.75
0.695
0.57
0.615
0.64
0.68
0.715
0.825
0.775
0.77
0.675
0.625
0.485
0.445
0.49
0.55
0.595
0.755
0.785
0.72
0.66
0.615
0.4
0.385
0.43
0.565
0.58
0.71
0.685
0.68
0.6
0.515
0.405
0.405
0.44
0.555
0.655
0.705
0.695
0.63
0.54
0.555
0.425
0.36
0.42
0.48
0.52
0.635
0.665
0.665
0.585
0.515
0.38
0.38
0.405
0.52
0.55
0.695
0.68
0.625
0.535
0.525
0.41
0.385
0.43
0.555
0.575
0.68
0.69
0.59
0.47
0.385
0.37
0.39
0.445
0.525
0.57
0.685
0.72
0.635
0.54
0.465
0.405
0.44
0.495
0.515
0.605
0.67
0.625
0.585
0.53
0.445
0.38
0.43
0.535
0.55
0.59
0.665
0.66
0.555
0.505
0.4
0.38
0.375
0.44
0.525
0.62
0.675
0.685
0.565
0.53
0.395
0.365
0.375
0.445
0.53
0.585
0.64
0.64
0.59
0.54
0.435
0.415
0.44
0.525
0.525
0.605
0.685
0.66
0.565
0.5
0.355
0.335
0.345
0.395
0.455
0.59
0.645
0.64
0.535
0.445
0.335
0.32
0.365
0.42
0.475
0.65
0.64
0.615
0.565
0.465
0.295
0.32
0.405
0.465
0.495
0.63
0.615
0.605
0.505
0.54
0.375
0.32
0.375
0.44
0.45
0.62
0.65
0.535
0.495
0.46
0.32
0.365
0.425
0.465
0.455
0.57
0.585
0.58
0.48
0.415
0.31
0.3
0.36
0.475
0.495
0.64
0.615
0.595
0.54
0.485
0.325
0.34
0.405
0.42
0.49
0.66
0.64
0.58
0.525
0.515
0.41
0.405
0.415
0.46
0.48
0.62
0.59
0.545
0.52
0.47
0.4
0.355
0.42
0.53
0.565
0.58
0.59
0.58
0.445
0.445
0.485
0.465
0.475
0.53
0.6
0.675
0.64
0.6
0.555
0.445
0.355
0.365
0.425
0.52
0.63
0.7
0.715
0.645
0.605
0.465
0.385
0.4
0.43
0.495
0.6
0.66
0.645
0.53
0.48
0.43
0.425
0.425
0.495
0.53
0.63
0.71
0.685
0.58
0.62
0.455
0.375
0.395
0.465
0.58
0.695
0.73
0.69
0.57
0.54
0.45
0.4
0.4
0.455
0.515
0.625
0.62
0.6
0.535
0.48
0.355
0.35
0.37
0.49
0.55
0.655
0.6
0.54
0.455
0.445
0.335
0.36
0.335
0.43
0.46
0.57
0.64
0.615
0.525
0.46
0.33
0.335
0.345
0.455
0.46
0.54
0.585
0.605
0.59
0.575
0.4
0.375
0.41
0.535
0.6
0.735
0.7
0.575
0.495
0.545
0.485
0.465
0.535
0.6
0.555
0.665
0.7
0.55
0.385
0.365
0.26
0.21
0.3
0.39
0.44
0.59
0.645
0.535
0.38
0.395
0.355
0.31
0.35
0.5
0.59
0.71
0.695
0.645
0.545
0.51
0.38
0.335
0.39
0.54
0.62
0.695
0.7
0.615
0.485
0.445
0.43
0.45
0.49
0.555
0.625
0.71
0.73
0.69
0.595
0.555
0.465
0.445
0.48
0.495
0.555
0.715
0.74
0.67
0.585
0.54
0.5
0.435
0.48
0.545
0.645
0.705
0.675
0.62
0.56
0.5
0.465
0.47
0.56
0.62
0.665
0.73
0.695
0.62
0.66
0.585
0.515
0.51
0.57
0.635
0.68
0.725
0.735
0.7
0.685
0.58
0.52
0.545
0.61
0.65
0.725
0.805
0.82
0.735
0.77
0.67
0.59
0.56
0.635
0.705
0.85
0.87
0.88
0.78
0.74
0.62
0.585
0.585
0.645
0.65
0.78
0.785
0.865
0.82
0.775
0.675
0.61
0.58
0.695
0.7
0.86
0.905
0.855
0.755
0.695
0.585
0.54
0.565
0.64
0.67
0.735
0.765
0.785
0.72
0.615
0.455
0.56
0.625
0.65
0.625
0.76
0.79
0.745
0.655
0.595
0.52
0.505
0.53
0.655
0.665
0.765
0.785
0.715
0.62
0.615
0.53
0.545
0.605
0.71
0.765
0.855
0.84
0.785
0.73
0.685
0.59
0.535
0.59
0.685
0.725
0.87
0.82
0.76
0.68
0.685
0.555
0.565
0.705
0.8
0.79
0.88
0.92
0.85
0.735
0.65
0.56
0.56
0.61
0.69
0.8
0.895
0.915
0.855
0.8
0.71
0.64
0.625
0.71
0.76
0.795
0.885
0.86
0.805
0.78
0.71
0.65
0.615
0.685
0.72
0.82
0.89
0.865
0.785
0.765
0.665
0.635
0.665
0.735
0.75
0.83
0.87
0.865
0.78
0.745
0.62
0.64
0.695
0.76
0.76
0.865
0.9
0.905
0.83
0.755
0.655
0.675
0.69
0.755
0.77
0.82
0.83
0.89
0.85
0.765
0.625
0.61
0.655
0.735
0.76
0.915
0.97
0.895
0.86
0.755
0.54
0.55
0.63
0.77
0.815
0.89
0.875
0.86
0.85
0.725
0.53
0.61
0.68
0.765
0.835
0.965
0.93
0.9
0.78
0.8
0.615
0.635
0.675
0.725
0.79
0.945
0.93
0.88
0.765
0.735
0.655
0.685
0.685
0.765
0.77
0.915
0.925
0.905
0.845
0.795
0.635
0.63
0.69
0.73
0.78
0.96
0.92
0.88
0.78
0.685
0.58
0.575
0.67
0.745
0.78
0.895
0.955
0.915
0.815
0.715
0.66
0.68
0.715
0.795
0.895
0.935
0.975
0.91
0.855
0.77
0.615
0.65
0.79
0.845
0.95
1.03
1.015
0.955
0.875
0.795
0.69
0.705
0.75
0.795
0.88
0.965
0.95
0.875
0.825
0.75
0.675
0.705
0.765
0.79
0.83
0.9
0.935
0.875
0.815
0.685
0.535
0.595
0.73
0.825
0.92
0.955
0.89
0.885
0.83
0.72
0.665
0.62
0.72
0.835
0.955
0.995
0.93
0.83
0.77
0.655
0.665
0.7
0.745
0.765
0.87
0.91
0.935
0.825
0.81
0.71
0.715
0.75
0.84
0.87
0.95
0.94
0.985
0.92
0.86
0.74
0.825
0.89
0.96
0.92
0.95
0.85
0.735
0.705
0.745
0.605
0.555
0.545
0.635
0.665
0.84
0.88
0.84
0.76
0.775
0.68
0.645
0.695
0.82
0.835
0.985
1.01
0.935
0.82
0.75
0.615
0.65
0.685
0.765
0.8
0.905
0.9
0.89
0.81
0.79
0.745
0.725
0.785
0.86
0.845
0.96
0.97
0.945
0.82
0.71
0.62
0.665
0.715
0.795
0.845
0.975
0.97
0.925
0.815
0.75
0.685
0.71
0.77
0.845
0.93
1.05
1.035
0.95
0.915
0.85
0.77
0.77
0.835
0.88
0.915
0.955
1.01
0.97
0.905
0.845
0.76
0.8
0.865
0.915
0.98
1.105
1.115
1.045
0.9
0.865
0.77
0.775
0.855
0.96
1.04
1.12
1.1
1.02
0.935
0.89
0.87
0.9
0.915
0.99
1.07
1.145
1.125
1.065
1.015
0.93
0.865
0.94
1.035
1.085
1.25
1.225
1.16
1.08
1.07
0.97
0.92
0.87
0.965
1.01
1.12
1.11
1.09
1.04
0.95
0.825
0.86
0.835
0.89
0.95
1.07
1.105
1.01
0.94
0.86
0.765
0.75
0.795
0.865
0.87
1.01
1.05
0.975
0.875
0.875
0.755
0.785
0.775
0.82
0.795
0.96
1.035
1.045
0.935
0.855
0.74
0.755
0.705
0.79
0.825
0.935
0.95
0.91
0.865
0.8
0.68
0.68
0.735
0.795
0.865
1.03
0.99
0.935
0.85
0.785
0.635
0.725
0.735
0.81
0.855
0.96
0.915
0.89
0.815
0.795
0.675
0.665
0.73
0.835
0.845
0.95
0.965
0.93
0.86
0.79
0.695
0.705
0.8
0.91
0.93
1.01
0.975
0.865
0.77
0.7
0.635
0.72
0.785
0.855
0.895
0.92
0.935
0.89
0.86
0.86
0.725
0.725
0.755
0.84
0.91
1.0
1.005
0.895
0.825
0.745
0.67
0.715
0.79
0.81
0.88
0.93
0.89
0.885
0.9
0.84
0.785
0.765
0.835
0.87
0.945
1.01
1.0
0.87
0.79
0.72
0.71
0.67
0.765
0.83
0.93
1.02
1.0
0.95
0.88
0.78
0.765
0.775
0.835
0.86
0.955
0.975
0.96
0.89
0.845
0.755
0.775
0.77
0.845
0.875
1.0
0.965
0.99
0.915
0.875
0.79
0.805
0.815
0.835
0.835
0.95
1.0
0.985
0.97
0.95
0.785
0.8
0.84
0.955
0.95
1.065
1.06
1.075
0.995
0.905
0.76
0.79
0.85
0.885
0.91
1.095
1.125
1.155
1.09
1.04
0.845
0.845
0.905
0.935
0.925
1.08
1.16
1.095
0.995
0.945
0.845
0.865
0.9
0.99
1.055
1.16
1.135
1.075
0.98
0.985
0.86
0.87
0.96
1.025
1.015
1.155
1.19
1.145
1.05
0.995
0.785
0.84
0.935
0.975
1.04
1.21
1.2
1.125
1.025
1.01
0.875
0.9
0.945
0.975
1.085
1.215
1.205
1.14
1.075
0.985
0.875
0.89
0.96
1.04
1.12
1.165
1.15
1.11
1.01
0.985
0.95
0.945
0.96
1.055
1.12
1.22
1.27
1.22
1.115
1.045
1.015
0.995
1.03
1.075
1.14
1.195
1.19
1.12
1.115
0.955
0.905
0.96
1.06
1.085
1.21
1.27
1.23
1.2
1.145
1.03
0.975
1.0
1.09
1.14
1.18
1.245
1.23
1.215
1.2
1.055
0.975
1.01
1.105
1.15
1.255
1.29
1.255
1.155
1.125
0.93
0.91
1.01
1.145
1.185
1.26
1.235
1.165
1.13
1.08
0.97
0.965
0.935
0.99
1.08
1.215
1.235
1.205
1.1
1.07
0.975
0.96
0.98
1.015
1.02
1.18
1.155
1.22
1.105
1.06
0.935
0.945
0.99
1.045
1.04
1.14
1.19
1.245
1.205
1.13
1.015
1.0
1.015
1.1
1.12
1.26
1.315
1.25
1.135
1.17
1.0
0.965
0.965
1.065
1.075
1.175
1.165
1.06
1.005
0.93
0.67
0.675
0.785
0.945
1.0
1.175
1.175
1.05
1.04
0.945
0.785
0.785
0.865
0.955
0.985
1.085
1.12
1.035
0.96
0.895
0.815
0.795
0.865
1.01
1.05
1.12
1.1
1.05
0.95
0.895
0.835
0.815
0.9
1.02
1.085
1.18
1.18
1.135
1.03
0.955
0.9
0.89
0.965
1.045
1.095
1.175
1.23
1.185
1.06
0.985
0.9
0.895
0.97
1.11
1.21
1.225
1.195
1.145
1.075
1.08
1.055
1.075
1.13
1.155
1.22
1.275
1.26
1.2
1.175
1.095
1.055
1.08
1.125
1.225
1.335
1.325
1.31
1.26
1.21
1.07
1.045
1.015
1.095
1.195
1.35
1.41
1.36
1.265
1.23
1.13
1.135
1.2
1.245
1.27
1.405
1.38
1.405
1.34
1.27
1.115
1.155
1.205
1.28
1.33
1.45
1.475
1.435
1.355
1.315
1.18
1.21
1.235
1.3
1.295
1.385
1.35
1.385
1.335
1.26
1.105
1.135
1.145
1.205
1.245
1.36
1.365
1.315
1.235
1.165
1.01
1.02
1.03
1.14
1.165
1.26
1.3
1.32
1.225
1.145
1.0
1.005
1.03
1.135
1.165
1.32
1.335
1.2
1.11
1.115
0.995
1.0
1.1
1.18
1.165
1.235
1.265
1.23
1.12
1.09
0.99
1.01
1.12
1.125
1.14
1.22
1.25
1.24
1.18
1.065
0.945
0.96
1.0
1.075
1.16
1.28
1.34
1.255
1.125
1.065
0.965
0.94
1.015
1.135
1.135
1.195
1.2
1.185
1.105
1.035
1.02
1.04
1.04
1.075
1.135
1.25
1.25
1.215
1.11
1.005
0.945
0.96
1.025
1.08
1.14
1.2
1.235
1.19
1.23
1.07
0.97
0.915
1.025
1.1
1.195
1.215
1.135
1.1
1.08
0.995
0.96
0.92
1.09
1.185
1.245
1.25
1.24
1.2
1.13
0.945
0.91
1.02
1.16
1.175
1.23
1.26
1.205
1.155
1.11
0.99
1.015
0.985
1.075
1.09
1.165
1.245
1.26
1.165
1.1
0.96
0.94
0.94
1.035
1.055
1.245
1.275
1.24
1.125
1.13
0.96
0.995
1.01
1.06
1.155
1.275
1.205
1.155
1.065
1.02
0.94
0.995
1.04
1.075
1.155
1.255
1.27
1.195
1.12
1.125
0.955
0.935
0.915
1.045
1.115
1.235
1.3
1.255
1.155
1.1
0.95
0.855
0.905
1.045
1.085
1.255
1.28
1.215
1.11
1.07
0.925
0.9
0.915
1.0
1.05
1.225
1.225
1.065
1.02
1.025
0.925
0.93
1.01
1.06
1.075
1.18
1.24
1.15
1.055
0.97
0.895
0.97
0.99
1.05
1.085
1.19
1.215
1.155
1.05
0.995
0.915
0.905
0.98
1.055
1.105
1.185
1.17
1.075
0.975
0.895
0.905
0.95
1.015
1.09
1.17
1.215
1.11
1.0
0.965
0.875
0.835
0.875
0.945
1.045
1.135
1.225
1.14
1.005
1.02
0.92
0.91
0.93
0.98
1.04
1.135
1.15
1.085
1.085
1.03
0.88
0.85
0.905
0.96
1.01
1.13
1.125
1.085
0.98
1.0
0.9
0.9
0.905
0.95
0.955
1.09
1.12
1.095
1.07
1.03
0.89
0.845
0.865
0.935
1.0
1.125
1.08
1.08
1.115
1.075
0.905
0.885
0.87
0.985
1.085
1.185
1.185
1.12
1.07
1.025
0.88
0.81
0.855
0.96
0.98
1.11
1.175
1.08
0.975
0.915
0.745
0.81
0.82
0.935
0.98
1.08
1.09
1.08
0.975
0.95
0.735
0.79
0.865
0.94
0.965
1.075
1.05
0.965
0.91
0.925
0.795
0.805
0.835
0.9
1.0
1.125
1.115
0.97
0.85
0.845
0.77
0.715
0.8
0.91
1.0
1.095
1.095
1.01
1.015
0.98
0.875
0.83
0.92
1.01
1.08
1.145
1.095
1.04
0.98
0.88
0.765
0.775
0.835
0.905
0.915
0.985
0.935
0.81
0.7
0.63
0.6
0.65
0.75
0.795
0.955
1.09
1.055
0.98
0.855
0.77
0.71
0.69
0.775
0.835
0.885
0.955
0.955
0.885
0.88
0.82
0.74
0.715
0.825
0.885
0.91
0.995
0.925
0.845
0.78
0.71
0.67
0.615
0.725
0.83
0.925
0.975
0.9
0.87
0.87
0.725
0.68
0.72
0.81
0.875
0.97
0.96
0.845
0.74
0.75
0.675
0.67
0.655
0.695
0.77
0.93
0.935
0.905
0.82
0.775
0.625
0.635
0.66
0.765
0.835
0.93
0.96
0.945
0.83
0.76
0.585
0.585
0.635
0.75
0.79
0.925
0.92
0.925
0.84
0.78
0.625
0.57
0.61
0.675
0.795
0.925
0.96
0.865
0.825
0.81
0.645
0.645
0.68
0.76
0.775
0.915
1.02
0.925
0.77
0.73
0.61
0.62
0.67
0.84
0.86
0.935
0.905
0.845
0.755
0.73
0.57
0.52
0.625
0.68
0.72
0.835
0.83
0.78
0.685
0.645
0.51
0.51
0.575
0.61
0.65
0.725
0.75
0.675
0.615
0.5
0.385
0.385
0.445
0.52
0.55
0.68
0.67
0.655
0.615
0.41
0.335
0.34
0.38
0.475
0.495
0.59
0.58
0.44
0.48
0.41
0.355
0.33
0.415
0.48
0.525
0.565
0.555
0.485
0.435
0.34
0.27
0.315
0.41
0.41
0.495
0.545
0.515
0.415
0.325
0.31
0.295
0.24
0.335
0.43
0.485
0.445
0.43
0.435
0.385
0.285
0.25
0.21
0.325
0.415
0.46
0.485
0.5
0.405
0.32
0.18
0.175
0.16
0.26
0.36
0.47
0.425
0.375
0.335
0.25
0.08
0.105
0.145
0.235
0.295
0.42
0.42
0.33
0.265
0.285
0.165
0.14
0.19
0.25
0.265
0.395
0.425
0.35
0.205
0.1
-0.02
0.045
0.12
0.23
0.24
0.36
0.395
0.38
0.31
0.19
0.09
0.08
0.09
0.18
0.24
0.385
0.37
0.33
0.225
0.16
-0.015
-0.035
-0.03
0.095
0.19
0.275
0.31
0.25
0.14
0.14
0.01
-0.045
0.025
0.15
0.145
0.225
0.29
0.265
0.14
0.035
-0.105
-0.095
-0.005
0.09
0.065
0.13
0.11
0.09
0.115
0.08
-0.075
-0.065
0.015
0.085
0.085
0.17
0.14
0.11
0.045
-0.065
-0.135
-0.13
-0.1
-0.005
0.07
0.105
0.105
0.035
-0.03
-0.085
-0.17
-0.19
-0.095
-0.07
0.0
0.115
0.045
0.05
0.04
-0.08
-0.21
-0.205
-0.175
-0.1
0.005
0.04
-0.015
-0.065
-0.11
-0.2
-0.2
-0.16
-0.105
-0.12
0.005
0.115
0.095
-0.005
-0.1
-0.215
-0.275
-0.285
-0.205
-0.185
-0.085
-0.005
-0.025
-0.065
-0.115
-0.305
-0.305
-0.225
-0.195
-0.185
-0.08
-0.07
-0.07
-0.145
-0.26
-0.345
-0.275
-0.28
-0.23
-0.16
-0.05
-0.05
-0.11
-0.17
-0.16
-0.32
-0.335
-0.325
-0.25
-0.23
-0.13
-0.09
-0.09
-0.185
-0.26
-0.385
-0.375
-0.325
-0.275
-0.275
-0.15
-0.145
-0.16
-0.275
-0.29
-0.37
-0.315
-0.295
-0.265
-0.27
-0.135
-0.15
-0.205
-0.305
-0.355
-0.495
-0.485
-0.465
-0.385
-0.325
-0.215
-0.245
-0.315
-0.34
-0.33
-0.485
-0.435
-0.415
-0.37
-0.325
-0.215
-0.235
-0.3
-0.365
-0.42
-0.54
-0.525
-0.45
-0.395
-0.32
-0.225
-0.25
-0.26
-0.335
-0.43
-0.525
-0.57
-0.48
-0.39
-0.38
-0.27
-0.26
-0.36
-0.375
-0.445
-0.58
-0.55
-0.41
-0.285
-0.295
-0.25
-0.225
-0.2
-0.285
-0.405
-0.495
-0.43
-0.375
-0.29
-0.27
-0.215
-0.23
-0.38
-0.45
-0.585
-0.65
-0.6
-0.56
-0.53
-0.48
-0.47
-0.47
-0.5
-0.485
-0.55
-0.605
-0.575
-0.53
-0.49
-0.39
-0.29
-0.325
-0.44
-0.475
-0.555
-0.6
-0.61
-0.6
-0.575
-0.42
-0.38
-0.325
-0.405
-0.475
-0.565
-0.62
-0.675
-0.575
-0.495
-0.39
-0.37
-0.39
-0.44
-0.47
-0.58
-0.595
-0.61
-0.57
-0.62
-0.44
-0.395
-0.41
-0.465
-0.505
-0.655
-0.68
-0.645
-0.56
-0.52
-0.445
-0.415
-0.42
-0.53
-0.54
-0.64
-0.635
-0.645
-0.61
-0.605
-0.44
-0.495
-0.45
-0.46
-0.545
-0.72
-0.705
-0.645
-0.59
-0.495
-0.36
-0.355
-0.44
-0.535
-0.555
-0.66
-0.675
-0.68
-0.575
-0.515
-0.4
-0.325
-0.42
-0.515
-0.57
-0.68
-0.635
-0.605
-0.515
-0.505
-0.32
-0.3
-0.385
-0.44
-0.5
-0.68
-0.67
-0.53
-0.44
-0.465
-0.31
-0.3
-0.405
-0.435
-0.45
-0.555
-0.545
-0.52
-0.405
-0.44
-0.345
-0.3
-0.38
-0.47
-0.51
-0.645
-0.665
-0.58
-0.515
-0.49
-0.39
-0.39
-0.45
-0.555
-0.615
-0.7
-0.7
-0.66
-0.57
-0.545
-0.46
-0.515
-0.625
-0.745
-0.745
-0.8
-0.805
-0.705
-0.6
-0.575
-0.51
-0.52
-0.61
-0.705
-0.765
-0.825
-0.815
-0.775
-0.71
-0.555
-0.52
-0.57
-0.67
-0.715
-0.79
-0.82
-0.795
-0.72
-0.66
-0.615
-0.585
-0.635
-0.66
-0.755
-0.91
-0.94
-0.84
-0.73
-0.71
-0.615
-0.61
-0.625
-0.61
-0.73
-0.885
-0.94
-0.865
-0.805
-0.785
-0.685
-0.68
-0.695
-0.785
-0.81
-0.905
-0.895
-0.855
-0.805
-0.76
-0.635
-0.6
-0.63
-0.71
-0.75
-0.855
-0.895
-0.925
-0.86
-0.79
-0.645
-0.685
-0.62
-0.73
-0.77
-0.845
-0.88
-0.875
-0.785
-0.755
-0.66
-0.695
-0.765
-0.805
-0.805
-0.965
-1.01
-0.925
-0.775
-0.76
-0.665
-0.675
-0.745
-0.765
-0.805
-0.92
-0.93
-0.92
-0.82
-0.815
-0.725
-0.695
-0.76
-0.875
-0.86
-0.925
-0.95
-0.935
-0.86
-0.815
-0.665
-0.645
-0.7
-0.805
-0.885
-1.01
-0.965
-0.91
-0.86
-0.785
-0.68
-0.705
-0.755
-0.885
-0.92
-1.005
-0.995
-0.915
-0.835
-0.81
-0.74
-0.71
-0.77
-0.87
-0.985
-1.035
-0.995
-0.965
-0.89
-0.825
-0.8
-0.785
-0.86
-0.88
-0.92
-0.995
-0.955
-0.955
-0.89
-0.83
-0.75
-0.775
-0.855
-0.985
-1.07
-1.11
-1.07
-0.985
-0.935
-0.87
-0.81
-0.82
-0.855
-0.91
-0.96
-1.045
-1.075
-0.985
-0.895
-0.815
-0.775
-0.79
-0.92
-1.015
-1.1
-1.11
-1.06
-0.97
-0.97
-0.865
-0.785
-0.795
-0.84
-0.905
-1.115
-1.125
-1.1
-0.99
-0.985
-0.92
-0.885
-0.885
-0.925
-0.975
-1.13
-1.2
-1.135
-1.06
-1.005
-0.89
-0.84
-0.92
-1.01
-1.055
-1.195
-1.13
-1.095
-1.08
-1.07
-0.945
-0.945
-0.935
-0.985
-0.96
-1.12
-1.185
-1.16
-1.135
-1.065
-0.925
-0.9
-0.91
-1.015
-1.075
-1.22
-1.205
-1.255
-1.195
-1.15
-0.91
-0.91
-0.97
-1.08
-1.125
-1.23
-1.225
-1.24
-1.13
-1.13
-1.005
-1.015
-0.98
-1.04
-1.11
-1.265
-1.22
-1.155
-1.095
-1.09
-1.005
-0.975
-1.085
-1.15
-1.2
-1.4
-1.345
-1.22
-1.13
-1.095
-1.02
-1.005
-1.02
-1.1
-1.15
-1.285
-1.28
-1.285
-1.225
-1.135
-0.995
-0.985
-1.08
-1.185
-1.17
-1.25
-1.265
-1.255
-1.175
-1.05
-0.975
-1.005
-1.085
-1.115
-1.18
-1.265
-1.275
-1.23
-1.175
-1.1
-1.02
-1.03
-1.095
-1.165
-1.26
-1.325
-1.29
-1.17
-1.135
-1.095
-1.06
-1.085
-1.125
-1.155
-1.265
-1.285
-1.29
-1.24
-1.16
-1.08
-1.015
-0.99
-1.095
-1.115
-1.275
-1.295
-1.28
-1.205
-1.105
-0.985
-0.945
-0.98
-1.075
-1.115
-1.185
-1.21
-1.285
-1.215
-1.145
-1.04
-1.055
-1.07
-1.11
-1.13
-1.26
-1.31
-1.34
-1.26
-1.23
-1.155
-1.07
-1.15
-1.295
-1.235
-1.305
-1.37
-1.29
-1.215
-1.205
-1.12
-1.105
-1.075
-1.215
-1.275
-1.385
-1.365
-1.4
-1.285
-1.195
-1.05
-1.005
-1.055
-1.175
-1.205
-1.33
-1.36
-1.315
-1.245
-1.23
-1.07
-1.065
-1.115
-1.22
-1.25
-1.315
-1.3
-1.295
-1.23
-1.175
-0.985
-1.03
-1.055
-1.065
-1.105
-1.285
-1.375
-1.38
-1.345
-1.335
-1.115
-1.115
-1.235
-1.35
-1.39
-1.465
-1.46
-1.39
-1.255
-1.21
-1.155
-1.195
-1.23
-1.31
-1.35
-1.42
-1.4
-1.365
-1.245
-1.14
-1.075
-1.025
-1.11
-1.235
-1.27
-1.37
-1.435
-1.345
-1.24
-1.22
-1.17
-1.14
-1.205
-1.295
-1.365
-1.45
-1.41
-1.3
-1.265
-1.245
-1.16
-1.14
-1.23
-1.315
-1.32
-1.4
-1.45
-1.375
-1.255
-1.19
-1.135
-1.11
-1.22
-1.31
-1.39
-1.475
-1.42
-1.315
-1.23
-1.175
-1.135
-1.12
-1.155
-1.235
-1.38
-1.395
-1.365
-1.275
-1.21
-1.08
-1.005
-1.05
-1.17
-1.26
-1.375
-1.435
-1.405
-1.275
-1.235
-1.15
-1.075
-1.1
-1.195
-1.205
-1.27
-1.31
-1.285
-1.225
-1.175
-1.1
-1.08
-1.09
-1.15
-1.175
-1.245
-1.21
-1.235
-1.165
-1.085
-0.955
-0.97
-0.985
-1.08
-1.115
-1.2
-1.16
-1.105
-1.05
-1.07
-0.88
-0.885
-0.985
-1.065
-1.065
-1.165
-1.17
-1.17
-1.085
-1.025
-0.89
-0.895
-0.95
-1.045
-1.06
-1.205
-1.215
-1.18
-1.12
-1.125
-1.0
-0.945
-0.99
-1.085
-1.17
-1.305
-1.28
-1.29
-1.22
-1.17
-1.035
-1.04
-1.14
-1.155
-1.11
-1.24
-1.235
-1.23
-1.185
-1.16
-1.01
-0.98
-1.095
-1.17
-1.2
-1.32
-1.325
-1.21
-1.12
-1.14
-1.03
-1.06
-1.085
-1.145
-1.22
-1.33
-1.35
-1.29
-1.16
-1.16
-1.095
-1.03
-1.04
-1.15
-1.26
-1.33
-1.29
-1.215
-1.095
-1.05
-1.02
-1.03
-1.09
-1.165
-1.23
-1.345
-1.275
-1.205
-1.175
-1.13
-1.025
-1.025
-1.05
-1.12
-1.25
-1.345
-1.36
-1.215
-1.15
-1.055
-0.985
-1.005
-1.09
-1.105
-1.25
-1.33
-1.305
-1.23
-1.17
-1.02
-0.945
-1.005
-1.11
-1.14
-1.25
-1.29
-1.27
-1.165
-1.125
-1.105
-0.975
-0.955
-1.055
-1.145
-1.255
-1.35
-1.275
-1.13
-1.03
-0.945
-0.925
-0.96
-1.08
-1.13
-1.28
-1.305
-1.26
-1.175
-1.145
-1.05
-1.035
-1.055
-1.08
-1.15
-1.27
-1.28
-1.24
-1.21
-1.175
-1.03
-0.975
-0.98
-1.1
-1.16
-1.3
-1.275
-1.29
-1.215
-1.17
-1.03
-1.035
-1.025
-1.085
-1.12
-1.28
-1.29
-1.28
-1.145
-1.115
-1.0
-1.01
-1.05
-1.11
-1.15
-1.32
-1.355
-1.315
-1.185
-1.055
-0.89
-0.865
-0.975
-1.11
-1.195
-1.285
-1.255
-1.22
-1.095
-1.07
-0.955
-0.855
-0.96
-1.005
-0.98
-1.155
-1.155
-1.07
-0.99
-0.975
-0.86
-0.86
-0.925
-0.955
-1.015
-1.115
-1.14
-1.095
-1.025
-1.0
-0.875
-0.87
-0.945
-0.995
-0.99
-1.12
-1.175
-1.075
-0.94
-0.92
-0.845
-0.89
-0.975
-1.01
-1.12
-1.205
-1.15
-1.13
-1.025
-0.92
-0.89
-0.86
-0.865
-0.98
-1.05
-1.145
-1.155
-1.06
-1.025
-0.955
-0.875
-0.85
-0.89
-0.99
-1.11
-1.185
-1.225
-1.12
-1.025
-0.915
-0.83
-0.78
-0.865
-0.99
-1.07
-1.15
-1.135
-1.06
-1.05
-0.95
-0.85
-0.88
-0.92
-0.965
-1.065
-1.115
-1.13
-1.05
-0.995
-0.875
-0.85
-0.84
-0.9
-1.005
-1.14
-1.175
-1.185
-1.1
-1.05
-0.955
-0.9
-0.89
-0.975
-1.075
-1.195
-1.13
-1.095
-1.035
-1.035
-0.9
-0.86
-0.855
-0.94
-1.025
-1.14
-1.195
-1.185
-1.0
-0.955
-0.805
-0.805
-0.875
-0.975
-0.995
-1.115
-1.085
-1.11
-1.03
-1.005
-0.905
-0.93
-0.935
-1.005
-1.035
-1.185
-1.125
-1.085
-1.015
-0.925
-0.82
-0.88
-0.95
-1.03
-1.02
-1.15
-1.145
-1.105
-0.995
-1.0
-0.865
-0.83
-0.925
-1.05
-1.115
-1.22
-1.175
-1.08
-1.03
-1.02
-0.895
-0.88
-0.895
-1.0
-1.07
-1.15
-1.105
-1.05
-1.055
-0.985
-0.9
-0.92
-0.96
-1.07
-1.13
-1.25
-1.29
-1.215
-1.085
-1.075
-0.965
-0.97
-1.015
-1.025
-1.085
-1.2
-1.205
-1.155
-1.12
-1.065
-0.98
-0.94
-1.01
-1.07
-1.16
-1.265
-1.25
-1.17
-1.125
-1.095
-1.04
-1.055
-1.055
-1.11
-1.21
-1.325
-1.36
-1.285
-1.165
-1.045
-1.02
-1.11
-1.15
-1.2
-1.265
-1.325
-1.31
-1.25
-1.16
-1.075
-1.045
-1.13
-1.22
-1.3
-1.365
-1.385
-1.4
-1.285
-1.23
-1.16
-1.08
-1.08
-1.1
-1.18
-1.35
-1.38
-1.38
-1.305
-1.21
-1.085
-1.065
-1.085
-1.175
-1.205
-1.275
-1.255
-1.265
-1.18
-1.195
-1.075
-1.01
-0.98
-1.09
-1.145
-1.255
-1.28
-1.255
-1.225
-1.18
-1.13
-1.2
-1.21
-1.275
-1.36
-1.54
-1.5
-1.53
-1.45
-1.36
-1.2
-1.145
-1.12
-1.185
-1.25
-1.4
-1.365
-1.345
-1.3
-1.24
-1.09
-1.105
-1.165
-1.25
-1.23
-1.405
-1.4
-1.315
-1.28
-1.265
-1.155
-1.17
-1.205
-1.255
-1.3
-1.445
-1.42
-1.36
-1.34
-1.265
-1.15
-1.13
-1.19
-1.28
-1.315
-1.4
-1.43
-1.39
-1.255
-1.205
-1.08
-1.11
-1.135
-1.225
-1.27
-1.355
-1.365
-1.305
-1.21
-1.2
-1.105
-1.115
-1.155
-1.23
-1.275
-1.345
-1.325
-1.225
-1.225
-1.2
-1.075
-1.01
-1.125
-1.235
-1.29
-1.32
-1.275
-1.26
-1.205
-1.17
-1.075
-1.09
-1.15
-1.17
-1.2
-1.35
-1.295
-1.18
-1.12
-1.035
-0.935
-0.945
-1.06
-1.165
-1.185
-1.25
-1.27
-1.195
-1.11
-0.97
-0.92
-0.925
-0.975
-1.025
-1.145
-1.195
-1.205
-1.145
-1.08
-1.035
-0.985
-0.975
-1.025
-1.09
-1.175
-1.18
-1.175
-1.135
-1.14
-1.04
-1.02
-1.04
-1.03
-1.04
-1.185
-1.21
-1.265
-1.255
-1.21
-1.075
-1.1
-1.105
-1.185
-1.29
-1.365
-1.33
-1.305
-1.24
-1.135
-1.06
-1.055
-1.14
-1.22
-1.33
-1.44
-1.44
-1.425
-1.36
-1.29
-1.11
-1.115
-1.14
-1.28
-1.28
-1.39
-1.4
-1.38
-1.295
-1.255
-1.115
-1.105
-1.135
-1.175
-1.28
-1.435
-1.475
-1.38
-1.34
-1.335
-1.13
-1.09
-1.175
-1.215
-1.26
-1.46
-1.43
-1.39
-1.31
-1.295
-1.19
-1.18
-1.23
-1.265
-1.27
-1.45
-1.45
-1.375
-1.335
-1.32
-1.165
-1.145
-1.22
-1.275
-1.255
-1.345
-1.365
-1.39
-1.355
-1.29
-1.135
-1.13
-1.19
-1.26
-1.32
-1.42
-1.39
-1.335
-1.305
-1.24
-1.105
-1.13
-1.205
-1.285
-1.33
-1.395
-1.45
-1.375
-1.25
-1.215
-1.18
-1.165
-1.235
-1.285
-1.28
-1.355
-1.4
-1.35
-1.235
-1.155
-1.13
-1.13
-1.18
-1.225
-1.32
-1.41
-1.395
-1.31
-1.245
-1.145
-1.08
-1.12
-1.225
-1.33
-1.345
-1.42
-1.415
-1.285
-1.235
-1.135
-1.11
-1.13
-1.21
-1.3
-1.375
-1.435
-1.39
-1.26
-1.255
-1.18
-1.145
-1.115
-1.22
-1.24
-1.33
-1.36
-1.42
-1.345
-1.28
-1.175
-1.15
-1.165
-1.205
-1.175
-1.29
-1.375
-1.41
-1.335
-1.22
-1.1
-1.09
-1.13
-1.22
-1.29
-1.365
-1.33
-1.375
-1.345
-1.295
-1.18
-1.155
-1.21
-1.245
-1.305
-1.355
-1.39
-1.38
-1.29
-1.235
-1.13
-1.085
-1.145
-1.215
-1.295
-1.38
-1.375
-1.375
-1.265
-1.21
-1.07
-1.1
-1.13
-1.25
-1.265
-1.4
-1.45
-1.42
-1.34
-1.31
-1.12
-1.09
-1.07
-1.19
-1.245
-1.35
-1.32
-1.27
-1.23
-1.28
-1.145
-1.125
-1.185
-1.295
-1.33
-1.485
-1.46
-1.37
-1.2
-1.2
-1.1
-1.07
-1.18
-1.255
-1.215
-1.34
-1.375
-1.34
-1.255
-1.18
-1.105
-1.09
-1.145
-1.25
-1.29
-1.385
-1.405
-1.355
-1.255
-1.2
-1.11
-1.065
-1.1
-1.19
-1.285
-1.405
-1.415
-1.38
-1.295
-1.22
-1.09
-1.16
-1.21
-1.29
-1.36
-1.415
-1.41
-1.33
-1.225
-1.155
-1.06
-1.07
-1.165
-1.23
-1.315
-1.385
-1.375
-1.285
-1.265
-1.195
-1.065
-1.095
-1.15
-1.23
-1.31
-1.355
-1.295
-1.22
-1.225
-1.115
-1.105
-1.11
-1.2
-1.22
-1.405
-1.44
-1.41
-1.335
-1.275
-1.14
-1.135
-1.14
-1.18
-1.265
-1.355
-1.305
-1.325
-1.255
-1.235
-1.165
-1.125
-1.125
-1.21
-1.2
-1.32
-1.36
-1.32
-1.21
-1.205
-1.04
-1.025
-1.02
-1.11
-1.21
-1.315
-1.29
-1.3
-1.23
-1.15
-0.98
-1.025
-1.065
-1.16
-1.19
-1.285
-1.275
-1.27
-1.21
-1.195
-1.07
-1.085
-1.155
-1.215
-1.245
-1.405
-1.415
-1.36
-1.23
-1.18
-1.075
-1.09
-1.13
-1.24
-1.265
-1.365
-1.37
-1.31
-1.29
-1.23
-1.095
-1.095
-1.145
-1.22
-1.245
-1.39
-1.355
-1.27
-1.205
-1.17
-1.115
-1.165
-1.205
-1.23
-1.265
-1.355
-1.345
-1.275
-1.18
-1.175
-1.03
-1.03
-1.085
-1.18
-1.27
-1.335
-1.285
-1.245
-1.195
-1.095
-0.925
-0.95
-1.0
-1.095
-1.16
-1.255
-1.29
-1.25
-1.255
-1.24
-1.185
-1.15
-1.21
-1.315
-1.425
-1.475
-1.395
-1.33
-1.26
-1.155
-1.085
-1.04
-1.11
-1.22
-1.335
-1.38
-1.39
-1.32
-1.215
-1.16
-1.05
-1.045
-1.155
-1.205
-1.295
-1.335
-1.34
-1.295
-1.23
-1.125
-1.06
-1.055
-1.135
-1.175
-1.23
-1.265
-1.275
-1.24
-1.245
-1.16
-1.1
-1.11
-1.19
-1.19
-1.255
-1.315
-1.26
-1.19
-1.18
-1.09
-1.045
-1.03
-1.075
-1.06
-1.22
-1.255
-1.27
-1.265
-1.2
-1.015
-1.015
-1.08
-1.135
-1.155
-1.27
-1.29
-1.21
-1.1
-1.045
-0.925
-0.945
-0.98
-1.06
-1.12
-1.225
-1.24
-1.285
-1.22
-1.125
-0.935
-0.91
-0.975
-1.07
-1.095
-1.205
-1.195
-1.125
-1.01
-0.985
-0.905
-0.905
-1.02
-1.06
-1.02
-1.11
-1.095
-1.095
-1.01
-0.95
-0.825
-0.825
-0.86
-0.93
-0.935
-1.05
-1.04
-1.015
-0.96
-0.93
-0.81
-0.83
-0.87
-0.92
-1.005
-1.125
-1.105
-1.015
-0.915
-0.965
-0.84
-0.805
-0.855
-0.96
-1.06
-1.2
-1.235
-1.155
-1.04
-1.01
-0.915
-0.945
-0.995
-0.98
-1.09
-1.215
-1.185
-1.16
-1.12
-1.055
-0.955
-0.95
-1.015
-1.07
-1.145
-1.28
-1.27
-1.205
-1.13
-1.06
-0.985
-0.97
-1.0
-1.055
-1.125
-1.255
-1.26
-1.16
-1.08
-1.04
-0.98
-0.95
-1.06
-1.135
-1.24
-1.255
-1.23
-1.165
-1.06
-0.995
-0.925
-0.98
-1.02
-1.095
-1.2
-1.23
-1.26
-1.2
-1.165
-1.035
-0.945
-0.985
-1.025
-1.055
-1.215
-1.25
-1.24
-1.135
-1.075
-0.965
-0.955
-0.995
-1.095
-1.105
-1.205
-1.175
-1.16
-1.13
-1.08
-0.95
-0.86
-0.91
-1.055
-1.085
-1.235
-1.205
-1.215
-1.155
-1.065
-0.885
-0.885
-0.955
-1.055
-1.08
-1.185
-1.16
-1.125
-1.04
-0.99
-0.945
-0.905
-0.94
-1.04
-1.105
-1.185
-1.195
-1.23
-1.095
-0.995
-0.9
-0.89
-0.9
-1.0
-1.115
-1.25
-1.22
-1.145
-1.055
-0.985
-0.84
-0.85
-0.93
-0.975
-1.07
-1.215
-1.155
-1.11
-1.03
-1.03
-0.91
-0.885
-0.885
-0.945
-1.045
-1.195
-1.235
-1.145
-1.075
-1.02
-0.905
-0.925
-0.93
-1.0
-1.005
-1.14
-1.145
-1.08
-0.965
-0.955
-0.87
-0.935
-1.01
-1.02
-1.025
-1.13
-1.125
-1.125
-1.06
-0.975
-0.87
-0.885
-0.92
-0.975
-0.995
-1.11
-1.13
-1.1
-1.04
-0.955
-0.895
-0.915
-1.0
-1.0
-1.05
-1.1
-1.09
-1.055
-1.0
-0.98
-0.875
-0.84
-0.9
-0.96
-1.015
-1.17
-1.195
-1.12
-1.015
-0.89
-0.805
-0.81
-0.9
-0.98
-1.025
-1.125
-1.085
-1.05
-1.03
-0.955
-0.91
-0.87
-0.905
-0.94
-1.075
-1.13
-1.08
-1.005
-0.99
-0.9
-0.82
-0.865
-0.875
-0.97
-1.085
-1.09
-1.09
-1.03
-1.005
-0.855
-0.76
-0.76
-0.865
-0.925
-1.045
-1.1
-1.155
-1.04
-1.01
-0.83
-0.815
-0.79
-0.855
-0.905
-1.065
-1.065
-1.065
-0.99
-0.925
-0.8
-0.855
-0.905
-0.955
-1.005
-1.125
-1.135
-1.085
-0.985
-0.915
-0.775
-0.8
-0.82
-0.895
-0.96
-1.115
-1.13
-1.1
-1.03
-0.965
-0.81
-0.785
-0.8
-0.855
-0.92
-1.01
-1.015
-1.025
-0.98
-0.975
-0.805
-0.745
-0.78
-0.84
-0.95
-1.135
-1.085
-1.03
-0.94
-0.925
-0.82
-0.78
-0.79
-0.89
-0.975
-1.115
-1.085
-1.045
-0.97
-0.955
-0.82
-0.775
-0.83
-0.94
-1.015
-1.06
-1.07
-1.035
-0.925
-0.9
-0.785
-0.77
-0.815
-0.935
-0.97
-1.02
-1.01
-0.96
-0.895
-0.78
-0.68
-0.72
-0.835
-0.88
-0.93
-0.975
-1.005
-0.915
-0.85
-0.845
-0.79
-0.715
-0.75
-0.83
-0.905
-1.02
-0.965
-0.88
-0.855
-0.825
-0.74
-0.695
-0.74
-0.835
-0.925
-1.005
-0.985
-0.89
-0.85
-0.835
-0.795
-0.805
-0.855
-0.88
-0.995
-1.01
-1.035
-0.96
-0.88
-0.735
-0.625
-0.61
-0.755
-0.87
-0.98
-1.04
-1.04
-0.995
-0.96
-0.785
-0.68
-0.72
-0.835
-0.88
-0.975
-1.0
-0.96
-0.895
-0.89
-0.765
-0.705
-0.735
-0.785
-0.795
-0.935
-0.93
-0.92
-0.83
-0.785
-0.665
-0.64
-0.65
-0.77
-0.85
-0.93
-0.89
-0.915
-0.85
-0.745
-0.625
-0.64
-0.675
-0.775
-0.845
-0.985
-0.94
-0.965
-0.975
-0.99
-0.78
-0.79
-0.85
-0.835
-0.845
-1.0
-0.985
-0.97
-0.88
-0.835
-0.68
-0.69
-0.7
-0.805
-0.86
-1.005
-1.02
-0.95
-0.795
-0.735
-0.63
-0.635
-0.63
-0.785
-0.79
-0.875
-0.925
-0.895
-0.84
-0.76
-0.625
-0.64
-0.745
-0.82
-0.835
-0.935
-0.96
-0.855
-0.725
-0.665
-0.605
-0.645
-0.72
-0.79
-0.86
-0.91
-0.89
-0.84
-0.78
-0.725
-0.62
-0.615
-0.7
-0.755
-0.87
-0.955
-0.955
-0.885
-0.795
-0.735
-0.63
-0.61
-0.69
-0.76
-0.795
-0.88
-0.86
-0.8
-0.695
-0.625
-0.55
-0.565
-0.675
-0.735
-0.775
-0.805
-0.81
-0.745
-0.74
-0.645
-0.555
-0.52
-0.57
-0.645
-0.8
-0.83
-0.82
-0.765
-0.65
-0.505
-0.44
-0.47
-0.56
-0.635
-0.745
-0.81
-0.755
-0.645
-0.605
-0.465
-0.44
-0.45
-0.57
-0.615
-0.71
-0.725
-0.715
-0.64
-0.605
-0.46
-0.475
-0.475
-0.525
-0.6
-0.69
-0.69
-0.745
-0.715
-0.685
-0.56
-0.545
-0.57
-0.695
-0.785
-0.845
-0.85
-0.79
-0.67
-0.67
-0.625
-0.59
-0.565
-0.715
-0.73
-0.875
-0.915
-0.885
-0.755
-0.68
-0.56
-0.575
-0.65
-0.745
-0.775
-0.9
-0.87
-0.835
-0.785
-0.755
-0.61
-0.585
-0.625
-0.72
-0.715
-0.86
-0.915
-0.88
-0.73
-0.695
-0.59
-0.585
-0.625
-0.745
-0.82
-0.93
-0.88
-0.82
-0.77
-0.755
-0.645
-0.655
-0.705
-0.78
-0.775
-0.89
-0.855
-0.82
-0.725
-0.69
-0.56
-0.61
-0.675
-0.735
-0.71
-0.815
-0.89
-0.91
-0.815
-0.695
-0.545
-0.55
-0.655
-0.69
-0.75
-0.84
-0.845
-0.785
-0.7
-0.625
-0.56
-0.58
-0.595
-0.665
-0.74
-0.83
-0.825
-0.78
-0.77
-0.69
-0.565
-0.57
-0.61
-0.72
-0.81
-0.855
-0.825
-0.705
-0.665
-0.63
-0.555
-0.575
-0.655
-0.71
-0.745
-0.78
-0.795
-0.715
-0.665
-0.55
-0.495
-0.53
-0.605
-0.65
-0.77
-0.84
-0.815
-0.745
-0.695
-0.545
-0.53
-0.59
-0.695
-0.71
-0.795
-0.82
-0.735
-0.695
-0.65
-0.5
-0.535
-0.64
-0.675
-0.67
-0.79
-0.81
-0.805
-0.75
-0.67
-0.53
-0.565
-0.51
-0.585
-0.7
-0.88
-0.815
-0.75
-0.715
-0.66
-0.515
-0.495
-0.535
-0.65
-0.715
-0.805
-0.735
-0.725
-0.625
-0.615
-0.52
-0.56
-0.555
-0.61
-0.67
-0.805
-0.79
-0.745
-0.71
-0.655
-0.55
-0.55
-0.57
-0.65
-0.665
-0.775
-0.78
-0.71
-0.67
-0.58
-0.42
-0.475
-0.57
-0.645
-0.7
-0.815
-0.805
-0.77
-0.68
-0.65
-0.52
-0.46
-0.505
-0.585
-0.58
-0.73
-0.825
-0.77
-0.65
-0.62
-0.5
-0.495
-0.535
-0.6
-0.66
-0.805
-0.78
-0.72
-0.635
-0.585
-0.505
-0.48
-0.54
-0.59
-0.615
-0.745
-0.79
-0.745
-0.605
-0.535
-0.435
-0.465
-0.55
-0.605
-0.695
-0.825
-0.83
-0.715
-0.625
-0.51
-0.45
-0.48
-0.545
-0.65
-0.735
-0.75
-0.7
-0.625
-0.61
-0.52
-0.505
-0.53
-0.59
-0.645
-0.685
-0.735
-0.72
-0.635
-0.525
-0.47
-0.4
-0.48
-0.54
-0.635
-0.725
-0.78
-0.765
-0.685
-0.65
-0.505
-0.425
-0.43
-0.505
-0.58
-0.695
-0.76
-0.75
-0.64
-0.545
-0.465
-0.415
-0.385
-0.45
-0.495
-0.66
-0.67
-0.66
-0.565
-0.47
-0.35
-0.395
-0.45
-0.5
-0.575
-0.715
-0.715
-0.71
-0.67
-0.59
-0.505
-0.495
-0.53
-0.58
-0.555
-0.745
-0.74
-0.705
-0.635
-0.58
-0.43
-0.415
-0.45
-0.53
-0.57
-0.75
-0.76
-0.755
-0.625
-0.58
-0.43
-0.42
-0.47
-0.56
-0.6
-0.74
-0.79
-0.77
-0.645
-0.58
-0.455
-0.48
-0.51
-0.615
-0.585
-0.65
-0.635
-0.62
-0.54
-0.495
-0.415
-0.365
-0.38
-0.5
-0.505
-0.58
-0.615
-0.575
-0.495
-0.425
-0.25
-0.255
-0.355
-0.5
-0.56
-0.745
-0.72
-0.765
-0.695
-0.6
-0.465
-0.56
-0.605
-0.715
-0.785
-0.81
-0.79
-0.685
-0.59
-0.545
-0.435
-0.42
-0.47
-0.53
-0.595
-0.72
-0.705
-0.61
-0.525
-0.49
-0.415
-0.44
-0.475
-0.54
-0.595
-0.695
-0.645
-0.615
-0.515
-0.425
-0.365
-0.435
-0.51
-0.565
-0.6
-0.64
-0.63
-0.565
-0.525
-0.455
-0.36
-0.375
-0.445
-0.525
-0.57
-0.645
-0.6
-0.51
-0.51
-0.445
-0.35
-0.345
-0.43
-0.48
-0.585
-0.6
-0.58
-0.57
-0.515
-0.44
-0.375
-0.4
-0.425
-0.405
-0.545
-0.57
-0.575
-0.525
-0.49
-0.36
-0.32
-0.265
-0.36
-0.45
-0.535
-0.575
-0.525
-0.44
-0.38
-0.21
-0.295
-0.35
-0.37
-0.375
-0.5
-0.485
-0.43
-0.32
-0.29
-0.2
-0.195
-0.215
-0.28
-0.29
-0.415
-0.42
-0.39
-0.37
-0.335
-0.16
-0.17
-0.185
-0.28
-0.29
-0.385
-0.38
-0.365
-0.315
-0.205
-0.075
-0.075
-0.13
-0.295
-0.315
-0.39
-0.41
-0.41
-0.315
-0.305
-0.18
-0.155
-0.175
-0.25
-0.33
-0.55
-0.5
-0.475
-0.415
-0.37
-0.21
-0.19
-0.27
-0.375
-0.38
-0.49
-0.525
-0.525
-0.495
-0.435
-0.3
-0.34
-0.385
-0.465
-0.49
-0.585
-0.595
-0.55
-0.435
-0.42
-0.35
-0.31
-0.34
-0.405
-0.435
-0.545
-0.595
-0.52
-0.475
-0.445
-0.33
-0.32
-0.365
-0.455
-0.475
-0.575
-0.55
-0.505
-0.445
-0.38
-0.23
-0.285
-0.405
-0.515
-0.585
-0.65
-0.6
-0.54
-0.505
-0.395
-0.3
-0.295
-0.405
-0.46
-0.535
-0.555
-0.58
-0.49
-0.415
-0.365
-0.315
-0.295
-0.405
-0.495
-0.56
-0.585
-0.535
-0.48
-0.435
-0.33
-0.26
-0.33
-0.395
-0.425
-0.56
-0.575
-0.55
-0.505
-0.5
-0.355
-0.24
-0.235
-0.365
-0.395
-0.52
-0.475
-0.52
-0.43
-0.44
-0.325
-0.3
-0.305
-0.43
-0.43
-0.57
-0.58
-0.555
-0.47
-0.435
-0.3
-0.25
-0.275
-0.34
-0.37
-0.52
-0.55
-0.51
-0.47
-0.455
-0.32
-0.3
-0.28
-0.36
-0.395
-0.585
-0.58
-0.51
-0.405
-0.395
-0.27
-0.29
-0.31
-0.4
-0.44
-0.54
-0.565
-0.595
-0.52
-0.44
-0.275
-0.28
-0.26
-0.355
-0.385
-0.535
-0.475
-0.485
-0.4
-0.345
-0.25
-0.29
-0.28
-0.395
-0.455
-0.615
-0.64
-0.525
-0.445
-0.395
-0.29
-0.245
-0.29
-0.37
-0.45
-0.565
-0.5
-0.455
-0.36
-0.385
-0.295
-0.28
-0.275
-0.365
-0.43
-0.55
-0.565
-0.53
-0.455
-0.39
-0.25
-0.265
-0.335
-0.375
-0.46
-0.61
-0.575
-0.495
-0.37
-0.355
-0.25
-0.23
-0.335
-0.41
-0.475
-0.55
-0.54
-0.44
-0.38
-0.3
-0.195
-0.245
-0.285
-0.375
-0.485
-0.555
-0.575
-0.43
-0.35
-0.295
-0.22
-0.245
-0.305
-0.345
-0.485
-0.535
-0.54
-0.44
-0.38
-0.27
-0.185
-0.205
-0.28
-0.37
-0.51
-0.505
-0.505
-0.4
-0.325
-0.24
-0.175
-0.245
-0.325
-0.32
-0.475
-0.585
-0.605
-0.44
-0.32
-0.305
-0.295
-0.235
-0.32
-0.335
-0.45
-0.51
-0.44
-0.355
-0.335
-0.19
-0.21
-0.23
-0.27
-0.33
-0.435
-0.415
-0.395
-0.345
-0.32
-0.14
-0.115
-0.185
-0.285
-0.33
-0.405
-0.39
-0.41
-0.295
-0.255
-0.11
-0.125
-0.215
-0.27
-0.285
-0.375
-0.345
-0.36
-0.325
-0.315
-0.23
-0.265
-0.285
-0.33
-0.33
-0.46
-0.47
-0.435
-0.375
-0.335
-0.23
-0.26
-0.24
-0.225
-0.295
-0.47
-0.445
-0.38
-0.3
-0.315
-0.205
-0.21
-0.215
-0.32
-0.37
-0.465
-0.485
-0.48
-0.34
-0.28
-0.15
-0.085
-0.165
-0.295
-0.31
-0.49
-0.475
-0.335
-0.285
-0.255
-0.12
-0.1
-0.125
-0.195
-0.26
-0.385
-0.415
-0.295
-0.2
-0.15
-0.065
-0.045
-0.15
-0.305
-0.38
-0.455
-0.52
-0.525
-0.495
-0.425
-0.33
-0.3
-0.285
-0.34
-0.375
-0.39
-0.43
-0.365
-0.315
-0.245
-0.15
-0.15
-0.17
-0.28
-0.36
-0.42
-0.375
-0.33
-0.31
-0.25
-0.11
-0.145
-0.22
-0.205
-0.32
-0.405
-0.395
-0.285
-0.23
-0.165
-0.13
-0.085
-0.125
-0.16
-0.24
-0.325
-0.32
-0.255
-0.195
-0.105
-0.065
-0.085
-0.18
-0.23
-0.355
-0.32
-0.27
-0.165
-0.165
-0.11
-0.115
-0.13
-0.17
-0.17
-0.28
-0.305
-0.27
-0.145
-0.125
0.01
0.045
-0.025
-0.115
-0.185
-0.295
-0.3
-0.28
-0.185
-0.105
0.01
0.015
-0.005
-0.09
-0.105
-0.29
-0.285
-0.27
-0.16
-0.075
0.1
0.03
0.0
-0.02
-0.025
-0.17
-0.175
-0.16
-0.125
-0.1
0.095
0.15
0.065
0.02
0.025
-0.145
-0.185
-0.135
0.02
0.04
0.21
0.2
0.16
0.05
0.045
-0.025
-0.105
-0.085
-0.01
0.055
0.18
0.16
0.06
-0.035
-0.035
-0.13
-0.095
-0.035
0.01
0.02
0.115
0.115
0.055
-0.09
-0.11
-0.26
-0.285
-0.17
-0.1
-0.06
0.065
0.09
0.055
-0.055
-0.15
-0.225
-0.21
-0.11
-0.075
0.06
0.24
0.28
0.235
0.28
0.33
0.39
0.485
0.64
0.74
0.73
0.775
0.76
0.585
0.45
0.305
0.15
0.15
0.19
0.22
0.255
0.315
0.29
0.22
0.13
0.06
-0.025
-0.08
-0.015
0.01
0.1
0.17
0.205
0.08
0.04
-0.075
-0.165
-0.145
-0.075
-0.005
0.085
0.145
0.135
0.045
0.005
-0.155
-0.2
-0.175
-0.145
-0.05
0.07
0.1
0.045
-0.05
-0.075
-0.215
-0.2
-0.16
-0.055
-0.06
0.055
0.115
0.065
0.0
-0.015
-0.17
-0.19
-0.195
-0.105
0.04
0.265
0.425
0.59
0.535
0.525
0.31
0.215
0.195
0.25
0.22
0.3
0.24
0.24
0.165
0.13
-0.045
-0.045
-0.02
0.015
-0.02
0.125
0.175
0.185
0.13
0.03
-0.13
-0.135
-0.11
-0.02
0.05
0.135
0.12
0.035
-0.045
-0.105
-0.225
-0.145
-0.085
-0.04
-0.04
0.06
0.095
0.065
0.0
-0.05
-0.205
-0.21
-0.2
-0.095
-0.035
0.115
0.12
0.065
-0.045
-0.16
-0.255
-0.225
-0.19
-0.135
-0.04
0.085
0.06
-0.03
-0.16
-0.22
-0.205
-0.18
-0.17
-0.105
-0.06
0.0
0.0
0.0
-0.06
-0.12
-0.235
-0.245
-0.205
-0.095
-0.035
0.045
0.055
-0.06
-0.17
-0.2
-0.28
-0.26
-0.14
-0.06
-0.065
0.005
-0.02
-0.07
-0.17
-0.2
-0.235
-0.2
-0.14
-0.095
-0.02
0.04
0.035
0.005
-0.085
-0.21
-0.285
-0.225
-0.145
-0.16
-0.02
0.005
-0.035
-0.14
-0.12
-0.16
-0.245
-0.26
-0.18
-0.1
0.005
0.045
-0.015
-0.075
-0.13
-0.215
-0.245
-0.245
-0.18
-0.13
-0.02
0.015
-0.005
-0.06
-0.105
-0.195
-0.205
-0.21
-0.13
-0.07
0.045
0.06
0.04
-0.035
-0.11
-0.205
-0.21
-0.21
-0.175
-0.18
-0.05
-0.035
0.01
-0.025
-0.09
-0.26
-0.205
-0.19
-0.135
-0.07
0.04
0.07
0.015
-0.075
-0.13
-0.275
-0.29
-0.28
-0.2
-0.095
0.095
0.11
0.06
-0.04
-0.105
-0.245
-0.25
-0.23
-0.145
-0.125
0.0
0.085
0.03
-0.07
-0.09
-0.16
-0.16
-0.13
-0.025
-0.02
0.08
0.07
0.025
-0.06
-0.075
-0.2
-0.185
-0.145
-0.025
-0.01
0.115
0.125
0.02
-0.065
-0.075
-0.185
-0.215
-0.165
-0.04
-0.03
0.08
0.07
-0.04
-0.095
-0.105
-0.2
-0.235
-0.185
-0.1
-0.01
0.07
0.035
-0.03
-0.095
-0.12
-0.2
-0.17
-0.095
-0.055
-0.025
0.055
0.07
-0.03
-0.08
-0.165
-0.255
-0.26
-0.165
-0.125
-0.045
0.05
0.03
-0.05
-0.055
-0.165
-0.19
-0.16
-0.07
-0.045
0.035
0.105
0.05
0.02
-0.01
-0.06
-0.085
-0.1
-0.075
-0.02
0.15
0.215
0.13
-0.02
-0.045
-0.24
-0.295
-0.285
-0.23
-0.135
-0.085
-0.08
-0.08
-0.125
-0.14
-0.265
-0.305
-0.18
-0.115
-0.08
0.03
0.005
-0.015
-0.04
-0.09
-0.22
-0.175
-0.185
-0.085
-0.1
0.055
0.065
0.055
-0.015
-0.075
-0.155
-0.17
-0.245
-0.16
-0.05
0.085
0.115
0.06
-0.03
-0.055
-0.19
-0.17
-0.165
-0.11
-0.045
0.08
0.115
0.12
0.02
-0.045
-0.195
-0.19
-0.145
-0.075
-0.045
0.13
0.15
0.07
0.015
-0.03
-0.16
-0.185
-0.15
-0.09
-0.07
0.085
0.11
0.08
0.0
-0.045
-0.145
-0.165
-0.125
-0.005
0.095
0.26
0.23
0.125
0.075
0.05
-0.085
-0.115
-0.095
0.025
0.125
0.265
0.18
0.1
-0.005
-0.01
-0.035
-0.03
0.03
0.15
0.155
0.2
0.245
0.23
0.155
0.115
-0.005
0.035
0.075
0.15
0.18
0.28
0.275
0.23
0.19
0.13
0.07
0.01
0.06
0.155
0.235
0.31
0.285
0.2
0.105
0.07
-0.055
-0.11
0.005
0.05
0.195
0.26
0.245
0.15
0.1
0.02
-0.015
-0.04
-0.025
0.045
0.125
0.16
0.155
0.09
-0.015
-0.09
-0.115
-0.14
-0.02
0.025
0.08
0.125
0.085
0.03
-0.025
-0.105
-0.105
-0.105
-0.01
0.035
0.15
0.18
0.115
-0.015
-0.055
-0.175
-0.18
-0.15
-0.095
-0.04
0.09
0.135
0.14
0.015
-0.01
-0.135
-0.145
-0.125
-0.04
-0.06
0.055
0.04
0.055
0.03
-0.02
-0.135
-0.125
-0.11
-0.03
-0.01
0.165
0.17
0.12
-0.005
0.01
-0.15
-0.155
-0.03
0.02
-0.02
0.105
0.125
0.065
0.015
-0.02
-0.09
-0.115
-0.115
-0.065
-0.035
0.165
0.16
0.125
0.015
-0.045
-0.185
-0.195
-0.105
0.04
0.07
0.225
0.185
0.12
0.065
0.015
-0.205
-0.175
-0.09
0.0
0.03
0.15
0.175
0.095
0.0
-0.05
-0.155
-0.125
-0.03
0.015
0.035
0.165
0.16
0.055
0.035
0.035
-0.115
-0.155
-0.075
0.03
0.09
0.21
0.18
0.05
-0.01
0.01
-0.135
-0.105
-0.06
0.04
0.06
0.135
0.11
0.095
0.025
-0.075
-0.18
-0.15
-0.025
0.06
0.09
0.21
0.2
0.125
0.035
-0.1
-0.155
-0.055
-0.005
-0.01
0.04
0.12
0.165
0.06
-0.06
-0.135
-0.16
-0.075
0.05
0.105
0.19
0.22
0.16
0.075
0.03
-0.125
-0.145
-0.1
-0.025
0.03
0.175
0.18
0.135
0.09
0.035
-0.085
-0.085
-0.1
-0.01
-0.005
0.115
0.155
0.17
0.095
0.005
-0.115
-0.06
-0.085
-0.055
0.07
0.185
0.135
0.21
0.11
0.085
-0.065
-0.085
-0.125
-0.075
-0.005
0.135
0.13
0.17
0.105
0.055
-0.14
-0.135
-0.115
0.015
0.095
0.21
0.155
0.12
0.06
0.06
-0.095
-0.11
0.015
0.065
0.03
0.12
0.175
0.16
0.125
0.06
-0.115
-0.14
-0.035
0.06
0.075
0.21
0.205
0.115
0.04
0.04
-0.085
-0.085
-0.07
0.01
0.09
0.16
0.12
0.11
0.025
0.03
-0.09
-0.085
-0.035
0.05
0.09
0.155
0.145
0.075
0.005
-0.055
-0.185
-0.13
0.0
0.065
0.12
0.18
0.12
0.12
0.045
-0.005
-0.08
-0.115
-0.015
0.075
0.125
0.21
0.165
0.15
0.09
0.035
-0.035
-0.065
0.025
0.06
0.055
0.165
0.18
0.16
0.12
0.03
-0.02
0.015
0.07
0.13
0.145
0.265
0.245
0.14
0.02
-0.01
-0.05
-0.05
0.095
0.15
0.205
0.27
0.2
0.095
0.1
-0.005
-0.045
-0.01
0.05
0.13
0.22
0.205
0.17
0.095
0.07
-0.06
-0.16
-0.135
-0.045
0.035
0.165
0.205
0.165
0.085
0.04
-0.14
-0.15
-0.08
0.055
0.125
0.215
0.195
0.175
0.09
0.085
-0.05
-0.04
-0.06
0.05
0.11
0.255
0.205
0.145
0.07
-0.01
-0.155
-0.075
0.0
0.105
0.095
0.22
0.25
0.31
0.24
0.21
0.06
0.02
0.05
0.175
0.235
0.335
0.275
0.265
0.135
0.06
-0.07
-0.085
-0.11
-0.14
-0.005
0.08
0.06
0.06
-0.055
-0.07
-0.12
-0.07
-0.025
0.1
0.105
0.26
0.255
0.175
0.07
0.1
0.005
-0.025
0.035
0.055
0.075
0.17
0.19
0.14
0.08
0.13
-0.005
-0.085
0.025
0.08
0.095
0.2
0.21
0.21
0.16
0.1
0.01
-0.06
-0.05
-0.005
0.15
0.25
0.27
0.225
0.13
0.045
-0.05
-0.055
0.02
0.135
0.155
0.285
0.3
0.235
0.155
0.065
-0.04
-0.07
-0.01
0.11
0.205
0.29
0.255
0.175
0.145
0.095
0.0
0.035
0.085
0.13
0.23
0.325
0.28
0.25
0.18
0.005
0.005
0.13
0.16
0.145
0.27
0.305
0.31
0.225
0.15
0.105
0.1
0.105
0.135
0.185
0.335
0.385
0.415
0.305
0.255
0.145
0.155
0.155
0.25
0.29
0.405
0.435
0.46
0.37
0.31
0.185
0.21
0.225
0.255
0.245
0.37
0.41
0.4
0.325
0.36
0.19
0.185
0.175
0.235
0.245
0.385
0.32
0.32
0.285
0.23
0.04
0.005
0.07
0.17
0.16
0.31
0.395
0.37
0.25
0.175
0.01
-0.03
0.025
0.12
0.16
0.275
0.315
0.285
0.135
0.075
-0.055
-0.04
0.02
0.1
0.115
0.215
0.25
0.235
0.18
0.145
0.005
0.01
0.07
0.15
0.21
0.32
0.255
0.215
0.11
-0.005
-0.035
0.0
0.055
0.125
0.135
0.235
0.255
0.185
0.125
0.095
0.0
-0.015
0.01
0.1
0.165
0.25
0.215
0.205
0.15
0.11
0.02
-0.01
0.085
0.135
0.14
0.23
0.255
0.225
0.19
0.165
0.02
0.045
0.13
0.145
0.16
0.195
0.14
0.145
0.165
0.115
0.06
0.095
0.145
0.15
0.24
0.365
0.35
0.24
0.13
0.02
-0.06
0.005
0.075
0.105
0.255
0.275
0.275
0.22
0.195
0.095
0.04
0.01
0.1
0.11
0.235
0.28
0.31
0.225
0.15
0.05
0.0
0.02
0.115
0.21
0.325
0.355
0.315
0.24
0.165
0.005
0.015
0.025
0.16
0.215
0.295
0.325
0.24
0.14
0.1
0.015
0.015
0.01
0.1
0.175
0.27
0.255
0.275
0.195
0.145
-0.005
-0.005
0.02
0.115
0.155
0.235
0.285
0.31
0.22
0.145
0.04
0.0
0.05
0.075
0.155
0.29
0.29
0.275
0.19
0.17
0.095
0.09
0.06
0.125
0.18
0.34
0.31
0.25
0.185
0.135
0.005
0.04
0.095
0.17
0.175
0.295
0.285
0.23
0.105
0.09
-0.02
-0.005
0.05
0.135
0.205
0.325
0.345
0.25
0.165
0.15
0.0
-0.02
0.1
0.075
0.15
0.355
0.375
0.31
0.24
0.14
0.08
0.085
0.075
0.15
0.235
0.31
0.315
0.24
0.205
0.145
0.005
0.015
0.105
0.205
0.285
0.38
0.36
0.305
0.21
0.185
0.125
0.085
0.12
0.15
0.265
0.41
0.365
0.29
0.22
0.135
0.045
0.065
0.13
0.17
0.195
0.275
0.335
0.275
0.23
0.14
0.03
0.095
0.21
0.195
0.23
0.275
0.255
0.155
0.14
0.05
0.03
0.01
0.095
0.16
0.205
0.27
0.225
0.2
0.17
0.05
0.03
0.01
0.14
0.205
0.285
0.285
0.295
0.215
0.14
-0.015
0.005
0.05
0.155
0.17
0.31
0.385
0.35
0.3
0.275
0.14
0.135
0.17
0.22
0.31
0.415
0.445
0.44
0.31
0.255
0.055
0.045
0.06
0.115
0.125
0.22
0.235
0.16
-0.01
-0.045
-0.175
-0.1
-0.03
0.095
0.185
0.31
0.39
0.39
0.27
0.155
-0.01
-0.01
0.08
0.135
0.135
0.275
0.285
0.26
0.215
0.19
0.085
0.075
0.135
0.195
0.225
0.385
0.41
0.35
0.195
0.15
0.03
-0.005
0.055
0.19
0.265
0.295
0.335
0.335
0.275
0.17
0.11
0.065
0.12
0.17
0.245
0.355
0.345
0.26
0.225
0.255
0.095
0.09
0.145
0.235
0.295
0.365
0.315
0.29
0.24
0.225
0.13
0.095
0.11
0.225
0.335
0.385
0.325
0.25
0.205
0.165
0.17
0.19
0.235
0.26
0.32
0.45
0.49
0.395
0.255
0.16
0.18
0.17
0.215
0.295
0.43
0.48
0.48
0.405
0.34
0.255
0.21
0.195
0.27
0.335
0.51
0.585
0.55
0.47
0.39
0.285
0.27
0.275
0.335
0.41
0.535
0.53
0.545
0.465
0.365
0.265
0.18
0.195
0.375
0.41
0.475
0.49
0.465
0.385
0.375
0.25
0.21
0.2
0.235
0.275
0.375
0.38
0.335
0.275
0.245
0.14
0.185
0.195
0.25
0.28
0.4
0.35
0.26
0.17
0.135
0.055
0.07
0.13
0.21
0.2
0.32
0.35
0.34
0.225
0.15
0.055
0.095
0.155
0.245
0.26
0.355
0.365
0.295
0.25
0.21
0.03
0.03
0.07
0.155
0.185
0.31
0.285
0.265
0.225
0.235
0.11
0.07
0.125
0.195
0.22
0.345
0.325
0.265
0.2
0.145
0.05
0.065
0.09
0.23
0.275
0.34
0.375
0.335
0.2
0.095
0.065
0.08
0.105
0.2
0.25
0.39
0.425
0.34
0.22
0.125
0.085
0.105
0.13
0.18
0.26
0.39
0.4
0.31
0.21
0.105
0.075
0.08
0.09
0.18
0.32
0.355
0.35
0.26
0.22
0.175
0.1
0.12
0.18
0.23
0.28
0.34
0.36
0.27
0.16
0.075
0.1
0.115
0.175
0.215
0.36
0.405
0.395
0.315
0.27
0.17
0.08
0.065
0.135
0.215
0.285
0.365
0.38
0.24
0.205
0.055
0.035
0.045
0.12
0.19
0.35
0.395
0.33
0.275
0.24
0.11
0.105
0.075
0.115
0.15
0.27
0.35
0.405
0.275
0.21
0.115
0.135
0.145
0.16
0.18
0.345
0.32
0.3
0.235
0.185
0.05
0.065
0.13
0.245
0.265
0.355
0.325
0.32
0.25
0.21
0.09
0.08
0.08
0.145
0.19
0.365
0.355
0.335
0.28
0.255
0.1
0.065
0.095
0.195
0.17
0.26
0.31
0.29
0.225
0.22
0.1
0.07
0.115
0.19
0.205
0.31
0.345
0.26
0.215
0.205
0.09
0.085
0.155
0.29
0.3
0.375
0.38
0.355
0.235
0.14
0.04
0.04
0.08
0.175
0.25
0.355
0.33
0.265
0.2
0.21
0.15
0.16
0.23
0.245
0.24
0.37
0.385
0.31
0.17
0.09
0.0
0.02
0.1
0.24
0.31
0.405
0.42
0.285
0.205
0.095
0.075
0.115
0.14
0.205
0.305
0.425
0.455
0.36
0.28
0.165
0.055
0.025
0.15
0.21
0.315
0.345
0.355
0.275
0.26
0.14
0.11
0.055
0.19
0.27
0.36
0.39
0.315
0.25
0.205
0.13
0.145
0.125
0.21
0.29
0.365
0.365
0.33
0.245
0.255
0.135
0.13
0.12
0.145
0.2
0.39
0.405
0.36
0.32
0.315
0.155
0.135
0.17
0.245
0.255
0.395
0.445
0.47
0.335
0.225
0.135
0.13
0.135
0.22
0.325
0.44
0.36
0.33
0.27
0.24
0.145
0.165
0.15
0.19
0.245
0.375
0.31
0.31
0.3
0.24
0.035
0.02
0.075
0.19
0.245
0.355
0.36
0.285
0.19
0.12
0.045
0.11
0.21
0.225
0.175
0.295
0.345
0.31
0.225
0.2
0.085
0.08
0.125
0.225
0.255
0.4
0.475
0.455
0.355
0.27
0.135
0.185
0.215
0.32
0.39
0.49
0.485
0.385
0.33
0.24
0.125
0.125
0.135
0.195
0.19
0.31
0.29
0.17
0.08
0.02
-0.035
0.01
0.13
0.19
0.265
0.35
0.29
0.235
0.25
0.175
0.07
0.06
0.13
0.24
0.33
0.41
0.385
0.29
0.275
0.16
0.095
0.145
0.23
0.335
0.365
0.42
0.405
0.33
0.26
0.18
0.15
0.17
0.275
0.275
0.36
0.38
0.32
0.245
0.305
0.23
0.15
0.18
0.265
0.275
0.335
0.385
0.37
0.29
0.215
0.115
0.115
0.15
0.19
0.245
0.385
0.49
0.44
0.33
0.32
0.19
0.18
0.2
0.235
0.21
0.365
0.375
0.41
0.4
0.345
0.22
0.225
0.225
0.32
0.425
0.545
0.52
0.48
0.4
0.315
0.18
0.26
0.27
0.305
0.345
0.515
0.5
0.48
0.39
0.37
0.24
0.26
0.35
0.445
0.41
0.555
0.53
0.52
0.46
0.41
0.27
0.22
0.32
0.405
0.45
0.57
0.555
0.55
0.485
0.455
0.295
0.3
0.34
0.38
0.45
0.545
0.58
0.545
0.43
0.33
0.19
0.195
0.27
0.335
0.4
0.485
0.49
0.385
0.285
0.275
0.215
0.195
0.23
0.27
0.31
0.415
0.435
0.38
0.32
0.235
0.1
0.105
0.185
0.27
0.275
0.405
0.385
0.355
0.3
0.19
0.1
0.115
0.18
0.245
0.295
0.405
0.42
0.335
0.23
0.14
0.07
0.11
0.22
0.26
0.37
0.445
0.385
0.325
0.28
0.125
-0.015
0.05
0.22
0.255
0.385
0.415
0.395
0.32
0.255
0.195
0.145
0.14
0.195
0.255
0.345
0.36
0.375
0.32
0.28
0.15
0.105
0.075
0.165
0.275
0.35
0.33
0.31
0.25
0.245
0.14
0.17
0.19
0.295
0.325
0.44
0.41
0.375
0.285
0.275
0.12
0.17
0.12
0.22
0.25
0.365
0.385
0.37
0.25
0.24
0.155
0.16
0.185
0.24
0.24
0.355
0.38
0.39
0.3
0.225
0.06
0.125
0.16
0.24
0.25
0.37
0.365
0.345
0.265
0.255
0.155
0.13
0.145
0.26
0.265
0.395
0.395
0.32
0.295
0.24
0.06
0.06
0.15
0.26
0.3
0.445
0.38
0.32
0.255
0.215
0.105
0.135
0.2
0.26
0.26
0.365
0.34
0.26
0.195
0.175
0.095
0.11
0.175
0.215
0.23
0.34
0.375
0.33
0.23
0.21
0.135
0.115
0.125
0.16
0.27
0.405
0.385
0.33
0.285
0.215
0.135
0.13
0.16
0.17
0.215
0.34
0.285
0.26
0.27
0.26
0.125
0.09
0.2
0.26
0.335
0.415
0.39
0.285
0.225
0.14
0.07
0.08
0.155
0.245
0.305
0.39
0.37
0.295
0.175
0.04
0.08
0.05
0.15
0.32
0.38
0.425
0.395
0.295
0.22
0.15
0.14
0.095
0.23
0.28
0.355
0.355
0.31
0.22
0.19
0.07
0.065
0.075
0.215
0.29
0.385
0.4
0.345
0.25
0.22
0.11
0.1
0.145
0.22
0.25
0.37
0.36
0.305
0.195
0.125
0.04
0.08
0.08
0.185
0.305
0.435
0.425
0.395
0.285
0.175
-0.01
0.03
0.125
0.245
0.29
0.405
0.43
0.355
0.26
0.185
0.03
0.02
0.125
0.205
0.235
0.36
0.285
0.285
0.235
0.19
0.125
0.13
0.115
0.185
0.25
0.375
0.315
0.265
0.21
0.23
0.14
0.085
0.11
0.185
0.28
0.405
0.41
0.335
0.25
0.235
0.15
0.115
0.18
0.21
0.25
0.355
0.375
0.32
0.3
0.3
0.21
0.125
0.1
0.2
0.225
0.305
0.35
0.31
0.245
0.205
0.185
0.135
0.195
0.28
0.38
0.425
0.375
0.28
0.305
0.26
0.145
0.15
0.19
0.265
0.315
0.4
0.385
0.325
0.265
0.185
0.125
0.115
0.14
0.205
0.255
0.355
0.355
0.295
0.265
0.14
0.1
0.075
0.16
0.24
0.32
0.385
0.365
0.245
0.2
0.105
0.055
0.03
0.145
0.21
0.385
0.42
0.335
0.275
0.225
0.035
0.08
0.135
0.205
0.28
0.4
0.405
0.405
0.315
0.23
0.115
0.185
0.29
0.335
0.365
0.465
0.47
0.415
0.34
0.31
0.215
0.22
0.245
0.235
0.225
0.32
0.315
0.24
0.12
0.015
-0.08
-0.025
0.065
0.19
0.175
0.33
0.35
0.35
0.245
0.15
0.06
0.105
0.16
0.24
0.23
0.345
0.39
0.3
0.24
0.235
0.145
0.145
0.175
0.305
0.335
0.465
0.51
0.39
0.3
0.26
0.1
0.105
0.085
0.165
0.265
0.43
0.43
0.425
0.35
0.27
0.135
0.12
0.125
0.215
0.32
0.355
0.365
0.38
0.28
0.175
0.125
0.195
0.26
0.305
0.33
0.395
0.415
0.355
0.305
0.275
0.2
0.18
0.26
0.325
0.33
0.46
0.485
0.41
0.33
0.25
0.23
0.22
0.28
0.33
0.36
0.48
0.505
0.405
0.37
0.285
0.2
0.185
0.315
0.385
0.45
0.53
0.51
0.405
0.39
0.32
0.25
0.255
0.345
0.455
0.5
0.505
0.52
0.48
0.45
0.35
0.315
0.365
0.425
0.44
0.56
0.6
0.57
0.52
0.49
0.36
0.315
0.315
0.41
0.445
0.56
0.555
0.52
0.42
0.37
0.3
0.265
0.26
0.335
0.41
0.54
0.515
0.44
0.37
0.375
0.25
0.205
0.18
0.29
0.395
0.48
0.385
0.315
0.25
0.3
0.18
0.175
0.215
0.27
0.25
0.415
0.385
0.36
0.32
0.235
0.115
0.07
0.17
0.27
0.275
0.435
0.41
0.41
0.34
0.255
0.09
0.145
0.205
0.295
0.3
0.43
0.44
0.415
0.27
0.245
0.115
0.12
0.185
0.265
0.305
0.355
0.43
0.41
0.27
0.19
0.06
0.11
0.18
0.26
0.275
0.395
0.415
0.355
0.28
0.22
0.08
0.075
0.135
0.215
0.22
0.305
0.4
0.355
0.29
0.26
0.17
0.095
0.21
0.35
0.425
0.51
0.47
0.335
0.27
0.21
0.13
0.11
0.23
0.29
0.315
0.455
0.475
0.44
0.35
0.25
0.17
0.17
0.21
0.285
0.39
0.455
0.44
0.365
0.325
0.155
0.095
0.075
0.145
0.245
0.345
0.475
0.455
0.37
0.315
0.17
0.13
0.16
0.245
0.285
0.4
0.4
0.395
0.42
0.335
0.23
0.21
0.205
0.26
0.29
0.365
0.43
0.405
0.375
0.3
0.155
0.215
0.265
0.315
0.3
0.42
0.45
0.39
0.235
0.18
0.12
0.15
0.175
0.255
0.255
0.36
0.425
0.43
0.295
0.24
0.18
0.235
0.22
0.315
0.33
0.45
0.445
0.415
0.315
0.28
0.14
0.21
0.235
0.315
0.295
0.38
0.39
0.335
0.24
0.26
0.155
0.18
0.215
0.28
0.26
0.395
0.435
0.415
0.35
0.255
0.12
0.135
0.165
0.27
0.28
0.44
0.51
0.415
0.27
0.215
0.1
0.14
0.16
0.255
0.32
0.495
0.5
0.445
0.365
0.285
0.175
0.16
0.21
0.29
0.34
0.425
0.435
0.405
0.385
0.315
0.2
0.14
0.175
0.24
0.265
0.335
0.315
0.33
0.315
0.275
0.205
0.235
0.25
0.315
0.385
0.405
0.42
0.38
0.275
0.2
0.125
0.165
0.255
0.305
0.365
0.505
0.52
0.42
0.35
0.27
0.185
0.155
0.225
0.335
0.435
0.49
0.46
0.45
0.41
0.3
0.185
0.19
0.325
0.365
0.43
0.455
0.445
0.4
0.335
0.185
0.15
0.19
0.265
0.26
0.315
0.45
0.47
0.35
0.285
0.195
0.155
0.185
0.26
0.33
0.39
0.42
0.39
0.345
0.31
0.155
0.165
0.155
0.27
0.3
0.405
0.435
0.425
0.36
0.32
0.155
0.175
0.195
0.27
0.31
0.415
0.385
0.38
0.26
0.28
0.235
0.255
0.3
0.335
0.385
0.47
0.49
0.485
0.38
0.31
0.235
0.28
0.35
0.42
0.43
0.525
0.51
0.455
0.395
0.335
0.13
0.075
0.06
0.205
0.2
0.27
0.265
0.23
0.165
0.25
0.12
0.105
0.2
0.295
0.27
0.45
0.48
0.4
0.335
0.26
0.14
0.165
0.18
0.275
0.33
0.46
0.42
0.38
0.33
0.305
0.13
0.13
0.205
0.335
0.43
0.455
0.49
0.415
0.3
0.215
0.125
0.17
0.275
0.365
0.39
0.435
0.48
0.52
0.39
