# TIPE ECG 2021 - ECG-ID Database v1.0.0 par Physionet
# [N° de la personne, N° de l'enregistrement, Période d'échantillonnage, Prénom, Age, Sexe, Date de l'enregistrement]
[34, 3, 0.002, "Laura", 49, "F", "13.05.2005"]
-0.975
-0.915
-0.91
-0.89
-0.9
-0.94
-0.945
-0.99
-1.015
-1.005
-0.97
-0.97
-0.965
-0.915
-0.92
-0.955
-0.965
-1.015
-1.03
-1.02
-1.005
-0.99
-0.96
-0.95
-0.97
-0.985
-1.0
-1.04
-1.03
-1.035
-1.025
-0.99
-0.945
-0.975
-0.985
-1.005
-0.97
-1.01
-1.06
-1.035
-1.02
-1.035
-0.975
-0.98
-0.99
-0.955
-0.985
-1.06
-1.035
-1.025
-1.04
-0.975
-0.95
-0.975
-1.0
-0.965
-0.995
-1.04
-1.06
-1.065
-1.05
-1.04
-0.985
-0.96
-0.96
-1.01
-1.03
-1.055
-1.065
-1.09
-1.055
-1.015
-1.03
-1.03
-1.04
-1.065
-1.1
-1.135
-1.155
-1.135
-1.135
-1.115
-1.07
-1.07
-1.11
-1.11
-1.145
-1.135
-1.21
-1.195
-1.16
-1.15
-1.165
-1.175
-1.11
-1.125
-1.16
-1.175
-1.21
-1.18
-1.17
-1.16
-1.145
-1.115
-1.15
-1.2
-1.2
-1.23
-1.285
-1.21
-1.175
-1.155
-1.14
-1.115
-1.15
-1.17
-1.215
-1.245
-1.165
-1.215
-1.205
-1.205
-1.165
-1.165
-1.19
-1.195
-1.22
-1.225
-1.23
-1.245
-1.28
-1.25
-1.245
-1.21
-1.24
-1.255
-1.315
-1.33
-1.34
-1.315
-1.305
-1.265
-1.245
-1.255
-1.265
-1.275
-1.33
-1.355
-1.35
-1.3
-1.285
-1.285
-1.21
-1.235
-1.305
-1.29
-1.34
-1.375
-1.355
-1.345
-1.245
-1.22
-1.305
-1.255
-1.285
-1.29
-1.35
-1.385
-1.4
-1.35
-1.435
-1.445
-1.445
-1.41
-1.36
-1.315
-1.26
-1.105
-0.925
-0.71
-0.5
-0.365
-0.3
-0.185
-0.215
-0.31
-0.48
-0.72
-0.915
-1.015
-1.085
-1.17
-1.22
-1.215
-1.24
-1.305
-1.275
-1.275
-1.37
-1.32
-1.3
-1.26
-1.22
-1.265
-1.33
-1.35
-1.37
-1.34
-1.33
-1.36
-1.335
-1.3
-1.31
-1.305
-1.335
-1.385
-1.365
-1.39
-1.345
-1.355
-1.305
-1.3
-1.295
-1.31
-1.345
-1.39
-1.405
-1.415
-1.41
-1.405
-1.37
-1.31
-1.325
-1.35
-1.365
-1.385
-1.445
-1.435
-1.405
-1.35
-1.345
-1.35
-1.365
-1.365
-1.39
-1.405
-1.42
-1.37
-1.43
-1.42
-1.335
-1.37
-1.36
-1.37
-1.35
-1.38
-1.44
-1.48
-1.425
-1.4
-1.39
-1.325
-1.37
-1.37
-1.36
-1.4
-1.42
-1.445
-1.41
-1.405
-1.38
-1.315
-1.255
-1.38
-1.405
-1.4
-1.415
-1.43
-1.4
-1.375
-1.335
-1.3
-1.33
-1.31
-1.34
-1.345
-1.39
-1.365
-1.365
-1.315
-1.28
-1.28
-1.25
-1.275
-1.31
-1.33
-1.365
-1.34
-1.31
-1.315
-1.255
-1.21
-1.205
-1.31
-1.32
-1.315
-1.305
-1.25
-1.29
-1.295
-1.265
-1.265
-1.23
-1.285
-1.315
-1.265
-1.37
-1.335
-1.31
-1.325
-1.305
-1.335
-1.325
-1.325
-1.355
-1.42
-1.45
-1.385
-1.355
-1.42
-1.355
-1.3
-1.295
-1.405
-1.45
-1.465
-1.46
-1.43
-1.45
-1.42
-1.365
-1.36
-1.395
-1.37
-1.43
-1.47
-1.46
-1.45
-1.43
-1.405
-1.36
-1.385
-1.37
-1.395
-1.435
-1.46
-1.46
-1.49
-1.45
-1.395
-1.37
-1.405
-1.39
-1.385
-1.39
-1.445
-1.46
-1.47
-1.435
-1.38
-1.365
-1.4
-1.43
-1.355
-1.465
-1.475
-1.49
-1.465
-1.45
-1.405
-1.39
-1.39
-1.385
-1.4
-1.39
-1.455
-1.5
-1.485
-1.46
-1.415
-1.395
-1.345
-1.4
-1.445
-1.46
-1.445
-1.51
-1.485
-1.395
-1.4
-1.385
-1.38
-1.395
-1.43
-1.465
-1.465
-1.47
-1.495
-1.445
-1.395
-1.39
-1.35
-1.38
-1.405
-1.455
-1.485
-1.5
-1.47
-1.42
-1.365
-1.365
-1.355
-1.4
-1.385
-1.43
-1.45
-1.48
-1.445
-1.43
-1.41
-1.38
-1.355
-1.4
-1.39
-1.415
-1.45
-1.47
-1.43
-1.435
-1.39
-1.385
-1.43
-1.39
-1.375
-1.435
-1.48
-1.42
-1.405
-1.43
-1.32
-1.395
-1.4
-1.395
-1.38
-1.45
-1.42
-1.435
-1.42
-1.405
-1.35
-1.355
-1.345
-1.34
-1.365
-1.425
-1.425
-1.405
-1.405
-1.365
-1.325
-1.31
-1.325
-1.345
-1.34
-1.395
-1.405
-1.37
-1.365
-1.355
-1.315
-1.32
-1.305
-1.325
-1.295
-1.32
-1.34
-1.335
-1.32
-1.28
-1.275
-1.255
-1.235
-1.22
-1.3
-1.295
-1.38
-1.34
-1.295
-1.315
-1.265
-1.24
-1.205
-1.285
-1.36
-1.36
-1.36
-1.37
-1.375
-1.345
-1.34
-1.31
-1.33
-1.29
-1.355
-1.445
-1.43
-1.385
-1.33
-1.315
-1.31
-1.31
-1.335
-1.37
-1.355
-1.34
-1.415
-1.385
-1.335
-1.325
-1.32
-1.32
-1.31
-1.335
-1.355
-1.37
-1.39
-1.4
-1.35
-1.335
-1.315
-1.31
-1.33
-1.36
-1.425
-1.49
-1.545
-1.52
-1.505
-1.435
-1.31
-1.125
-0.99
-0.86
-0.71
-0.565
-0.435
-0.355
-0.225
-0.215
-0.305
-0.4
-0.655
-0.82
-0.96
-1.175
-1.27
-1.255
-1.24
-1.24
-1.225
-1.195
-1.23
-1.255
-1.295
-1.305
-1.3
-1.275
-1.31
-1.29
-1.275
-1.275
-1.325
-1.295
-1.315
-1.335
-1.275
-1.225
-1.28
-1.29
-1.265
-1.245
-1.235
-1.26
-1.29
-1.32
-1.3
-1.295
-1.285
-1.255
-1.225
-1.2
-1.25
-1.26
-1.275
-1.295
-1.295
-1.28
-1.245
-1.215
-1.22
-1.195
-1.215
-1.265
-1.275
-1.29
-1.27
-1.26
-1.23
-1.18
-1.16
-1.175
-1.2
-1.21
-1.25
-1.27
-1.24
-1.24
-1.235
-1.19
-1.155
-1.165
-1.13
-1.195
-1.24
-1.265
-1.25
-1.235
-1.185
-1.15
-1.15
-1.18
-1.19
-1.18
-1.22
-1.22
-1.23
-1.185
-1.19
-1.095
-1.125
-1.15
-1.155
-1.18
-1.2
-1.205
-1.17
-1.13
-1.095
-1.08
-1.105
-1.08
-1.1
-1.105
-1.13
-1.14
-1.115
-1.09
-1.035
-1.035
-0.985
-1.02
-1.05
-1.065
-1.09
-1.1
-1.085
-1.055
-1.04
-1.025
-1.015
-0.99
-1.0
-1.055
-1.065
-1.12
-1.065
-1.045
-1.04
-1.035
-1.025
-1.03
-1.07
-1.065
-1.055
-1.145
-1.16
-1.145
-1.12
-1.095
-1.105
-1.115
-1.095
-1.175
-1.19
-1.175
-1.195
-1.19
-1.12
-1.135
-1.145
-1.14
-1.15
-1.175
-1.22
-1.23
-1.205
-1.19
-1.16
-1.135
-1.095
-1.13
-1.14
-1.18
-1.205
-1.22
-1.24
-1.19
-1.15
-1.13
-1.12
-1.13
-1.185
-1.205
-1.185
-1.235
-1.205
-1.185
-1.165
-1.135
-1.12
-1.095
-1.155
-1.215
-1.205
-1.205
-1.19
-1.18
-1.14
-1.095
-1.115
-1.14
-1.17
-1.175
-1.2
-1.175
-1.175
-1.185
-1.08
-1.08
-1.115
-1.16
-1.195
-1.215
-1.2
-1.165
-1.175
-1.16
-1.12
-1.07
-1.085
-1.13
-1.145
-1.16
-1.15
-1.195
-1.15
-1.155
-1.115
-1.095
-1.115
-1.145
-1.135
-1.125
-1.195
-1.155
-1.15
-1.135
-1.095
-1.06
-1.075
-1.09
-1.105
-1.185
-1.19
-1.15
-1.16
-1.105
-1.065
-1.075
-1.075
-1.105
-1.15
-1.16
-1.175
-1.16
-1.15
-1.095
-1.115
-1.095
-1.1
-1.105
-1.135
-1.16
-1.155
-1.165
-1.165
-1.115
-1.065
-1.095
-1.055
-1.1
-1.105
-1.14
-1.18
-1.19
-1.165
-1.11
-1.055
-1.06
-1.07
-1.105
-1.14
-1.165
-1.16
-1.165
-1.105
-1.105
-1.11
-1.07
-1.065
-1.075
-1.18
-1.165
-1.155
-1.13
-1.175
-1.135
-1.08
-1.055
-1.09
-1.11
-1.115
-1.14
-1.155
-1.125
-1.1
-1.105
-1.125
-1.075
-1.09
-1.08
-1.12
-1.11
-1.135
-1.145
-1.085
-1.09
-1.075
-1.06
-1.085
-1.115
-1.12
-1.13
-1.145
-1.15
-1.1
-1.02
-1.05
-1.05
-1.115
-1.115
-1.14
-1.18
-1.22
-1.215
-1.155
-1.13
-1.1
-1.105
-1.125
-1.165
-1.19
-1.2
-1.2
-1.185
-1.16
-1.08
-1.09
-1.115
-1.09
-1.12
-1.215
-1.225
-1.15
-1.145
-1.155
-1.16
-1.065
-1.015
-1.115
-1.135
-1.16
-1.165
-1.145
-1.18
-1.145
-1.085
-1.055
-1.085
-1.125
-1.115
-1.205
-1.27
-1.25
-1.215
-1.22
-1.12
-1.055
-0.97
-0.87
-0.695
-0.61
-0.48
-0.385
-0.215
-0.125
-0.07
-0.145
-0.28
-0.47
-0.625
-0.81
-0.965
-1.055
-1.06
-1.065
-1.035
-0.995
-1.03
-1.015
-1.035
-1.105
-1.115
-1.11
-1.07
-1.07
-1.03
-1.025
-1.04
-1.06
-1.075
-1.115
-1.125
-1.12
-1.08
-1.08
-1.02
-1.015
-1.045
-1.06
-1.1
-1.125
-1.11
-1.02
-1.07
-1.085
-1.055
-1.0
-1.01
-1.06
-1.12
-1.07
-1.07
-1.12
-1.09
-1.03
-0.99
-0.985
-1.015
-1.03
-1.06
-1.09
-1.08
-1.08
-1.06
-1.005
-1.035
-0.96
-1.01
-0.995
-1.065
-1.09
-1.07
-1.075
-1.02
-0.995
-0.99
-1.01
-0.99
-1.015
-1.035
-1.045
-1.04
-1.055
-1.02
-1.015
-0.965
-0.965
-0.955
-0.98
-1.055
-1.035
-1.07
-1.015
-0.975
-0.985
-0.945
-0.96
-0.94
-0.965
-0.99
-1.015
-1.005
-1.0
-0.925
-0.935
-0.895
-0.875
-0.89
-0.88
-0.93
-0.94
-0.915
-0.95
-0.915
-0.825
-0.785
-0.835
-0.81
-0.84
-0.825
-0.88
-0.85
-0.825
-0.825
-0.78
-0.775
-0.77
-0.77
-0.77
-0.805
-0.81
-0.725
-0.805
-0.79
-0.785
-0.76
-0.745
-0.79
-0.775
-0.825
-0.88
-0.86
-0.84
-0.8
-0.845
-0.83
-0.77
-0.865
-0.92
-0.94
-0.915
-0.99
-0.955
-0.94
-0.92
-0.91
-0.925
-0.94
-0.975
-0.99
-1.015
-1.01
-0.99
-0.96
-0.925
-0.95
-0.945
-0.93
-0.985
-1.035
-1.005
-0.995
-0.97
-0.99
-0.965
-0.96
-0.92
-0.95
-0.995
-1.01
-1.015
-1.02
-1.0
-0.995
-0.975
-1.0
-1.0
-1.03
-1.07
-1.11
-1.075
-1.095
-1.14
-1.1
-1.03
-1.065
-1.105
-1.11
-1.15
-1.17
-1.195
-1.205
-1.165
-1.16
-1.135
-1.09
-1.145
-1.185
-1.17
-1.205
-1.24
-1.24
-1.215
-1.155
-1.14
-1.145
-1.195
-1.215
-1.21
-1.23
-1.245
-1.285
-1.235
-1.245
-1.205
-1.16
-1.16
-1.185
-1.27
-1.28
-1.295
-1.26
-1.245
-1.235
-1.235
-1.195
-1.22
-1.23
-1.275
-1.27
-1.28
-1.295
-1.26
-1.23
-1.205
-1.23
-1.25
-1.26
-1.295
-1.315
-1.315
-1.31
-1.29
-1.25
-1.25
-1.225
-1.255
-1.28
-1.33
-1.33
-1.345
-1.31
-1.32
-1.245
-1.235
-1.25
-1.265
-1.3
-1.33
-1.32
-1.345
-1.33
-1.31
-1.265
-1.185
-1.26
-1.305
-1.27
-1.35
-1.34
-1.355
-1.33
-1.28
-1.25
-1.26
-1.27
-1.295
-1.305
-1.38
-1.325
-1.325
-1.365
-1.325
-1.27
-1.28
-1.27
-1.31
-1.315
-1.325
-1.405
-1.35
-1.34
-1.315
-1.26
-1.285
-1.3
-1.3
-1.305
-1.325
-1.335
-1.35
-1.33
-1.295
-1.285
-1.23
-1.26
-1.26
-1.31
-1.34
-1.34
-1.32
-1.29
-1.275
-1.25
-1.24
-1.27
-1.295
-1.325
-1.37
-1.36
-1.35
-1.335
-1.34
-1.305
-1.225
-1.285
-1.315
-1.34
-1.365
-1.41
-1.375
-1.295
-1.305
-1.29
-1.31
-1.35
-1.315
-1.4
-1.355
-1.31
-1.38
-1.39
-1.285
-1.285
-1.28
-1.325
-1.345
-1.34
-1.34
-1.36
-1.375
-1.35
-1.325
-1.315
-1.29
-1.34
-1.35
-1.405
-1.455
-1.49
-1.5
-1.46
-1.435
-1.335
-1.22
-1.11
-1.035
-0.875
-0.74
-0.635
-0.525
-0.435
-0.34
-0.35
-0.435
-0.595
-0.805
-1.01
-1.105
-1.22
-1.31
-1.315
-1.255
-1.21
-1.265
-1.235
-1.275
-1.325
-1.35
-1.375
-1.345
-1.36
-1.32
-1.285
-1.235
-1.26
-1.35
-1.385
-1.38
-1.4
-1.375
-1.34
-1.335
-1.29
-1.325
-1.33
-1.345
-1.385
-1.395
-1.4
-1.33
-1.31
-1.325
-1.305
-1.285
-1.275
-1.265
-1.335
-1.405
-1.405
-1.355
-1.325
-1.355
-1.28
-1.32
-1.315
-1.325
-1.335
-1.335
-1.33
-1.34
-1.34
-1.305
-1.285
-1.31
-1.3
-1.295
-1.345
-1.38
-1.355
-1.335
-1.34
-1.23
-1.245
-1.28
-1.33
-1.29
-1.315
-1.365
-1.35
-1.345
-1.29
-1.275
-1.255
-1.245
-1.29
-1.295
-1.325
-1.305
-1.285
-1.27
-1.305
-1.265
-1.265
-1.22
-1.215
-1.265
-1.285
-1.305
-1.255
-1.235
-1.21
-1.21
-1.175
-1.185
-1.18
-1.23
-1.27
-1.265
-1.24
-1.195
-1.19
-1.115
-1.145
-1.13
-1.145
-1.175
-1.215
-1.21
-1.15
-1.195
-1.155
-1.09
-1.095
-1.075
-1.155
-1.17
-1.205
-1.205
-1.185
-1.165
-1.145
-1.11
-1.105
-1.14
-1.125
-1.215
-1.23
-1.235
-1.195
-1.17
-1.205
-1.15
-1.165
-1.195
-1.235
-1.195
-1.27
-1.27
-1.265
-1.255
-1.22
-1.195
-1.18
-1.21
-1.22
-1.265
-1.305
-1.29
-1.25
-1.285
-1.215
-1.205
-1.19
-1.19
-1.25
-1.285
-1.305
-1.265
-1.295
-1.265
-1.215
-1.225
-1.17
-1.165
-1.225
-1.3
-1.315
-1.265
-1.235
-1.25
-1.225
-1.205
-1.18
-1.18
-1.245
-1.295
-1.3
-1.28
-1.275
-1.26
-1.225
-1.22
-1.205
-1.205
-1.245
-1.3
-1.25
-1.26
-1.22
-1.23
-1.225
-1.23
-1.2
-1.195
-1.255
-1.27
-1.285
-1.3
-1.265
-1.235
-1.185
-1.205
-1.22
-1.23
-1.205
-1.26
-1.275
-1.27
-1.21
-1.245
-1.205
-1.155
-1.205
-1.205
-1.235
-1.23
-1.28
-1.25
-1.235
-1.23
-1.175
-1.18
-1.145
-1.185
-1.24
-1.23
-1.255
-1.26
-1.225
-1.235
-1.195
-1.165
-1.155
-1.165
-1.185
-1.205
-1.205
-1.245
-1.275
-1.21
-1.145
-1.175
-1.13
-1.12
-1.225
-1.24
-1.25
-1.265
-1.225
-1.17
-1.145
-1.155
-1.15
-1.18
-1.22
-1.195
-1.225
-1.23
-1.21
-1.17
-1.155
-1.15
-1.125
-1.185
-1.23
-1.235
-1.21
-1.245
-1.215
-1.16
-1.085
-1.155
-1.16
-1.18
-1.2
-1.215
-1.23
-1.21
-1.175
-1.17
-1.15
-1.125
-1.12
-1.165
-1.22
-1.235
-1.235
-1.21
-1.19
-1.165
-1.115
-1.11
-1.1
-1.16
-1.21
-1.22
-1.215
-1.175
-1.15
-1.065
-1.095
-1.11
-1.155
-1.125
-1.17
-1.185
-1.19
-1.165
-1.14
-1.1
-1.09
-1.065
-1.06
-1.08
-1.18
-1.19
-1.115
-1.14
-1.17
-1.135
-1.11
-1.125
-1.1
-1.15
-1.215
-1.23
-1.21
-1.19
-1.195
-1.125
-1.095
-1.105
-1.15
-1.155
-1.225
-1.185
-1.195
-1.17
-1.175
-1.145
-1.11
-1.1
-1.125
-1.185
-1.215
-1.21
-1.19
-1.155
-1.19
-1.11
-1.11
-1.125
-1.12
-1.16
-1.14
-1.15
-1.185
-1.125
-1.175
-1.18
-1.185
-1.23
-1.26
-1.27
-1.235
-1.29
-1.255
-1.13
-1.01
-0.85
-0.69
-0.51
-0.385
-0.305
-0.28
-0.21
-0.225
-0.3
-0.38
-0.535
-0.69
-0.795
-0.97
-1.05
-1.09
-1.175
-1.14
-1.095
-1.105
-1.07
-1.09
-1.115
-1.155
-1.085
-1.205
-1.235
-1.205
-1.14
-1.11
-1.13
-1.115
-1.125
-1.175
-1.18
-1.195
-1.21
-1.205
-1.195
-1.08
-1.075
-1.14
-1.125
-1.14
-1.14
-1.15
-1.19
-1.21
-1.145
-1.155
-1.145
-1.135
-1.1
-1.12
-1.15
-1.17
-1.18
-1.225
-1.14
-1.1
-1.08
-1.105
-1.12
-1.135
-1.115
-1.16
-1.2
-1.185
-1.145
-1.11
-1.045
-1.075
-1.1
-1.1
-1.135
-1.18
-1.165
-1.15
-1.145
-1.11
-1.04
-1.075
-1.11
-1.125
-1.14
-1.125
-1.18
-1.165
-1.145
-1.075
-1.105
-1.075
-1.09
-1.115
-1.15
-1.12
-1.075
-1.11
-1.13
-1.065
-1.06
-1.025
-1.11
-1.105
-1.115
-1.165
-1.145
-1.16
-1.125
-1.08
-1.085
-1.065
-1.09
-1.06
-1.135
-1.155
-1.2
-1.105
-1.075
-1.08
-1.005
-0.97
-1.05
-1.065
-1.125
-1.115
-1.09
-1.085
-1.11
-1.035
-0.995
-1.02
-1.04
-1.085
-1.12
-1.165
-1.115
-1.105
-1.075
-1.075
-1.055
-1.085
-1.125
-1.13
-1.17
-1.17
-1.205
-1.2
-1.16
-1.105
-1.14
-1.13
-1.18
-1.195
-1.24
-1.255
-1.235
-1.23
-1.21
-1.195
-1.175
-1.16
-1.17
-1.195
-1.31
-1.315
-1.3
-1.17
-1.23
-1.23
-1.2
-1.205
-1.26
-1.265
-1.305
-1.28
-1.33
-1.245
-1.2
-1.235
-1.205
-1.17
-1.195
-1.235
-1.28
-1.325
-1.235
-1.255
-1.2
-1.16
-1.175
-1.21
-1.17
-1.245
-1.32
-1.3
-1.29
-1.275
-1.26
-1.195
-1.185
-1.21
-1.215
-1.24
-1.3
-1.325
-1.265
-1.25
-1.25
-1.215
-1.155
-1.2
-1.27
-1.28
-1.32
-1.275
-1.285
-1.275
-1.26
-1.215
-1.185
-1.2
-1.27
-1.285
-1.295
-1.295
-1.29
-1.245
-1.255
-1.235
-1.225
-1.24
-1.26
-1.285
-1.26
-1.31
-1.27
-1.265
-1.25
-1.195
-1.2
-1.25
-1.245
-1.28
-1.335
-1.345
-1.315
-1.315
-1.235
-1.155
-1.19
-1.295
-1.265
-1.3
-1.34
-1.34
-1.3
-1.295
-1.26
-1.265
-1.18
-1.28
-1.285
-1.3
-1.33
-1.27
-1.295
-1.34
-1.265
-1.22
-1.205
-1.255
-1.3
-1.355
-1.36
-1.295
-1.38
-1.31
-1.27
-1.235
-1.26
-1.27
-1.24
-1.4
-1.405
-1.375
-1.37
-1.29
-1.2
-1.315
-1.315
-1.32
-1.355
-1.365
-1.385
-1.365
-1.32
-1.345
-1.22
-1.25
-1.275
-1.32
-1.33
-1.375
-1.395
-1.37
-1.37
-1.305
-1.27
-1.275
-1.285
-1.3
-1.305
-1.33
-1.34
-1.335
-1.305
-1.295
-1.26
-1.26
-1.24
-1.265
-1.315
-1.315
-1.295
-1.315
-1.3
-1.255
-1.245
-1.24
-1.28
-1.345
-1.36
-1.37
-1.42
-1.375
-1.38
-1.335
-1.31
-1.3
-1.315
-1.315
-1.345
-1.405
-1.41
-1.37
-1.34
-1.26
-1.32
-1.355
-1.405
-1.37
-1.335
-1.34
-1.39
-1.43
-1.365
-1.33
-1.31
-1.35
-1.32
-1.28
-1.405
-1.42
-1.415
-1.4
-1.37
-1.345
-1.32
-1.355
-1.42
-1.46
-1.525
-1.515
-1.495
-1.395
-1.36
-1.17
-0.975
-0.83
-0.655
-0.545
-0.47
-0.43
-0.405
-0.37
-0.47
-0.55
-0.77
-0.91
-1.06
-1.2
-1.295
-1.27
-1.285
-1.375
-1.37
-1.295
-1.24
-1.255
-1.34
-1.365
-1.39
-1.39
-1.425
-1.355
-1.385
-1.37
-1.34
-1.34
-1.38
-1.37
-1.435
-1.435
-1.435
-1.42
-1.395
-1.295
-1.32
-1.36
-1.37
-1.395
-1.4
-1.475
-1.46
-1.425
-1.425
-1.34
-1.3
-1.35
-1.38
-1.355
-1.43
-1.44
-1.44
-1.395
-1.41
-1.38
-1.365
-1.36
-1.355
-1.38
-1.425
-1.415
-1.42
-1.395
-1.36
-1.325
-1.34
-1.345
-1.355
-1.425
-1.39
-1.44
-1.4
-1.405
-1.345
-1.355
-1.34
-1.34
-1.34
-1.345
-1.415
-1.43
-1.385
-1.4
-1.315
-1.285
-1.335
-1.33
-1.365
-1.345
-1.41
-1.43
-1.41
-1.355
-1.325
-1.295
-1.295
-1.295
-1.3
-1.35
-1.37
-1.375
-1.365
-1.32
-1.29
-1.26
-1.265
-1.265
-1.275
-1.3
-1.34
-1.27
-1.325
-1.295
-1.245
-1.235
-1.19
-1.235
-1.285
-1.235
-1.225
-1.265
-1.245
-1.255
-1.21
-1.205
-1.15
-1.16
-1.215
-1.27
-1.27
-1.305
-1.3
-1.245
-1.225
-1.18
-1.22
-1.235
-1.215
-1.295
-1.335
-1.32
-1.335
-1.3
-1.255
-1.28
-1.255
-1.28
-1.31
-1.37
-1.39
-1.365
-1.315
-1.36
-1.29
-1.26
-1.31
-1.35
-1.295
-1.35
-1.33
-1.36
-1.38
-1.365
-1.31
-1.31
-1.315
-1.315
-1.335
-1.355
-1.36
-1.365
-1.37
-1.37
-1.34
-1.285
-1.285
-1.33
-1.33
-1.325
-1.375
-1.37
-1.33
-1.325
-1.29
-1.305
-1.29
-1.305
-1.29
-1.37
-1.38
-1.395
-1.365
-1.335
-1.305
-1.295
-1.265
-1.33
-1.37
-1.395
-1.385
-1.38
-1.335
-1.34
-1.3
-1.285
-1.28
-1.29
-1.3
-1.37
-1.385
-1.37
-1.355
-1.28
-1.29
-1.29
-1.275
-1.305
-1.33
-1.385
-1.39
-1.35
-1.345
-1.355
-1.255
-1.22
-1.275
-1.275
-1.24
-1.325
-1.3
-1.35
-1.34
-1.27
-1.315
-1.32
-1.295
-1.26
-1.29
-1.28
-1.32
-1.32
-1.33
-1.31
-1.33
-1.245
-1.25
-1.25
-1.26
-1.295
-1.27
-1.31
-1.36
-1.345
-1.3
-1.25
-1.235
-1.27
-1.265
-1.33
-1.32
-1.315
-1.355
-1.345
-1.305
-1.31
-1.27
-1.22
-1.24
-1.26
-1.295
-1.325
-1.345
-1.285
-1.28
-1.255
-1.275
-1.22
-1.23
-1.285
-1.275
-1.32
-1.345
-1.355
-1.285
-1.27
-1.24
-1.2
-1.23
-1.22
-1.215
-1.25
-1.27
-1.285
-1.305
-1.195
-1.18
-1.175
-1.235
-1.26
-1.255
-1.26
-1.29
-1.265
-1.25
-1.225
-1.165
-1.165
-1.25
-1.265
-1.29
-1.315
-1.315
-1.34
-1.285
-1.25
-1.23
-1.23
-1.27
-1.285
-1.26
-1.34
-1.32
-1.315
-1.33
-1.265
-1.235
-1.25
-1.22
-1.245
-1.33
-1.35
-1.335
-1.33
-1.295
-1.25
-1.21
-1.25
-1.27
-1.295
-1.295
-1.345
-1.32
-1.27
-1.285
-1.255
-1.22
-1.265
-1.32
-1.38
-1.43
-1.44
-1.5
-1.435
-1.33
-1.19
-1.015
-0.91
-0.755
-0.61
-0.5
-0.405
-0.315
-0.23
-0.26
-0.35
-0.495
-0.675
-0.895
-0.99
-1.095
-1.225
-1.28
-1.215
-1.265
-1.17
-1.18
-1.21
-1.205
-1.265
-1.285
-1.325
-1.295
-1.28
-1.255
-1.235
-1.26
-1.275
-1.29
-1.27
-1.31
-1.345
-1.33
-1.31
-1.295
-1.275
-1.26
-1.245
-1.27
-1.28
-1.315
-1.355
-1.35
-1.305
-1.25
-1.245
-1.22
-1.245
-1.27
-1.28
-1.31
-1.345
-1.33
-1.285
-1.255
-1.24
-1.245
-1.225
-1.235
-1.245
-1.295
-1.325
-1.32
-1.32
-1.275
-1.215
-1.225
-1.245
-1.27
-1.3
-1.325
-1.255
-1.245
-1.2
-1.26
-1.23
-1.21
-1.26
-1.28
-1.27
-1.295
-1.335
-1.305
-1.285
-1.24
-1.215
-1.245
-1.215
-1.185
-1.285
-1.305
-1.295
-1.28
-1.255
-1.19
-1.2
-1.23
-1.19
-1.225
-1.26
-1.265
-1.25
-1.23
-1.19
-1.18
-1.17
-1.175
-1.2
-1.155
-1.205
-1.25
-1.185
-1.17
-1.18
-1.18
-1.075
-1.155
-1.175
-1.09
-1.13
-1.145
-1.135
-1.15
-1.13
-1.085
-1.085
-1.09
-1.05
-1.075
-1.1
-1.155
-1.195
-1.12
-1.135
-1.065
-1.035
-1.11
-1.02
-1.135
-1.165
-1.205
-1.17
-1.16
-1.19
-1.16
-1.115
-1.105
-1.14
-1.155
-1.2
-1.215
-1.21
-1.235
-1.17
-1.185
-1.125
-1.16
-1.13
-1.165
-1.215
-1.225
-1.25
-1.23
-1.175
-1.125
-1.17
-1.155
-1.13
-1.145
-1.13
-1.185
-1.225
-1.12
-1.135
-1.16
-1.105
-1.135
-1.13
-1.195
-1.15
-1.24
-1.24
-1.19
-1.1
-1.155
-1.1
-1.1
-1.135
-1.15
-1.19
-1.18
-1.155
-1.17
-1.11
-1.1
-1.06
-1.06
-1.135
-1.15
-1.165
-1.145
-1.155
-1.12
-1.08
-1.04
-1.05
-1.03
-1.07
-1.155
-1.07
-1.125
-1.09
-1.015
-1.05
-1.05
-1.045
-1.06
-1.08
-1.105
-1.105
-1.11
-1.135
-1.07
-0.99
-1.015
-0.925
-1.0
-1.0
-1.065
-1.085
-1.07
-1.07
-1.055
-1.01
-1.03
-1.035
-1.045
-1.025
-1.065
-1.085
-1.07
-1.015
-1.02
-1.005
-1.035
-1.005
-1.01
-1.0
-1.05
-1.095
-1.06
-1.04
-1.02
-0.975
-0.96
-0.95
-1.005
-1.02
-1.045
-1.065
-1.01
-1.035
-1.01
-0.95
-0.95
-0.975
-1.02
-0.995
-1.0
-1.045
-1.05
-1.005
-0.995
-0.93
-0.935
-0.94
-0.97
-0.97
-0.98
-1.045
-1.025
-0.975
-0.935
-0.945
-0.935
-0.94
-0.96
-0.945
-1.015
-0.995
-0.98
-0.925
-0.955
-0.965
-0.88
-0.885
-0.94
-0.96
-1.005
-0.975
-0.945
-0.97
-0.89
-0.875
-0.845
-0.875
-0.89
-0.94
-0.975
-0.965
-1.0
-0.945
-0.925
-0.94
-0.91
-0.955
-0.97
-0.98
-1.0
-1.025
-1.03
-0.995
-0.935
-0.9
-0.96
-0.97
-0.96
-0.975
-0.98
-1.0
-0.985
-1.005
-0.96
-0.955
-0.925
-0.92
-0.955
-0.97
-0.99
-1.04
-1.0
-0.96
-0.95
-0.92
-0.905
-0.945
-0.97
-0.98
-0.95
-1.02
-0.98
-1.025
-1.06
-1.005
-1.065
-1.09
-1.01
-0.91
-0.825
-0.69
-0.495
-0.255
-0.14
0.02
0.195
0.195
0.055
-0.095
-0.285
-0.46
-0.59
-0.71
-0.775
-0.82
-0.865
-0.855
-0.91
-0.925
-0.92
-0.94
-0.965
-0.97
-0.865
-0.885
-0.89
-0.865
-0.94
-0.99
-1.005
-0.985
-0.96
-0.93
-0.915
-0.87
-0.86
-0.975
-0.925
-0.97
-0.985
-0.98
-0.985
-0.94
-0.91
-0.91
-0.885
-0.915
-0.89
-0.975
-0.95
-0.945
-0.95
-0.955
-0.905
-0.89
-0.86
-0.875
-0.945
-0.955
-0.98
-0.975
-0.905
-0.865
-0.83
-0.895
-0.895
-0.875
-0.885
-0.975
-0.98
-0.93
-0.94
-0.88
-0.86
-0.86
-0.93
-0.93
-0.875
-0.96
-0.925
-0.925
-0.9
-0.905
-0.87
-0.83
-0.815
-0.86
-0.855
-0.95
-0.95
-0.965
-0.88
-0.89
-0.86
-0.8
-0.8
-0.825
-0.825
-0.89
-0.91
-0.89
-0.88
-0.895
-0.78
-0.81
-0.825
-0.81
-0.84
-0.825
-0.88
-0.86
-0.83
-0.8
-0.785
-0.735
-0.75
-0.76
-0.78
-0.84
-0.8
-0.83
-0.775
-0.74
-0.73
-0.76
-0.695
-0.72
-0.775
-0.795
-0.785
-0.8
-0.78
-0.77
-0.71
-0.73
-0.705
-0.745
-0.755
-0.825
-0.83
-0.81
-0.815
-0.815
-0.745
-0.75
-0.82
-0.81
-0.83
-0.91
-0.855
-0.855
-0.83
-0.82
-0.78
-0.8
-0.79
-0.84
-0.89
-0.91
-0.93
-0.93
-0.875
-0.845
-0.835
-0.81
-0.85
-0.88
-0.885
-0.87
-0.87
-0.9
-0.845
-0.81
-0.805
-0.81
-0.87
-0.85
-0.88
-0.92
-0.895
-0.9
-0.9
-0.85
-0.825
-0.83
-0.825
-0.875
-0.905
-0.945
-0.925
-0.9
-0.86
-0.77
-0.815
-0.84
-0.84
-0.87
-0.88
-0.92
-0.885
-0.84
-0.85
-0.8
-0.815
-0.825
-0.82
-0.83
-0.88
-0.905
-0.91
-0.82
-0.8
-0.83
-0.77
-0.81
-0.795
-0.805
-0.79
-0.89
-0.92
-0.855
-0.785
-0.775
-0.755
-0.76
-0.755
-0.77
-0.855
-0.84
-0.855
-0.765
-0.83
-0.765
-0.76
-0.745
-0.745
-0.77
-0.77
-0.84
-0.84
-0.78
-0.765
-0.725
-0.7
-0.77
-0.76
-0.76
-0.83
-0.845
-0.825
-0.805
-0.75
-0.72
-0.69
-0.725
-0.76
-0.755
-0.805
-0.795
-0.805
-0.765
-0.715
-0.72
-0.72
-0.72
-0.73
-0.76
-0.8
-0.825
-0.74
-0.735
-0.72
-0.73
-0.705
-0.71
-0.725
-0.77
-0.745
-0.71
-0.715
-0.755
-0.705
-0.71
-0.68
-0.675
-0.695
-0.73
-0.695
-0.72
-0.75
-0.71
-0.685
-0.65
-0.635
-0.635
-0.665
-0.74
-0.675
-0.635
-0.67
-0.66
-0.645
-0.64
-0.6
-0.68
-0.68
-0.745
-0.775
-0.78
-0.735
-0.775
-0.66
-0.665
-0.69
-0.705
-0.665
-0.76
-0.695
-0.745
-0.755
-0.705
-0.68
-0.665
-0.685
-0.705
-0.74
-0.765
-0.76
-0.75
-0.735
-0.745
-0.705
-0.675
-0.68
-0.675
-0.71
-0.735
-0.745
-0.76
-0.74
-0.75
-0.655
-0.7
-0.715
-0.715
-0.74
-0.805
-0.865
-0.865
-0.875
-0.84
-0.675
-0.595
-0.445
-0.28
-0.195
-0.105
0.035
0.135
0.285
0.305
0.27
0.2
-0.05
-0.21
-0.385
-0.52
-0.61
-0.645
-0.685
-0.675
-0.685
-0.635
-0.575
-0.62
-0.685
-0.71
-0.735
-0.765
-0.75
-0.675
-0.665
-0.645
-0.66
-0.68
-0.715
-0.76
-0.755
-0.74
-0.71
-0.775
-0.655
-0.65
-0.69
-0.695
-0.72
-0.725
-0.71
-0.75
-0.77
-0.705
-0.68
-0.615
-0.665
-0.725
-0.705
-0.725
-0.765
-0.755
-0.7
-0.67
-0.65
-0.665
-0.64
-0.65
-0.75
-0.72
-0.74
-0.74
-0.71
-0.665
-0.645
-0.645
-0.66
-0.69
-0.685
-0.755
-0.755
-0.705
-0.705
-0.67
-0.645
-0.625
-0.66
-0.665
-0.695
-0.715
-0.695
-0.665
-0.67
-0.675
-0.625
-0.635
-0.615
-0.645
-0.69
-0.685
-0.695
-0.65
-0.655
-0.63
-0.63
-0.57
-0.59
-0.645
-0.705
-0.65
-0.655
-0.67
-0.645
-0.585
-0.605
-0.58
-0.545
-0.555
-0.605
-0.595
-0.625
-0.615
-0.55
-0.475
-0.51
-0.52
-0.495
-0.5
-0.59
-0.59
-0.575
-0.61
-0.575
-0.485
-0.5
-0.5
-0.485
-0.555
-0.565
-0.615
-0.53
-0.55
-0.52
-0.515
-0.51
-0.485
-0.56
-0.55
-0.575
-0.655
-0.635
-0.61
-0.605
-0.58
-0.575
-0.585
-0.555
-0.605
-0.645
-0.655
-0.67
-0.665
-0.665
-0.615
-0.585
-0.615
-0.61
-0.635
-0.695
-0.685
-0.675
-0.67
-0.66
-0.65
-0.6
-0.615
-0.63
-0.615
-0.665
-0.65
-0.645
-0.635
-0.625
-0.68
-0.67
-0.64
-0.65
-0.65
-0.7
-0.7
-0.675
-0.71
-0.675
-0.61
-0.615
-0.6
-0.64
-0.67
-0.685
-0.71
-0.72
-0.71
-0.67
-0.65
-0.635
-0.62
-0.635
-0.67
-0.7
-0.73
-0.725
-0.68
-0.65
-0.635
-0.59
-0.635
-0.65
-0.665
-0.7
-0.705
-0.645
-0.685
-0.665
-0.64
-0.625
-0.62
-0.65
-0.675
-0.68
-0.665
-0.72
-0.68
-0.65
-0.585
-0.6
-0.625
-0.665
-0.685
-0.71
-0.705
-0.67
-0.645
-0.63
-0.615
-0.565
-0.645
-0.635
-0.63
-0.71
-0.68
-0.705
-0.735
-0.615
-0.55
-0.64
-0.7
-0.63
-0.64
-0.665
-0.635
-0.68
-0.625
-0.69
-0.615
-0.625
-0.605
-0.645
-0.695
-0.685
-0.705
-0.665
-0.705
-0.62
-0.61
-0.59
-0.67
-0.655
-0.695
-0.72
-0.68
-0.69
-0.64
-0.62
-0.635
-0.635
-0.615
-0.64
-0.68
-0.665
-0.685
-0.66
-0.62
-0.585
-0.55
-0.575
-0.585
-0.625
-0.65
-0.62
-0.63
-0.62
-0.63
-0.595
-0.565
-0.54
-0.64
-0.655
-0.695
-0.675
-0.695
-0.665
-0.65
-0.66
-0.645
-0.625
-0.71
-0.735
-0.68
-0.69
-0.675
-0.7
-0.715
-0.615
-0.645
-0.69
-0.685
-0.685
-0.67
-0.73
-0.725
-0.74
-0.71
-0.64
-0.595
-0.64
-0.655
-0.67
-0.77
-0.745
-0.735
-0.715
-0.675
-0.675
-0.665
-0.705
-0.72
-0.8
-0.83
-0.86
-0.83
-0.84
-0.79
-0.655
-0.545
-0.43
-0.29
-0.07
0.025
0.135
0.28
0.39
0.385
0.33
0.21
-0.03
-0.22
-0.36
-0.5
-0.635
-0.64
-0.675
-0.635
-0.625
-0.625
-0.61
-0.68
-0.725
-0.72
-0.665
-0.725
-0.72
-0.695
-0.655
-0.645
-0.67
-0.705
-0.765
-0.76
-0.775
-0.66
-0.73
-0.645
-0.665
-0.645
-0.75
-0.665
-0.705
-0.76
-0.765
-0.8
-0.8
-0.705
-0.7
-0.675
-0.69
-0.72
-0.7
-0.755
-0.805
-0.78
-0.73
-0.7
-0.7
-0.665
-0.675
-0.715
-0.75
-0.75
-0.73
-0.73
-0.725
-0.715
-0.675
-0.66
-0.695
-0.725
-0.745
-0.775
-0.75
-0.72
-0.705
-0.7
-0.66
-0.645
-0.675
-0.72
-0.745
-0.7
-0.72
-0.755
-0.735
-0.655
-0.61
-0.64
-0.655
-0.73
-0.71
-0.72
-0.695
-0.685
-0.675
-0.65
-0.64
-0.63
-0.675
-0.68
-0.7
-0.73
-0.695
-0.665
-0.605
-0.56
-0.615
-0.6
-0.575
-0.655
-0.635
-0.68
-0.625
-0.615
-0.6
-0.56
-0.545
-0.595
-0.605
-0.575
-0.52
-0.58
-0.63
-0.625
-0.605
-0.505
-0.575
-0.51
-0.55
-0.585
-0.63
-0.67
-0.655
-0.615
-0.61
-0.555
-0.565
-0.6
-0.62
-0.58
-0.645
-0.695
-0.71
-0.655
-0.64
-0.665
-0.66
-0.635
-0.675
-0.67
-0.705
-0.735
-0.72
-0.715
-0.71
-0.7
-0.69
-0.675
-0.665
-0.695
-0.76
-0.785
-0.765
-0.735
-0.65
-0.705
-0.655
-0.69
-0.695
-0.775
-0.72
-0.805
-0.745
-0.7
-0.735
-0.665
-0.66
-0.695
-0.765
-0.785
-0.775
-0.805
-0.785
-0.775
-0.705
-0.675
-0.675
-0.71
-0.735
-0.79
-0.775
-0.81
-0.785
-0.73
-0.665
-0.74
-0.725
-0.705
-0.775
-0.755
-0.75
-0.805
-0.755
-0.755
-0.68
-0.715
-0.74
-0.69
-0.74
-0.81
-0.765
-0.79
-0.79
-0.74
-0.68
-0.645
-0.715
-0.725
-0.735
-0.74
-0.755
-0.775
-0.755
-0.725
-0.705
-0.715
-0.69
-0.705
-0.72
-0.735
-0.75
-0.715
-0.715
-0.7
-0.715
-0.665
-0.685
-0.7
-0.7
-0.745
-0.765
-0.74
-0.73
-0.72
-0.685
-0.675
-0.685
-0.695
-0.63
-0.675
-0.77
-0.745
-0.725
-0.715
-0.745
-0.685
-0.69
-0.675
-0.69
-0.735
-0.76
-0.75
-0.74
-0.745
-0.69
-0.665
-0.625
-0.68
-0.66
-0.675
-0.675
-0.765
-0.7
-0.72
-0.69
-0.635
-0.585
-0.645
-0.695
-0.68
-0.7
-0.695
-0.665
-0.685
-0.62
-0.6
-0.595
-0.565
-0.635
-0.705
-0.745
-0.695
-0.655
-0.705
-0.61
-0.68
-0.66
-0.69
-0.685
-0.74
-0.75
-0.755
-0.725
-0.7
-0.675
-0.665
-0.685
-0.685
-0.73
-0.74
-0.755
-0.745
-0.73
-0.725
-0.675
-0.66
-0.655
-0.675
-0.705
-0.73
-0.74
-0.705
-0.77
-0.695
-0.67
-0.675
-0.655
-0.705
-0.74
-0.77
-0.795
-0.76
-0.76
-0.76
-0.795
-0.84
-0.85
-0.835
-0.85
-0.79
-0.72
-0.585
-0.4
-0.22
0.03
0.14
0.37
0.455
0.38
0.34
0.22
0.095
-0.12
-0.315
-0.425
-0.5
-0.59
-0.625
-0.68
-0.74
-0.725
-0.69
-0.605
-0.655
-0.655
-0.65
-0.68
-0.7
-0.74
-0.775
-0.745
-0.755
-0.735
-0.72
-0.705
-0.685
-0.695
-0.735
-0.735
-0.735
-0.75
-0.735
-0.74
-0.715
-0.69
-0.66
-0.69
-0.74
-0.765
-0.77
-0.745
-0.74
-0.7
-0.66
-0.71
-0.665
-0.695
-0.695
-0.745
-0.785
-0.71
-0.7
-0.675
-0.7
-0.71
-0.66
-0.7
-0.7
-0.745
-0.745
-0.72
-0.695
-0.73
-0.68
-0.65
-0.67
-0.675
-0.705
-0.745
-0.725
-0.775
-0.715
-0.645
-0.62
-0.67
-0.64
-0.64
-0.695
-0.75
-0.74
-0.7
-0.66
-0.715
-0.655
-0.635
-0.62
-0.645
-0.665
-0.69
-0.69
-0.705
-0.675
-0.62
-0.61
-0.595
-0.585
-0.635
-0.65
-0.655
-0.67
-0.655
-0.635
-0.585
-0.525
-0.52
-0.54
-0.56
-0.62
-0.635
-0.64
-0.61
-0.565
-0.545
-0.51
-0.515
-0.505
-0.545
-0.555
-0.615
-0.6
-0.6
-0.575
-0.535
-0.515
-0.555
-0.505
-0.555
-0.545
-0.61
-0.64
-0.6
-0.615
-0.61
-0.555
-0.555
-0.615
-0.61
-0.645
-0.67
-0.695
-0.675
-0.635
-0.62
-0.575
-0.6
-0.64
-0.625
-0.68
-0.735
-0.755
-0.715
-0.705
-0.655
-0.65
-0.62
-0.66
-0.7
-0.71
-0.735
-0.74
-0.69
-0.635
-0.66
-0.7
-0.65
-0.705
-0.695
-0.695
-0.7
-0.76
-0.695
-0.68
-0.69
-0.595
-0.65
-0.69
-0.655
-0.715
-0.74
-0.75
-0.72
-0.71
-0.675
-0.675
-0.665
-0.675
-0.69
-0.73
-0.725
-0.75
-0.72
-0.715
-0.655
-0.675
-0.635
-0.66
-0.71
-0.72
-0.735
-0.72
-0.74
-0.71
-0.64
-0.61
-0.64
-0.675
-0.68
-0.705
-0.715
-0.695
-0.705
-0.69
-0.645
-0.63
-0.65
-0.65
-0.695
-0.64
-0.65
-0.69
-0.7
-0.645
-0.62
-0.625
-0.645
-0.64
-0.67
-0.695
-0.725
-0.67
-0.6
-0.69
-0.67
-0.605
-0.63
-0.605
-0.655
-0.65
-0.69
-0.7
-0.665
-0.625
-0.615
-0.64
-0.64
-0.645
-0.63
-0.67
-0.665
-0.655
-0.68
-0.66
-0.61
-0.56
-0.6
-0.655
-0.685
-0.74
-0.705
-0.7
-0.7
-0.66
-0.66
-0.65
-0.625
-0.685
-0.68
-0.725
-0.725
-0.7
-0.67
-0.64
-0.67
-0.675
-0.66
-0.685
-0.725
-0.73
-0.73
-0.755
-0.71
-0.695
-0.705
-0.69
-0.73
-0.765
-0.835
-0.82
-0.795
-0.78
-0.78
-0.74
-0.695
-0.77
-0.73
-0.7
-0.755
-0.85
-0.86
-0.845
-0.8
-0.805
-0.775
-0.75
-0.795
-0.82
-0.815
-0.82
-0.82
-0.815
-0.815
-0.795
-0.735
-0.74
-0.795
-0.81
-0.825
-0.85
-0.82
-0.855
-0.85
-0.82
-0.855
-0.84
-0.91
-0.995
-1.005
-0.92
-0.87
-0.66
-0.505
-0.315
-0.185
-0.075
0.055
0.125
0.25
0.185
0.03
-0.125
-0.3
-0.4
-0.56
-0.685
-0.715
-0.79
-0.85
-0.82
-0.83
-0.795
-0.785
-0.745
-0.77
-0.76
-0.795
-0.81
-0.875
-0.89
-0.9
-0.84
-0.81
-0.82
-0.775
-0.775
-0.82
-0.81
-0.875
-0.88
-0.88
-0.85
-0.815
-0.815
-0.8
-0.8
-0.815
-0.82
-0.855
-0.9
-0.88
-0.81
-0.81
-0.765
-0.765
-0.795
-0.805
-0.82
-0.855
-0.82
-0.86
-0.815
-0.735
-0.78
-0.85
-0.8
-0.855
-0.795
-0.845
-0.835
-0.845
-0.845
-0.79
-0.76
-0.765
-0.82
-0.825
-0.805
-0.84
-0.83
-0.82
-0.81
-0.815
-0.775
-0.795
-0.745
-0.785
-0.81
-0.81
-0.8
-0.805
-0.76
-0.755
-0.745
-0.73
-0.735
-0.73
-0.79
-0.805
-0.815
-0.825
-0.745
-0.735
-0.695
-0.635
-0.705
-0.775
-0.75
-0.75
-0.755
-0.75
-0.71
-0.655
-0.63
-0.64
-0.645
-0.665
-0.69
-0.73
-0.73
-0.685
-0.695
-0.6
-0.645
-0.58
-0.615
-0.655
-0.705
-0.72
-0.65
-0.68
-0.71
-0.625
-0.56
-0.575
-0.61
-0.68
-0.645
-0.685
-0.71
-0.745
-0.7
-0.67
-0.685
-0.685
-0.67
-0.68
-0.73
-0.73
-0.79
-0.78
-0.715
-0.715
-0.695
-0.735
-0.665
-0.685
-0.785
-0.85
-0.835
-0.82
-0.75
-0.695
-0.71
-0.66
-0.725
-0.785
-0.785
-0.8
-0.81
-0.8
-0.76
-0.73
-0.74
-0.745
-0.725
-0.775
-0.79
-0.825
-0.8
-0.8
-0.79
-0.755
-0.66
-0.725
-0.7
-0.73
-0.79
-0.86
-0.81
-0.775
-0.76
-0.745
-0.725
-0.715
-0.71
-0.78
-0.79
-0.825
-0.79
-0.775
-0.76
-0.695
-0.7
-0.74
-0.735
-0.75
-0.79
-0.81
-0.81
-0.795
-0.74
-0.74
-0.71
-0.68
-0.69
-0.75
-0.75
-0.795
-0.805
-0.795
-0.745
-0.675
-0.67
-0.72
-0.765
-0.75
-0.81
-0.795
-0.765
-0.735
-0.72
-0.705
-0.73
-0.705
-0.77
-0.755
-0.775
-0.765
-0.74
-0.75
-0.73
-0.69
-0.725
-0.7
-0.715
-0.745
-0.77
-0.775
-0.775
-0.75
-0.68
-0.72
-0.695
-0.72
-0.72
-0.705
-0.775
-0.815
-0.775
-0.715
-0.685
-0.67
-0.655
-0.71
-0.7
-0.725
-0.755
-0.755
-0.775
-0.74
-0.69
-0.59
-0.63
-0.665
-0.69
-0.705
-0.67
-0.75
-0.725
-0.69
-0.665
-0.64
-0.655
-0.63
-0.69
-0.735
-0.735
-0.755
-0.705
-0.77
-0.72
-0.69
-0.69
-0.685
-0.695
-0.755
-0.78
-0.78
-0.79
-0.74
-0.685
-0.69
-0.725
-0.77
-0.735
-0.75
-0.81
-0.8
-0.74
-0.74
-0.68
-0.7
-0.67
-0.77
-0.755
-0.79
-0.805
-0.76
-0.785
-0.745
-0.71
-0.695
-0.68
-0.72
-0.725
-0.745
-0.82
-0.83
-0.805
-0.865
-0.81
-0.87
-0.815
-0.785
-0.8
-0.69
-0.57
-0.385
-0.2
-0.02
0.11
0.23
0.4
0.34
0.225
0.095
-0.1
-0.265
-0.42
-0.54
-0.535
-0.64
-0.64
-0.65
-0.645
-0.715
-0.735
-0.78
-0.725
-0.725
-0.685
-0.685
-0.715
-0.71
-0.76
-0.77
-0.825
-0.765
-0.765
-0.75
-0.74
-0.75
-0.73
-0.75
-0.72
-0.805
-0.795
-0.785
-0.755
-0.715
-0.705
-0.7
-0.75
-0.765
-0.72
-0.75
-0.8
-0.79
-0.72
-0.75
-0.74
-0.73
-0.68
-0.73
-0.76
-0.8
-0.77
-0.755
-0.755
-0.79
-0.71
-0.675
-0.655
-0.74
-0.77
-0.835
-0.835
-0.705
-0.725
-0.76
-0.715
-0.635
-0.74
-0.68
-0.735
-0.8
-0.8
-0.76
-0.75
-0.725
-0.71
-0.69
-0.675
-0.72
-0.785
-0.775
-0.8
-0.735
-0.705
-0.645
-0.675
-0.69
-0.66
-0.71
-0.735
-0.75
-0.765
-0.725
-0.705
-0.665
-0.645
-0.635
-0.63
-0.645
-0.705
-0.715
-0.71
-0.695
-0.64
-0.615
-0.565
-0.585
-0.575
-0.575
-0.615
-0.63
-0.585
-0.605
-0.59
-0.56
-0.565
-0.62
-0.625
-0.575
-0.595
-0.675
-0.63
-0.585
-0.575
-0.57
-0.6
-0.55
-0.525
-0.575
-0.625
-0.71
-0.675
-0.655
-0.65
-0.61
-0.58
-0.6
-0.635
-0.65
-0.695
-0.63
-0.705
-0.66
-0.68
-0.665
-0.66
-0.66
-0.68
-0.67
-0.73
-0.735
-0.745
-0.74
-0.71
-0.665
-0.66
-0.645
-0.67
-0.71
-0.71
-0.735
-0.73
-0.71
-0.705
-0.68
-0.645
-0.65
-0.7
-0.64
-0.735
-0.77
-0.74
-0.705
-0.685
-0.68
-0.665
-0.665
-0.65
-0.695
-0.74
-0.735
-0.79
-0.73
-0.705
-0.675
-0.625
-0.65
-0.705
-0.7
-0.705
-0.775
-0.75
-0.705
-0.67
-0.72
-0.71
-0.59
-0.61
-0.69
-0.75
-0.74
-0.715
-0.64
-0.685
-0.7
-0.685
-0.655
-0.665
-0.725
-0.72
-0.75
-0.725
-0.725
-0.685
-0.68
-0.625
-0.65
-0.66
-0.71
-0.725
-0.755
-0.75
-0.7
-0.64
-0.625
-0.575
-0.64
-0.71
-0.705
-0.75
-0.725
-0.71
-0.73
-0.665
-0.635
-0.585
-0.685
-0.665
-0.73
-0.72
-0.735
-0.71
-0.685
-0.665
-0.645
-0.605
-0.67
-0.675
-0.7
-0.715
-0.7
-0.66
-0.695
-0.625
-0.625
-0.595
-0.63
-0.61
-0.685
-0.74
-0.715
-0.69
-0.71
-0.68
-0.62
-0.585
-0.575
-0.575
-0.655
-0.715
-0.695
-0.695
-0.67
-0.605
-0.545
-0.54
-0.55
-0.65
-0.64
-0.7
-0.73
-0.62
-0.605
-0.59
-0.645
-0.645
-0.675
-0.705
-0.725
-0.76
-0.72
-0.685
-0.675
-0.7
-0.65
-0.585
-0.695
-0.68
-0.71
-0.79
-0.75
-0.765
-0.72
-0.69
-0.67
-0.675
-0.7
-0.7
-0.71
-0.735
-0.745
-0.725
-0.705
-0.68
-0.68
-0.655
-0.65
-0.675
-0.775
-0.75
-0.76
-0.745
-0.76
-0.76
-0.815
-0.805
-0.86
-0.87
-0.885
-0.785
-0.59
-0.415
-0.24
-0.035
0.115
0.295
0.35
0.38
0.345
0.195
0.165
-0.025
-0.22
-0.33
-0.445
-0.575
-0.595
-0.655
-0.655
-0.63
-0.66
-0.72
-0.73
-0.585
-0.665
-0.7
-0.7
-0.73
-0.785
-0.805
-0.78
-0.745
-0.725
-0.73
-0.745
-0.755
-0.69
-0.76
-0.72
-0.765
-0.77
-0.71
-0.7
-0.7
-0.7
-0.72
-0.72
-0.8
-0.795
-0.775
-0.75
-0.765
-0.74
-0.69
-0.69
-0.695
-0.705
-0.79
-0.785
-0.815
-0.79
-0.77
-0.705
-0.695
-0.685
-0.685
-0.705
-0.755
-0.82
-0.81
-0.765
-0.75
-0.685
-0.67
-0.65
-0.7
-0.73
-0.75
-0.765
-0.74
-0.76
-0.775
-0.71
-0.7
-0.715
-0.625
-0.7
-0.76
-0.78
-0.745
-0.69
-0.755
-0.66
-0.68
-0.685
-0.74
-0.78
-0.71
-0.68
-0.68
-0.715
-0.71
-0.67
-0.655
-0.65
-0.705
-0.71
-0.725
-0.725
-0.69
-0.645
-0.675
-0.625
-0.605
-0.595
-0.6
-0.625
-0.66
-0.66
-0.645
-0.65
-0.61
-0.57
-0.56
-0.6
-0.615
-0.59
-0.615
-0.655
-0.63
-0.63
-0.595
-0.57
-0.575
-0.56
-0.56
-0.605
-0.63
-0.67
-0.685
-0.685
-0.625
-0.565
-0.585
-0.625
-0.665
-0.655
-0.685
-0.72
-0.715
-0.72
-0.665
-0.665
-0.675
-0.635
-0.7
-0.745
-0.82
-0.765
-0.75
-0.74
-0.695
-0.675
-0.68
-0.655
-0.72
-0.73
-0.795
-0.785
-0.755
-0.78
-0.745
-0.675
-0.7
-0.68
-0.755
-0.76
-0.815
-0.805
-0.765
-0.75
-0.745
-0.65
-0.715
-0.725
-0.71
-0.77
-0.815
-0.78
-0.76
-0.74
-0.705
-0.72
-0.665
-0.76
-0.715
-0.755
-0.82
-0.77
-0.77
-0.78
-0.765
-0.72
-0.735
-0.745
-0.765
-0.765
-0.745
-0.805
-0.8
-0.77
-0.735
-0.69
-0.7
-0.67
-0.725
-0.77
-0.81
-0.8
-0.785
-0.755
-0.745
-0.71
-0.725
-0.72
-0.725
-0.76
-0.805
-0.82
-0.775
-0.76
-0.715
-0.72
-0.695
-0.72
-0.725
-0.745
-0.78
-0.82
-0.8
-0.745
-0.7
-0.68
-0.67
-0.71
-0.755
-0.76
-0.805
-0.785
-0.78
-0.71
-0.685
-0.74
-0.735
-0.71
-0.715
-0.78
-0.775
-0.765
-0.76
-0.72
-0.675
-0.7
-0.72
-0.735
-0.735
-0.77
-0.805
-0.765
-0.76
-0.725
-0.685
-0.69
-0.695
-0.675
-0.72
-0.785
-0.805
-0.775
-0.715
-0.675
-0.64
-0.675
-0.64
-0.62
-0.69
-0.715
-0.76
-0.73
-0.685
-0.71
-0.68
-0.65
-0.635
-0.625
-0.705
-0.81
-0.795
-0.775
-0.755
-0.76
-0.725
-0.69
-0.72
-0.78
-0.77
-0.8
-0.83
-0.815
-0.75
-0.73
-0.665
-0.695
-0.755
-0.8
-0.75
-0.81
-0.825
-0.78
-0.79
-0.75
-0.715
-0.745
-0.715
-0.74
-0.785
-0.785
-0.8
-0.82
-0.785
-0.705
-0.715
-0.7
-0.77
-0.815
-0.825
-0.86
-0.93
-0.97
-0.945
-0.87
-0.86
-0.84
-0.745
-0.635
-0.505
-0.33
-0.165
0.035
0.205
0.255
0.425
0.36
0.24
0.105
-0.155
-0.375
-0.52
-0.625
-0.71
-0.7
-0.66
-0.675
-0.655
-0.73
-0.725
-0.755
-0.79
-0.805
-0.8
-0.74
-0.735
-0.72
-0.765
-0.775
-0.795
-0.83
-0.825
-0.79
-0.79
-0.71
-0.695
-0.755
-0.705
-0.78
-0.825
-0.795
-0.815
-0.86
-0.8
-0.74
-0.74
-0.665
-0.72
-0.7
-0.805
-0.85
-0.835
-0.79
-0.755
-0.725
-0.73
-0.68
-0.71
-0.745
-0.78
-0.815
-0.8
-0.77
-0.755
-0.725
-0.705
-0.695
-0.735
-0.75
-0.765
-0.73
-0.765
-0.75
-0.71
-0.645
-0.66
-0.675
-0.64
-0.66
-0.745
-0.745
-0.725
-0.655
-0.71
-0.655
-0.645
-0.665
-0.655
-0.635
-0.67
-0.695
-0.71
-0.685
-0.67
-0.635
-0.585
-0.62
-0.63
-0.615
-0.67
-0.665
-0.625
-0.59
-0.585
-0.575
-0.54
-0.5
-0.52
-0.56
-0.6
-0.66
-0.61
-0.565
-0.53
-0.47
-0.47
-0.455
-0.5
-0.51
-0.49
-0.545
-0.57
-0.49
-0.44
-0.43
-0.445
-0.475
-0.505
-0.52
-0.525
-0.515
-0.535
-0.48
-0.45
-0.48
-0.45
-0.48
-0.475
-0.505
-0.55
-0.575
-0.575
-0.565
-0.505
-0.485
-0.5
-0.495
-0.54
-0.615
-0.63
-0.605
-0.615
-0.555
-0.515
-0.525
-0.57
-0.545
-0.595
-0.62
-0.605
-0.655
-0.625
-0.64
-0.62
-0.575
-0.53
-0.55
-0.69
-0.64
-0.58
-0.615
-0.675
-0.65
-0.595
-0.555
-0.585
-0.6
-0.605
-0.655
-0.685
-0.66
-0.66
-0.605
-0.545
-0.54
-0.565
-0.615
-0.59
-0.67
-0.67
-0.675
-0.61
-0.6
-0.56
-0.565
-0.565
-0.595
-0.57
-0.595
-0.65
-0.645
-0.57
-0.57
-0.525
-0.565
-0.59
-0.59
-0.605
-0.61
-0.64
-0.645
-0.65
-0.62
-0.59
-0.52
-0.53
-0.585
-0.6
-0.635
-0.64
-0.64
-0.57
-0.585
-0.555
-0.56
-0.54
-0.57
-0.585
-0.62
-0.655
-0.675
-0.61
-0.55
-0.55
-0.55
-0.54
-0.58
-0.615
-0.66
-0.685
-0.65
-0.59
-0.585
-0.555
-0.53
-0.53
-0.57
-0.55
-0.6
-0.645
-0.64
-0.595
-0.61
-0.565
-0.555
-0.55
-0.575
-0.555
-0.59
-0.685
-0.575
-0.59
-0.515
-0.56
-0.54
-0.55
-0.56
-0.59
-0.61
-0.63
-0.64
-0.615
-0.58
-0.53
-0.525
-0.55
-0.57
-0.595
-0.61
-0.62
-0.61
-0.57
-0.55
-0.515
-0.46
-0.53
-0.535
-0.535
-0.575
-0.58
-0.565
-0.54
-0.545
-0.535
-0.48
-0.49
-0.535
-0.59
-0.585
-0.615
-0.595
-0.575
-0.56
-0.59
-0.545
-0.525
-0.525
-0.615
-0.66
-0.65
-0.66
-0.605
-0.57
-0.57
-0.58
-0.58
-0.6
-0.635
-0.645
-0.64
-0.625
-0.62
-0.61
-0.565
-0.535
-0.53
-0.55
-0.575
-0.65
-0.65
-0.65
-0.615
-0.575
-0.555
-0.535
-0.585
-0.6
-0.67
-0.685
-0.67
-0.715
-0.77
-0.71
-0.735
-0.635
-0.585
-0.53
-0.39
-0.24
-0.125
0.065
0.205
0.345
0.495
0.485
0.38
0.24
0.015
-0.14
-0.32
-0.44
-0.555
-0.515
-0.525
-0.505
-0.56
-0.56
-0.585
-0.57
-0.585
-0.59
-0.605
-0.585
-0.56
-0.595
-0.57
-0.58
-0.635
-0.66
-0.655
-0.645
-0.605
-0.55
-0.605
-0.545
-0.53
-0.595
-0.63
-0.67
-0.635
-0.645
-0.605
-0.58
-0.595
-0.61
-0.63
-0.575
-0.655
-0.645
-0.655
-0.625
-0.605
-0.535
-0.525
-0.57
-0.62
-0.62
-0.645
-0.64
-0.585
-0.605
-0.61
-0.59
-0.545
-0.555
-0.54
-0.6
-0.635
-0.665
-0.61
-0.56
-0.575
-0.555
-0.565
-0.58
-0.585
-0.565
-0.585
-0.62
-0.61
-0.6
-0.5
-0.525
-0.51
-0.505
-0.53
-0.615
-0.58
-0.59
-0.615
-0.59
-0.545
-0.51
-0.495
-0.515
-0.54
-0.58
-0.575
-0.55
-0.535
-0.535
-0.5
-0.455
-0.445
-0.475
-0.54
-0.55
-0.535
-0.525
-0.49
-0.5
-0.48
-0.475
-0.44
-0.42
-0.465
-0.48
-0.515
-0.445
-0.46
-0.47
-0.43
-0.425
-0.385
-0.4
-0.405
-0.47
-0.49
-0.49
-0.475
-0.425
-0.45
-0.32
-0.31
-0.39
-0.475
-0.515
-0.505
-0.485
-0.515
-0.46
-0.45
-0.495
-0.47
-0.47
-0.5
-0.555
-0.54
-0.575
-0.565
-0.505
-0.535
-0.495
-0.48
-0.47
-0.535
-0.575
-0.58
-0.595
-0.545
-0.57
-0.525
-0.49
-0.495
-0.53
-0.555
-0.6
-0.6
-0.57
-0.57
-0.55
-0.48
-0.515
-0.52
-0.545
-0.545
-0.565
-0.57
-0.535
-0.555
-0.575
-0.52
-0.475
-0.485
-0.45
-0.505
-0.565
-0.605
-0.62
-0.54
-0.555
-0.49
-0.47
-0.455
-0.51
-0.465
-0.555
-0.555
-0.54
-0.595
-0.55
-0.47
-0.37
-0.49
-0.555
-0.53
-0.6
-0.585
-0.545
-0.51
-0.485
-0.51
-0.47
-0.465
-0.465
-0.52
-0.555
-0.575
-0.515
-0.525
-0.495
-0.45
-0.455
-0.475
-0.515
-0.54
-0.565
-0.51
-0.545
-0.51
-0.47
-0.475
-0.515
-0.47
-0.43
-0.505
-0.54
-0.52
-0.53
-0.485
-0.42
-0.375
-0.48
-0.505
-0.5
-0.525
-0.55
-0.565
-0.535
-0.505
-0.485
-0.445
-0.47
-0.48
-0.495
-0.49
-0.56
-0.565
-0.52
-0.505
-0.48
-0.395
-0.47
-0.475
-0.48
-0.535
-0.535
-0.53
-0.54
-0.45
-0.44
-0.455
-0.415
-0.43
-0.475
-0.53
-0.505
-0.55
-0.505
-0.49
-0.48
-0.425
-0.435
-0.45
-0.46
-0.45
-0.49
-0.515
-0.41
-0.37
-0.41
-0.46
-0.435
-0.445
-0.42
-0.48
-0.48
-0.525
-0.495
-0.475
-0.44
-0.465
-0.5
-0.45
-0.515
-0.54
-0.54
-0.53
-0.5
-0.51
-0.485
-0.45
-0.47
-0.46
-0.495
-0.53
-0.59
-0.55
-0.515
-0.51
-0.515
-0.475
-0.475
-0.5
-0.51
-0.52
-0.545
-0.545
-0.53
-0.52
-0.53
-0.475
-0.45
-0.465
-0.52
-0.565
-0.555
-0.56
-0.535
-0.555
-0.48
-0.54
-0.56
-0.65
-0.675
-0.705
-0.67
-0.62
-0.49
-0.295
-0.155
0.03
0.185
0.295
0.395
0.465
0.475
0.445
0.39
0.265
0.085
-0.14
-0.19
-0.34
-0.435
-0.52
-0.54
-0.475
-0.47
-0.5
-0.465
-0.42
-0.445
-0.5
-0.445
-0.505
-0.54
-0.605
-0.53
-0.52
-0.54
-0.505
-0.465
-0.485
-0.535
-0.56
-0.57
-0.555
-0.55
-0.51
-0.515
-0.465
-0.455
-0.52
-0.53
-0.58
-0.555
-0.56
-0.54
-0.49
-0.455
-0.505
-0.515
-0.5
-0.52
-0.545
-0.57
-0.58
-0.555
-0.5
-0.5
-0.475
-0.48
-0.49
-0.575
-0.56
-0.555
-0.53
-0.53
-0.485
-0.475
-0.475
-0.435
-0.45
-0.535
-0.59
-0.58
-0.525
-0.41
-0.43
-0.515
-0.49
-0.53
-0.465
-0.505
-0.57
-0.555
-0.505
-0.48
-0.435
-0.4
-0.455
-0.47
-0.46
-0.505
-0.53
-0.545
-0.515
-0.46
-0.445
-0.445
-0.45
-0.385
-0.435
-0.48
-0.485
-0.49
-0.465
-0.465
-0.39
-0.4
-0.37
-0.39
-0.38
-0.445
-0.44
-0.435
-0.345
-0.42
-0.365
-0.32
-0.355
-0.375
-0.405
-0.4
-0.36
-0.395
-0.37
-0.395
-0.355
-0.335
-0.35
-0.35
-0.405
-0.395
-0.39
-0.47
-0.425
-0.39
-0.355
-0.365
-0.36
-0.37
-0.365
-0.455
-0.515
-0.485
-0.475
-0.46
-0.405
-0.4
-0.4
-0.485
-0.5
-0.54
-0.5
-0.52
-0.565
-0.52
-0.425
-0.455
-0.45
-0.47
-0.495
-0.52
-0.575
-0.565
-0.515
-0.48
-0.425
-0.4
-0.455
-0.49
-0.525
-0.535
-0.54
-0.55
-0.5
-0.505
-0.49
-0.485
-0.505
-0.495
-0.515
-0.56
-0.515
-0.505
-0.54
-0.505
-0.48
-0.425
-0.45
-0.515
-0.545
-0.58
-0.57
-0.51
-0.495
-0.48
-0.485
-0.475
-0.445
-0.515
-0.535
-0.535
-0.545
-0.55
-0.525
-0.485
-0.475
-0.495
-0.515
-0.505
-0.51
-0.55
-0.555
-0.525
-0.52
-0.5
-0.495
-0.49
-0.505
-0.51
-0.51
-0.505
-0.505
-0.49
-0.525
-0.52
-0.46
-0.5
-0.49
-0.48
-0.54
-0.55
-0.55
-0.47
-0.475
-0.5
-0.47
-0.49
-0.515
-0.515
-0.54
-0.54
-0.56
-0.54
-0.53
-0.47
-0.475
-0.425
-0.5
-0.515
-0.56
-0.565
-0.535
-0.53
-0.505
-0.475
-0.46
-0.47
-0.485
-0.495
-0.535
-0.545
-0.525
-0.525
-0.49
-0.48
-0.475
-0.5
-0.485
-0.5
-0.55
-0.545
-0.55
-0.47
-0.415
-0.49
-0.485
-0.445
-0.465
-0.455
-0.535
-0.57
-0.58
-0.465
-0.515
-0.455
-0.49
-0.47
-0.47
-0.475
-0.51
-0.5
-0.495
-0.465
-0.45
-0.405
-0.42
-0.425
-0.435
-0.445
-0.475
-0.455
-0.515
-0.52
-0.5
-0.385
-0.39
-0.425
-0.45
-0.49
-0.57
-0.53
-0.51
-0.57
-0.525
-0.455
-0.445
-0.475
-0.49
-0.49
-0.51
-0.565
-0.57
-0.55
-0.51
-0.48
-0.52
-0.465
-0.465
-0.525
-0.57
-0.595
-0.58
-0.52
-0.495
-0.46
-0.455
-0.485
-0.49
-0.535
-0.52
-0.58
-0.565
-0.54
-0.49
-0.475
-0.5
-0.48
-0.59
-0.665
-0.705
-0.705
-0.695
-0.64
-0.565
-0.425
-0.25
-0.07
0.025
0.17
0.29
0.39
0.525
0.535
0.475
0.42
0.315
0.065
-0.135
-0.27
-0.4
-0.515
-0.49
-0.45
-0.415
-0.425
-0.405
-0.435
-0.445
-0.51
-0.555
-0.5
-0.545
-0.54
-0.5
-0.46
-0.455
-0.515
-0.54
-0.565
-0.58
-0.61
-0.555
-0.54
-0.495
-0.435
-0.465
-0.525
-0.515
-0.52
-0.57
-0.6
-0.52
-0.52
-0.495
-0.535
-0.525
-0.5
-0.515
-0.55
-0.585
-0.57
-0.605
-0.57
-0.47
-0.42
-0.43
-0.49
-0.535
-0.535
-0.585
-0.585
-0.525
-0.535
-0.455
-0.43
-0.515
-0.51
-0.52
-0.565
-0.59
-0.545
-0.505
-0.51
-0.465
-0.45
-0.48
-0.49
-0.535
-0.565
-0.555
-0.53
-0.515
-0.49
-0.485
-0.5
-0.455
-0.46
-0.485
-0.58
-0.57
-0.575
-0.485
-0.48
-0.435
-0.45
-0.45
-0.46
-0.505
-0.55
-0.515
-0.495
-0.455
-0.45
-0.385
-0.38
-0.415
-0.43
-0.475
-0.48
-0.46
-0.415
-0.415
-0.385
-0.365
-0.355
-0.365
-0.37
-0.4
-0.41
-0.46
-0.465
-0.395
-0.375
-0.345
-0.36
-0.345
-0.345
-0.39
-0.435
-0.41
-0.365
-0.425
-0.405
-0.38
-0.385
-0.395
-0.365
-0.475
-0.465
-0.475
-0.495
-0.48
-0.395
-0.44
-0.43
-0.465
-0.47
-0.48
-0.54
-0.53
-0.55
-0.54
-0.465
-0.44
-0.465
-0.485
-0.455
-0.52
-0.575
-0.56
-0.54
-0.565
-0.5
-0.41
-0.425
-0.535
-0.535
-0.57
-0.59
-0.555
-0.545
-0.51
-0.49
-0.475
-0.44
-0.455
-0.525
-0.585
-0.605
-0.565
-0.575
-0.48
-0.485
-0.475
-0.475
-0.475
-0.505
-0.555
-0.55
-0.555
-0.545
-0.555
-0.52
-0.485
-0.47
-0.51
-0.525
-0.565
-0.585
-0.57
-0.575
-0.55
-0.5
-0.47
-0.48
-0.54
-0.52
-0.555
-0.6
-0.59
-0.505
-0.505
-0.485
-0.51
-0.515
-0.54
-0.555
-0.575
-0.6
-0.58
-0.575
-0.545
-0.505
-0.5
-0.48
-0.525
-0.53
-0.565
-0.56
-0.6
-0.56
-0.545
-0.505
-0.49
-0.515
-0.515
-0.535
-0.545
-0.6
-0.595
-0.58
-0.57
-0.495
-0.455
-0.47
-0.53
-0.565
-0.6
-0.615
-0.575
-0.49
-0.51
-0.5
-0.495
-0.52
-0.54
-0.595
-0.55
-0.555
-0.595
-0.59
-0.55
-0.485
-0.44
-0.505
-0.535
-0.57
-0.59
-0.595
-0.555
-0.515
-0.535
-0.475
-0.49
-0.54
-0.53
-0.565
-0.605
-0.64
-0.58
-0.56
-0.56
-0.48
-0.495
-0.51
-0.5
-0.53
-0.54
-0.56
-0.565
-0.565
-0.575
-0.505
-0.495
-0.49
-0.525
-0.545
-0.58
-0.54
-0.535
-0.545
-0.49
-0.455
-0.445
-0.44
-0.475
-0.515
-0.53
-0.53
-0.52
-0.53
-0.5
-0.49
-0.445
-0.41
-0.45
-0.575
-0.605
-0.605
-0.58
-0.61
-0.54
-0.53
-0.5
-0.49
-0.535
-0.56
-0.58
-0.62
-0.59
-0.6
-0.545
-0.545
-0.48
-0.54
-0.58
-0.645
-0.61
-0.63
-0.595
-0.58
-0.565
-0.55
-0.48
-0.555
-0.63
-0.615
-0.645
-0.62
-0.605
-0.59
-0.545
-0.555
-0.54
-0.54
-0.58
-0.645
-0.695
-0.71
-0.73
-0.745
-0.7
-0.67
-0.61
-0.545
-0.42
-0.37
-0.185
0.0
0.19
0.31
0.42
0.53
0.545
0.385
0.27
0.03
-0.175
-0.32
-0.41
-0.49
-0.495
-0.485
-0.515
-0.505
-0.545
-0.585
-0.635
-0.66
-0.62
-0.535
-0.53
-0.565
-0.565
-0.545
-0.63
-0.63
-0.65
-0.665
-0.64
-0.65
-0.58
-0.475
-0.595
-0.565
-0.595
-0.66
-0.67
-0.625
-0.635
-0.605
-0.56
-0.52
-0.575
-0.645
-0.635
-0.65
-0.64
-0.675
-0.655
-0.64
-0.605
-0.57
-0.615
-0.64
-0.595
-0.6
-0.685
-0.675
-0.64
-0.6
-0.575
-0.595
-0.625
-0.63
-0.64
-0.675
-0.69
-0.675
-0.615
-0.595
-0.59
-0.565
-0.555
-0.61
-0.665
-0.65
-0.61
-0.61
-0.625
-0.6
-0.57
-0.54
-0.57
-0.6
-0.63
-0.66
-0.665
-0.64
-0.635
-0.55
-0.55
-0.56
-0.58
-0.58
-0.655
-0.63
-0.6
-0.58
-0.58
-0.53
-0.55
-0.52
-0.515
-0.525
-0.595
-0.6
-0.6
-0.56
-0.545
-0.475
-0.535
-0.515
-0.495
-0.52
-0.545
-0.505
-0.55
-0.5
-0.49
-0.46
-0.46
-0.465
-0.46
-0.49
-0.52
-0.51
-0.52
-0.52
-0.465
-0.4
-0.435
-0.5
-0.505
-0.51
-0.55
-0.57
-0.56
-0.58
-0.575
-0.505
-0.515
-0.525
-0.525
-0.575
-0.59
-0.645
-0.63
-0.63
-0.585
-0.555
-0.545
-0.58
-0.605
-0.56
-0.605
-0.685
-0.65
-0.66
-0.645
-0.595
-0.565
-0.585
-0.63
-0.635
-0.66
-0.69
-0.655
-0.595
-0.62
-0.605
-0.565
-0.53
-0.6
-0.63
-0.66
-0.675
-0.65
-0.67
-0.66
-0.62
-0.61
-0.55
-0.49
-0.525
-0.665
-0.73
-0.735
-0.68
-0.605
-0.545
-0.57
-0.605
-0.63
-0.675
-0.71
-0.68
-0.655
-0.62
-0.635
-0.63
-0.61
-0.615
-0.595
-0.645
-0.675
-0.655
-0.69
-0.66
-0.64
-0.63
-0.6
-0.58
-0.57
-0.635
-0.7
-0.725
-0.715
-0.665
-0.615
-0.6
-0.59
-0.6
-0.585
-0.655
-0.655
-0.645
-0.67
-0.71
-0.63
-0.62
-0.57
-0.6
-0.6
-0.65
-0.64
-0.685
-0.71
-0.665
-0.59
-0.575
-0.57
-0.59
-0.58
-0.675
-0.68
-0.685
-0.71
-0.645
-0.615
-0.575
-0.58
-0.6
-0.62
-0.625
-0.685
-0.68
-0.655
-0.61
-0.615
-0.585
-0.54
-0.605
-0.655
-0.68
-0.63
-0.6
-0.7
-0.645
-0.64
-0.59
-0.62
-0.605
-0.645
-0.695
-0.67
-0.675
-0.67
-0.635
-0.6
-0.545
-0.58
-0.635
-0.66
-0.675
-0.675
-0.655
-0.655
-0.62
-0.58
-0.64
-0.6
-0.635
-0.635
-0.66
-0.675
-0.685
-0.635
-0.625
-0.595
-0.58
-0.6
-0.605
-0.63
-0.665
-0.67
-0.615
-0.63
-0.605
-0.555
-0.535
-0.53
-0.54
-0.565
-0.605
-0.64
-0.57
-0.57
-0.57
-0.55
-0.52
-0.535
-0.565
-0.575
-0.64
-0.685
-0.665
-0.61
-0.57
-0.575
-0.565
-0.63
-0.63
-0.63
-0.64
-0.73
-0.69
-0.655
-0.635
-0.59
-0.58
-0.615
-0.635
-0.67
-0.7
-0.705
-0.675
-0.645
-0.575
-0.62
-0.62
-0.58
-0.575
-0.67
-0.695
-0.705
-0.685
-0.665
-0.63
-0.645
-0.57
-0.605
-0.63
-0.685
-0.67
-0.685
-0.705
-0.705
-0.73
-0.735
-0.78
-0.745
-0.725
-0.705
-0.595
-0.475
-0.27
-0.105
0.105
0.25
0.325
0.43
0.445
0.315
0.19
0.0
-0.16
-0.27
-0.345
-0.49
-0.52
-0.565
-0.575
-0.615
-0.66
-0.665
-0.63
-0.6
-0.545
-0.51
-0.545
-0.605
-0.635
-0.665
-0.63
-0.705
-0.685
-0.63
-0.615
-0.615
-0.63
-0.62
-0.665
-0.715
-0.72
-0.71
-0.655
-0.66
-0.62
-0.6
-0.61
-0.63
-0.55
-0.675
-0.71
-0.675
-0.665
-0.66
-0.62
-0.615
-0.61
-0.585
-0.61
-0.675
-0.665
-0.65
-0.66
-0.62
-0.615
-0.585
-0.58
-0.6
-0.615
-0.635
-0.64
-0.665
-0.635
-0.635
-0.595
-0.575
-0.575
-0.585
-0.58
-0.64
-0.675
-0.67
-0.62
-0.59
-0.55
-0.55
-0.56
-0.585
-0.59
-0.595
-0.615
-0.59
-0.59
-0.58
-0.585
-0.57
-0.52
-0.54
-0.565
-0.615
-0.595
-0.615
-0.56
-0.53
-0.52
-0.49
-0.485
-0.525
-0.58
-0.595
-0.595
-0.565
-0.525
-0.51
-0.475
-0.465
-0.445
-0.485
-0.485
-0.5
-0.565
-0.54
-0.455
-0.41
-0.44
-0.43
-0.44
-0.44
-0.46
-0.495
-0.515
-0.51
-0.455
-0.43
-0.42
-0.445
-0.42
-0.44
-0.475
-0.53
-0.505
-0.505
-0.53
-0.465
-0.47
-0.47
-0.5
-0.485
-0.51
-0.52
-0.55
-0.595
-0.555
-0.545
-0.495
-0.51
-0.525
-0.52
-0.595
-0.595
-0.635
-0.61
-0.6
-0.535
-0.52
-0.545
-0.555
-0.555
-0.58
-0.575
-0.62
-0.6
-0.555
-0.565
-0.5
-0.545
-0.525
-0.555
-0.615
-0.61
-0.615
-0.6
-0.58
-0.57
-0.555
-0.555
-0.52
-0.54
-0.585
-0.61
-0.63
-0.615
-0.605
-0.55
-0.54
-0.535
-0.555
-0.59
-0.65
-0.605
-0.625
-0.585
-0.58
-0.56
-0.525
-0.515
-0.57
-0.58
-0.625
-0.61
-0.61
-0.585
-0.59
-0.53
-0.525
-0.485
-0.515
-0.535
-0.58
-0.605
-0.56
-0.59
-0.57
-0.55
-0.54
-0.515
-0.57
-0.57
-0.585
-0.6
-0.61
-0.585
-0.545
-0.53
-0.525
-0.51
-0.52
-0.525
-0.6
-0.605
-0.595
-0.6
-0.58
-0.505
-0.48
-0.505
-0.55
-0.57
-0.575
-0.605
-0.63
-0.56
-0.54
-0.495
-0.46
-0.48
-0.52
-0.56
-0.575
-0.59
-0.59
-0.565
-0.525
-0.5
-0.49
-0.54
-0.56
-0.55
-0.575
-0.61
-0.54
-0.525
-0.56
-0.52
-0.47
-0.505
-0.56
-0.57
-0.6
-0.575
-0.555
-0.56
-0.51
-0.555
-0.525
-0.49
-0.545
-0.56
-0.59
-0.6
-0.555
-0.555
-0.53
-0.505
-0.445
-0.49
-0.53
-0.54
-0.63
-0.6
-0.59
-0.565
-0.53
-0.48
-0.475
-0.48
-0.485
-0.525
-0.505
-0.56
-0.54
-0.51
-0.435
-0.46
-0.455
-0.48
-0.5
-0.5
-0.52
-0.5
-0.5
-0.505
-0.495
-0.48
-0.48
-0.5
-0.55
-0.56
-0.56
-0.565
-0.54
-0.565
-0.535
-0.525
-0.51
-0.49
-0.56
-0.54
-0.55
-0.59
-0.595
-0.57
-0.54
-0.56
-0.515
-0.51
-0.565
-0.585
-0.56
-0.545
-0.55
-0.52
-0.52
-0.545
-0.535
-0.505
-0.51
-0.57
-0.57
-0.62
-0.57
-0.53
-0.525
-0.515
-0.53
-0.535
-0.635
-0.615
-0.695
-0.705
-0.645
-0.485
-0.41
-0.28
-0.15
0.02
0.145
0.195
0.29
0.41
0.425
0.36
0.29
0.155
-0.035
-0.225
-0.33
-0.47
-0.53
-0.57
-0.495
-0.445
-0.455
-0.42
-0.46
-0.485
-0.495
-0.555
-0.585
-0.54
-0.505
-0.53
-0.485
-0.45
-0.46
-0.495
-0.495
-0.52
-0.585
-0.545
-0.56
-0.54
-0.495
-0.48
-0.45
-0.515
-0.52
-0.55
-0.56
-0.49
-0.49
-0.505
-0.5
-0.52
-0.505
-0.495
-0.5
-0.525
-0.57
-0.52
-0.495
-0.49
-0.45
-0.485
-0.475
-0.505
-0.525
-0.515
-0.555
-0.55
-0.545
-0.495
-0.41
-0.475
-0.41
-0.495
-0.45
-0.525
-0.585
-0.535
-0.525
-0.47
-0.46
-0.42
-0.46
-0.47
-0.48
-0.53
-0.55
-0.505
-0.475
-0.44
-0.42
-0.445
-0.455
-0.48
-0.525
-0.515
-0.515
-0.52
-0.455
-0.43
-0.43
-0.395
-0.46
-0.45
-0.495
-0.49
-0.455
-0.455
-0.45
-0.405
-0.385
-0.37
-0.385
-0.37
-0.435
-0.445
-0.435
-0.39
-0.37
-0.345
-0.345
-0.32
-0.295
-0.36
-0.42
-0.435
-0.4
-0.37
-0.365
-0.29
-0.315
-0.305
-0.295
-0.32
-0.345
-0.42
-0.45
-0.375
-0.375
-0.385
-0.325
-0.33
-0.3
-0.355
-0.415
-0.475
-0.475
-0.46
-0.42
-0.385
-0.405
-0.42
-0.445
-0.47
-0.46
-0.485
-0.495
-0.49
-0.475
-0.39
-0.38
-0.415
-0.485
-0.495
-0.53
-0.5
-0.495
-0.435
-0.465
-0.44
-0.43
-0.435
-0.445
-0.465
-0.49
-0.545
-0.53
-0.525
-0.5
-0.46
-0.385
-0.445
-0.475
-0.44
-0.465
-0.48
-0.535
-0.49
-0.49
-0.46
-0.47
-0.455
-0.395
-0.425
-0.52
-0.535
-0.485
-0.47
-0.485
-0.455
-0.41
-0.385
-0.425
-0.485
-0.55
-0.525
-0.52
-0.475
-0.465
-0.425
-0.425
-0.46
-0.43
-0.435
-0.505
-0.53
-0.525
-0.47
-0.415
-0.35
-0.34
-0.38
-0.425
-0.455
-0.49
-0.495
-0.52
-0.485
-0.405
-0.365
-0.385
-0.395
-0.42
-0.43
-0.47
-0.47
-0.48
-0.43
-0.4
-0.365
-0.395
-0.395
-0.42
-0.45
-0.455
-0.475
-0.425
-0.435
-0.385
-0.43
-0.43
-0.415
-0.425
-0.425
-0.44
-0.43
-0.395
-0.375
-0.405
-0.4
-0.4
-0.38
-0.425
-0.455
-0.46
-0.455
-0.445
-0.435
-0.415
-0.375
-0.39
-0.38
-0.425
-0.455
-0.455
-0.45
-0.48
-0.41
-0.4
-0.39
-0.42
-0.415
-0.395
-0.435
-0.425
-0.47
-0.385
-0.38
-0.355
-0.37
-0.395
-0.4
-0.365
-0.45
-0.485
-0.495
-0.5
-0.43
-0.33
-0.35
-0.36
-0.34
-0.345
-0.405
-0.46
-0.44
-0.36
-0.365
-0.31
-0.31
-0.355
-0.42
-0.36
-0.37
-0.395
-0.425
-0.38
-0.385
-0.35
-0.37
-0.385
-0.355
-0.41
-0.42
-0.43
-0.435
-0.42
-0.43
-0.36
-0.36
-0.345
-0.36
-0.395
-0.46
-0.475
-0.475
-0.455
-0.445
-0.35
-0.415
-0.415
-0.405
-0.365
-0.465
-0.45
-0.44
-0.495
-0.41
-0.385
-0.435
-0.41
-0.395
-0.425
-0.495
-0.49
-0.505
-0.465
-0.47
-0.415
-0.41
-0.44
-0.425
-0.455
-0.485
-0.57
-0.56
-0.565
-0.545
-0.47
-0.415
-0.33
-0.265
-0.205
-0.07
0.06
0.135
0.245
0.345
0.45
0.405
0.315
0.2
0.05
-0.17
-0.285
-0.35
-0.44
-0.42
-0.41
-0.355
-0.29
-0.385
-0.44
-0.46
-0.46
-0.415
-0.43
-0.42
-0.375
-0.37
-0.42
-0.45
-0.465
-0.5
-0.51
-0.47
-0.405
-0.45
-0.435
-0.36
-0.395
-0.415
-0.47
-0.47
-0.445
-0.525
-0.505
-0.44
-0.42
-0.39
-0.375
-0.425
-0.4
-0.375
-0.435
-0.48
-0.435
-0.45
-0.43
-0.435
-0.37
-0.405
-0.44
-0.49
-0.5
-0.48
-0.435
-0.385
-0.4
-0.37
-0.385
-0.405
-0.41
-0.49
-0.44
-0.405
-0.445
-0.425
-0.42
-0.37
-0.37
-0.385
-0.405
-0.405
-0.42
-0.47
-0.435
-0.395
-0.39
-0.355
-0.39
-0.415
-0.425
-0.485
-0.435
-0.37
-0.355
-0.345
-0.33
-0.335
-0.42
-0.39
-0.375
-0.45
-0.385
-0.4
-0.325
-0.275
-0.22
-0.305
-0.355
-0.385
-0.395
-0.355
-0.325
-0.305
-0.295
-0.25
-0.255
-0.255
-0.295
-0.275
-0.325
-0.32
-0.355
-0.305
-0.295
-0.25
-0.21
-0.215
-0.2
-0.215
-0.28
-0.31
-0.32
-0.32
-0.325
-0.305
-0.18
-0.165
-0.235
-0.23
-0.265
-0.34
-0.305
-0.285
-0.24
-0.2
-0.235
-0.22
-0.27
-0.285
-0.295
-0.29
-0.295
-0.35
-0.26
-0.235
-0.27
-0.285
-0.28
-0.28
-0.315
-0.33
-0.305
-0.35
-0.255
-0.295
-0.245
-0.195
-0.235
-0.215
-0.315
-0.345
-0.31
-0.33
-0.3
-0.26
-0.225
-0.275
-0.29
-0.27
-0.32
-0.295
-0.295
-0.255
-0.27
-0.265
-0.18
-0.2
-0.275
-0.27
-0.395
-0.38
-0.38
-0.365
-0.225
-0.17
-0.195
-0.19
-0.245
-0.305
-0.225
-0.185
-0.315
-0.305
-0.22
-0.245
-0.235
-0.275
-0.23
-0.28
-0.31
-0.295
-0.255
-0.325
-0.275
-0.22
-0.205
-0.28
-0.295
-0.28
-0.26
-0.33
-0.285
-0.235
-0.235
-0.22
-0.23
-0.24
-0.24
-0.26
-0.26
-0.305
-0.265
-0.28
-0.265
-0.19
-0.19
-0.225
-0.29
-0.28
-0.315
-0.3
-0.25
-0.245
-0.27
-0.275
-0.235
-0.24
-0.21
-0.215
-0.24
-0.275
-0.3
-0.285
-0.26
-0.185
-0.235
-0.275
-0.245
-0.255
-0.255
-0.275
-0.285
-0.305
-0.205
-0.215
-0.215
-0.175
-0.21
-0.275
-0.28
-0.22
-0.27
-0.265
-0.215
-0.235
-0.245
-0.19
-0.23
-0.27
-0.34
-0.265
-0.16
-0.205
-0.245
-0.165
-0.24
-0.235
-0.25
-0.2
-0.285
-0.265
-0.125
-0.195
-0.155
-0.165
-0.245
-0.215
-0.21
-0.19
-0.295
-0.26
-0.235
-0.195
-0.195
-0.165
-0.175
-0.135
-0.265
-0.29
-0.275
-0.215
-0.275
-0.235
-0.215
-0.23
-0.265
-0.205
-0.18
-0.235
-0.215
-0.305
-0.24
-0.17
-0.11
-0.125
-0.24
-0.155
-0.21
-0.245
-0.29
-0.25
-0.16
-0.155
-0.13
-0.13
-0.175
-0.15
-0.175
-0.23
-0.26
-0.225
-0.185
-0.1
-0.08
-0.115
-0.17
-0.235
-0.29
-0.22
-0.2
-0.205
-0.21
-0.015
0.14
0.25
0.335
0.345
0.39
0.51
0.55
0.555
0.505
0.485
0.365
0.21
0.09
-0.01
-0.11
-0.15
-0.055
-0.01
-0.035
-0.085
-0.115
-0.06
-0.1
-0.125
-0.12
-0.04
-0.14
-0.175
-0.165
-0.11
-0.085
-0.07
-0.06
-0.015
-0.1
-0.18
-0.17
-0.115
-0.115
-0.135
-0.135
-0.06
-0.035
-0.115
-0.19
-0.165
-0.185
-0.07
-0.09
-0.11
-0.11
-0.165
-0.13
-0.03
-0.11
-0.12
-0.145
-0.05
-0.115
-0.1
-0.045
-0.08
-0.07
-0.1
-0.18
-0.165
-0.135
-0.12
-0.155
-0.145
-0.06
-0.035
0.02
-0.11
-0.13
-0.165
-0.065
0.0
-0.065
-0.005
-0.01
-0.05
-0.07
0.005
-0.11
-0.18
-0.2
-0.125
-0.065
-0.015
0.03
-0.04
-0.045
-0.09
-0.06
-0.08
-0.075
-0.065
-0.025
-0.03
-0.02
-0.01
0.0
-0.035
-0.07
-0.125
-0.045
0.0
-0.015
-0.01
0.015
-0.005
-0.01
-0.045
-0.05
-0.04
-0.04
0.035
0.075
0.095
0.095
0.055
0.025
-0.005
0.03
0.005
-0.03
0.0
0.005
0.0
0.02
0.065
0.075
-0.025
-0.07
-0.005
-0.08
-0.06
0.06
0.1
0.075
0.03
-0.025
-0.045
-0.06
-0.025
-0.07
-0.025
-0.06
0.0
0.01
-0.03
-0.045
-0.13
-0.065
-0.12
-0.1
-0.04
-0.05
-0.065
-0.08
-0.04
-0.035
-0.11
-0.11
-0.15
-0.055
-0.035
-0.02
-0.04
-0.055
-0.07
-0.02
-0.06
-0.105
-0.15
-0.09
-0.05
0.015
-0.055
-0.05
-0.035
-0.08
-0.045
-0.115
-0.03
-0.055
-0.045
-0.08
-0.04
0.005
-0.055
-0.085
-0.06
-0.105
-0.11
-0.065
-0.105
0.005
0.0
-0.04
-0.035
-0.055
-0.09
-0.1
-0.135
-0.105
-0.04
-0.005
0.04
0.025
-0.01
-0.08
-0.1
-0.17
-0.14
-0.075
-0.04
-0.07
-0.035
0.055
0.01
-0.075
-0.11
-0.055
-0.14
-0.1
-0.08
-0.045
-0.005
-0.015
-0.12
-0.135
-0.125
-0.085
-0.105
-0.055
-0.035
-0.01
-0.02
0.0
-0.015
-0.105
-0.1
-0.09
-0.095
-0.06
-0.025
0.01
-0.05
0.0
-0.09
-0.075
-0.12
-0.075
-0.105
-0.04
0.0
-0.01
-0.05
-0.065
-0.055
-0.1
-0.12
-0.105
-0.125
-0.04
-0.02
0.025
0.035
-0.03
-0.025
-0.085
-0.18
-0.145
-0.03
-0.04
-0.005
-0.03
0.0
-0.005
-0.09
-0.125
-0.125
-0.115
-0.01
-0.08
-0.075
-0.015
-0.05
-0.05
-0.03
-0.095
0.0
-0.08
-0.09
-0.07
-0.025
0.01
0.0
0.025
0.035
-0.045
-0.075
-0.085
-0.06
-0.06
-0.035
0.035
0.08
0.055
-0.08
-0.055
-0.14
-0.15
-0.1
-0.08
0.01
-0.035
-0.04
0.03
-0.045
-0.095
-0.115
-0.14
-0.12
-0.05
-0.01
-0.015
-0.055
-0.07
-0.095
-0.085
-0.1
-0.17
-0.095
-0.05
-0.04
-0.035
-0.02
-0.015
-0.07
-0.11
-0.13
-0.15
-0.08
-0.055
-0.065
-0.015
-0.015
-0.05
0.005
-0.12
-0.125
-0.185
-0.165
-0.155
-0.09
-0.04
-0.04
-0.015
0.14
0.2
0.25
0.335
0.445
0.565
0.685
0.64
0.64
0.605
0.425
0.24
0.11
0.085
-0.005
-0.035
-0.04
-0.06
-0.025
-0.035
-0.045
-0.09
-0.115
-0.035
-0.08
-0.09
0.005
-0.015
-0.075
-0.09
-0.125
-0.12
-0.145
-0.13
-0.1
-0.065
-0.035
-0.02
0.03
-0.05
-0.13
-0.165
-0.15
-0.095
-0.08
-0.015
-0.025
-0.025
-0.085
-0.1
-0.14
-0.11
-0.1
-0.095
-0.1
-0.04
-0.05
-0.02
-0.01
-0.125
-0.09
-0.125
-0.155
-0.13
-0.105
-0.06
0.015
-0.03
-0.09
-0.1
-0.095
-0.115
-0.13
-0.14
-0.085
-0.065
-0.08
-0.07
-0.065
-0.04
-0.06
-0.085
-0.115
-0.13
-0.045
-0.03
-0.005
-0.07
-0.06
-0.135
-0.115
-0.11
-0.075
-0.03
-0.11
-0.035
-0.035
-0.04
-0.09
-0.05
-0.095
-0.135
-0.09
-0.11
-0.065
0.005
0.015
0.005
-0.02
-0.065
-0.07
-0.125
-0.105
-0.06
0.01
0.035
0.05
-0.01
-0.01
-0.015
-0.055
-0.07
-0.01
-0.02
-0.01
0.085
0.065
0.09
0.04
-0.03
-0.04
-0.05
-0.015
-0.05
-0.055
0.055
0.035
0.015
-0.025
0.02
-0.08
-0.095
-0.08
-0.09
-0.06
0.015
0.02
-0.04
-0.08
-0.08
-0.095
-0.135
-0.155
-0.13
-0.085
-0.075
-0.075
-0.075
-0.08
-0.085
-0.175
-0.19
-0.15
-0.145
-0.11
-0.065
-0.06
-0.03
-0.115
-0.085
-0.17
-0.225
-0.175
-0.17
-0.14
-0.09
0.025
-0.095
-0.135
-0.13
-0.15
-0.195
-0.235
-0.17
-0.16
-0.09
-0.1
-0.145
-0.18
-0.195
-0.2
-0.2
-0.22
-0.205
-0.175
-0.185
-0.13
-0.105
-0.11
-0.18
-0.205
-0.27
-0.17
-0.22
-0.205
-0.195
-0.19
-0.185
-0.225
-0.245
-0.22
-0.235
-0.275
-0.28
-0.225
-0.17
-0.195
-0.185
-0.225
-0.235
-0.29
-0.32
-0.255
-0.245
-0.22
-0.24
-0.23
-0.215
-0.245
-0.275
-0.315
-0.325
-0.325
-0.28
-0.235
-0.195
-0.245
-0.26
-0.28
-0.285
-0.345
-0.295
-0.3
-0.28
-0.245
-0.26
-0.165
-0.245
-0.265
-0.345
-0.34
-0.305
-0.34
-0.28
-0.265
-0.22
-0.245
-0.29
-0.315
-0.33
-0.34
-0.345
-0.325
-0.33
-0.275
-0.26
-0.245
-0.29
-0.28
-0.33
-0.34
-0.315
-0.355
-0.33
-0.315
-0.255
-0.255
-0.265
-0.295
-0.355
-0.37
-0.405
-0.365
-0.295
-0.315
-0.255
-0.265
-0.28
-0.325
-0.38
-0.38
-0.37
-0.33
-0.32
-0.29
-0.305
-0.3
-0.305
-0.345
-0.395
-0.395
-0.34
-0.35
-0.37
-0.31
-0.25
-0.28
-0.345
-0.365
-0.355
-0.335
-0.395
-0.385
-0.37
-0.28
-0.29
-0.285
-0.325
-0.355
-0.355
-0.385
-0.425
-0.345
-0.27
-0.31
-0.315
-0.35
-0.335
-0.355
-0.405
-0.39
-0.385
-0.37
-0.36
-0.305
-0.31
-0.33
-0.295
-0.32
-0.395
-0.385
-0.385
-0.415
-0.355
-0.26
-0.205
-0.265
-0.335
-0.345
-0.385
-0.395
-0.41
-0.3
-0.305
-0.325
-0.285
-0.31
-0.32
-0.345
-0.39
-0.375
-0.38
-0.355
-0.3
-0.32
-0.36
-0.37
-0.395
-0.41
-0.425
-0.42
-0.4
-0.385
-0.38
-0.355
-0.38
-0.36
-0.285
-0.425
-0.41
-0.475
-0.405
-0.405
-0.42
-0.37
-0.36
-0.32
-0.355
-0.4
-0.455
-0.375
-0.425
-0.405
-0.375
-0.375
-0.37
-0.42
-0.4
-0.415
-0.455
-0.48
-0.45
-0.42
-0.45
-0.48
-0.43
-0.52
-0.465
-0.445
-0.395
-0.32
-0.15
-0.02
0.11
0.22
0.4
0.445
0.415
0.345
0.295
0.19
0.03
-0.02
-0.15
-0.29
-0.28
-0.34
-0.37
-0.435
-0.445
-0.385
-0.405
-0.415
-0.345
-0.355
-0.4
-0.4
-0.355
-0.415
-0.45
-0.475
-0.44
-0.405
-0.37
-0.365
-0.365
-0.38
-0.44
-0.47
-0.485
-0.485
-0.445
-0.41
-0.4
-0.38
-0.325
-0.395
-0.44
-0.455
-0.45
-0.46
-0.45
-0.375
-0.39
-0.395
-0.385
-0.36
-0.405
-0.495
-0.42
-0.46
-0.415
-0.43
-0.345
-0.36
-0.385
-0.44
-0.44
-0.47
-0.43
-0.45
-0.425
-0.455
-0.4
-0.375
-0.4
-0.365
-0.395
-0.425
-0.475
-0.45
-0.385
-0.395
-0.4
-0.36
-0.35
-0.395
-0.425
-0.415
-0.4
-0.42
-0.455
-0.39
-0.355
-0.29
-0.28
-0.38
-0.475
-0.435
-0.455
-0.43
-0.405
-0.385
-0.395
-0.315
-0.28
-0.37
-0.39
-0.4
-0.37
-0.37
-0.405
-0.335
-0.295
-0.275
-0.275
-0.28
-0.4
-0.395
-0.39
-0.365
-0.335
-0.28
-0.265
-0.275
-0.28
-0.33
-0.36
-0.375
-0.355
-0.3
-0.33
-0.225
-0.26
-0.29
-0.275
-0.315
-0.32
-0.365
-0.385
-0.39
-0.31
-0.28
-0.32
-0.295
-0.33
-0.375
-0.375
-0.395
-0.37
-0.38
-0.395
-0.395
-0.405
-0.37
-0.37
-0.365
-0.44
-0.47
-0.43
-0.465
-0.44
-0.385
-0.335
-0.365
-0.41
-0.465
-0.46
-0.49
-0.44
-0.47
-0.445
-0.395
-0.38
-0.41
-0.45
-0.48
-0.5
-0.485
-0.495
-0.43
-0.4
-0.39
-0.35
-0.295
-0.395
-0.465
-0.52
-0.485
-0.455
-0.46
-0.44
-0.44
-0.39
-0.4
-0.425
-0.415
-0.45
-0.505
-0.505
-0.485
-0.45
-0.42
-0.41
-0.375
-0.42
-0.445
-0.4
-0.485
-0.525
-0.46
-0.365
-0.415
-0.395
-0.405
-0.44
-0.475
-0.5
-0.47
-0.52
-0.52
-0.46
-0.345
-0.33
-0.405
-0.44
-0.425
-0.45
-0.53
-0.51
-0.5
-0.455
-0.425
-0.41
-0.405
-0.41
-0.46
-0.475
-0.5
-0.505
-0.45
-0.425
-0.345
-0.41
-0.415
-0.43
-0.43
-0.375
-0.53
-0.57
-0.52
-0.445
-0.39
-0.39
-0.42
-0.44
-0.48
-0.47
-0.535
-0.505
-0.48
-0.425
-0.29
-0.395
-0.395
-0.395
-0.485
-0.49
-0.48
-0.475
-0.45
-0.425
-0.395
-0.41
-0.43
-0.395
-0.46
-0.52
-0.52
-0.5
-0.435
-0.45
-0.405
-0.37
-0.39
-0.44
-0.485
-0.465
-0.445
-0.505
-0.455
-0.425
-0.39
-0.345
-0.4
-0.485
-0.485
-0.47
-0.47
-0.52
-0.495
-0.47
-0.43
-0.37
-0.44
-0.44
-0.47
-0.515
-0.475
-0.415
-0.445
-0.41
-0.44
-0.44
-0.45
-0.475
-0.505
-0.53
-0.46
-0.415
-0.445
-0.44
-0.395
-0.475
-0.46
-0.42
-0.475
-0.475
-0.45
-0.485
-0.45
-0.365
-0.405
-0.445
-0.45
-0.445
-0.525
-0.48
-0.52
-0.435
-0.44
-0.4
-0.39
-0.415
-0.425
-0.44
-0.5
-0.5
-0.5
-0.5
-0.44
-0.405
-0.36
-0.35
-0.415
-0.42
-0.435
-0.45
-0.415
-0.39
-0.385
-0.39
-0.355
-0.385
-0.425
-0.415
-0.405
-0.485
-0.48
-0.47
-0.48
-0.465
-0.44
-0.415
-0.415
-0.455
-0.525
-0.485
-0.465
-0.48
-0.46
-0.43
-0.385
-0.415
-0.475
-0.495
-0.525
-0.53
-0.52
-0.505
-0.45
-0.435
-0.455
-0.44
-0.4
-0.48
-0.48
-0.52
-0.495
-0.51
-0.475
-0.415
-0.455
-0.48
-0.43
-0.52
-0.51
-0.56
-0.51
-0.525
-0.5
-0.46
-0.545
-0.555
-0.625
-0.645
-0.59
-0.53
-0.405
-0.26
-0.025
0.105
0.215
0.3
0.415
0.43
0.395
0.325
0.225
0.01
-0.07
-0.2
-0.3
-0.405
-0.445
-0.465
-0.48
-0.515
-0.52
-0.49
-0.41
-0.405
-0.41
-0.46
-0.51
-0.55
-0.555
-0.56
-0.53
-0.515
-0.425
-0.475
-0.505
-0.515
-0.52
-0.505
-0.56
-0.55
-0.52
-0.51
-0.495
-0.495
-0.49
-0.535
-0.495
-0.535
-0.555
-0.6
-0.54
-0.48
-0.52
-0.46
-0.44
-0.47
-0.53
-0.56
-0.555
-0.565
-0.505
-0.5
-0.495
-0.455
-0.435
-0.485
-0.54
-0.58
-0.52
-0.56
-0.5
-0.515
-0.475
-0.48
-0.5
-0.48
-0.5
-0.525
-0.535
-0.565
-0.53
-0.505
-0.47
-0.475
-0.49
-0.5
-0.49
-0.525
-0.55
-0.555
-0.49
-0.53
-0.43
-0.46
-0.435
-0.475
-0.54
-0.505
-0.565
-0.555
-0.54
-0.485
-0.455
-0.385
-0.425
-0.45
-0.48
-0.49
-0.53
-0.47
-0.47
-0.44
-0.43
-0.42
-0.37
-0.39
-0.445
-0.48
-0.455
-0.475
-0.435
-0.425
-0.32
-0.28
-0.335
-0.375
-0.42
-0.44
-0.44
-0.445
-0.405
-0.345
-0.31
-0.325
-0.345
-0.385
-0.36
-0.42
-0.485
-0.39
-0.36
-0.35
-0.385
-0.33
-0.35
-0.415
-0.455
-0.505
-0.5
-0.495
-0.43
-0.42
-0.415
-0.405
-0.45
-0.46
-0.525
-0.505
-0.555
-0.53
-0.445
-0.475
-0.435
-0.45
-0.51
-0.475
-0.53
-0.535
-0.565
-0.555
-0.485
-0.455
-0.455
-0.48
-0.5
-0.55
-0.545
-0.57
-0.58
-0.565
-0.52
-0.48
-0.49
-0.51
-0.495
-0.5
-0.535
-0.56
-0.585
-0.55
-0.47
-0.445
-0.45
-0.47
-0.465
-0.5
-0.565
-0.57
-0.58
-0.545
-0.535
-0.48
-0.475
-0.465
-0.5
-0.49
-0.59
-0.6
-0.47
-0.515
-0.505
-0.495
-0.525
-0.48
-0.44
-0.53
-0.57
-0.54
-0.545
-0.5
-0.53
-0.455
-0.4
-0.455
-0.45
-0.515
-0.56
-0.615
-0.535
-0.545
-0.455
-0.435
-0.47
-0.485
-0.48
-0.505
-0.515
-0.54
-0.535
-0.46
-0.51
-0.45
-0.475
-0.49
-0.455
-0.475
-0.51
-0.58
-0.52
-0.515
-0.485
-0.47
-0.45
-0.485
-0.525
-0.5
-0.51
-0.53
-0.515
-0.5
-0.475
-0.43
-0.465
-0.475
-0.47
-0.43
-0.545
-0.555
-0.53
-0.53
-0.46
-0.44
-0.445
-0.435
-0.47
-0.475
-0.51
-0.53
-0.595
-0.55
-0.505
-0.455
-0.41
-0.4
-0.43
-0.515
-0.48
-0.56
-0.52
-0.475
-0.5
-0.495
-0.415
-0.395
-0.465
-0.52
-0.48
-0.48
-0.56
-0.52
-0.48
-0.42
-0.45
-0.505
-0.485
-0.51
-0.55
-0.505
-0.49
-0.495
-0.51
-0.475
-0.43
-0.4
-0.49
-0.56
-0.55
-0.51
-0.52
-0.475
-0.485
-0.47
-0.45
-0.475
-0.495
-0.54
-0.55
-0.53
-0.525
-0.515
-0.49
-0.465
-0.45
-0.45
-0.43
-0.505
-0.54
-0.535
-0.495
-0.47
-0.46
-0.47
-0.45
-0.44
-0.44
-0.505
-0.55
-0.515
-0.455
-0.47
-0.405
-0.435
-0.39
-0.4
-0.48
-0.545
-0.55
-0.42
-0.415
-0.37
-0.48
-0.43
-0.385
-0.39
-0.45
-0.47
-0.515
-0.515
-0.495
-0.485
-0.47
-0.465
-0.425
-0.455
-0.485
-0.575
-0.535
-0.54
-0.51
-0.45
-0.45
-0.53
-0.505
-0.505
-0.515
-0.535
-0.555
-0.545
-0.515
-0.5
-0.46
-0.43
-0.495
-0.465
-0.495
-0.525
-0.56
-0.565
-0.535
-0.47
-0.48
-0.51
-0.455
-0.455
-0.545
-0.59
-0.62
-0.665
-0.67
-0.64
-0.6
-0.585
-0.48
-0.365
-0.315
-0.205
-0.03
0.12
0.275
0.385
0.525
0.585
0.46
0.405
0.18
-0.06
-0.285
-0.265
-0.455
-0.49
-0.47
-0.425
-0.345
-0.39
-0.52
-0.53
-0.495
-0.495
-0.48
-0.405
-0.48
-0.55
-0.49
-0.48
-0.505
-0.56
-0.56
-0.575
-0.545
-0.5
-0.495
-0.47
-0.47
-0.495
-0.515
-0.535
-0.54
-0.525
-0.52
-0.45
-0.465
-0.5
-0.525
-0.525
-0.56
-0.57
-0.575
-0.55
-0.505
-0.47
-0.465
-0.4
-0.49
-0.53
-0.535
-0.55
-0.53
-0.51
-0.48
-0.47
-0.49
-0.48
-0.485
-0.495
-0.49
-0.54
-0.58
-0.555
-0.52
-0.49
-0.465
-0.4
-0.48
-0.51
-0.52
-0.565
-0.57
-0.505
-0.45
-0.445
-0.405
-0.455
-0.445
-0.47
-0.53
-0.53
-0.585
-0.53
-0.445
-0.4
-0.475
-0.465
-0.44
-0.46
-0.515
-0.51
-0.515
-0.5
-0.48
-0.41
-0.395
-0.43
-0.405
-0.415
-0.47
-0.49
-0.425
-0.375
-0.425
-0.4
-0.37
-0.345
-0.335
-0.405
-0.435
-0.4
-0.41
-0.4
-0.36
-0.285
-0.325
-0.375
-0.365
-0.37
-0.405
-0.43
-0.4
-0.38
-0.36
-0.27
-0.275
-0.305
-0.345
-0.33
-0.42
-0.45
-0.395
-0.385
-0.355
-0.35
-0.35
-0.355
-0.405
-0.445
-0.475
-0.475
-0.445
-0.46
-0.435
-0.415
-0.445
-0.415
-0.425
-0.455
-0.465
-0.51
-0.52
-0.455
-0.42
-0.42
-0.4
-0.39
-0.49
-0.54
-0.53
-0.53
-0.5
-0.455
-0.425
-0.465
-0.465
-0.42
-0.48
-0.515
-0.49
-0.525
-0.505
-0.485
-0.44
-0.445
-0.445
-0.43
-0.47
-0.475
-0.505
-0.54
-0.555
-0.53
-0.49
-0.445
-0.445
-0.47
-0.48
-0.515
-0.54
-0.52
-0.505
-0.48
-0.435
-0.43
-0.445
-0.45
-0.51
-0.52
-0.525
-0.52
-0.51
-0.485
-0.45
-0.465
-0.465
-0.43
-0.47
-0.5
-0.53
-0.52
-0.495
-0.515
-0.435
-0.395
-0.44
-0.47
-0.465
-0.485
-0.53
-0.505
-0.495
-0.515
-0.385
-0.41
-0.435
-0.415
-0.455
-0.485
-0.505
-0.56
-0.525
-0.415
-0.405
-0.435
-0.375
-0.47
-0.49
-0.515
-0.55
-0.505
-0.435
-0.48
-0.455
-0.4
-0.465
-0.46
-0.425
-0.46
-0.51
-0.535
-0.465
-0.445
-0.455
-0.4
-0.44
-0.49
-0.47
-0.49
-0.475
-0.5
-0.5
-0.475
-0.44
-0.43
-0.455
-0.46
-0.45
-0.515
-0.515
-0.5
-0.49
-0.475
-0.435
-0.43
-0.43
-0.43
-0.465
-0.515
-0.525
-0.515
-0.49
-0.45
-0.435
-0.44
