# TIPE ECG 2021 - ECG-ID Database v1.0.0 par Physionet
# [Numéro de la personne, Période d'échantillonnage, Prénom, Age, Sexe, Date de l'enregistrement]
[16, 0.002, Roberta, 21, F, 26.04.2005]
-0.305
-0.305
-0.16
-0.065
0.005
0.015
0.015
-0.125
-0.385
-0.265
-0.075
-0.2
-0.28
-0.245
-0.085
-0.05
-0.09
-0.13
-0.28
-0.415
-0.305
-0.275
-0.33
-0.235
-0.05
-0.04
-0.16
-0.2
-0.32
-0.36
-0.3
-0.38
-0.255
-0.105
-0.09
-0.095
0.06
-0.2
-0.22
-0.415
-0.33
-0.28
-0.22
-0.16
-0.04
-0.155
-0.2
-0.215
-0.17
-0.385
-0.36
-0.215
-0.225
-0.235
-0.06
-0.055
-0.13
-0.195
-0.26
-0.38
-0.275
-0.33
-0.185
-0.175
-0.045
-0.075
-0.165
-0.2
-0.16
-0.39
-0.35
-0.28
-0.17
-0.185
-0.065
-0.095
-0.155
-0.14
-0.21
-0.375
-0.39
-0.235
-0.15
-0.13
-0.105
-0.03
-0.075
-0.175
-0.27
-0.37
-0.33
-0.28
-0.215
-0.18
-0.06
-0.035
-0.145
-0.255
-0.27
-0.35
-0.33
-0.3
-0.22
-0.11
-0.125
-0.11
-0.175
-0.175
-0.245
-0.285
-0.325
-0.18
-0.225
-0.12
-0.05
-0.065
-0.135
-0.23
-0.285
-0.33
-0.355
-0.305
-0.12
-0.18
-0.065
-0.07
-0.155
-0.175
-0.37
-0.28
-0.31
-0.315
-0.13
-0.065
-0.015
-0.07
-0.16
-0.24
-0.34
-0.335
-0.33
-0.225
-0.21
-0.095
0.02
-0.055
-0.205
-0.145
-0.195
-0.28
-0.345
-0.225
-0.145
0.0
-0.015
-0.055
-0.105
-0.2
-0.265
-0.21
-0.28
-0.2
-0.085
-0.01
0.03
-0.13
-0.235
-0.265
-0.335
-0.21
-0.345
-0.285
-0.19
-0.09
-0.1
-0.1
-0.14
-0.22
-0.355
-0.36
-0.355
-0.2
-0.105
-0.055
-0.12
-0.2
-0.17
-0.19
-0.385
-0.37
-0.26
-0.17
-0.075
0.045
0.05
0.05
0.235
0.35
0.415
0.445
0.44
0.425
0.6
0.62
0.61
0.605
0.305
0.325
0.025
-0.2
-0.275
-0.24
-0.105
-0.085
-0.115
-0.07
-0.145
-0.225
-0.305
-0.355
-0.35
-0.19
-0.11
-0.095
-0.065
-0.07
-0.255
-0.255
-0.335
-0.335
-0.155
-0.05
-0.07
-0.035
-0.1
-0.21
-0.275
-0.15
-0.285
-0.375
-0.145
-0.13
-0.155
-0.075
-0.085
-0.15
-0.17
-0.3
-0.325
-0.3
-0.18
-0.225
-0.18
0.045
0.035
-0.165
-0.155
-0.19
-0.3
-0.3
-0.195
-0.065
-0.075
-0.08
-0.04
-0.075
-0.13
-0.205
-0.32
-0.15
-0.135
-0.125
-0.01
-0.075
-0.08
-0.135
-0.125
-0.21
-0.17
-0.175
-0.1
-0.05
-0.045
0.03
0.06
-0.09
-0.25
-0.19
-0.13
-0.065
-0.11
-0.065
0.11
0.07
0.115
0.04
-0.055
-0.145
-0.14
-0.16
-0.03
0.015
0.105
0.23
0.075
-0.045
-0.02
-0.075
-0.06
0.015
0.125
0.165
0.22
0.085
0.15
0.115
-0.045
-0.135
-0.095
-0.05
0.015
0.01
0.155
0.09
0.155
0.04
-0.07
-0.11
-0.14
-0.14
-0.045
-0.02
0.03
0.0
0.02
-0.13
-0.195
-0.18
-0.22
-0.165
-0.04
-0.115
-0.06
-0.035
0.035
-0.04
-0.28
-0.325
-0.265
-0.215
-0.125
-0.12
0.0
-0.04
-0.125
-0.085
-0.105
-0.29
-0.28
-0.235
-0.115
-0.035
-0.015
-0.175
-0.125
-0.12
-0.165
-0.28
-0.23
-0.24
-0.18
-0.135
-0.015
-0.06
-0.065
-0.165
-0.31
-0.28
-0.21
-0.235
-0.145
-0.13
-0.005
-0.06
-0.03
-0.14
-0.245
-0.265
-0.18
-0.155
-0.11
-0.06
0.04
-0.135
-0.02
-0.105
-0.225
-0.295
-0.285
-0.195
-0.075
-0.07
-0.015
-0.045
-0.025
-0.17
-0.195
-0.185
-0.285
-0.24
-0.145
-0.055
-0.06
-0.085
-0.115
-0.105
-0.145
-0.24
-0.265
-0.185
-0.095
0.01
-0.04
-0.03
-0.15
-0.13
-0.19
-0.2
-0.165
-0.14
-0.095
-0.07
0.075
0.03
-0.205
-0.22
-0.29
-0.145
-0.22
-0.155
-0.135
-0.04
0.02
-0.015
-0.025
-0.23
-0.24
-0.26
-0.26
-0.2
-0.095
0.025
0.005
-0.06
-0.055
-0.13
-0.295
-0.235
-0.225
-0.09
-0.14
-0.085
0.015
-0.02
-0.04
-0.19
-0.25
-0.265
-0.1
-0.01
-0.175
-0.015
0.02
-0.085
-0.11
-0.165
-0.315
-0.25
-0.11
-0.075
-0.06
-0.025
0.085
-0.015
-0.16
-0.17
-0.15
-0.175
-0.15
-0.045
-0.045
0.08
-0.005
-0.02
-0.1
-0.065
-0.15
-0.15
-0.25
-0.13
-0.045
-0.015
-0.02
-0.03
-0.035
-0.11
-0.335
-0.335
-0.22
-0.08
-0.03
0.06
0.01
-0.125
-0.14
-0.21
-0.29
-0.21
-0.205
-0.155
-0.16
-0.07
-0.045
-0.08
-0.195
-0.155
-0.145
0.0
0.185
0.465
0.655
0.77
0.7
0.69
0.53
0.425
0.505
0.505
0.465
0.35
0.24
0.21
0.045
-0.105
-0.24
-0.335
-0.235
-0.245
-0.155
-0.125
-0.1
0.065
0.04
-0.14
-0.1
-0.19
-0.26
-0.2
-0.12
-0.02
-0.025
-0.03
-0.085
-0.05
-0.085
-0.365
-0.265
-0.22
-0.14
-0.06
0.065
-0.01
0.085
-0.105
-0.21
-0.275
-0.285
-0.26
-0.12
0.02
0.01
0.075
0.05
-0.02
-0.1
-0.185
-0.21
-0.225
-0.1
-0.04
0.025
0.04
-0.035
-0.1
-0.15
-0.185
-0.155
-0.15
-0.1
0.035
0.055
0.1
0.06
-0.055
0.0
-0.145
-0.3
-0.335
-0.045
-0.025
0.175
-0.005
-0.005
-0.07
-0.055
-0.17
-0.22
-0.085
0.01
0.005
0.145
0.145
0.065
-0.045
-0.06
-0.03
-0.095
0.055
0.04
0.015
0.195
0.12
0.12
0.11
0.005
-0.08
-0.04
0.04
0.145
0.105
0.19
0.18
0.165
0.145
0.05
-0.04
-0.01
0.02
0.17
0.12
0.205
0.26
0.17
0.09
0.1
-0.015
-0.175
-0.03
0.005
0.17
0.185
0.085
0.02
-0.05
-0.06
-0.225
-0.12
-0.135
0.095
0.08
0.05
0.03
-0.025
-0.11
-0.21
-0.34
-0.28
-0.19
-0.085
-0.015
0.01
0.065
-0.135
-0.1
-0.24
-0.27
-0.27
-0.195
-0.14
-0.08
0.01
0.015
-0.06
-0.2
-0.195
-0.23
-0.31
-0.295
-0.08
-0.02
-0.045
-0.085
-0.24
-0.155
-0.095
-0.27
-0.25
-0.125
-0.145
0.05
-0.08
-0.055
-0.06
-0.21
-0.26
-0.215
-0.2
-0.165
-0.14
-0.03
-0.135
-0.085
-0.05
-0.175
-0.29
-0.25
-0.12
-0.08
-0.06
0.085
-0.06
-0.095
-0.13
-0.14
-0.275
-0.28
-0.155
-0.165
-0.13
0.045
0.06
-0.06
-0.125
-0.21
-0.34
-0.24
-0.125
-0.06
-0.105
0.015
-0.035
-0.095
-0.1
-0.165
-0.255
-0.335
-0.21
-0.125
-0.01
0.045
0.035
-0.11
-0.245
-0.195
-0.24
-0.175
-0.195
-0.14
-0.06
0.03
-0.04
-0.04
-0.04
-0.19
-0.225
-0.26
-0.12
-0.125
-0.09
0.035
-0.035
-0.1
-0.035
-0.155
-0.32
-0.29
-0.115
-0.18
-0.1
0.09
0.03
-0.045
-0.12
-0.165
-0.2
-0.14
-0.13
-0.055
-0.11
0.025
-0.03
-0.045
-0.03
-0.08
-0.2
-0.24
-0.14
-0.11
-0.14
0.035
-0.08
-0.15
-0.145
-0.16
-0.205
-0.285
-0.23
-0.18
0.0
0.01
-0.075
-0.16
-0.25
-0.205
-0.285
-0.24
-0.175
-0.13
0.035
0.045
-0.055
-0.165
-0.235
-0.345
-0.265
-0.225
-0.16
0.01
0.165
0.41
0.445
0.51
0.555
0.385
0.375
0.38
0.59
0.54
0.73
0.535
0.195
0.175
-0.1
-0.335
-0.405
-0.34
-0.185
-0.14
-0.11
-0.03
-0.04
-0.16
-0.225
-0.32
-0.23
-0.24
-0.225
-0.11
-0.01
0.0
0.005
0.025
-0.125
-0.32
-0.255
-0.205
-0.17
-0.115
0.02
0.045
-0.01
-0.085
-0.11
-0.225
-0.19
-0.175
-0.175
-0.075
0.11
0.005
-0.06
-0.155
-0.115
-0.105
-0.08
-0.145
-0.275
-0.085
0.035
0.03
-0.065
-0.125
-0.09
-0.225
-0.23
-0.17
-0.1
-0.085
0.0
0.13
0.02
-0.05
-0.085
-0.2
-0.24
-0.17
-0.07
-0.005
0.135
0.16
0.01
-0.085
-0.085
-0.13
-0.115
-0.07
-0.12
-0.02
0.095
0.14
0.105
0.08
-0.04
-0.16
-0.09
-0.095
0.005
0.015
0.25
0.375
0.065
0.0
-0.07
-0.04
0.105
0.035
0.07
0.11
0.255
0.255
0.19
0.17
-0.045
-0.01
0.12
0.175
0.135
0.185
0.245
0.255
0.195
0.155
0.03
-0.025
-0.02
-0.02
0.035
0.17
0.225
0.255
0.035
-0.13
-0.11
-0.125
-0.125
-0.055
0.08
0.075
0.12
0.115
-0.035
-0.22
-0.18
-0.14
-0.185
-0.185
-0.04
0.015
0.045
0.07
-0.17
-0.095
-0.19
-0.22
-0.22
-0.125
-0.085
0.04
0.1
-0.125
-0.055
-0.12
-0.215
-0.235
-0.235
-0.12
-0.09
0.015
0.035
0.055
-0.195
-0.225
-0.215
-0.275
-0.25
-0.16
-0.055
0.04
-0.075
-0.045
-0.075
-0.09
-0.35
-0.34
-0.105
-0.09
-0.075
0.115
-0.03
-0.08
-0.19
-0.125
-0.095
-0.02
-0.185
-0.185
-0.1
0.03
0.11
0.015
-0.16
-0.11
-0.275
-0.225
-0.015
-0.075
-0.105
0.01
0.095
-0.04
-0.195
-0.155
-0.165
-0.195
-0.16
-0.11
-0.08
0.055
0.115
-0.005
-0.13
-0.14
-0.22
-0.165
-0.115
-0.165
-0.08
0.08
0.02
-0.075
-0.105
-0.12
-0.185
-0.235
-0.095
-0.025
-0.07
-0.04
0.0
0.005
-0.13
-0.08
-0.28
-0.305
-0.11
0.025
0.085
0.07
0.07
-0.06
-0.125
-0.235
-0.29
-0.2
-0.075
-0.025
-0.06
0.135
0.095
-0.065
-0.14
-0.125
-0.235
-0.26
-0.075
-0.01
-0.01
0.005
-0.045
-0.015
-0.06
-0.155
-0.095
-0.1
-0.18
-0.05
0.015
0.16
0.035
-0.05
-0.05
-0.17
-0.17
-0.125
-0.07
-0.12
0.12
0.06
0.015
-0.135
-0.055
-0.255
-0.195
-0.165
-0.12
-0.07
0.015
0.0
-0.02
-0.07
-0.1
-0.215
-0.185
-0.125
-0.165
-0.12
-0.02
0.05
-0.03
-0.115
-0.24
-0.335
-0.21
-0.235
-0.07
0.05
0.325
0.4
0.55
0.67
0.655
0.58
0.45
0.51
0.555
0.575
0.77
0.6
0.41
0.19
0.04
-0.26
-0.31
-0.17
-0.245
-0.215
0.1
0.015
-0.045
-0.06
-0.12
-0.185
-0.21
-0.23
-0.075
-0.05
0.015
0.04
0.0
-0.005
-0.095
-0.265
-0.15
-0.17
-0.095
-0.07
0.075
-0.075
-0.01
-0.105
-0.135
-0.235
-0.21
-0.12
-0.09
-0.11
0.015
0.105
0.04
-0.055
-0.185
-0.25
-0.195
-0.015
-0.065
-0.145
0.08
0.085
-0.06
0.095
-0.11
-0.18
-0.215
-0.115
-0.1
-0.04
0.06
0.135
0.06
-0.035
-0.165
-0.21
-0.15
-0.055
0.08
-0.02
0.01
0.215
-0.005
-0.145
-0.13
-0.215
-0.125
-0.05
-0.105
0.02
0.125
0.145
0.095
0.005
-0.065
-0.075
-0.055
0.04
0.045
0.19
0.195
0.215
0.145
0.015
-0.105
-0.155
-0.15
0.145
0.205
0.25
0.235
0.265
0.175
0.15
0.135
-0.03
0.095
0.145
0.135
0.09
0.16
0.29
0.15
0.03
-0.015
-0.08
-0.015
0.025
0.145
0.155
0.165
0.255
0.165
0.08
-0.06
-0.085
-0.095
0.025
0.01
0.125
0.14
0.115
0.04
-0.115
-0.215
-0.235
-0.2
-0.095
0.025
0.1
0.07
0.005
-0.1
-0.15
-0.28
-0.215
-0.01
0.005
0.015
-0.01
-0.035
-0.035
-0.065
-0.095
-0.215
-0.21
-0.12
-0.06
-0.115
0.065
-0.05
-0.02
-0.085
-0.18
-0.285
-0.185
-0.165
-0.125
0.0
0.11
0.085
-0.015
-0.135
-0.12
-0.21
-0.2
-0.19
-0.1
-0.055
0.02
-0.01
0.06
-0.125
-0.125
-0.19
-0.135
-0.21
-0.115
-0.02
0.06
0.0
0.075
-0.075
-0.17
-0.225
-0.205
-0.2
-0.14
-0.135
0.13
0.045
0.02
-0.02
-0.15
-0.16
-0.15
-0.125
-0.08
0.04
0.025
0.1
0.055
-0.1
-0.15
-0.165
-0.17
-0.195
-0.04
-0.005
0.05
-0.045
0.0
-0.08
-0.145
-0.25
-0.19
-0.12
0.02
0.02
0.13
0.125
-0.21
-0.185
-0.205
-0.23
-0.165
-0.135
-0.07
0.12
0.1
0.09
-0.095
-0.175
-0.17
-0.11
-0.175
-0.085
-0.055
0.015
0.025
0.1
-0.005
-0.05
-0.215
-0.21
-0.23
-0.135
0.09
0.09
-0.025
-0.025
-0.07
-0.055
-0.155
-0.15
-0.225
-0.145
-0.085
0.13
0.12
0.06
-0.18
-0.02
-0.11
-0.195
-0.075
-0.015
0.06
0.085
0.09
0.11
-0.135
-0.075
-0.125
-0.15
-0.135
-0.125
0.02
0.055
0.04
0.01
-0.02
-0.135
-0.225
-0.24
-0.165
-0.045
-0.055
0.025
0.005
-0.055
-0.05
-0.025
-0.21
-0.285
-0.175
-0.085
-0.055
-0.1
0.015
0.005
-0.13
-0.17
-0.25
-0.195
-0.145
0.0
0.22
0.455
0.675
0.725
0.74
0.67
0.52
0.47
0.53
0.75
0.57
0.67
0.615
0.385
0.075
-0.14
-0.27
-0.26
-0.12
-0.01
0.035
0.065
0.015
-0.01
-0.085
-0.125
-0.18
-0.25
-0.205
-0.03
0.03
-0.025
-0.005
-0.04
-0.075
-0.185
-0.25
-0.195
-0.085
-0.03
-0.065
0.01
0.015
-0.015
0.0
-0.105
-0.195
-0.2
-0.15
-0.02
0.065
0.05
0.025
-0.065
-0.02
-0.19
-0.055
-0.24
-0.09
-0.055
0.03
0.06
0.005
-0.04
0.05
-0.19
-0.22
-0.15
0.005
-0.07
0.07
0.1
0.02
0.05
-0.08
-0.165
-0.16
-0.105
-0.025
-0.065
0.15
0.05
0.015
-0.01
-0.05
-0.08
-0.17
-0.025
0.055
-0.02
0.11
0.16
0.125
0.035
-0.04
-0.095
-0.08
-0.04
0.055
0.06
0.17
0.235
0.165
0.075
0.055
-0.075
-0.075
0.1
0.115
0.18
0.225
0.19
0.17
0.145
0.11
-0.005
-0.015
0.085
0.035
0.185
0.365
0.245
0.2
0.175
0.04
-0.03
-0.045
0.045
0.125
-0.015
0.37
0.24
0.225
0.095
-0.04
-0.16
-0.16
0.025
0.01
-0.045
0.105
0.065
0.1
0.045
-0.2
-0.21
-0.115
-0.075
-0.115
-0.07
-0.065
0.045
0.0
-0.035
-0.125
-0.17
-0.165
-0.105
-0.035
-0.035
0.03
-0.01
0.06
-0.065
-0.165
-0.23
-0.22
-0.175
-0.05
-0.025
0.18
0.095
-0.095
-0.05
-0.13
-0.235
-0.275
-0.145
-0.06
0.035
0.05
0.025
-0.17
-0.105
-0.095
-0.27
-0.165
0.01
0.05
-0.08
0.0
0.05
-0.01
-0.125
-0.095
-0.16
-0.21
-0.175
-0.02
0.02
0.01
0.015
-0.085
-0.015
-0.22
-0.275
-0.12
-0.105
-0.1
0.01
0.12
0.105
0.005
-0.11
-0.155
-0.18
-0.155
-0.11
-0.04
0.095
0.005
-0.005
-0.04
-0.1
-0.24
-0.215
-0.115
-0.055
-0.095
0.17
0.04
0.02
0.05
-0.13
-0.205
-0.26
-0.08
-0.14
-0.09
0.02
-0.005
0.055
-0.07
-0.115
-0.35
-0.195
-0.19
-0.07
0.015
0.115
0.0
0.05
0.035
-0.03
-0.25
-0.23
-0.16
-0.12
-0.115
0.06
0.085
0.03
-0.035
-0.29
-0.235
-0.1
-0.17
-0.1
-0.085
0.12
0.115
-0.04
-0.09
-0.12
-0.18
-0.25
-0.19
-0.135
-0.05
0.095
-0.075
0.155
0.105
-0.085
-0.14
-0.21
-0.11
-0.085
0.055
0.075
0.075
0.115
-0.13
-0.075
-0.125
-0.185
-0.175
-0.075
0.02
0.115
0.12
0.085
0.06
-0.155
-0.51
-0.175
-0.16
-0.045
-0.09
0.075
0.065
-0.01
-0.155
-0.195
-0.18
-0.23
-0.215
-0.04
0.015
0.005
0.065
-0.04
-0.185
-0.095
-0.15
-0.285
-0.145
-0.07
-0.01
0.025
0.12
0.135
0.075
0.235
0.35
0.62
0.725
0.735
0.72
0.755
0.71
0.635
0.585
0.43
0.18
0.13
0.08
-0.02
-0.1
-0.015
-0.005
-0.16
-0.15
-0.225
-0.24
-0.12
-0.14
-0.095
0.035
0.08
0.045
0.005
-0.175
-0.275
-0.13
-0.18
0.015
-0.07
0.015
0.045
-0.08
-0.095
0.055
-0.155
-0.18
-0.21
-0.11
0.005
0.065
0.055
0.185
-0.005
-0.16
-0.195
-0.305
-0.21
-0.115
-0.01
0.065
-0.025
0.02
-0.035
-0.08
-0.09
-0.16
-0.08
-0.105
-0.03
0.015
0.05
0.015
-0.015
0.04
-0.13
-0.225
-0.055
-0.025
-0.125
0.13
0.05
0.025
-0.025
-0.005
-0.12
-0.165
-0.145
0.015
0.0
0.095
0.195
0.15
-0.025
0.0
-0.02
-0.205
0.025
0.015
0.165
0.23
0.16
0.08
-0.1
0.015
-0.005
-0.085
0.165
0.145
0.09
0.1
0.185
0.25
0.17
0.14
0.045
-0.045
-0.035
0.145
0.17
0.25
0.265
0.225
0.2
0.025
-0.03
0.015
0.145
0.16
0.16
0.255
0.28
0.175
0.02
0.055
-0.01
0.005
-0.115
-0.03
0.12
0.165
0.145
0.025
-0.03
-0.065
-0.15
-0.145
-0.08
0.05
0.02
-0.01
0.07
0.045
-0.035
-0.17
-0.14
-0.155
-0.165
-0.09
0.04
-0.005
-0.09
0.005
-0.055
-0.145
-0.225
-0.12
0.03
-0.035
0.065
-0.035
-0.015
-0.125
-0.165
-0.18
-0.105
-0.185
-0.055
0.02
0.045
0.0
0.0
-0.045
-0.06
-0.05
-0.19
-0.24
-0.1
-0.085
0.095
0.04
-0.01
-0.12
-0.115
-0.115
-0.18
-0.125
-0.09
-0.14
-0.05
0.14
0.105
-0.11
-0.085
-0.23
-0.165
-0.155
-0.045
-0.02
0.125
0.055
-0.07
-0.08
-0.16
-0.18
-0.195
-0.195
-0.04
0.03
0.095
0.025
0.09
-0.035
-0.015
-0.145
-0.27
-0.15
-0.07
-0.02
0.115
-0.005
-0.015
-0.13
-0.14
-0.195
-0.15
-0.07
-0.025
-0.05
-0.01
0.04
0.06
0.01
-0.15
-0.21
-0.205
-0.155
0.04
-0.02
0.08
0.01
-0.04
-0.065
-0.175
-0.15
-0.105
-0.055
-0.14
-0.04
0.07
0.05
0.035
-0.03
-0.24
-0.155
-0.135
-0.115
-0.15
-0.02
0.135
0.06
-0.045
-0.01
-0.04
-0.245
-0.215
-0.125
0.04
0.06
0.12
0.115
0.03
-0.075
-0.055
-0.1
-0.135
-0.045
-0.1
0.01
0.17
0.155
-0.11
-0.12
-0.135
-0.025
-0.075
-0.185
-0.09
-0.015
-0.005
0.015
-0.05
-0.08
-0.16
-0.17
-0.19
-0.07
-0.045
0.01
0.05
0.08
-0.095
-0.15
-0.21
-0.195
-0.245
-0.105
0.035
0.0
0.055
0.035
-0.065
-0.12
-0.39
-0.18
-0.19
0.045
0.25
0.52
0.63
0.69
0.61
0.56
0.49
0.475
0.44
0.55
0.495
0.57
0.465
0.405
0.015
-0.245
-0.345
-0.195
-0.245
-0.165
-0.08
0.095
0.015
-0.025
-0.035
-0.175
-0.265
-0.22
-0.135
-0.07
-0.065
0.065
-0.035
0.0
-0.035
-0.065
-0.195
-0.2
-0.165
0.045
-0.015
-0.02
0.08
0.04
-0.065
-0.14
-0.145
-0.14
-0.11
-0.125
0.01
0.055
0.105
0.02
-0.085
-0.1
-0.285
-0.19
-0.07
-0.015
0.05
0.12
0.125
0.045
-0.07
-0.125
-0.235
-0.175
-0.13
-0.125
0.135
0.085
0.045
0.0
-0.02
-0.075
-0.18
-0.075
0.01
0.025
0.12
0.18
0.025
-0.04
-0.025
-0.09
-0.125
-0.095
-0.065
0.145
0.115
0.12
0.17
0.105
-0.065
-0.04
-0.045
-0.065
0.09
0.125
0.175
0.245
0.265
0.12
-0.01
-0.045
-0.025
0.125
0.17
0.105
0.215
0.315
0.34
0.215
0.085
-0.09
-0.03
0.09
0.135
0.185
0.28
0.32
0.305
0.235
0.185
-0.035
-0.025
0.105
0.105
0.12
0.175
0.23
0.185
0.065
0.045
0.0
-0.06
-0.18
-0.135
-0.015
0.15
0.09
0.11
-0.01
-0.005
-0.17
-0.175
-0.175
-0.085
0.01
0.065
0.03
-0.015
-0.04
-0.205
-0.175
-0.09
-0.245
-0.015
-0.045
0.0
0.11
0.065
-0.095
-0.225
-0.235
-0.2
-0.19
-0.09
-0.025
0.16
0.015
-0.005
-0.045
-0.15
-0.255
-0.27
-0.215
-0.095
0.025
-0.02
0.04
0.11
-0.085
-0.105
-0.29
-0.285
-0.15
-0.09
-0.07
-0.03
0.02
0.0
-0.04
-0.195
-0.2
-0.125
-0.155
-0.08
-0.06
0.08
-0.045
0.03
0.055
-0.12
-0.16
-0.03
-0.095
-0.03
-0.05
0.095
0.045
0.035
-0.175
-0.18
-0.205
-0.205
-0.09
0.0
0.0
0.06
-0.035
0.02
-0.06
-0.115
-0.185
-0.27
-0.14
-0.02
0.0
0.085
0.04
-0.03
-0.125
-0.12
-0.175
-0.185
-0.11
-0.135
0.02
0.075
0.105
0.025
0.065
-0.11
-0.145
-0.22
-0.145
0.105
0.05
0.06
0.0
-0.115
-0.02
-0.185
-0.18
-0.225
-0.15
-0.005
0.09
0.095
0.09
-0.105
-0.165
-0.13
-0.165
-0.17
-0.1
-0.035
0.11
0.09
0.055
-0.025
-0.1
-0.18
-0.155
-0.12
-0.03
0.035
0.115
0.105
0.065
0.095
-0.065
-0.235
-0.12
-0.06
-0.115
-0.095
0.04
-0.01
0.04
-0.07
-0.105
-0.15
-0.235
-0.205
-0.1
-0.055
0.035
0.05
-0.035
-0.08
-0.095
-0.225
-0.215
-0.15
-0.07
-0.175
-0.045
0.005
-0.15
-0.185
-0.13
-0.125
0.08
0.16
0.39
0.55
0.83
0.86
0.73
0.68
0.505
0.445
0.49
0.57
0.445
0.37
0.365
-0.02
-0.095
-0.24
-0.265
-0.275
-0.17
-0.125
-0.095
-0.13
0.04
0.08
0.0
-0.11
-0.135
-0.23
-0.175
-0.135
-0.135
-0.045
0.04
0.045
0.045
-0.18
-0.21
-0.215
-0.22
-0.125
0.025
0.075
0.0
0.04
-0.075
0.02
-0.1
-0.22
-0.185
-0.02
0.03
-0.03
0.19
0.12
-0.075
-0.13
-0.165
-0.245
-0.22
-0.07
-0.04
0.01
0.145
-0.02
-0.075
-0.105
-0.08
-0.185
-0.19
-0.015
-0.045
0.06
0.14
0.045
-0.055
-0.065
-0.265
-0.195
-0.115
-0.04
-0.005
0.08
0.15
0.11
0.005
0.095
-0.075
-0.12
-0.15
-0.005
-0.025
0.12
0.135
0.11
0.09
0.065
-0.12
-0.095
-0.035
0.12
0.095
0.195
0.19
0.16
0.11
0.005
-0.005
0.125
0.015
0.04
0.145
0.28
0.285
0.29
0.195
0.16
0.035
0.02
0.055
0.13
0.155
0.235
0.195
0.135
0.025
0.085
-0.07
0.105
0.065
0.115
0.075
0.13
0.115
0.105
-0.05
-0.02
-0.045
-0.115
-0.145
-0.06
-0.01
0.105
0.065
-0.065
-0.09
-0.015
-0.29
-0.17
-0.22
0.08
0.1
0.005
-0.02
-0.06
-0.085
-0.09
-0.235
-0.245
-0.13
-0.005
-0.075
0.065
0.045
0.01
-0.06
-0.115
-0.25
-0.16
-0.21
-0.11
-0.045
0.025
0.06
-0.095
-0.22
-0.105
-0.21
-0.19
-0.16
-0.125
-0.015
0.055
0.105
-0.06
-0.125
-0.225
-0.165
-0.135
-0.16
-0.075
0.045
0.09
-0.005
-0.09
-0.19
-0.13
-0.195
-0.155
-0.09
-0.055
-0.025
0.005
0.05
-0.02
-0.09
-0.23
-0.225
-0.12
-0.085
-0.095
-0.01
0.125
0.04
-0.01
-0.065
-0.21
-0.2
-0.105
-0.21
-0.135
0.035
0.065
-0.01
-0.03
-0.06
-0.13
-0.265
-0.205
-0.11
0.01
-0.04
-0.055
0.045
0.015
-0.095
-0.17
-0.24
-0.16
-0.14
-0.165
-0.025
0.065
0.135
0.005
-0.125
-0.255
-0.26
-0.105
-0.055
-0.11
0.0
0.13
0.025
-0.04
-0.145
-0.23
-0.21
-0.14
-0.205
-0.07
0.045
0.065
0.005
-0.035
-0.15
-0.22
-0.275
-0.14
-0.035
-0.01
0.05
0.06
-0.03
0.01
-0.12
-0.215
-0.17
-0.18
-0.01
0.04
0.17
0.13
0.025
-0.035
-0.175
-0.26
-0.11
-0.04
-0.04
-0.03
0.065
0.105
-0.025
-0.045
-0.13
-0.29
-0.295
-0.22
-0.065
0.01
0.0
0.035
-0.06
-0.1
-0.11
-0.265
-0.18
-0.15
-0.135
0.01
-0.07
0.005
-0.045
-0.21
-0.205
-0.265
-0.29
-0.175
-0.055
0.03
0.18
0.31
0.38
0.475
0.51
0.54
0.51
0.59
0.765
0.725
0.71
0.75
0.73
0.41
0.295
0.025
-0.185
-0.195
-0.185
-0.26
-0.08
0.005
0.13
-0.11
-0.12
-0.185
-0.285
-0.21
-0.165
0.025
0.14
0.035
-0.065
-0.09
-0.17
-0.275
-0.23
-0.175
-0.11
0.08
0.07
0.06
-0.035
-0.23
-0.275
-0.27
-0.14
-0.045
0.06
-0.015
0.04
0.065
-0.105
-0.03
-0.14
-0.205
-0.22
-0.085
-0.085
-0.03
0.13
0.085
-0.085
-0.14
-0.25
-0.215
-0.1
0.0
-0.04
0.015
0.13
0.0
-0.025
-0.045
-0.21
-0.22
-0.195
-0.09
-0.01
0.055
0.165
0.025
0.04
-0.11
-0.095
-0.05
-0.05
-0.035
-0.045
0.025
0.095
0.075
0.04
-0.09
-0.205
-0.035
-0.08
0.065
0.105
0.15
0.105
0.15
0.135
-0.095
-0.01
0.05
-0.085
0.05
0.085
0.33
0.185
0.105
0.11
0.175
-0.015
-0.055
0.01
0.14
0.195
0.125
0.265
0.185
0.175
0.09
-0.035
-0.04
0.055
0.085
0.17
0.21
0.15
0.14
0.1
0.105
-0.135
-0.155
-0.17
0.035
0.055
0.15
0.145
0.0
-0.06
-0.175
-0.18
-0.175
-0.19
-0.1
0.14
0.11
-0.005
-0.025
0.015
-0.16
-0.275
-0.15
-0.105
-0.09
-0.155
0.045
0.065
-0.045
-0.145
-0.115
-0.175
-0.285
-0.07
-0.075
-0.065
-0.02
0.015
-0.08
-0.08
-0.275
-0.295
-0.125
-0.08
-0.09
-0.1
0.025
-0.005
-0.03
-0.05
-0.24
-0.26
-0.19
-0.055
-0.03
-0.075
0.01
0.005
0.055
-0.1
-0.21
-0.24
-0.16
-0.2
-0.145
0.165
0.105
-0.015
-0.22
-0.08
-0.115
-0.21
-0.285
-0.105
-0.035
0.17
0.09
0.035
-0.035
-0.28
-0.375
-0.16
-0.06
-0.095
0.05
0.045
-0.01
-0.04
-0.12
-0.15
-0.185
-0.205
-0.17
-0.075
-0.08
0.045
0.075
-0.015
-0.1
-0.095
-0.18
-0.23
-0.135
-0.12
-0.06
0.005
0.06
0.18
-0.195
-0.135
-0.275
-0.25
-0.07
-0.095
-0.05
0.11
0.1
-0.05
-0.15
-0.18
-0.205
-0.195
-0.19
-0.01
0.03
0.09
0.01
0.05
-0.08
-0.24
-0.23
-0.26
-0.175
-0.085
-0.02
-0.005
0.02
-0.005
-0.045
-0.145
-0.28
-0.185
-0.12
0.01
0.105
0.055
0.09
0.135
-0.095
-0.14
-0.095
-0.15
-0.12
-0.08
-0.065
0.12
0.195
0.005
-0.055
-0.215
-0.205
-0.21
-0.1
0.02
0.105
-0.01
-0.075
-0.08
-0.14
-0.2
-0.3
-0.12
-0.145
-0.15
-0.02
0.07
0.04
0.05
-0.085
-0.22
-0.255
-0.25
-0.135
-0.145
-0.04
-0.015
0.095
-0.005
-0.015
0.025
0.15
0.195
0.47
0.575
0.705
0.72
0.65
0.625
0.6
0.535
0.465
0.465
0.345
0.36
0.21
0.015
-0.105
-0.24
-0.055
-0.155
-0.285
-0.205
-0.055
-0.07
-0.015
0.115
-0.045
-0.04
-0.075
-0.21
-0.155
-0.185
-0.225
-0.06
0.165
-0.03
-0.035
0.05
-0.115
-0.26
-0.275
-0.235
-0.035
-0.09
-0.025
0.065
0.075
-0.065
-0.06
-0.225
-0.185
-0.155
-0.11
-0.085
0.095
0.055
0.065
-0.06
-0.1
-0.16
-0.23
-0.185
-0.055
-0.055
-0.045
0.115
0.065
-0.045
-0.215
-0.24
-0.26
-0.1
0.055
0.055
0.065
0.155
0.135
-0.03
-0.11
-0.31
-0.26
-0.16
0.14
0.075
0.03
0.06
-0.005
-0.045
-0.135
-0.16
-0.11
-0.1
-0.03
0.01
0.17
0.1
0.06
-0.04
-0.115
-0.18
0.07
-0.04
0.085
0.085
0.26
0.245
0.11
0.005
-0.025
0.055
0.065
0.11
0.09
0.1
0.215
0.22
0.08
0.095
-0.005
-0.185
-0.045
0.085
0.09
0.11
0.185
0.22
0.235
0.09
-0.02
-0.035
0.01
0.095
-0.015
0.055
0.19
0.135
0.02
-0.04
-0.15
-0.15
-0.1
-0.07
-0.145
0.01
0.11
0.085
-0.07
0.075
-0.13
-0.255
-0.235
-0.045
-0.12
-0.07
0.01
-0.005
-0.01
-0.085
-0.235
-0.205
-0.19
-0.085
-0.075
0.04
0.025
-0.16
-0.095
-0.04
-0.26
-0.19
-0.155
-0.185
-0.08
0.065
0.02
-0.015
-0.055
-0.075
-0.375
-0.24
-0.125
-0.17
-0.105
0.02
0.14
0.0
-0.05
-0.13
-0.275
-0.175
-0.13
-0.035
-0.045
0.135
0.11
-0.06
-0.085
-0.185
-0.345
-0.235
-0.125
-0.155
-0.07
0.12
0.13
0.025
0.03
-0.17
-0.185
-0.15
-0.15
-0.17
-0.115
0.055
0.0
0.02
-0.05
-0.1
-0.155
-0.185
-0.165
-0.03
-0.015
0.02
0.24
0.08
-0.07
-0.085
-0.345
-0.18
-0.105
-0.08
0.01
0.035
-0.015
-0.085
0.025
-0.14
-0.21
-0.24
-0.135
0.09
-0.06
0.08
-0.045
-0.105
-0.19
-0.1
-0.155
-0.185
-0.08
0.0
-0.01
0.01
0.12
0.155
-0.145
-0.165
-0.15
-0.09
-0.14
-0.03
0.04
0.01
0.045
-0.035
-0.135
-0.1
-0.2
-0.21
-0.235
-0.04
0.025
0.05
-0.06
0.0
-0.15
-0.27
-0.09
-0.045
0.035
0.02
0.105
0.075
0.075
-0.035
-0.085
-0.215
-0.245
-0.08
-0.055
-0.065
0.06
0.145
0.035
-0.11
-0.105
-0.12
-0.195
-0.15
-0.12
-0.115
-0.02
0.04
-0.14
-0.025
-0.12
-0.25
-0.215
-0.195
-0.095
-0.105
0.01
-0.025
-0.125
-0.13
-0.075
-0.13
-0.035
0.07
0.18
0.475
0.56
0.705
0.77
0.855
0.8
0.455
0.6
0.525
0.59
0.575
0.535
0.33
0.12
-0.15
-0.34
-0.245
-0.2
-0.235
-0.06
-0.04
0.09
-0.02
-0.095
0.125
-0.045
-0.065
-0.23
-0.355
-0.09
-0.045
0.02
0.105
0.005
-0.065
-0.125
-0.21
-0.345
-0.175
-0.11
-0.09
0.01
0.0
-0.045
-0.14
0.07
-0.135
-0.22
-0.105
-0.035
0.045
0.06
0.145
0.0
-0.11
-0.2
-0.27
-0.055
-0.015
-0.06
0.115
0.09
0.0
0.06
0.005
-0.1
-0.19
-0.165
0.005
-0.005
-0.03
0.09
0.1
0.04
0.05
-0.015
-0.05
-0.23
0.01
0.07
0.02
0.11
0.265
0.105
0.01
-0.145
-0.09
-0.05
-0.015
0.105
0.165
0.225
0.175
0.165
0.14
0.085
0.015
0.035
0.065
0.13
0.145
0.22
0.3
0.2
0.21
0.02
0.015
0.1
0.195
0.18
0.3
0.32
0.25
0.105
0.11
0.11
0.145
0.105
0.21
0.14
0.29
0.425
0.305
0.23
0.07
0.015
-0.01
0.125
0.135
0.11
0.325
0.26
0.22
0.155
0.085
-0.005
-0.005
-0.07
0.08
0.045
0.175
0.15
0.18
0.07
0.085
-0.185
-0.065
-0.015
0.075
-0.065
0.055
0.095
-0.02
-0.025
0.04
-0.175
-0.195
-0.18
-0.04
0.025
0.095
0.11
0.025
0.08
-0.105
-0.335
-0.115
-0.135
0.05
0.015
0.03
0.005
0.07
-0.08
-0.1
-0.115
-0.22
-0.105
0.03
-0.005
0.095
0.1
0.045
-0.095
-0.115
-0.145
-0.11
-0.06
-0.045
-0.045
0.065
0.1
-0.025
-0.075
-0.11
-0.13
-0.16
-0.065
-0.05
0.085
0.055
0.005
-0.055
-0.04
-0.035
-0.16
-0.085
-0.075
-0.22
-0.01
0.185
-0.01
0.03
-0.055
-0.085
-0.115
-0.19
-0.07
-0.065
-0.02
0.05
-0.015
-0.07
-0.115
-0.03
-0.085
-0.245
-0.165
-0.08
-0.06
0.015
0.23
0.07
-0.115
-0.2
-0.19
-0.155
-0.13
-0.055
-0.005
0.01
0.025
-0.115
-0.11
-0.205
-0.245
-0.14
0.03
0.0
-0.02
0.16
0.045
-0.01
-0.105
-0.16
-0.145
-0.185
-0.065
-0.075
0.11
0.075
0.06
-0.045
-0.03
-0.125
-0.18
-0.205
-0.05
-0.005
0.085
0.155
0.02
-0.1
-0.145
-0.26
-0.12
-0.18
-0.13
-0.08
0.055
0.01
-0.09
-0.19
-0.155
-0.205
-0.205
-0.19
-0.14
-0.085
0.1
0.12
0.07
-0.14
-0.16
-0.27
-0.18
-0.15
-0.035
-0.02
0.22
0.26
0.375
0.375
0.53
0.535
0.525
0.57
0.595
0.58
0.69
0.665
0.585
0.395
0.205
-0.07
-0.205
-0.3
-0.26
-0.195
0.02
-0.01
0.03
-0.025
-0.19
-0.215
-0.23
-0.055
-0.105
0.02
0.075
0.045
-0.04
-0.1
-0.125
-0.185
-0.225
-0.135
0.0
0.0
0.01
-0.015
-0.035
-0.13
-0.21
-0.2
-0.19
-0.18
-0.12
-0.07
0.08
0.17
0.01
-0.075
-0.135
-0.2
-0.165
-0.27
-0.115
-0.065
0.045
0.035
-0.075
-0.12
-0.15
-0.175
-0.14
-0.11
-0.005
0.04
0.07
0.015
-0.06
-0.065
-0.06
-0.145
-0.075
0.005
-0.04
0.035
0.08
0.065
-0.045
-0.085
-0.2
-0.195
-0.15
-0.065
0.0
0.11
0.185
0.12
0.05
-0.02
-0.17
-0.105
0.0
0.02
0.02
0.145
0.075
0.07
0.06
0.05
-0.07
0.0
0.07
0.15
0.2
0.235
0.22
0.19
0.145
0.035
-0.1
-0.04
0.025
0.04
0.05
0.165
0.17
0.15
0.035
-0.015
-0.135
-0.1
-0.02
0.02
0.02
0.1
0.035
0.0
-0.14
-0.07
-0.195
-0.295
-0.225
-0.055
-0.15
0.0
0.0
-0.055
-0.185
-0.215
-0.3
-0.295
-0.275
-0.245
-0.22
-0.17
-0.145
-0.17
-0.155
-0.19
-0.36
-0.34
-0.36
-0.205
-0.175
-0.105
-0.125
-0.175
-0.275
-0.26
-0.345
-0.34
-0.295
-0.175
-0.165
-0.115
-0.16
-0.21
-0.3
-0.315
-0.36
-0.32
-0.3
-0.255
-0.22
-0.185
-0.195
-0.26
-0.315
-0.4
-0.345
-0.43
-0.22
-0.165
-0.12
-0.03
-0.06
-0.14
-0.155
-0.21
-0.295
-0.275
-0.195
-0.17
-0.05
-0.035
-0.11
-0.165
-0.25
-0.315
-0.32
-0.28
-0.26
-0.3
-0.1
-0.01
-0.14
-0.225
-0.28
-0.355
-0.305
-0.23
-0.215
-0.17
-0.1
0.02
0.0
-0.175
-0.175
-0.165
-0.275
-0.295
-0.165
-0.055
0.03
0.015
-0.02
-0.09
-0.16
-0.285
-0.275
-0.285
-0.2
-0.145
-0.04
-0.04
-0.05
-0.1
-0.105
-0.255
-0.27
-0.25
-0.085
-0.065
-0.055
-0.02
0.08
-0.04
-0.1
-0.185
-0.16
-0.185
-0.1
-0.04
-0.02
-0.085
-0.065
-0.14
-0.28
-0.325
-0.155
-0.215
-0.155
-0.095
-0.045
-0.05
-0.095
-0.205
-0.215
-0.27
-0.3
-0.275
-0.08
-0.145
0.045
0.105
-0.01
-0.13
-0.235
-0.29
-0.255
-0.135
-0.17
-0.135
0.01
0.045
0.08
0.01
0.055
0.06
0.195
0.325
0.515
0.475
0.53
0.57
0.39
0.325
0.32
0.22
0.19
0.055
0.01
-0.065
-0.1
-0.23
-0.215
-0.225
-0.235
-0.335
-0.29
-0.215
-0.145
-0.14
-0.045
-0.055
-0.095
-0.145
-0.14
-0.27
-0.31
-0.195
-0.115
-0.195
-0.01
0.065
-0.04
-0.09
-0.165
-0.24
-0.18
-0.145
-0.085
-0.03
0.05
0.025
-0.06
-0.1
-0.15
-0.215
-0.135
-0.11
-0.06
0.04
0.055
0.06
0.015
-0.09
-0.185
-0.095
-0.095
0.015
0.055
0.205
0.255
0.165
0.005
-0.05
-0.12
-0.16
-0.18
-0.055
0.03
0.085
0.045
0.07
0.06
-0.05
-0.175
-0.09
0.0
0.01
0.105
0.14
0.1
0.07
-0.015
-0.05
-0.045
0.01
0.035
0.09
0.15
0.225
0.155
0.26
0.095
0.09
0.04
0.035
0.08
0.085
0.215
0.335
0.215
0.265
0.205
0.19
0.055
0.065
0.11
0.15
0.13
0.29
0.26
0.26
0.21
0.21
0.09
0.15
0.15
0.26
0.28
0.32
0.235
0.14
0.135
0.09
-0.08
-0.04
0.09
0.115
0.165
0.16
0.185
0.19
-0.01
-0.025
-0.115
-0.1
-0.115
-0.075
-0.05
-0.02
0.03
-0.01
-0.01
-0.075
-0.2
-0.18
-0.105
-0.01
0.05
0.13
0.085
0.045
-0.045
-0.11
-0.24
-0.28
-0.205
-0.185
-0.13
-0.095
-0.065
-0.055
-0.205
-0.16
-0.235
-0.23
-0.19
-0.09
-0.095
0.01
-0.045
-0.03
-0.155
-0.26
-0.285
-0.25
-0.205
-0.075
0.06
0.075
0.04
-0.06
-0.145
-0.285
-0.335
-0.21
-0.205
-0.095
-0.03
-0.01
-0.015
-0.07
-0.22
-0.31
-0.275
-0.29
-0.19
-0.165
-0.17
-0.11
-0.08
-0.16
-0.225
-0.275
-0.28
-0.225
-0.145
-0.06
-0.055
-0.055
-0.035
-0.14
-0.22
-0.32
-0.285
-0.27
-0.19
-0.18
-0.14
-0.135
-0.14
-0.22
-0.245
-0.355
-0.315
-0.31
-0.225
-0.18
-0.15
-0.23
-0.285
-0.41
-0.335
-0.53
-0.405
-0.4
-0.315
-0.29
-0.2
-0.215
-0.2
-0.32
-0.325
-0.4
-0.39
-0.435
-0.34
-0.3
-0.2
-0.205
-0.33
-0.43
-0.365
-0.475
-0.485
-0.42
-0.345
-0.34
-0.26
-0.275
-0.355
-0.455
-0.405
-0.545
-0.51
-0.49
-0.46
-0.42
-0.355
-0.335
-0.365
-0.515
-0.525
-0.575
-0.585
-0.575
-0.435
-0.4
-0.365
-0.36
-0.425
-0.505
-0.45
-0.455
-0.385
-0.21
-0.01
0.13
0.29
0.315
0.22
0.075
-0.09
-0.09
-0.02
0.04
0.045
-0.02
-0.13
-0.375
-0.55
-0.615
-0.625
-0.725
-0.655
-0.585
-0.495
-0.43
-0.335
-0.375
-0.475
-0.52
-0.525
-0.625
-0.67
-0.61
-0.44
-0.34
-0.405
-0.41
-0.465
-0.52
-0.605
-0.595
-0.61
-0.505
-0.425
-0.425
-0.4
-0.45
-0.54
-0.56
-0.66
-0.675
-0.68
-0.535
-0.475
-0.425
-0.375
-0.355
-0.465
-0.475
-0.595
-0.635
-0.65
-0.55
-0.525
-0.39
-0.32
-0.365
-0.48
-0.475
-0.615
-0.635
-0.595
-0.445
-0.445
-0.375
-0.37
-0.4
-0.385
-0.455
-0.57
-0.62
-0.49
-0.375
-0.395
-0.3
-0.26
-0.335
-0.425
-0.455
-0.58
-0.515
-0.5
-0.495
-0.445
-0.22
-0.26
-0.31
-0.355
-0.38
-0.445
-0.365
-0.325
-0.31
-0.18
-0.185
-0.345
-0.3
-0.05
-0.045
-0.655
-0.72
-0.325
-0.24
-0.24
-0.14
-0.15
-0.17
-0.225
-0.245
-0.32
-0.32
-0.3
-0.215
-0.135
-0.055
-0.08
-0.17
-0.25
-0.34
-0.475
-0.44
-0.405
-0.23
-0.285
-0.16
-0.075
-0.22
-0.36
-0.36
-0.43
-0.445
-0.435
-0.23
-0.215
-0.325
-0.39
-0.24
-0.42
-0.51
-0.565
-0.605
-0.54
-0.51
-0.455
-0.295
-0.225
-0.38
-0.4
-0.405
-0.515
-0.495
-0.475
-0.435
-0.33
-0.305
-0.225
-0.27
-0.35
-0.355
-0.49
-0.37
-0.195
-0.235
-0.24
-0.2
-0.185
-0.385
-0.505
-0.445
-0.52
-0.46
-0.39
-0.35
-0.335
-0.22
-0.26
-0.32
-0.39
-0.495
-0.495
-0.47
-0.375
-0.35
-0.275
-0.305
-0.23
-0.32
-0.405
-0.37
-0.445
-0.455
-0.255
-0.41
-0.27
-0.23
-0.2
-0.305
-0.34
-0.535
-0.525
-0.53
-0.345
-0.275
-0.255
-0.195
-0.245
-0.28
-0.32
-0.405
-0.375
-0.345
-0.335
-0.28
-0.185
-0.34
-0.36
-0.37
-0.24
-0.455
-0.42
-0.325
-0.27
-0.26
-0.16
-0.205
-0.255
-0.345
-0.3
-0.38
-0.345
-0.255
-0.275
-0.275
-0.21
-0.21
-0.16
-0.265
-0.25
-0.39
-0.36
-0.27
-0.225
-0.26
-0.205
-0.035
-0.145
-0.37
-0.37
-0.305
-0.375
-0.345
-0.24
-0.245
-0.14
-0.17
-0.14
-0.32
-0.405
-0.42
-0.395
-0.38
-0.31
-0.295
-0.155
-0.24
-0.35
-0.265
-0.255
-0.39
-0.43
-0.395
-0.24
-0.195
-0.22
-0.3
-0.27
-0.29
-0.425
-0.47
-0.48
-0.425
-0.28
-0.22
0.03
0.06
-0.065
0.07
0.24
0.195
0.245
0.38
0.295
0.335
0.42
0.335
0.25
0.265
-0.075
-0.285
-0.395
-0.52
-0.41
-0.4
-0.3
-0.305
-0.32
-0.37
-0.48
-0.475
-0.51
-0.445
-0.325
-0.29
-0.285
-0.365
-0.305
-0.285
-0.36
-0.535
-0.56
-0.37
-0.32
-0.43
-0.2
-0.135
-0.385
-0.37
-0.52
-0.435
-0.465
-0.495
-0.4
-0.285
-0.25
-0.215
-0.285
-0.335
-0.44
-0.36
-0.265
-0.345
-0.285
-0.08
-0.18
-0.28
-0.24
-0.32
-0.405
-0.44
-0.34
-0.18
-0.13
-0.135
-0.13
-0.165
-0.205
-0.225
-0.23
-0.43
-0.33
-0.27
-0.21
-0.1
-0.09
-0.175
-0.23
-0.19
-0.295
-0.265
-0.13
-0.19
-0.205
0.01
-0.02
-0.125
-0.195
-0.2
-0.21
-0.28
-0.21
-0.075
-0.06
0.045
0.015
0.025
-0.05
-0.135
-0.14
-0.3
-0.165
0.0
-0.005
0.07
0.1
0.045
-0.11
-0.005
-0.14
-0.13
-0.08
0.0
-0.025
0.12
0.01
0.01
-0.11
-0.045
-0.145
-0.205
-0.17
-0.09
-0.06
0.005
-0.03
0.025
-0.125
-0.195
-0.315
-0.195
0.055
-0.015
-0.1
-0.08
-0.125
-0.07
-0.23
-0.335
-0.4
-0.34
-0.28
-0.115
-0.06
-0.095
-0.085
-0.11
-0.19
-0.35
-0.415
-0.3
-0.36
-0.1
-0.11
-0.15
-0.095
-0.165
-0.24
-0.315
-0.375
-0.45
-0.31
-0.22
-0.14
-0.085
-0.175
-0.22
-0.24
-0.345
-0.38
-0.405
-0.275
-0.21
-0.15
-0.19
-0.18
-0.13
-0.14
-0.32
-0.39
-0.24
-0.15
-0.22
-0.125
0.025
-0.16
-0.28
-0.345
-0.425
-0.375
-0.235
-0.135
-0.155
-0.12
-0.095
-0.085
-0.255
-0.235
-0.34
-0.355
-0.31
-0.28
-0.23
-0.115
-0.095
-0.175
-0.24
-0.24
-0.385
-0.41
-0.285
-0.22
-0.185
0.055
-0.105
-0.195
-0.265
-0.22
-0.34
-0.34
-0.275
-0.18
-0.165
-0.05
-0.12
-0.16
-0.21
-0.25
-0.36
-0.425
-0.345
-0.245
-0.15
-0.09
-0.13
-0.14
-0.255
-0.32
-0.335
-0.335
-0.29
-0.19
-0.17
-0.095
-0.115
-0.11
-0.26
-0.26
-0.275
-0.34
-0.315
-0.23
-0.18
-0.045
-0.045
-0.155
-0.23
-0.21
-0.38
-0.32
-0.24
-0.155
-0.075
0.02
-0.17
-0.205
-0.21
-0.31
-0.45
-0.445
-0.31
-0.19
-0.13
-0.13
-0.16
-0.21
-0.26
-0.285
-0.325
-0.355
-0.26
-0.24
-0.165
-0.02
-0.07
-0.125
-0.05
-0.09
-0.06
0.18
0.36
0.56
0.55
0.585
0.46
0.375
0.405
0.325
0.195
0.21
0.165
0.04
-0.02
-0.13
-0.195
-0.225
-0.24
-0.295
-0.31
-0.34
-0.21
-0.035
-0.14
-0.015
-0.035
-0.065
-0.16
-0.215
-0.255
-0.195
-0.17
-0.155
0.05
0.045
-0.085
-0.13
-0.225
-0.325
-0.255
-0.285
-0.205
-0.145
0.01
0.095
-0.025
-0.16
-0.125
-0.21
-0.225
-0.17
-0.105
-0.095
0.005
0.04
-0.03
-0.15
-0.17
-0.25
-0.255
-0.2
-0.035
-0.03
0.055
0.075
0.02
-0.135
-0.01
-0.065
-0.165
-0.135
-0.085
-0.02
0.045
0.065
0.13
0.075
-0.135
-0.25
-0.22
-0.09
0.01
-0.005
0.18
0.06
0.015
-0.035
-0.04
-0.1
-0.11
-0.145
-0.01
0.025
0.115
0.19
0.105
-0.04
-0.06
-0.055
-0.055
-0.015
0.04
0.155
0.26
0.115
0.185
0.145
-0.03
0.005
0.03
0.085
0.125
0.18
0.265
0.3
0.16
0.11
0.095
0.07
0.015
0.065
0.085
0.095
0.28
0.22
0.195
0.2
0.02
-0.09
-0.065
-0.04
0.045
0.1
0.155
0.15
0.095
0.05
-0.09
-0.14
-0.09
0.03
0.085
0.065
0.165
0.185
0.045
-0.1
-0.005
-0.165
-0.18
-0.04
0.0
0.055
0.035
0.04
-0.08
-0.13
-0.145
-0.14
-0.16
-0.135
-0.085
0.075
0.155
0.115
0.02
-0.11
-0.24
-0.175
-0.21
-0.16
-0.03
0.045
0.06
0.075
-0.105
-0.12
-0.205
-0.12
-0.185
-0.085
-0.1
0.02
0.02
-0.07
-0.03
-0.065
-0.13
-0.095
-0.085
-0.075
-0.13
0.005
0.01
0.045
-0.075
-0.085
-0.145
-0.235
-0.195
-0.12
-0.09
0.015
0.035
0.01
-0.085
-0.175
-0.215
-0.18
-0.13
-0.085
-0.1
-0.02
0.045
-0.075
-0.065
-0.16
-0.22
-0.16
-0.21
-0.095
0.0
0.01
-0.05
-0.035
-0.07
-0.2
-0.18
-0.11
-0.15
-0.13
-0.075
0.125
0.095
0.005
-0.05
-0.12
-0.195
-0.135
-0.11
-0.075
-0.025
0.115
0.015
0.03
-0.05
-0.105
-0.185
-0.12
-0.1
-0.02
-0.045
0.075
0.04
-0.005
-0.055
-0.135
-0.225
-0.235
-0.125
-0.1
-0.15
0.02
0.015
0.005
-0.065
-0.135
-0.165
-0.185
-0.07
0.0
-0.015
-0.02
0.005
-0.01
-0.135
-0.2
-0.26
-0.17
-0.015
0.06
0.245
0.1
0.3
0.36
0.435
0.545
0.55
0.53
0.505
0.39
0.545
0.61
0.55
0.565
0.425
0.235
-0.03
-0.205
-0.265
-0.205
-0.035
0.025
0.02
0.0
-0.06
-0.155
-0.23
-0.19
-0.095
-0.075
0.02
0.14
0.085
-0.01
-0.085
-0.18
-0.17
-0.085
-0.09
-0.01
0.045
0.085
-0.015
-0.05
-0.115
-0.215
-0.13
-0.095
-0.1
0.02
0.12
0.16
0.05
-0.08
-0.045
-0.17
-0.145
-0.13
-0.055
0.09
0.14
0.1
0.05
-0.04
-0.085
-0.03
-0.08
-0.07
0.03
0.095
0.125
0.21
0.02
-0.04
0.0
-0.095
-0.185
-0.06
0.095
0.125
0.17
0.13
0.0
0.015
0.025
-0.205
-0.135
0.01
0.035
0.125
0.185
0.125
0.155
0.01
0.025
-0.075
0.025
0.035
0.11
0.08
0.235
0.305
0.185
0.09
0.135
0.085
0.075
0.12
0.24
0.325
0.23
0.235
0.42
0.245
0.08
0.01
0.065
0.085
0.22
0.245
0.32
0.235
0.21
0.115
0.13
0.115
0.06
0.045
0.15
0.23
0.235
0.15
0.165
0.08
0.045
-0.035
-0.08
0.085
0.1
0.13
0.195
0.155
0.075
0.01
-0.02
-0.025
-0.095
0.06
0.045
0.15
0.16
0.1
0.02
-0.015
-0.03
-0.08
-0.105
-0.005
-0.025
0.12
0.145
0.065
-0.04
-0.07
-0.085
-0.23
-0.15
0.045
0.055
0.07
0.095
0.095
0.07
0.025
-0.13
-0.235
-0.155
0.04
0.045
0.14
0.17
0.09
0.035
0.02
-0.085
-0.075
-0.04
0.02
0.07
0.115
0.215
0.115
0.05
-0.015
-0.15
-0.1
-0.025
-0.045
0.025
0.21
0.18
0.105
-0.06
-0.095
-0.085
-0.05
-0.05
0.105
0.055
0.16
0.08
0.05
-0.05
-0.06
-0.12
-0.12
-0.06
0.01
0.07
0.115
0.135
0.07
0.025
-0.025
-0.14
-0.115
-0.05
0.025
0.05
0.16
0.125
0.05
0.0
-0.005
-0.1
-0.01
0.005
0.01
0.06
0.17
0.135
0.105
-0.005
-0.02
-0.08
-0.075
-0.005
0.14
0.155
0.3
0.18
0.14
-0.015
-0.06
-0.11
-0.06
-0.015
0.08
0.155
0.24
0.11
0.09
-0.075
-0.02
-0.095
-0.12
-0.08
0.0
-0.025
0.085
0.13
0.01
-0.055
-0.055
-0.135
-0.12
-0.14
-0.065
0.03
0.08
0.075
0.085
-0.03
-0.155
-0.17
-0.12
-0.005
0.375
0.545
0.695
0.76
0.82
0.695
0.595
0.43
0.465
0.59
0.625
0.67
0.565
0.38
0.18
-0.02
-0.165
-0.22
-0.175
-0.065
0.05
0.09
0.11
0.075
0.055
0.005
-0.045
-0.16
-0.095
0.03
0.09
0.035
0.04
-0.005
-0.01
-0.055
-0.155
-0.21
-0.15
0.0
0.05
0.05
-0.055
-0.025
0.08
-0.025
-0.11
-0.08
-0.09
-0.02
0.0
0.07
0.1
0.11
0.05
-0.015
-0.18
-0.14
0.025
0.03
0.115
0.19
0.165
0.055
-0.13
-0.185
-0.185
-0.065
0.06
0.04
0.09
0.15
0.05
0.025
-0.02
-0.085
-0.13
-0.04
-0.04
0.035
0.11
0.185
0.11
0.08
0.02
-0.05
-0.175
-0.095
-0.025
0.04
0.135
0.175
0.23
0.145
0.075
0.0
-0.085
-0.005
-0.095
0.1
0.135
0.235
0.255
0.235
0.135
0.085
0.07
-0.01
0.0
0.11
0.37
0.23
0.28
0.18
0.05
0.1
0.06
-0.105
0.1
0.085
0.195
0.285
0.21
0.135
0.09
0.02
-0.085
-0.065
0.03
0.11
0.085
0.105
0.18
0.01
-0.065
-0.095
-0.19
-0.07
0.005
0.035
0.055
0.125
0.05
-0.035
-0.16
-0.16
-0.025
-0.155
-0.26
-0.04
-0.02
0.04
-0.005
-0.08
-0.145
-0.28
-0.22
-0.165
-0.195
-0.075
0.035
0.065
0.015
-0.09
-0.165
-0.2
-0.225
-0.28
-0.15
-0.07
0.03
0.025
-0.02
-0.05
-0.16
-0.235
-0.32
-0.14
0.035
-0.06
0.07
-0.035
-0.04
-0.045
-0.105
-0.215
-0.215
-0.16
-0.13
-0.07
-0.055
0.01
0.005
-0.145
-0.085
-0.26
-0.24
-0.195
-0.04
-0.11
-0.02
0.16
0.02
-0.135
-0.105
-0.235
-0.23
-0.22
-0.18
-0.055
0.055
0.035
0.0
-0.195
-0.225
-0.415
-0.34
-0.125
-0.01
-0.045
0.015
-0.185
-0.185
-0.05
-0.085
-0.125
-0.115
-0.155
-0.085
-0.08
0.085
0.16
0.13
-0.17
-0.155
-0.24
-0.175
-0.13
-0.04
0.005
0.04
0.07
0.02
-0.1
-0.095
-0.255
-0.225
-0.155
-0.11
-0.05
0.025
-0.025
0.04
-0.14
-0.175
-0.31
-0.275
-0.18
-0.075
-0.055
-0.05
-0.035
-0.15
-0.275
-0.12
-0.175
-0.18
-0.085
-0.1
0.035
0.025
-0.03
-0.07
-0.205
-0.215
-0.24
-0.13
-0.065
0.005
0.155
0.315
0.565
0.495
0.52
0.505
0.3
0.24
0.39
0.53
0.525
0.445
0.3
0.15
-0.05
-0.315
-0.41
-0.385
-0.23
-0.175
-0.07
0.05
-0.035
-0.135
-0.155
-0.205
-0.315
-0.39
-0.275
-0.145
0.13
0.1
0.01
-0.035
-0.21
-0.29
-0.28
-0.16
-0.065
-0.08
-0.01
0.04
0.025
-0.095
-0.13
-0.155
-0.08
-0.08
-0.235
-0.09
0.06
0.01
0.105
-0.09
-0.09
-0.215
-0.16
-0.145
-0.055
-0.05
-0.025
-0.075
-0.05
-0.025
-0.025
-0.21
-0.27
-0.19
-0.025
0.02
0.085
0.04
0.04
-0.055
-0.11
-0.185
-0.145
-0.155
-0.035
-0.035
0.045
0.09
0.125
0.015
-0.185
-0.21
-0.05
-0.115
0.0
0.1
0.095
0.05
0.095
0.02
-0.015
-0.075
-0.065
-0.035
0.13
0.18
0.205
0.155
0.155
0.05
0.015
-0.03
-0.025
0.01
0.19
0.305
0.215
0.26
0.12
0.125
0.05
-0.07
-0.025
0.125
0.11
0.14
0.225
0.205
0.17
0.055
-0.015
-0.105
0.0
0.045
0.075
0.09
0.085
0.08
0.115
-0.015
-0.07
-0.1
-0.145
-0.125
-0.02
0.045
0.06
0.035
-0.04
-0.11
-0.14
-0.12
-0.145
-0.11
-0.19
-0.065
-0.06
0.03
-0.105
-0.04
-0.19
-0.225
-0.08
-0.11
-0.125
-0.07
0.035
-0.105
-0.14
-0.105
-0.255
-0.22
-0.23
-0.21
-0.125
-0.005
-0.07
0.01
-0.085
-0.195
-0.185
-0.135
-0.125
-0.09
-0.065
0.005
0.035
0.02
-0.085
-0.125
-0.245
-0.26
-0.175
-0.08
-0.105
0.03
0.11
0.005
0.01
-0.09
-0.265
-0.35
-0.295
-0.12
-0.075
0.1
0.07
0.04
-0.065
-0.115
-0.2
-0.16
-0.24
-0.15
-0.15
-0.01
0.005
0.04
0.05
-0.115
-0.165
-0.17
-0.195
-0.125
-0.09
0.115
0.01
0.03
-0.175
-0.095
-0.175
-0.345
-0.24
0.005
0.115
0.125
-0.015
-0.01
0.01
-0.075
-0.185
-0.185
-0.1
0.02
0.02
0.085
0.06
0.01
-0.085
-0.1
-0.15
-0.16
-0.115
-0.02
-0.01
0.155
0.06
-0.015
-0.08
-0.12
-0.185
-0.19
-0.185
-0.075
-0.095
-0.105
-0.115
0.015
-0.04
-0.14
-0.33
-0.36
-0.085
0.03
0.095
-0.05
-0.01
-0.045
-0.135
-0.1
-0.275
-0.37
-0.21
-0.05
0.06
0.015
-0.075
-0.025
-0.085
-0.195
-0.035
0.125
0.26
0.54
0.715
0.68
0.73
0.6
0.475
0.445
0.44
0.365
0.385
0.29
0.175
0.13
-0.13
-0.305
-0.29
-0.22
-0.115
-0.34
-0.14
-0.155
-0.085
-0.055
0.015
-0.015
-0.21
-0.25
-0.275
-0.18
-0.165
-0.11
-0.02
-0.05
-0.005
-0.145
-0.245
-0.29
-0.25
-0.345
-0.115
-0.01
0.035
0.04
-0.02
-0.135
-0.15
-0.285
-0.265
-0.195
-0.115
-0.085
0.09
0.02
0.02
-0.21
-0.135
-0.15
-0.095
-0.175
-0.075
-0.025
0.125
0.02
-0.105
0.025
0.005
-0.16
-0.175
-0.095
-0.025
-0.13
0.085
0.055
0.1
-0.055
-0.025
-0.13
-0.03
-0.01
-0.025
0.07
0.22
0.14
0.065
0.04
-0.02
-0.135
-0.125
0.025
0.12
0.165
0.235
0.235
0.285
0.1
0.045
0.04
-0.045
0.07
0.085
0.01
0.195
0.35
0.315
0.3
0.185
0.06
0.075
0.145
0.17
0.2
0.255
0.34
0.24
0.135
0.095
0.16
0.01
0.175
0.42
0.22
0.225
0.25
0.17
0.14
0.06
-0.055
0.21
0.145
0.065
0.1
0.165
0.175
0.075
0.005
-0.045
-0.105
-0.045
-0.02
-0.005
0.055
0.165
0.135
-0.04
-0.03
-0.085
-0.165
-0.045
-0.005
-0.05
0.05
0.14
0.025
-0.14
-0.05
-0.11
-0.135
-0.13
-0.02
0.05
0.07
0.135
0.125
0.005
-0.02
-0.135
-0.075
-0.11
-0.035
-0.005
-0.095
-0.005
0.125
-0.015
-0.105
-0.155
-0.145
-0.055
-0.07
-0.03
0.06
0.015
0.135
0.035
-0.095
-0.255
-0.225
-0.02
0.125
0.055
0.05
0.055
0.03
-0.085
-0.1
-0.145
-0.125
-0.075
-0.025
0.04
0.12
0.085
0.02
-0.065
-0.06
-0.22
-0.145
-0.17
-0.07
-0.025
0.155
0.095
0.065
-0.03
-0.035
-0.1
-0.105
-0.115
-0.09
-0.075
0.01
0.145
0.095
0.0
-0.045
-0.13
-0.17
-0.09
0.02
-0.02
0.08
-0.025
0.045
-0.05
0.01
-0.075
-0.095
-0.015
0.19
0.035
0.1
0.085
-0.03
0.01
-0.065
-0.16
-0.14
-0.05
-0.015
0.04
0.075
0.265
0.085
-0.18
-0.17
-0.17
-0.2
-0.16
-0.07
0.02
0.085
0.05
-0.045
-0.075
-0.11
-0.2
-0.18
-0.1
-0.1
0.015
0.085
0.055
-0.02
-0.19
-0.215
-0.1
-0.105
-0.04
0.01
0.285
0.41
0.51
0.55
0.61
0.49
0.515
0.445
0.48
0.63
0.67
0.7
0.585
0.42
0.165
-0.11
-0.245
-0.315
-0.18
-0.005
0.095
0.12
0.07
-0.065
-0.135
-0.1
-0.175
-0.2
-0.04
-0.04
0.06
0.11
0.015
-0.085
-0.085
-0.17
-0.095
-0.195
0.02
-0.01
0.04
0.06
0.03
-0.055
-0.125
-0.205
-0.235
-0.24
-0.095
-0.02
0.08
0.005
0.02
-0.015
-0.09
-0.205
-0.1
-0.12
-0.15
-0.015
0.13
0.07
0.075
0.045
-0.01
-0.175
-0.21
-0.17
0.075
0.09
0.155
0.1
0.095
0.005
-0.015
-0.08
-0.125
-0.11
0.105
0.065
0.14
0.025
0.03
0.075
0.02
-0.07
-0.095
-0.055
0.005
0.055
0.155
0.105
0.105
0.08
0.02
-0.055
-0.05
0.035
0.07
0.07
0.2
0.205
0.2
0.08
-0.005
-0.06
0.04
0.095
0.105
0.14
0.255
0.295
0.165
0.085
0.02
-0.02
-0.025
0.1
0.2
0.26
0.25
0.16
0.17
0.195
0.1
-0.05
-0.06
0.035
0.145
0.185
0.09
0.195
0.225
0.09
0.045
-0.05
-0.11
-0.095
0.025
0.085
0.14
0.055
-0.105
-0.02
-0.135
-0.17
-0.07
-0.01
-0.06
0.15
0.115
-0.01
-0.06
-0.06
-0.155
-0.08
-0.145
-0.065
-0.07
0.05
0.08
0.07
-0.01
-0.03
-0.18
-0.145
-0.085
-0.155
-0.095
0.06
0.185
0.165
0.005
-0.105
-0.295
-0.08
-0.035
0.015
0.06
0.06
0.145
0.055
-0.02
-0.14
-0.15
-0.01
0.07
0.015
-0.025
0.095
0.075
0.07
-0.035
-0.035
-0.105
-0.085
-0.11
0.005
0.125
0.15
0.225
0.16
0.05
-0.075
-0.185
-0.15
-0.065
0.0
0.02
0.125
0.18
0.06
0.025
-0.055
-0.135
-0.06
-0.045
-0.02
0.01
0.2
0.205
0.055
-0.005
-0.005
-0.045
-0.065
-0.005
0.035
0.095
0.06
0.155
0.115
0.105
-0.085
-0.225
-0.055
0.04
0.055
0.075
0.255
0.21
0.105
0.1
-0.04
-0.125
-0.095
0.025
0.085
0.15
0.255
0.2
0.13
0.05
0.015
-0.01
-0.02
0.05
0.075
0.1
0.21
0.225
0.135
0.035
-0.075
-0.065
-0.135
-0.06
0.07
0.21
0.19
0.125
0.12
-0.005
-0.06
-0.13
-0.16
0.075
0.095
0.175
0.2
0.165
0.005
0.04
0.0
-0.1
-0.015
0.155
0.14
0.32
0.46
0.57
0.755
0.69
0.735
0.71
0.635
0.63
0.71
0.73
0.8
0.715
0.545
0.365
0.065
-0.065
-0.045
0.02
0.055
0.13
0.105
0.11
0.005
0.14
0.025
-0.02
0.055
0.06
0.09
0.185
0.205
0.205
0.135
0.05
0.01
0.085
-0.015
0.07
0.0
0.17
0.225
0.135
0.065
0.135
-0.075
-0.05
0.12
0.2
0.185
0.275
0.225
0.165
0.13
0.03
-0.055
-0.065
-0.035
0.19
0.21
0.185
0.08
0.17
0.13
0.105
-0.025
-0.02
0.07
0.135
0.135
0.31
0.295
0.085
0.11
0.145
0.06
0.01
0.045
0.135
0.215
0.32
0.285
0.15
0.07
0.165
0.12
0.145
0.07
0.2
0.27
0.32
0.31
0.26
0.095
0.13
0.06
0.135
0.14
0.365
0.335
0.4
0.47
0.31
0.19
0.2
0.27
0.22
0.245
0.285
0.315
0.41
0.455
0.295
0.235
0.215
0.25
0.28
0.26
0.365
0.42
0.415
0.37
0.315
0.22
0.205
0.115
0.07
0.185
0.365
0.32
0.395
0.39
0.27
0.22
0.135
0.07
0.115
0.22
0.255
0.29
0.33
0.32
0.15
0.085
0.055
0.08
0.035
0.1
0.15
0.305
0.3
0.34
0.19
-0.05
-0.09
-0.01
0.075
0.12
0.145
0.2
0.215
0.18
0.115
0.135
-0.01
0.02
0.015
0.115
0.13
0.195
0.23
0.205
0.185
0.175
-0.075
-0.04
0.02
0.145
0.105
0.23
0.255
0.21
0.135
0.105
0.03
0.08
0.15
0.165
0.2
0.24
0.21
0.23
0.165
0.15
-0.015
0.05
0.07
0.18
0.165
0.255
0.275
0.215
0.135
0.155
0.045
0.095
0.13
0.075
0.11
0.27
0.245
0.25
0.185
0.125
0.025
-0.025
0.095
0.16
0.18
0.27
0.285
0.215
0.1
0.125
0.045
0.01
-0.015
0.13
0.17
0.235
0.33
0.19
0.11
0.095
-0.03
-0.01
0.09
0.13
0.165
0.265
0.25
0.22
0.135
0.1
0.035
0.03
0.115
0.21
0.145
0.235
0.3
0.15
0.27
0.12
0.045
0.105
0.03
0.105
0.135
0.275
0.24
0.09
0.085
0.03
-0.085
-0.005
0.05
0.105
0.11
0.17
0.155
0.095
0.06
-0.045
-0.05
-0.115
0.05
0.195
0.22
0.23
0.195
0.1
0.065
-0.015
-0.05
-0.045
0.015
0.135
0.315
0.43
0.41
0.485
0.72
0.71
0.76
0.825
0.825
0.75
0.845
0.895
0.88
0.77
0.515
0.26
0.07
0.06
-0.01
0.065
0.155
0.115
0.13
0.035
0.075
0.02
0.095
0.11
0.085
0.075
0.19
0.285
0.27
0.155
0.145
0.055
0.08
0.055
0.12
0.2
0.34
0.25
0.175
0.185
0.155
0.08
-0.095
0.025
0.185
0.28
0.35
0.355
0.265
0.245
0.055
0.08
0.11
0.065
0.195
0.24
0.395
0.335
0.25
0.105
0.105
0.01
0.12
0.07
0.175
0.295
0.285
0.32
0.275
0.155
0.075
0.065
0.055
0.135
0.155
0.175
0.28
0.35
0.07
-0.045
0.07
0.095
0.125
0.08
0.225
0.32
0.37
0.37
0.27
0.18
0.125
0.105
0.125
0.275
0.255
0.195
0.37
0.395
0.375
0.285
0.24
0.14
0.215
0.295
0.275
0.385
0.42
0.38
0.265
0.25
0.195
0.235
0.165
0.28
0.235
0.365
0.36
0.39
0.33
0.235
0.13
0.08
0.04
0.19
0.25
0.245
0.355
0.35
0.315
0.24
0.085
0.03
0.075
0.215
0.185
0.21
0.205
0.27
0.19
0.07
-0.025
0.0
0.08
0.09
0.135
0.22
0.235
0.165
0.075
0.075
-0.035
-0.05
-0.03
0.115
0.165
0.23
0.165
0.205
0.21
0.075
-0.11
-0.015
0.04
0.075
0.1
0.17
0.23
0.275
0.11
0.03
-0.04
0.03
0.015
0.06
0.08
0.205
0.24
0.185
0.125
-0.05
-0.045
-0.005
-0.025
0.135
0.2
0.2
0.2
0.155
0.045
0.02
-0.085
-0.115
-0.03
0.13
0.1
0.225
0.305
0.14
0.06
0.04
-0.045
-0.035
-0.02
0.14
0.25
0.13
0.14
0.13
0.075
0.005
-0.025
-0.02
0.035
0.1
0.09
0.205
0.145
0.085
0.035
0.03
0.015
0.03
-0.04
0.035
0.24
0.305
0.13
0.11
0.105
0.02
-0.2
-0.12
0.04
0.17
0.14
0.155
0.18
0.205
0.075
0.025
-0.015
-0.025
0.075
0.075
0.315
0.225
0.245
0.2
0.015
0.0
-0.025
0.09
0.035
0.08
0.16
0.2
0.195
0.06
0.06
0.03
-0.07
-0.02
0.09
0.055
0.175
0.185
0.235
0.055
-0.035
-0.065
-0.04
0.03
0.075
0.14
0.205
0.21
0.17
0.095
0.1
0.02
-0.125
0.045
0.24
0.255
0.44
0.53
0.835
0.815
0.76
0.65
0.65
0.555
0.64
0.725
0.71
0.65
0.6
0.295
0.115
-0.11
-0.195
-0.165
-0.04
0.025
0.14
0.22
0.18
0.13
0.03
-0.045
-0.075
0.015
0.09
0.095
0.21
0.2
0.205
0.11
-0.035
-0.105
-0.015
0.04
0.135
0.075
0.255
0.185
0.165
0.075
0.05
-0.08
-0.045
0.02
0.065
0.115
0.275
0.345
0.245
0.035
0.05
-0.04
0.015
0.01
0.055
0.21
0.175
0.25
0.17
0.055
0.045
-0.02
-0.05
0.035
0.095
0.115
0.34
0.27
0.11
0.12
0.145
0.08
0.0
0.095
0.125
0.16
0.15
0.33
0.255
0.16
0.065
0.03
0.085
0.0
0.1
0.28
0.335
0.33
0.205
0.17
0.11
0.025
0.08
0.175
0.2
0.27
0.38
0.34
0.195
0.155
0.265
0.26
0.13
0.28
0.3
0.26
0.365
0.405
0.29
0.225
0.14
0.2
0.155
0.205
0.26
0.385
0.38
0.315
0.325
0.2
0.175
0.225
0.115
0.19
0.245
0.285
0.31
0.33
0.175
0.11
0.045
0.045
0.09
0.13
0.165
0.3
0.175
0.225
0.095
0.045
0.01
-0.04
0.005
0.095
0.12
0.22
0.185
0.14
0.1
0.09
-0.05
0.005
0.08
0.045
0.05
0.26
0.3
0.18
0.12
0.0
-0.15
-0.055
-0.06
-0.025
0.14
0.245
0.235
0.205
0.095
0.02
-0.08
-0.015
0.035
0.025
0.095
0.205
0.2
0.16
0.11
0.05
-0.09
-0.125
0.055
0.165
0.15
0.205
0.18
0.185
0.1
0.08
-0.11
-0.085
0.015
0.05
0.12
0.24
0.245
0.125
0.155
0.06
-0.08
-0.06
-0.07
0.095
0.005
0.2
0.42
0.26
0.01
-0.075
-0.04
-0.085
-0.035
0.085
0.1
0.2
0.16
0.1
0.06
0.0
-0.075
-0.06
0.015
0.02
0.1
0.24
0.22
0.105
0.075
0.055
-0.03
0.01
0.05
0.085
0.19
0.18
0.165
0.025
-0.015
0.075
0.045
0.02
-0.04
0.08
0.235
0.205
0.185
0.205
0.095
0.0
-0.02
0.055
0.105
0.14
0.205
0.26
0.145
0.06
0.105
-0.07
-0.105
-0.06
0.095
0.035
0.205
0.205
0.17
0.125
-0.03
-0.085
-0.06
0.005
0.02
0.04
0.17
0.155
0.26
0.04
0.05
0.01
-0.045
0.0
0.095
0.1
0.135
0.095
0.23
0.1
0.07
0.01
0.18
0.38
0.49
0.715
0.965
0.995
0.82
0.68
0.575
0.615
0.59
0.56
0.555
0.46
0.48
0.33
0.205
0.045
-0.045
-0.12
-0.02
0.005
0.04
0.14
0.125
0.135
0.29
0.125
0.055
-0.15
0.03
-0.02
0.04
0.185
0.27
0.205
0.145
0.06
-0.025
-0.03
-0.085
0.07
-0.025
0.05
0.26
0.245
0.14
0.045
0.04
0.0
0.035
0.11
0.195
0.16
0.25
0.215
0.13
0.09
0.145
0.04
0.085
0.06
0.145
0.24
0.25
0.235
0.175
0.145
0.055
0.085
0.085
0.085
0.205
0.21
0.305
0.215
0.235
0.105
-0.03
0.09
0.12
0.165
0.155
0.265
0.345
0.325
0.23
0.18
0.155
0.11
0.075
0.15
0.235
0.285
0.31
0.295
0.23
0.195
0.165
0.19
0.255
0.21
0.265
0.385
0.405
0.455
0.325
0.26
0.195
0.18
0.175
0.29
0.32
0.41
0.385
0.28
0.22
0.37
0.275
0.265
0.235
0.265
0.32
0.4
0.445
0.36
0.35
0.185
0.2
0.185
0.145
0.35
0.395
0.36
0.275
0.23
0.21
0.115
0.015
0.105
0.135
0.16
0.21
0.33
0.245
0.265
0.135
0.085
-0.025
-0.05
-0.01
0.155
0.135
0.23
0.265
0.175
0.2
0.165
-0.065
-0.065
-0.11
0.115
0.165
0.21
0.225
0.175
0.105
0.035
-0.04
0.085
0.075
0.14
0.18
0.205
0.155
0.155
0.13
0.155
-0.015
-0.01
0.105
0.12
0.08
0.17
0.185
0.145
0.07
0.05
0.03
-0.005
0.02
0.175
0.125
0.14
0.215
0.24
0.09
0.035
-0.07
0.045
0.105
0.09
0.195
0.29
0.21
0.165
0.075
0.035
-0.05
0.0
0.08
0.165
0.19
0.195
0.215
0.23
0.21
0.16
0.035
0.025
0.075
0.135
0.2
0.285
0.17
0.075
0.03
0.005
-0.13
0.03
0.185
0.12
0.195
0.24
0.16
0.02
0.11
0.09
-0.055
0.025
0.145
0.155
0.245
0.32
0.265
0.135
0.045
0.05
0.04
0.02
0.135
0.15
0.23
0.26
0.245
0.15
0.125
0.035
0.065
0.1
0.12
0.2
0.295
0.285
0.21
0.125
0.14
0.03
-0.01
0.06
0.1
0.18
0.21
0.22
0.185
0.115
0.09
-0.075
0.1
0.035
0.075
0.17
0.27
0.21
0.155
0.075
0.145
0.005
-0.1
-0.05
0.14
0.15
0.26
0.375
0.42
0.375
0.515
0.565
0.75
0.865
0.845
0.78
0.785
0.875
0.905
0.72
0.615
0.395
0.27
0.095
0.095
0.115
0.185
0.155
0.115
0.075
0.05
-0.08
-0.085
0.13
0.13
0.115
0.17
0.19
0.175
0.09
0.035
0.005
0.0
-0.04
0.1
0.14
0.175
0.14
0.185
0.13
0.045
-0.055
-0.065
0.055
0.085
0.19
0.205
0.2
0.185
0.195
0.045
-0.09
0.15
0.05
0.085
0.165
0.185
0.165
0.25
0.1
0.055
-0.02
-0.01
0.005
0.16
0.26
0.27
0.365
0.17
0.035
0.065
0.06
0.045
0.11
0.095
0.185
0.21
0.24
0.185
0.185
0.08
0.05
-0.005
0.115
0.2
0.32
0.29
0.33
0.22
0.18
0.115
0.1
0.115
0.26
0.365
0.425
0.405
0.34
0.255
0.17
0.16
0.235
0.225
0.33
0.33
0.39
0.42
0.445
0.31
0.33
0.17
0.26
0.195
0.215
0.35
0.51
0.4
0.425
0.315
0.335
0.25
0.21
0.25
0.305
0.29
0.4
0.4
0.4
0.225
0.195
0.095
0.11
0.13
0.245
0.25
0.315
0.26
0.395
0.19
0.215
0.1
-0.055
0.085
0.185
0.19
0.26
0.225
0.205
0.14
0.11
0.095
0.13
0.185
0.23
0.145
0.18
0.2
0.26
0.115
0.04
0.06
0.05
0.07
0.19
0.245
0.26
0.255
0.115
0.145
0.13
0.02
0.0
0.095
0.215
0.17
0.2
0.25
0.24
0.17
0.175
0.005
0.045
0.135
0.155
0.125
0.2
0.29
0.115
0.1
0.13
0.04
0.03
0.12
0.205
0.25
0.265
0.24
0.195
0.155
0.165
0.01
0.145
0.215
0.175
0.265
0.22
0.27
0.225
0.125
0.01
-0.02
0.065
0.125
0.15
0.205
0.21
0.295
0.155
0.115
0.065
0.085
0.0
0.065
0.155
0.27
0.175
0.21
0.15
0.15
0.04
0.04
0.1
0.16
0.09
0.17
0.305
0.23
-0.01
0.045
0.09
0.055
0.03
0.165
0.2
0.23
0.28
0.245
0.075
0.145
0.065
0.055
0.055
0.15
0.14
0.35
0.295
0.205
0.165
0.145
0.02
0.075
0.06
0.195
0.225
0.3
0.265
0.255
0.195
0.2
-0.03
0.055
0.085
0.115
0.19
0.23
0.245
0.2
0.13
0.105
-0.04
-0.045
0.095
0.09
0.215
0.32
0.185
0.195
0.085
0.05
-0.085
-0.025
-0.09
0.13
0.29
0.26
0.41
0.58
0.575
0.665
0.67
0.75
0.76
0.77
0.755
0.87
0.835
0.685
0.6
0.51
0.245
-0.01
-0.075
-0.07
0.05
0.23
0.22
0.205
0.09
0.08
0.015
0.07
0.08
0.215
0.17
0.175
0.17
0.225
0.07
0.05
-0.015
-0.015
0.105
0.14
0.125
0.23
0.15
0.095
0.055
0.135
0.0
-0.04
0.115
0.155
0.2
0.245
0.11
0.055
0.1
0.085
-0.11
-0.025
0.15
0.16
0.22
0.27
0.23
0.15
0.1
0.045
0.005
0.02
0.16
0.225
0.245
0.245
0.34
0.275
0.11
0.075
0.045
0.035
0.08
0.175
0.235
0.23
0.265
0.185
0.235
0.065
0.025
0.08
0.105
0.19
0.26
0.3
0.285
0.115
0.17
0.065
0.14
0.12
0.185
0.215
0.25
0.295
0.355
0.21
0.165
0.01
0.125
0.2
0.235
0.315
0.375
0.375
0.255
0.255
0.245
0.15
0.2
0.18
0.34
0.255
0.34
0.395
0.335
0.275
0.22
0.06
0.025
0.115
0.195
0.22
0.31
0.32
0.225
0.12
0.065
-0.015
0.065
0.065
0.13
0.135
0.285
0.155
0.11
0.15
0.08
-0.09
-0.085
0.015
0.085
0.18
0.14
0.085
0.12
0.065
0.04
-0.1
-0.16
-0.065
0.005
0.035
0.07
0.145
0.1
-0.045
-0.02
-0.035
-0.11
-0.085
-0.075
0.08
0.205
0.105
0.04
-0.015
-0.025
-0.115
-0.05
-0.095
0.04
0.085
0.18
0.045
-0.005
-0.02
-0.055
-0.08
-0.165
-0.055
0.02
0.055
0.18
0.225
0.035
-0.055
-0.055
-0.09
-0.155
-0.07
0.05
0.14
0.12
0.08
0.015
0.0
-0.105
-0.145
-0.075
-0.06
0.075
0.095
0.08
0.085
0.09
-0.07
-0.095
-0.11
-0.145
-0.15
-0.06
0.135
0.195
0.175
0.01
-0.13
-0.085
-0.135
-0.1
0.04
0.015
0.12
0.095
-0.02
-0.075
-0.015
-0.15
-0.13
-0.07
0.0
0.045
0.085
0.14
0.16
0.075
-0.065
-0.27
-0.06
0.0
-0.03
0.035
0.155
0.065
0.06
0.045
0.05
-0.115
-0.03
0.015
0.03
0.0
0.085
0.14
0.115
-0.06
-0.08
-0.2
-0.13
-0.095
-0.04
-0.085
0.085
-0.07
0.065
-0.015
-0.035
-0.225
-0.235
-0.15
-0.025
-0.035
0.075
0.13
0.035
-0.035
-0.03
-0.115
-0.145
-0.095
0.025
0.11
0.07
0.17
0.17
0.18
0.21
0.28
0.47
0.585
0.6
0.695
0.755
0.605
0.61
0.53
0.45
0.17
0.08
0.05
-0.055
-0.095
-0.065
-0.04
-0.095
-0.1
-0.225
-0.23
-0.21
-0.12
-0.09
-0.01
0.215
0.005
0.09
-0.01
-0.04
-0.18
-0.085
-0.025
-0.03
0.03
0.04
0.095
0.05
0.0
-0.08
-0.1
-0.07
-0.06
0.04
0.12
0.115
0.12
-0.005
-0.025
-0.085
-0.125
-0.11
0.005
0.025
0.115
0.16
-0.01
-0.045
-0.02
-0.05
0.0
0.025
-0.005
0.105
0.13
0.17
0.125
0.09
-0.02
0.055
-0.04
-0.1
0.055
0.13
0.17
0.2
0.125
0.0
0.04
-0.075
-0.04
0.0
0.045
0.025
0.16
0.12
0.15
0.115
0.115
-0.015
0.005
0.05
0.2
0.145
0.21
0.24
0.245
0.15
0.215
0.045
0.025
0.065
0.19
0.225
0.28
0.37
0.325
0.205
0.16
0.075
0.145
0.195
0.195
0.245
0.325
0.31
0.295
0.2
0.2
0.06
0.125
0.13
0.19
0.175
0.29
0.345
0.325
0.1
0.115
0.005
0.03
-0.005
0.145
0.045
0.195
0.19
0.14
0.04
-0.02
-0.105
-0.04
0.005
0.025
0.06
0.145
0.125
0.14
0.135
-0.065
-0.22
-0.14
-0.155
0.01
0.01
0.175
0.135
0.025
-0.025
-0.075
-0.1
-0.135
-0.075
-0.005
-0.04
0.22
0.26
-0.015
0.06
-0.035
-0.145
-0.125
-0.09
-0.05
0.11
0.14
0.17
-0.02
-0.085
-0.14
-0.09
-0.03
-0.005
0.07
0.1
0.13
0.1
0.07
0.04
-0.13
-0.08
-0.045
0.045
0.08
0.13
0.185
0.085
0.06
0.045
-0.045
-0.07
-0.1
0.01
0.1
0.14
0.14
0.18
0.08
0.03
-0.14
-0.145
-0.09
0.03
0.08
0.165
0.285
0.15
0.09
0.025
-0.08
-0.065
-0.025
-0.03
-0.02
0.125
0.09
0.07
0.08
0.025
-0.025
0.015
-0.195
-0.08
0.03
0.245
0.195
0.11
0.005
0.0
-0.17
-0.065
-0.02
0.005
0.05
0.16
0.11
0.15
0.075
0.025
-0.065
-0.075
-0.025
0.045
0.155
0.2
0.155
0.13
0.025
0.05
-0.105
-0.03
-0.02
0.04
0.1
0.175
0.14
0.095
0.065
0.025
-0.145
-0.145
-0.045
-0.005
0.07
0.24
0.1
0.015
-0.02
0.09
-0.065
-0.225
-0.125
-0.045
-0.035
0.11
0.17
0.03
-0.055
-0.075
-0.19
-0.1
0.06
0.15
0.295
0.47
0.68
0.73
0.685
0.595
0.52
0.545
0.555
0.69
0.675
0.735
0.605
0.39
0.135
-0.05
-0.265
-0.29
-0.15
-0.035
0.055
0.135
0.125
0.01
0.03
-0.04
-0.105
-0.115
-0.075
0.06
0.135
0.04
0.06
-0.01
-0.04
-0.09
-0.11
-0.135
-0.22
-0.105
0.155
0.105
0.1
0.06
0.005
-0.015
-0.155
-0.15
0.065
0.09
0.16
0.155
0.07
0.025
-0.01
-0.125
-0.15
-0.04
0.075
0.08
0.125
0.115
0.145
0.1
0.05
-0.095
-0.08
0.055
0.11
0.055
0.135
0.185
0.13
0.02
0.025
-0.055
-0.045
-0.065
0.05
0.075
0.22
0.14
0.14
0.1
0.105
-0.1
-0.045
0.0
0.07
0.08
0.23
0.21
0.135
0.17
0.11
-0.065
0.045
0.125
0.125
0.15
0.19
0.285
0.265
0.115
-0.04
-0.1
0.065
0.18
0.255
0.255
0.285
0.365
0.365
0.225
0.23
0.18
0.09
0.105
0.205
0.31
0.37
0.295
0.185
0.125
0.1
0.01
0.025
0.13
0.185
0.225
0.355
0.27
0.135
0.035
0.02
0.01
-0.075
-0.08
-0.04
0.14
0.13
0.15
0.15
-0.005
-0.08
-0.125
-0.07
-0.075
-0.04
0.095
0.16
0.12
0.035
-0.05
-0.1
-0.125
-0.155
-0.025
0.055
0.055
0.085
0.12
0.035
-0.01
-0.115
0.015
0.055
-0.065
-0.175
-0.02
0.16
0.115
0.04
0.015
-0.135
-0.16
-0.115
0.03
0.04
0.115
0.15
0.15
-0.09
-0.35
-0.105
-0.12
-0.04
-0.04
-0.005
0.055
0.07
0.11
0.04
0.07
-0.125
-0.12
-0.115
0.0
0.025
0.155
0.125
0.075
0.045
-0.015
-0.09
-0.105
-0.04
0.015
0.08
0.155
0.095
0.125
0.015
-0.035
-0.25
-0.115
0.17
-0.085
-0.03
0.09
0.045
0.04
-0.065
-0.085
-0.055
-0.06
-0.19
-0.01
0.065
0.19
0.115
0.045
-0.015
-0.01
-0.135
-0.145
0.01
0.035
0.045
0.105
0.14
0.075
-0.055
-0.06
-0.045
-0.075
-0.045
0.005
0.02
0.125
0.165
0.15
-0.035
-0.01
-0.035
-0.13
-0.07
-0.04
0.05
0.225
0.225
0.165
0.035
-0.06
-0.035
-0.07
-0.1
0.155
0.065
0.155
0.105
0.035
0.005
-0.005
-0.11
-0.12
-0.095
-0.035
-0.005
0.085
0.05
0.06
-0.045
0.02
-0.115
-0.115
-0.065
0.055
0.045
0.145
0.135
0.02
-0.115
-0.15
-0.07
-0.07
-0.06
0.025
0.115
0.3
0.375
0.465
0.585
0.65
0.66
0.58
0.655
0.66
0.735
0.795
0.725
0.565
0.385
0.18
-0.065
-0.19
-0.125
-0.045
0.02
0.055
0.05
0.06
-0.02
-0.135
-0.15
-0.035
0.025
-0.09
0.085
0.16
0.155
0.13
-0.06
-0.175
-0.18
-0.055
-0.02
0.01
0.13
0.145
0.11
-0.03
0.005
-0.08
-0.095
-0.045
0.04
0.065
0.155
0.145
0.065
-0.025
-0.05
-0.09
-0.055
-0.085
0.01
0.055
0.125
0.195
0.13
0.075
0.0
-0.09
-0.065
-0.035
0.02
0.07
0.13
0.22
0.115
0.025
0.035
-0.025
-0.005
-0.09
0.045
-0.015
0.17
0.195
-0.005
0.015
0.195
-0.085
-0.07
-0.03
0.1
0.165
0.215
0.215
0.195
0.025
0.07
-0.01
-0.05
0.06
0.075
0.205
0.25
0.26
0.21
0.11
0.18
0.215
0.21
0.04
0.205
0.25
0.33
0.275
0.205
0.165
0.195
0.045
0.015
0.09
0.095
0.16
0.34
0.3
0.26
0.185
0.17
0.02
0.035
0.115
0.195
0.27
0.34
0.235
0.165
0.155
0.0
-0.06
-0.025
0.0
0.07
0.13
0.205
0.18
0.065
0.025
-0.065
-0.08
-0.09
-0.005
0.07
0.175
0.25
0.1
-0.04
-0.095
-0.05
-0.13
-0.05
0.0
-0.03
-0.03
0.06
0.09
-0.05
0.01
-0.08
-0.115
-0.16
-0.01
0.105
0.13
0.085
0.05
-0.025
-0.055
-0.13
-0.135
-0.075
-0.02
0.025
0.12
0.11
0.065
0.0
-0.02
-0.135
-0.175
-0.145
-0.105
0.03
0.115
0.125
0.085
0.02
-0.01
-0.09
-0.13
-0.095
0.025
0.045
0.095
0.13
0.05
0.055
-0.115
-0.285
-0.15
-0.125
-0.025
-0.01
0.15
0.12
0.06
-0.04
-0.035
-0.115
-0.11
-0.095
0.01
-0.045
0.235
0.215
0.035
0.03
-0.105
-0.12
-0.095
-0.115
-0.005
0.03
0.065
0.09
0.105
0.01
-0.02
-0.135
-0.115
-0.095
-0.035
0.06
0.18
0.225
0.12
-0.11
-0.085
-0.035
-0.095
-0.19
-0.12
0.0
0.09
0.195
0.1
-0.005
-0.075
-0.2
-0.19
-0.095
0.07
0.14
0.115
0.115
0.085
0.075
-0.005
-0.05
-0.14
-0.07
0.085
0.075
0.17
0.135
-0.005
0.0
-0.045
-0.175
-0.165
-0.115
0.015
0.05
0.11
0.11
0.0
-0.055
-0.095
-0.135
-0.17
-0.115
0.17
0.09
0.025
0.115
-0.07
-0.09
-0.145
-0.085
-0.135
0.025
0.21
0.43
0.54
0.69
0.74
0.715
0.64
0.56
0.54
0.685
0.62
0.715
0.72
0.58
0.28
0.055
-0.125
-0.225
-0.205
-0.075
0.015
-0.005
0.065
0.12
0.0
-0.015
-0.055
-0.035
-0.055
-0.08
-0.005
0.105
0.155
0.165
-0.02
-0.135
-0.185
-0.145
-0.14
-0.03
0.02
0.135
0.095
0.015
-0.09
0.01
-0.13
-0.09
-0.095
0.05
0.07
0.08
0.13
0.045
0.03
-0.025
-0.1
-0.14
-0.07
0.015
-0.04
0.14
0.105
0.055
0.085
0.065
-0.095
-0.085
-0.015
0.1
0.045
0.135
0.145
0.12
-0.035
-0.065
-0.085
-0.145
-0.04
0.04
-0.035
0.1
0.15
0.135
0.055
0.025
-0.07
-0.02
-0.025
0.06
0.21
0.205
0.145
0.12
0.155
0.085
-0.02
-0.06
0.15
0.115
0.15
0.31
0.28
0.235
0.07
0.075
0.015
0.0
0.125
0.185
0.245
0.26
0.27
0.21
0.11
0.16
0.095
0.05
0.17
0.305
0.25
0.27
0.33
0.165
0.095
0.055
0.04
0.035
0.075
0.145
0.18
0.225
0.23
0.15
0.06
0.005
0.015
-0.05
-0.01
0.03
0.09
0.11
0.15
0.015
-0.01
-0.12
-0.11
-0.08
-0.075
0.0
0.04
0.225
0.19
-0.115
-0.12
-0.18
-0.16
-0.11
-0.15
-0.045
0.05
0.085
0.04
-0.025
-0.055
-0.115
-0.125
-0.14
-0.055
-0.035
0.02
0.085
0.045
-0.065
-0.07
-0.13
-0.175
-0.105
-0.08
-0.02
0.075
0.05
0.005
0.015
-0.065
-0.125
-0.14
-0.165
-0.015
0.075
0.075
0.075
0.025
-0.045
-0.105
-0.235
-0.18
-0.125
0.015
0.005
0.06
0.08
0.06
-0.05
-0.09
-0.17
-0.03
-0.125
-0.045
0.05
0.195
0.17
0.015
-0.05
-0.085
-0.185
-0.175
-0.09
0.08
-0.035
0.025
0.165
0.12
-0.005
-0.125
-0.125
-0.065
-0.08
0.02
0.04
0.14
0.17
-0.06
-0.12
-0.09
-0.2
-0.15
-0.04
-0.045
0.015
0.07
0.115
0.03
0.04
-0.08
-0.04
-0.095
-0.025
0.005
0.085
0.16
0.07
-0.04
-0.06
-0.11
-0.16
-0.12
-0.03
0.065
0.05
0.13
0.13
0.085
0.0
-0.09
-0.165
-0.15
-0.025
-0.02
0.115
0.2
0.1
-0.005
-0.01
-0.015
-0.08
-0.11
0.005
0.195
0.265
0.06
-0.005
0.02
-0.04
-0.105
-0.12
-0.07
-0.035
0.04
0.14
0.135
0.035
0.005
-0.045
-0.105
-0.1
-0.155
-0.05
-0.065
0.125
0.125
0.115
0.025
-0.085
-0.175
-0.115
-0.11
-0.055
-0.005
0.04
0.06
0.01
-0.1
-0.085
-0.09
-0.03
0.235
0.415
0.42
0.77
0.86
0.755
0.725
0.64
0.495
0.445
0.57
0.665
0.53
0.49
0.245
0.14
-0.025
-0.12
-0.21
-0.18
-0.15
-0.07
-0.03
0.095
0.11
0.085
0.03
-0.17
-0.17
-0.17
-0.05
0.005
-0.03
0.035
0.065
0.04
-0.045
-0.015
-0.17
-0.22
-0.065
0.055
0.02
0.195
0.13
0.08
-0.06
-0.065
-0.12
-0.125
-0.09
-0.105
0.01
0.155
0.15
0.095
0.045
-0.07
-0.08
0.015
-0.02
0.03
0.09
0.11
0.155
-0.005
-0.03
0.065
-0.08
-0.09
0.015
0.06
0.035
0.125
-0.03
0.005
0.1
-0.025
-0.035
-0.11
0.105
0.075
0.08
0.105
0.155
0.03
0.015
-0.08
-0.04
-0.06
0.04
0.095
0.215
0.21
0.255
0.24
0.175
0.09
0.04
0.005
0.1
0.19
0.315
0.375
0.325
0.215
0.125
0.1
0.175
0.205
0.26
0.325
0.34
0.395
0.38
0.255
0.185
0.055
0.19
0.135
0.335
0.365
0.465
0.395
0.405
0.325
0.265
0.22
0.11
0.195
0.25
0.275
0.395
0.35
0.44
0.22
0.15
0.115
0.07
0.075
0.165
0.23
0.335
0.425
0.3
0.075
0.065
-0.06
0.085
0.12
0.2
0.2
0.34
0.28
0.31
0.29
0.235
0.125
0.095
0.07
0.085
0.275
0.29
0.26
0.24
0.15
0.12
0.09
0.115
0.09
0.18
0.2
0.3
0.295
0.365
0.22
0.21
0.1
0.08
0.015
0.13
0.35
0.555
0.265
0.375
0.195
0.205
0.1
0.055
0.125
0.2
0.19
0.2
0.265
0.27
0.185
0.17
0.14
0.155
0.215
0.255
0.295
0.375
0.37
0.325
0.24
0.17
0.12
0.27
0.245
0.22
0.315
0.44
0.54
0.255
0.195
0.17
0.125
0.17
0.185
0.33
0.325
0.365
0.395
0.3
0.25
0.155
0.14
0.065
0.37
0.28
0.29
0.38
0.4
0.34
0.315
0.24
0.15
0.195
0.215
0.3
0.175
0.2
0.485
0.325
0.265
0.195
0.205
0.19
0.29
0.415
0.32
0.36
0.37
0.49
0.325
0.16
0.16
0.235
0.3
0.325
0.46
0.485
0.41
0.38
0.285
0.15
0.185
0.23
0.28
0.355
0.325
0.425
0.48
0.345
0.265
0.385
0.405
0.285
0.315
0.315
0.45
0.45
0.485
0.45
0.32
0.215
0.26
0.31
0.36
0.43
0.56
0.47
0.48
0.49
0.38
0.29
0.285
0.36
0.455
0.415
0.5
0.505
0.505
0.335
0.385
0.17
0.185
0.26
0.345
0.36
0.515
0.475
0.47
0.34
0.355
0.165
0.19
0.22
0.355
0.32
0.395
0.3
0.345
0.335
0.355
0.215
0.12
0.43
0.53
0.52
0.89
0.95
1.055
1.05
0.95
0.85
0.97
0.955
1.145
0.995
0.99
0.925
0.73
0.395
0.265
0.08
0.07
0.105
0.315
0.39
0.45
0.42
0.29
0.285
0.22
0.155
0.195
0.365
0.345
0.38
0.225
0.185
0.22
0.34
0.145
0.105
0.18
0.205
0.25
0.325
0.47
0.39
0.25
0.205
0.195
0.09
0.19
0.24
0.22
0.29
0.435
0.15
0.24
0.215
0.31
0.04
0.115
0.225
0.19
0.385
0.355
0.315
0.215
0.22
0.095
0.05
0.12
0.22
0.24
0.275
0.34
0.345
0.21
0.19
0.12
0.175
0.245
0.165
0.22
0.33
0.385
0.195
0.12
0.185
0.13
0.085
0.11
0.15
0.35
0.48
0.41
0.33
0.295
0.22
0.145
0.19
0.13
0.15
0.13
0.4
0.39
0.315
0.29
0.265
0.185
0.23
0.3
0.255
0.33
0.475
0.47
0.435
0.29
0.195
0.18
0.255
0.305
0.33
0.275
0.335
0.325
0.38
0.495
0.4
0.18
0.12
