# TIPE ECG 2021 - ECG-ID Database v1.0.0 par Physionet
# [N° de la personne, N° de l'enregistrement, Période d'échantillonnage, Prénom, Age, Sexe, Date de l'enregistrement]
[40, 1, 0.002, "Jacqueline", 21, "F", "12.05.2005"]
-0.375
-0.46
-0.365
-0.31
-0.35
-0.345
-0.38
-0.38
-0.41
-0.44
-0.48
-0.35
-0.335
-0.355
-0.385
-0.39
-0.38
-0.385
-0.375
-0.38
-0.365
-0.37
-0.37
-0.375
-0.375
-0.41
-0.405
-0.34
-0.435
-0.365
-0.37
-0.36
-0.375
-0.35
-0.415
-0.39
-0.425
-0.445
-0.41
-0.405
-0.345
-0.355
-0.34
-0.355
-0.44
-0.395
-0.375
-0.355
-0.395
-0.36
-0.375
-0.385
-0.44
-0.35
-0.36
-0.435
-0.43
-0.41
-0.355
-0.375
-0.4
-0.425
-0.44
-0.41
-0.34
-0.33
-0.34
-0.375
-0.43
-0.37
-0.38
-0.365
-0.425
-0.525
-0.485
-0.35
-0.305
-0.385
-0.345
-0.34
-0.34
-0.365
-0.365
-0.38
-0.36
-0.44
-0.375
-0.345
-0.34
-0.33
-0.415
-0.415
-0.37
-0.315
-0.37
-0.43
-0.395
-0.37
-0.395
-0.405
-0.4
-0.4
-0.405
-0.48
-0.49
-0.425
-0.46
-0.425
-0.365
-0.405
-0.41
-0.44
-0.405
-0.445
-0.455
-0.385
-0.295
-0.4
-0.39
-0.415
-0.44
-0.42
-0.44
-0.425
-0.42
-0.465
-0.47
-0.45
-0.51
-0.395
-0.41
-0.45
-0.43
-0.455
-0.435
-0.335
-0.395
-0.415
-0.39
-0.365
-0.405
-0.25
-0.085
-0.02
0.02
0.125
0.185
0.155
0.14
0.26
0.34
0.245
0.145
0.055
-0.055
-0.075
-0.155
-0.36
-0.395
-0.365
-0.405
-0.36
-0.37
-0.315
-0.365
-0.375
-0.425
-0.415
-0.43
-0.4
-0.41
-0.39
-0.405
-0.455
-0.49
-0.43
-0.42
-0.48
-0.415
-0.375
-0.42
-0.395
-0.405
-0.385
-0.425
-0.4
-0.4
-0.375
-0.445
-0.475
-0.49
-0.425
-0.425
-0.48
-0.45
-0.4
-0.375
-0.415
-0.42
-0.415
-0.46
-0.47
-0.465
-0.415
-0.445
-0.41
-0.405
-0.455
-0.365
-0.34
-0.47
-0.42
-0.37
-0.395
-0.415
-0.42
-0.455
-0.485
-0.41
-0.375
-0.385
-0.47
-0.41
-0.335
-0.445
-0.405
-0.375
-0.485
-0.435
-0.3
-0.345
-0.33
-0.29
-0.385
-0.44
-0.395
-0.335
-0.35
-0.32
-0.41
-0.385
-0.33
-0.28
-0.35
-0.36
-0.345
-0.33
-0.325
-0.29
-0.335
-0.285
-0.3
-0.25
-0.3
-0.365
-0.36
-0.315
-0.31
-0.265
-0.26
-0.265
-0.24
-0.3
-0.305
-0.36
-0.255
-0.22
-0.225
-0.29
-0.305
-0.305
-0.31
-0.3
-0.3
-0.315
-0.3
-0.375
-0.345
-0.37
-0.42
-0.425
-0.36
-0.425
-0.47
-0.485
-0.405
-0.4
-0.425
-0.415
-0.455
-0.45
-0.44
-0.445
-0.455
-0.485
-0.465
-0.46
-0.525
-0.505
-0.44
-0.435
-0.525
-0.555
-0.52
-0.485
-0.42
-0.39
-0.42
-0.495
-0.405
-0.395
-0.4
-0.43
-0.495
-0.51
-0.595
-0.49
-0.535
-0.465
-0.375
-0.47
-0.465
-0.53
-0.545
-0.54
-0.475
-0.465
-0.5
-0.535
-0.49
-0.42
-0.48
-0.54
-0.53
-0.445
-0.47
-0.445
-0.46
-0.51
-0.44
-0.475
-0.475
-0.49
-0.43
-0.44
-0.46
-0.46
-0.485
-0.565
-0.585
-0.46
-0.41
-0.435
-0.44
-0.455
-0.475
-0.475
-0.445
-0.405
-0.45
-0.49
-0.525
-0.475
-0.46
-0.445
-0.495
-0.5
-0.515
-0.525
-0.49
-0.49
-0.51
-0.475
-0.44
-0.45
-0.435
-0.45
-0.485
-0.445
-0.435
-0.5
-0.465
-0.55
-0.625
-0.485
-0.395
-0.41
-0.405
-0.49
-0.445
-0.42
-0.465
-0.42
-0.405
-0.445
-0.5
-0.47
-0.395
-0.35
-0.415
-0.47
-0.54
-0.48
-0.485
-0.495
-0.505
-0.485
-0.54
-0.555
-0.49
-0.47
-0.465
-0.435
-0.47
-0.48
-0.495
-0.545
-0.48
-0.42
-0.54
-0.4
-0.355
-0.365
-0.445
-0.435
-0.45
-0.42
-0.425
-0.48
-0.5
-0.45
-0.435
-0.505
-0.495
-0.575
-0.585
-0.43
-0.385
-0.415
-0.43
-0.485
-0.52
-0.545
-0.545
-0.415
-0.44
-0.455
-0.445
-0.47
-0.425
-0.47
-0.505
-0.54
-0.43
-0.47
-0.44
-0.41
-0.43
-0.435
-0.46
-0.4
-0.435
-0.475
-0.54
-0.54
-0.5
-0.49
-0.49
-0.46
-0.475
-0.48
-0.45
-0.455
-0.52
-0.45
-0.37
-0.46
-0.5
-0.45
-0.355
-0.405
-0.42
-0.445
-0.43
-0.4
-0.37
-0.43
-0.435
-0.475
-0.42
-0.445
-0.51
-0.56
-0.46
-0.375
-0.4
-0.41
-0.335
-0.385
-0.47
-0.4
-0.43
-0.4
-0.38
-0.345
-0.42
-0.45
-0.435
-0.445
-0.49
-0.5
-0.44
-0.45
-0.49
-0.375
-0.405
-0.425
-0.445
-0.41
-0.51
-0.425
-0.48
-0.435
-0.38
-0.43
-0.5
-0.425
-0.475
-0.52
-0.495
-0.355
-0.42
-0.465
-0.495
-0.505
-0.455
-0.435
-0.445
-0.505
-0.405
-0.355
-0.445
-0.455
-0.415
-0.47
-0.445
-0.405
-0.385
-0.36
-0.395
-0.425
-0.42
-0.445
-0.37
-0.255
-0.18
-0.125
-0.035
0.07
0.16
0.22
0.305
0.27
0.23
0.205
0.135
0.13
0.005
-0.255
-0.29
-0.225
-0.375
-0.36
-0.37
-0.38
-0.395
-0.39
-0.44
-0.42
-0.38
-0.41
-0.455
-0.48
-0.415
-0.465
-0.44
-0.44
-0.465
-0.475
-0.47
-0.44
-0.47
-0.43
-0.38
-0.395
-0.425
-0.44
-0.475
-0.43
-0.405
-0.38
-0.37
-0.4
-0.485
-0.465
-0.41
-0.38
-0.455
-0.425
-0.41
-0.4
-0.405
-0.41
-0.48
-0.45
-0.38
-0.38
-0.4
-0.425
-0.425
-0.44
-0.425
-0.4
-0.455
-0.365
-0.355
-0.375
-0.39
-0.38
-0.38
-0.47
-0.395
-0.45
-0.415
-0.375
-0.455
-0.435
-0.305
-0.345
-0.385
-0.345
-0.385
-0.385
-0.375
-0.4
-0.35
-0.36
-0.455
-0.45
-0.335
-0.31
-0.335
-0.33
-0.3
-0.35
-0.33
-0.335
-0.32
-0.245
-0.275
-0.325
-0.27
-0.27
-0.325
-0.375
-0.35
-0.26
-0.255
-0.29
-0.28
-0.23
-0.245
-0.275
-0.275
-0.28
-0.22
-0.21
-0.23
-0.28
-0.225
-0.19
-0.225
-0.265
-0.345
-0.32
-0.35
-0.36
-0.3
-0.27
-0.245
-0.31
-0.305
-0.275
-0.275
-0.34
-0.375
-0.34
-0.425
-0.375
-0.335
-0.355
-0.445
-0.475
-0.455
-0.4
-0.415
-0.3
-0.385
-0.49
-0.5
-0.42
-0.42
-0.37
-0.42
-0.445
-0.48
-0.415
-0.37
-0.42
-0.44
-0.465
-0.395
-0.4
-0.395
-0.415
-0.41
-0.4
-0.375
-0.38
-0.475
-0.415
-0.41
-0.47
-0.535
-0.52
-0.51
-0.41
-0.325
-0.355
-0.37
-0.395
-0.455
-0.49
-0.46
-0.495
-0.495
-0.425
-0.465
-0.515
-0.405
-0.41
-0.395
-0.39
-0.485
-0.415
-0.35
-0.425
-0.45
-0.385
-0.415
-0.43
-0.465
-0.57
-0.585
-0.335
-0.325
-0.43
-0.465
-0.36
-0.47
-0.43
-0.375
-0.48
-0.455
-0.345
-0.3
-0.395
-0.39
-0.47
-0.49
-0.49
-0.47
-0.45
-0.45
-0.395
-0.38
-0.32
-0.435
-0.4
-0.46
-0.385
-0.315
-0.4
-0.42
-0.405
-0.405
-0.38
-0.435
-0.44
-0.405
-0.345
-0.39
-0.4
-0.405
-0.465
-0.465
-0.455
-0.435
-0.395
-0.39
-0.46
-0.425
-0.36
-0.395
-0.38
-0.405
-0.36
-0.39
-0.405
-0.405
-0.385
-0.365
-0.465
-0.525
-0.435
-0.37
-0.315
-0.38
-0.345
-0.4
-0.39
-0.37
-0.425
-0.435
-0.45
-0.385
-0.405
-0.38
-0.41
-0.44
-0.4
-0.42
-0.465
-0.345
-0.445
-0.39
-0.435
-0.41
-0.35
-0.34
-0.405
-0.475
-0.46
-0.475
-0.33
-0.345
-0.44
-0.38
-0.325
-0.37
-0.415
-0.425
-0.385
-0.455
-0.43
-0.39
-0.34
-0.37
-0.435
-0.47
-0.395
-0.35
-0.395
-0.395
-0.38
-0.375
-0.33
-0.395
-0.32
-0.405
-0.375
-0.34
-0.35
-0.37
-0.395
-0.38
-0.395
-0.345
-0.315
-0.34
-0.42
-0.425
-0.44
-0.4
-0.33
-0.31
-0.355
-0.32
-0.36
-0.37
-0.375
-0.375
-0.485
-0.4
-0.34
-0.285
-0.31
-0.39
-0.335
-0.375
-0.38
-0.45
-0.495
-0.345
-0.355
-0.455
-0.45
-0.36
-0.36
-0.395
-0.43
-0.43
-0.41
-0.395
-0.35
-0.37
-0.45
-0.365
-0.295
-0.345
-0.38
-0.37
-0.385
-0.37
-0.375
-0.345
-0.405
-0.475
-0.385
-0.365
-0.395
-0.335
-0.35
-0.425
-0.365
-0.39
-0.41
-0.335
-0.375
-0.375
-0.23
-0.19
-0.15
-0.015
0.03
0.1
0.14
0.265
0.34
0.32
0.245
0.175
0.065
0.03
0.005
-0.07
-0.205
-0.335
-0.345
-0.365
-0.36
-0.39
-0.46
-0.43
-0.37
-0.295
-0.27
-0.265
-0.33
-0.345
-0.43
-0.385
-0.325
-0.275
-0.345
-0.39
-0.42
-0.355
-0.375
-0.39
-0.355
-0.355
-0.305
-0.31
-0.3
-0.33
-0.325
-0.35
-0.33
-0.385
-0.465
-0.42
-0.395
-0.215
-0.285
-0.295
-0.335
-0.36
-0.355
-0.305
-0.335
-0.395
-0.36
-0.34
-0.345
-0.35
-0.295
-0.305
-0.325
-0.345
-0.38
-0.33
-0.285
-0.255
-0.28
-0.33
-0.305
-0.345
-0.375
-0.38
-0.325
-0.27
-0.2
-0.23
-0.26
-0.335
-0.375
-0.305
-0.27
-0.195
-0.255
-0.33
-0.275
-0.22
-0.24
-0.27
-0.295
-0.26
-0.275
-0.25
-0.22
-0.245
-0.31
-0.26
-0.2
-0.17
-0.125
-0.175
-0.235
-0.16
-0.18
-0.215
-0.175
-0.12
-0.16
-0.215
-0.165
-0.17
-0.18
-0.155
-0.185
-0.17
-0.165
-0.175
-0.19
-0.255
-0.3
-0.165
-0.085
-0.07
-0.085
-0.195
-0.175
-0.21
-0.24
-0.26
-0.245
-0.21
-0.22
-0.225
-0.2
-0.275
-0.325
-0.31
-0.315
-0.285
-0.33
-0.31
-0.285
-0.315
-0.295
-0.34
-0.355
-0.385
-0.37
-0.32
-0.28
-0.39
-0.405
-0.36
-0.42
-0.32
-0.33
-0.39
-0.315
-0.31
-0.355
-0.37
-0.425
-0.415
-0.385
-0.3
-0.25
-0.32
-0.375
-0.42
-0.355
-0.385
-0.39
-0.405
-0.405
-0.405
-0.31
-0.385
-0.385
-0.36
-0.465
-0.38
-0.33
-0.405
-0.36
-0.305
-0.295
-0.395
-0.37
-0.365
-0.335
-0.33
-0.345
-0.35
-0.35
-0.365
-0.38
-0.385
-0.395
-0.425
-0.38
-0.34
-0.305
-0.345
-0.36
-0.32
-0.31
-0.37
-0.47
-0.45
-0.455
-0.385
-0.44
-0.38
-0.345
-0.295
-0.33
-0.38
-0.32
-0.305
-0.31
-0.335
-0.305
-0.455
-0.47
-0.61
-0.345
-0.245
-0.27
-0.315
-0.325
-0.305
-0.335
-0.365
-0.39
-0.31
-0.34
-0.395
-0.35
-0.32
-0.32
-0.31
-0.36
-0.39
-0.44
-0.525
-0.445
-0.36
-0.345
-0.325
-0.3
-0.33
-0.365
-0.375
-0.465
-0.32
-0.365
-0.475
-0.505
-0.505
-0.165
-0.265
-0.365
-0.43
-0.375
-0.38
-0.395
-0.335
-0.38
-0.34
-0.355
-0.42
-0.385
-0.38
-0.37
-0.36
-0.38
-0.395
-0.4
-0.415
-0.465
-0.375
-0.32
-0.36
-0.325
-0.4
-0.39
-0.435
-0.365
-0.31
-0.335
-0.36
-0.325
-0.31
-0.34
-0.34
-0.365
-0.4
-0.345
-0.38
-0.36
-0.345
-0.375
-0.37
-0.355
-0.385
-0.39
-0.35
-0.33
-0.33
-0.35
-0.325
-0.28
-0.37
-0.445
-0.37
-0.29
-0.355
-0.355
-0.43
-0.37
-0.36
-0.36
-0.32
-0.365
-0.37
-0.34
-0.32
-0.345
-0.42
-0.42
-0.415
-0.4
-0.38
-0.415
-0.425
-0.36
-0.45
-0.455
-0.345
-0.355
-0.395
-0.395
-0.375
-0.395
-0.405
-0.415
-0.405
-0.4
-0.37
-0.5
-0.495
-0.435
-0.33
-0.34
-0.28
-0.3
-0.3
-0.375
-0.43
-0.395
-0.39
-0.36
-0.34
-0.29
-0.215
-0.215
-0.16
-0.005
0.1
0.14
0.125
0.24
0.3
0.27
0.2
0.065
0.03
-0.01
-0.105
-0.195
-0.24
-0.32
-0.35
-0.3
-0.33
-0.42
-0.39
-0.34
-0.39
-0.42
-0.365
-0.375
-0.415
-0.465
-0.385
-0.38
-0.42
-0.365
-0.36
-0.42
-0.35
-0.39
-0.37
-0.34
-0.34
-0.4
-0.505
-0.42
-0.41
-0.365
-0.315
-0.35
-0.36
-0.365
-0.385
-0.38
-0.355
-0.38
-0.385
-0.35
-0.37
-0.385
-0.385
-0.36
-0.41
-0.4
-0.41
-0.385
-0.385
-0.335
-0.39
-0.35
-0.38
-0.38
-0.375
-0.34
-0.285
-0.32
-0.37
-0.395
-0.35
-0.475
-0.425
-0.34
-0.33
-0.35
-0.335
-0.27
-0.28
-0.35
-0.36
-0.345
-0.3
-0.27
-0.295
-0.34
-0.315
-0.325
-0.38
-0.335
-0.39
-0.34
-0.315
-0.315
-0.29
-0.25
-0.24
-0.235
-0.32
-0.35
-0.305
-0.18
-0.26
-0.23
-0.24
-0.235
-0.17
-0.19
-0.245
-0.28
-0.265
-0.205
-0.135
-0.175
-0.195
-0.18
-0.135
-0.235
-0.245
-0.22
-0.17
-0.2
-0.2
-0.23
-0.225
-0.28
-0.22
-0.24
-0.27
-0.28
-0.255
-0.335
-0.335
-0.325
-0.275
-0.33
-0.335
-0.34
-0.41
-0.365
-0.32
-0.435
-0.435
-0.26
-0.255
-0.34
-0.405
-0.365
-0.37
-0.355
-0.315
-0.41
-0.465
-0.455
-0.41
-0.39
-0.35
-0.38
-0.365
-0.415
-0.405
-0.435
-0.395
-0.4
-0.46
-0.465
-0.41
-0.44
-0.39
-0.37
-0.395
-0.445
-0.505
-0.45
-0.41
-0.445
-0.36
-0.34
-0.36
-0.41
-0.445
-0.495
-0.375
-0.425
-0.44
-0.37
-0.35
-0.355
-0.375
-0.36
-0.325
-0.4
-0.45
-0.465
-0.39
-0.33
-0.385
-0.39
-0.355
-0.42
-0.47
-0.43
-0.48
-0.375
-0.28
-0.31
-0.39
-0.45
-0.44
-0.39
-0.37
-0.365
-0.365
-0.35
-0.355
-0.365
-0.32
-0.35
-0.33
-0.335
-0.415
-0.42
-0.405
-0.39
-0.41
-0.405
-0.44
-0.36
-0.38
-0.4
-0.415
-0.4
-0.36
-0.295
-0.35
-0.335
-0.355
-0.365
-0.445
-0.44
-0.345
-0.345
-0.335
-0.4
-0.385
-0.395
-0.36
-0.355
-0.405
-0.41
-0.44
-0.39
-0.385
-0.435
-0.43
-0.415
-0.42
-0.36
-0.33
-0.295
-0.34
-0.315
-0.365
-0.395
-0.33
-0.335
-0.345
-0.37
-0.335
-0.345
-0.345
-0.38
-0.405
-0.38
-0.375
-0.385
-0.47
-0.445
-0.36
-0.32
-0.38
-0.365
-0.35
-0.415
-0.375
-0.415
-0.34
-0.31
-0.43
-0.42
-0.375
-0.405
-0.375
-0.35
-0.42
-0.385
-0.4
-0.33
-0.34
-0.405
-0.425
-0.37
-0.41
-0.345
-0.395
-0.3
-0.325
-0.315
-0.38
-0.43
-0.52
-0.275
-0.325
-0.435
-0.415
-0.285
-0.32
-0.385
-0.395
-0.36
-0.345
-0.32
-0.33
-0.355
-0.41
-0.325
-0.375
-0.335
-0.265
-0.33
-0.35
-0.32
-0.36
-0.28
-0.27
-0.285
-0.375
-0.34
-0.315
-0.33
-0.345
-0.36
-0.34
-0.325
-0.29
-0.265
-0.365
-0.375
-0.405
-0.315
-0.25
-0.34
-0.42
-0.405
-0.385
-0.36
-0.395
-0.42
-0.4
-0.37
-0.34
-0.265
-0.355
-0.4
-0.42
-0.465
-0.545
-0.39
-0.24
-0.28
-0.4
-0.39
-0.335
-0.395
-0.355
-0.335
-0.34
-0.37
-0.35
-0.405
-0.44
-0.345
-0.31
-0.42
-0.365
-0.31
-0.34
-0.325
-0.3
-0.255
-0.135
-0.045
0.015
0.15
0.29
0.305
0.325
0.325
0.335
0.245
0.14
0.15
0.06
-0.085
-0.09
-0.15
-0.3
-0.305
-0.31
-0.345
-0.315
-0.305
-0.315
-0.335
-0.315
-0.295
-0.34
-0.41
-0.32
-0.325
-0.365
-0.375
-0.385
-0.36
-0.33
-0.38
-0.355
-0.34
-0.34
-0.33
-0.385
-0.43
-0.525
-0.34
-0.315
-0.375
-0.33
-0.325
-0.265
-0.38
-0.28
-0.275
-0.33
-0.34
-0.32
-0.345
-0.385
-0.33
-0.365
-0.355
-0.315
-0.35
-0.34
-0.4
-0.505
-0.44
-0.395
-0.35
-0.215
-0.245
-0.28
-0.35
-0.39
-0.335
-0.295
-0.3
-0.305
-0.26
-0.265
-0.345
-0.305
-0.335
-0.35
-0.315
-0.235
-0.305
-0.325
-0.275
-0.28
-0.305
-0.32
-0.27
-0.33
-0.305
-0.205
-0.22
-0.29
-0.265
-0.25
-0.27
-0.295
-0.245
-0.24
-0.255
-0.24
-0.28
-0.23
-0.14
-0.185
-0.185
-0.19
-0.19
-0.17
-0.26
-0.21
-0.19
-0.24
-0.185
-0.085
-0.11
-0.165
-0.19
-0.26
-0.28
-0.12
-0.14
-0.13
-0.165
-0.165
-0.155
-0.12
-0.165
-0.2
-0.21
-0.19
-0.255
-0.205
-0.155
-0.23
-0.315
-0.255
-0.215
-0.295
-0.345
-0.305
-0.3
-0.28
-0.3
-0.29
-0.3
-0.35
-0.35
-0.345
-0.29
-0.33
-0.385
-0.36
-0.36
-0.375
-0.365
-0.345
-0.36
-0.355
-0.35
-0.305
-0.33
-0.465
-0.535
-0.47
-0.315
-0.205
-0.29
-0.385
-0.32
-0.345
-0.39
-0.315
-0.375
-0.365
-0.345
-0.37
-0.325
-0.395
-0.37
-0.315
-0.395
-0.46
-0.44
-0.39
-0.33
-0.34
-0.355
-0.4
-0.485
-0.395
-0.315
-0.3
-0.365
-0.36
-0.345
-0.395
-0.32
-0.315
-0.335
-0.375
-0.38
-0.4
-0.39
-0.35
-0.385
-0.34
-0.345
-0.395
-0.33
-0.31
-0.31
-0.35
-0.365
-0.31
-0.29
-0.365
-0.395
-0.32
-0.27
-0.385
-0.435
-0.38
-0.345
-0.37
-0.39
-0.395
-0.34
-0.365
-0.49
-0.54
-0.22
-0.285
-0.295
-0.335
-0.325
-0.39
-0.315
-0.365
-0.33
-0.4
-0.325
-0.315
-0.345
-0.35
-0.345
-0.395
-0.355
-0.39
-0.38
-0.395
-0.43
-0.335
-0.31
-0.33
-0.325
-0.3
-0.315
-0.335
-0.365
-0.34
-0.35
-0.33
-0.34
-0.375
-0.37
-0.38
-0.34
-0.305
-0.26
-0.295
-0.365
-0.4
-0.375
-0.375
-0.325
-0.355
-0.38
-0.325
-0.33
-0.38
-0.375
-0.305
-0.285
-0.37
-0.355
-0.345
-0.39
-0.385
-0.435
-0.375
-0.385
-0.37
-0.29
-0.31
-0.33
-0.33
-0.445
-0.39
-0.385
-0.34
-0.315
-0.3
-0.35
-0.27
-0.28
-0.405
-0.435
-0.455
-0.415
-0.34
-0.275
-0.275
-0.315
-0.345
-0.35
-0.345
-0.315
-0.335
-0.335
-0.315
-0.315
-0.315
-0.345
-0.34
-0.35
-0.44
-0.48
-0.315
-0.26
-0.265
-0.34
-0.335
-0.29
-0.305
-0.295
-0.235
-0.28
-0.35
-0.295
-0.295
-0.32
-0.325
-0.32
-0.315
-0.37
-0.365
-0.395
-0.435
-0.4
-0.365
-0.265
-0.32
-0.395
-0.43
-0.3
-0.295
-0.36
-0.325
-0.375
-0.405
-0.36
-0.32
-0.315
-0.325
-0.3
-0.33
-0.295
-0.4
-0.4
-0.395
-0.375
-0.365
-0.415
-0.34
-0.275
-0.405
-0.435
-0.43
-0.355
-0.225
-0.315
-0.36
-0.36
-0.375
-0.375
-0.41
-0.42
-0.335
-0.325
-0.345
-0.345
-0.26
-0.195
-0.015
-0.025
-0.01
0.065
0.195
0.275
0.35
0.335
0.36
0.305
0.205
0.095
0.05
-0.025
-0.035
-0.17
-0.255
-0.295
-0.315
-0.385
-0.345
-0.35
-0.32
-0.31
-0.33
-0.355
-0.39
-0.38
-0.285
-0.335
-0.31
-0.26
-0.335
-0.375
-0.305
-0.295
-0.33
-0.345
-0.4
-0.315
-0.28
-0.315
-0.34
-0.36
-0.415
-0.405
-0.275
-0.315
-0.4
-0.305
-0.325
-0.385
-0.44
-0.325
-0.31
-0.36
-0.33
-0.32
-0.315
-0.29
-0.23
-0.295
-0.35
-0.37
-0.315
-0.29
-0.285
-0.385
-0.345
-0.295
-0.26
-0.27
-0.27
-0.275
-0.305
-0.33
-0.34
-0.27
-0.305
-0.32
-0.375
-0.425
-0.365
-0.18
-0.21
-0.24
-0.235
-0.25
-0.3
-0.295
-0.39
-0.45
-0.225
-0.135
-0.23
-0.26
-0.23
-0.2
-0.29
-0.295
-0.31
-0.205
-0.215
-0.175
-0.21
-0.145
-0.165
-0.19
-0.215
-0.185
-0.19
-0.17
-0.21
-0.245
-0.275
-0.145
-0.15
-0.15
-0.155
-0.165
-0.12
-0.165
-0.22
-0.145
-0.06
-0.095
-0.135
-0.155
-0.125
-0.16
-0.19
-0.135
-0.185
-0.13
-0.165
-0.205
-0.195
-0.22
-0.3
-0.175
-0.26
-0.395
-0.36
-0.245
-0.325
-0.28
-0.16
-0.195
-0.255
-0.265
-0.305
-0.265
-0.315
-0.41
-0.39
-0.265
-0.275
-0.36
-0.375
-0.385
-0.3
-0.315
-0.31
-0.285
-0.33
-0.345
-0.37
-0.305
-0.275
-0.315
-0.335
-0.34
-0.36
-0.45
-0.34
-0.265
-0.225
-0.285
-0.34
-0.36
-0.38
-0.37
-0.295
-0.3
-0.305
-0.375
-0.3
-0.31
-0.28
-0.285
-0.325
-0.28
-0.315
-0.345
-0.31
-0.345
-0.255
-0.275
-0.39
-0.32
-0.285
-0.35
-0.29
-0.345
-0.39
-0.31
-0.37
-0.295
-0.26
-0.28
-0.4
-0.4
-0.275
-0.24
-0.22
-0.245
-0.29
-0.34
-0.315
-0.315
-0.305
-0.31
-0.39
-0.31
-0.295
-0.31
-0.345
-0.27
-0.275
-0.28
-0.325
-0.3
-0.325
-0.34
-0.35
-0.305
-0.305
-0.33
-0.355
-0.27
-0.265
-0.3
-0.3
-0.305
-0.28
-0.335
-0.36
-0.415
-0.325
-0.245
-0.24
-0.25
-0.285
-0.25
-0.3
-0.345
-0.265
-0.255
-0.28
-0.37
-0.48
-0.3
-0.21
-0.3
-0.355
-0.395
-0.335
-0.3
-0.2
-0.25
-0.3
-0.34
-0.365
-0.36
-0.2
-0.225
-0.29
-0.34
-0.3
-0.305
-0.3
-0.31
-0.28
-0.26
-0.24
-0.295
-0.34
-0.26
-0.275
-0.285
-0.245
-0.225
-0.275
-0.265
-0.29
-0.27
-0.23
-0.265
-0.33
-0.365
-0.285
-0.245
-0.28
-0.215
-0.265
-0.275
-0.245
-0.325
-0.245
-0.135
-0.185
-0.21
-0.215
-0.255
-0.235
-0.235
-0.225
-0.25
-0.285
-0.265
-0.325
-0.385
-0.295
-0.22
-0.27
-0.255
-0.315
-0.39
-0.305
-0.35
-0.41
-0.455
-0.365
-0.315
-0.29
-0.365
-0.29
-0.285
-0.295
-0.36
-0.36
-0.425
-0.445
-0.41
-0.47
-0.47
-0.44
-0.555
-0.45
-0.345
-0.39
-0.45
-0.445
-0.42
-0.385
-0.38
-0.395
-0.38
-0.395
-0.36
-0.34
-0.21
-0.1
0.02
0.1
0.155
0.25
0.23
0.27
0.315
0.28
0.245
0.145
0.01
-0.07
-0.075
-0.15
-0.285
-0.25
-0.215
-0.275
-0.305
-0.29
-0.305
-0.29
-0.27
-0.325
-0.355
-0.26
-0.24
-0.275
-0.25
-0.29
-0.29
-0.255
-0.26
-0.28
-0.36
-0.345
-0.305
-0.235
-0.19
-0.23
-0.27
-0.265
-0.26
-0.205
-0.25
-0.25
-0.23
-0.225
-0.205
-0.22
-0.275
-0.285
-0.29
-0.32
-0.175
-0.225
-0.21
-0.205
-0.205
-0.245
-0.22
-0.21
-0.22
-0.205
-0.22
-0.275
-0.23
-0.27
-0.17
-0.13
-0.2
-0.355
-0.235
-0.155
-0.195
-0.14
-0.155
-0.18
-0.185
-0.175
-0.155
-0.155
-0.165
-0.205
-0.195
-0.17
-0.115
-0.2
-0.17
-0.235
-0.23
-0.165
-0.085
-0.11
-0.095
-0.08
-0.07
-0.055
-0.025
-0.08
-0.11
-0.175
-0.23
-0.045
-0.02
-0.08
-0.135
-0.08
-0.075
-0.155
-0.045
-0.005
-0.045
0.02
0.04
0.01
-0.015
0.0
0.005
-0.02
-0.08
-0.055
-0.07
-0.025
-0.035
0.015
0.0
-0.01
-0.055
-0.075
-0.015
-0.02
-0.005
-0.075
-0.13
-0.075
-0.085
-0.12
-0.16
-0.21
-0.13
-0.17
-0.135
-0.165
-0.24
-0.105
-0.135
-0.24
-0.305
-0.235
-0.22
-0.17
-0.175
-0.17
-0.2
-0.145
-0.195
-0.275
-0.235
-0.18
-0.25
-0.27
-0.27
-0.24
-0.225
-0.225
-0.19
-0.245
-0.305
-0.305
-0.37
-0.315
-0.185
-0.18
-0.2
-0.185
-0.2
-0.305
-0.28
-0.185
-0.235
-0.215
-0.21
-0.255
-0.23
-0.245
-0.3
-0.265
-0.305
-0.27
-0.255
-0.235
-0.27
-0.25
-0.225
-0.205
-0.26
-0.265
-0.32
-0.3
-0.305
-0.34
-0.315
-0.345
-0.345
-0.285
-0.49
-0.32
-0.275
-0.34
-0.405
-0.235
-0.28
-0.445
-0.375
-0.37
-0.33
-0.39
-0.405
-0.42
-0.435
-0.505
-0.495
-0.595
-0.49
-0.51
-0.565
-0.575
-0.455
-0.54
-0.515
-0.48
-0.55
-0.62
-0.62
-0.61
-0.645
-0.645
-0.59
-0.55
-0.53
-0.47
-0.435
-0.455
-0.445
-0.47
-0.52
-0.51
-0.455
-0.42
-0.43
-0.45
-0.39
-0.435
-0.415
-0.365
-0.39
-0.375
-0.35
-0.415
-0.325
-0.335
-0.38
-0.46
-0.485
-0.39
-0.27
-0.31
-0.34
-0.42
-0.345
-0.34
-0.345
-0.35
-0.345
-0.32
-0.33
-0.31
-0.355
-0.335
-0.325
-0.295
-0.365
-0.415
-0.215
-0.27
-0.335
-0.32
-0.345
-0.3
-0.275
-0.24
-0.29
-0.3
-0.295
-0.25
-0.26
-0.27
-0.285
-0.27
-0.3
-0.24
-0.27
-0.285
-0.25
-0.325
-0.36
-0.23
-0.205
-0.29
-0.27
-0.22
-0.225
-0.235
-0.24
-0.275
-0.325
-0.295
-0.23
-0.26
-0.26
-0.27
-0.29
-0.21
-0.18
-0.27
-0.31
-0.275
-0.18
-0.3
-0.29
-0.275
-0.31
-0.29
-0.33
-0.285
-0.255
-0.24
-0.215
-0.25
-0.26
-0.255
-0.23
-0.245
-0.245
-0.295
-0.33
-0.35
-0.255
-0.25
-0.27
-0.3
-0.29
-0.245
-0.195
-0.23
-0.28
-0.25
-0.25
-0.175
-0.15
-0.03
-0.025
0.03
0.17
0.22
0.38
0.42
0.39
0.41
0.365
0.305
0.22
0.145
0.07
-0.09
-0.085
-0.17
-0.2
-0.16
-0.185
-0.19
-0.195
-0.215
-0.16
-0.18
-0.225
-0.32
-0.3
-0.215
-0.275
-0.28
-0.24
-0.18
-0.28
-0.26
-0.215
-0.205
-0.32
-0.2
-0.12
-0.15
-0.175
-0.23
-0.275
-0.19
-0.2
-0.235
-0.28
-0.22
-0.21
-0.23
-0.26
-0.28
-0.235
-0.255
-0.165
-0.175
-0.19
-0.15
-0.17
-0.31
-0.25
-0.235
-0.275
-0.2
-0.135
-0.16
-0.15
-0.14
-0.175
-0.235
-0.195
-0.195
-0.19
-0.16
-0.18
-0.18
-0.22
-0.245
-0.165
-0.195
-0.21
-0.105
-0.135
-0.13
-0.135
-0.15
-0.175
-0.125
-0.19
-0.195
-0.165
-0.12
-0.175
-0.235
-0.185
-0.095
-0.08
-0.095
-0.09
-0.115
-0.15
-0.115
-0.07
-0.065
-0.055
-0.04
-0.085
-0.04
-0.045
-0.04
-0.06
-0.03
-0.04
-0.055
-0.02
-0.02
-0.115
-0.085
0.03
-0.02
-0.065
-0.08
-0.06
-0.015
0.065
0.0
-0.06
0.005
-0.045
-0.105
-0.165
-0.115
-0.035
-0.03
-0.015
-0.14
-0.11
-0.075
-0.06
-0.145
-0.12
-0.195
-0.225
-0.18
-0.095
-0.115
-0.15
-0.2
-0.235
-0.195
-0.22
-0.145
-0.2
-0.185
-0.22
-0.22
-0.2
-0.17
-0.195
-0.225
-0.24
-0.205
-0.235
-0.26
-0.26
-0.245
-0.32
-0.285
-0.21
-0.205
-0.17
-0.22
-0.35
-0.25
-0.16
-0.235
-0.25
-0.215
-0.28
-0.235
-0.205
-0.205
-0.22
-0.325
-0.29
-0.26
-0.175
-0.205
-0.25
-0.195
-0.175
-0.23
-0.335
-0.305
-0.24
-0.225
-0.23
-0.205
-0.24
-0.255
-0.18
-0.12
-0.15
-0.235
-0.275
-0.285
-0.31
-0.255
-0.215
-0.225
-0.155
-0.16
-0.205
-0.265
-0.215
-0.265
-0.29
-0.22
-0.26
-0.26
-0.265
-0.28
-0.26
-0.245
-0.19
-0.25
-0.24
-0.17
-0.18
-0.24
-0.275
-0.16
-0.175
-0.305
-0.265
-0.235
-0.22
-0.185
-0.195
-0.185
-0.23
-0.245
-0.215
-0.245
-0.25
-0.245
-0.22
-0.165
-0.2
-0.19
-0.19
-0.21
-0.295
-0.23
-0.255
-0.27
-0.23
-0.185
-0.22
-0.315
-0.315
-0.3
-0.21
-0.185
-0.265
-0.235
-0.19
-0.17
-0.215
-0.225
-0.21
-0.215
-0.265
-0.265
-0.17
-0.23
-0.235
-0.185
-0.215
-0.215
-0.21
-0.23
-0.31
-0.3
-0.24
-0.18
-0.145
-0.215
-0.21
-0.18
-0.12
-0.195
-0.22
-0.235
-0.255
-0.255
-0.215
-0.21
-0.155
-0.14
-0.155
-0.155
-0.24
-0.215
-0.22
-0.2
-0.18
-0.185
-0.25
-0.22
-0.11
-0.15
-0.22
-0.225
-0.22
-0.22
-0.21
-0.24
-0.285
-0.24
-0.265
-0.195
-0.205
-0.24
-0.245
-0.2
-0.17
-0.305
-0.305
-0.28
-0.25
-0.205
-0.27
-0.285
-0.25
-0.255
-0.18
-0.19
-0.24
-0.24
-0.28
-0.275
-0.205
-0.21
-0.245
-0.23
-0.255
-0.28
-0.255
-0.22
-0.16
-0.19
-0.21
-0.215
-0.215
-0.155
-0.165
-0.105
0.0
0.125
0.075
0.24
0.405
0.38
0.445
0.455
0.435
0.285
0.295
0.225
0.1
0.06
-0.055
-0.12
-0.22
-0.28
-0.205
-0.07
-0.13
-0.135
-0.2
-0.21
-0.15
-0.235
-0.25
-0.275
-0.26
-0.29
-0.305
-0.245
-0.195
-0.22
-0.23
-0.225
-0.185
-0.2
-0.26
-0.305
-0.255
-0.195
-0.205
-0.26
-0.24
-0.205
-0.185
-0.2
-0.255
-0.25
-0.23
-0.155
-0.235
-0.28
-0.205
-0.305
-0.23
-0.255
-0.265
-0.245
-0.205
-0.21
-0.235
-0.18
-0.14
-0.205
-0.22
-0.26
-0.245
-0.22
-0.24
-0.11
-0.225
-0.21
-0.19
-0.19
-0.195
-0.205
-0.185
-0.2
-0.11
-0.13
-0.23
-0.195
-0.26
-0.185
-0.13
-0.145
-0.15
-0.225
-0.14
-0.145
-0.155
-0.175
-0.07
-0.105
-0.175
-0.19
-0.15
-0.105
-0.105
-0.165
-0.18
-0.12
-0.125
-0.13
-0.08
-0.11
-0.175
-0.015
-0.01
0.01
-0.05
-0.1
-0.115
0.0
0.005
-0.125
-0.065
-0.055
-0.01
-0.005
-0.075
-0.025
0.085
0.035
0.02
-0.015
-0.055
-0.06
-0.085
-0.02
-0.145
-0.16
-0.225
-0.105
-0.01
-0.03
-0.035
-0.055
-0.06
-0.14
-0.165
-0.115
-0.08
-0.155
-0.155
-0.25
-0.23
-0.215
-0.175
-0.225
-0.265
-0.24
-0.24
-0.23
-0.235
-0.215
-0.19
-0.205
-0.255
-0.24
-0.25
-0.23
-0.165
-0.19
-0.15
-0.205
-0.26
-0.24
-0.225
-0.25
-0.36
-0.2
-0.17
-0.2
-0.035
-0.095
-0.205
-0.265
-0.215
-0.155
-0.195
-0.215
-0.175
-0.205
-0.175
-0.215
-0.215
-0.19
-0.195
-0.195
-0.21
-0.23
-0.23
-0.24
-0.205
-0.185
-0.235
-0.255
-0.19
-0.175
-0.255
-0.26
-0.125
-0.09
-0.15
-0.13
-0.185
-0.17
-0.15
-0.135
-0.155
-0.135
-0.15
-0.195
-0.18
-0.2
-0.185
-0.145
-0.17
-0.075
-0.125
-0.225
-0.245
-0.225
-0.15
-0.245
-0.205
-0.14
-0.175
-0.255
-0.15
-0.125
-0.105
-0.215
-0.23
-0.145
-0.16
-0.205
-0.13
-0.19
-0.11
-0.04
-0.17
-0.3
-0.24
-0.11
-0.17
-0.185
-0.105
-0.13
-0.13
-0.125
-0.225
-0.205
-0.15
-0.09
-0.16
-0.17
-0.095
-0.115
-0.15
-0.13
-0.14
-0.09
-0.105
-0.1
-0.085
-0.115
-0.185
-0.11
-0.105
-0.155
-0.14
-0.11
-0.18
-0.2
-0.08
-0.05
-0.1
-0.055
-0.07
-0.105
-0.11
-0.145
-0.135
-0.135
-0.055
-0.09
-0.125
-0.135
-0.115
-0.11
-0.045
-0.04
-0.13
-0.16
-0.085
-0.135
-0.18
-0.175
-0.155
-0.14
-0.15
-0.195
-0.175
-0.14
-0.15
-0.19
-0.15
-0.21
-0.15
-0.035
-0.115
-0.135
-0.135
-0.155
-0.185
-0.18
-0.18
-0.21
-0.13
-0.115
-0.205
-0.225
-0.135
-0.135
-0.135
-0.135
-0.19
-0.185
-0.175
-0.105
-0.105
-0.11
-0.095
-0.03
-0.115
-0.07
0.07
0.195
0.305
0.27
0.3
0.38
0.43
0.455
0.41
0.375
0.21
0.07
0.105
0.145
0.06
-0.05
-0.08
-0.11
-0.145
-0.155
-0.15
-0.13
-0.155
-0.075
-0.085
-0.105
-0.145
-0.18
-0.15
-0.135
-0.165
-0.135
-0.13
-0.1
-0.14
-0.215
-0.2
-0.18
-0.14
-0.11
-0.13
-0.145
-0.165
-0.265
-0.215
-0.23
-0.18
-0.085
-0.095
-0.145
-0.14
-0.13
-0.155
-0.14
-0.16
-0.195
-0.09
-0.1
-0.145
-0.185
-0.18
-0.07
-0.055
-0.1
-0.21
-0.125
-0.13
-0.065
-0.13
-0.15
-0.195
-0.075
-0.1
-0.14
-0.12
-0.175
-0.115
-0.08
-0.11
-0.095
-0.08
-0.145
-0.11
-0.155
-0.125
-0.125
-0.14
-0.22
-0.22
-0.04
-0.035
-0.165
-0.155
-0.055
-0.055
0.02
0.015
0.03
-0.01
-0.085
-0.09
-0.115
-0.11
-0.095
0.0
-0.04
-0.04
-0.025
-0.01
-0.075
0.0
0.045
0.08
0.025
-0.02
-0.02
0.045
0.04
-0.015
0.05
0.1
0.025
0.02
0.0
0.02
0.055
0.005
0.01
-0.03
-0.04
-0.04
0.005
-0.03
-0.13
-0.04
-0.055
-0.09
-0.065
-0.06
-0.065
-0.14
-0.1
-0.145
-0.26
-0.18
-0.125
-0.19
-0.225
-0.14
-0.095
-0.11
-0.105
-0.13
-0.22
-0.165
-0.205
-0.215
-0.145
-0.2
-0.19
-0.19
-0.18
-0.12
-0.305
-0.32
-0.265
-0.18
-0.175
-0.15
-0.175
-0.17
-0.22
-0.195
-0.225
-0.225
-0.255
-0.225
-0.18
-0.2
-0.22
-0.235
-0.225
-0.24
-0.205
-0.24
-0.195
-0.18
-0.13
-0.145
-0.175
-0.215
-0.215
-0.24
-0.28
-0.265
-0.155
-0.245
-0.2
-0.13
-0.15
-0.125
-0.19
-0.18
-0.27
-0.245
-0.265
-0.25
-0.31
-0.16
-0.24
-0.245
-0.12
-0.135
-0.24
-0.325
-0.25
-0.23
-0.16
-0.17
-0.155
-0.235
-0.17
-0.195
-0.23
-0.185
-0.19
-0.19
-0.185
-0.09
-0.17
-0.275
-0.23
-0.205
-0.165
-0.195
-0.25
-0.235
-0.235
-0.2
-0.22
-0.2
-0.175
-0.14
-0.175
-0.235
-0.235
-0.21
-0.25
-0.255
-0.22
-0.245
-0.16
-0.225
-0.285
-0.275
-0.245
-0.16
-0.22
-0.14
-0.195
-0.26
-0.275
-0.19
-0.09
-0.16
-0.2
-0.265
-0.225
-0.225
-0.285
-0.17
-0.175
-0.225
-0.275
-0.215
-0.155
-0.085
-0.16
-0.22
-0.245
-0.225
-0.265
-0.185
-0.1
-0.125
-0.205
-0.13
-0.21
-0.26
-0.17
-0.065
-0.135
-0.14
-0.15
-0.23
-0.23
-0.215
-0.175
-0.14
-0.24
-0.205
-0.23
-0.27
-0.175
-0.26
-0.24
-0.205
-0.16
-0.21
-0.29
-0.27
-0.2
-0.24
-0.24
-0.265
-0.27
-0.19
-0.19
-0.19
-0.23
-0.255
-0.235
-0.26
-0.145
-0.145
-0.225
-0.29
-0.225
-0.32
-0.255
-0.3
-0.28
-0.25
-0.21
-0.205
-0.245
-0.25
-0.235
-0.25
-0.185
-0.155
-0.15
-0.115
-0.125
0.01
0.125
0.26
0.27
0.33
0.435
0.49
0.47
0.425
0.38
0.29
0.215
0.135
0.055
-0.01
-0.155
-0.185
-0.16
-0.235
-0.25
-0.275
-0.23
-0.195
-0.25
-0.305
-0.225
-0.19
-0.345
-0.34
-0.21
-0.215
-0.21
-0.26
-0.19
-0.24
-0.315
-0.255
-0.26
-0.18
-0.22
-0.3
-0.33
-0.395
-0.245
-0.185
-0.23
-0.25
-0.225
-0.2
-0.21
-0.185
-0.23
-0.31
-0.38
-0.34
-0.265
-0.18
-0.15
-0.15
-0.18
-0.255
-0.22
-0.195
-0.205
-0.24
-0.265
-0.29
-0.215
-0.205
-0.26
-0.245
-0.23
-0.265
-0.27
-0.32
-0.295
-0.185
-0.3
-0.31
-0.275
-0.32
-0.26
-0.255
-0.28
-0.285
-0.27
-0.21
-0.225
-0.23
-0.2
-0.215
-0.23
-0.26
-0.245
-0.175
-0.165
-0.295
-0.195
-0.17
-0.135
-0.15
-0.24
-0.2
-0.16
-0.16
-0.085
-0.09
-0.185
-0.155
-0.11
-0.105
-0.07
-0.08
-0.07
-0.1
-0.115
-0.07
-0.02
-0.02
-0.1
-0.07
-0.06
-0.115
-0.1
-0.095
-0.13
-0.13
-0.11
-0.125
-0.09
-0.15
-0.13
-0.015
-0.125
-0.165
-0.195
-0.215
-0.125
-0.065
-0.145
-0.22
-0.185
-0.165
-0.145
-0.17
-0.195
-0.21
-0.225
-0.25
-0.27
-0.27
-0.225
-0.205
-0.285
-0.31
-0.315
-0.295
-0.295
-0.28
-0.24
-0.235
-0.245
-0.275
-0.26
-0.275
-0.21
-0.345
-0.36
-0.25
-0.295
-0.355
-0.41
-0.325
-0.205
-0.235
-0.27
-0.195
-0.225
-0.375
-0.255
-0.155
-0.24
-0.2
-0.235
-0.24
-0.27
-0.265
-0.28
-0.305
-0.32
-0.325
-0.275
-0.245
-0.245
-0.205
-0.26
-0.245
-0.245
-0.27
-0.26
-0.275
-0.345
-0.4
-0.405
-0.235
-0.345
-0.28
-0.23
-0.185
-0.25
-0.265
-0.2
-0.225
-0.225
-0.25
-0.29
-0.28
-0.205
-0.21
-0.265
-0.23
-0.22
-0.27
-0.235
-0.27
-0.32
-0.29
-0.24
-0.285
-0.285
-0.235
-0.285
-0.305
-0.33
-0.32
-0.26
-0.245
-0.33
-0.37
-0.27
-0.265
-0.35
-0.36
-0.225
-0.24
-0.28
-0.22
-0.21
-0.24
-0.275
-0.305
-0.32
-0.285
-0.235
-0.24
-0.27
-0.26
-0.265
-0.29
-0.27
-0.18
-0.235
-0.27
-0.265
-0.285
-0.295
-0.27
-0.28
-0.25
-0.22
-0.245
-0.28
-0.28
-0.26
-0.245
-0.3
-0.26
-0.255
-0.235
-0.23
-0.295
-0.28
-0.26
-0.195
-0.295
-0.205
-0.25
-0.265
-0.29
-0.32
-0.29
-0.27
-0.29
-0.25
-0.225
-0.28
-0.27
-0.25
-0.3
-0.305
-0.285
-0.295
-0.255
-0.275
-0.29
-0.295
-0.32
-0.295
-0.27
-0.315
-0.335
-0.32
-0.225
-0.275
-0.34
-0.27
-0.255
-0.32
-0.375
-0.315
-0.22
-0.24
-0.245
-0.25
-0.27
-0.3
-0.32
-0.265
-0.175
-0.115
0.015
0.05
0.095
0.21
0.375
0.395
0.39
0.37
0.325
0.295
0.305
0.27
0.14
0.085
-0.06
-0.18
-0.23
-0.25
-0.255
-0.21
-0.275
-0.275
-0.25
-0.305
-0.265
-0.23
-0.175
-0.185
-0.2
-0.28
-0.295
-0.285
-0.36
-0.29
-0.18
-0.25
-0.27
-0.25
-0.215
-0.195
-0.2
-0.17
-0.23
-0.24
-0.25
-0.295
-0.275
-0.24
-0.29
-0.24
-0.23
-0.26
-0.21
-0.185
-0.18
-0.17
-0.275
-0.19
-0.27
-0.31
-0.18
-0.155
-0.23
-0.21
-0.23
-0.26
-0.26
-0.225
-0.225
-0.225
-0.18
-0.155
-0.225
-0.1
-0.08
-0.15
-0.185
-0.22
-0.21
-0.185
-0.24
-0.305
-0.11
-0.175
-0.185
-0.145
-0.215
-0.085
-0.085
-0.12
-0.09
-0.075
-0.1
-0.145
-0.17
-0.21
-0.115
-0.075
-0.11
-0.125
-0.12
-0.2
-0.03
-0.02
-0.08
-0.065
-0.025
0.0
-0.07
-0.095
-0.07
-0.14
-0.095
-0.18
-0.01
-0.02
0.02
0.015
-0.035
-0.02
0.0
0.0
0.03
0.0
-0.02
-0.08
-0.07
-0.04
-0.08
-0.08
-0.07
-0.04
-0.005
-0.04
-0.085
-0.06
-0.155
-0.175
-0.13
-0.075
-0.125
-0.13
-0.125
-0.16
-0.13
-0.12
-0.135
-0.255
-0.105
-0.095
-0.17
-0.22
-0.19
-0.19
-0.205
-0.21
-0.195
-0.215
-0.29
-0.205
-0.17
-0.175
-0.265
-0.205
-0.225
-0.195
-0.22
-0.225
-0.23
-0.215
-0.195
-0.215
-0.235
-0.185
-0.08
-0.07
-0.21
-0.23
-0.17
-0.16
-0.22
-0.155
-0.12
-0.145
-0.215
-0.23
-0.175
-0.205
-0.225
-0.21
-0.2
-0.175
-0.185
-0.135
-0.245
-0.245
-0.13
-0.24
-0.18
-0.1
-0.2
-0.27
-0.175
-0.11
-0.13
-0.15
-0.16
-0.14
-0.17
-0.16
-0.18
-0.18
-0.205
-0.16
-0.165
-0.215
-0.08
-0.07
-0.115
-0.15
-0.175
-0.17
-0.2
-0.145
-0.13
-0.155
-0.195
-0.195
-0.19
-0.175
-0.185
-0.22
-0.245
-0.175
-0.065
0.035
-0.145
-0.285
-0.105
-0.11
-0.115
-0.125
-0.13
-0.175
-0.155
-0.15
-0.185
-0.28
-0.245
-0.09
-0.095
-0.085
-0.065
-0.115
-0.11
-0.11
-0.17
-0.16
-0.21
-0.065
-0.05
-0.055
-0.065
-0.11
-0.125
-0.13
-0.125
-0.16
-0.075
-0.055
-0.06
-0.115
-0.085
-0.145
-0.185
-0.095
-0.1
-0.115
-0.135
-0.155
-0.135
-0.11
-0.045
-0.11
-0.225
-0.215
-0.16
-0.095
-0.07
-0.025
-0.17
-0.255
-0.13
-0.125
-0.115
-0.065
-0.165
-0.165
-0.035
-0.055
-0.155
-0.22
-0.165
-0.135
-0.135
-0.165
-0.155
-0.105
-0.08
-0.08
-0.155
-0.145
-0.105
-0.185
-0.145
-0.075
-0.125
-0.105
-0.02
-0.055
-0.045
0.025
0.02
0.14
0.325
0.395
0.415
0.395
0.47
0.555
0.52
0.355
0.26
0.155
0.15
0.145
0.06
-0.08
-0.135
-0.085
-0.135
-0.125
-0.11
-0.105
-0.095
-0.11
-0.125
-0.195
-0.115
-0.1
-0.195
-0.13
0.045
-0.085
-0.08
-0.08
-0.07
-0.135
-0.125
-0.085
-0.09
-0.135
-0.11
-0.1
-0.12
-0.075
-0.08
-0.105
-0.175
-0.12
-0.105
-0.12
-0.17
-0.175
-0.105
-0.09
-0.02
-0.015
-0.095
-0.085
-0.095
-0.07
-0.015
-0.115
-0.15
-0.105
-0.065
-0.11
-0.06
-0.105
-0.085
-0.085
-0.075
-0.095
-0.075
-0.065
-0.1
-0.17
-0.13
-0.13
-0.04
-0.085
0.045
0.035
-0.07
-0.05
-0.085
-0.065
0.01
0.005
-0.06
-0.08
-0.18
-0.15
-0.055
0.015
0.095
0.105
0.09
0.03
-0.005
0.025
0.02
-0.01
0.0
0.02
0.04
0.03
0.01
0.005
0.04
0.065
0.025
-0.005
-0.02
0.06
0.145
0.15
0.125
0.17
0.06
0.02
0.06
0.07
0.125
0.145
0.09
0.06
0.015
0.145
0.105
0.035
0.065
0.08
0.055
0.075
0.105
0.05
-0.065
-0.065
-0.08
-0.06
-0.055
0.005
-0.05
-0.055
-0.02
-0.045
-0.125
-0.13
-0.095
-0.075
-0.025
-0.04
-0.145
-0.3
-0.18
0.02
-0.085
-0.185
-0.08
-0.1
-0.15
-0.14
-0.115
-0.07
-0.13
-0.165
-0.145
-0.035
-0.095
-0.135
-0.16
-0.125
-0.145
-0.135
-0.13
-0.135
-0.19
-0.165
-0.145
-0.135
-0.095
-0.125
-0.14
-0.16
-0.065
-0.105
-0.155
-0.16
-0.18
-0.12
-0.07
-0.025
-0.13
-0.1
-0.13
-0.1
-0.11
-0.07
-0.125
-0.17
-0.125
-0.055
-0.14
-0.15
-0.15
-0.16
-0.17
-0.145
-0.035
-0.065
-0.095
-0.12
-0.12
-0.125
-0.135
-0.08
-0.095
-0.115
-0.12
-0.095
-0.145
-0.185
-0.13
-0.145
-0.105
-0.11
-0.14
-0.16
-0.115
-0.11
-0.12
-0.105
-0.12
-0.19
-0.11
-0.06
-0.16
-0.27
-0.23
-0.105
-0.13
-0.19
-0.105
-0.165
-0.21
-0.095
-0.055
-0.065
-0.19
-0.18
-0.12
-0.14
-0.175
-0.09
-0.1
-0.1
-0.16
-0.07
-0.08
-0.125
-0.11
-0.14
-0.175
-0.115
-0.145
-0.14
-0.105
-0.135
-0.195
-0.185
-0.11
-0.145
-0.115
-0.145
-0.12
-0.075
-0.075
-0.135
-0.21
-0.23
-0.155
-0.105
-0.06
-0.02
-0.07
-0.105
-0.145
-0.115
-0.11
-0.165
-0.135
-0.06
-0.15
-0.16
-0.18
-0.16
-0.22
-0.16
-0.035
-0.09
-0.195
-0.08
-0.085
-0.175
-0.2
-0.19
-0.19
-0.14
-0.14
-0.19
-0.165
-0.18
-0.255
-0.175
-0.25
-0.205
-0.14
-0.15
-0.135
-0.2
-0.135
-0.15
-0.16
-0.12
-0.12
-0.17
-0.24
-0.19
-0.2
-0.17
-0.12
-0.085
-0.05
-0.09
0.015
0.095
0.095
0.16
0.235
0.3
0.435
0.515
0.495
0.58
0.485
0.345
0.315
0.285
0.165
0.145
0.115
-0.015
-0.185
-0.17
-0.1
-0.125
-0.215
-0.1
-0.125
-0.165
-0.155
-0.045
-0.09
-0.125
-0.1
-0.155
-0.145
-0.115
-0.205
-0.285
-0.25
-0.08
-0.17
-0.2
-0.21
-0.21
-0.205
-0.145
-0.125
-0.145
-0.095
-0.135
-0.245
-0.27
-0.06
-0.04
-0.14
-0.155
-0.205
-0.195
-0.16
-0.21
-0.17
-0.105
-0.075
-0.115
-0.165
-0.17
-0.175
-0.1
-0.08
-0.115
-0.11
-0.155
-0.115
-0.175
-0.175
-0.125
-0.075
-0.115
-0.135
-0.15
-0.15
-0.16
-0.135
-0.13
-0.105
-0.065
-0.07
-0.06
-0.08
-0.075
-0.04
-0.075
-0.135
-0.12
-0.085
-0.13
-0.13
-0.115
-0.06
-0.035
-0.055
-0.025
-0.09
-0.14
-0.085
-0.025
-0.025
-0.075
-0.085
0.015
0.01
-0.025
0.025
0.03
-0.055
-0.035
0.01
0.035
0.015
-0.055
0.025
0.025
0.145
0.07
0.095
0.055
0.0
0.055
0.065
0.04
0.05
0.015
0.015
-0.04
-0.01
0.005
-0.03
-0.005
-0.025
-0.035
-0.025
-0.06
-0.07
-0.07
-0.065
-0.075
-0.125
-0.085
-0.115
-0.145
-0.15
-0.195
-0.23
-0.115
-0.16
-0.16
-0.155
-0.13
-0.11
-0.14
-0.09
-0.09
-0.23
-0.2
-0.265
-0.155
-0.145
-0.13
-0.19
-0.265
-0.12
-0.17
-0.235
-0.17
-0.06
-0.16
-0.225
-0.21
-0.195
-0.18
-0.12
-0.12
-0.195
-0.235
-0.235
-0.205
-0.12
-0.09
-0.175
-0.235
-0.205
-0.165
-0.22
-0.19
-0.15
-0.18
-0.175
-0.12
-0.18
-0.185
-0.235
-0.195
-0.15
-0.155
-0.155
-0.195
-0.2
-0.155
-0.165
-0.25
-0.17
-0.165
-0.19
-0.295
-0.315
-0.245
-0.145
-0.105
-0.115
-0.155
-0.13
-0.115
-0.125
-0.145
-0.21
-0.22
-0.235
-0.17
-0.17
-0.205
-0.18
-0.205
-0.22
-0.14
-0.23
-0.215
-0.155
-0.2
-0.17
-0.185
-0.18
-0.15
-0.16
-0.13
-0.15
-0.275
-0.23
-0.15
-0.16
-0.17
-0.18
-0.255
-0.245
-0.2
-0.185
-0.135
-0.06
-0.14
-0.13
-0.135
-0.215
-0.205
-0.205
-0.18
-0.14
-0.195
-0.175
-0.18
-0.23
-0.225
-0.225
-0.19
-0.12
-0.115
-0.115
-0.12
-0.12
-0.085
-0.2
-0.22
-0.175
-0.17
-0.17
-0.22
-0.23
-0.24
-0.28
-0.3
-0.225
-0.23
-0.255
-0.2
-0.225
-0.25
-0.225
-0.18
-0.195
-0.18
-0.245
-0.305
-0.275
-0.135
-0.165
-0.23
-0.17
-0.21
-0.23
-0.2
-0.225
-0.305
-0.19
-0.15
-0.17
-0.225
-0.175
-0.225
-0.255
-0.265
-0.235
-0.235
-0.225
-0.27
-0.21
-0.195
-0.185
-0.145
-0.145
-0.08
-0.035
0.075
0.175
0.345
0.405
0.345
0.39
0.43
0.4
0.36
0.26
0.175
0.12
0.09
-0.02
-0.2
-0.18
-0.165
-0.2
-0.23
-0.235
-0.21
-0.2
-0.23
-0.225
-0.195
-0.315
-0.245
-0.23
-0.225
-0.24
-0.185
-0.205
-0.32
-0.275
-0.19
-0.205
-0.24
-0.22
-0.28
-0.28
-0.245
-0.26
-0.26
-0.245
-0.275
-0.33
-0.315
-0.215
-0.14
-0.185
-0.26
-0.245
-0.285
-0.23
-0.17
-0.225
-0.215
-0.23
-0.19
-0.205
-0.21
-0.26
-0.31
-0.21
-0.175
-0.38
-0.225
-0.2
-0.19
-0.17
-0.17
-0.245
-0.3
-0.435
-0.245
-0.12
-0.185
-0.185
-0.24
-0.2
-0.155
-0.16
-0.185
-0.15
-0.105
-0.12
-0.15
-0.125
-0.145
-0.17
-0.17
-0.25
-0.165
-0.135
-0.13
-0.115
-0.13
-0.125
-0.14
-0.205
-0.1
-0.06
-0.055
-0.07
-0.07
-0.075
-0.055
-0.075
-0.235
-0.115
-0.06
-0.09
-0.155
-0.135
-0.12
-0.16
-0.05
-0.005
-0.05
0.045
-0.05
-0.035
-0.025
-0.04
-0.07
-0.105
-0.09
-0.12
-0.07
-0.08
-0.09
-0.115
-0.135
-0.135
-0.22
-0.155
-0.115
-0.13
-0.145
-0.14
-0.215
-0.25
-0.16
-0.21
-0.24
-0.25
-0.23
-0.17
-0.21
-0.27
-0.395
-0.3
-0.22
-0.215
-0.21
-0.215
-0.17
-0.23
-0.225
-0.145
-0.17
-0.275
-0.29
-0.175
-0.25
-0.26
-0.23
-0.23
-0.33
-0.335
-0.275
-0.24
-0.205
-0.245
-0.27
-0.225
-0.265
-0.315
-0.295
-0.275
-0.32
-0.315
-0.215
-0.235
-0.275
-0.28
-0.235
-0.22
-0.23
-0.195
-0.195
-0.23
-0.225
-0.205
-0.205
-0.245
-0.24
-0.23
-0.19
-0.245
-0.245
-0.245
-0.255
-0.24
-0.225
-0.205
-0.31
-0.25
-0.16
-0.185
-0.25
-0.215
-0.205
-0.22
-0.245
-0.325
-0.305
-0.235
-0.265
-0.235
-0.14
-0.145
-0.22
-0.22
-0.245
-0.165
-0.145
-0.21
-0.165
-0.13
-0.18
-0.265
-0.225
-0.265
-0.175
-0.19
-0.24
-0.25
-0.22
-0.255
-0.21
-0.155
-0.175
-0.275
-0.245
-0.24
-0.235
-0.245
-0.26
-0.295
-0.22
-0.22
-0.195
-0.275
-0.2
-0.19
-0.195
-0.255
-0.225
-0.21
-0.235
-0.245
-0.245
-0.25
-0.245
-0.26
-0.09
-0.13
-0.175
-0.17
-0.17
-0.17
-0.2
-0.165
-0.16
-0.255
-0.32
-0.215
-0.19
-0.17
-0.185
-0.22
-0.205
-0.255
-0.28
-0.305
-0.315
-0.35
-0.285
-0.175
-0.15
-0.145
-0.215
-0.26
-0.275
-0.165
-0.16
-0.28
-0.16
-0.11
-0.08
-0.125
-0.165
-0.145
-0.165
-0.21
-0.235
-0.225
-0.24
-0.175
-0.175
-0.19
-0.175
-0.18
-0.185
-0.145
-0.17
-0.15
-0.185
-0.175
-0.25
-0.225
-0.245
-0.255
-0.205
-0.25
-0.24
-0.27
-0.15
-0.23
-0.26
-0.26
-0.225
-0.245
-0.225
-0.195
-0.22
-0.26
-0.29
-0.265
-0.215
-0.14
-0.165
-0.23
-0.21
-0.215
-0.215
-0.315
-0.19
-0.155
-0.245
-0.215
-0.15
-0.145
-0.245
-0.225
-0.255
-0.2
-0.065
-0.04
0.045
0.075
0.165
0.305
0.455
0.52
0.515
0.49
0.46
0.365
0.25
0.265
0.285
0.18
-0.045
-0.12
-0.13
-0.155
-0.14
-0.16
-0.195
-0.24
-0.255
-0.26
-0.19
-0.255
-0.225
-0.19
-0.225
-0.315
-0.22
-0.23
-0.215
-0.22
-0.245
-0.27
-0.3
-0.255
-0.26
-0.275
-0.285
-0.27
-0.285
-0.31
-0.225
-0.23
-0.26
-0.295
-0.275
-0.31
-0.345
-0.295
-0.29
-0.275
-0.26
-0.245
-0.26
-0.25
-0.23
-0.305
-0.275
-0.265
-0.215
-0.25
-0.255
-0.25
-0.28
-0.225
-0.23
-0.23
-0.295
-0.305
-0.33
-0.255
-0.22
-0.31
-0.25
-0.215
-0.225
-0.215
-0.22
-0.18
-0.295
-0.21
-0.135
-0.135
-0.2
-0.205
-0.255
-0.265
-0.175
-0.185
-0.235
-0.245
-0.145
-0.165
-0.26
-0.225
-0.14
-0.14
-0.19
-0.185
-0.195
-0.21
-0.175
-0.115
-0.08
-0.06
-0.095
-0.1
-0.225
-0.17
-0.105
-0.085
-0.135
-0.08
-0.17
-0.18
-0.15
-0.18
-0.14
-0.12
-0.105
-0.08
-0.09
-0.07
-0.09
-0.09
-0.09
-0.135
-0.165
-0.145
-0.15
-0.14
-0.16
-0.15
-0.155
-0.165
-0.14
-0.17
-0.17
-0.21
-0.235
-0.22
-0.265
-0.435
-0.32
-0.285
-0.3
-0.28
-0.225
-0.2
-0.24
-0.335
-0.275
-0.31
-0.345
-0.3
-0.285
-0.29
-0.29
-0.325
-0.29
-0.29
-0.285
-0.32
-0.285
-0.295
-0.3
-0.315
-0.3
-0.32
-0.31
-0.27
-0.37
-0.385
-0.415
-0.265
-0.245
-0.255
-0.335
-0.36
-0.305
-0.305
-0.3
-0.36
-0.355
-0.275
-0.28
-0.325
-0.285
-0.32
-0.285
-0.205
-0.265
-0.27
-0.3
-0.28
-0.275
-0.275
-0.27
-0.33
-0.365
-0.305
-0.37
-0.31
-0.3
-0.2
-0.26
-0.32
-0.325
-0.275
-0.305
-0.3
-0.3
-0.33
-0.305
-0.285
-0.265
-0.27
-0.26
-0.265
-0.28
-0.29
-0.275
-0.285
-0.3
-0.28
-0.265
-0.285
-0.255
-0.255
-0.315
-0.28
-0.265
-0.295
-0.265
-0.25
-0.315
-0.315
-0.3
-0.335
-0.32
-0.285
-0.33
-0.24
-0.335
-0.285
-0.3
-0.35
-0.385
-0.355
-0.295
-0.29
-0.33
-0.325
-0.335
-0.335
-0.34
-0.33
-0.365
-0.355
-0.315
-0.29
-0.3
-0.375
-0.345
-0.315
-0.315
-0.28
-0.24
-0.29
-0.33
-0.345
-0.25
-0.245
-0.25
-0.27
-0.25
-0.255
-0.245
-0.27
-0.32
-0.33
-0.325
-0.265
-0.26
-0.365
-0.29
-0.25
-0.26
-0.26
-0.235
-0.26
-0.315
-0.285
-0.18
-0.185
-0.23
-0.295
-0.31
-0.24
-0.185
-0.27
-0.255
-0.27
-0.265
-0.16
-0.11
-0.205
-0.29
-0.33
-0.245
-0.325
-0.315
-0.31
-0.255
-0.245
-0.235
-0.24
-0.245
-0.215
-0.185
-0.195
-0.27
-0.205
-0.165
-0.18
-0.24
-0.225
-0.25
-0.29
-0.29
-0.215
-0.245
-0.28
-0.235
-0.215
-0.215
-0.205
-0.245
-0.325
-0.26
-0.32
-0.275
-0.165
-0.12
-0.1
-0.21
-0.2
-0.19
-0.135
-0.12
-0.01
-0.05
0.165
0.355
0.33
0.425
0.565
0.545
0.39
0.355
0.325
0.195
0.145
0.14
0.04
-0.06
-0.14
-0.265
-0.23
-0.125
-0.075
-0.145
-0.15
-0.19
-0.3
-0.32
-0.265
-0.15
-0.19
-0.18
-0.08
-0.115
-0.12
-0.17
-0.18
-0.235
-0.165
-0.155
-0.135
-0.13
-0.195
-0.185
-0.15
-0.17
-0.185
-0.23
-0.215
-0.17
-0.1
-0.095
-0.145
-0.15
-0.185
-0.145
-0.08
-0.145
-0.19
-0.19
-0.21
-0.165
-0.145
-0.175
-0.155
-0.155
-0.125
-0.135
-0.145
-0.075
-0.04
-0.13
-0.09
-0.185
-0.22
-0.285
-0.015
0.0
-0.12
-0.175
-0.08
-0.07
-0.145
-0.09
-0.035
-0.08
-0.11
-0.1
0.0
-0.065
-0.025
-0.13
-0.1
0.005
-0.025
0.0
-0.06
-0.075
-0.065
-0.035
-0.02
-0.07
-0.025
0.005
0.035
-0.03
-0.12
-0.07
0.045
0.13
0.05
0.04
0.055
0.05
0.06
-0.03
-0.055
0.035
0.065
0.03
0.09
0.045
-0.1
0.05
0.195
0.1
0.06
0.07
0.115
-0.015
0.045
0.08
0.17
0.13
0.05
0.05
-0.01
-0.015
-0.045
-0.05
-0.06
-0.04
-0.03
-0.015
-0.01
-0.06
-0.12
-0.155
-0.135
-0.09
-0.01
-0.095
-0.125
-0.09
-0.065
-0.085
-0.075
-0.065
-0.125
-0.105
-0.045
-0.105
-0.18
-0.085
-0.14
-0.085
-0.055
-0.095
-0.185
-0.095
-0.065
-0.125
-0.135
-0.115
-0.085
-0.1
-0.13
-0.11
-0.08
-0.13
-0.075
-0.28
-0.225
-0.06
-0.05
-0.05
-0.135
-0.095
-0.03
0.005
-0.035
-0.11
-0.055
0.005
-0.16
-0.14
-0.065
-0.05
-0.115
-0.13
-0.07
-0.105
-0.115
-0.085
-0.05
-0.09
-0.115
-0.05
-0.045
-0.08
-0.1
-0.11
-0.11
-0.085
-0.135
-0.13
-0.105
-0.09
0.005
0.015
-0.07
-0.05
-0.04
-0.1
-0.15
-0.055
-0.075
-0.09
-0.065
-0.02
-0.095
-0.135
-0.105
-0.16
-0.135
-0.085
-0.105
-0.045
-0.07
-0.015
0.0
-0.04
-0.135
-0.155
-0.13
-0.09
-0.1
-0.14
-0.145
-0.075
-0.15
-0.125
-0.03
-0.055
-0.06
-0.02
-0.125
-0.055
-0.065
-0.075
-0.045
-0.02
-0.015
-0.015
-0.045
-0.095
-0.115
-0.085
-0.15
-0.13
-0.08
-0.035
0.015
-0.06
-0.085
-0.065
-0.04
-0.075
-0.15
-0.04
0.04
-0.095
-0.13
-0.05
-0.095
-0.1
-0.09
-0.05
-0.185
-0.21
-0.125
-0.075
-0.12
-0.05
-0.055
-0.105
-0.15
-0.125
-0.09
-0.115
-0.17
-0.19
-0.06
-0.005
-0.125
-0.08
-0.075
-0.155
-0.13
-0.195
-0.125
-0.02
-0.06
-0.075
-0.07
-0.095
-0.09
-0.11
-0.055
-0.03
-0.075
-0.11
-0.065
-0.155
-0.225
-0.13
-0.045
-0.07
-0.07
-0.03
-0.035
0.005
0.095
0.11
0.215
0.42
0.465
0.48
0.48
0.515
0.43
0.36
0.24
0.17
0.165
0.13
0.04
-0.08
-0.055
-0.05
-0.025
0.005
0.0
-0.07
-0.11
-0.07
-0.05
-0.05
-0.025
0.01
-0.115
-0.125
-0.115
-0.125
-0.13
-0.09
-0.015
-0.05
-0.095
-0.13
-0.095
-0.145
-0.155
-0.14
-0.185
-0.18
-0.355
-0.18
0.055
-0.02
-0.045
-0.125
-0.02
-0.015
-0.04
-0.04
-0.025
-0.025
-0.035
-0.045
-0.11
-0.08
-0.06
-0.105
-0.1
-0.045
-0.005
-0.06
-0.07
-0.09
-0.07
-0.035
-0.005
-0.045
-0.06
-0.095
-0.08
-0.05
-0.04
-0.085
-0.09
-0.08
-0.155
-0.17
-0.03
0.105
0.055
0.02
-0.03
-0.035
-0.03
0.01
-0.005
0.015
0.01
-0.055
-0.095
-0.09
-0.06
-0.015
-0.05
0.045
-0.02
-0.06
-0.115
0.11
0.09
0.075
0.125
0.04
-0.035
0.0
0.065
-0.05
0.095
0.065
0.06
0.15
0.14
0.105
0.12
0.08
-0.005
0.06
0.045
0.11
0.06
0.02
0.02
0.065
0.07
0.005
-0.08
-0.135
-0.085
0.005
0.01
-0.015
0.03
0.02
0.085
0.085
-0.225
-0.265
-0.005
-0.025
-0.12
-0.035
-0.105
-0.1
-0.06
-0.12
-0.14
-0.155
-0.18
-0.155
-0.18
-0.2
-0.26
-0.245
-0.25
-0.075
-0.08
-0.075
-0.025
-0.12
-0.17
-0.2
-0.21
-0.17
-0.195
-0.115
-0.115
-0.215
-0.2
-0.175
-0.135
-0.155
-0.255
-0.235
-0.2
-0.07
-0.095
-0.155
-0.115
-0.06
-0.035
-0.01
-0.07
-0.165
-0.23
-0.22
-0.175
-0.235
-0.16
-0.15
-0.19
-0.135
-0.13
-0.145
-0.19
-0.3
-0.43
-0.25
-0.215
-0.16
-0.17
-0.205
-0.175
-0.15
-0.22
-0.15
-0.17
-0.125
-0.06
-0.09
-0.1
-0.04
-0.09
-0.115
-0.055
-0.06
-0.12
-0.18
-0.205
-0.22
-0.175
-0.145
-0.125
-0.125
-0.165
-0.105
-0.07
-0.21
-0.265
-0.245
-0.185
-0.15
-0.25
-0.3
-0.205
-0.115
-0.06
-0.125
-0.115
-0.14
-0.125
-0.21
-0.18
-0.155
-0.155
-0.12
-0.135
-0.165
-0.2
-0.125
-0.125
-0.145
-0.185
-0.13
-0.11
-0.175
-0.205
-0.23
-0.36
-0.42
-0.345
-0.215
-0.09
-0.085
-0.155
-0.2
-0.135
-0.09
-0.04
0.035
0.03
-0.09
-0.155
-0.05
-0.065
-0.255
-0.325
-0.22
-0.06
-0.005
-0.05
-0.09
-0.135
-0.19
-0.17
-0.13
0.005
-0.045
-0.1
-0.04
-0.13
-0.155
-0.065
0.06
-0.075
-0.175
-0.275
-0.25
-0.19
-0.195
-0.31
-0.165
-0.265
-0.26
-0.2
-0.21
-0.205
-0.21
-0.29
-0.32
-0.285
-0.165
-0.03
-0.175
-0.215
-0.275
-0.27
-0.415
-0.365
-0.255
-0.195
-0.105
-0.025
-0.09
-0.035
0.03
0.07
0.08
0.39
0.56
0.485
0.405
0.39
0.365
0.505
0.44
0.3
0.245
0.14
-0.035
-0.085
0.0
-0.11
-0.17
-0.055
-0.04
-0.08
-0.02
0.135
0.155
0.05
-0.105
-0.38
-0.185
-0.13
-0.13
-0.045
0.04
-0.005
0.175
0.11
-0.02
-0.06
-0.01
0.03
0.115
0.045
-0.01
0.03
0.035
0.05
0.075
-0.015
0.01
-0.13
-0.145
-0.075
-0.1
-0.015
0.03
0.075
0.04
0.03
0.025
-0.035
0.03
0.09
-0.055
0.055
0.075
0.145
0.2
0.17
0.19
0.04
-0.045
0.04
0.05
-0.075
-0.1
-0.015
0.045
0.065
0.155
0.195
0.175
0.05
0.08
0.06
0.07
0.09
0.055
0.11
0.27
0.225
0.22
0.24
0.145
0.075
0.13
0.3
0.265
0.25
0.195
0.245
0.265
0.39
0.325
0.235
0.18
0.215
0.15
0.185
0.4
0.45
0.335
0.35
0.37
0.265
0.235
0.24
0.32
0.32
0.385
0.22
0.175
0.26
0.355
0.355
0.305
0.315
0.365
0.33
0.42
0.43
0.29
0.34
0.36
0.23
0.29
0.325
0.32
0.35
0.425
0.325
0.155
0.1
0.0
0.09
0.225
0.2
0.18
0.27
0.27
0.19
0.04
0.17
0.195
0.215
0.165
0.13
0.16
0.205
0.12
0.085
0.04
0.07
-0.03
-0.095
0.135
0.2
0.11
0.105
0.105
0.17
0.12
-0.005
0.02
0.14
0.215
0.205
0.165
0.04
0.155
0.12
0.08
0.06
0.075
0.135
0.175
0.22
0.325
0.35
0.045
-0.105
-0.01
0.065
0.095
0.08
-0.07
-0.03
0.185
0.05
0.065
0.135
0.13
0.16
0.11
0.045
0.155
0.125
0.065
0.09
0.12
0.43
0.365
0.205
0.16
0.175
0.195
0.23
0.085
0.07
0.055
0.085
0.045
0.215
0.305
0.22
0.235
0.235
0.085
0.235
0.18
0.115
0.145
0.145
0.155
0.13
0.135
0.23
0.32
0.135
0.1
0.115
0.125
0.075
0.065
0.15
0.235
0.23
0.175
0.18
0.18
0.07
0.155
0.31
0.29
0.26
0.19
0.155
0.365
0.37
0.29
0.265
0.105
0.105
0.115
0.125
0.15
0.305
0.31
0.15
0.085
0.08
0.095
0.205
0.33
0.29
0.175
0.23
0.22
0.33
0.34
0.29
0.29
0.165
0.055
0.175
0.345
0.51
0.415
0.355
0.325
0.145
0.24
0.27
0.22
0.34
0.405
0.255
0.22
0.215
0.25
0.24
0.215
0.17
0.32
0.365
0.15
0.25
0.385
0.355
0.255
0.34
0.31
0.325
0.33
0.325
0.3
0.34
0.365
0.445
0.555
0.315
0.07
0.185
0.255
0.215
0.165
0.175
0.22
0.1
0.06
0.155
0.225
0.29
0.26
0.27
0.425
0.43
0.415
0.39
0.41
0.545
0.59
0.705
0.685
0.86
0.945
0.875
0.955
0.93
0.82
0.65
0.715
0.68
0.7
0.595
0.47
0.45
0.37
0.445
0.465
0.41
0.49
0.51
0.37
0.435
0.495
0.555
0.5
0.285
0.33
0.305
0.36
0.315
0.305
0.325
0.35
0.31
0.34
0.395
0.35
0.445
0.365
0.32
0.385
0.475
0.575
0.51
0.455
0.365
0.435
0.41
0.525
0.39
0.38
0.4
0.375
0.355
0.43
0.445
0.425
0.535
0.43
0.28
0.415
0.55
0.585
0.635
0.515
0.395
0.365
0.345
0.47
0.61
0.66
0.39
0.32
0.39
0.4
0.29
0.505
0.54
0.46
0.415
0.475
0.465
0.39
0.395
0.45
0.51
0.585
0.65
0.6
0.485
0.43
0.505
0.335
0.42
0.39
0.38
0.475
0.675
0.68
0.615
0.525
0.485
0.54
0.65
0.645
0.59
0.52
0.65
0.61
0.515
0.34
0.54
0.67
0.695
0.605
0.65
0.685
0.745
0.64
0.58
0.545
0.535
0.605
0.59
0.51
0.61
0.53
0.615
0.68
0.67
0.775
0.585
0.535
0.55
0.625
0.605
0.345
0.37
0.58
0.52
0.63
0.71
0.56
0.5
0.4
0.425
0.385
0.42
0.515
0.545
0.6
0.68
0.735
0.64
0.47
0.525
0.535
0.475
0.55
0.565
0.68
0.73
0.53
0.365
0.37
0.48
0.38
0.35
0.335
0.35
0.55
0.505
0.29
0.38
0.635
0.61
0.5
0.565
0.575
0.51
0.465
0.59
0.525
0.445
0.44
0.56
0.675
0.58
0.585
0.64
0.56
0.435
0.54
0.64
0.59
0.585
0.63
0.675
0.655
0.685
0.63
0.57
0.425
0.425
0.55
0.6
0.525
0.5
0.53
0.695
0.685
0.485
0.635
0.64
0.525
0.49
0.605
0.685
0.535
0.595
0.61
0.57
0.54
0.545
0.685
0.74
0.735
0.625
0.525
0.48
0.525
0.535
0.45
0.63
0.805
0.64
0.47
0.38
0.62
0.76
0.635
0.62
0.605
0.635
0.615
0.655
0.665
0.635
0.75
0.81
0.63
0.665
0.7
0.665
0.6
0.61
0.73
0.675
0.735
0.705
0.66
0.62
0.585
0.7
0.76
0.725
0.685
0.61
0.62
0.685
0.7
0.6
0.555
0.595
0.63
0.62
0.66
0.605
0.46
0.455
0.745
0.785
0.72
0.58
0.695
0.64
0.615
0.745
0.65
0.55
0.57
0.66
0.8
0.655
0.515
0.505
0.61
0.69
0.68
0.665
0.715
0.715
0.78
0.795
0.73
0.615
0.66
0.74
0.76
0.77
0.645
0.645
0.84
0.91
0.665
0.59
0.675
0.73
0.85
0.91
0.925
1.075
1.195
1.335
1.285
1.28
1.285
1.24
1.285
1.34
1.26
1.175
1.09
1.13
1.0
0.755
0.795
0.845
0.65
0.685
0.545
0.785
0.805
0.71
0.71
0.65
0.73
0.65
0.61
0.755
0.75
0.65
0.665
0.695
0.685
0.675
0.675
0.625
0.675
0.645
0.73
0.775
0.735
0.635
0.715
0.655
0.855
0.84
0.755
0.58
0.61
0.575
0.67
0.785
0.7
0.655
0.705
0.77
0.79
0.745
0.745
0.63
0.77
0.755
0.745
0.695
0.725
0.665
0.64
0.715
0.78
0.705
0.74
0.875
0.885
0.625
0.6
0.61
0.63
0.63
0.63
0.705
0.73
0.8
0.71
0.64
0.61
0.68
0.76
0.79
0.72
0.665
0.69
0.735
0.705
0.685
0.675
0.74
0.685
0.64
0.745
0.87
0.87
0.88
0.945
0.82
0.735
0.86
0.77
0.78
0.82
0.83
0.87
0.85
0.805
0.925
0.835
0.815
0.775
0.825
0.905
0.895
0.855
0.83
0.88
0.925
0.915
0.8
0.83
0.88
0.905
0.915
0.9
0.8
0.765
0.71
0.8
0.835
0.84
0.81
0.75
0.705
0.785
0.815
0.755
0.835
0.66
0.685
0.64
0.645
0.695
0.77
0.695
0.615
0.595
0.58
0.69
0.66
0.675
0.65
0.56
0.74
0.735
0.775
0.66
0.545
0.665
0.675
0.745
0.75
0.73
0.75
0.78
0.8
0.635
0.645
0.7
0.84
0.765
0.705
0.69
0.695
0.76
0.77
0.655
0.65
0.665
0.79
0.78
0.555
0.69
0.855
0.86
0.745
0.785
0.73
0.76
0.675
0.535
0.54
0.605
0.77
0.76
0.74
0.775
0.745
0.66
0.505
0.58
0.665
0.615
0.615
0.625
0.635
0.595
0.615
0.715
0.73
0.655
0.595
0.53
0.535
0.65
0.72
0.7
0.63
0.605
0.665
0.695
0.74
0.825
0.825
0.775
0.645
0.645
0.595
0.57
0.63
0.91
0.825
0.605
0.535
0.68
0.765
0.76
0.725
0.715
0.79
0.76
0.765
0.785
0.8
0.75
0.675
0.65
0.615
0.58
0.635
0.595
0.645
0.69
0.68
0.675
0.67
0.715
0.64
0.66
0.725
0.68
0.64
0.705
0.67
0.595
0.55
0.605
0.59
0.56
0.545
0.74
0.8
0.735
0.655
0.605
0.46
0.545
0.66
0.65
0.645
0.68
0.665
0.69
0.64
0.57
0.63
0.615
0.63
0.73
0.84
0.93
0.98
1.115
1.2
1.215
1.28
1.22
1.255
1.275
1.27
1.19
1.095
1.035
0.92
0.795
0.655
0.645
0.69
0.73
0.635
0.65
0.775
0.74
0.7
0.71
0.6
0.535
0.585
0.615
0.7
0.6
0.535
0.535
0.72
0.71
0.67
0.68
0.645
0.61
0.615
0.67
0.71
0.67
0.66
0.58
0.84
0.755
0.715
0.64
0.695
0.665
0.61
0.65
0.675
0.675
0.67
0.64
0.6
0.625
0.695
0.755
0.75
0.635
0.57
0.59
0.67
0.615
0.64
0.72
0.785
0.795
0.685
0.685
0.68
0.58
0.585
0.66
0.735
0.88
0.695
0.575
0.57
0.55
0.595
0.73
0.7
0.835
0.715
0.665
0.68
0.695
0.705
0.865
0.755
0.75
0.68
0.735
0.665
0.74
0.79
0.76
0.765
0.8
0.745
0.715
0.685
0.61
0.705
0.98
0.915
0.805
0.79
0.845
0.765
0.71
0.735
0.82
0.82
0.855
0.805
0.745
0.725
0.725
0.74
0.82
0.755
0.715
0.82
0.685
0.545
0.905
0.915
0.84
0.77
0.67
0.69
0.665
0.62
0.655
0.69
0.62
0.47
0.57
0.665
0.67
0.615
0.555
0.59
0.53
0.555
0.5
0.58
0.465
0.45
0.52
0.63
0.675
0.72
0.615
0.6
0.54
0.58
0.64
0.51
0.535
0.485
0.465
0.505
0.54
0.54
0.495
0.475
0.48
0.51
0.495
0.63
0.725
0.655
0.555
0.505
0.405
0.39
0.435
0.59
0.6
0.58
0.455
0.49
0.495
0.44
0.525
0.585
0.48
0.46
0.425
0.595
0.625
0.6
0.58
0.575
0.49
0.435
0.36
0.575
0.675
0.595
0.545
0.56
0.575
0.515
0.52
0.515
0.49
0.5
0.495
0.565
0.485
0.525
0.445
0.415
0.455
0.61
0.6
0.51
0.565
0.53
0.445
0.435
0.43
0.535
0.64
0.605
0.54
0.565
0.535
0.425
0.46
0.555
0.385
0.475
0.475
0.47
0.41
0.405
0.445
0.425
0.355
0.515
0.6
0.605
0.48
0.325
0.35
0.41
0.43
0.435
0.43
0.375
0.345
0.315
0.325
0.48
0.515
0.5
0.39
0.385
0.355
0.365
0.42
0.52
0.385
0.46
0.44
0.365
0.375
0.43
0.365
0.35
0.355
0.355
0.41
0.435
0.46
0.57
0.535
0.6
0.665
0.675
0.855
0.985
1.025
1.0
0.97
1.03
1.005
0.955
0.89
0.785
0.69
0.66
0.49
0.375
0.32
0.4
0.35
0.395
0.34
0.37
0.425
0.41
0.455
0.43
0.355
0.405
0.31
0.27
0.29
0.29
0.365
0.33
0.41
0.425
0.38
0.37
0.35
0.385
0.41
0.395
0.34
0.37
0.385
0.425
0.4
0.415
0.395
0.24
0.24
0.355
0.475
0.39
0.24
0.245
0.45
0.46
0.48
0.455
0.43
0.435
0.375
0.35
0.425
0.41
0.365
0.35
0.355
0.36
0.38
0.37
0.33
0.37
0.435
0.395
0.365
0.36
0.36
0.335
0.39
0.4
0.39
0.37
0.33
0.385
0.375
0.43
0.43
0.43
0.505
0.31
0.175
0.345
0.585
0.585
0.645
0.49
0.435
0.325
0.445
0.495
0.465
0.475
0.37
0.375
0.45
0.435
0.425
0.465
0.435
0.385
0.45
0.465
0.34
0.405
0.595
0.485
0.5
0.49
0.465
0.4
0.42
0.42
0.505
0.475
0.51
0.41
0.375
0.365
0.42
0.385
0.34
0.43
0.47
0.4
0.295
0.23
0.23
0.22
0.34
0.285
0.255
0.255
0.155
-0.035
0.285
0.34
0.255
0.26
0.24
0.175
0.14
0.185
0.21
0.13
0.18
0.155
0.215
0.225
0.12
0.19
0.16
0.22
0.23
0.21
0.12
0.085
0.14
0.15
0.12
0.095
0.2
0.16
0.07
0.145
0.13
0.13
0.11
0.36
0.28
0.2
0.2
0.215
0.155
0.105
0.155
0.085
0.155
0.22
0.245
0.2
0.255
0.135
0.185
0.165
0.115
0.155
0.19
0.12
-0.125
0.03
0.085
0.21
0.09
0.18
0.225
0.17
0.095
0.065
0.115
0.115
0.15
0.06
0.115
0.115
0.12
0.185
0.11
0.105
0.12
0.125
0.155
0.14
0.12
0.115
0.02
0.02
0.005
0.0
0.09
0.16
0.1
0.135
0.085
0.06
0.065
0.19
0.23
0.13
0.13
0.065
0.065
0.105
0.085
0.02
-0.03
-0.015
-0.025
-0.01
0.025
-0.015
0.0
0.025
0.015
0.015
-0.025
-0.105
0.0
0.015
0.025
0.065
0.04
0.02
-0.03
-0.035
0.015
0.015
0.0
0.035
-0.015
-0.045
-0.2
-0.14
-0.13
-0.15
-0.115
-0.13
-0.22
-0.175
-0.09
-0.175
-0.195
-0.175
-0.2
-0.26
-0.155
-0.02
0.335
0.365
0.455
0.435
0.365
0.28
0.155
0.105
0.105
-0.065
-0.1
-0.135
-0.18
-0.17
-0.115
-0.145
-0.235
-0.23
-0.135
-0.24
-0.235
-0.14
-0.125
-0.145
-0.18
-0.105
-0.16
-0.2
-0.18
-0.2
-0.2
-0.175
-0.215
-0.235
-0.235
-0.145
-0.035
-0.045
-0.23
-0.285
-0.225
-0.08
-0.02
-0.1
-0.135
-0.22
-0.195
-0.18
-0.15
-0.075
-0.04
-0.195
-0.28
-0.2
-0.175
-0.085
-0.12
-0.165
-0.045
-0.135
-0.14
-0.105
-0.12
-0.075
-0.035
-0.095
-0.225
-0.22
-0.205
-0.195
-0.185
-0.045
-0.095
-0.1
-0.065
-0.105
-0.16
-0.19
-0.125
-0.11
-0.1
-0.115
-0.165
-0.13
-0.04
-0.075
-0.125
-0.08
0.015
-0.015
0.015
0.035
-0.11
-0.09
-0.025
-0.02
-0.025
-0.13
-0.065
0.03
0.0
-0.105
-0.135
-0.055
0.135
-0.005
-0.06
-0.05
0.05
0.065
-0.08
-0.045
-0.05
0.045
0.055
0.01
-0.055
0.025
0.025
-0.005
0.025
0.09
0.085
0.1
0.015
-0.12
-0.07
-0.035
-0.09
-0.04
-0.06
-0.06
-0.13
-0.185
0.005
0.035
-0.015
-0.08
-0.145
-0.175
-0.09
-0.125
-0.17
-0.11
-0.12
-0.15
-0.23
-0.07
-0.09
-0.195
-0.2
-0.18
-0.185
-0.105
-0.15
-0.16
-0.17
-0.135
-0.255
-0.23
-0.165
-0.1
-0.16
-0.14
-0.095
-0.16
-0.29
-0.335
-0.26
-0.14
-0.095
-0.125
-0.135
-0.16
-0.135
-0.215
-0.17
-0.225
-0.215
-0.13
-0.115
-0.165
-0.225
-0.165
-0.12
-0.205
-0.15
-0.085
-0.115
-0.285
-0.38
-0.15
-0.045
0.02
-0.105
-0.215
-0.125
-0.085
-0.165
-0.16
-0.075
-0.075
-0.13
-0.11
-0.135
-0.14
-0.14
-0.19
-0.265
-0.165
-0.12
-0.1
-0.125
-0.155
-0.12
-0.07
-0.075
-0.175
-0.205
-0.105
-0.135
-0.17
-0.1
-0.095
-0.16
-0.195
-0.175
-0.09
-0.12
-0.185
-0.255
-0.255
-0.105
0.035
-0.105
-0.18
-0.155
-0.215
-0.13
-0.085
-0.155
-0.12
-0.2
-0.185
-0.155
-0.085
-0.165
-0.295
-0.24
0.005
0.0
-0.225
-0.38
-0.225
-0.19
-0.13
-0.18
-0.12
-0.195
-0.15
-0.12
-0.135
-0.125
-0.16
-0.19
-0.18
-0.165
-0.205
-0.155
-0.165
-0.24
-0.16
-0.23
-0.215
-0.225
-0.315
-0.265
-0.155
-0.15
-0.1
-0.13
-0.165
-0.115
-0.02
-0.07
0.025
0.125
0.16
0.315
0.445
0.585
0.495
0.5
0.43
0.315
0.25
0.1
0.07
0.12
-0.005
-0.155
-0.195
-0.105
-0.175
-0.23
-0.23
-0.14
-0.135
-0.115
-0.05
-0.09
-0.13
-0.22
-0.22
-0.26
-0.135
-0.025
-0.09
-0.22
-0.21
-0.17
-0.2
-0.16
-0.195
-0.21
-0.155
-0.215
-0.215
-0.165
-0.17
-0.235
-0.25
-0.175
-0.115
-0.18
-0.235
-0.255
-0.34
-0.345
-0.21
-0.035
-0.09
-0.175
-0.245
-0.255
-0.285
-0.265
-0.28
-0.255
-0.295
-0.205
-0.19
-0.195
-0.21
-0.255
-0.125
-0.16
-0.25
-0.27
-0.125
-0.145
-0.145
-0.205
-0.255
-0.2
-0.22
-0.18
-0.16
-0.245
-0.125
-0.17
-0.275
-0.225
-0.29
-0.23
-0.12
-0.075
-0.21
-0.18
-0.175
-0.22
-0.15
-0.12
-0.145
-0.17
-0.17
-0.15
-0.17
-0.165
-0.065
-0.115
-0.135
-0.18
-0.11
-0.07
-0.175
-0.22
-0.18
-0.23
-0.185
-0.235
-0.19
-0.105
-0.13
-0.145
-0.175
-0.26
-0.265
-0.25
-0.11
-0.1
-0.13
-0.05
-0.05
-0.215
-0.23
-0.25
-0.25
-0.2
-0.295
-0.325
-0.4
-0.205
-0.25
-0.225
-0.205
-0.37
-0.4
-0.355
-0.375
-0.44
-0.415
-0.345
-0.285
-0.405
-0.37
-0.425
-0.455
-0.37
-0.345
-0.415
-0.43
-0.395
-0.425
-0.44
-0.41
-0.39
-0.35
-0.425
-0.285
-0.38
-0.36
-0.385
-0.46
-0.405
-0.37
-0.46
-0.425
-0.425
-0.41
-0.41
-0.405
-0.405
-0.445
-0.475
-0.4
-0.305
-0.38
-0.515
-0.44
-0.375
-0.465
-0.38
-0.39
-0.495
-0.42
-0.315
-0.38
-0.345
-0.39
-0.46
-0.49
-0.59
-0.495
-0.4
-0.46
-0.37
-0.465
-0.5
-0.495
-0.415
-0.505
-0.455
-0.395
-0.465
-0.515
-0.57
-0.455
-0.465
-0.475
-0.47
-0.405
-0.425
-0.455
-0.38
-0.465
-0.485
-0.455
-0.38
-0.455
-0.38
-0.45
-0.43
-0.475
-0.46
-0.42
-0.45
-0.43
-0.48
-0.425
-0.405
-0.47
-0.505
-0.525
-0.405
-0.5
-0.56
-0.495
-0.455
-0.335
-0.365
-0.4
-0.48
-0.59
-0.625
-0.46
-0.44
-0.425
-0.505
-0.57
-0.52
-0.49
-0.34
-0.47
-0.5
-0.5
-0.58
-0.55
-0.505
-0.46
-0.5
-0.535
-0.575
-0.525
-0.475
-0.515
-0.48
-0.395
-0.43
-0.585
-0.64
-0.54
-0.535
-0.54
-0.5
-0.505
-0.57
-0.545
-0.555
-0.575
-0.5
-0.52
-0.495
-0.465
-0.53
-0.665
-0.58
-0.405
-0.4
-0.34
-0.365
-0.205
-0.145
-0.15
-0.035
-0.015
0.005
0.115
0.14
0.075
0.075
-0.125
-0.26
-0.29
-0.26
-0.415
-0.51
-0.58
-0.59
-0.635
-0.55
-0.505
-0.575
-0.6
-0.565
-0.59
-0.555
-0.66
-0.685
-0.6
-0.555
-0.685
-0.595
-0.565
-0.61
-0.625
-0.72
-0.675
-0.675
-0.59
-0.68
-0.56
-0.6
-0.64
-0.66
-0.68
-0.63
-0.51
-0.535
-0.61
-0.69
-0.66
-0.615
-0.58
-0.6
-0.505
-0.61
-0.69
-0.865
-0.7
-0.535
-0.505
-0.53
-0.545
-0.62
-0.58
-0.595
-0.58
-0.64
-0.665
-0.58
-0.565
-0.595
-0.59
-0.535
-0.535
-0.645
-0.555
-0.575
-0.55
-0.56
-0.53
-0.615
-0.66
-0.59
-0.53
-0.445
-0.49
-0.6
-0.57
-0.495
-0.45
-0.495
-0.54
-0.63
-0.595
-0.62
-0.68
-0.495
-0.45
-0.485
-0.495
-0.455
-0.51
-0.455
-0.515
-0.5
-0.525
-0.595
-0.655
-0.395
-0.415
-0.51
-0.52
-0.54
-0.41
-0.395
-0.415
-0.47
-0.48
-0.41
-0.365
-0.425
-0.495
-0.46
-0.56
-0.48
-0.49
-0.515
-0.475
-0.58
-0.665
-0.665
-0.55
-0.495
-0.42
-0.475
-0.53
-0.56
-0.515
-0.48
-0.585
-0.545
-0.55
-0.54
-0.66
-0.515
-0.595
-0.6
-0.635
-0.655
-0.595
-0.66
-0.68
-0.66
-0.605
-0.635
-0.595
-0.575
-0.605
-0.62
-0.55
-0.64
-0.725
-0.705
-0.665
-0.56
-0.63
-0.67
-0.625
-0.695
-0.69
-0.715
-0.455
-0.485
-0.63
-0.61
-0.645
-0.655
-0.575
-0.635
-0.635
-0.61
-0.54
-0.565
-0.645
-0.72
-0.73
-0.66
-0.615
-0.66
-0.72
-0.76
-0.585
-0.62
-0.675
-0.67
-0.62
-0.64
-0.675
-0.68
-0.57
-0.525
-0.6
-0.625
-0.655
-0.6
-0.59
-0.66
-0.575
-0.575
-0.525
-0.62
-0.595
-0.685
-0.675
-0.63
-0.635
-0.675
-0.665
-0.59
-0.59
-0.66
-0.545
-0.59
-0.62
-0.585
-0.62
-0.7
-0.69
-0.615
-0.62
-0.625
-0.655
-0.725
-0.78
-0.69
-0.495
-0.545
-0.555
-0.615
-0.665
-0.635
-0.515
-0.545
-0.63
-0.615
-0.62
-0.66
-0.52
-0.64
-0.705
-0.6
-0.56
-0.57
-0.555
-0.65
-0.67
-0.615
-0.61
-0.63
-0.655
-0.645
-0.66
-0.575
-0.515
-0.57
-0.655
-0.605
-0.685
-0.655
-0.63
-0.67
-0.66
-0.705
-0.73
-0.775
-0.81
-0.785
-0.645
-0.74
-0.81
-0.95
-0.855
-0.87
-0.9
-0.9
-0.82
-1.005
-0.79
-0.73
-0.85
-0.82
-0.835
-0.865
-0.785
-0.68
-0.725
-0.7
-0.63
-0.625
-0.655
-0.44
-0.38
-0.4
-0.32
-0.13
-0.06
0.065
-0.065
-0.095
-0.19
-0.15
-0.205
-0.35
-0.355
-0.485
-0.65
-0.635
-0.705
-0.645
-0.695
-0.72
-0.71
-0.685
-0.735
-0.815
-0.8
-0.71
-0.66
-0.585
-0.645
-0.575
-0.645
-0.63
-0.71
-0.72
-0.67
-0.61
-0.62
-0.68
-0.65
-0.685
-0.745
-0.695
-0.61
-0.705
-0.83
-0.735
-0.605
-0.5
-0.58
-0.645
-0.725
-0.705
-0.55
-0.68
-0.77
-0.625
-0.625
-0.685
-0.62
-0.715
-0.645
-0.63
-0.58
-0.635
-0.61
-0.605
-0.55
-0.53
-0.53
-0.515
-0.67
-0.61
-0.625
-0.625
-0.63
-0.7
-0.725
-0.56
-0.52
-0.55
-0.57
-0.49
-0.545
-0.62
-0.56
-0.52
-0.555
-0.485
-0.515
-0.555
-0.57
-0.56
-0.59
-0.665
-0.62
-0.545
-0.52
-0.505
-0.53
-0.555
-0.525
-0.465
-0.495
-0.57
-0.635
-0.575
-0.505
-0.46
-0.515
-0.395
-0.435
-0.57
-0.555
-0.46
-0.395
-0.405
-0.47
-0.44
-0.46
-0.475
-0.36
-0.325
-0.39
-0.535
-0.47
-0.45
-0.415
-0.475
-0.53
-0.47
-0.525
-0.48
-0.485
-0.515
-0.52
-0.58
-0.645
-0.61
-0.555
-0.625
-0.58
-0.555
-0.55
-0.6
-0.54
-0.545
-0.61
-0.695
-0.68
-0.54
-0.495
-0.65
-0.665
-0.755
-0.695
-0.585
-0.55
-0.61
-0.645
-0.575
-0.535
-0.665
-0.59
-0.53
-0.51
-0.595
-0.67
-0.66
-0.585
-0.68
-0.635
-0.6
-0.69
-0.62
-0.59
-0.575
-0.61
-0.575
-0.59
-0.605
-0.62
-0.675
-0.485
-0.57
-0.675
-0.785
-0.625
-0.605
-0.595
-0.64
-0.555
-0.645
-0.6
-0.64
-0.58
-0.58
-0.555
-0.545
-0.53
-0.555
-0.59
-0.595
-0.68
-0.65
-0.675
-0.68
-0.685
-0.64
-0.675
-0.595
-0.55
-0.605
-0.67
-0.66
-0.66
-0.655
-0.615
-0.58
-0.525
-0.59
-0.645
-0.585
-0.56
-0.66
-0.76
-0.74
-0.755
-0.665
-0.645
-0.61
-0.615
-0.61
-0.675
-0.57
-0.46
-0.58
-0.7
-0.62
-0.58
-0.63
-0.545
-0.555
-0.55
-0.64
-0.635
-0.69
-0.68
-0.615
-0.685
-0.8
-0.56
-0.495
-0.575
-0.525
-0.495
-0.595
-0.55
-0.545
-0.6
-0.66
-0.59
-0.595
-0.645
-0.69
-0.65
-0.59
-0.46
-0.58
-0.645
-0.61
-0.665
-0.75
-0.68
-0.645
-0.655
-0.62
-0.56
-0.65
-0.65
-0.655
-0.7
-0.765
-0.56
-0.56
-0.585
-0.615
-0.54
-0.6
-0.64
-0.67
-0.645
-0.685
-0.615
-0.63
-0.625
-0.645
-0.68
-0.635
-0.645
-0.65
-0.57
-0.605
-0.57
-0.43
-0.395
-0.485
-0.41
-0.195
-0.195
-0.06
0.075
0.055
-0.025
0.115
0.065
-0.075
-0.055
-0.205
-0.365
-0.44
-0.42
-0.55
-0.75
-0.55
-0.555
-0.605
-0.57
-0.54
-0.525
-0.505
-0.505
-0.59
-0.69
-0.73
-0.625
-0.715
-0.6
-0.515
-0.54
-0.615
-0.62
-0.635
-0.66
-0.735
-0.71
-0.585
-0.615
-0.55
-0.725
-0.645
-0.61
-0.68
-0.54
-0.53
-0.525
-0.58
-0.57
-0.565
-0.51
-0.595
-0.57
-0.57
-0.555
-0.615
-0.61
-0.555
-0.51
-0.525
-0.6
-0.695
-0.675
-0.505
-0.555
-0.585
-0.515
-0.565
-0.58
-0.585
-0.555
-0.585
-0.57
-0.565
-0.605
-0.66
-0.6
-0.59
-0.54
-0.465
-0.54
-0.475
-0.495
-0.595
-0.58
-0.545
-0.565
-0.535
-0.54
-0.465
-0.485
-0.44
-0.48
-0.54
-0.52
-0.575
-0.555
-0.43
-0.44
-0.4
-0.43
-0.385
-0.49
-0.46
-0.505
-0.585
-0.475
-0.405
-0.36
-0.34
-0.4
-0.46
-0.325
-0.41
-0.385
-0.39
-0.48
-0.435
-0.46
-0.515
-0.505
-0.43
-0.495
-0.495
-0.345
-0.39
-0.52
-0.515
-0.455
-0.43
-0.4
-0.44
-0.48
-0.475
-0.415
-0.405
-0.48
-0.57
-0.57
-0.62
-0.595
-0.595
-0.66
-0.515
-0.55
-0.535
-0.595
-0.57
-0.56
-0.44
-0.48
-0.495
-0.55
-0.57
-0.53
-0.57
-0.705
-0.735
-0.56
-0.55
-0.53
-0.55
-0.565
-0.565
-0.565
-0.55
-0.62
-0.57
-0.495
-0.535
-0.51
-0.585
-0.44
-0.44
-0.48
-0.57
-0.675
-0.64
-0.54
-0.49
-0.475
-0.52
-0.565
-0.445
-0.48
-0.635
-0.725
-0.68
-0.575
-0.495
-0.45
-0.435
-0.495
-0.49
-0.61
-0.63
-0.515
-0.555
-0.505
-0.56
-0.585
-0.59
-0.55
-0.505
-0.52
-0.545
-0.55
-0.58
-0.52
-0.535
-0.455
-0.54
-0.585
-0.555
-0.585
-0.46
-0.49
-0.56
-0.42
-0.515
-0.5
-0.53
-0.58
-0.515
-0.405
-0.45
-0.53
-0.465
-0.435
-0.445
-0.575
-0.625
-0.555
-0.55
-0.56
-0.585
-0.555
-0.48
-0.55
-0.535
-0.51
-0.475
-0.465
-0.46
-0.45
-0.44
-0.535
-0.43
-0.4
-0.395
-0.415
-0.505
-0.5
-0.515
-0.44
-0.505
-0.48
-0.64
-0.53
-0.605
-0.615
-0.58
-0.485
-0.465
-0.505
-0.57
-0.445
-0.435
-0.475
-0.515
-0.51
-0.52
-0.5
-0.475
-0.555
-0.555
-0.54
-0.525
-0.5
-0.525
-0.53
-0.59
-0.47
-0.51
-0.59
-0.55
-0.49
-0.515
-0.57
-0.465
-0.43
-0.515
-0.59
-0.52
-0.41
-0.405
-0.54
-0.495
-0.525
-0.56
-0.49
-0.38
-0.325
-0.28
-0.1
-0.025
-0.045
0.065
0.155
0.19
0.215
0.16
0.075
0.09
0.0
-0.13
-0.185
-0.28
-0.365
-0.43
-0.44
-0.51
-0.535
-0.43
-0.485
-0.45
-0.405
-0.56
-0.625
-0.48
-0.425
-0.485
-0.505
-0.475
-0.455
-0.49
-0.43
-0.365
-0.455
-0.52
-0.455
-0.52
-0.535
-0.535
-0.565
-0.475
-0.46
-0.4
-0.365
-0.42
-0.445
-0.455
-0.54
-0.475
-0.46
-0.42
-0.455
-0.455
-0.525
-0.435
-0.365
-0.435
-0.52
-0.425
-0.47
-0.525
-0.395
-0.495
-0.55
-0.465
-0.515
-0.465
-0.49
-0.48
-0.455
-0.46
-0.38
-0.37
-0.42
-0.385
-0.435
-0.465
-0.39
-0.455
-0.45
-0.47
-0.435
-0.445
-0.385
-0.355
-0.345
-0.325
-0.33
-0.33
-0.445
-0.44
-0.45
-0.365
-0.375
-0.295
-0.24
-0.26
-0.26
-0.35
-0.24
-0.425
-0.335
-0.335
-0.385
-0.305
-0.31
-0.33
-0.335
-0.365
-0.31
-0.255
-0.32
-0.33
-0.325
-0.355
-0.355
-0.315
-0.265
-0.28
-0.3
-0.37
-0.285
-0.23
-0.29
-0.26
-0.34
-0.36
-0.29
-0.28
-0.405
-0.41
-0.335
-0.325
-0.255
-0.205
-0.275
-0.415
-0.41
-0.445
-0.39
-0.38
-0.34
-0.39
-0.36
-0.33
-0.37
-0.515
-0.465
-0.47
-0.515
-0.55
-0.435
-0.41
-0.395
-0.41
-0.5
-0.45
-0.47
-0.39
-0.47
-0.45
-0.415
-0.46
-0.515
-0.515
-0.455
-0.365
-0.385
-0.4
-0.445
-0.365
-0.44
-0.485
-0.375
-0.325
-0.41
-0.43
-0.48
-0.535
-0.545
-0.375
-0.37
-0.34
-0.365
-0.435
-0.525
-0.32
-0.305
-0.315
-0.33
-0.365
-0.49
-0.37
-0.375
-0.255
-0.305
-0.415
-0.375
-0.42
-0.34
-0.52
-0.515
-0.43
-0.305
-0.35
-0.365
-0.365
-0.395
-0.385
-0.335
-0.325
-0.37
-0.41
-0.33
-0.335
-0.335
-0.37
-0.35
-0.355
-0.36
-0.36
-0.3
-0.33
-0.3
-0.405
-0.37
-0.33
-0.315
-0.37
-0.31
-0.36
-0.345
-0.32
-0.365
-0.49
-0.365
-0.4
-0.26
-0.345
-0.41
-0.335
-0.39
-0.41
-0.33
-0.21
-0.23
-0.215
-0.26
-0.235
-0.295
-0.37
-0.34
-0.34
-0.31
-0.335
-0.23
-0.27
-0.33
-0.4
-0.41
-0.29
-0.305
-0.365
-0.28
-0.3
-0.37
-0.385
-0.36
-0.35
-0.29
-0.325
-0.395
-0.31
-0.275
-0.31
-0.42
-0.295
-0.3
-0.31
-0.275
-0.285
-0.405
-0.405
-0.32
-0.275
-0.285
-0.27
-0.38
-0.36
-0.445
-0.38
-0.39
-0.34
-0.305
-0.31
-0.28
-0.18
-0.165
-0.17
-0.12
-0.125
-0.13
0.09
0.385
0.415
0.51
0.47
0.48
0.445
0.305
0.215
0.13
0.03
-0.05
-0.18
-0.235
-0.21
-0.2
-0.245
-0.29
-0.32
-0.31
-0.24
-0.235
-0.26
-0.24
-0.21
-0.325
-0.28
-0.37
-0.2
-0.24
-0.24
-0.31
-0.335
-0.22
-0.265
-0.285
-0.29
-0.27
-0.24
-0.215
-0.225
-0.185
-0.325
-0.32
-0.315
-0.335
-0.185
-0.235
-0.26
-0.345
-0.345
-0.21
-0.235
-0.245
-0.245
-0.285
-0.285
-0.19
-0.195
-0.195
-0.105
-0.115
-0.2
-0.275
-0.24
-0.255
-0.205
-0.19
-0.19
-0.16
-0.115
-0.155
-0.25
-0.28
-0.24
-0.195
-0.215
-0.215
-0.2
-0.21
-0.265
-0.265
-0.205
-0.18
-0.11
-0.26
-0.19
-0.095
-0.18
-0.175
-0.11
-0.125
-0.155
-0.19
-0.115
-0.135
-0.15
-0.195
-0.205
-0.17
-0.025
