# TIPE ECG 2021 - ECG-ID Database v1.0.0 par Physionet
# [N° de la personne, N° de l'enregistrement, Période d'échantillonnage, Prénom, Age, Sexe, Date de l'enregistrement]
[44, 1, 0.002, "Enora", 32, "F", "12.05.2005"]
-0.005
-0.005
-0.005
-0.005
-0.005
-0.005
-0.005
-0.005
-0.005
-0.005
-0.005
-0.005
-0.005
-0.005
-0.005
-0.005
-0.005
-0.005
-0.005
-0.005
-0.005
-0.005
-0.005
-0.005
-0.005
-0.005
-0.005
-0.005
-0.005
-0.005
-0.005
-0.005
-0.005
-0.005
-0.005
-0.005
-0.005
-0.005
-0.005
-0.005
-0.005
-0.005
-0.005
-0.005
-0.005
-0.005
-0.005
-0.005
-0.005
-0.005
-0.005
-0.005
-0.005
-0.005
-0.005
-0.005
-0.005
-0.005
-0.005
-0.005
-0.005
-0.005
-0.005
-0.005
-0.005
-0.005
-0.005
-0.005
-0.005
-0.005
-0.005
-0.005
-0.005
-0.005
-0.005
-0.005
-0.005
-0.005
-0.005
-0.005
-0.005
-0.005
-0.005
-0.005
-0.005
-0.005
-0.005
-0.005
-0.005
-0.005
-0.005
-0.005
-0.005
-0.005
-0.005
-0.005
-0.005
-0.005
-0.005
-0.005
-0.005
-0.005
-0.005
-0.005
-0.005
-0.005
-0.005
-0.005
-0.005
-0.005
-0.005
-0.005
-0.005
-0.005
-0.005
-0.005
-0.005
-0.005
-0.005
-0.005
-0.005
-0.005
-0.005
-0.005
-0.005
-0.005
-0.005
-0.005
-0.005
-0.005
-0.005
-0.005
-0.005
-0.005
-0.005
-0.005
-0.005
-0.005
-0.005
-0.005
-0.005
-0.005
-0.005
-0.005
-0.005
-0.005
-0.005
-0.005
-0.005
-0.005
-0.005
-0.005
-0.005
-0.005
-0.005
-0.005
-0.005
-0.005
-0.005
-0.005
-0.005
-0.005
-0.005
-0.005
-0.005
-0.005
-0.005
-0.005
-0.005
-0.005
-0.005
-0.005
-0.005
-0.005
-0.005
-0.005
-0.005
-0.005
-0.005
-0.005
-0.005
-0.005
-0.005
-0.005
-0.005
-0.005
-0.005
-0.005
-0.005
-0.005
-0.005
-0.005
-0.005
-0.005
-0.005
-0.005
-0.005
-0.005
-0.005
-0.005
-0.005
-0.005
-0.005
-0.005
-0.005
-0.005
-0.005
-0.005
-0.005
-0.005
-0.005
-0.005
-0.005
-0.005
-0.005
-0.005
-0.005
-0.005
-0.005
-0.005
-0.005
-0.005
-0.005
-0.005
-0.005
-0.005
-0.005
-0.005
-0.005
-0.005
-0.005
-0.005
-0.005
-0.005
-0.005
-0.005
-0.005
-0.005
-0.005
-0.005
-0.005
-0.005
-0.005
-0.005
-0.005
-0.005
-0.005
-0.005
-0.005
-0.005
-0.005
-0.005
-0.005
-0.005
-0.005
-0.005
-0.005
-0.005
-0.005
-0.005
-0.005
-0.005
-0.005
-0.005
-0.005
-0.005
-0.005
-0.005
-0.005
-0.005
-0.005
-0.005
-0.005
-0.005
-0.005
-0.005
-0.005
-0.005
-0.005
-0.005
-0.005
-0.005
-0.005
-0.005
-0.005
-0.005
-0.005
-0.005
-0.005
-0.005
-0.005
-0.005
-0.005
-0.005
-0.005
-0.005
-0.005
-0.005
-0.005
-0.005
-0.005
-0.005
-0.005
-0.005
-0.005
-0.005
-0.005
-0.005
-0.005
-0.005
-0.005
-0.005
-0.005
-0.005
-0.005
-0.005
-0.005
-0.005
-0.005
-0.005
-0.005
-0.005
-0.005
-0.005
-0.005
-0.005
-0.005
-0.005
-0.005
-0.005
-0.005
-0.005
-0.005
-0.005
-0.005
-0.005
-0.005
-0.005
-0.005
-0.005
-0.005
-0.005
-0.005
-0.005
-0.005
-0.005
-0.005
-0.005
-0.005
-0.005
-0.005
-0.005
-0.005
-0.005
-0.005
-0.005
-0.005
-0.005
-0.005
-0.005
-0.005
-0.005
-0.005
-0.005
-0.005
-0.005
-0.005
-0.005
-0.005
-0.005
-0.005
-0.005
-0.005
-0.005
-0.005
-0.005
-0.005
-0.005
-0.005
-0.005
-0.005
-0.005
-0.005
-0.005
-0.005
-0.005
-0.005
-0.005
-0.005
-0.005
-0.005
-0.005
-0.005
-0.005
-0.005
-0.005
-0.005
-0.005
-0.005
-0.005
-0.005
-0.005
-0.005
-0.005
-0.005
-0.005
-0.005
-0.005
-0.005
-0.005
-0.005
-0.005
-0.005
-0.005
-0.005
-0.005
-0.005
-0.005
-0.005
-0.005
-0.005
-0.005
-0.005
-0.005
-0.005
-0.005
-0.005
-0.005
-0.005
-0.005
-0.005
-0.005
-0.005
-0.005
-0.005
-0.005
-0.005
-0.005
-0.005
-0.005
-0.005
-0.005
-0.005
-0.005
-0.005
-0.005
-0.005
-0.005
-0.005
-0.005
-0.005
-0.005
-0.005
-0.005
-0.005
-0.005
-0.005
-0.005
-0.005
-0.005
-0.005
-0.005
-0.005
-0.005
-0.005
-0.005
-0.005
-0.005
-0.005
-0.005
-0.005
-0.005
-0.005
-0.005
-0.005
-0.005
-0.005
-0.005
-0.005
-0.005
-0.005
-0.005
-0.005
-0.005
-0.005
-0.005
-0.005
-0.005
-0.005
-0.005
-0.005
-0.005
-0.005
-0.005
-0.005
-0.005
-0.005
-0.005
-0.005
-0.005
-0.005
-0.005
-0.005
-0.005
-0.005
-0.005
-0.005
-0.005
-0.005
-0.005
-0.005
-0.005
-0.005
-0.005
-0.005
-0.005
-0.005
-0.005
-0.005
-0.005
-0.005
-0.005
-0.005
-0.005
-0.005
-0.005
-0.005
-0.005
-0.005
-0.005
-0.005
-0.005
-0.005
-0.005
-0.005
-0.005
-0.005
-0.005
-0.005
-0.005
-0.005
-0.005
-0.005
-0.005
-0.005
-0.005
-0.005
-0.005
-0.005
-0.005
-0.005
-0.005
-0.005
-0.005
-0.005
-0.005
-0.005
-0.005
-0.005
-0.005
-0.005
-0.005
-0.005
-0.005
-0.005
-0.005
-0.005
-0.005
-0.005
-0.005
-0.005
-0.005
-0.005
-0.005
-0.005
-0.005
-0.005
-0.005
-0.005
-0.005
-0.005
-0.005
-0.005
-0.005
-0.005
-0.005
-0.005
-0.005
-0.005
-0.005
-0.005
-0.005
-0.005
-0.005
-0.005
-0.005
-0.005
-0.005
-0.005
-0.005
-0.005
-0.005
-0.005
-0.005
-0.005
-0.005
-0.005
-0.005
-0.005
-0.005
-0.005
-0.005
-0.005
-0.005
-0.005
-0.005
-0.005
-0.005
-0.005
-0.005
-0.005
-0.005
-0.005
-0.005
-0.005
-0.005
-0.005
-0.005
-0.005
-0.005
-0.005
-0.005
-0.005
-0.005
-0.005
-0.005
-0.005
-0.005
-0.005
-0.005
-0.005
-0.005
-0.005
-0.005
-0.005
-0.005
-0.005
-0.005
-0.005
-0.005
-0.005
-0.005
-0.005
-0.005
-0.005
-0.005
-0.005
-0.005
-0.005
-0.005
-0.005
-0.005
-0.005
-0.005
-0.005
-0.005
-0.005
-0.005
-0.005
-0.005
-0.005
-0.005
-0.005
-0.005
-0.005
-0.005
-0.005
-0.005
-0.005
-0.005
-0.005
-0.005
-0.005
-0.005
-0.005
-0.005
-0.005
-0.005
-0.005
-0.005
-0.005
-0.005
-0.005
-0.005
-0.005
-0.005
-0.005
-0.005
-0.005
-0.005
-0.005
-0.005
-0.005
-0.005
-0.005
-0.005
-0.005
-0.005
-0.005
-0.005
-0.005
-0.005
-0.005
-0.005
-0.005
-0.005
-0.005
-0.005
-0.005
-0.005
-0.005
-0.005
-0.005
-0.005
-0.005
-0.005
-0.005
-0.005
-0.005
-0.005
-0.005
-0.005
-0.005
-0.005
-0.005
-0.005
-0.005
-0.005
-0.005
-0.005
-0.005
-0.005
-0.005
-0.005
-0.005
-0.005
-0.005
-0.005
-0.005
-0.005
-0.005
-0.005
-0.005
-0.005
-0.005
-0.005
-0.005
-0.005
-0.005
-0.005
-0.005
-0.005
-0.005
-0.005
-0.005
-0.005
-0.005
-0.005
-0.005
-0.005
-0.005
-0.005
-0.005
-0.005
-0.005
-0.005
-0.005
-0.005
-0.005
-0.005
-0.005
-0.005
-0.005
-0.005
-0.005
-0.005
-0.005
-0.005
-0.005
-0.005
-0.005
-0.005
-0.005
-0.005
-0.005
-0.005
-0.005
-0.005
-0.005
-0.005
-0.005
-0.005
-0.005
-0.005
-0.005
-0.005
-0.005
-0.005
-0.005
-0.005
-0.005
-0.005
-0.005
-0.005
-0.005
-0.005
-0.005
-0.005
-0.005
-0.005
-0.005
-0.005
-0.005
-0.005
-0.005
-0.005
-0.005
-0.005
-0.005
-0.005
-0.005
-0.005
-0.005
-0.005
-0.005
-0.005
-0.005
-0.005
-0.005
-0.005
-0.005
-0.005
-0.005
-0.005
-0.005
-0.005
-0.005
-0.005
-0.005
-0.005
-0.005
-0.005
-0.005
-0.005
-0.005
-0.005
-0.005
-0.005
-0.005
-0.005
-0.005
-0.005
-0.005
-0.005
-0.005
-0.005
-0.005
-0.005
-0.005
-0.005
-0.005
-0.005
-0.005
-0.005
-0.005
-0.005
-0.005
-0.005
-0.005
-0.005
-0.005
-0.005
-0.005
-0.005
-0.005
-0.005
-0.005
-0.005
-0.005
-0.005
-0.005
-0.005
-0.005
-0.005
-0.005
-0.005
-0.005
-0.005
-0.005
-0.005
-0.005
-0.005
-0.005
-0.005
-0.005
-0.005
-0.005
-0.005
-0.005
-0.005
-0.005
-0.005
-0.005
-0.005
-0.005
-0.005
-0.005
-0.005
-0.005
-0.005
-0.005
-0.005
-0.005
-0.005
-0.005
-0.005
-0.005
-0.005
-0.005
-0.005
-0.005
-0.005
-0.005
-0.005
-0.005
-0.005
-0.005
-0.005
-0.005
-0.005
-0.005
-0.005
-0.005
-0.005
-0.005
-0.005
-0.005
-0.005
-0.005
-0.005
-0.005
-0.005
-0.005
-0.005
-0.005
-0.005
-0.005
-0.005
-0.005
-0.005
-0.005
-0.005
-0.005
-0.005
-0.005
-0.005
-0.005
-0.005
-0.005
-0.005
-0.005
-0.005
-0.005
-0.005
-0.005
-0.005
-0.005
-0.005
-0.005
-0.005
-0.005
-0.005
-0.005
-0.005
-0.005
-0.005
-0.005
-0.005
-0.005
-0.005
-0.005
-0.005
-0.005
-0.005
-0.005
-0.005
-0.005
-0.005
-0.005
-0.005
-0.005
-0.005
-0.005
-0.005
-0.005
-0.005
-0.005
-0.005
-0.005
-0.005
-0.005
-0.005
-0.005
-0.005
-0.005
-0.005
-0.005
-0.005
-0.005
-0.005
-0.005
-0.005
-0.005
-0.005
0.99
0.98
0.985
0.98
0.98
1.015
1.025
1.035
1.03
1.01
0.985
1.0
1.01
1.03
1.04
1.045
1.045
1.065
1.09
1.085
1.075
1.05
1.06
1.045
1.045
1.08
1.08
1.105
1.125
1.14
1.12
1.1
1.135
1.13
1.15
1.13
1.125
1.145
1.14
1.105
1.105
1.09
1.11
1.135
1.125
1.115
1.11
1.12
1.105
1.1
1.06
1.025
1.04
1.075
1.085
1.065
1.05
1.04
1.035
1.005
0.98
0.94
0.985
0.965
0.96
0.925
0.98
0.975
1.02
0.945
0.895
0.94
0.955
0.95
0.93
0.955
0.965
0.955
0.945
0.95
0.915
0.89
0.9
0.875
0.88
0.92
0.95
0.96
0.945
0.925
0.895
0.915
0.92
0.915
0.93
0.94
0.92
0.945
0.92
0.905
0.87
0.88
0.89
0.91
0.885
0.885
0.93
0.93
0.94
0.915
0.905
0.91
0.925
0.905
0.9
0.92
0.945
0.965
0.96
0.915
0.875
0.895
0.935
0.925
0.91
0.905
0.895
0.94
0.925
0.93
0.91
0.925
0.89
0.875
0.905
0.925
0.895
0.915
0.94
0.93
0.91
0.905
0.92
0.92
0.925
0.915
0.915
0.93
0.935
0.9
0.875
0.88
0.905
0.885
0.895
0.935
0.935
0.945
0.96
0.925
0.895
0.915
0.935
0.94
0.93
0.91
0.905
0.905
0.9
0.89
0.865
0.89
0.915
0.9
0.925
0.945
0.905
0.92
0.925
0.915
0.86
0.885
0.89
0.885
0.9
0.895
0.915
0.915
0.895
0.88
0.865
0.9
0.89
0.905
0.905
0.9
0.935
0.925
0.9
0.89
0.865
0.86
0.875
0.91
0.92
0.925
0.925
0.92
0.905
0.885
0.88
0.875
0.895
0.895
0.89
0.91
0.955
0.94
0.925
0.92
0.905
0.9
0.915
0.935
0.935
0.95
0.98
0.98
0.97
0.98
0.95
0.975
0.995
1.005
1.02
1.015
1.03
0.99
0.975
0.94
0.935
0.94
0.95
0.955
0.905
0.9
0.955
0.935
0.915
0.91
0.905
0.91
0.89
0.865
0.885
0.87
0.88
0.86
0.875
0.885
0.86
0.89
0.89
0.885
0.895
0.895
0.885
0.86
0.835
0.815
0.835
0.845
0.87
0.895
0.875
0.89
0.895
0.87
0.86
0.865
0.85
0.855
0.84
0.87
0.87
0.835
0.875
0.875
0.86
0.87
0.845
0.86
0.915
0.98
1.085
1.22
1.345
1.425
1.52
1.57
1.53
1.47
1.41
1.37
1.28
1.15
1.035
0.88
0.705
0.62
0.64
0.64
0.665
0.69
0.73
0.77
0.795
0.8
0.815
0.805
0.84
0.845
0.825
0.835
0.82
0.84
0.86
0.85
0.855
0.83
0.86
0.875
0.895
0.89
0.885
0.87
0.84
0.835
0.83
0.8
0.835
0.82
0.845
0.87
0.865
0.875
0.845
0.835
0.835
0.83
0.855
0.86
0.855
0.875
0.865
0.88
0.89
0.87
0.86
0.83
0.855
0.885
0.87
0.9
0.905
0.925
0.91
0.81
0.84
0.825
0.83
0.86
0.875
0.86
0.86
0.9
0.885
0.88
0.84
0.865
0.885
0.865
0.895
0.915
0.905
0.925
0.93
0.915
0.91
0.905
0.9
0.925
0.92
0.925
0.925
0.945
0.95
0.96
0.94
0.97
0.975
0.98
0.985
0.975
1.01
1.035
1.02
1.0
0.985
1.01
1.025
1.005
0.99
0.975
1.0
1.035
1.015
1.005
0.995
1.0
0.99
0.98
1.0
1.0
1.025
1.045
1.0
0.965
0.97
0.965
0.935
0.935
0.91
0.86
0.955
0.92
0.9
0.865
0.84
0.845
0.85
0.88
0.86
0.855
0.885
0.87
0.88
0.875
0.84
0.865
0.835
0.795
0.815
0.81
0.845
0.85
0.83
0.835
0.82
0.84
0.835
0.83
0.81
0.81
0.835
0.795
0.83
0.85
0.81
0.78
0.735
0.77
0.805
0.785
0.775
0.795
0.78
0.76
0.75
0.83
0.81
0.79
0.77
0.795
0.805
0.78
0.81
0.79
0.755
0.77
0.815
0.81
0.795
0.805
0.82
0.82
0.775
0.755
0.755
0.77
0.775
0.72
0.805
0.79
0.8
0.79
0.775
0.765
0.785
0.81
0.785
0.785
0.76
0.79
0.79
0.79
0.79
0.78
0.755
0.81
0.795
0.795
0.785
0.82
0.81
0.775
0.76
0.73
0.72
0.775
0.79
0.785
0.795
0.8
0.81
0.795
0.765
0.745
0.745
0.76
0.735
0.77
0.765
0.775
0.795
0.745
0.745
0.735
0.75
0.755
0.74
0.76
0.78
0.76
0.775
0.78
0.76
0.755
0.79
0.75
0.76
0.755
0.765
0.755
0.765
0.725
0.73
0.71
0.69
0.735
0.74
0.76
0.755
0.74
0.74
0.74
0.71
0.71
0.705
0.715
0.735
0.725
0.74
0.75
0.75
0.735
0.76
0.73
0.72
0.725
0.755
0.75
0.76
0.765
0.76
0.76
0.76
0.75
0.74
0.74
0.74
0.71
0.73
0.755
0.76
0.77
0.745
0.74
0.775
0.79
0.805
0.795
0.795
0.82
0.795
0.77
0.755
0.735
0.755
0.74
0.75
0.765
0.775
0.78
0.755
0.73
0.715
0.68
0.665
0.685
0.68
0.675
0.68
0.695
0.69
0.675
0.675
0.66
0.685
0.685
0.68
0.68
0.66
0.675
0.685
0.655
0.645
0.65
0.65
0.63
0.67
0.66
0.67
0.69
0.67
0.64
0.625
0.67
0.71
0.7
0.66
0.67
0.69
0.7
0.695
0.65
0.635
0.64
0.645
0.66
0.675
0.645
0.715
0.825
0.905
1.0
1.105
1.235
1.285
1.24
1.215
1.21
1.155
1.095
0.925
0.785
0.63
0.535
0.47
0.445
0.45
0.48
0.48
0.495
0.525
0.555
0.565
0.62
0.63
0.655
0.72
0.7
0.69
0.67
0.665
0.65
0.655
0.68
0.665
0.655
0.655
0.64
0.675
0.69
0.65
0.635
0.62
0.625
0.64
0.645
0.625
0.65
0.66
0.69
0.675
0.67
0.655
0.67
0.665
0.655
0.67
0.67
0.695
0.715
0.705
0.675
0.67
0.69
0.71
0.695
0.685
0.72
0.73
0.7
0.67
0.635
0.675
0.7
0.69
0.685
0.67
0.67
0.68
0.69
0.67
0.685
0.665
0.69
0.695
0.695
0.69
0.7
0.715
0.725
0.705
0.705
0.71
0.73
0.735
0.745
0.76
0.745
0.815
0.8
0.77
0.78
0.775
0.79
0.775
0.75
0.76
0.765
0.785
0.805
0.805
0.8
0.81
0.82
0.845
0.835
0.825
0.835
0.86
0.825
0.765
0.78
0.8
0.825
0.835
0.85
0.83
0.83
0.835
0.81
0.785
0.745
0.75
0.765
0.755
0.77
0.76
0.74
0.74
0.72
0.7
0.695
0.675
0.68
0.655
0.68
0.68
0.685
0.68
0.65
0.595
0.605
0.63
0.65
0.65
0.63
0.605
0.615
0.645
0.615
0.61
0.61
0.645
0.62
0.625
0.615
0.615
0.635
0.635
0.625
0.62
0.6
0.625
0.6
0.59
0.615
0.61
0.645
0.625
0.6
0.585
0.575
0.595
0.585
0.585
0.61
0.605
0.615
0.595
0.605
0.585
0.565
0.57
0.59
0.58
0.58
0.585
0.595
0.59
0.585
0.57
0.595
0.615
0.605
0.615
0.595
0.6
0.63
0.64
0.6
0.585
0.615
0.615
0.63
0.615
0.595
0.585
0.575
0.57
0.59
0.585
0.595
0.595
0.58
0.57
0.565
0.585
0.615
0.59
0.565
0.56
0.545
0.55
0.535
0.565
0.585
0.6
0.615
0.59
0.57
0.54
0.54
0.585
0.57
0.565
0.575
0.555
0.59
0.61
0.575
0.56
0.56
0.58
0.57
0.59
0.59
0.57
0.58
0.56
0.535
0.515
0.545
0.545
0.54
0.57
0.58
0.565
0.595
0.56
0.54
0.53
0.55
0.57
0.575
0.555
0.5
0.515
0.555
0.555
0.53
0.51
0.525
0.54
0.54
0.545
0.55
0.565
0.565
0.56
0.54
0.535
0.555
0.565
0.57
0.565
0.565
0.585
0.595
0.595
0.59
0.59
0.615
0.61
0.62
0.64
0.625
0.66
0.655
0.63
0.595
0.565
0.53
0.595
0.59
0.6
0.605
0.6
0.575
0.565
0.53
0.54
0.53
0.54
0.525
0.54
0.535
0.55
0.545
0.555
0.51
0.48
0.505
0.505
0.51
0.535
0.525
0.54
0.54
0.525
0.495
0.475
0.49
0.5
0.515
0.505
0.5
0.525
0.53
0.485
0.455
0.505
0.515
0.535
0.52
0.56
0.55
0.54
0.55
0.51
0.515
0.495
0.52
0.515
0.53
0.5
0.49
0.565
0.58
0.64
0.705
0.815
0.92
1.045
1.125
1.09
1.045
1.06
1.03
0.915
0.745
0.625
0.505
0.36
0.305
0.31
0.315
0.39
0.38
0.375
0.38
0.46
0.49
0.48
0.495
0.5
0.515
0.545
0.535
0.515
0.505
0.525
0.525
0.535
0.535
0.555
0.515
0.525
0.54
0.525
0.515
0.52
0.525
0.505
0.505
0.55
0.55
0.53
0.535
0.555
0.525
0.53
0.53
0.55
0.595
0.59
0.6
0.585
0.575
0.57
0.555
0.585
0.59
0.565
0.565
0.59
0.6
0.58
0.585
0.56
0.52
0.56
0.56
0.565
0.58
0.56
0.565
0.585
0.56
0.53
0.55
0.585
0.6
0.575
0.555
0.58
0.63
0.64
0.625
0.575
0.575
0.58
0.61
0.635
0.64
0.675
0.68
0.685
0.68
0.665
0.64
0.685
0.685
0.675
0.665
0.69
0.715
0.71
0.645
0.675
0.675
0.685
0.71
0.735
0.73
0.73
0.76
0.735
0.71
0.705
0.69
0.71
0.72
0.71
0.695
0.715
0.77
0.785
0.74
0.705
0.72
0.725
0.69
0.67
0.665
0.675
0.67
0.67
0.665
0.635
0.61
0.61
0.59
0.615
0.625
0.605
0.615
0.615
0.575
0.55
0.54
0.58
0.585
0.545
0.52
0.535
0.545
0.57
0.535
0.505
0.53
0.57
0.555
0.545
0.545
0.535
0.535
0.55
0.53
0.5
0.515
0.515
0.505
0.545
0.585
0.55
0.58
0.545
0.515
0.555
0.545
0.54
0.545
0.56
0.565
0.545
0.555
0.53
0.52
0.505
0.515
0.54
0.515
0.52
0.53
0.55
0.54
0.52
0.525
0.51
0.545
0.545
0.545
0.52
0.525
0.545
0.545
0.535
0.515
0.505
0.515
0.53
0.535
0.51
0.5
0.555
0.58
0.6
0.565
0.535
0.54
0.55
0.535
0.56
0.57
0.59
0.56
0.54
0.51
0.505
0.53
0.545
0.54
0.555
0.545
0.52
0.515
0.535
0.55
0.54
0.54
0.55
0.54
0.525
0.52
0.525
0.55
0.54
0.515
0.515
0.52
0.61
0.6
0.55
0.565
0.545
0.565
0.535
0.535
0.535
0.545
0.555
0.545
0.52
0.495
0.495
0.52
0.55
0.56
0.55
0.54
0.56
0.55
0.525
0.525
0.495
0.5
0.53
0.535
0.535
0.545
0.565
0.55
0.525
0.535
0.54
0.55
0.525
0.57
0.575
0.575
0.615
0.615
0.61
0.575
0.59
0.61
0.605
0.61
0.64
0.63
0.645
0.64
0.625
0.575
0.56
0.58
0.61
0.585
0.565
0.575
0.56
0.565
0.555
0.51
0.525
0.52
0.51
0.515
0.51
0.55
0.535
0.505
0.51
0.505
0.51
0.5
0.5
0.515
0.51
0.53
0.535
0.52
0.495
0.53
0.525
0.51
0.51
0.515
0.52
0.525
0.51
0.5
0.48
0.48
0.515
0.51
0.53
0.495
0.495
0.515
0.49
0.45
0.445
0.45
0.505
0.53
0.53
0.51
0.55
0.655
0.725
0.815
0.93
0.98
1.135
1.205
1.135
1.07
1.035
0.99
0.85
0.71
0.61
0.47
0.37
0.29
0.305
0.34
0.345
0.425
0.42
0.44
0.455
0.45
0.5
0.51
0.515
0.47
0.49
0.51
0.515
0.48
0.485
0.495
0.515
0.525
0.52
0.52
0.535
0.505
0.535
0.53
0.515
0.52
0.51
0.515
0.53
0.53
0.55
0.56
0.545
0.535
0.51
0.53
0.525
0.5
0.535
0.545
0.565
0.57
0.585
0.53
0.49
0.51
0.49
0.51
0.545
0.54
0.555
0.61
0.585
0.555
0.545
0.525
0.54
0.56
0.55
0.575
0.605
0.605
0.605
0.58
0.565
0.565
0.555
0.565
0.58
0.595
0.59
0.605
0.58
0.555
0.5
0.565
0.6
0.575
0.595
0.6
0.6
0.62
0.59
0.6
0.61
0.63
0.635
0.645
0.63
0.61
0.65
0.66
0.67
0.685
0.625
0.6
0.68
0.69
0.695
0.69
0.74
0.755
0.725
0.69
0.68
0.715
0.72
0.69
0.69
0.695
0.7
0.695
0.675
0.665
0.64
0.66
0.665
0.63
0.61
0.615
0.63
0.625
0.605
0.585
0.56
0.565
0.54
0.53
0.535
0.545
0.55
0.56
0.59
0.565
0.51
0.545
0.515
0.53
0.515
0.5
0.535
0.55
0.52
0.485
0.49
0.54
0.495
0.47
0.5
0.505
0.515
0.515
0.495
0.49
0.475
0.495
0.525
0.505
0.48
0.515
0.53
0.53
0.525
0.465
0.48
0.48
0.475
0.495
0.51
0.515
0.525
0.545
0.515
0.49
0.49
0.51
0.515
0.515
0.51
0.54
0.52
0.495
0.48
0.485
0.495
0.49
0.475
0.51
0.505
0.515
0.51
0.5
0.5
0.475
0.49
0.475
0.49
0.495
0.49
0.52
0.53
0.5
0.475
0.485
0.5
0.5
0.495
0.505
0.52
0.515
0.53
0.495
0.495
0.48
0.49
0.475
0.52
0.55
0.53
0.52
0.53
0.545
0.52
0.47
0.51
0.505
0.5
0.495
0.505
0.525
0.535
0.525
0.515
0.495
0.505
0.505
0.515
0.515
0.505
0.515
0.515
0.505
0.495
0.49
0.495
0.5
0.51
0.515
0.515
0.515
0.495
0.47
0.505
0.485
0.49
0.49
0.495
0.515
0.52
0.53
0.54
0.505
0.48
0.465
0.49
0.49
0.49
0.5
0.505
0.54
0.545
0.53
0.495
0.47
0.51
0.495
0.505
0.52
0.53
0.54
0.515
0.54
0.525
0.52
0.535
0.555
0.565
0.575
0.59
0.615
0.63
0.625
0.58
0.565
0.565
0.56
0.56
0.575
0.585
0.6
0.575
0.535
0.525
0.52
0.52
0.515
0.495
0.505
0.495
0.495
0.5
0.465
0.465
0.49
0.5
0.505
0.485
0.45
0.47
0.51
0.485
0.44
0.435
0.435
0.425
0.43
0.475
0.495
0.51
0.5
0.47
0.45
0.43
0.42
0.455
0.46
0.48
0.435
0.45
0.51
0.485
0.455
0.42
0.42
0.445
0.48
0.495
0.5
0.51
0.495
0.46
0.495
0.575
0.715
0.85
0.97
1.055
1.19
1.215
1.11
1.065
1.04
0.91
0.82
0.67
0.565
0.42
0.285
0.28
0.265
0.265
0.265
0.28
0.345
0.365
0.39
0.41
0.43
0.46
0.475
0.5
0.46
0.44
0.45
0.445
0.445
0.465
0.465
0.48
0.45
0.46
0.44
0.42
0.415
0.43
0.46
0.46
0.47
0.48
0.455
0.445
0.415
0.44
0.465
0.465
0.45
0.465
0.46
0.51
0.5
0.45
0.48
0.49
0.49
0.47
0.485
0.48
0.51
0.53
0.545
0.54
0.55
0.495
0.485
0.46
0.485
0.485
0.47
0.5
0.475
0.445
0.47
0.47
0.49
0.485
0.505
0.53
0.535
0.555
0.52
0.52
0.52
0.505
0.52
0.525
0.56
0.53
0.525
0.58
0.545
0.51
0.52
0.555
0.57
0.6
0.585
0.595
0.62
0.61
0.6
0.515
0.56
0.645
0.59
0.615
0.625
0.615
0.665
0.665
0.655
0.635
0.625
0.62
0.67
0.645
0.67
0.655
0.68
0.635
0.585
0.55
0.635
0.645
0.585
0.59
0.59
0.57
0.58
0.575
0.585
0.58
0.52
0.51
0.5
0.49
0.505
0.495
0.5
0.485
0.48
0.45
0.42
0.41
0.425
0.445
0.485
0.425
0.47
0.465
0.435
0.435
0.44
0.445
0.42
0.395
0.41
0.39
0.39
0.4
0.4
0.41
0.395
0.37
0.375
0.41
0.43
0.385
0.405
0.425
0.385
0.4
0.37
0.39
0.4
0.405
0.385
0.38
0.405
0.405
0.385
0.39
0.41
0.41
0.37
0.375
0.395
0.375
0.37
0.365
0.36
0.36
0.355
0.405
0.37
0.395
0.39
0.37
0.415
0.405
0.37
0.36
0.35
0.38
0.41
0.37
0.385
0.395
0.405
0.385
0.36
0.355
0.335
0.345
0.36
0.37
0.355
0.375
0.41
0.385
0.395
0.385
0.405
0.4
0.375
0.37
0.38
0.365
0.4
0.375
0.35
0.36
0.39
0.41
0.4
0.405
0.39
0.39
0.41
0.395
0.4
0.38
0.37
0.345
0.345
0.365
0.375
0.37
0.38
0.38
0.36
0.33
0.335
0.365
0.355
0.34
0.355
0.4
0.37
0.395
0.38
0.34
0.365
0.36
0.37
0.35
0.365
0.39
0.405
0.385
0.4
0.345
0.37
0.39
0.385
0.39
0.41
0.43
0.415
0.395
0.375
0.38
0.4
0.42
0.435
0.44
0.465
0.505
0.485
0.465
0.44
0.425
0.435
0.415
0.38
0.405
0.4
0.46
0.44
0.445
0.43
0.355
0.37
0.365
0.36
0.345
0.33
0.34
0.375
0.36
0.345
0.32
0.345
0.37
0.35
0.34
0.3
0.34
0.355
0.375
0.325
0.31
0.32
0.35
0.355
0.325
0.31
0.385
0.36
0.335
0.31
0.32
0.32
0.32
0.36
0.32
0.365
0.38
0.345
0.365
0.315
0.31
0.29
0.305
0.38
0.335
0.315
0.395
0.375
0.31
0.285
0.325
0.43
0.545
0.67
0.8
0.95
0.935
0.925
0.83
0.775
0.77
0.645
0.505
0.425
0.285
0.265
0.195
0.105
0.1
0.15
0.16
0.195
0.23
0.265
0.36
0.37
0.37
0.325
0.32
0.35
0.335
0.34
0.335
0.36
0.35
0.365
0.395
0.37
0.36
0.345
0.355
0.385
0.305
0.315
0.385
0.475
0.355
0.39
0.335
0.36
0.36
0.36
0.365
0.375
0.42
0.45
0.385
0.38
0.365
0.375
0.38
0.38
0.375
0.405
0.37
0.4
0.425
0.38
0.38
0.42
0.385
0.42
0.415
0.415
0.405
0.435
0.435
0.42
0.41
0.4
0.415
0.415
0.415
0.49
0.46
0.485
0.475
0.495
0.44
0.43
0.425
0.465
0.465
0.475
0.54
0.545
0.51
0.55
0.525
0.47
0.545
0.505
0.545
0.57
0.555
0.575
0.58
0.565
0.575
0.55
0.575
0.59
0.655
0.625
0.625
0.65
0.625
0.575
0.565
0.58
0.605
0.665
0.665
0.67
0.69
0.7
0.67
0.565
0.57
0.58
0.615
0.615
0.61
0.605
0.615
0.555
0.56
0.585
0.51
0.51
0.505
0.495
0.51
0.49
0.48
0.505
0.505
0.46
0.42
0.445
0.48
0.45
0.48
0.47
0.46
0.46
0.455
0.395
0.34
0.36
0.405
0.4
0.455
0.45
0.46
0.435
0.49
0.395
0.35
0.4
0.425
0.45
0.46
0.345
0.43
0.4
0.42
0.38
0.35
0.345
0.365
0.4
0.425
0.41
0.41
0.43
0.42
0.36
0.33
0.36
0.425
0.41
0.43
0.425
0.415
0.42
0.405
0.39
0.41
0.36
0.385
0.395
0.4
0.4
0.41
0.4
0.435
0.41
0.36
0.39
0.37
0.35
0.38
0.425
0.45
0.435
0.415
0.43
0.415
0.435
0.455
0.41
0.365
0.45
0.4
0.37
0.435
0.425
0.39
0.435
0.385
0.405
0.43
0.42
0.435
0.475
0.435
0.39
0.42
0.465
0.4
0.4
0.41
0.425
0.46
0.41
0.405
0.37
0.375
0.385
0.375
0.395
0.385
0.41
0.44
0.41
0.375
0.395
0.425
0.425
0.42
0.41
0.375
0.395
0.415
0.405
0.41
0.395
0.395
0.415
0.425
0.415
0.42
0.45
0.435
0.41
0.405
0.375
0.39
0.365
0.405
0.405
0.42
0.415
0.455
0.405
0.445
0.405
0.395
0.415
0.43
0.445
0.44
0.49
0.495
0.47
0.455
0.405
0.49
0.48
0.505
0.55
0.535
0.55
0.54
0.5
0.465
0.465
0.455
0.46
0.435
0.455
0.465
0.44
0.425
0.44
0.405
0.385
0.39
0.38
0.365
0.37
0.395
0.41
0.42
0.395
0.395
0.35
0.335
0.355
0.34
0.37
0.385
0.415
0.41
0.38
0.35
0.345
0.345
0.35
0.355
0.32
0.39
0.39
0.335
0.355
0.355
0.34
0.32
0.35
0.355
0.33
0.36
0.36
0.32
0.34
0.37
0.345
0.38
0.32
0.3
0.385
0.51
0.64
0.82
0.97
1.09
1.225
1.315
1.255
1.245
1.23
1.12
0.945
0.8
0.645
0.44
0.255
0.205
0.21
0.21
0.195
0.23
0.275
0.295
0.295
0.31
0.325
0.345
0.365
0.375
0.375
0.385
0.38
0.355
0.35
0.335
0.355
0.38
0.375
0.375
0.38
0.375
0.43
0.42
0.385
0.365
0.38
0.385
0.405
0.43
0.385
0.38
0.425
0.43
0.415
0.385
0.38
0.395
0.435
0.445
0.425
0.44
0.425
0.435
0.4
0.395
0.405
0.395
0.39
0.41
0.41
0.43
0.41
0.385
0.45
0.425
0.445
0.465
0.44
0.43
0.455
0.445
0.44
0.43
0.425
0.4
0.455
0.46
0.475
0.46
0.465
0.495
0.49
0.445
0.445
0.45
0.485
0.475
0.485
0.495
0.53
0.57
0.55
0.53
0.49
0.49
0.525
0.56
0.56
0.585
0.59
0.615
0.605
0.6
0.615
0.605
0.615
0.6
0.625
0.625
0.63
0.65
0.635
0.635
0.625
0.585
0.625
0.65
0.645
0.645
0.635
0.645
0.635
0.615
0.58
0.545
0.555
0.55
0.56
0.58
0.57
0.55
0.56
0.52
0.46
0.46
0.49
0.475
0.48
0.51
0.485
0.495
0.48
0.455
0.425
0.42
0.415
0.4
0.42
0.415
0.425
0.445
0.435
0.41
0.39
0.405
0.42
0.425
0.43
0.405
0.41
0.46
0.445
0.455
0.39
0.405
0.4
0.405
0.435
0.445
0.43
0.43
0.45
0.405
0.39
0.4
0.45
0.445
0.415
0.4
0.42
0.405
0.385
0.38
0.375
0.38
0.38
0.38
0.405
0.41
0.415
0.43
0.41
0.385
0.36
0.36
0.39
0.395
0.39
0.4
0.415
0.415
0.42
0.4
0.375
0.38
0.41
0.41
0.385
0.435
0.445
0.445
0.425
0.415
0.395
0.385
0.395
0.405
0.4
0.395
0.425
0.42
0.415
0.385
0.395
0.415
0.41
0.435
0.45
0.44
0.445
0.445
0.445
0.41
0.405
0.405
0.42
0.42
0.43
0.425
0.445
0.455
0.44
0.405
0.415
0.45
0.45
0.425
0.46
0.465
0.465
0.41
0.405
0.425
0.415
0.45
0.47
0.46
0.47
0.455
0.45
0.445
0.435
0.43
0.425
0.465
0.52
0.505
0.525
0.54
0.575
0.565
0.53
0.51
0.555
0.535
0.525
0.55
0.555
0.515
0.525
0.515
0.495
0.455
0.455
0.44
0.43
0.43
0.425
0.405
0.415
0.395
0.395
0.385
0.38
0.355
0.38
0.4
0.415
0.4
0.445
0.445
0.415
0.365
0.39
0.405
0.395
0.4
0.36
0.39
0.41
0.405
0.395
0.365
0.355
0.385
0.385
0.37
0.375
0.38
0.38
0.38
0.38
0.36
0.39
0.375
0.37
0.335
0.32
0.315
0.33
0.31
0.285
0.28
0.39
0.52
0.675
0.88
1.015
1.17
1.3
1.285
1.22
1.185
1.18
1.075
0.845
0.705
0.545
0.365
0.23
0.21
0.18
0.155
0.17
0.22
0.23
0.27
0.315
0.375
0.38
0.38
0.385
0.385
0.43
0.385
0.355
0.37
0.355
0.395
0.4
0.37
0.36
0.355
0.36
0.39
0.42
0.4
0.4
0.4
0.41
0.41
0.405
0.4
0.375
0.395
0.41
0.42
0.425
0.43
0.42
0.435
0.425
0.415
0.435
0.44
0.445
0.415
0.435
0.485
0.475
0.45
0.46
0.43
0.445
0.445
0.445
0.455
0.465
0.475
0.45
0.43
0.445
0.425
0.435
0.445
0.465
0.49
0.48
0.49
0.47
0.46
0.475
0.475
0.505
0.505
0.52
0.51
0.53
0.55
0.535
0.54
0.52
0.535
0.535
0.535
0.575
0.59
0.59
0.61
0.605
0.64
0.585
0.58
0.605
0.63
0.635
0.63
0.64
0.665
0.66
0.64
0.625
0.655
0.66
0.665
0.68
0.67
0.67
0.69
0.66
0.64
0.63
0.65
0.66
0.65
0.655
0.615
0.6
0.645
0.64
0.585
0.555
0.555
0.55
0.56
0.555
0.535
0.53
0.52
0.505
0.465
0.455
0.47
0.49
0.48
0.485
0.48
0.495
0.465
0.435
0.415
0.425
0.465
0.455
0.455
0.445
0.435
0.445
0.425
0.425
0.435
0.365
0.44
0.43
0.44
0.46
0.44
0.445
0.45
0.435
0.415
0.4
0.425
0.41
0.425
0.415
0.425
0.44
0.425
0.425
0.39
0.38
0.425
0.395
0.425
0.405
0.4
0.47
0.44
0.43
0.4
0.385
0.42
0.425
0.415
0.42
0.445
0.43
0.415
0.43
0.42
0.385
0.44
0.43
0.425
0.425
0.425
0.435
0.435
0.42
0.4
0.41
0.415
0.41
0.4
0.435
0.44
0.45
0.445
0.43
0.405
0.415
0.42
0.42
0.44
0.42
0.42
0.45
0.45
0.43
0.405
0.4
0.415
0.44
0.44
0.415
0.455
0.455
0.455
0.43
0.39
0.4
0.41
0.435
0.455
0.455
0.49
0.485
0.455
0.43
0.415
0.425
0.415
0.425
0.42
0.415
0.43
0.445
0.43
0.435
0.4
0.42
0.42
0.415
0.43
0.465
0.465
0.44
0.465
0.445
0.445
0.445
0.44
0.44
0.435
0.435
0.45
0.475
0.485
0.49
0.475
0.49
0.495
0.52
0.525
0.545
0.535
0.55
0.54
0.49
0.505
0.5
0.515
0.505
0.51
0.49
0.46
0.47
0.45
0.42
0.41
0.435
0.4
0.4
0.395
0.415
0.41
0.4
0.415
0.4
0.39
0.405
0.4
0.415
0.415
0.425
0.44
0.43
0.405
0.385
0.38
0.38
0.375
0.39
0.41
0.43
0.43
0.44
0.39
0.35
0.36
0.38
0.37
0.39
0.38
0.415
0.44
0.405
0.38
0.36
0.345
0.335
0.35
0.39
0.395
0.39
0.435
0.515
0.65
0.775
0.9
1.04
1.175
1.215
1.18
1.155
1.16
1.06
0.88
0.71
0.58
0.425
0.285
0.24
0.22
0.235
0.27
0.275
0.265
0.3
0.305
0.34
0.355
0.365
0.375
0.395
0.415
0.39
0.375
0.38
0.39
0.385
0.38
0.41
0.405
0.4
0.435
0.415
0.395
0.375
0.395
0.395
0.41
0.43
0.425
0.44
0.435
0.425
0.365
0.385
0.38
0.45
0.41
0.43
0.44
0.45
0.435
0.435
0.41
0.39
0.39
0.38
0.445
0.43
0.42
0.445
0.455
0.44
0.42
0.405
0.415
0.405
0.38
0.44
0.475
0.46
0.475
0.5
0.48
0.45
0.455
0.45
0.45
0.46
0.45
0.49
0.49
0.485
0.455
0.46
0.475
0.49
0.49
0.5
0.49
0.51
0.505
0.485
0.495
0.525
0.545
0.55
0.56
0.555
0.58
0.58
0.565
0.555
0.555
0.53
0.6
0.605
0.605
0.64
0.645
0.655
0.655
0.615
0.59
0.6
0.615
0.615
0.61
0.605
0.615
0.63
0.64
0.595
0.575
0.57
0.56
0.555
0.565
0.555
0.54
0.57
0.55
0.545
0.535
0.505
0.49
0.49
0.475
0.45
0.45
0.49
0.475
0.42
0.45
0.445
0.445
0.44
0.455
0.445
0.475
0.47
0.405
0.4
0.405
0.405
0.41
0.44
0.455
0.45
0.44
0.455
0.44
0.425
0.405
0.405
0.405
0.425
0.44
0.395
0.45
0.46
0.44
0.4
0.4
0.415
0.425
0.41
0.425
0.44
0.46
0.445
0.435
0.405
0.395
0.415
0.415
0.42
0.41
0.435
0.46
0.435
0.42
0.395
0.38
0.42
0.445
0.43
0.44
0.44
0.445
0.43
0.435
0.415
0.4
0.415
0.39
0.39
0.425
0.425
0.465
0.44
0.445
0.45
0.43
0.435
0.44
0.42
0.45
0.44
0.445
0.465
0.475
0.445
0.425
0.445
0.455
0.45
0.46
0.455
0.465
0.44
0.44
0.45
0.445
0.465
0.45
0.455
0.44
0.455
0.485
0.485
0.455
0.455
0.44
0.42
0.425
0.43
0.45
0.425
0.47
0.475
0.42
0.415
0.4
0.43
0.41
0.44
0.435
0.46
0.48
0.455
0.425
0.41
0.425
0.44
0.445
0.46
0.43
0.47
0.47
0.455
0.46
0.46
0.48
0.48
0.46
0.465
0.475
0.485
0.49
0.48
0.48
0.48
0.485
0.505
0.515
0.52
0.55
0.555
0.57
0.57
0.54
0.495
0.5
0.53
0.495
0.495
0.495
0.51
0.54
0.52
0.5
0.47
0.455
0.435
0.42
0.39
0.415
0.475
0.465
0.435
0.42
0.41
0.415
0.445
0.44
0.45
0.435
0.46
0.455
0.44
0.425
0.41
0.415
0.43
0.455
0.44
0.415
0.485
0.465
0.43
0.415
0.415
0.44
0.43
0.42
0.41
0.42
0.455
0.435
0.445
0.435
0.42
0.425
0.39
0.375
0.41
0.415
0.445
0.445
0.425
0.46
0.545
0.655
0.775
0.89
1.025
1.15
1.15
1.06
1.05
1.005
0.915
0.765
0.62
0.51
0.37
0.245
0.25
0.255
0.26
0.26
0.27
0.29
0.335
0.36
0.375
0.4
0.415
0.405
0.44
0.445
0.435
0.44
0.435
0.42
0.43
0.43
0.455
0.435
0.44
0.44
0.405
0.415
0.445
0.445
0.43
0.445
0.475
0.455
0.445
0.405
0.42
0.44
0.43
0.43
0.455
0.455
0.48
0.455
0.415
0.4
0.43
0.45
0.46
0.475
0.465
0.475
0.475
0.455
0.445
0.435
0.45
0.455
0.445
0.48
0.465
0.48
0.485
0.49
0.47
0.45
0.465
0.465
0.445
0.465
0.495
0.505
0.485
0.48
0.48
0.445
0.495
0.515
0.515
0.505
0.5
0.525
0.53
0.51
0.51
0.465
0.515
0.535
0.535
0.55
0.565
0.58
0.595
0.58
0.565
0.55
0.58
0.58
0.605
0.61
0.615
0.65
0.635
0.61
0.6
0.585
0.615
0.62
0.62
0.63
0.62
0.62
0.62
0.625
0.605
0.56
0.545
0.53
0.565
0.565
0.565
0.575
0.585
0.54
0.515
0.485
0.505
0.495
0.475
0.48
0.485
0.51
0.49
0.435
0.445
0.41
0.45
0.44
0.43
0.425
0.46
0.47
0.45
0.435
0.425
0.39
0.4
0.405
0.415
0.405
0.41
0.45
0.445
0.395
0.365
0.365
0.385
0.39
0.39
0.41
0.395
0.415
0.39
0.41
0.39
0.37
0.37
0.42
0.39
0.395
0.39
0.42
0.42
0.38
0.385
0.395
0.4
0.39
0.39
0.37
0.38
0.41
0.425
0.41
0.41
0.39
0.41
0.39
0.395
0.4
0.425
0.415
0.415
0.405
0.385
0.38
0.395
0.4
0.43
0.405
0.405
0.435
0.435
0.385
0.38
0.39
0.38
0.41
0.43
0.415
0.43
0.425
0.405
0.38
0.37
0.375
0.395
0.415
0.425
0.42
0.435
0.44
0.42
0.41
0.41
0.395
0.39
0.385
0.42
0.415
0.425
0.44
0.415
0.405
0.38
0.375
0.4
0.385
0.395
0.395
0.405
0.4
0.405
0.41
0.38
0.395
0.39
0.39
0.395
0.39
0.4
0.41
0.41
0.38
0.385
0.385
0.385
0.395
0.39
0.39
0.42
0.415
0.375
0.365
0.35
0.405
0.405
0.395
0.395
0.405
0.405
0.39
0.415
0.385
0.375
0.385
0.39
0.41
0.395
0.385
0.41
0.45
0.41
0.41
0.405
0.37
0.385
0.425
0.435
0.455
0.49
0.475
0.47
0.465
0.49
0.495
0.5
0.48
0.485
0.505
0.495
0.465
0.465
0.45
0.45
0.44
0.415
0.425
0.405
0.405
0.445
0.415
0.405
0.375
0.365
0.39
0.38
0.39
0.37
0.365
0.385
0.37
0.365
0.35
0.385
0.375
0.36
0.38
0.385
0.37
0.4
0.405
0.36
0.38
0.335
0.325
0.35
0.365
0.395
0.385
0.395
0.37
0.355
0.315
0.36
0.37
0.37
0.37
0.4
0.4
0.365
0.355
0.36
0.35
0.345
0.36
0.36
0.4
0.47
0.59
0.7
0.825
0.915
1.01
1.075
1.03
0.97
0.955
0.88
0.795
0.67
0.535
0.385
0.22
0.165
0.165
0.175
0.205
0.225
0.28
0.305
0.26
0.325
0.345
0.375
0.35
0.35
0.365
0.37
0.375
0.375
0.365
0.34
0.335
0.345
0.345
0.345
0.37
0.375
0.405
0.405
0.365
0.35
0.345
0.355
0.37
0.36
0.39
0.38
0.38
0.405
0.365
0.35
0.375
0.385
0.365
0.37
0.405
0.395
0.4
0.37
0.355
0.37
0.37
0.37
0.37
0.405
0.41
0.39
0.4
0.405
0.39
0.35
0.365
0.37
0.375
0.385
0.405
0.4
0.43
0.42
0.39
0.375
0.365
0.37
0.385
0.405
0.385
0.415
0.44
0.43
0.405
0.405
0.4
0.41
0.42
0.44
0.435
0.435
0.465
0.46
0.44
0.445
0.435
0.455
0.47
0.465
0.485
0.5
0.48
0.485
0.505
0.47
0.5
0.49
0.495
0.52
0.515
0.525
0.52
0.515
0.49
0.46
0.5
0.51
0.51
0.515
0.53
0.53
0.5
0.465
0.455
0.425
0.45
0.44
0.43
0.435
0.43
0.455
0.455
0.41
0.415
0.38
0.385
0.39
0.375
0.36
0.36
0.39
0.39
0.36
0.36
0.325
0.32
0.35
0.355
0.33
0.34
0.37
0.345
0.3
0.295
0.3
0.305
0.315
0.335
0.35
0.33
0.345
0.33
0.32
0.325
0.315
0.315
0.295
0.32
0.335
0.315
0.315
0.335
0.31
0.31
0.28
0.305
0.32
0.3
0.31
0.33
0.36
0.345
0.315
0.285
0.28
0.305
0.29
0.295
0.275
0.32
0.35
0.325
0.305
0.295
0.285
0.32
0.3
0.28
0.325
0.33
0.355
0.325
0.315
0.305
0.31
0.305
0.305
0.31
0.305
0.315
0.31
0.295
0.31
0.28
0.29
0.31
0.315
0.34
0.315
0.32
0.34
0.295
0.29
0.29
0.295
0.3
0.305
0.31
0.3
0.32
0.33
0.325
0.29
0.275
0.295
0.305
0.295
0.31
0.305
0.325
0.31
0.305
0.29
0.27
0.285
0.3
0.295
0.295
0.315
0.315
0.345
0.295
0.275
0.265
0.28
0.295
0.31
0.315
0.33
0.35
0.32
0.305
0.26
0.285
0.295
0.295
0.295
0.27
0.3
0.325
0.315
0.295
0.275
0.255
0.28
0.265
0.275
0.3
0.285
0.31
0.34
0.3
0.27
0.23
0.24
0.265
0.29
0.305
0.305
0.305
0.3
0.275
0.265
0.26
0.275
0.28
0.285
0.29
0.27
0.31
0.265
0.285
0.305
0.3
0.305
0.31
0.3
0.3
0.32
0.32
0.305
0.285
0.285
0.31
0.36
0.37
0.35
0.38
0.41
0.425
0.41
0.395
0.365
0.35
0.385
0.365
0.355
0.36
0.36
0.365
0.345
0.315
0.28
0.28
0.295
0.275
0.295
0.285
0.275
0.29
0.28
0.295
0.27
0.275
0.28
0.27
0.295
0.275
0.27
0.285
0.27
0.255
0.235
0.23
0.24
0.26
0.26
0.24
0.265
0.295
0.27
0.275
0.245
0.26
0.275
0.25
0.255
0.265
0.275
0.28
0.25
0.26
0.205
0.225
0.24
0.255
0.26
0.26
0.265
0.29
0.28
0.24
0.255
0.355
0.475
0.605
0.74
0.84
0.995
1.03
0.93
0.885
0.85
0.79
0.66
0.505
0.39
0.23
0.12
0.07
0.06
0.045
0.045
0.115
0.18
0.19
0.185
0.205
0.24
0.235
0.23
0.2
0.195
0.2
0.23
0.255
0.255
0.25
0.26
0.265
0.27
0.265
0.24
0.245
0.25
0.255
0.26
0.26
0.285
0.265
0.24
0.25
0.245
0.27
0.26
0.25
0.275
0.27
0.28
0.28
0.255
0.225
0.215
0.27
0.265
0.275
0.25
0.24
0.26
0.255
0.305
0.27
0.245
0.28
0.295
0.295
0.295
0.285
0.285
0.295
0.275
0.26
0.26
0.275
0.27
0.25
0.28
0.3
0.315
0.285
0.31
0.32
0.315
0.31
0.31
0.33
0.325
0.315
0.33
0.325
0.32
0.325
0.325
0.34
0.335
0.335
0.335
0.365
0.39
0.38
0.355
0.34
0.365
0.38
0.39
0.38
0.38
0.405
0.405
0.4
0.4
0.4
0.4
0.42
0.425
0.42
0.425
0.445
0.45
0.435
0.425
0.39
0.405
0.4
0.375
0.365
0.37
0.365
0.375
0.375
0.35
0.34
0.31
0.355
0.345
0.31
0.31
0.33
0.325
0.29
0.275
0.25
0.265
0.265
0.255
0.26
0.255
0.27
0.245
0.26
0.235
0.21
0.22
0.22
0.255
0.265
0.25
0.26
0.24
0.23
0.2
0.19
0.19
0.2
0.22
0.21
0.205
0.205
0.225
0.22
0.2
0.205
0.21
0.21
0.21
0.205
0.2
0.21
0.24
0.22
0.205
0.175
0.195
0.23
0.22
0.21
0.21
0.24
0.235
0.21
0.2
0.19
0.215
0.185
0.195
0.225
0.215
0.225
0.23
0.205
0.185
0.16
0.2
0.205
0.205
0.2
0.205
0.195
0.175
0.185
0.21
0.22
0.21
0.225
0.225
0.225
0.245
0.26
0.255
0.215
0.2
0.205
0.205
0.245
0.235
0.23
0.225
0.245
0.23
0.23
0.205
0.21
0.21
0.22
0.22
0.235
0.24
0.25
0.235
0.205
0.185
0.21
0.22
0.23
0.215
0.235
0.23
0.235
0.21
0.2
0.195
0.23
0.195
0.235
0.235
0.2
0.22
0.22
0.22
0.2
0.17
0.225
0.22
0.18
0.21
0.215
0.215
0.24
0.21
0.195
0.205
0.185
0.235
0.255
0.21
0.22
0.225
0.235
0.22
0.19
0.19
0.195
0.175
0.185
0.21
0.22
0.2
0.195
0.185
0.185
0.19
0.19
0.185
0.185
0.205
0.22
0.23
0.215
0.175
0.18
0.16
0.185
0.17
0.18
0.185
0.205
0.215
0.19
0.21
0.19
0.165
0.17
0.17
0.2
0.185
0.195
0.23
0.205
0.185
0.18
0.175
0.175
0.185
0.19
0.18
0.17
0.19
0.2
0.19
0.17
0.155
0.2
0.175
0.2
0.185
0.195
0.23
0.22
0.2
0.2
0.22
0.235
0.245
0.255
0.27
0.29
0.31
0.305
0.26
0.255
0.235
0.26
0.255
0.255
0.22
0.245
0.26
0.23
0.205
0.18
0.18
0.185
0.175
0.165
0.145
0.155
0.165
0.185
0.14
0.125
0.13
0.12
0.145
0.17
0.16
0.17
0.16
0.165
0.165
0.135
0.125
0.13
0.115
0.145
0.14
0.155
0.145
0.145
0.14
0.11
0.135
0.14
0.145
0.16
0.165
0.125
0.14
0.135
0.14
0.105
0.13
0.11
0.115
0.12
0.125
0.13
0.135
0.095
0.16
0.265
0.39
0.53
0.63
0.755
0.915
0.91
0.83
0.795
0.745
0.61
0.51
0.375
0.255
0.09
-0.04
-0.065
-0.1
-0.07
-0.03
-0.01
0.04
0.05
0.075
0.05
0.08
0.135
0.14
0.135
0.14
0.09
0.11
0.125
0.13
0.115
0.11
0.145
0.135
0.12
0.105
0.1
0.125
0.115
0.11
0.15
0.13
0.175
0.195
0.155
0.135
0.13
0.145
0.16
0.155
0.165
0.155
0.145
0.13
0.15
0.145
0.125
0.145
0.12
0.155
0.16
0.165
0.175
0.185
0.17
0.145
0.14
0.13
0.145
0.175
0.185
0.17
0.18
0.185
0.17
0.15
0.165
0.165
0.185
0.18
0.18
0.19
0.18
0.17
0.195
0.16
0.175
0.2
0.215
0.215
0.23
0.225
0.24
0.21
0.205
0.165
0.19
0.23
0.245
0.24
0.265
0.3
0.275
0.26
0.235
0.19
0.23
0.24
0.265
0.29
0.325
0.32
0.315
0.31
0.32
0.285
0.32
0.31
0.295
0.28
0.265
0.295
0.305
0.29
0.275
0.265
0.28
0.285
0.28
0.3
0.275
0.29
0.28
0.265
0.225
0.195
0.195
0.22
0.21
0.205
0.2
0.185
0.195
0.16
0.155
0.155
0.15
0.14
0.11
0.095
0.12
0.165
0.175
0.115
0.1
0.1
0.11
0.13
0.11
0.125
0.11
0.15
0.165
0.12
0.09
0.07
0.09
0.11
0.145
0.13
0.115
0.13
0.1
0.095
0.07
0.055
0.115
0.105
0.115
0.12
0.095
0.13
0.115
0.09
0.09
0.05
0.1
0.11
0.09
0.125
0.105
0.12
0.13
0.09
0.07
0.055
0.095
0.12
0.14
0.125
0.12
0.125
0.12
0.095
0.065
0.065
0.085
0.085
0.105
0.12
0.135
0.155
0.125
0.09
0.075
0.1
0.1
0.085
0.105
0.1
0.12
0.15
0.13
0.1
0.085
0.1
0.115
0.105
0.11
0.1
0.115
0.125
0.11
0.08
0.055
0.085
0.12
0.115
0.14
0.14
0.135
0.125
0.105
0.08
0.1
0.115
0.095
0.1
0.095
0.115
0.12
0.12
0.11
0.105
0.085
0.085
0.075
0.085
0.09
0.095
0.105
0.105
0.09
0.08
0.06
0.08
0.08
0.075
0.09
0.095
0.125
0.095
0.07
0.075
0.065
0.09
0.1
0.06
0.065
0.08
0.105
0.115
0.1
0.075
0.075
0.115
0.095
0.095
0.1
0.07
0.085
0.065
0.06
0.055
0.075
0.075
0.075
0.08
0.085
0.075
0.11
0.085
0.1
0.08
0.085
0.075
0.06
0.07
0.075
0.075
0.1
0.07
0.07
0.085
0.06
0.055
0.06
0.06
0.08
0.065
0.08
0.09
0.065
0.065
0.05
0.05
0.06
0.09
0.08
0.095
0.13
0.105
0.105
0.065
0.075
0.095
0.09
0.09
0.08
0.095
0.125
0.115
0.095
0.095
0.11
0.15
0.135
0.17
0.205
0.2
0.21
0.18
0.145
0.13
0.14
0.165
0.13
0.145
0.135
0.135
0.145
0.115
0.105
0.05
0.035
0.035
0.065
0.08
0.08
0.08
0.065
0.05
0.045
0.015
0.045
0.06
0.045
0.055
0.07
0.05
0.055
0.065
0.045
0.02
0.05
0.03
0.02
0.03
0.05
0.055
0.06
0.04
0.03
0.02
0.025
0.03
0.05
0.055
0.04
0.04
0.05
0.025
0.01
0.005
0.025
-0.005
-0.01
0.045
0.03
0.035
0.065
0.13
0.23
0.345
0.475
0.615
0.725
0.82
0.775
0.73
0.7
0.62
0.46
0.295
0.175
0.03
-0.115
-0.185
-0.17
-0.15
-0.14
-0.13
-0.12
-0.09
-0.05
-0.035
-0.01
-0.005
0.025
0.025
0.055
0.015
-0.015
0.005
0.02
0.04
0.03
0.025
0.005
0.04
0.05
0.02
-0.005
-0.015
0.005
0.02
0.045
0.065
0.045
0.04
0.065
0.03
0.02
0.025
0.03
0.035
0.035
0.06
0.055
0.055
0.06
0.02
-0.005
0.01
0.03
0.05
0.04
0.05
0.07
0.08
0.06
0.01
0.03
0.03
0.065
0.08
0.075
0.08
0.07
0.08
0.07
0.065
0.035
0.035
0.06
0.055
0.075
0.1
0.1
0.12
0.095
0.09
0.065
0.08
0.085
0.08
0.11
0.105
0.12
0.12
0.105
0.085
0.095
0.105
0.135
0.155
0.155
0.14
0.16
0.145
0.155
0.15
0.145
0.16
0.185
0.17
0.175
0.195
0.215
0.19
0.195
0.16
0.135
0.15
0.17
0.19
0.22
0.205
0.215
0.215
0.195
0.12
0.115
0.165
0.15
0.165
0.15
0.155
0.15
0.13
0.125
0.08
0.06
0.06
0.09
0.095
0.09
0.07
0.08
0.06
0.03
0.03
0.005
0.03
0.025
0.025
0.025
0.03
0.045
0.035
0.015
-0.005
-0.01
-0.01
-0.02
-0.02
-0.01
-0.01
-0.005
-0.005
-0.025
-0.045
-0.03
-0.02
0.005
0.0
-0.005
0.01
0.005
-0.025
-0.025
-0.04
-0.035
-0.05
-0.045
-0.04
-0.005
-0.005
0.02
0.01
-0.005
-0.03
-0.02
-0.01
-0.005
-0.02
-0.01
-0.005
0.0
-0.005
-0.025
-0.05
-0.06
-0.025
-0.05
-0.015
-0.015
-0.025
0.005
0.02
-0.005
-0.045
-0.02
-0.02
-0.015
-0.005
-0.015
-0.015
-0.005
0.01
-0.02
-0.03
-0.035
-0.02
-0.02
0.02
0.005
-0.005
0.015
-0.01
-0.035
-0.04
-0.035
-0.015
-0.01
-0.015
-0.025
0.005
-0.005
-0.01
-0.045
-0.07
-0.045
-0.045
-0.025
-0.005
-0.01
-0.02
-0.02
-0.02
-0.035
-0.065
-0.015
-0.01
-0.04
-0.02
-0.015
0.03
0.0
-0.03
-0.06
-0.065
-0.045
-0.045
-0.045
-0.04
-0.04
-0.01
-0.015
-0.045
-0.075
-0.08
-0.055
-0.045
-0.05
-0.04
-0.05
-0.04
-0.035
-0.045
-0.05
-0.07
-0.04
-0.045
-0.06
-0.055
-0.05
-0.01
-0.035
-0.055
-0.055
-0.06
-0.06
-0.05
-0.045
-0.045
-0.04
-0.035
-0.045
-0.085
-0.075
-0.09
-0.065
-0.075
-0.05
-0.035
-0.05
-0.05
-0.05
-0.065
-0.085
-0.07
-0.055
-0.065
-0.05
-0.06
-0.07
-0.02
-0.03
-0.075
-0.09
-0.075
-0.07
-0.055
-0.06
-0.06
-0.05
-0.045
-0.06
-0.055
-0.09
-0.065
-0.06
-0.07
-0.055
-0.03
-0.025
-0.035
-0.05
-0.04
-0.05
-0.05
-0.02
-0.005
0.015
0.03
0.045
0.055
0.035
0.025
0.015
0.03
0.025
0.045
0.04
0.015
-0.01
-0.01
-0.005
-0.05
-0.11
-0.025
-0.02
-0.04
-0.05
-0.06
-0.035
-0.03
-0.065
-0.1
-0.14
-0.105
-0.09
-0.065
-0.07
-0.07
-0.055
-0.06
-0.085
-0.095
-0.12
-0.095
-0.09
-0.08
-0.065
-0.045
-0.055
-0.095
-0.1
-0.1
-0.135
-0.105
-0.09
-0.11
-0.105
-0.08
-0.07
-0.065
-0.095
-0.125
-0.115
-0.085
-0.06
-0.09
-0.1
-0.105
-0.085
-0.07
-0.095
-0.125
-0.12
-0.02
0.07
0.18
0.295
0.395
0.54
0.605
0.56
0.53
0.5
0.435
0.32
0.165
0.045
-0.095
-0.23
-0.3
-0.31
-0.325
-0.335
-0.315
-0.255
-0.225
-0.19
-0.16
-0.12
-0.115
-0.115
-0.125
-0.15
-0.1
-0.095
-0.1
-0.105
-0.115
-0.075
-0.09
-0.105
-0.13
-0.11
-0.09
-0.095
-0.09
-0.08
-0.085
-0.1
-0.09
-0.08
-0.105
-0.1
-0.085
-0.105
-0.09
-0.075
-0.065
-0.06
-0.05
-0.08
-0.11
-0.1
-0.1
-0.085
-0.08
-0.055
-0.05
-0.035
-0.05
-0.075
-0.09
-0.07
-0.065
-0.06
-0.06
-0.035
-0.055
-0.05
-0.055
-0.07
-0.075
-0.06
-0.045
-0.045
-0.055
-0.06
-0.06
-0.03
-0.01
0.0
-0.03
-0.045
-0.035
-0.025
-0.02
0.005
0.03
0.015
-0.01
-0.01
-0.045
0.0
0.035
0.035
0.035
0.01
0.065
0.065
0.04
0.03
0.015
0.04
0.055
0.075
0.1
0.1
0.12
0.115
0.105
0.09
0.075
0.085
0.08
0.09
0.085
0.1
0.115
0.11
0.09
0.09
0.09
0.12
0.085
0.045
0.03
0.03
0.06
0.04
0.03
0.05
-0.025
-0.04
0.0
-0.005
-0.02
-0.035
-0.02
-0.015
-0.015
-0.035
-0.07
-0.04
-0.055
-0.065
-0.075
-0.075
-0.055
-0.07
-0.09
-0.09
-0.105
-0.115
-0.13
-0.12
-0.1
-0.11
-0.085
-0.07
-0.105
-0.14
-0.18
-0.15
-0.12
-0.11
-0.095
-0.095
-0.095
-0.12
-0.14
-0.165
-0.16
-0.115
-0.115
-0.115
-0.105
-0.11
-0.095
-0.12
-0.145
-0.13
-0.125
-0.115
-0.135
-0.11
-0.1
-0.115
-0.105
-0.115
-0.115
-0.105
-0.11
-0.11
-0.105
-0.115
-0.135
-0.16
-0.115
-0.08
-0.13
-0.15
-0.12
-0.115
-0.155
-0.125
-0.12
-0.1
-0.06
-0.065
-0.085
-0.095
-0.08
-0.095
-0.095
-0.1
-0.085
-0.065
-0.085
-0.075
-0.105
-0.12
-0.11
-0.105
-0.105
-0.11
-0.145
-0.115
-0.095
-0.105
-0.105
-0.145
-0.14
-0.15
-0.13
-0.11
-0.145
-0.095
-0.1
-0.13
-0.135
-0.125
-0.115
-0.1
-0.105
-0.115
-0.115
-0.07
-0.065
-0.085
-0.1
-0.125
-0.115
-0.13
-0.125
-0.12
-0.075
-0.055
-0.08
-0.1
-0.15
-0.165
-0.145
-0.12
-0.105
-0.115
-0.105
-0.1
-0.11
-0.135
-0.135
-0.145
-0.13
-0.115
-0.115
-0.1
-0.11
-0.085
-0.105
-0.11
-0.09
-0.115
-0.065
-0.06
-0.075
-0.12
-0.075
-0.07
-0.11
-0.13
-0.13
-0.12
-0.095
-0.13
-0.09
-0.095
-0.125
-0.125
-0.095
-0.085
-0.135
-0.12
-0.095
-0.095
-0.09
-0.05
-0.035
-0.035
-0.08
-0.13
-0.14
-0.11
-0.115
-0.11
-0.105
-0.105
-0.08
-0.02
-0.005
0.0
-0.01
-0.01
-0.02
0.0
-0.01
0.0
-0.005
0.035
-0.005
-0.045
-0.055
-0.035
-0.005
-0.055
-0.065
-0.06
-0.055
-0.07
-0.09
-0.115
-0.14
-0.135
-0.115
-0.1
-0.095
-0.105
-0.09
-0.085
-0.105
-0.135
-0.15
-0.12
-0.095
-0.085
-0.09
-0.08
-0.08
-0.08
-0.1
-0.1
-0.115
-0.055
-0.015
-0.02
-0.06
-0.07
-0.045
-0.03
-0.04
-0.07
-0.065
-0.075
-0.04
-0.045
-0.025
-0.005
-0.01
0.0
-0.01
-0.04
-0.065
-0.05
-0.035
0.015
0.09
0.19
0.34
0.415
0.485
0.615
0.64
0.64
0.57
0.56
0.49
0.33
0.23
0.13
-0.01
-0.125
-0.16
-0.145
-0.125
-0.155
-0.155
-0.105
-0.015
0.015
0.03
0.04
0.035
0.04
0.025
0.03
0.04
0.055
0.065
0.065
0.03
0.03
0.035
0.06
0.065
0.065
0.075
0.085
0.1
0.065
0.045
0.02
0.015
0.06
0.075
0.12
0.115
0.04
0.005
0.08
0.08
0.09
0.065
0.095
0.085
0.12
0.125
0.125
0.145
0.13
0.115
0.09
0.065
0.11
0.115
0.145
0.16
0.14
0.15
0.12
0.1
0.075
0.13
0.14
0.155
0.165
0.155
0.15
0.155
0.15
0.14
0.11
0.11
0.155
0.175
0.19
0.175
0.175
0.2
0.21
0.22
0.205
0.185
0.215
0.205
0.205
0.23
0.235
0.26
0.26
0.26
0.23
0.255
0.25
0.28
0.275
0.29
0.31
0.325
0.295
0.27
0.275
0.305
0.295
0.31
0.31
0.31
0.325
0.325
0.315
0.325
0.335
0.315
0.3
0.28
0.29
0.3
0.32
0.305
0.275
0.25
0.215
0.225
0.235
0.245
0.21
0.21
0.235
0.235
0.195
0.19
0.175
0.19
0.19
0.165
0.145
0.155
0.145
0.155
0.15
0.115
0.1
0.12
0.115
0.115
0.125
0.1
0.135
0.12
0.115
0.1
0.07
0.1
0.11
0.08
0.11
0.105
0.1
0.1
0.085
0.075
0.045
0.085
0.1
0.075
0.1
0.075
0.065
0.09
0.08
0.06
0.05
0.07
0.05
0.025
0.025
0.045
0.065
0.065
0.04
0.015
0.005
0.01
0.01
0.015
0.015
0.015
0.045
0.025
-0.02
-0.04
-0.03
-0.03
-0.02
-0.025
-0.01
0.015
0.01
0.0
0.0
-0.03
-0.02
0.01
-0.01
-0.01
-0.01
0.005
0.035
0.02
-0.02
-0.025
-0.04
-0.035
-0.02
0.01
0.02
0.02
-0.005
-0.05
-0.06
-0.09
-0.04
-0.025
-0.03
-0.03
-0.03
-0.02
-0.02
-0.025
-0.07
-0.11
-0.08
-0.045
-0.04
-0.05
-0.065
-0.04
-0.04
-0.055
-0.08
-0.08
-0.07
-0.045
-0.045
-0.025
-0.015
-0.015
-0.02
-0.06
-0.075
-0.095
-0.09
-0.1
-0.055
-0.05
-0.08
-0.045
-0.04
-0.045
-0.065
-0.1
-0.07
-0.07
-0.07
-0.075
-0.095
-0.075
-0.05
-0.095
-0.115
-0.11
-0.1
-0.075
-0.085
-0.115
-0.09
-0.08
-0.07
-0.08
-0.095
-0.105
-0.085
-0.105
-0.12
-0.13
-0.065
-0.045
-0.065
-0.075
-0.075
-0.1
-0.08
-0.08
-0.095
-0.075
-0.085
-0.05
-0.045
-0.075
-0.105
-0.12
-0.115
-0.11
-0.095
-0.075
-0.075
-0.025
-0.02
-0.065
-0.035
-0.005
-0.015
-0.025
0.0
0.0
0.025
0.0
-0.025
-0.045
-0.07
-0.055
-0.055
-0.07
-0.08
-0.06
-0.09
-0.075
-0.09
-0.095
-0.12
-0.105
-0.11
-0.125
-0.11
-0.11
-0.105
-0.105
-0.13
-0.13
-0.15
-0.125
-0.125
-0.12
-0.12
-0.14
-0.11
-0.09
-0.14
-0.12
-0.105
-0.1
-0.12
-0.12
-0.12
-0.125
-0.115
-0.085
-0.1
-0.115
-0.14
-0.115
-0.1
-0.125
-0.095
-0.095
-0.09
-0.115
-0.155
-0.16
-0.13
-0.115
-0.1
-0.105
-0.09
-0.005
0.075
0.195
0.28
0.355
0.485
0.555
0.535
0.465
0.45
0.4
0.305
0.15
0.025
-0.13
-0.29
-0.36
-0.375
-0.315
-0.27
-0.255
-0.195
-0.165
-0.16
-0.17
-0.17
-0.15
-0.125
-0.105
-0.12
-0.115
-0.085
-0.11
-0.13
-0.12
-0.15
-0.11
-0.125
-0.125
-0.11
-0.095
-0.09
-0.09
-0.09
-0.115
-0.145
-0.155
-0.13
-0.1
-0.12
-0.12
-0.09
-0.1
-0.12
-0.125
-0.12
-0.09
-0.105
-0.13
-0.12
-0.085
-0.05
-0.075
-0.115
-0.12
-0.12
-0.095
-0.105
-0.1
-0.09
-0.05
-0.05
-0.11
-0.11
-0.105
-0.12
-0.11
-0.12
-0.1
-0.085
-0.06
-0.04
-0.065
-0.09
-0.135
-0.095
-0.095
-0.1
-0.075
-0.085
-0.065
-0.07
-0.065
-0.085
-0.125
-0.1
-0.075
-0.065
-0.04
-0.025
-0.015
-0.02
-0.03
-0.045
-0.04
-0.03
-0.03
0.005
-0.005
0.0
0.03
0.04
0.03
0.005
-0.01
0.005
0.02
0.005
0.03
0.025
0.07
0.07
0.055
0.015
0.0
0.02
0.03
0.03
0.03
0.005
0.035
0.03
-0.005
-0.01
-0.02
0.0
-0.015
-0.035
-0.03
-0.025
-0.015
-0.035
-0.06
-0.09
-0.1
-0.09
-0.075
-0.09
-0.08
-0.075
-0.085
-0.085
-0.11
-0.11
-0.15
-0.125
-0.135
-0.13
-0.105
-0.12
-0.13
-0.095
-0.095
-0.13
-0.165
-0.15
-0.13
-0.14
-0.125
-0.13
-0.12
-0.12
-0.13
-0.125
-0.14
-0.16
-0.16
-0.17
-0.155
-0.15
-0.13
-0.14
-0.125
-0.135
-0.17
-0.15
-0.13
-0.155
-0.175
-0.165
-0.125
-0.12
-0.155
-0.16
-0.145
-0.155
-0.145
-0.135
-0.115
-0.115
-0.115
-0.135
-0.135
-0.165
-0.155
-0.14
-0.105
-0.125
-0.115
-0.15
-0.135
-0.12
-0.125
-0.165
-0.15
-0.165
-0.15
-0.145
-0.155
-0.14
-0.13
-0.145
-0.155
-0.16
-0.155
-0.155
-0.13
-0.14
-0.135
-0.13
-0.11
-0.12
-0.14
-0.16
-0.165
-0.155
-0.135
-0.115
-0.105
-0.11
-0.1
-0.115
-0.135
-0.16
-0.16
-0.145
-0.135
-0.115
-0.125
-0.115
-0.105
-0.12
-0.15
-0.155
-0.16
-0.165
-0.155
-0.135
-0.13
-0.13
-0.135
-0.14
-0.16
-0.16
-0.155
-0.14
-0.15
-0.145
-0.145
-0.12
-0.115
-0.14
-0.16
-0.175
-0.145
-0.165
-0.17
-0.165
-0.16
-0.12
-0.105
-0.14
-0.145
-0.12
-0.125
-0.135
-0.17
-0.15
-0.135
-0.12
-0.1
-0.135
-0.165
-0.155
-0.15
-0.135
-0.145
-0.135
-0.13
-0.12
-0.15
-0.15
-0.165
-0.185
-0.175
-0.14
-0.165
-0.135
-0.115
-0.115
-0.12
-0.12
-0.13
-0.18
-0.155
-0.155
-0.125
-0.095
-0.115
-0.045
-0.055
-0.065
-0.07
-0.06
-0.02
0.015
0.01
-0.01
-0.04
-0.03
-0.065
-0.09
-0.115
-0.12
-0.1
-0.125
-0.125
-0.1
-0.095
-0.08
-0.095
-0.13
-0.17
-0.18
-0.165
-0.165
-0.165
-0.165
-0.165
-0.17
-0.135
-0.14
-0.165
-0.18
-0.155
-0.16
-0.15
-0.155
-0.16
-0.15
-0.16
-0.17
-0.185
-0.165
-0.18
-0.175
-0.15
-0.145
-0.15
-0.155
-0.16
-0.17
-0.21
-0.165
-0.16
-0.15
-0.175
-0.165
-0.115
-0.15
-0.175
-0.18
-0.165
-0.125
-0.145
-0.165
-0.11
-0.055
0.03
0.155
0.27
0.37
0.465
0.56
0.52
0.445
0.4
0.345
0.265
0.105
-0.05
-0.17
-0.315
-0.385
-0.385
-0.37
-0.35
-0.32
-0.28
-0.27
-0.23
-0.23
-0.24
-0.205
-0.17
-0.16
-0.165
-0.16
-0.155
-0.165
-0.18
-0.205
-0.2
-0.175
-0.155
-0.175
-0.16
-0.155
-0.15
-0.135
-0.155
-0.155
-0.17
-0.155
-0.17
-0.125
-0.165
-0.175
-0.125
-0.17
-0.16
-0.165
-0.18
-0.17
-0.14
-0.13
-0.14
-0.16
-0.135
-0.125
-0.16
-0.17
-0.19
-0.16
-0.16
-0.16
-0.145
-0.135
-0.105
-0.105
-0.12
-0.16
-0.17
-0.145
-0.13
-0.135
-0.115
-0.11
-0.11
-0.125
-0.15
-0.155
-0.135
-0.1
-0.1
-0.115
-0.115
-0.07
-0.055
-0.1
-0.085
-0.1
-0.115
-0.1
-0.08
-0.06
-0.035
-0.08
-0.055
-0.03
-0.055
-0.1
-0.085
-0.05
-0.055
-0.03
-0.01
-0.005
0.01
0.005
-0.025
-0.015
0.005
-0.025
-0.02
-0.025
0.0
0.055
0.075
0.05
0.01
-0.01
-0.005
0.04
0.02
0.03
0.02
-0.005
-0.01
-0.025
-0.035
-0.045
-0.02
-0.03
-0.02
-0.06
-0.06
-0.065
-0.08
-0.095
-0.115
-0.125
-0.11
-0.145
-0.135
-0.135
-0.105
-0.095
-0.095
-0.115
-0.11
-0.155
-0.16
-0.17
-0.19
-0.215
-0.16
-0.145
-0.135
-0.12
-0.155
-0.17
-0.165
-0.17
-0.165
-0.165
-0.165
-0.155
-0.14
-0.165
-0.16
-0.175
-0.155
-0.115
-0.13
-0.155
-0.155
-0.165
-0.195
-0.205
-0.18
-0.2
-0.195
-0.195
-0.165
-0.18
-0.195
-0.15
-0.165
-0.18
-0.21
-0.19
-0.165
-0.16
-0.145
-0.17
-0.17
-0.135
-0.125
-0.125
-0.135
-0.145
-0.15
-0.13
-0.125
-0.15
-0.155
-0.135
-0.13
-0.145
-0.16
-0.15
-0.14
-0.14
-0.14
-0.145
-0.145
-0.11
-0.155
-0.165
-0.185
-0.165
-0.14
-0.145
-0.14
-0.095
-0.105
-0.085
-0.13
-0.17
-0.175
-0.155
-0.12
-0.125
-0.13
-0.145
-0.13
-0.12
-0.12
-0.145
-0.165
-0.15
-0.1
-0.12
-0.13
-0.13
-0.12
-0.1
-0.125
-0.135
-0.14
-0.14
-0.13
-0.13
-0.12
-0.095
-0.09
-0.095
-0.13
-0.155
-0.19
-0.145
-0.12
-0.125
-0.12
-0.125
-0.12
-0.09
-0.11
-0.135
-0.155
-0.145
-0.14
-0.16
-0.125
-0.125
-0.11
-0.105
-0.135
-0.135
-0.155
-0.135
-0.14
-0.13
-0.125
-0.115
-0.09
-0.12
-0.115
-0.12
-0.17
-0.135
-0.16
-0.145
-0.14
-0.12
-0.085
-0.1
-0.115
-0.125
-0.13
-0.09
-0.105
-0.11
-0.105
-0.115
-0.115
-0.105
-0.1
-0.115
-0.13
-0.14
-0.155
-0.13
-0.125
-0.115
-0.085
-0.095
-0.145
-0.145
-0.125
-0.115
-0.09
-0.075
-0.045
-0.025
-0.015
0.0
-0.015
-0.035
-0.035
-0.025
-0.035
-0.025
-0.03
0.015
-0.03
-0.045
-0.06
-0.095
-0.105
-0.11
-0.12
-0.095
-0.055
-0.095
-0.085
-0.1
-0.155
-0.15
-0.165
-0.145
-0.13
-0.145
-0.145
-0.135
-0.135
-0.14
-0.175
-0.185
-0.165
-0.13
-0.14
-0.145
-0.13
-0.14
-0.14
-0.16
-0.16
-0.175
-0.13
-0.12
-0.15
-0.12
-0.135
-0.14
-0.145
-0.16
-0.175
-0.165
-0.155
-0.12
-0.135
-0.11
-0.115
-0.16
-0.165
-0.16
-0.155
-0.18
-0.16
-0.17
-0.105
0.005
0.12
0.295
0.41
0.525
0.605
0.52
0.49
0.51
0.445
0.33
0.185
0.045
-0.08
-0.265
-0.36
-0.395
-0.365
-0.35
-0.315
-0.275
-0.25
-0.19
-0.175
-0.18
-0.18
-0.205
-0.155
-0.165
-0.175
-0.165
-0.135
-0.11
-0.135
-0.145
-0.155
-0.14
-0.12
-0.17
-0.155
-0.125
-0.155
-0.115
-0.105
-0.135
-0.1
-0.13
-0.115
-0.115
-0.135
-0.08
-0.095
-0.095
-0.09
-0.11
-0.115
-0.14
-0.13
-0.11
-0.11
-0.09
-0.075
-0.06
-0.085
-0.11
-0.095
-0.115
-0.095
-0.1
-0.095
-0.095
-0.09
-0.045
-0.095
-0.11
-0.1
-0.11
-0.08
-0.085
-0.07
-0.055
-0.05
-0.04
-0.045
-0.085
-0.085
-0.085
-0.06
-0.045
-0.035
-0.06
-0.055
-0.02
-0.015
-0.025
-0.045
-0.06
-0.045
-0.03
-0.02
0.005
0.025
0.04
0.01
-0.04
-0.025
-0.015
-0.005
0.015
0.04
0.015
0.04
0.1
0.06
0.05
0.025
0.035
0.045
0.04
0.055
0.065
0.075
0.07
0.065
0.035
0.02
0.03
0.05
0.035
0.045
0.03
0.035
0.015
0.005
0.015
0.005
-0.015
-0.025
-0.01
-0.02
-0.04
-0.045
-0.06
-0.09
-0.09
-0.06
-0.06
-0.075
-0.095
-0.115
-0.09
-0.085
-0.09
-0.1
-0.115
-0.155
-0.125
-0.15
-0.155
-0.1
-0.125
-0.115
-0.1
-0.13
-0.135
-0.16
-0.15
-0.135
-0.125
-0.12
-0.135
-0.145
-0.145
-0.115
-0.125
-0.14
-0.15
-0.165
-0.15
-0.145
-0.155
-0.15
-0.15
-0.145
-0.14
-0.145
-0.135
-0.155
-0.155
-0.135
-0.145
-0.095
-0.115
-0.14
-0.155
-0.17
-0.155
-0.14
-0.125
-0.125
-0.135
-0.125
-0.135
-0.135
-0.18
-0.21
-0.17
-0.125
-0.11
-0.11
-0.105
-0.08
-0.11
-0.15
-0.15
-0.155
-0.155
-0.15
-0.115
-0.115
-0.125
-0.1
-0.09
-0.12
-0.13
-0.18
-0.165
-0.11
-0.115
-0.125
-0.125
-0.105
-0.13
-0.14
-0.12
-0.13
-0.125
-0.11
-0.11
-0.125
-0.125
-0.12
-0.11
-0.12
-0.14
-0.13
-0.15
-0.14
-0.1
-0.135
-0.095
-0.075
-0.09
-0.095
-0.13
-0.13
-0.125
-0.135
-0.135
-0.14
-0.105
-0.1
-0.1
-0.12
-0.14
-0.14
-0.15
-0.16
-0.15
-0.13
-0.07
-0.08
-0.105
-0.15
-0.2
-0.16
-0.155
-0.14
-0.15
-0.14
-0.115
-0.13
-0.13
-0.135
-0.16
-0.155
-0.11
-0.12
-0.115
-0.11
-0.11
-0.125
-0.115
-0.135
-0.12
-0.105
-0.115
-0.135
-0.14
-0.125
-0.11
-0.12
-0.135
-0.135
-0.155
-0.125
-0.115
-0.125
-0.125
-0.125
-0.13
-0.15
-0.12
-0.085
-0.13
-0.12
-0.11
-0.115
-0.115
-0.13
-0.095
-0.085
-0.105
-0.12
-0.135
-0.11
-0.105
-0.1
-0.105
-0.065
-0.055
-0.04
-0.06
-0.065
-0.06
-0.07
-0.03
-0.02
-0.005
-0.005
0.01
0.01
-0.02
-0.055
-0.07
-0.055
-0.065
-0.055
-0.05
-0.075
-0.085
-0.095
-0.09
-0.135
-0.12
-0.105
-0.1
-0.12
-0.13
-0.13
-0.11
-0.14
-0.155
-0.14
-0.135
-0.145
-0.115
-0.135
-0.13
-0.13
-0.095
-0.125
-0.145
-0.15
-0.13
-0.125
-0.135
-0.13
-0.14
-0.125
-0.09
-0.09
-0.145
-0.12
-0.11
-0.11
-0.115
-0.14
-0.105
-0.115
-0.115
-0.135
-0.125
-0.165
-0.185
-0.15
-0.155
-0.135
-0.135
-0.13
-0.12
-0.065
0.0
0.085
0.24
0.355
0.48
0.545
0.5
0.445
0.455
0.37
0.23
0.065
-0.03
-0.175
-0.295
-0.345
-0.36
-0.33
-0.305
-0.3
-0.3
-0.3
-0.25
-0.225
-0.16
-0.15
-0.15
-0.085
-0.12
-0.12
-0.135
-0.145
-0.115
-0.135
-0.165
-0.11
-0.1
-0.105
-0.095
-0.1
-0.125
-0.155
-0.12
-0.11
-0.125
-0.12
-0.12
-0.105
-0.08
-0.11
-0.1
-0.11
-0.1
-0.085
-0.09
-0.1
-0.105
-0.11
-0.105
-0.09
-0.11
-0.12
-0.1
-0.085
-0.09
-0.085
-0.08
-0.08
-0.06
-0.085
-0.105
-0.1
-0.085
-0.07
-0.075
-0.085
-0.06
-0.045
-0.045
-0.1
-0.085
-0.055
-0.06
-0.055
-0.035
-0.03
-0.045
-0.025
-0.035
-0.035
-0.06
-0.045
-0.005
-0.005
-0.025
-0.01
0.02
0.02
0.0
-0.01
-0.01
-0.02
0.02
0.005
0.055
0.08
0.08
0.095
0.07
0.05
0.02
0.035
0.08
0.08
0.075
0.075
0.07
0.085
0.065
0.04
0.06
0.095
0.115
0.105
0.12
0.1
0.12
0.105
0.1
0.07
0.05
0.04
0.06
0.05
0.03
0.03
0.035
0.035
-0.01
-0.025
-0.02
-0.03
-0.03
-0.02
-0.03
-0.035
-0.045
-0.045
-0.055
-0.08
-0.085
-0.085
-0.075
-0.105
-0.075
-0.07
-0.075
-0.08
-0.085
-0.12
-0.14
-0.135
-0.14
-0.105
-0.095
-0.09
-0.07
-0.085
-0.115
-0.145
-0.155
-0.12
-0.12
-0.08
-0.09
-0.1
-0.07
-0.08
-0.105
-0.125
-0.15
-0.135
-0.13
-0.13
-0.11
-0.11
-0.08
-0.085
-0.13
-0.13
-0.145
-0.14
-0.125
-0.125
-0.125
-0.12
-0.12
-0.095
-0.12
-0.13
-0.15
-0.125
-0.125
-0.115
-0.145
-0.14
-0.125
-0.09
-0.095
-0.1
-0.125
-0.135
-0.115
-0.11
-0.13
-0.1
-0.08
-0.09
-0.11
-0.1
-0.145
-0.125
-0.095
-0.095
-0.12
-0.095
-0.035
-0.075
-0.1
-0.11
-0.12
-0.12
-0.1
-0.09
-0.085
-0.095
-0.07
-0.08
-0.125
-0.16
-0.135
-0.12
-0.115
-0.11
-0.115
-0.105
-0.085
-0.085
-0.11
-0.125
-0.125
-0.1
-0.1
-0.105
-0.115
-0.125
-0.11
-0.13
-0.14
-0.115
-0.125
-0.12
-0.115
-0.11
-0.12
-0.115
-0.11
-0.105
-0.135
-0.165
-0.135
-0.115
-0.105
-0.1
-0.1
-0.1
-0.09
-0.1
-0.13
-0.15
-0.145
-0.12
-0.11
-0.11
-0.11
-0.105
-0.085
-0.09
-0.12
-0.14
-0.15
-0.14
-0.16
-0.14
-0.095
-0.09
-0.095
-0.125
-0.155
-0.165
-0.115
-0.1
-0.105
-0.105
-0.13
-0.115
-0.125
-0.145
-0.155
-0.16
-0.135
-0.13
-0.11
-0.115
-0.115
-0.12
-0.12
-0.12
-0.105
-0.145
-0.14
-0.13
-0.1
-0.105
-0.1
-0.07
-0.08
-0.095
-0.11
-0.105
-0.11
-0.085
-0.07
-0.07
-0.025
-0.015
-0.02
-0.04
-0.025
-0.03
-0.02
-0.03
-0.05
-0.05
-0.04
-0.035
-0.025
-0.065
-0.095
-0.125
-0.105
-0.07
-0.06
-0.08
-0.085
-0.055
-0.095
-0.135
-0.15
-0.17
-0.11
-0.105
-0.11
-0.125
-0.11
-0.105
-0.105
-0.12
-0.15
-0.165
-0.135
-0.12
-0.13
-0.1
-0.1
-0.085
-0.13
-0.14
-0.165
-0.16
-0.17
-0.165
-0.115
-0.12
-0.11
-0.095
-0.13
-0.125
-0.14
-0.135
-0.12
-0.125
-0.115
-0.13
-0.15
-0.14
-0.13
-0.15
-0.155
-0.105
-0.125
-0.11
-0.065
0.03
0.145
0.27
0.375
0.455
0.5
0.47
0.415
0.405
0.355
0.215
0.075
0.0
-0.115
-0.275
-0.36
-0.36
-0.335
-0.315
-0.29
-0.265
-0.225
-0.185
-0.185
-0.195
-0.18
-0.165
-0.15
-0.155
-0.14
-0.14
-0.135
-0.12
-0.12
-0.15
-0.165
-0.125
-0.11
-0.11
-0.11
-0.115
-0.085
-0.115
-0.12
-0.1
-0.135
-0.14
-0.12
-0.11
-0.115
-0.135
-0.1
-0.095
-0.12
-0.125
-0.12
-0.115
-0.11
-0.085
-0.095
-0.105
-0.09
-0.075
-0.09
-0.115
-0.14
-0.085
-0.1
-0.115
-0.085
-0.085
-0.055
-0.085
-0.075
-0.09
-0.09
-0.085
-0.09
-0.095
-0.07
-0.06
-0.04
-0.06
-0.09
-0.1
-0.135
-0.06
-0.04
-0.045
-0.04
-0.035
-0.02
-0.005
-0.04
-0.085
-0.08
-0.05
-0.04
-0.025
-0.035
-0.02
0.03
0.03
-0.01
0.0
0.0
0.03
0.025
0.025
0.035
0.055
0.07
0.055
0.04
0.05
0.05
0.055
0.055
0.07
0.075
0.075
0.085
0.055
0.055
0.025
0.045
0.055
0.05
0.07
0.065
0.065
0.085
0.035
0.0
-0.01
0.02
0.01
0.015
-0.005
0.0
-0.025
-0.025
-0.015
-0.055
-0.075
-0.065
-0.07
-0.08
-0.045
-0.07
-0.065
-0.065
-0.085
-0.105
-0.13
-0.105
-0.105
-0.11
-0.095
-0.095
-0.085
-0.095
-0.1
-0.115
-0.145
-0.115
-0.11
-0.115
-0.09
-0.105
-0.085
-0.09
-0.1
-0.12
-0.13
-0.135
-0.135
-0.15
-0.115
-0.115
-0.095
-0.095
-0.105
-0.12
-0.12
-0.125
-0.105
-0.11
-0.12
-0.13
-0.095
-0.1
-0.14
-0.11
-0.145
-0.125
-0.115
-0.115
-0.12
-0.115
-0.095
-0.115
-0.12
-0.155
-0.155
-0.125
-0.12
-0.105
-0.105
-0.105
-0.095
-0.075
-0.1
-0.135
-0.145
-0.125
-0.125
-0.13
-0.125
-0.105
-0.09
-0.095
-0.105
-0.13
-0.17
-0.13
-0.11
-0.11
-0.095
-0.08
-0.1
-0.11
-0.125
-0.14
-0.125
-0.1
-0.1
-0.105
-0.11
-0.095
-0.105
-0.095
-0.095
-0.145
-0.14
-0.115
-0.105
-0.12
-0.115
-0.125
-0.11
-0.095
-0.12
-0.135
-0.11
-0.115
-0.125
-0.13
-0.105
-0.095
-0.1
-0.105
-0.12
-0.13
-0.13
-0.125
-0.14
-0.12
-0.11
-0.115
-0.09
-0.105
-0.09
-0.105
-0.1
-0.13
-0.125
-0.13
-0.12
-0.11
-0.115
-0.135
-0.14
-0.145
-0.12
-0.095
-0.09
-0.11
-0.12
-0.135
-0.12
-0.11
-0.125
-0.15
-0.115
-0.115
-0.12
-0.105
-0.1
-0.085
-0.095
-0.105
-0.155
-0.16
-0.15
-0.135
-0.135
-0.125
-0.11
-0.11
-0.095
-0.13
-0.15
-0.175
-0.12
-0.125
-0.12
-0.105
-0.12
-0.1
-0.105
-0.085
-0.135
-0.155
-0.115
-0.13
-0.13
-0.13
-0.145
-0.085
-0.125
-0.155
-0.14
-0.15
-0.13
-0.125
-0.115
-0.11
-0.1
-0.085
-0.1
-0.11
-0.12
-0.13
-0.12
-0.11
-0.1
-0.11
-0.105
-0.08
-0.095
-0.09
-0.09
-0.085
-0.05
-0.035
-0.025
-0.02
-0.03
0.005
0.015
-0.035
-0.08
-0.07
-0.05
-0.095
-0.065
-0.05
-0.07
-0.065
-0.075
-0.11
-0.125
-0.13
-0.135
-0.13
-0.145
-0.16
-0.13
-0.11
-0.115
-0.125
-0.145
-0.13
-0.13
-0.135
-0.135
-0.135
-0.135
-0.13
-0.125
-0.145
-0.18
-0.155
-0.13
-0.125
-0.14
-0.125
-0.135
-0.14
-0.145
-0.16
-0.185
-0.16
-0.14
-0.165
-0.15
-0.165
-0.125
-0.105
-0.145
-0.17
-0.2
-0.165
-0.165
-0.14
-0.09
-0.11
-0.11
-0.145
-0.15
-0.075
0.0
0.135
0.275
0.36
0.445
0.545
0.52
0.455
0.43
0.375
0.255
0.16
0.025
-0.09
-0.25
-0.34
-0.33
-0.325
-0.32
-0.31
-0.29
-0.24
-0.22
-0.19
-0.165
-0.16
-0.145
-0.14
-0.145
-0.165
-0.16
-0.15
-0.16
-0.13
-0.13
-0.12
-0.095
-0.115
-0.14
-0.16
-0.17
-0.165
-0.165
-0.15
-0.15
-0.145
-0.115
-0.12
-0.14
-0.155
-0.155
-0.125
-0.13
-0.14
-0.105
-0.11
-0.095
-0.115
-0.14
-0.155
-0.145
-0.14
-0.125
-0.105
-0.12
-0.11
-0.1
-0.12
-0.12
-0.12
-0.14
-0.095
-0.105
-0.11
-0.065
-0.075
-0.065
-0.09
-0.12
-0.145
-0.14
-0.115
-0.08
-0.095
-0.085
-0.09
-0.08
-0.08
-0.1
-0.11
-0.095
-0.085
-0.08
-0.07
-0.07
-0.075
-0.04
-0.035
-0.045
-0.065
-0.07
-0.04
-0.035
-0.05
-0.035
-0.045
-0.01
-0.01
0.0
0.005
0.005
0.015
0.035
0.05
0.045
0.05
0.075
0.06
0.035
0.02
0.01
0.02
0.03
0.03
0.055
0.055
0.07
0.05
0.03
0.03
0.02
0.02
-0.005
0.005
-0.015
0.02
0.005
-0.02
-0.05
-0.06
-0.04
-0.05
-0.045
-0.055
-0.075
-0.055
-0.05
-0.065
-0.105
-0.11
-0.12
-0.1
-0.11
-0.105
-0.11
-0.11
-0.09
-0.105
-0.135
-0.14
-0.155
-0.14
-0.125
-0.135
-0.13
-0.1
-0.105
-0.125
-0.125
-0.145
-0.13
-0.115
-0.135
-0.14
-0.13
-0.115
-0.11
-0.125
-0.135
-0.16
-0.175
-0.15
-0.12
-0.125
-0.14
-0.115
-0.135
-0.16
-0.15
-0.175
-0.14
-0.13
-0.13
-0.125
-0.12
-0.105
-0.135
-0.155
-0.13
-0.17
-0.15
-0.11
-0.13
-0.115
-0.12
-0.11
-0.12
-0.17
-0.18
-0.18
-0.155
-0.14
-0.115
-0.12
-0.12
-0.16
-0.13
-0.12
-0.16
-0.15
-0.165
-0.145
-0.15
-0.135
-0.13
-0.105
-0.11
-0.135
-0.135
-0.135
-0.115
-0.155
-0.125
-0.135
-0.12
-0.095
-0.125
-0.14
-0.15
-0.145
-0.11
-0.13
-0.1
-0.125
-0.12
-0.11
-0.14
-0.135
-0.125
-0.115
-0.13
-0.125
-0.13
-0.13
-0.11
-0.11
-0.125
-0.13
-0.14
-0.135
-0.145
-0.14
-0.14
-0.14
-0.12
-0.12
-0.14
-0.15
-0.145
-0.135
-0.13
-0.125
-0.12
-0.13
-0.105
-0.125
-0.14
-0.135
-0.13
-0.145
-0.14
-0.135
-0.11
-0.09
-0.1
-0.12
-0.12
-0.12
-0.16
-0.14
-0.145
-0.15
-0.14
-0.13
-0.125
-0.13
-0.12
-0.14
-0.175
-0.145
-0.135
-0.15
-0.16
-0.12
-0.1
-0.11
-0.115
-0.15
-0.14
-0.13
-0.135
-0.13
-0.12
-0.14
-0.12
-0.12
-0.14
-0.1
-0.165
-0.13
-0.13
-0.135
-0.115
-0.125
-0.09
-0.095
-0.1
-0.12
-0.165
-0.125
-0.12
-0.13
-0.14
-0.15
-0.115
-0.115
-0.125
-0.15
-0.14
-0.105
-0.115
-0.125
-0.14
-0.15
-0.125
-0.115
-0.115
-0.145
-0.135
-0.135
-0.11
-0.11
-0.11
-0.105
-0.095
-0.085
-0.1
-0.125
-0.13
-0.135
-0.115
-0.095
-0.1
-0.08
-0.07
-0.075
-0.06
-0.065
-0.05
-0.01
-0.01
0.015
-0.01
-0.01
-0.02
-0.04
-0.05
-0.08
-0.085
-0.08
-0.075
-0.065
-0.08
-0.07
-0.075
-0.1
-0.115
-0.155
-0.13
-0.12
-0.135
-0.13
-0.135
-0.115
-0.125
-0.145
-0.145
-0.185
-0.145
-0.14
-0.13
-0.125
-0.1
-0.13
-0.135
-0.155
-0.14
-0.16
-0.13
-0.13
-0.135
-0.135
-0.16
-0.12
-0.09
-0.125
-0.175
-0.175
-0.165
-0.14
-0.135
-0.145
-0.135
-0.135
-0.14
-0.14
-0.15
-0.175
-0.16
-0.125
-0.14
-0.155
-0.14
-0.055
0.01
0.125
0.24
0.33
0.435
0.56
0.56
0.48
0.475
0.46
0.36
0.18
0.045
-0.06
-0.2
-0.34
-0.355
-0.345
-0.31
-0.275
-0.255
-0.23
-0.215
-0.22
-0.2
-0.17
-0.16
-0.15
-0.15
-0.12
-0.105
-0.115
-0.145
-0.165
-0.14
-0.13
-0.125
-0.125
-0.13
-0.125
-0.125
-0.165
-0.15
-0.135
-0.12
-0.125
-0.105
-0.11
-0.125
-0.11
-0.105
-0.13
-0.135
-0.135
-0.125
-0.12
-0.115
-0.115
-0.125
-0.095
-0.08
-0.12
-0.14
-0.145
-0.125
-0.095
-0.06
-0.09
-0.095
-0.07
-0.085
-0.08
-0.12
-0.125
-0.12
-0.12
-0.1
-0.075
-0.045
-0.035
-0.06
-0.115
-0.11
-0.105
-0.11
-0.07
-0.07
-0.08
-0.025
-0.03
-0.045
-0.08
-0.095
-0.075
-0.05
-0.045
-0.025
-0.025
-0.01
-0.005
-0.02
-0.04
-0.07
-0.05
-0.005
0.01
-0.005
0.03
0.045
0.055
0.02
0.005
-0.025
-0.015
0.01
0.06
0.075
0.075
0.105
0.085
0.06
0.02
0.035
0.05
0.055
0.08
0.065
0.07
0.07
0.07
0.04
0.035
0.015
0.02
0.03
0.03
0.015
0.01
-0.01
0.035
0.02
-0.04
-0.075
-0.055
-0.055
-0.075
-0.05
-0.045
-0.05
-0.05
-0.06
-0.085
-0.115
-0.11
-0.11
-0.11
-0.11
-0.115
-0.115
-0.1
-0.1
-0.135
-0.14
-0.12
-0.115
-0.105
-0.09
-0.075
-0.06
-0.09
-0.115
-0.14
-0.135
-0.125
-0.14
-0.155
-0.14
-0.14
-0.11
-0.115
-0.14
-0.12
-0.125
-0.12
-0.105
-0.125
-0.125
-0.105
-0.075
-0.11
-0.13
-0.145
-0.155
-0.14
-0.125
-0.115
-0.115
