# TIPE ECG 2021 - ECG-ID Database v1.0.0 par Physionet
# [N° de la personne, N° de l'enregistrement, Période d'échantillonnage, Prénom, Age, Sexe, Date de l'enregistrement]
[45, 1, 0.002, "Patrick", 75, "H", "12.05.2005"]
0.65
0.54
0.555
0.635
0.71
0.525
0.59
0.65
0.615
0.61
0.645
0.57
0.625
0.625
0.62
0.56
0.65
0.615
0.53
0.6
0.62
0.625
0.645
0.665
0.53
0.38
0.515
0.605
0.65
0.71
0.66
0.6
0.655
0.595
0.595
0.69
0.725
0.54
0.6
0.565
0.675
0.63
0.6
0.635
0.725
0.65
0.625
0.62
0.66
0.635
0.665
0.615
0.58
0.615
0.485
0.505
0.6
0.69
0.685
0.725
0.55
0.405
0.545
0.565
0.635
0.55
0.58
0.615
0.585
0.56
0.595
0.645
0.57
0.615
0.575
0.525
0.515
0.525
0.665
0.67
0.665
0.58
0.515
0.495
0.565
0.7
0.655
0.605
0.55
0.525
0.6
0.555
0.52
0.53
0.53
0.645
0.66
0.71
0.665
0.635
0.52
0.44
0.485
0.535
0.54
0.585
0.69
0.7
0.55
0.56
0.64
0.65
0.63
0.71
0.775
0.81
0.72
0.475
0.565
0.54
0.655
0.69
0.61
0.55
0.57
0.58
0.525
0.57
0.6
0.63
0.615
0.55
0.555
0.575
0.545
0.585
0.55
0.59
0.535
0.55
0.58
0.49
0.505
0.425
0.355
0.535
0.565
0.58
0.58
0.445
0.425
0.485
0.535
0.505
0.505
0.5
0.49
0.485
0.465
0.48
0.41
0.325
0.365
0.46
0.485
0.625
0.515
0.46
0.66
0.77
0.82
0.875
0.98
1.155
1.255
1.34
1.34
1.235
1.175
1.005
0.76
0.52
0.435
0.39
0.42
0.355
0.34
0.25
0.36
0.45
0.41
0.415
0.425
0.505
0.41
0.485
0.515
0.585
0.51
0.49
0.505
0.53
0.595
0.59
0.64
0.59
0.425
0.46
0.47
0.49
0.51
0.59
0.535
0.555
0.325
0.45
0.39
0.61
0.555
0.52
0.605
0.595
0.535
0.535
0.48
0.465
0.58
0.605
0.65
0.57
0.585
0.63
0.49
0.525
0.605
0.6
0.6
0.625
0.615
0.665
0.58
0.505
0.51
0.565
0.61
0.655
0.65
0.595
0.665
0.545
0.525
0.59
0.63
0.63
0.59
0.575
0.58
0.585
0.53
0.62
0.56
0.635
0.73
0.825
0.59
0.6
0.675
0.63
0.565
0.665
0.78
0.68
0.655
0.68
0.65
0.695
0.74
0.62
0.645
0.72
0.675
0.785
0.725
0.675
0.74
0.68
0.765
0.88
0.78
0.75
0.78
0.705
0.78
0.795
0.785
0.685
0.72
0.815
0.79
0.765
0.64
0.7
0.755
0.795
0.71
0.68
0.675
0.715
0.81
0.875
0.795
0.725
0.665
0.725
0.645
0.595
0.63
0.695
0.665
0.65
0.62
0.62
0.71
0.795
0.76
0.635
0.64
0.67
0.63
0.525
0.625
0.545
0.525
0.535
0.65
0.71
0.585
0.685
0.665
0.625
0.63
0.55
0.615
0.615
0.605
0.64
0.645
0.535
0.625
0.665
0.54
0.665
0.715
0.59
0.58
0.625
0.615
0.61
0.66
0.625
0.61
0.685
0.755
0.63
0.545
0.53
0.565
0.66
0.625
0.58
0.685
0.655
0.59
0.68
0.73
0.57
0.52
0.565
0.545
0.63
0.56
0.57
0.775
0.72
0.705
0.59
0.685
0.625
0.64
0.565
0.585
0.73
0.725
0.685
0.665
0.605
0.62
0.73
0.765
0.695
0.565
0.6
0.635
0.645
0.75
0.735
0.55
0.68
0.68
0.74
0.705
0.69
0.63
0.585
0.73
0.63
0.47
0.55
0.695
0.675
0.625
0.625
0.72
0.685
0.645
0.62
0.605
0.615
0.67
0.665
0.62
0.695
0.665
0.615
0.655
0.555
0.625
0.635
0.675
0.695
0.67
0.665
0.725
0.54
0.495
0.575
0.73
0.76
0.695
0.595
0.635
0.56
0.615
0.615
0.63
0.605
0.61
0.62
0.57
0.66
0.6
0.57
0.66
0.71
0.665
0.79
0.77
0.725
0.745
0.69
0.705
0.755
0.76
0.67
0.775
0.83
0.8
0.815
0.675
0.79
0.8
0.77
0.715
0.79
0.82
0.72
0.695
0.6
0.74
0.715
0.63
0.6
0.68
0.65
0.655
0.785
0.725
0.675
0.555
0.605
0.585
0.575
0.575
0.645
0.655
0.57
0.64
0.56
0.58
0.605
0.615
0.67
0.685
0.67
0.68
0.6
0.58
0.67
0.61
0.595
0.68
0.61
0.57
0.645
0.545
0.5
0.635
0.48
0.645
0.68
0.69
0.745
0.755
0.765
0.855
0.96
0.995
1.195
1.23
1.42
1.5
1.46
1.385
1.145
0.98
0.865
0.695
0.565
0.495
0.56
0.595
0.47
0.55
0.57
0.565
0.47
0.49
0.66
0.69
0.575
0.645
0.63
0.53
0.6
0.585
0.64
0.615
0.615
0.625
0.675
0.63
0.55
0.615
0.635
0.64
0.63
0.69
0.675
0.665
0.66
0.605
0.58
0.55
0.575
0.62
0.695
0.62
0.64
0.64
0.7
0.575
0.535
0.585
0.525
0.695
0.87
0.705
0.59
0.67
0.74
0.615
0.575
0.6
0.65
0.605
0.675
0.7
0.66
0.695
0.72
0.73
0.765
0.615
0.595
0.625
0.65
0.585
0.715
0.72
0.72
0.745
0.685
0.635
0.7
0.685
0.68
0.645
0.66
0.705
0.765
0.775
0.815
0.75
0.72
0.78
0.69
0.71
0.735
0.66
0.745
0.895
0.865
0.74
0.755
0.855
0.775
0.77
0.66
0.7
0.77
0.755
0.815
0.765
0.79
0.705
0.81
0.875
0.795
0.785
0.86
0.765
0.76
0.78
0.715
0.77
0.78
0.79
0.775
0.75
0.76
0.67
0.72
0.845
0.915
0.875
0.84
0.845
0.905
0.72
0.675
0.795
0.79
0.805
0.885
0.7
0.735
0.825
0.72
0.795
0.775
0.695
0.705
0.69
0.735
0.75
0.76
0.72
0.695
0.685
0.66
0.71
0.73
0.68
0.74
0.625
0.705
0.67
0.69
0.67
0.655
0.685
0.565
0.46
0.67
0.83
0.84
0.79
0.63
0.62
0.68
0.755
0.785
0.645
0.635
0.535
0.785
0.63
0.63
0.655
0.63
0.625
0.615
0.74
0.655
0.65
0.675
0.575
0.615
0.615
0.625
0.74
0.745
0.755
0.73
0.75
0.675
0.71
0.695
0.705
0.75
0.76
0.765
0.74
0.8
0.695
0.695
0.7
0.75
0.68
0.76
0.78
0.83
0.73
0.53
0.67
0.685
0.665
0.69
0.575
0.6
0.615
0.695
0.725
0.63
0.595
0.665
0.73
0.675
0.68
0.69
0.725
0.82
0.725
0.715
0.685
0.755
0.735
0.7
0.74
0.76
0.72
0.685
0.7
0.65
0.6
0.655
0.71
0.74
0.645
0.78
0.665
0.605
0.67
0.695
0.645
0.57
0.69
0.695
0.71
0.73
0.755
0.725
0.69
0.71
0.72
0.75
0.78
0.705
0.685
0.77
0.685
0.68
0.65
0.56
0.705
0.75
0.68
0.685
0.73
0.74
0.795
0.74
0.83
0.595
0.65
0.705
0.745
0.69
0.725
0.94
0.83
0.675
0.715
0.685
0.69
0.775
0.81
0.765
0.74
0.795
0.82
0.765
0.82
0.815
0.735
0.675
0.705
0.685
0.78
0.855
0.665
0.64
0.735
0.74
0.71
0.7
0.685
0.73
0.72
0.685
0.66
0.695
0.685
0.64
0.725
0.68
0.715
0.75
0.735
0.73
0.66
0.58
0.52
0.425
0.53
0.595
0.61
0.61
0.595
0.625
0.67
0.62
0.735
0.665
0.65
0.76
0.655
0.68
0.71
0.76
0.855
1.025
1.1
1.235
1.32
1.415
1.495
1.505
1.365
1.28
1.12
0.86
0.625
0.57
0.455
0.435
0.525
0.47
0.48
0.485
0.465
0.51
0.57
0.63
0.61
0.63
0.625
0.655
0.655
0.655
0.625
0.695
0.775
0.685
0.635
0.61
0.595
0.535
0.515
0.58
0.515
0.725
0.7
0.605
0.59
0.655
0.625
0.595
0.68
0.595
0.6
0.685
0.52
0.6
0.745
0.745
0.65
0.66
0.585
0.62
0.635
0.795
0.725
0.665
0.695
0.555
0.625
0.69
0.69
0.64
0.66
0.675
0.635
0.76
0.835
0.61
0.635
0.715
0.735
0.725
0.59
0.565
0.535
0.635
0.68
0.69
0.675
0.615
0.71
0.78
0.77
0.74
0.745
0.68
0.72
0.73
0.66
0.68
0.775
0.745
0.71
0.73
0.71
0.68
0.625
0.76
0.8
0.875
0.875
0.805
0.795
0.795
0.735
0.855
0.805
0.88
0.835
0.815
0.83
0.835
0.875
0.815
0.815
0.86
0.77
0.715
0.71
0.785
0.825
0.65
0.715
0.675
0.79
0.77
0.785
0.795
0.78
0.745
0.725
0.835
0.85
0.835
0.765
0.645
0.71
0.7
0.725
0.67
0.66
0.755
0.73
0.715
0.78
0.8
0.735
0.675
0.66
0.67
0.7
0.6
0.63
0.62
0.62
0.68
0.695
0.73
0.655
0.62
0.53
0.61
0.605
0.63
0.655
0.615
0.64
0.725
0.635
0.63
0.61
0.655
0.66
0.62
0.655
0.6
0.57
0.55
0.595
0.64
0.645
0.725
0.78
0.615
0.35
0.32
0.54
0.65
0.7
0.595
0.555
0.68
0.71
0.59
0.72
0.72
0.545
0.66
0.61
0.72
0.505
0.585
0.635
0.71
0.61
0.635
0.565
0.66
0.645
0.675
0.695
0.705
0.7
0.69
0.685
0.68
0.63
0.645
0.635
0.59
0.67
0.59
0.625
0.77
0.76
0.67
0.635
0.645
0.72
0.615
0.605
0.67
0.77
0.745
0.685
0.615
0.63
0.625
0.66
0.69
0.6
0.605
0.565
0.65
0.785
0.705
0.715
0.635
0.59
0.55
0.665
0.67
0.61
0.715
0.615
0.58
0.7
0.67
0.55
0.56
0.63
0.695
0.725
0.645
0.56
0.54
0.66
0.675
0.68
0.6
0.655
0.625
0.76
0.755
0.73
0.7
0.72
0.665
0.595
0.675
0.71
0.725
0.535
0.595
0.71
0.76
0.735
0.805
0.65
0.56
0.625
0.725
0.71
0.715
0.575
0.67
0.815
0.765
0.88
0.69
0.645
0.695
0.62
0.685
0.68
0.655
0.68
0.67
0.685
0.62
0.655
0.735
0.765
0.73
0.575
0.53
0.63
0.7
0.68
0.685
0.61
0.615
0.64
0.605
0.72
0.555
0.51
0.59
0.605
0.625
0.645
0.6
0.605
0.585
0.555
0.58
0.645
0.635
0.7
0.755
0.645
0.5
0.535
0.515
0.54
0.485
0.545
0.605
0.535
0.55
0.515
0.665
0.805
0.83
0.965
1.065
1.16
1.285
1.385
1.485
1.44
1.225
1.045
0.905
0.67
0.53
0.53
0.475
0.525
0.53
0.465
0.5
0.455
0.39
0.465
0.545
0.53
0.485
0.54
0.565
0.56
0.645
0.67
0.585
0.54
0.575
0.705
0.62
0.66
0.6
0.6
0.55
0.575
0.57
0.575
0.585
0.62
0.585
0.54
0.685
0.68
0.52
0.61
0.655
0.59
0.605
0.61
0.535
0.52
0.585
0.61
0.58
0.49
0.575
0.695
0.685
0.63
0.6
0.67
0.695
0.66
0.58
0.56
0.655
0.66
0.615
0.595
0.7
0.71
0.675
0.665
0.69
0.735
0.755
0.715
0.6
0.56
0.675
0.72
0.765
0.705
0.71
0.73
0.69
0.73
0.785
0.715
0.7
0.74
0.78
0.8
0.82
0.825
0.72
0.745
0.6
0.71
0.785
0.765
0.815
0.74
0.78
0.74
0.8
0.81
0.78
0.805
0.8
0.75
0.71
0.755
0.92
0.835
0.87
0.8
0.7
0.72
0.685
0.805
0.89
0.835
0.825
0.855
0.805
0.805
0.84
0.885
0.94
0.85
0.815
0.79
0.8
0.82
0.83
0.88
0.88
0.895
0.9
0.86
0.54
0.675
0.78
0.8
0.73
0.8
0.805
0.69
0.72
0.725
0.745
0.84
0.65
0.715
0.69
0.71
0.675
0.695
0.685
0.74
0.735
0.57
0.555
0.7
0.75
0.71
0.67
0.615
0.675
0.61
0.73
0.66
0.655
0.67
0.615
0.625
0.745
0.745
0.67
0.68
0.7
0.775
0.645
0.705
0.7
0.75
0.69
0.65
0.58
0.62
0.69
0.67
0.69
0.685
0.715
0.71
0.8
0.715
0.525
0.77
0.71
0.775
0.765
0.685
0.675
0.57
0.55
0.645
0.645
0.7
0.695
0.785
0.685
0.72
0.605
0.615
0.695
0.735
0.805
0.715
0.665
0.645
0.725
0.78
0.74
0.735
0.69
0.645
0.71
0.685
0.62
0.65
0.8
0.735
0.695
0.72
0.73
0.755
0.675
0.665
0.71
0.72
0.73
0.715
0.735
0.735
0.715
0.74
0.755
0.765
0.685
0.71
0.86
0.725
0.685
0.625
0.645
0.67
0.645
0.575
0.585
0.67
0.725
0.715
0.615
0.64
0.695
0.715
0.715
0.71
0.71
0.74
0.785
0.72
0.685
0.76
0.72
0.6
0.73
0.75
0.68
0.74
0.7
0.745
0.755
0.67
0.655
0.705
0.8
0.77
0.645
0.76
0.725
0.77
0.725
0.8
0.815
0.735
0.8
0.85
0.79
0.695
0.805
0.82
0.815
0.815
0.785
0.875
0.875
0.75
0.805
0.89
0.825
0.805
0.73
0.64
0.77
0.87
0.885
0.82
0.645
0.635
0.615
0.645
0.725
0.85
0.7
0.73
0.675
0.695
0.68
0.625
0.58
0.635
0.685
0.71
0.655
0.635
0.59
0.605
0.675
0.69
0.63
0.745
0.645
0.685
0.76
0.665
0.73
0.735
0.67
0.665
0.655
0.68
0.67
0.64
0.72
0.735
0.695
0.885
0.97
1.07
1.275
1.365
1.445
1.59
1.42
1.505
1.315
1.215
1.005
0.885
0.725
0.65
0.57
0.525
0.555
0.575
0.565
0.55
0.6
0.63
0.63
0.525
0.68
0.645
0.735
0.75
0.715
0.65
0.66
0.595
0.645
0.645
0.765
0.645
0.605
0.76
0.66
0.665
0.645
0.705
0.7
0.715
0.82
0.76
0.685
0.625
0.535
0.61
0.68
0.7
0.69
0.66
0.63
0.645
0.64
0.66
0.66
0.69
0.755
0.745
0.74
0.695
0.725
0.7
0.63
0.66
0.76
0.74
0.72
0.74
0.69
0.68
0.59
0.735
0.86
0.715
0.78
0.77
0.705
0.725
0.76
0.805
0.79
0.77
0.79
0.735
0.75
0.77
0.755
0.835
0.835
0.875
0.81
0.86
0.72
0.755
0.83
0.775
0.735
0.665
0.635
0.715
0.66
0.82
0.895
0.88
0.93
0.89
0.885
0.795
0.76
0.865
0.805
0.805
0.825
0.905
0.91
0.82
0.905
0.94
0.935
0.89
0.825
0.905
0.81
0.86
0.855
0.9
0.905
0.945
0.905
0.865
0.85
0.825
0.97
0.98
0.945
0.74
0.71
0.7
0.805
0.905
0.95
0.98
0.785
0.705
0.675
0.815
0.865
0.75
0.695
0.66
0.79
0.79
0.725
0.68
0.75
0.815
0.81
0.765
0.785
0.745
0.75
0.78
0.755
0.805
0.79
0.815
0.68
0.685
0.755
0.72
0.58
0.59
0.69
0.715
0.845
0.795
0.72
0.75
0.6
0.735
0.69
0.775
0.69
0.655
0.7
0.71
0.71
0.61
0.6
0.675
0.78
0.79
0.7
0.585
0.625
0.62
0.745
0.6
0.715
0.735
0.75
0.745
0.71
0.675
0.68
0.875
0.7
0.68
0.715
0.775
0.825
0.725
0.585
0.7
0.68
0.72
0.695
0.665
0.7
0.75
0.82
0.735
0.8
0.775
0.675
0.72
0.675
0.64
0.725
0.66
0.705
0.625
0.675
0.76
0.76
0.75
0.755
0.74
0.72
0.71
0.715
0.75
0.78
0.87
0.7
0.675
0.685
0.65
0.67
0.62
0.675
0.72
0.665
0.715
0.705
0.705
0.625
0.665
0.705
0.765
0.735
0.63
0.64
0.715
0.595
0.52
0.535
0.59
0.65
0.635
0.6
0.725
0.7
0.71
0.77
0.73
0.605
0.695
0.655
0.695
0.67
0.66
0.71
0.765
0.7
0.775
0.635
0.555
0.655
0.675
0.68
0.6
0.665
0.665
0.67
0.625
0.69
0.765
0.76
0.74
0.745
0.725
0.785
0.77
0.855
0.83
0.8
0.805
0.78
0.57
0.69
0.735
0.695
0.745
0.79
0.75
0.725
0.81
0.77
0.825
0.77
0.775
0.79
0.73
0.69
0.63
0.63
0.655
0.69
0.69
0.69
0.67
0.64
0.61
0.695
0.725
0.7
0.79
0.74
0.675
0.635
0.705
0.68
0.6
0.58
0.515
0.605
0.675
0.62
0.675
0.685
0.705
0.71
0.63
0.605
0.675
0.71
0.635
0.66
0.645
0.705
0.69
0.625
0.705
0.695
0.755
0.955
1.085
1.225
1.355
1.465
1.56
1.56
1.555
1.445
1.295
1.14
0.875
0.59
0.615
0.545
0.56
0.65
0.59
0.575
0.6
0.62
0.56
0.565
0.63
0.75
0.715
0.74
0.665
0.79
0.685
0.565
0.655
0.695
0.74
0.71
0.705
0.77
0.665
0.685
0.535
0.67
0.595
0.73
0.64
0.665
0.645
0.58
0.665
0.655
0.635
0.555
0.635
0.685
0.67
0.695
0.7
0.68
0.735
0.76
0.735
0.79
0.695
0.77
0.735
0.665
0.68
0.705
0.68
0.645
0.72
0.695
0.82
0.815
0.79
0.77
0.71
0.745
0.73
0.615
0.76
0.75
0.75
0.78
0.755
0.77
0.735
0.725
0.735
0.685
0.77
0.795
0.805
0.82
0.78
0.825
0.75
0.685
0.755
0.825
0.76
0.75
0.78
0.765
0.765
0.72
0.82
0.895
0.78
0.78
0.825
0.765
0.83
0.915
0.92
0.81
0.82
0.855
0.865
0.85
0.875
0.88
0.86
0.85
0.88
0.84
0.88
0.895
0.9
1.005
0.865
0.865
0.94
0.91
0.8
0.93
0.785
0.835
0.915
0.92
0.92
0.865
0.975
0.97
0.85
0.87
0.745
0.825
0.755
0.785
0.665
0.69
0.85
0.805
0.775
0.715
0.715
0.75
0.795
0.785
0.815
0.78
0.645
0.565
0.755
0.86
0.68
0.76
0.715
0.835
0.785
0.8
0.765
0.685
0.75
0.73
0.765
0.78
0.795
0.72
0.71
0.705
0.77
0.7
0.755
0.755
0.76
0.81
0.755
0.725
0.705
0.745
0.76
0.755
0.81
0.765
0.685
0.59
0.75
0.725
0.695
0.7
0.71
0.83
0.835
0.74
0.69
0.705
0.625
0.54
0.615
0.7
0.775
0.8
0.81
0.785
0.765
0.735
0.77
0.695
0.7
0.915
0.825
0.765
0.75
0.71
0.775
0.825
0.84
0.73
0.74
0.695
0.74
0.755
0.74
0.805
0.8
0.745
0.73
0.765
0.715
0.77
0.79
0.785
0.74
0.735
0.77
0.615
0.785
0.875
0.795
0.75
0.745
0.755
0.58
0.675
0.78
0.785
0.76
0.68
0.66
0.7
0.63
0.665
0.79
0.805
0.78
0.615
0.66
0.635
0.725
0.73
0.765
0.65
0.695
0.705
0.69
0.7
0.705
0.73
0.685
0.72
0.755
0.745
0.695
0.7
0.69
0.7
0.71
0.72
0.705
0.69
0.745
0.755
0.77
0.775
0.675
0.64
0.8
0.68
0.695
0.62
0.685
0.73
0.775
0.76
0.685
0.785
0.79
0.745
0.685
0.735
0.735
0.7
0.635
0.615
0.7
0.76
0.735
0.565
0.66
0.63
0.555
0.665
0.575
0.59
0.68
0.6
0.61
0.675
0.615
0.58
0.605
0.53
0.615
0.63
0.555
0.66
0.665
0.585
0.62
0.63
0.61
0.645
0.645
0.63
0.605
0.635
0.575
0.555
0.535
0.625
0.57
0.615
0.73
0.765
0.905
1.005
1.005
1.16
1.205
1.275
1.425
1.41
1.285
1.12
0.95
0.775
0.605
0.555
0.48
0.42
0.45
0.46
0.385
0.32
0.405
0.455
0.415
0.46
0.535
0.645
0.585
0.55
0.56
0.57
0.615
0.585
0.695
0.61
0.62
0.61
0.695
0.625
0.59
0.61
0.585
0.625
0.64
0.675
0.61
0.57
0.565
0.655
0.655
0.725
0.65
0.615
0.48
0.595
0.47
0.48
0.495
0.57
0.575
0.605
0.68
0.625
0.58
0.54
0.645
0.575
0.605
0.525
0.535
0.675
0.61
0.655
0.705
0.725
0.68
0.705
0.71
0.645
0.66
0.665
0.675
0.67
0.645
0.78
0.75
0.8
0.695
0.645
0.6
0.495
0.66
0.7
0.76
0.755
0.835
0.795
0.69
0.615
0.735
0.66
0.655
0.64
0.76
0.74
0.605
0.73
0.78
0.77
0.805
0.74
0.77
0.785
0.75
0.77
0.84
0.81
0.79
0.815
0.8
0.82
0.815
0.865
0.875
0.845
0.85
0.82
0.88
0.83
0.835
0.795
0.76
0.81
0.84
0.82
0.82
0.815
0.795
0.815
0.8
0.835
0.84
0.785
0.705
0.735
0.785
0.85
0.725
0.655
0.76
0.75
0.74
0.8
0.745
0.67
0.79
0.745
0.65
0.695
0.65
0.62
0.655
0.655
0.765
0.77
0.735
0.685
0.765
0.67
0.66
0.655
0.605
0.765
0.695
0.65
0.72
0.725
0.695
0.725
0.71
0.7
0.625
0.61
0.685
0.69
0.685
0.625
0.655
0.705
0.645
0.705
0.76
0.705
0.655
0.625
0.645
0.695
0.725
0.755
0.695
0.655
0.68
0.67
0.65
0.67
0.755
0.715
0.735
0.795
0.625
0.66
0.58
0.63
0.615
0.755
0.72
0.76
0.77
0.765
0.75
0.83
0.63
0.68
0.675
0.79
0.74
0.66
0.75
0.785
0.715
0.705
0.685
0.63
0.665
0.74
0.83
0.715
0.76
0.82
0.79
0.75
0.645
0.73
0.78
0.76
0.74
0.73
0.765
0.705
0.625
0.73
0.745
0.72
0.665
0.74
0.775
0.75
0.75
0.78
0.745
0.73
0.69
0.65
0.58
0.64
0.705
0.625
0.715
0.695
0.7
0.68
0.545
0.66
0.65
0.66
0.595
0.735
0.75
0.545
0.725
0.69
0.685
0.72
0.72
0.76
0.765
0.605
0.71
0.665
0.68
0.725
0.71
0.635
0.655
0.765
0.815
0.77
0.68
0.705
0.78
0.76
0.745
0.815
0.74
0.6
0.6
0.775
0.77
0.82
0.8
0.76
0.8
0.9
0.76
0.795
0.72
0.785
0.81
0.79
0.855
0.88
0.825
0.845
0.8
0.83
0.615
0.66
0.74
0.815
0.775
0.8
0.645
0.58
0.625
0.665
0.685
0.7
0.62
0.68
0.645
0.695
0.71
0.755
0.765
0.735
0.71
0.715
0.65
0.615
0.625
0.635
0.7
0.71
0.66
0.74
0.705
0.675
0.65
0.675
0.645
0.785
0.775
0.67
0.71
0.63
0.65
0.69
0.735
0.735
0.665
0.74
0.835
0.865
0.945
1.085
1.25
1.195
1.4
1.55
1.575
1.49
1.44
1.265
1.255
0.805
0.59
0.595
0.605
0.595
0.51
0.435
0.565
0.465
0.625
0.69
0.665
0.61
0.605
0.61
0.615
0.69
0.74
0.75
0.695
0.74
0.62
0.56
0.805
0.745
0.685
0.755
0.63
0.76
0.79
0.735
0.77
0.745
0.755
0.76
0.745
0.7
0.69
0.765
0.72
0.67
0.66
0.79
0.685
0.705
0.72
0.765
0.75
0.775
0.77
0.725
0.76
0.735
0.745
0.665
0.645
0.68
0.755
0.79
0.74
0.65
0.49
0.695
0.76
0.785
0.74
0.8
0.825
0.85
0.79
0.815
0.92
0.855
0.725
0.665
0.69
0.74
0.755
0.745
0.755
0.77
0.76
0.745
0.81
0.825
0.85
0.78
0.83
0.89
0.945
0.865
0.735
0.735
0.78
0.835
0.905
0.88
0.82
0.84
0.765
0.795
0.885
0.875
0.86
0.84
0.83
0.865
0.88
0.8
0.885
0.935
0.955
0.845
0.895
0.855
0.845
0.875
0.9
0.975
0.77
0.835
0.84
0.865
0.895
0.865
0.875
0.85
0.91
0.925
0.86
0.92
0.9
0.905
0.825
0.925
0.865
0.835
0.82
0.915
0.86
0.86
0.805
0.785
0.775
0.82
0.855
0.8
0.74
0.78
0.78
0.83
0.775
0.78
0.81
0.74
0.71
0.8
0.84
0.81
0.74
0.705
0.805
0.78
0.735
0.8
0.905
0.825
0.765
0.795
0.83
0.78
0.7
0.715
0.78
0.815
0.83
0.675
0.6
0.68
0.73
0.72
0.685
0.755
0.745
0.745
0.775
0.86
0.81
0.795
0.765
0.755
0.785
0.755
0.775
0.735
0.78
0.75
0.82
0.785
0.81
0.905
0.81
0.75
0.785
0.775
0.825
0.725
0.805
0.79
0.775
0.735
0.7
0.745
0.845
0.86
0.83
0.875
0.89
0.865
0.76
0.805
0.755
0.73
0.725
0.765
0.71
0.74
0.825
0.905
0.755
0.74
0.745
0.79
0.785
0.775
0.775
0.8
0.765
0.845
0.78
0.8
0.735
0.775
0.71
0.67
0.705
0.78
0.78
0.665
0.805
0.83
0.805
0.785
0.71
0.74
0.775
0.79
0.755
0.64
0.685
0.8
0.745
0.695
0.785
0.8
0.715
0.725
0.775
0.735
0.75
0.72
0.655
0.73
0.87
0.845
0.775
0.73
0.705
0.675
0.805
0.83
0.845
0.77
0.73
0.805
0.83
0.665
0.68
0.78
0.78
0.785
0.715
0.82
0.82
0.81
0.74
0.725
0.775
0.78
0.82
0.685
0.785
0.795
0.89
0.91
0.85
0.87
0.88
0.885
0.83
0.84
0.88
0.855
0.8
0.91
0.925
0.775
0.85
0.815
0.775
0.725
0.8
0.805
0.745
0.79
0.725
0.665
0.765
0.77
0.76
0.85
0.785
0.615
0.505
0.54
0.705
0.76
0.7
0.7
0.775
0.77
0.695
0.71
0.715
0.715
0.68
0.66
0.72
0.745
0.705
0.735
0.65
0.76
0.755
0.725
0.7
0.735
0.665
0.685
0.755
0.71
0.725
0.88
0.855
0.825
0.94
1.095
1.205
1.245
1.405
1.495
1.57
1.57
1.46
1.325
1.22
0.895
0.675
0.56
0.575
0.535
0.55
0.56
0.595
0.62
0.57
0.445
0.555
0.61
0.67
0.655
0.75
0.8
0.695
0.68
0.81
0.71
0.56
0.68
0.735
0.59
0.645
0.76
0.71
0.725
0.77
0.78
0.78
0.68
0.62
0.665
0.685
0.66
0.7
0.82
0.785
0.695
0.745
0.76
0.73
0.735
0.74
0.74
0.68
0.72
0.785
0.875
0.785
0.755
0.7
0.715
0.71
0.755
0.745
0.69
0.82
0.88
0.795
0.775
0.84
0.785
0.79
0.83
0.64
0.8
0.775
0.75
0.73
0.725
0.725
0.775
0.735
0.775
0.81
0.815
0.81
0.86
0.84
0.64
0.73
0.835
1.005
0.88
0.78
0.8
0.81
0.8
0.8
0.79
0.935
0.94
0.915
0.88
0.89
0.91
0.94
1.005
0.98
0.895
0.885
0.88
0.945
0.955
0.91
0.895
0.885
0.97
0.95
0.875
0.905
0.97
0.95
0.835
1.01
0.99
0.915
0.95
0.96
0.965
0.97
0.865
0.765
0.845
0.895
0.935
0.95
0.89
1.045
0.84
0.755
0.835
0.85
0.81
0.8
0.785
0.84
0.88
0.83
0.785
0.805
0.87
0.915
0.915
0.85
0.775
0.78
0.75
0.74
0.75
0.755
0.75
0.805
0.82
0.775
0.72
0.865
0.865
0.765
0.765
0.73
0.7
0.765
0.765
0.77
0.83
0.755
0.765
0.8
0.775
0.745
0.74
0.645
0.765
0.835
0.825
0.855
0.745
0.695
0.67
0.545
0.665
0.71
0.75
0.795
0.735
0.77
0.755
0.69
0.71
0.705
0.72
0.785
0.68
0.685
0.77
0.795
0.795
0.77
0.755
0.76
0.735
0.81
0.785
0.83
0.795
0.78
0.815
0.8
0.73
0.74
0.775
0.725
0.75
0.785
0.71
0.675
0.685
0.695
0.79
0.665
0.83
0.895
0.705
0.65
0.685
0.745
0.765
0.745
0.735
0.755
0.775
0.78
0.735
0.705
0.635
0.735
0.74
0.7
0.775
0.725
0.69
0.795
0.845
0.72
0.675
0.69
0.735
0.6
0.62
0.67
0.705
0.735
0.765
0.71
0.635
0.79
0.715
0.65
0.79
0.66
0.8
0.83
0.79
0.725
0.695
0.73
0.71
0.76
0.735
0.705
0.67
0.655
0.725
0.67
0.7
0.805
0.81
0.705
0.665
0.655
0.66
0.725
0.64
0.625
0.575
0.61
0.665
0.675
0.71
0.69
0.68
0.745
0.635
0.655
0.765
0.85
0.785
0.775
0.76
0.81
0.835
0.84
0.8
0.755
0.795
0.73
0.665
0.625
0.71
0.805
0.75
0.82
0.8
0.76
0.77
0.78
0.675
0.59
0.65
0.715
0.7
0.785
0.855
0.59
0.66
0.63
0.605
0.63
0.62
0.675
0.575
0.62
0.67
0.775
0.78
0.66
0.7
0.665
0.6
0.68
0.76
0.54
0.575
0.645
0.67
0.605
0.5
0.53
0.535
0.505
0.65
0.69
0.62
0.67
0.625
0.615
0.745
0.805
0.77
0.915
1.22
1.29
1.39
1.445
1.585
1.52
1.45
1.25
1.08
0.94
0.72
0.55
0.515
0.535
0.515
0.53
0.56
0.55
0.535
0.655
0.665
0.645
0.625
0.67
0.6
0.58
0.56
0.59
0.61
0.68
0.775
0.66
0.665
0.705
0.66
0.745
0.645
0.5
0.65
0.665
0.665
0.76
0.85
0.735
0.675
0.705
0.615
0.6
0.605
0.75
0.69
0.655
0.705
0.745
0.78
0.755
0.76
0.74
0.74
0.675
0.63
0.625
0.805
0.81
0.645
0.73
0.78
0.825
0.84
0.695
0.77
0.76
0.765
0.795
0.785
0.805
0.815
0.785
0.8
0.8
0.715
0.745
0.765
0.775
0.775
0.72
0.705
0.745
0.81
0.69
0.72
0.79
0.82
0.845
0.795
0.755
0.675
0.75
0.845
0.73
0.845
0.775
0.795
0.9
0.88
0.875
0.95
0.825
0.88
0.855
0.86
0.82
0.76
0.84
0.905
0.845
0.83
0.82
0.81
0.86
1.01
1.02
0.91
0.865
0.805
0.87
0.81
0.925
0.83
0.815
0.82
0.9
0.96
0.975
0.9
0.865
0.845
0.865
0.93
0.885
0.9
0.92
0.855
0.875
0.885
0.9
0.89
0.785
0.835
0.86
0.735
0.785
0.855
0.77
0.8
0.83
0.775
0.775
0.72
0.74
0.755
0.855
0.84
0.885
0.87
0.915
0.805
0.71
0.685
0.735
0.725
0.73
0.735
0.775
0.785
0.82
0.755
0.805
0.755
0.66
0.795
0.695
0.775
0.79
0.815
0.83
0.85
0.815
0.685
0.785
0.8
0.795
0.845
0.855
0.7
0.705
0.715
0.72
0.84
0.78
0.64
0.76
0.765
0.83
0.78
0.74
0.92
0.725
0.67
0.81
0.78
0.79
0.765
0.84
0.87
0.715
0.71
0.73
0.8
0.795
0.58
0.7
0.885
0.91
0.8
0.8
0.845
0.83
0.78
0.79
0.87
0.8
0.7
0.74
0.78
0.74
0.905
0.905
0.905
0.795
0.8
0.82
0.835
0.9
0.965
0.82
0.75
0.68
0.65
0.71
0.755
0.655
0.765
0.78
0.785
0.755
0.75
0.75
0.715
0.72
0.745
0.795
0.76
0.74
0.765
0.835
0.715
0.77
0.765
0.79
0.8
0.77
0.775
0.745
0.89
0.79
0.765
0.775
0.765
0.71
0.7
0.785
0.825
0.86
0.655
0.725
0.685
0.67
0.73
0.785
0.725
0.74
0.82
0.71
0.735
0.8
0.815
0.775
0.74
0.83
0.76
0.73
0.89
0.865
0.805
0.86
0.93
0.81
0.86
0.925
0.975
0.915
0.865
0.79
0.83
0.905
0.845
0.855
0.865
0.885
0.83
0.68
0.775
0.86
0.785
0.815
0.77
0.755
0.79
0.805
0.75
0.8
0.69
0.69
0.7
0.745
0.78
0.735
0.69
0.71
0.725
0.72
0.72
0.705
0.83
0.81
0.77
0.775
0.805
0.55
0.69
0.795
0.885
0.78
0.655
0.715
0.78
0.815
0.755
0.725
0.71
0.65
0.655
0.735
0.745
0.795
0.74
0.795
0.865
1.03
1.03
1.25
1.39
1.395
1.445
1.57
1.525
1.54
1.41
1.27
1.06
0.85
0.695
0.585
0.475
0.54
0.61
0.6
0.595
0.685
0.705
0.66
0.725
0.63
0.64
0.68
0.695
0.7
0.825
0.65
0.72
0.82
0.765
0.765
0.8
0.675
0.71
0.665
0.73
0.645
0.72
0.73
0.735
0.735
0.77
0.81
0.81
0.795
0.78
0.69
0.63
0.71
0.705
0.8
0.69
0.65
0.745
0.705
0.74
0.805
0.815
0.845
0.76
0.76
0.69
0.74
0.835
0.73
0.685
0.72
0.745
0.735
0.725
0.84
0.775
0.775
0.84
0.64
0.675
0.78
0.815
0.79
0.765
0.765
0.8
0.845
0.81
0.815
0.825
0.74
0.885
0.87
0.82
0.785
0.76
0.83
0.795
0.8
0.875
0.79
0.79
0.81
0.82
0.845
0.905
0.92
0.895
0.875
0.855
0.915
0.895
0.825
0.865
0.92
0.99
0.91
0.95
0.855
0.835
0.85
0.92
1.03
0.9
0.92
1.0
0.89
0.94
0.88
1.04
0.995
0.945
0.875
0.89
0.82
0.805
0.84
0.88
0.825
0.835
0.9
0.995
0.915
0.89
0.79
0.815
0.835
0.875
0.905
0.94
0.835
0.84
0.805
0.82
0.77
0.755
0.98
0.835
0.73
0.795
0.87
0.945
0.885
0.86
0.82
0.725
0.705
0.805
0.825
0.83
0.775
0.835
0.75
0.705
0.76
0.77
0.8
0.795
0.73
0.76
0.71
0.73
0.715
0.835
0.795
0.78
0.65
0.8
0.76
0.825
0.8
0.84
0.71
0.765
0.7
0.67
0.665
0.645
0.875
0.865
0.765
0.695
0.785
0.795
0.77
0.755
0.79
0.805
0.85
0.795
0.71
0.75
0.835
0.78
0.725
0.785
0.81
0.87
0.79
0.81
0.815
0.75
0.585
0.77
0.935
0.77
0.7
0.725
0.82
0.85
0.805
0.765
0.825
0.79
0.775
0.805
0.67
0.61
0.74
0.86
0.845
0.87
0.87
0.78
0.74
0.85
0.82
0.75
0.805
0.89
0.73
0.695
0.855
0.625
0.63
0.74
0.72
0.73
0.7
0.75
0.72
0.74
0.7
0.745
0.84
0.79
0.73
0.735
0.81
0.75
0.75
0.81
0.72
0.69
0.59
0.68
0.685
0.64
0.7
0.79
0.84
0.735
0.75
0.795
0.73
0.7
0.725
0.85
0.775
0.75
0.755
0.695
0.7
0.71
0.655
0.65
0.78
0.78
0.77
0.845
0.805
0.725
0.72
0.725
0.72
0.755
0.795
0.81
0.78
0.825
0.87
0.835
0.855
0.865
0.825
0.67
0.645
0.68
0.83
0.79
0.785
0.795
0.685
0.71
0.85
0.8
0.73
0.81
0.825
0.71
0.71
0.76
0.535
0.51
0.645
0.645
0.62
0.69
0.65
0.6
0.685
0.7
0.705
0.66
0.665
0.68
0.755
0.65
0.675
0.725
0.665
0.67
0.665
0.665
0.64
0.675
0.64
0.73
0.77
0.57
0.59
0.625
0.63
0.605
0.59
0.605
0.66
0.765
0.9
0.965
1.145
1.23
1.35
1.5
1.31
1.31
1.33
1.325
1.18
0.92
0.67
0.535
0.45
0.475
0.465
0.475
0.575
0.54
0.56
0.49
0.525
0.515
0.545
0.545
0.48
0.485
0.575
0.53
0.605
0.6
0.6
0.605
0.59
0.605
0.675
0.665
0.635
0.59
0.6
0.65
0.675
0.69
0.66
0.555
0.69
0.695
0.64
0.7
0.64
0.7
0.67
0.66
0.7
0.6
0.525
0.57
0.58
0.605
0.705
0.59
0.605
0.705
0.72
0.67
0.66
0.62
0.54
0.465
0.555
0.59
0.64
0.675
0.69
0.51
0.6
0.61
0.655
0.7
0.61
0.635
0.67
0.685
0.72
0.64
0.585
0.545
0.645
0.69
0.67
0.67
0.59
0.58
0.62
0.65
0.705
0.71
0.685
0.67
0.69
0.74
0.725
0.815
0.735
0.755
0.715
0.735
0.76
0.77
0.675
0.695
0.68
0.76
0.745
0.705
0.665
0.835
0.765
0.77
0.835
0.77
0.75
0.74
0.7
0.705
0.675
0.735
0.75
0.855
0.695
0.79
0.76
0.75
0.705
0.75
0.79
0.81
0.8
0.765
0.765
0.77
0.79
0.705
0.75
0.675
0.56
0.7
0.795
0.745
0.715
0.64
0.665
0.715
0.755
0.77
0.76
0.72
0.62
0.62
0.585
0.535
0.575
0.57
0.675
0.695
0.645
0.645
0.64
0.72
0.74
0.625
0.64
0.645
0.555
0.535
0.55
0.65
0.69
0.72
0.69
0.675
0.57
0.545
0.63
0.605
0.68
0.62
0.55
0.6
0.605
0.615
0.6
0.595
0.6
0.6
0.585
0.735
0.73
0.67
0.625
0.715
0.71
0.675
0.555
0.58
0.52
0.61
0.535
0.72
0.68
0.615
0.605
0.465
0.595
0.81
0.79
0.685
0.685
0.67
0.695
0.695
0.705
0.69
0.695
0.615
0.605
0.66
0.66
0.7
0.62
0.68
0.62
0.68
0.7
0.665
0.655
0.655
0.67
0.68
0.655
0.71
0.62
0.62
0.575
0.69
0.745
0.57
0.57
0.64
0.68
0.735
0.66
0.665
0.725
0.615
0.685
0.62
0.63
0.695
0.715
0.73
0.75
0.63
0.585
0.655
0.735
0.665
0.635
0.675
0.6
0.585
0.655
0.545
0.595
0.755
0.725
0.665
0.57
0.62
0.62
0.74
0.62
0.635
0.65
0.705
0.635
0.68
0.715
0.58
0.65
0.705
0.72
0.7
0.655
0.58
0.62
0.735
0.69
0.715
0.77
0.7
0.72
0.705
0.745
0.745
0.78
0.74
0.76
0.765
0.77
0.78
0.815
0.78
0.545
0.68
0.75
0.795
0.775
0.79
0.745
0.705
0.795
0.645
0.7
0.73
0.745
0.7
0.585
0.615
0.805
0.675
0.57
0.605
0.715
0.735
0.65
0.61
0.605
0.465
0.525
0.57
0.635
0.62
0.7
0.59
0.65
0.59
0.615
0.58
0.615
0.57
0.635
0.58
0.645
0.605
0.55
0.645
0.66
0.765
0.605
0.4
0.495
0.68
0.655
0.57
0.67
0.9
0.94
1.0
1.13
1.32
1.475
1.435
1.43
1.43
1.245
0.995
0.955
0.735
0.585
0.55
0.565
0.555
0.61
0.525
0.49
0.42
0.5
0.57
0.62
0.605
0.57
0.6
0.57
0.555
0.62
0.65
0.645
0.64
0.63
0.605
0.59
0.7
0.7
0.715
0.695
0.585
0.56
0.55
0.55
0.625
0.55
0.545
0.71
0.6
0.58
0.6
0.48
0.57
0.585
0.605
0.715
0.69
0.715
0.685
0.65
0.65
0.635
0.63
0.6
0.6
0.66
0.705
0.72
0.76
0.705
0.695
0.695
0.655
0.6
0.635
0.625
0.71
0.795
0.68
0.645
0.675
0.73
0.73
0.775
0.63
0.555
0.73
0.635
0.665
0.68
0.6
0.625
0.7
0.69
0.69
0.69
0.675
0.66
0.73
0.675
0.75
0.875
0.78
0.745
0.785
0.745
0.715
0.83
0.755
0.7
0.845
0.835
0.745
0.73
0.81
0.805
0.82
0.795
0.89
0.745
0.785
0.85
0.84
0.92
0.84
0.75
0.73
0.81
0.785
0.775
0.725
0.765
0.815
0.885
0.84
0.725
0.8
0.85
0.8
0.74
0.815
0.805
0.855
0.735
0.71
0.805
0.83
0.865
0.795
0.77
0.7
0.805
0.81
0.78
0.735
0.77
0.725
0.68
0.64
0.77
0.815
0.775
0.74
0.785
0.655
0.655
0.66
0.7
0.72
0.725
0.685
0.7
0.69
0.65
0.71
0.64
0.665
0.685
0.77
0.735
0.65
0.64
0.67
0.66
0.695
0.725
0.685
0.715
0.715
0.735
0.695
0.69
0.675
0.64
0.63
0.68
0.67
0.67
0.735
0.76
0.77
0.71
0.73
0.765
0.705
0.67
0.625
0.675
0.725
0.755
0.68
0.755
0.77
0.75
0.74
0.785
0.715
0.815
0.765
0.685
0.66
0.67
0.735
0.705
0.67
0.625
0.665
0.73
0.765
0.76
0.81
0.815
0.755
0.7
0.655
0.67
0.745
0.74
0.76
0.85
0.695
0.655
0.75
0.76
0.7
0.675
0.675
0.72
0.65
0.785
0.705
0.69
0.72
0.705
0.67
0.65
0.745
0.75
0.695
0.715
0.625
0.64
0.63
0.73
0.73
0.68
0.67
0.68
0.675
0.705
0.62
0.61
0.675
0.755
0.785
0.77
0.865
0.765
0.705
0.68
0.73
0.645
0.705
0.71
0.625
0.695
0.62
0.655
0.695
0.685
0.73
0.695
0.72
0.71
0.715
0.705
0.555
0.7
0.625
0.675
0.68
0.64
0.79
0.785
0.775
0.725
0.73
0.79
0.905
0.755
0.71
0.765
0.76
0.825
0.8
0.76
0.75
0.765
0.745
0.8
0.82
0.83
0.81
0.745
0.74
0.78
0.665
0.69
0.71
0.64
0.69
0.715
0.615
0.665
0.64
0.635
0.67
0.575
0.585
0.62
0.645
0.67
0.66
0.635
0.72
0.73
0.665
0.625
0.595
0.67
0.71
0.6
0.555
0.64
0.71
0.685
0.59
0.72
0.685
0.73
0.695
0.49
0.465
0.56
0.515
0.635
0.695
0.665
0.755
0.84
0.985
1.095
1.305
1.42
1.44
1.485
1.465
1.395
1.305
1.11
0.915
0.605
0.485
0.495
0.425
0.44
0.46
0.39
0.405
0.45
0.55
0.58
0.63
0.665
0.625
0.565
0.585
0.61
0.655
0.6
0.605
0.605
0.7
0.64
0.555
0.605
0.625
0.53
0.545
0.635
0.67
0.645
0.575
0.665
0.655
0.62
0.615
0.69
0.6
0.59
0.685
0.71
0.605
0.615
0.69
0.65
0.595
0.615
0.665
0.635
0.635
0.645
0.69
0.645
0.6
0.69
0.53
0.62
0.655
0.7
0.62
0.605
0.605
0.565
0.59
0.625
0.79
0.74
0.73
0.565
0.625
0.68
0.66
0.655
0.71
0.665
0.685
0.655
0.625
0.695
0.645
0.565
0.715
0.695
0.75
0.825
0.765
0.705
0.725
0.89
0.825
0.595
0.535
0.655
0.78
0.83
0.68
0.695
0.715
0.735
0.71
0.715
0.76
0.77
0.8
0.73
0.645
0.705
0.75
0.71
0.76
0.755
0.745
0.855
0.89
0.87
0.85
0.665
0.67
0.72
0.735
0.735
0.77
0.785
0.765
0.81
0.745
0.755
0.795
0.765
0.59
0.6
0.67
0.645
0.645
0.705
0.76
0.72
0.73
0.745
0.66
0.685
0.66
0.73
0.64
0.555
0.61
0.65
0.785
0.59
0.635
0.67
0.63
0.62
0.595
0.59
0.67
0.66
0.59
0.615
0.565
0.6
0.59
0.54
0.55
0.58
0.55
0.56
0.605
0.61
0.56
0.56
0.485
0.565
0.61
0.565
0.455
0.55
0.61
0.59
0.56
0.555
0.575
0.615
0.635
0.61
0.645
0.625
0.59
0.62
0.565
0.58
0.555
0.66
0.625
0.595
0.555
0.495
0.62
0.54
0.48
0.525
0.55
0.67
0.555
0.525
0.555
0.645
0.615
0.57
0.655
0.77
0.525
0.585
0.51
0.54
0.605
0.545
0.555
0.555
0.61
0.565
0.58
0.59
0.59
0.595
0.675
0.605
0.58
0.665
0.665
0.565
0.485
0.52
0.585
0.62
0.575
0.56
0.575
0.565
0.535
0.6
0.635
0.605
0.56
0.51
0.59
0.595
0.575
0.585
0.575
0.565
0.565
0.51
0.515
0.55
0.54
0.56
0.62
0.635
0.6
0.52
0.595
0.565
0.57
0.525
0.59
0.54
0.65
0.545
0.535
0.56
0.47
0.51
0.64
0.675
0.605
0.54
0.57
0.57
0.525
0.545
0.58
0.565
0.56
0.55
0.58
0.68
0.57
0.6
0.635
0.665
0.62
0.66
0.575
0.725
0.665
0.64
0.635
0.645
0.705
0.57
0.555
0.57
0.65
0.61
0.6
0.645
0.63
0.56
0.58
0.52
0.575
0.64
0.545
0.615
0.485
0.49
0.49
0.485
0.47
0.405
0.515
0.5
0.515
0.635
0.52
0.555
0.655
0.585
0.51
0.485
0.5
0.535
0.535
0.495
0.48
0.4
0.38
0.385
0.405
0.455
0.54
0.505
0.465
0.5
0.475
0.545
0.59
0.63
0.73
0.78
0.88
0.965
1.09
1.26
1.33
1.315
1.265
1.11
0.935
0.695
0.53
0.4
0.365
0.375
0.29
0.41
0.44
0.315
0.35
0.375
0.31
0.4
0.58
0.43
0.435
0.565
0.525
0.565
0.395
0.375
0.51
0.555
0.575
0.49
0.515
0.53
0.49
0.505
0.415
0.425
0.45
0.48
0.63
0.53
0.535
0.49
0.43
0.43
0.39
0.395
0.405
0.56
0.43
0.515
0.5
0.46
0.47
0.53
0.575
0.55
0.555
0.585
0.59
0.55
0.53
0.53
0.49
0.49
0.57
0.615
0.505
0.46
0.405
0.51
0.575
0.625
0.61
0.555
0.565
0.545
0.475
0.475
0.57
0.49
0.56
0.695
0.555
0.545
0.685
0.435
0.64
0.68
0.63
0.56
0.585
0.56
0.555
0.445
0.6
0.75
0.645
0.68
0.745
0.48
0.55
0.615
0.67
0.615
0.605
0.59
0.655
0.635
0.66
0.695
0.655
0.67
0.68
0.655
0.59
0.63
0.725
0.69
0.68
0.615
0.675
0.745
0.73
0.665
0.6
0.64
0.655
0.76
0.68
0.67
0.68
0.55
0.61
0.545
0.685
0.73
0.71
0.635
0.635
0.615
0.7
0.73
0.635
0.66
0.625
0.515
0.6
0.685
0.68
0.655
0.635
0.665
0.53
0.58
0.58
0.505
0.45
0.555
0.52
0.57
0.595
0.575
0.54
0.45
0.54
0.515
0.5
0.515
0.54
0.5
0.495
0.5
0.61
0.44
0.46
0.545
0.54
0.59
0.53
0.68
0.535
0.47
0.455
0.515
0.56
0.58
0.58
0.555
0.56
0.63
0.615
0.6
0.54
0.465
0.415
0.545
0.54
0.56
0.575
0.555
0.605
0.585
0.62
0.5
0.5
0.555
0.62
0.505
0.385
0.58
0.595
0.57
0.54
0.56
0.58
0.61
0.645
0.605
0.55
0.55
0.59
0.545
0.52
0.665
0.585
0.605
0.61
0.56
0.545
0.595
0.565
0.56
0.565
0.565
0.555
0.43
0.485
0.585
0.605
0.555
0.46
0.49
0.475
0.5
0.545
0.59
0.5
0.495
0.5
0.47
0.56
0.55
0.58
0.55
0.605
0.59
0.6
0.62
0.63
0.59
0.55
0.55
0.48
0.525
0.59
0.575
0.625
0.64
0.545
0.485
0.465
0.575
0.525
0.435
0.535
0.555
0.615
0.535
0.56
0.55
0.535
0.535
0.595
0.55
0.54
0.56
0.58
0.65
0.56
0.58
0.505
0.525
0.585
0.54
0.6
0.545
0.67
0.635
0.675
0.735
0.76
0.715
0.665
0.645
0.575
0.49
0.575
0.56
0.6
0.63
0.675
0.645
0.605
0.55
0.66
0.57
0.595
0.605
0.68
0.65
0.605
0.6
0.55
0.5
0.505
0.57
0.525
0.615
0.655
0.61
0.55
0.515
0.625
0.56
0.53
0.495
0.61
0.58
0.61
0.565
0.525
0.455
0.605
0.625
0.545
0.605
0.595
0.675
0.51
0.495
0.545
0.415
0.465
0.63
0.64
0.685
0.575
0.645
0.695
0.865
1.015
1.045
1.195
1.215
1.29
1.3
1.335
1.21
1.02
0.745
0.535
0.535
0.47
0.535
0.555
0.465
0.52
0.505
0.48
0.505
0.445
0.53
0.485
0.555
0.61
0.555
0.545
0.56
0.585
0.585
0.625
0.48
0.585
0.56
0.515
0.505
0.595
0.535
0.575
0.585
0.62
0.68
0.655
0.465
0.48
0.595
0.545
0.595
0.595
0.61
0.48
0.445
0.42
0.545
0.585
0.68
0.67
0.725
0.635
0.645
0.65
0.66
0.63
0.665
0.575
0.485
0.455
0.585
0.625
0.595
0.63
0.635
0.595
0.71
0.575
0.495
0.575
0.595
0.6
0.575
0.61
0.625
0.57
0.595
0.64
0.605
0.62
0.605
0.58
0.535
0.595
0.69
0.635
0.625
0.675
0.74
0.825
0.655
0.59
0.66
0.72
0.69
0.715
0.73
0.86
0.715
0.8
0.655
0.715
0.785
0.755
0.75
0.68
0.645
0.71
0.74
0.725
0.79
0.715
0.7
0.73
0.75
0.735
0.74
0.725
0.72
0.73
0.76
0.785
0.725
0.78
0.72
0.745
0.655
0.77
0.795
0.775
0.8
0.835
0.78
0.745
0.695
0.75
0.755
0.745
0.705
0.7
0.79
0.73
0.78
0.74
0.63
0.67
0.63
0.6
0.645
0.6
0.64
0.67
0.68
0.715
0.665
0.635
0.625
0.7
0.645
0.635
0.71
0.755
0.735
0.71
0.58
0.615
0.675
0.695
0.635
0.68
0.665
0.58
0.635
0.685
0.715
0.6
0.695
0.635
0.555
0.59
0.645
0.67
0.6
0.525
0.685
0.655
0.53
0.645
0.68
0.665
0.675
0.63
0.66
0.7
0.7
0.695
0.7
0.655
0.65
0.685
0.66
0.645
0.59
0.645
0.83
0.715
0.73
0.695
0.75
0.645
0.685
0.655
0.67
0.67
0.705
0.615
0.47
0.695
0.87
0.875
0.7
0.625
0.635
0.63
0.665
0.635
0.655
0.69
0.72
0.695
0.72
0.695
0.7
0.74
0.685
0.725
0.65
0.63
0.625
0.705
0.71
0.71
0.635
0.57
0.525
0.66
0.66
0.62
0.66
0.83
0.805
0.655
0.645
0.78
0.72
0.7
0.64
0.565
0.625
0.64
0.775
0.73
0.795
0.725
0.765
0.665
0.715
0.755
0.765
0.68
0.795
0.74
0.53
0.52
0.655
0.645
0.65
0.605
0.655
0.655
0.655
0.695
0.635
0.68
0.755
0.705
0.725
0.69
0.695
0.73
0.745
0.67
0.725
0.765
0.78
0.775
0.695
0.72
0.7
0.76
0.755
0.83
0.72
0.74
0.885
0.79
0.785
0.7
0.685
0.755
0.73
0.7
0.64
0.735
0.66
0.695
0.785
0.685
0.675
0.715
0.695
0.625
0.615
0.605
0.575
0.58
0.61
0.59
0.695
0.705
0.695
0.61
0.62
0.635
0.66
0.63
0.545
0.66
0.61
0.685
0.7
0.645
0.725
0.62
0.66
0.615
0.575
0.665
0.73
0.715
0.675
0.67
0.695
0.76
0.81
0.84
0.92
1.055
1.265
1.38
1.425
1.5
1.48
1.34
1.205
1.125
0.885
0.61
0.575
0.43
0.475
0.645
0.58
0.595
0.56
0.485
0.54
0.635
0.62
0.59
0.625
0.63
0.605
0.735
0.665
0.64
0.785
0.695
0.66
0.645
0.65
0.66
0.645
0.63
0.68
0.65
0.69
0.63
0.625
0.65
0.685
0.605
0.49
0.695
0.725
0.72
0.7
0.74
0.725
0.76
0.705
0.61
0.7
0.75
0.72
0.7
0.71
0.62
0.565
0.625
0.595
0.65
0.685
0.645
0.695
0.6
0.64
0.695
0.75
0.715
0.705
0.715
0.725
0.78
0.76
0.655
0.705
0.725
0.855
0.77
0.6
0.605
0.645
0.81
0.845
0.745
0.79
0.79
0.795
0.755
0.72
0.795
0.765
0.69
0.735
0.81
0.865
0.8
0.78
0.735
0.69
0.78
0.76
0.77
0.745
0.78
0.81
0.74
0.815
0.78
0.74
0.855
0.88
0.935
0.755
0.88
0.715
0.82
0.905
0.685
0.79
0.825
0.935
0.735
0.825
0.845
0.82
0.845
0.895
0.805
0.74
0.805
0.845
0.88
0.835
0.815
0.82
0.805
0.765
0.82
0.79
0.71
0.725
0.83
0.815
0.795
0.78
0.79
0.845
0.74
0.81
0.71
0.72
0.75
0.74
0.785
0.805
0.73
0.725
0.71
0.76
0.675
0.63
0.65
0.605
0.72
0.74
0.775
0.775
0.705
0.635
0.68
0.765
0.62
0.66
0.645
0.605
0.56
0.84
0.825
0.715
0.67
0.64
0.645
0.66
0.72
0.67
0.635
0.64
0.655
0.705
0.74
0.735
0.61
0.645
0.695
0.685
0.675
0.71
0.68
0.845
0.72
0.455
0.555
0.77
0.785
0.835
0.765
0.755
0.73
0.685
0.695
0.69
0.685
0.73
0.71
0.62
0.68
0.82
0.83
0.68
0.645
0.675
0.74
0.715
0.74
0.745
0.685
0.65
0.715
0.64
0.675
0.67
0.63
0.655
0.68
0.68
0.635
0.575
0.59
0.685
0.73
0.685
0.675
0.705
0.7
0.69
0.725
0.725
0.67
0.625
0.635
0.67
0.58
0.65
0.685
0.62
0.655
0.655
0.615
0.63
0.655
0.715
0.725
0.735
0.7
0.65
0.645
0.655
0.645
0.665
0.71
0.705
0.715
0.645
0.68
0.715
0.63
0.69
0.65
0.51
0.585
0.655
0.635
0.63
0.625
0.645
0.665
0.71
0.69
0.56
0.625
0.72
0.785
0.81
0.75
0.76
0.685
0.735
0.8
0.78
0.765
0.75
0.755
0.74
0.74
0.755
0.805
0.8
0.775
0.72
0.73
0.695
0.705
0.74
0.725
0.65
0.71
0.6
0.62
0.625
0.585
0.635
0.745
0.71
0.61
0.655
0.625
0.665
0.73
0.645
0.675
0.49
0.48
0.57
0.66
0.62
0.595
0.63
0.735
0.65
0.66
0.645
0.655
0.53
0.52
0.67
0.735
0.755
0.685
0.63
0.685
0.645
0.66
0.675
0.71
0.77
0.885
0.965
1.11
1.28
1.415
1.5
1.465
1.48
1.435
1.215
1.075
0.845
0.545
0.44
0.445
0.365
0.425
0.47
0.42
0.515
0.605
0.42
0.465
0.465
0.44
0.55
0.625
0.66
0.625
0.655
0.655
0.59
0.605
0.56
0.61
0.67
0.65
0.625
0.665
0.665
0.715
0.57
0.545
0.71
0.66
0.73
0.73
0.73
0.635
0.445
0.625
0.625
0.595
0.79
0.665
0.69
0.6
0.555
0.58
0.64
0.63
0.69
0.73
0.69
0.67
0.66
0.67
0.68
0.65
0.775
0.77
0.67
0.68
0.685
0.67
0.685
0.695
0.72
0.795
0.67
0.78
0.67
0.74
0.73
0.685
0.755
0.66
0.735
0.735
0.77
0.82
0.805
0.645
0.685
0.525
0.695
0.75
0.77
0.74
0.805
0.83
0.77
0.82
0.76
0.85
0.78
0.755
0.765
0.91
0.865
0.72
0.715
0.745
0.78
0.76
0.78
0.805
0.785
0.74
0.72
0.9
0.73
0.77
0.82
0.825
0.795
0.81
0.845
0.765
0.835
0.825
0.7
0.815
0.92
0.975
0.835
0.89
0.855
0.825
0.845
0.73
0.695
0.79
0.79
0.815
0.755
0.73
0.835
0.855
0.74
0.735
0.715
0.705
0.69
0.725
0.69
0.685
0.68
0.715
0.69
0.67
0.65
0.68
0.665
0.5
0.555
0.645
0.63
0.71
0.69
0.585
0.535
0.58
0.525
0.64
0.75
0.69
0.53
0.645
0.72
0.655
0.635
0.64
0.645
0.585
0.62
0.54
0.63
0.6
0.61
0.6
0.645
0.705
0.705
0.55
0.555
0.585
0.62
0.59
0.585
0.555
0.595
0.725
0.645
0.65
0.62
0.635
0.6
0.57
0.565
0.615
0.605
0.62
0.605
0.63
0.705
0.635
0.585
0.565
0.74
0.655
0.51
0.56
0.54
0.565
0.69
0.52
0.625
0.64
0.61
0.55
0.6
0.54
0.575
0.57
0.625
0.68
0.625
0.625
0.685
0.6
0.5
0.56
0.655
0.7
0.63
0.63
0.495
0.635
0.505
0.605
0.685
0.66
0.64
0.72
0.605
0.595
0.655
0.665
0.685
0.535
0.37
0.51
0.765
0.625
0.635
0.605
0.605
0.625
0.53
0.605
0.58
0.675
0.68
0.645
0.635
0.6
0.545
0.625
0.66
0.655
0.6
0.6
0.63
0.635
0.71
0.7
0.68
0.59
0.57
0.605
0.61
0.66
0.695
0.69
0.675
0.64
0.665
0.72
0.685
0.69
0.71
0.78
0.765
0.76
0.73
0.675
0.59
0.575
0.67
0.645
0.575
0.715
0.8
0.78
0.695
0.585
0.725
0.68
0.66
0.625
0.68
0.445
0.465
0.61
0.53
0.445
0.495
0.635
0.665
0.715
0.545
0.505
0.54
0.59
0.67
0.675
0.595
0.585
0.535
0.54
0.58
0.605
0.67
0.66
0.605
0.57
0.55
0.57
0.54
0.545
0.475
0.585
0.72
0.6
0.62
0.67
0.81
0.8
1.025
1.215
1.285
1.27
1.23
1.37
1.295
1.235
1.07
0.885
0.69
0.39
0.38
0.38
0.53
0.455
0.485
0.435
0.5
0.51
0.615
0.545
0.57
0.55
0.5
0.475
0.54
0.51
0.5
0.555
0.54
0.595
0.63
0.62
0.48
0.5
0.555
0.625
0.57
0.565
0.445
0.465
0.575
0.665
0.76
0.645
0.535
0.53
0.68
0.595
0.65
0.685
0.615
0.635
0.61
0.64
0.56
0.64
0.63
0.605
0.57
0.62
0.635
0.585
0.56
0.59
0.69
0.665
0.655
0.68
0.595
0.575
0.61
0.655
0.615
0.575
0.58
0.68
0.605
0.575
0.555
0.585
0.615
0.675
0.635
0.665
0.55
0.58
0.685
0.645
0.59
0.64
0.685
0.74
0.67
0.675
0.665
0.7
0.73
0.63
0.67
0.725
0.745
0.795
0.785
0.74
0.685
0.785
0.71
0.6
0.7
0.7
0.705
0.725
0.755
0.67
0.64
0.785
0.83
0.825
0.81
0.785
0.675
0.75
0.765
0.805
0.705
0.69
0.69
0.765
0.65
0.715
0.78
0.73
0.58
0.655
0.735
0.79
0.695
0.71
0.755
0.77
0.735
0.735
0.66
0.645
0.605
0.705
0.78
0.685
0.66
0.675
0.66
0.655
0.74
0.74
0.65
0.795
0.605
0.61
0.545
0.555
0.61
0.625
0.62
0.575
0.525
0.6
0.675
0.555
0.525
0.575
0.58
0.6
0.55
0.495
0.495
0.6
0.725
0.61
0.59
0.635
0.665
0.63
0.68
0.52
0.425
0.61
0.555
0.595
0.585
0.625
0.605
0.58
0.64
0.63
0.625
0.535
0.67
0.645
0.675
0.505
0.51
0.625
0.695
0.69
0.67
0.645
0.565
0.575
0.57
0.625
0.62
0.6
0.66
0.635
0.64
0.675
0.635
0.58
0.62
0.65
0.625
0.69
0.665
0.665
0.55
0.52
0.505
0.66
0.71
0.65
0.645
0.605
0.565
0.585
0.56
0.48
0.7
0.63
0.6
0.66
0.715
0.595
0.615
0.66
0.635
0.64
0.61
0.58
0.525
0.61
0.665
0.645
0.645
0.67
0.645
0.63
0.66
0.555
0.58
0.67
0.555
0.44
0.56
0.685
0.695
0.64
0.51
0.525
0.6
0.64
0.595
0.595
0.6
0.555
0.61
0.62
0.625
0.595
0.595
0.52
0.62
0.615
0.665
0.625
0.705
0.585
0.59
0.62
0.6
0.625
0.555
0.705
0.735
0.63
0.735
0.72
0.645
0.685
0.785
0.715
0.64
0.73
0.68
0.725
0.59
0.69
0.63
0.68
0.675
0.61
0.58
0.62
0.79
0.63
0.62
0.585
0.68
0.61
0.505
0.515
0.535
0.595
0.645
0.64
0.62
0.555
0.575
0.54
0.595
0.625
0.495
0.515
0.54
0.62
0.575
0.52
0.585
0.53
0.5
0.575
0.615
0.66
0.465
0.53
0.54
0.545
0.57
0.465
0.525
0.66
0.65
0.655
0.68
0.75
0.83
0.94
1.06
1.135
1.255
1.35
1.345
1.29
1.24
1.17
0.95
0.645
0.45
0.49
0.495
0.475
0.475
0.51
0.455
0.45
0.53
0.55
0.495
0.67
0.58
0.555
0.595
0.565
0.58
0.615
0.6
0.555
0.515
0.535
0.525
0.57
0.565
0.445
0.49
0.63
0.585
0.54
0.51
0.595
0.59
0.545
0.605
0.62
0.61
0.665
0.605
0.55
0.585
0.595
0.55
0.58
0.6
0.625
0.605
0.74
0.62
0.515
0.535
0.555
0.56
0.58
0.67
0.695
0.58
0.55
0.63
0.53
0.57
0.66
0.66
0.56
0.735
0.645
0.675
0.65
0.695
0.655
0.62
0.68
0.69
0.605
0.75
0.595
0.585
0.615
0.74
0.715
0.6
0.67
0.78
0.565
0.475
0.69
0.775
0.75
0.695
0.7
0.71
0.66
0.725
0.725
0.725
0.655
0.73
0.74
0.74
0.715
0.66
0.805
0.795
0.76
0.75
0.705
0.65
0.64
0.825
0.77
0.705
0.695
0.765
0.705
0.79
0.82
0.805
0.685
0.7
0.705
0.71
0.685
0.7
0.865
0.735
0.815
0.995
0.71
0.67
0.66
0.69
0.665
0.64
0.76
0.745
0.72
0.73
0.69
0.655
0.625
0.69
0.58
0.62
0.63
0.555
0.565
0.61
0.61
0.67
0.73
0.67
0.6
0.61
0.56
0.62
0.71
0.615
0.605
0.605
0.525
0.555
0.585
0.615
0.61
0.62
0.56
0.615
0.65
0.665
0.52
0.52
0.58
0.71
0.595
0.535
0.59
0.665
0.595
0.61
0.565
0.53
0.635
0.6
0.555
0.58
0.66
0.69
0.62
0.605
0.625
0.565
0.59
0.565
0.62
0.71
0.705
0.635
0.645
0.595
0.62
0.735
0.625
0.505
0.59
0.49
0.56
0.67
0.69
0.575
0.56
0.605
0.67
0.705
0.62
0.635
0.57
0.66
0.705
0.67
0.6
0.55
0.51
0.585
0.65
0.625
0.59
0.61
0.6
0.55
0.65
0.64
0.585
0.545
0.64
0.64
0.61
0.59
0.605
0.55
0.52
0.515
0.55
0.535
0.615
0.595
0.63
0.595
0.545
0.595
0.625
0.635
0.67
0.54
0.65
0.625
0.61
0.58
0.645
0.665
0.605
0.465
0.595
0.535
0.535
0.605
0.57
0.59
0.685
0.555
0.645
0.595
0.58
0.64
0.59
0.59
0.55
0.545
0.575
0.575
0.68
0.59
0.56
0.56
0.585
0.575
0.685
0.655
0.665
0.655
0.675
0.73
0.72
0.675
0.76
0.725
0.56
0.7
0.69
0.625
0.585
0.73
0.735
0.64
0.57
0.655
0.845
0.61
0.575
0.56
0.575
0.64
0.59
0.565
0.57
0.39
0.445
0.435
0.56
0.545
0.575
0.54
0.595
0.535
0.55
0.525
0.55
0.57
0.65
0.47
0.53
0.585
0.585
0.52
0.58
0.565
0.575
0.615
0.585
0.51
0.54
0.55
0.56
0.51
0.55
0.605
0.71
0.665
0.72
0.845
1.04
1.16
1.255
1.365
1.44
1.365
1.3
1.16
0.885
0.52
0.375
0.36
0.61
0.63
0.45
0.375
0.535
0.42
0.43
0.415
0.525
0.555
0.43
0.445
0.355
0.725
0.665
0.54
0.495
0.505
0.59
0.485
0.53
0.61
0.55
0.465
0.485
0.485
0.555
0.545
0.535
0.52
0.555
0.48
0.49
0.635
0.6
0.465
0.425
0.495
0.61
0.605
0.65
0.59
0.55
0.565
0.555
0.58
0.535
0.65
0.54
0.565
0.53
0.63
0.575
0.54
0.52
0.575
0.615
0.62
0.69
0.635
0.585
0.485
0.52
0.51
0.52
0.635
0.59
0.63
0.55
0.58
0.655
0.625
0.575
0.62
0.475
0.415
0.45
0.55
0.555
0.57
0.635
0.63
0.69
0.655
0.62
0.585
0.635
0.66
0.715
0.635
0.605
0.62
0.645
0.685
0.715
0.635
0.655
0.715
0.67
0.79
0.675
0.73
0.72
0.69
0.55
0.64
0.675
0.61
0.665
0.67
0.68
0.73
0.7
0.665
0.65
0.635
0.745
0.815
0.715
0.78
0.665
0.61
0.75
0.6
0.7
0.775
0.61
0.63
0.67
0.62
0.63
0.66
0.69
0.805
0.625
0.625
0.635
0.6
0.705
0.635
0.65
0.585
0.46
0.565
0.495
0.55
0.64
0.655
0.645
0.595
0.57
0.56
0.61
0.585
0.535
0.455
0.475
0.615
0.565
0.505
0.52
0.48
0.52
0.66
0.64
0.585
0.565
0.395
0.59
0.695
0.605
0.56
0.54
0.56
0.59
0.61
0.57
0.52
0.51
0.535
0.585
0.535
0.54
0.57
0.585
0.48
0.545
0.565
0.58
0.645
0.555
0.525
0.59
0.61
0.58
0.545
0.42
0.5
0.545
0.545
0.535
0.49
0.53
0.595
0.575
0.43
0.42
0.535
0.655
0.635
0.545
0.595
0.64
0.61
0.535
0.62
0.525
0.52
0.59
0.53
0.59
0.53
0.58
0.61
0.57
0.605
0.525
0.545
0.64
0.53
0.535
0.58
0.52
0.535
0.545
0.495
0.52
0.59
0.61
0.53
0.515
0.535
0.545
0.545
0.54
0.535
0.515
0.46
0.405
0.565
0.475
0.465
0.5
0.53
0.585
0.46
0.545
0.595
0.535
0.545
0.54
0.535
0.54
0.585
0.59
0.545
0.55
0.47
0.52
0.485
0.535
0.535
0.485
0.545
0.44
0.51
0.555
0.62
0.555
0.635
0.515
0.65
0.695
0.685
0.715
0.66
0.635
0.54
0.6
0.655
0.75
0.81
0.65
0.58
0.51
0.555
0.64
0.615
0.645
0.675
0.6
0.625
0.595
0.585
0.565
0.54
0.525
0.52
0.505
0.59
0.575
0.58
0.56
0.585
0.52
0.575
0.465
0.55
0.495
0.56
0.52
0.505
0.485
0.47
0.51
0.5
0.565
0.625
0.73
0.505
0.54
0.49
0.515
0.51
0.52
0.485
0.52
0.515
0.435
0.485
0.5
0.465
0.445
0.445
0.515
0.61
0.835
0.905
0.95
1.19
1.365
1.435
1.445
1.37
1.195
1.215
1.055
0.825
0.5
0.475
0.495
0.535
0.415
0.385
0.34
0.44
0.455
0.475
0.52
0.535
0.53
0.51
0.47
0.41
0.525
0.56
0.48
0.47
0.5
0.595
0.65
0.46
0.37
0.52
0.54
0.58
0.505
0.59
0.56
0.465
0.455
0.475
0.52
0.6
0.49
0.405
0.525
0.58
0.61
0.535
0.52
0.56
0.505
0.51
0.505
0.585
0.655
0.665
0.59
0.565
0.52
0.565
0.55
0.53
0.515
0.505
0.525
0.485
0.52
0.525
0.545
0.615
0.57
0.515
0.57
0.56
0.595
0.645
0.675
0.53
0.39
0.48
0.565
0.475
0.585
0.71
0.645
0.505
0.45
0.625
0.575
0.52
0.75
0.675
0.56
0.61
0.665
0.595
0.59
0.595
0.675
0.64
0.69
0.615
0.61
0.52
0.585
0.63
0.645
0.715
0.63
0.61
0.665
0.71
0.705
0.75
0.745
0.71
0.65
0.705
0.665
0.61
0.69
0.735
0.73
0.68
0.77
0.77
0.64
0.695
0.68
0.615
0.64
0.765
0.695
0.7
0.71
0.635
0.6
0.64
0.675
0.705
0.64
0.68
0.65
0.715
0.66
0.54
0.61
0.62
0.655
0.62
0.455
0.55
0.62
0.645
0.585
0.565
0.61
0.56
0.545
0.545
0.55
0.59
0.565
0.6
0.63
0.565
0.55
0.575
0.535
0.5
0.565
0.485
0.52
0.64
0.695
0.65
0.65
0.595
0.58
0.58
0.56
0.49
0.61
0.56
0.585
0.51
0.56
0.555
0.59
0.505
0.54
0.535
0.59
0.575
0.58
0.595
0.61
0.49
0.53
0.58
0.635
0.595
0.585
0.515
0.59
0.7
0.68
0.52
0.57
0.685
0.515
0.58
0.56
0.605
0.605
0.605
0.595
0.515
0.485
0.52
0.59
0.705
0.64
0.48
0.495
0.63
0.665
0.555
0.55
0.55
0.515
0.59
0.585
0.515
0.485
0.505
0.515
0.585
0.56
0.595
0.525
0.51
0.6
0.615
0.525
0.575
0.465
0.61
0.59
0.535
0.64
0.575
0.5
0.52
0.585
0.625
0.61
0.64
0.59
0.405
0.465
0.47
0.465
0.52
0.59
0.57
0.505
0.565
0.56
0.5
0.435
0.43
0.415
0.56
0.45
0.54
0.555
0.565
0.595
0.565
0.585
0.58
0.48
0.52
0.585
0.61
0.625
0.63
0.59
0.595
0.645
0.63
0.545
0.59
0.57
0.615
0.64
0.66
0.63
0.655
0.585
0.59
0.515
0.495
0.69
0.62
0.55
0.535
0.34
0.535
0.535
0.44
0.585
0.59
0.53
0.48
0.49
0.495
0.515
0.495
0.445
0.445
0.415
0.52
0.585
0.56
0.375
0.43
0.42
0.5
0.5
0.45
0.43
0.49
0.47
0.52
0.495
0.365
0.51
0.365
0.515
0.48
0.44
0.635
0.625
0.46
0.5
0.475
0.445
0.53
0.565
0.45
0.51
0.555
0.775
0.935
1.095
1.21
1.305
1.41
1.33
1.145
0.99
0.855
0.565
0.27
0.255
0.225
0.235
0.25
0.235
0.215
0.27
0.39
0.375
0.325
0.39
0.415
0.415
0.4
0.315
0.315
0.315
0.47
0.475
0.455
0.425
0.49
0.365
0.525
0.46
0.415
0.39
0.405
0.525
0.41
0.47
0.485
0.41
0.455
0.48
0.395
0.44
0.445
0.485
0.38
0.44
0.395
0.44
0.48
0.565
0.525
0.43
0.32
0.28
0.465
0.465
0.46
0.45
0.42
0.395
0.4
0.445
0.52
0.44
0.385
0.505
0.535
0.45
0.405
0.54
0.52
0.42
0.485
0.52
0.55
0.535
0.445
0.51
0.425
0.365
0.54
0.49
0.53
0.525
0.51
0.635
0.485
0.42
0.525
0.445
0.495
0.49
0.515
0.56
0.52
0.495
0.44
0.45
0.535
0.565
0.53
0.51
0.515
0.54
0.565
0.62
0.595
0.54
0.57
0.55
0.56
0.63
0.525
0.44
0.6
0.655
0.68
0.6
0.53
0.53
0.62
0.56
0.595
0.56
0.48
0.495
0.545
0.575
0.54
0.54
0.535
0.57
0.51
0.58
0.49
0.48
0.53
0.58
0.46
0.445
0.435
0.495
0.365
0.475
0.43
0.525
0.58
0.4
0.4
0.4
0.38
0.41
0.465
0.435
0.22
0.395
0.39
0.38
0.38
0.285
0.32
0.385
0.38
0.34
0.35
0.37
0.355
0.41
0.35
0.345
0.355
0.385
0.435
0.375
0.195
0.125
0.285
0.35
0.325
0.37
0.34
0.335
0.325
0.38
0.33
0.29
0.38
0.43
0.33
0.3
0.355
0.245
0.325
0.275
0.275
0.305
0.395
0.4
0.37
0.265
0.25
0.36
0.41
0.375
0.26
0.27
0.39
0.34
0.245
0.3
0.315
0.355
0.42
0.45
0.435
0.365
0.265
0.325
0.365
0.355
0.405
0.345
0.26
0.3
0.36
0.4
0.31
0.345
0.32
0.325
0.315
0.37
0.31
0.255
0.335
0.355
0.34
0.43
0.425
0.36
0.375
0.445
0.43
0.32
0.285
0.365
0.475
0.395
0.43
0.37
0.4
0.415
0.39
0.345
0.285
0.375
0.3
0.385
0.385
0.445
0.385
0.36
0.365
0.33
0.305
0.31
0.305
0.4
0.455
0.385
0.425
0.41
0.275
0.33
0.335
0.31
0.355
0.4
0.425
0.37
0.335
0.4
0.45
0.47
0.395
0.305
0.425
0.36
0.475
0.55
0.505
0.4
0.46
0.575
0.49
0.545
0.46
0.415
0.45
0.56
0.43
0.535
0.57
0.37
0.49
0.46
0.295
0.2
0.255
0.36
0.36
0.32
0.35
0.4
0.365
0.345
0.3
0.29
0.49
0.29
0.265
0.365
0.36
0.285
0.235
0.24
0.25
0.315
0.3
0.315
0.25
0.305
0.35
0.385
0.365
0.25
0.2
0.22
0.225
0.26
0.33
0.355
0.235
0.24
0.33
0.29
0.23
0.28
0.45
0.56
0.555
0.63
0.795
0.905
0.905
1.005
1.255
1.21
1.105
0.89
0.795
0.6
0.3
0.265
0.15
0.085
0.05
0.1
0.13
0.11
0.12
0.155
0.23
0.205
0.255
0.295
0.29
0.29
0.3
0.36
0.17
0.28
0.31
0.305
0.34
0.235
0.155
0.185
0.22
0.23
0.265
0.325
0.315
0.37
0.295
0.325
0.25
0.245
0.225
0.31
0.32
0.295
0.235
0.285
0.35
0.295
0.35
0.345
0.275
0.19
0.27
0.39
0.32
0.335
0.32
0.285
0.29
0.32
0.33
0.325
0.295
0.375
0.345
0.435
0.28
0.26
0.245
0.27
0.265
0.29
0.3
0.355
0.385
0.35
0.29
0.32
0.37
0.3
0.34
0.28
0.37
0.44
0.475
0.475
0.395
0.29
0.33
0.435
0.385
0.4
0.395
0.315
0.365
0.385
0.37
0.375
0.45
0.435
0.49
0.475
0.485
0.57
0.42
0.245
0.425
0.49
0.395
0.41
0.535
0.485
0.395
0.485
0.57
0.655
0.535
0.465
0.5
0.49
0.495
0.47
0.51
0.495
0.535
0.49
0.425
0.52
0.46
0.46
0.515
0.655
0.58
0.595
0.59
0.44
0.295
0.315
0.41
0.445
0.43
0.465
0.425
0.49
0.47
0.44
0.36
0.395
0.405
0.47
0.295
0.185
0.375
0.49
0.395
0.395
0.385
0.39
0.35
0.35
0.36
0.425
0.355
0.345
0.465
0.295
0.25
0.305
0.36
0.285
0.245
0.17
0.41
0.38
0.405
0.42
0.35
0.28
0.315
0.36
0.43
0.42
0.415
0.42
0.445
0.285
0.33
0.3
0.35
0.405
0.3
0.355
0.52
0.355
0.24
0.305
0.36
0.36
0.26
0.34
0.48
0.49
0.455
0.52
0.525
0.495
0.32
0.29
0.34
0.51
0.415
0.375
0.375
0.345
0.425
0.38
0.355
0.3
0.355
0.38
0.4
0.415
0.33
0.455
0.385
0.325
0.34
0.325
0.41
0.465
0.38
0.355
0.49
0.45
0.455
0.38
0.39
0.35
0.39
0.36
0.395
0.41
0.43
0.455
0.335
0.37
0.335
0.38
0.35
0.415
0.435
0.44
0.44
0.39
0.355
0.3
0.2
0.255
0.365
0.4
0.385
0.345
0.395
0.32
0.335
0.29
0.325
0.42
0.46
0.29
0.305
0.41
0.41
0.35
0.395
0.435
0.395
0.44
0.385
0.34
0.45
0.38
0.38
0.375
0.33
0.37
0.47
0.48
0.45
0.525
0.385
0.465
0.495
0.47
0.535
0.56
0.47
0.495
0.445
0.315
0.515
0.48
0.39
0.425
0.535
0.495
0.455
0.385
0.39
0.265
0.335
0.38
0.395
0.515
0.33
0.17
0.25
0.315
0.33
0.355
0.38
0.435
0.35
0.395
0.315
0.385
0.34
0.32
0.32
0.275
0.37
0.315
0.36
0.47
0.4
0.32
0.3
0.26
0.29
0.365
0.34
0.345
0.29
0.285
0.235
0.245
0.265
0.33
0.265
0.31
0.405
0.48
0.625
0.69
0.845
0.895
1.025
1.075
1.12
1.13
0.95
0.79
0.595
0.375
0.29
0.25
0.17
0.165
0.04
0.165
0.195
0.255
0.22
0.17
0.215
0.26
0.225
0.305
0.25
0.21
0.235
0.29
0.305
0.375
0.305
0.29
0.325
0.31
0.24
0.195
0.255
0.24
0.405
0.325
0.25
0.235
0.26
0.25
0.32
0.375
0.295
0.39
0.275
0.265
0.27
0.29
0.295
0.31
0.315
0.315
0.4
0.33
0.3
0.325
0.355
0.33
0.355
0.355
0.4
0.395
0.31
0.335
0.305
0.37
0.415
0.4
0.415
0.34
0.405
0.44
0.415
0.35
0.4
0.365
0.38
0.445
0.41
0.29
0.315
0.305
0.365
0.4
0.37
0.295
0.32
0.39
0.365
0.35
0.28
0.51
0.505
0.54
0.48
0.425
0.36
0.375
0.435
0.365
0.405
0.435
0.43
0.45
0.415
0.425
0.535
0.465
0.4
0.48
0.52
0.48
0.425
0.445
0.425
0.375
0.43
0.45
0.5
0.475
0.465
0.505
0.445
0.47
0.395
0.385
0.305
0.455
0.415
0.52
0.495
0.485
0.46
0.385
0.42
0.52
0.435
0.39
0.39
0.465
0.47
0.38
0.375
0.395
0.435
0.42
0.385
0.29
0.295
0.25
0.335
0.28
0.295
0.37
0.34
0.35
0.34
0.285
0.3
0.28
0.195
0.21
0.325
0.325
0.35
0.145
0.28
0.215
0.28
0.235
0.29
0.285
0.265
0.28
0.245
0.28
0.23
0.21
0.15
0.19
0.265
0.275
0.31
0.31
0.25
0.215
0.225
0.21
0.175
0.19
0.28
0.255
0.2
0.16
0.225
0.255
0.13
0.105
0.28
0.27
0.245
0.245
0.2
0.125
0.225
0.245
0.21
0.385
0.29
0.26
0.285
0.17
0.25
0.295
0.175
0.17
0.17
0.175
0.215
0.335
0.255
0.305
0.215
0.14
0.17
0.19
0.22
0.13
0.205
0.23
0.1
0.27
0.195
0.185
0.195
0.275
0.23
0.2
0.13
0.28
0.165
0.21
0.135
0.1
0.12
0.19
0.23
0.065
0.135
0.195
0.23
0.165
0.165
0.15
0.135
0.165
0.24
0.18
0.2
0.145
0.245
0.245
0.17
0.145
0.125
0.14
0.195
0.19
0.17
0.16
0.225
0.065
0.155
0.185
0.145
0.22
0.19
0.225
0.195
0.155
0.275
0.265
0.245
0.235
0.285
0.22
0.23
0.225
0.265
0.2
0.28
0.325
0.255
0.24
0.245
0.17
0.21
0.265
0.21
0.14
0.225
0.34
0.195
0.11
0.16
0.165
0.205
0.215
0.045
0.025
0.19
0.15
0.195
0.125
0.05
0.01
0.145
0.2
0.195
0.165
0.125
0.07
0.12
0.105
0.16
0.14
0.075
0.055
0.12
0.18
0.115
0.135
0.185
0.16
0.175
-0.055
-0.025
0.175
0.115
0.12
0.1
0.075
0.01
0.015
0.08
0.15
0.295
0.325
0.44
0.665
0.705
0.67
0.955
0.985
0.985
0.885
0.65
0.495
0.305
0.1
0.1
0.0
-0.04
-0.045
-0.04
-0.1
-0.08
-0.08
-0.005
0.04
0.075
0.02
-0.025
0.015
0.125
0.14
0.155
0.135
0.095
0.14
0.015
0.05
0.035
0.095
0.14
0.19
0.06
0.11
0.045
0.025
0.13
0.135
0.11
0.065
0.05
0.12
0.165
0.18
0.12
0.085
0.05
0.06
0.07
0.075
0.185
0.2
0.17
0.135
0.115
0.065
0.085
0.04
0.065
0.07
0.08
0.125
0.045
0.11
0.165
0.125
0.105
0.045
0.08
0.1
0.12
0.17
0.11
0.145
0.2
0.095
0.24
0.17
0.24
0.195
0.09
-0.05
0.15
0.265
0.195
0.21
0.205
0.155
0.13
0.16
0.19
0.155
0.17
0.145
0.28
0.365
0.36
0.26
0.055
0.035
0.18
0.215
0.12
0.16
0.305
0.29
0.28
0.285
0.26
0.215
0.155
0.23
0.315
0.41
0.36
0.325
0.35
0.335
0.31
0.305
0.3
0.285
0.31
0.285
0.27
0.28
0.265
0.315
0.285
0.225
0.345
0.295
0.315
0.37
0.295
0.23
0.215
0.23
0.29
0.33
0.25
0.29
0.195
0.19
0.19
0.06
0.155
0.21
0.225
0.18
0.265
0.24
0.2
0.235
0.23
0.245
0.12
0.13
0.155
0.135
0.19
0.205
0.205
0.155
0.145
0.225
0.225
0.095
0.085
0.14
0.08
0.14
0.22
0.23
0.145
0.15
0.135
0.055
0.185
0.19
0.175
0.235
0.36
0.275
0.075
0.2
0.2
0.16
0.175
0.13
0.125
0.105
0.14
0.195
0.225
0.095
0.145
0.28
0.255
0.16
0.155
0.185
0.145
0.1
0.12
0.16
0.115
0.22
0.07
0.14
0.155
0.16
0.09
0.19
0.195
0.21
0.25
0.21
0.21
0.135
0.08
0.14
0.245
0.25
0.02
0.09
0.27
0.335
0.28
0.18
-0.01
0.165
0.165
0.24
0.195
0.165
0.085
0.035
0.1
0.11
0.115
0.24
0.175
0.095
0.11
0.115
0.15
0.15
0.085
0.055
0.095
0.105
0.1
0.18
0.125
0.085
0.095
0.155
0.17
0.175
0.16
0.225
0.225
0.15
0.16
0.08
0.145
0.17
0.095
0.0
0.04
0.13
0.125
0.22
0.225
0.23
0.15
0.03
0.08
0.1
0.105
0.165
0.205
0.25
0.21
0.175
0.265
0.25
0.16
0.18
0.28
0.145
0.16
0.095
0.25
0.325
0.275
0.265
0.205
0.1
0.045
0.09
0.215
0.19
0.135
0.16
0.15
0.27
0.165
0.02
0.075
0.105
0.065
0.005
0.065
0.095
0.065
0.095
0.04
0.01
-0.005
0.02
0.01
0.065
-0.005
0.1
0.21
0.14
0.05
0.025
-0.01
0.08
0.09
0.075
0.055
0.08
0.165
0.11
0.07
0.1
0.07
0.145
0.185
0.165
0.005
0.005
0.115
0.18
0.275
0.42
0.525
0.615
0.765
0.94
0.96
0.915
0.88
0.725
0.46
0.205
0.045
-0.015
0.0
-0.095
-0.01
-0.03
-0.07
-0.11
-0.095
-0.095
-0.045
0.15
0.17
0.095
-0.045
0.12
0.005
0.07
0.0
0.0
0.07
0.045
0.06
-0.04
0.11
0.075
-0.01
0.0
0.045
0.065
0.05
0.02
0.045
0.07
0.01
-0.015
0.045
0.0
0.075
0.08
-0.015
0.07
0.09
0.04
0.075
0.1
0.065
0.06
0.02
0.11
0.12
0.06
0.085
-0.02
0.03
0.12
0.065
0.01
0.05
0.05
-0.07
-0.015
-0.075
0.11
0.145
0.18
0.035
-0.025
0.06
0.055
0.075
0.095
-0.01
0.12
0.205
0.185
0.12
0.13
0.095
0.01
0.16
0.195
0.155
0.03
0.06
0.185
0.235
0.16
0.12
0.195
0.175
0.12
0.08
0.13
0.145
0.24
0.13
0.085
0.02
0.075
0.11
0.145
0.195
0.14
0.03
0.165
0.215
0.31
0.375
0.28
0.175
0.16
0.185
0.26
0.24
0.155
0.185
0.21
0.25
0.195
0.2
0.285
0.235
0.205
0.245
0.11
0.01
0.09
0.285
0.215
0.17
0.18
0.24
0.205
0.165
0.125
0.22
0.225
0.08
0.14
0.035
0.075
0.1
0.185
0.22
0.12
0.1
0.125
0.135
0.1
0.085
0.13
0.215
0.145
0.04
0.04
0.095
0.005
0.025
0.05
0.065
0.055
0.085
0.165
0.175
0.115
0.105
-0.01
0.12
0.105
0.1
0.115
0.09
0.18
0.13
0.09
0.06
0.05
0.15
0.045
0.105
0.185
0.075
0.025
0.09
0.025
0.13
0.12
0.045
0.13
0.06
0.14
0.095
0.055
0.2
0.215
0.15
0.07
0.025
0.16
0.015
0.08
0.055
0.18
0.2
0.16
0.2
0.22
0.11
0.105
-0.02
0.06
0.12
0.045
0.16
0.235
0.205
0.185
0.175
0.16
0.145
0.16
0.045
0.085
0.1
0.045
0.075
0.175
0.135
0.19
0.115
0.035
0.04
0.12
0.125
0.175
0.185
0.04
0.045
0.17
0.005
0.045
0.055
0.17
0.11
0.095
0.105
0.08
0.11
0.16
0.14
0.075
0.045
0.05
-0.025
0.065
0.08
0.095
0.115
0.015
-0.025
0.13
0.155
0.155
0.125
0.04
0.035
0.055
0.235
0.095
0.17
0.295
0.235
0.17
0.21
0.11
0.115
0.21
0.285
0.22
0.15
0.065
0.135
0.24
0.245
0.23
0.205
0.24
0.29
0.215
0.225
0.17
0.175
0.165
0.165
0.155
0.21
0.235
0.25
0.28
0.095
0.145
0.075
0.035
0.065
0.01
0.1
0.095
0.14
0.21
0.17
0.225
0.07
0.1
0.16
0.095
0.04
0.145
0.115
0.06
0.11
0.15
0.12
0.14
0.095
0.18
0.02
0.13
0.015
0.09
0.08
0.035
0.08
0.15
0.125
0.205
0.19
0.105
0.24
0.29
0.435
0.555
0.7
0.87
0.925
0.96
0.91
0.75
0.665
0.465
0.205
0.045
-0.035
-0.085
0.025
-0.08
-0.11
-0.11
0.025
0.035
0.125
0.045
0.08
0.035
0.08
-0.005
0.075
0.04
0.115
0.165
