# TIPE ECG 2021 - ECG-ID Database v1.0.0 par Physionet
# [N° de la personne, N° de l'enregistrement, Période d'échantillonnage, Prénom, Age, Sexe, Date de l'enregistrement]
[47, 2, 0.002, "Flavie", 20, "F", "12.05.2005"]
-0.135
-0.13
-0.12
-0.115
-0.125
-0.12
-0.135
-0.14
-0.115
-0.125
-0.13
-0.115
-0.11
-0.11
-0.11
-0.125
-0.125
-0.13
-0.125
-0.105
-0.115
-0.105
-0.11
-0.095
-0.1
-0.09
-0.09
-0.12
-0.11
-0.1
-0.105
-0.11
-0.095
-0.1
-0.085
-0.1
-0.1
-0.115
-0.115
-0.115
-0.125
-0.105
-0.115
-0.09
-0.105
-0.12
-0.12
-0.12
-0.115
-0.12
-0.105
-0.1
-0.11
-0.09
-0.1
-0.115
-0.12
-0.135
-0.115
-0.12
-0.14
-0.12
-0.125
-0.105
-0.12
-0.105
-0.12
-0.135
-0.125
-0.125
-0.115
-0.11
-0.125
-0.11
-0.11
-0.12
-0.145
-0.14
-0.125
-0.13
-0.12
-0.115
-0.11
-0.115
-0.12
-0.12
-0.135
-0.14
-0.12
-0.11
-0.115
-0.12
-0.12
-0.11
-0.095
-0.12
-0.13
-0.14
-0.125
-0.125
-0.125
-0.125
-0.115
-0.08
-0.09
-0.095
-0.095
-0.075
-0.065
-0.085
-0.065
-0.06
-0.035
-0.035
-0.045
-0.06
-0.07
-0.07
-0.05
-0.075
-0.045
-0.06
-0.04
-0.055
-0.08
-0.12
-0.145
-0.15
-0.145
-0.145
-0.12
-0.115
-0.125
-0.13
-0.13
-0.15
-0.17
-0.155
-0.15
-0.145
-0.14
-0.135
-0.135
-0.135
-0.15
-0.15
-0.15
-0.16
-0.145
-0.15
-0.14
-0.145
-0.14
-0.155
-0.185
-0.155
-0.13
-0.07
-0.01
0.04
0.095
0.17
0.27
0.375
0.5
0.61
0.685
0.745
0.725
0.685
0.49
0.35
0.17
-0.04
-0.32
-0.41
-0.45
-0.405
-0.365
-0.335
-0.31
-0.275
-0.235
-0.21
-0.205
-0.205
-0.195
-0.185
-0.165
-0.17
-0.175
-0.18
-0.18
-0.165
-0.175
-0.175
-0.18
-0.16
-0.16
-0.145
-0.155
-0.16
-0.14
-0.135
-0.17
-0.175
-0.185
-0.15
-0.155
-0.165
-0.15
-0.145
-0.125
-0.13
-0.13
-0.145
-0.15
-0.145
-0.14
-0.125
-0.13
-0.12
-0.12
-0.12
-0.135
-0.125
-0.14
-0.12
-0.12
-0.11
-0.11
-0.1
-0.08
-0.085
-0.085
-0.105
-0.11
-0.09
-0.105
-0.09
-0.08
-0.075
-0.045
-0.03
-0.075
-0.065
-0.07
-0.055
-0.045
-0.035
-0.035
-0.02
0.015
0.01
0.01
0.005
0.015
0.04
0.04
0.07
0.075
0.075
0.1
0.085
0.085
0.085
0.105
0.115
0.105
0.12
0.13
0.105
0.13
0.11
0.115
0.095
0.08
0.1
0.1
0.1
0.1
0.09
0.08
0.05
0.035
0.01
0.015
0.01
0.01
0.0
-0.005
-0.01
-0.04
-0.05
-0.07
-0.08
-0.07
-0.095
-0.095
-0.095
-0.09
-0.105
-0.1
-0.115
-0.12
-0.135
-0.14
-0.125
-0.125
-0.125
-0.14
-0.12
-0.125
-0.135
-0.145
-0.16
-0.155
-0.14
-0.16
-0.155
-0.16
-0.125
-0.135
-0.15
-0.18
-0.185
-0.16
-0.165
-0.165
-0.16
-0.145
-0.135
-0.15
-0.145
-0.175
-0.185
-0.17
-0.145
-0.165
-0.17
-0.15
-0.135
-0.135
-0.16
-0.165
-0.18
-0.16
-0.15
-0.15
-0.15
-0.135
-0.12
-0.135
-0.155
-0.18
-0.185
-0.15
-0.145
-0.125
-0.14
-0.13
-0.12
-0.125
-0.14
-0.15
-0.125
-0.115
-0.14
-0.135
-0.13
-0.12
-0.1
-0.135
-0.12
-0.13
-0.145
-0.145
-0.15
-0.12
-0.105
-0.11
-0.115
-0.115
-0.13
-0.145
-0.145
-0.135
-0.145
-0.105
-0.105
-0.125
-0.11
-0.115
-0.12
-0.16
-0.14
-0.125
-0.145
-0.14
-0.13
-0.13
-0.12
-0.145
-0.145
-0.16
-0.155
-0.155
-0.155
-0.135
-0.14
-0.13
-0.11
-0.13
-0.14
-0.145
-0.16
-0.14
-0.13
-0.135
-0.115
-0.115
-0.11
-0.13
-0.13
-0.155
-0.155
-0.14
-0.135
-0.11
-0.115
-0.105
-0.095
-0.1
-0.105
-0.115
-0.1
-0.095
-0.085
-0.09
-0.075
-0.06
-0.06
-0.085
-0.085
-0.085
-0.09
-0.085
-0.105
-0.11
-0.13
-0.14
-0.135
-0.15
-0.185
-0.18
-0.175
-0.165
-0.19
-0.17
-0.145
-0.12
-0.14
-0.16
-0.17
-0.185
-0.175
-0.165
-0.18
-0.16
-0.15
-0.14
-0.145
-0.16
-0.18
-0.19
-0.185
-0.165
-0.175
-0.18
-0.175
-0.14
-0.12
-0.06
-0.02
-0.01
0.07
0.17
0.265
0.39
0.535
0.65
0.69
0.71
0.68
0.505
0.345
0.195
-0.005
-0.25
-0.385
-0.415
-0.42
-0.395
-0.36
-0.34
-0.305
-0.275
-0.27
-0.23
-0.205
-0.18
-0.185
-0.19
-0.18
-0.19
-0.175
-0.165
-0.18
-0.16
-0.17
-0.145
-0.14
-0.16
-0.17
-0.165
-0.145
-0.15
-0.155
-0.15
-0.14
-0.12
-0.14
-0.16
-0.15
-0.17
-0.15
-0.145
-0.12
-0.12
-0.125
-0.1
-0.135
-0.15
-0.145
-0.125
-0.115
-0.12
-0.115
-0.11
-0.11
-0.095
-0.1
-0.115
-0.12
-0.105
-0.1
-0.11
-0.095
-0.09
-0.08
-0.055
-0.07
-0.085
-0.09
-0.095
-0.06
-0.055
-0.06
-0.035
-0.02
-0.025
-0.015
-0.03
-0.035
-0.02
-0.02
0.0
0.01
0.02
0.035
0.05
0.04
0.025
0.03
0.075
0.1
0.075
0.09
0.095
0.125
0.145
0.13
0.115
0.115
0.125
0.13
0.125
0.12
0.135
0.145
0.125
0.12
0.1
0.08
0.065
0.075
0.07
0.065
0.06
0.07
0.045
0.015
0.0
0.01
0.005
-0.005
-0.04
-0.04
-0.035
-0.025
-0.055
-0.07
-0.08
-0.095
-0.09
-0.07
-0.085
-0.11
-0.095
-0.09
-0.105
-0.125
-0.13
-0.14
-0.12
-0.1
-0.115
-0.125
-0.105
-0.11
-0.12
-0.135
-0.135
-0.135
-0.11
-0.13
-0.115
-0.125
-0.12
-0.105
-0.12
-0.125
-0.135
-0.15
-0.17
-0.13
-0.135
-0.125
-0.125
-0.125
-0.125
-0.145
-0.165
-0.17
-0.155
-0.135
-0.12
-0.125
-0.125
-0.105
-0.11
-0.11
-0.135
-0.135
-0.105
-0.13
-0.115
-0.125
-0.11
-0.095
-0.1
-0.12
-0.14
-0.12
-0.1
-0.12
-0.105
-0.09
-0.1
-0.095
-0.1
-0.1
-0.115
-0.115
-0.11
-0.095
-0.105
-0.1
-0.08
-0.06
-0.09
-0.11
-0.115
-0.09
-0.08
-0.1
-0.055
-0.08
-0.08
-0.07
-0.075
-0.09
-0.115
-0.105
-0.105
-0.105
-0.075
-0.085
-0.07
-0.045
-0.065
-0.095
-0.105
-0.09
-0.095
-0.09
-0.095
-0.095
-0.07
-0.045
-0.06
-0.07
-0.08
-0.045
-0.06
-0.06
-0.075
-0.05
0.01
0.0
-0.025
-0.03
-0.05
-0.04
-0.06
-0.055
-0.035
-0.055
-0.065
-0.08
-0.12
-0.14
-0.145
-0.125
-0.12
-0.12
-0.125
-0.125
-0.135
-0.13
-0.12
-0.13
-0.14
-0.14
-0.135
-0.13
-0.125
-0.14
-0.13
-0.14
-0.16
-0.16
-0.15
-0.15
-0.13
-0.125
-0.13
-0.135
-0.125
-0.14
-0.135
-0.075
-0.035
-0.005
0.035
0.095
0.205
0.295
0.42
0.605
0.69
0.715
0.715
0.685
0.505
0.38
0.225
-0.015
-0.27
-0.37
-0.415
-0.42
-0.395
-0.33
-0.3
-0.265
-0.255
-0.23
-0.195
-0.175
-0.175
-0.195
-0.2
-0.175
-0.165
-0.17
-0.16
-0.15
-0.13
-0.125
-0.14
-0.165
-0.17
-0.145
-0.145
-0.15
-0.14
-0.13
-0.13
-0.14
-0.135
-0.16
-0.15
-0.13
-0.13
-0.13
-0.12
-0.135
-0.105
-0.125
-0.125
-0.15
-0.13
-0.11
-0.115
-0.105
-0.12
-0.1
-0.1
-0.11
-0.12
-0.125
-0.115
-0.085
-0.08
-0.075
-0.08
-0.085
-0.065
-0.09
-0.09
-0.08
-0.075
-0.06
-0.06
-0.04
-0.04
-0.015
0.0
-0.015
-0.04
-0.055
-0.04
-0.05
-0.02
0.0
-0.005
0.03
0.06
0.065
0.05
0.045
0.065
0.08
0.09
0.09
0.1
0.12
0.13
0.13
0.12
0.105
0.115
0.11
0.12
0.1
0.09
0.12
0.105
0.08
0.07
0.07
0.07
0.085
0.08
0.05
0.055
0.065
0.045
0.025
0.0
0.0
-0.015
-0.025
-0.015
-0.03
-0.045
-0.04
-0.055
-0.07
-0.08
-0.095
-0.08
-0.08
-0.09
-0.085
-0.095
-0.09
-0.11
-0.15
-0.14
-0.17
-0.13
-0.14
-0.14
-0.145
-0.155
-0.14
-0.14
-0.15
-0.145
-0.145
-0.145
-0.135
-0.14
-0.13
-0.145
-0.13
-0.16
-0.165
-0.165
-0.2
-0.165
-0.18
-0.195
-0.2
-0.16
-0.15
-0.175
-0.205
-0.225
-0.23
-0.2
-0.2
-0.18
-0.165
-0.165
-0.14
-0.155
-0.2
-0.225
-0.245
-0.225
-0.2
-0.185
-0.19
-0.185
-0.175
-0.195
-0.22
-0.205
-0.205
-0.18
-0.215
-0.175
-0.175
-0.18
-0.185
-0.175
-0.215
-0.245
-0.225
-0.24
-0.255
-0.24
-0.23
-0.225
-0.195
-0.22
-0.24
-0.22
-0.23
-0.24
-0.245
-0.235
-0.235
-0.24
-0.21
-0.225
-0.22
-0.22
-0.195
-0.21
-0.21
-0.19
-0.195
-0.195
-0.18
-0.22
-0.225
-0.215
-0.195
-0.18
-0.185
-0.2
-0.17
-0.16
-0.14
-0.175
-0.185
-0.165
-0.14
-0.145
-0.13
-0.115
-0.12
-0.09
-0.085
-0.095
-0.105
-0.12
-0.12
-0.11
-0.11
-0.11
-0.13
-0.14
-0.135
-0.155
-0.17
-0.2
-0.155
-0.13
-0.13
-0.12
-0.085
-0.1
-0.095
-0.14
-0.145
-0.165
-0.135
-0.13
-0.125
-0.115
-0.12
-0.105
-0.1
-0.125
-0.155
-0.12
-0.085
-0.1
-0.11
-0.105
-0.105
-0.075
-0.07
-0.06
-0.02
-0.01
0.055
0.145
0.215
0.335
0.465
0.585
0.695
0.77
0.77
0.75
0.65
0.48
0.37
0.18
-0.075
-0.235
-0.275
-0.3
-0.27
-0.245
-0.2
-0.18
-0.15
-0.145
-0.095
-0.085
-0.135
-0.13
-0.11
-0.105
-0.09
-0.07
-0.055
-0.065
-0.06
-0.05
-0.055
-0.085
-0.06
-0.085
-0.065
-0.09
-0.055
-0.04
-0.05
-0.035
-0.065
-0.07
-0.06
-0.06
-0.07
-0.065
-0.03
-0.04
-0.035
-0.005
-0.045
-0.055
-0.06
-0.05
-0.045
-0.03
-0.01
-0.02
0.0
0.005
-0.01
-0.015
-0.05
-0.01
0.015
0.03
0.01
0.01
0.025
0.03
0.025
0.02
-0.005
0.01
0.03
0.03
0.05
0.045
0.06
0.05
0.055
0.04
0.05
0.075
0.07
0.09
0.09
0.105
0.145
0.165
0.145
0.145
0.155
0.175
0.165
0.185
0.195
0.19
0.235
0.24
0.23
0.23
0.215
0.255
0.25
0.22
0.225
0.22
0.235
0.24
0.225
0.215
0.19
0.195
0.17
0.185
0.175
0.185
0.19
0.16
0.125
0.12
0.1
0.1
0.1
0.085
0.095
0.08
0.095
0.085
0.075
0.045
0.025
0.075
0.05
0.03
0.035
0.04
0.045
0.05
0.005
0.015
0.01
0.01
0.025
0.005
0.015
0.03
0.03
0.045
0.005
-0.005
-0.005
0.005
0.02
0.0
0.005
0.015
0.015
0.005
0.015
0.0
-0.01
-0.005
0.005
0.0
0.015
0.005
0.025
0.01
0.0
-0.015
-0.015
-0.025
-0.005
0.005
-0.015
0.01
0.015
-0.01
0.0
-0.025
-0.005
0.01
-0.005
0.015
0.01
0.01
0.02
0.02
0.01
-0.02
0.025
0.02
0.02
0.02
0.035
0.04
0.01
0.03
0.0
-0.01
0.005
0.045
0.045
0.035
0.055
0.05
0.05
0.06
0.03
0.0
0.01
0.035
0.05
0.06
0.07
0.07
0.065
0.06
0.04
0.025
0.04
0.045
0.06
0.065
0.07
0.105
0.09
0.065
0.055
0.03
0.04
0.05
0.075
0.08
0.08
0.095
0.095
0.085
0.07
0.065
0.09
0.09
0.09
0.09
0.115
0.12
0.125
0.12
0.1
0.095
0.1
0.105
0.095
0.085
0.085
0.09
0.085
0.04
0.03
0.0
0.02
0.025
0.035
0.04
0.05
0.05
0.04
0.02
0.02
0.015
0.025
0.03
0.035
0.03
0.04
0.045
0.02
0.045
0.025
0.015
0.015
0.025
0.03
0.035
0.015
0.035
0.07
0.1
0.135
0.135
0.185
0.3
0.405
0.5
0.63
0.755
0.81
0.825
0.805
0.665
0.545
0.415
0.22
0.01
-0.155
-0.185
-0.2
-0.185
-0.165
-0.13
-0.1
-0.075
-0.065
-0.035
-0.015
0.02
0.02
0.02
-0.01
-0.015
-0.005
0.0
0.015
0.01
0.02
0.05
0.03
0.01
0.005
0.02
0.03
0.005
0.03
0.03
0.04
0.065
0.05
0.025
-0.015
0.025
0.045
0.02
0.045
0.045
0.05
0.05
0.055
0.045
0.035
0.035
0.045
0.04
0.045
0.05
0.065
0.085
0.06
0.025
0.065
0.05
0.08
0.06
0.075
0.1
0.08
0.105
0.1
0.065
0.075
0.095
0.09
0.115
0.12
0.12
0.12
0.135
0.115
0.105
0.1
0.125
0.175
0.19
0.185
0.18
0.195
0.205
0.2
0.19
0.2
0.235
0.23
0.235
0.235
0.26
0.275
0.275
0.295
0.26
0.25
0.265
0.26
0.265
0.28
0.28
0.275
0.27
0.245
0.24
0.22
0.22
0.205
0.225
0.22
0.21
0.205
0.19
0.175
0.14
0.13
0.13
0.11
0.09
0.105
0.095
0.105
0.085
0.09
0.065
0.06
0.075
0.055
0.05
0.06
0.055
0.065
0.065
0.045
0.05
0.02
0.06
0.05
0.025
0.025
0.045
0.055
0.035
0.01
0.02
0.005
0.02
0.045
0.03
0.045
0.03
0.03
0.025
0.005
-0.005
0.005
0.015
0.02
0.015
0.005
0.045
0.035
0.025
0.005
-0.02
-0.015
0.005
-0.005
0.02
0.035
0.01
0.015
0.02
0.0
0.005
0.0
0.005
0.005
0.035
0.025
0.01
0.035
0.025
0.005
-0.01
0.01
0.045
0.03
0.045
0.04
0.04
0.06
0.04
0.04
0.04
0.04
0.035
0.045
0.04
0.04
0.06
0.08
0.07
0.06
0.035
0.06
0.025
0.04
0.055
0.055
0.06
0.08
0.06
0.045
0.035
0.04
0.05
0.07
0.055
0.065
0.06
0.065
0.06
0.03
0.02
0.035
0.055
0.05
0.045
0.025
0.065
0.06
0.035
0.04
0.03
0.045
0.055
0.055
0.065
0.065
0.07
0.05
0.04
0.03
0.025
0.08
0.08
0.115
0.095
0.09
0.105
0.095
0.075
0.08
0.07
0.09
0.095
0.095
0.09
0.105
0.115
0.105
0.08
0.065
0.05
0.05
0.05
0.04
0.04
0.05
0.06
0.06
0.055
0.045
0.01
0.005
-0.025
0.015
0.02
0.02
0.035
0.02
0.03
0.01
0.005
0.02
0.03
0.025
0.015
0.015
0.035
0.035
0.04
0.02
0.0
-0.005
0.005
0.045
0.065
0.125
0.145
0.19
0.265
0.355
0.47
0.6
0.7
0.8
0.83
0.82
0.8
0.635
0.515
0.36
0.175
-0.065
-0.155
-0.18
-0.15
-0.11
-0.06
-0.055
-0.025
-0.05
-0.045
-0.02
0.015
0.0
0.02
0.005
0.03
0.025
0.02
0.005
0.01
0.02
0.015
0.03
0.03
0.025
0.03
0.015
0.02
0.005
0.025
0.04
0.03
0.06
0.06
0.055
0.05
0.025
0.03
0.02
0.035
0.03
0.03
0.055
0.06
0.065
0.065
0.055
0.055
0.035
0.04
0.05
0.07
0.07
0.065
0.08
0.09
0.08
0.08
0.04
0.065
0.095
0.075
0.075
0.095
0.105
0.105
0.115
0.105
0.075
0.095
0.1
0.11
0.14
0.14
0.16
0.17
0.15
0.145
0.15
0.16
0.165
0.17
0.195
0.205
0.23
0.23
0.22
0.225
0.225
0.235
0.25
0.25
0.26
0.265
0.28
0.26
0.25
0.245
0.235
0.26
0.245
0.25
0.25
0.265
0.275
0.245
0.215
0.185
0.185
0.18
0.175
0.17
0.15
0.18
0.185
0.16
0.145
0.105
0.1
0.085
0.09
0.115
0.105
0.105
0.105
0.08
0.08
0.06
0.065
0.065
0.06
0.06
0.065
0.055
0.06
0.065
0.04
0.025
0.03
0.035
0.06
0.055
0.055
0.05
0.05
0.055
0.035
0.02
0.045
0.03
0.03
0.055
0.055
0.06
0.065
0.04
0.03
0.01
0.03
0.04
0.05
0.025
0.03
0.045
0.055
0.045
0.02
0.015
0.045
0.035
0.045
0.04
0.035
0.03
0.04
0.035
0.03
0.01
0.015
0.035
0.035
0.04
0.045
0.045
0.055
0.055
0.06
0.025
0.03
0.04
0.045
0.05
0.05
0.065
0.065
0.055
0.05
0.035
0.045
0.06
0.055
0.065
0.065
0.1
0.085
0.065
0.055
0.05
0.055
0.05
0.055
0.06
0.065
0.1
0.095
0.06
0.07
0.055
0.045
0.06
0.045
0.065
0.09
0.105
0.075
0.05
0.05
0.045
0.04
0.05
0.065
0.065
0.06
0.075
0.075
0.06
0.05
0.035
0.045
0.05
0.075
0.075
0.075
0.085
0.065
0.045
0.03
0.04
0.06
0.06
0.065
0.055
0.075
0.075
0.055
0.055
0.045
0.04
0.05
0.05
0.06
0.075
0.065
0.075
0.065
0.06
0.03
0.04
0.045
0.065
0.065
0.085
0.055
0.085
0.075
0.055
0.04
0.05
0.06
0.06
0.06
0.06
0.065
0.095
0.125
0.105
0.07
0.085
0.07
0.075
0.09
0.1
0.115
0.125
0.12
0.115
0.09
0.075
0.09
0.095
0.1
0.1
0.11
0.09
0.06
0.025
0.015
0.03
0.04
0.04
0.04
0.035
0.035
0.04
0.025
0.015
0.01
0.005
0.04
0.035
0.025
0.035
0.035
0.05
0.03
0.02
0.005
0.005
0.01
0.005
0.005
-0.005
0.03
0.06
0.06
0.11
0.125
0.17
0.23
0.33
0.45
0.56
0.675
0.77
0.8
0.795
0.78
0.645
0.5
0.39
0.235
-0.01
-0.12
-0.165
-0.175
-0.135
-0.11
-0.075
-0.05
-0.04
-0.05
-0.03
0.025
0.01
-0.005
-0.015
-0.005
-0.005
0.005
0.0
0.0
0.0
0.025
0.03
0.02
0.005
-0.005
-0.005
-0.015
0.0
0.015
0.015
0.04
0.04
0.01
-0.01
-0.01
0.015
0.03
0.035
0.035
0.025
0.045
0.05
0.02
0.035
0.035
0.025
0.025
0.035
0.045
0.05
0.075
0.06
0.045
0.035
0.025
0.025
0.04
0.04
0.04
0.045
0.085
0.075
0.085
0.05
0.04
0.065
0.075
0.08
0.065
0.1
0.115
0.105
0.105
0.09
0.095
0.105
0.125
0.14
0.145
0.155
0.17
0.175
0.165
0.165
0.175
0.195
0.2
0.185
0.195
0.2
0.225
0.23
0.205
0.205
0.215
0.23
0.235
0.235
0.215
0.225
0.24
0.24
0.21
0.19
0.185
0.18
0.18
0.19
0.175
0.17
0.175
0.16
0.14
0.105
0.105
0.11
0.1
0.08
0.08
0.095
0.095
0.085
0.05
0.035
0.045
0.055
0.06
0.055
0.04
0.035
0.05
0.02
0.02
-0.01
0.01
0.015
0.02
0.025
0.015
0.03
0.03
0.035
0.025
-0.02
0.0
0.015
0.015
0.005
-0.015
0.015
0.025
0.035
0.005
-0.02
0.005
-0.005
0.0
-0.005
0.005
0.02
0.02
0.02
0.0
-0.015
0.005
0.01
-0.01
-0.01
-0.015
0.02
0.015
-0.01
-0.005
-0.02
0.005
-0.005
-0.005
0.025
0.015
0.01
0.015
-0.01
0.005
0.005
0.0
0.0
0.015
0.025
0.025
0.045
0.035
0.005
0.005
-0.01
0.005
0.02
0.025
0.035
0.035
0.055
0.04
0.03
0.03
0.01
0.03
0.03
0.04
0.045
0.045
0.05
0.04
0.01
0.015
0.0
0.025
0.04
0.04
0.045
0.04
0.035
0.045
0.02
0.02
0.025
0.055
0.035
0.045
0.045
0.04
0.045
0.015
0.0
0.005
0.015
0.025
0.025
0.04
0.035
0.055
0.055
0.05
0.01
0.03
0.02
0.03
0.04
0.055
0.06
0.04
0.015
0.0
0.02
0.025
0.025
0.045
0.05
0.05
0.045
0.025
0.02
0.015
0.035
0.015
0.01
0.025
0.02
0.065
0.07
0.045
0.02
0.015
0.025
0.035
0.02
0.025
0.035
0.055
0.055
0.04
0.03
0.015
0.02
0.02
0.035
0.05
0.04
0.045
0.04
0.04
0.02
0.005
0.015
0.035
0.035
0.025
0.04
0.06
0.05
0.045
0.025
0.035
0.045
0.04
0.04
0.035
0.025
0.05
0.035
0.03
0.03
0.02
0.04
0.045
0.065
0.07
0.075
0.1
0.1
0.08
0.065
0.07
0.08
0.09
0.095
0.115
0.11
0.125
0.105
0.1
0.085
0.08
0.09
0.095
0.085
0.055
0.04
0.04
0.02
0.015
0.01
0.005
0.025
0.045
0.005
0.025
0.025
0.03
0.02
0.015
-0.005
0.005
0.025
0.015
0.035
0.015
0.015
0.055
0.035
0.01
-0.015
-0.005
0.0
0.01
0.06
0.115
0.14
0.165
0.225
0.285
0.4
0.49
0.61
0.71
0.8
0.805
0.805
0.745
0.585
0.45
0.28
0.1
-0.1
-0.155
-0.15
-0.115
-0.105
-0.08
-0.045
-0.055
-0.05
-0.055
-0.04
0.0
0.01
0.0
0.03
0.035
0.005
-0.01
0.01
0.0
0.01
0.005
0.01
0.005
0.02
0.02
0.02
0.005
0.0
-0.005
0.01
0.04
0.035
0.03
0.025
0.045
0.025
0.035
0.005
0.02
0.04
0.035
0.035
0.025
0.045
0.04
0.03
0.025
0.02
0.025
0.035
0.035
0.075
0.07
0.075
0.095
0.055
0.03
0.03
0.065
0.07
0.075
0.065
0.1
0.125
0.11
0.08
0.085
0.08
0.11
0.11
0.105
0.12
0.115
0.13
0.135
0.155
0.135
0.135
0.135
0.155
0.17
0.165
0.18
0.225
0.205
0.2
0.205
0.215
0.215
0.22
0.23
0.245
0.25
0.255
0.265
0.245
0.24
0.23
0.26
0.25
0.255
0.24
0.25
0.245
0.215
0.205
0.2
0.19
0.205
0.18
0.19
0.18
0.155
0.155
0.15
0.125
0.11
0.1
0.125
0.12
0.105
0.105
0.095
0.1
0.085
0.07
0.065
0.045
0.05
0.055
0.055
0.05
0.055
0.07
0.075
0.035
0.005
0.01
0.035
0.02
0.05
0.06
0.055
0.05
0.04
0.02
0.01
0.035
0.03
0.02
0.025
0.025
0.025
0.04
0.025
0.02
0.02
0.005
0.03
0.01
0.015
0.025
0.035
0.04
0.02
0.01
-0.01
0.01
0.015
0.015
0.025
0.03
0.03
0.03
0.015
0.0
0.0
0.02
0.005
0.015
0.03
0.03
0.03
0.045
0.02
0.0
0.01
0.02
0.025
0.055
0.045
0.04
0.04
0.035
0.025
0.025
0.015
0.04
0.06
0.06
0.065
0.06
0.065
0.055
0.045
0.03
0.035
0.04
0.04
0.045
0.055
0.065
0.08
0.09
0.045
0.025
0.015
0.035
0.05
0.065
0.045
0.045
0.065
0.065
0.06
0.03
0.025
0.03
0.04
0.045
0.05
0.06
0.07
0.065
0.03
0.025
0.015
0.03
0.025
0.025
0.05
0.04
0.06
0.045
0.025
0.035
0.015
0.015
0.015
0.03
0.035
0.05
0.075
0.05
0.035
-0.005
0.015
0.025
0.03
0.03
0.06
0.055
0.055
0.04
0.025
0.01
0.0
0.035
0.025
0.03
0.04
0.05
0.05
0.03
0.02
0.03
0.03
0.03
0.005
0.035
0.045
0.025
0.05
0.055
0.03
0.01
0.01
0.015
0.025
0.045
0.025
0.04
0.035
0.035
0.02
0.0
0.005
0.025
0.045
0.05
0.04
0.045
0.055
0.045
0.01
0.005
0.0
0.005
0.03
0.045
0.05
0.04
0.065
0.05
0.005
0.03
0.04
0.04
0.04
0.04
0.02
0.035
0.06
0.035
0.015
-0.005
0.015
0.04
0.035
0.06
0.07
0.075
0.1
0.075
0.06
0.06
0.085
0.07
0.07
0.085
0.095
0.12
0.125
0.09
0.09
0.08
0.095
0.08
0.07
0.06
0.055
0.04
0.045
0.015
0.02
0.015
0.02
0.01
0.005
0.02
0.03
0.03
0.035
0.025
0.0
0.005
0.035
0.015
0.005
0.015
0.03
0.06
0.03
0.015
-0.015
-0.02
0.015
0.015
0.06
0.075
0.13
0.165
0.2
0.26
0.36
0.435
0.555
0.67
0.745
0.805
0.795
0.79
0.62
0.505
0.355
0.2
-0.06
-0.16
-0.19
-0.165
-0.115
-0.095
-0.07
-0.06
-0.06
-0.045
-0.03
0.005
0.005
0.005
0.005
0.04
0.025
0.015
0.01
0.0
0.0
0.005
0.015
0.025
0.015
0.045
0.05
0.025
0.015
0.01
0.005
0.01
0.02
0.015
0.035
0.065
0.05
0.035
0.01
0.01
0.025
0.05
0.055
0.06
0.06
0.09
0.05
0.045
0.04
0.03
0.05
0.05
0.06
0.055
0.075
0.07
0.07
0.06
0.055
0.055
0.075
0.09
0.08
0.08
0.085
0.105
0.1
0.065
0.065
0.095
0.105
0.125
0.115
0.125
0.12
0.135
0.125
0.13
0.135
0.155
0.16
0.175
0.175
0.19
0.19
0.205
0.22
0.19
0.2
0.23
0.225
0.235
0.245
0.255
0.285
0.28
0.265
0.245
0.235
0.245
0.25
0.235
0.235
0.22
0.25
0.235
0.22
0.205
0.19
0.19
0.195
0.19
0.17
0.165
0.17
0.17
0.14
0.12
0.09
0.12
0.11
0.13
0.1
0.08
0.1
0.085
0.07
0.05
0.035
0.05
0.055
0.06
0.05
0.06
0.055
0.055
0.04
0.035
0.015
0.025
0.025
0.04
0.025
0.025
0.06
0.035
0.045
0.015
-0.005
0.0
0.02
0.025
0.02
0.045
0.045
0.04
0.0
-0.015
-0.005
0.005
0.02
0.01
0.005
0.02
0.02
0.005
0.0
-0.02
-0.015
0.01
0.005
0.005
0.02
0.015
0.035
0.015
-0.01
-0.025
-0.015
0.02
0.02
0.03
0.0
0.01
0.04
0.03
0.03
-0.005
0.005
0.025
0.02
0.035
0.025
0.03
0.05
0.065
0.015
-0.01
0.025
0.045
0.06
0.055
0.035
0.055
0.07
0.065
0.04
0.02
0.035
0.035
0.035
0.03
0.04
0.045
0.06
0.055
0.05
0.035
0.03
0.03
0.045
0.06
0.045
0.06
0.06
0.04
0.03
0.02
0.025
0.025
0.035
0.035
0.04
0.045
0.055
0.02
0.01
-0.01
0.03
0.04
0.05
0.055
0.035
0.04
0.04
0.025
0.01
-0.01
0.03
0.02
0.03
0.03
0.035
0.055
0.03
0.02
0.01
0.0
0.015
0.035
0.03
0.025
0.025
0.02
0.025
0.03
0.02
-0.005
0.01
0.01
0.025
0.025
0.03
0.03
0.02
0.02
0.025
-0.005
0.015
0.025
0.025
0.045
0.025
0.04
0.03
0.015
-0.02
-0.025
0.02
0.04
0.045
0.045
0.01
0.04
0.02
0.02
-0.005
-0.02
0.01
0.01
0.02
0.03
0.025
0.02
0.025
0.02
0.005
-0.005
0.02
0.01
0.015
0.025
0.025
0.035
0.02
0.01
0.0
0.01
0.02
0.015
0.01
0.025
0.03
0.04
0.045
0.03
0.0
-0.015
0.005
0.0
-0.005
0.035
0.04
0.055
0.035
0.025
0.04
0.045
0.065
0.055
0.06
0.06
0.06
0.075
0.08
0.07
0.06
0.065
0.085
0.075
0.065
0.06
0.07
0.035
0.02
0.005
-0.005
0.01
0.005
0.0
0.01
-0.005
0.015
0.0
0.015
-0.01
-0.01
-0.02
-0.025
0.0
0.0
0.005
0.01
0.015
-0.025
-0.035
-0.065
-0.045
-0.005
0.0
-0.01
-0.015
0.025
0.05
0.085
0.1
0.115
0.19
0.275
0.37
0.465
0.565
0.69
0.77
0.79
0.795
0.71
0.545
0.445
0.285
0.135
-0.11
-0.17
-0.215
-0.195
-0.185
-0.15
-0.12
-0.09
-0.095
-0.08
-0.055
-0.01
-0.025
-0.03
-0.035
-0.04
-0.03
-0.015
-0.015
-0.005
-0.01
-0.005
-0.015
-0.02
-0.015
-0.02
0.0
0.01
0.0
0.0
0.0
0.015
0.01
0.0
-0.005
0.005
0.02
0.0
0.005
0.015
0.015
0.03
0.025
0.02
0.0
0.0
0.015
0.03
0.04
0.025
0.05
0.05
0.04
0.025
0.015
0.025
0.025
0.045
0.055
0.06
0.06
0.08
0.06
0.04
0.035
0.02
0.07
0.09
0.085
0.105
0.085
0.105
0.11
0.12
0.095
0.095
0.11
0.125
0.14
0.14
0.15
0.165
0.155
0.145
0.16
0.17
0.19
0.2
0.22
0.255
0.215
0.24
0.23
0.24
0.235
0.24
0.24
0.245
0.255
0.26
0.245
0.26
0.24
0.205
0.215
0.2
0.185
0.215
0.195
0.21
0.2
0.185
0.17
0.18
0.135
0.135
0.12
0.115
0.105
0.12
0.11
0.09
0.07
0.065
0.06
0.04
0.05
0.065
0.055
0.045
0.055
0.065
0.045
0.025
0.02
0.025
0.015
0.025
0.02
0.025
0.045
0.035
0.025
0.0
-0.01
0.01
0.025
0.025
0.03
0.03
0.03
0.035
0.005
0.005
0.01
-0.01
0.01
0.01
0.015
0.015
0.045
0.025
0.02
0.015
-0.015
0.02
0.03
0.015
0.025
0.035
0.035
0.03
0.045
0.03
0.015
0.045
0.03
0.05
0.06
0.04
0.05
0.055
0.03
0.05
0.04
0.04
0.06
0.065
0.055
0.075
0.08
0.075
0.075
0.065
0.07
0.09
0.09
0.09
0.095
0.1
0.12
0.1
0.095
0.085
0.1
0.115
0.11
0.13
0.105
0.11
0.115
0.11
0.115
0.115
0.11
0.13
0.125
0.14
0.125
0.155
0.15
0.125
0.14
0.11
0.105
0.13
0.125
0.13
0.13
0.14
0.145
0.145
0.135
0.105
0.14
0.13
0.14
0.14
0.15
0.125
0.13
0.14
0.135
0.095
0.115
0.13
0.125
0.14
0.13
0.155
0.15
0.145
0.115
0.13
0.115
0.12
0.11
0.11
0.14
0.16
0.135
0.12
0.125
0.1
0.13
0.12
0.125
0.14
0.125
0.15
0.135
0.135
0.12
0.115
0.125
0.135
0.11
0.105
0.13
0.15
0.14
0.13
0.115
0.12
0.12
0.145
0.12
0.14
0.115
0.155
0.14
0.13
0.115
0.12
0.12
0.135
0.13
0.135
0.155
0.16
0.165
0.14
0.125
0.125
0.135
0.15
0.155
0.15
0.155
0.135
0.085
0.105
0.11
0.12
0.125
0.135
0.125
0.155
0.165
0.19
0.18
0.15
0.18
0.135
0.15
0.16
0.2
0.175
0.19
0.215
0.205
0.165
0.195
0.19
0.185
0.175
0.175
0.175
0.15
0.13
0.125
0.12
0.13
0.12
0.125
0.105
0.135
0.13
0.15
0.13
0.105
0.125
0.095
0.065
0.11
0.09
0.08
0.08
0.16
0.13
0.11
0.1
0.055
0.06
0.055
0.105
0.12
0.13
0.165
0.245
0.26
0.27
0.3
0.41
0.485
0.595
0.715
0.815
0.845
0.875
0.78
0.6
0.5
0.37
0.235
-0.015
-0.145
-0.16
-0.175
-0.14
-0.09
-0.06
-0.07
-0.03
-0.01
0.005
0.015
0.035
0.065
0.08
0.09
0.065
0.045
0.055
0.045
0.05
0.075
0.09
0.08
0.085
0.05
0.055
0.065
0.09
0.085
0.06
0.11
0.105
0.105
0.1
0.09
0.065
0.03
0.075
0.08
0.06
0.085
0.11
0.1
0.125
0.085
0.08
0.07
0.08
0.08
0.09
0.105
0.12
0.145
0.115
0.12
0.105
0.07
0.105
0.1
0.085
0.115
0.09
0.115
0.135
0.125
0.125
0.11
0.105
0.14
0.12
0.14
0.14
0.165
0.17
0.16
0.15
0.16
0.195
0.185
0.17
0.185
0.21
0.245
0.235
0.21
0.215
0.225
0.24
0.25
0.26
0.29
0.29
0.29
0.295
0.275
0.255
0.255
0.275
0.275
0.28
0.285
0.29
0.285
0.28
0.235
0.215
0.2
0.215
0.205
0.215
0.23
0.215
0.2
0.175
0.145
0.105
0.125
0.13
0.125
0.105
0.105
0.115
0.11
0.085
0.075
0.075
0.06
0.07
0.055
0.055
0.06
0.045
0.07
0.02
0.015
0.02
0.015
0.04
0.03
0.035
0.035
0.03
0.035
0.02
0.01
-0.015
-0.005
0.0
0.005
0.01
0.015
0.015
0.0
-0.015
-0.015
-0.005
0.005
-0.03
-0.025
-0.02
0.0
0.005
-0.005
0.005
-0.01
-0.025
-0.01
-0.02
-0.015
-0.005
-0.005
0.02
0.015
-0.025
-0.03
-0.005
0.02
-0.02
-0.02
0.005
0.0
0.02
0.03
0.005
-0.005
-0.015
-0.005
0.005
-0.005
-0.01
0.0
0.02
0.035
0.025
0.005
0.0
0.015
0.01
0.02
0.02
0.02
0.03
0.025
0.025
0.015
-0.01
0.025
0.015
0.015
0.015
0.01
0.025
0.015
-0.01
-0.01
-0.015
0.02
0.025
0.01
0.0
0.01
0.025
0.005
-0.01
-0.025
-0.01
-0.005
-0.005
0.0
0.0
0.01
0.005
-0.005
-0.01
-0.015
-0.035
-0.03
-0.025
-0.02
-0.005
0.0
0.015
0.0
-0.01
-0.005
-0.02
-0.025
-0.015
0.0
-0.01
-0.01
0.005
-0.01
-0.01
-0.015
-0.02
-0.035
-0.03
-0.025
-0.015
-0.005
0.005
0.0
0.01
0.005
-0.015
0.005
0.01
0.04
0.02
0.015
0.055
0.05
0.03
0.035
0.035
0.03
0.055
0.04
0.035
0.02
0.045
0.035
0.0
-0.045
-0.02
-0.03
-0.035
-0.04
0.01
0.0
-0.01
-0.01
-0.04
-0.02
-0.045
-0.025
-0.04
-0.02
-0.015
-0.04
-0.015
-0.015
-0.055
-0.085
-0.03
-0.03
-0.045
-0.01
-0.025
-0.04
-0.05
-0.045
-0.075
-0.035
0.025
0.07
0.12
0.145
0.21
0.325
0.42
0.505
0.59
0.635
0.68
0.69
0.635
0.445
0.32
0.225
0.085
-0.18
-0.295
-0.315
-0.27
-0.22
-0.19
-0.155
-0.11
-0.11
-0.1
-0.1
-0.09
-0.095
-0.075
-0.065
-0.055
-0.045
-0.045
-0.035
-0.025
-0.045
-0.055
-0.085
-0.05
-0.045
-0.055
-0.035
-0.035
-0.025
-0.03
-0.03
-0.04
-0.055
-0.045
-0.04
-0.015
-0.025
-0.02
-0.015
-0.03
-0.035
-0.04
-0.05
-0.02
-0.015
-0.005
-0.02
-0.01
0.01
-0.01
-0.025
-0.01
-0.035
-0.005
0.005
0.04
0.005
-0.005
0.025
0.015
0.01
-0.02
-0.005
0.01
0.03
0.02
0.04
0.05
0.05
0.04
0.03
0.01
0.025
0.06
0.065
0.085
0.095
0.095
0.11
0.12
0.105
0.095
0.09
0.125
0.13
0.115
0.15
0.165
0.19
0.175
0.165
0.165
0.18
0.18
0.185
0.21
0.205
0.2
0.205
0.195
0.18
0.165
0.175
0.17
0.155
0.16
0.165
0.18
0.155
0.145
0.105
0.075
0.09
0.09
0.075
0.065
0.07
0.075
0.07
0.055
0.02
-0.01
0.0
0.0
0.005
0.005
0.0
0.0
0.0
-0.01
-0.03
-0.045
-0.03
-0.01
-0.025
-0.02
-0.02
0.0
-0.015
-0.03
-0.07
-0.07
-0.05
-0.065
-0.055
-0.035
-0.04
-0.015
0.0
-0.05
-0.055
-0.075
-0.06
-0.045
-0.045
-0.05
-0.035
-0.035
-0.05
-0.04
-0.065
-0.06
-0.07
-0.06
-0.065
-0.045
-0.055
-0.03
-0.045
-0.05
-0.055
-0.065
-0.065
-0.07
-0.065
-0.035
-0.035
-0.015
-0.015
-0.015
-0.055
-0.06
-0.035
-0.035
-0.035
-0.045
-0.03
-0.015
-0.015
-0.04
-0.04
-0.04
-0.025
-0.01
-0.035
-0.03
-0.035
-0.02
-0.015
-0.015
-0.02
-0.06
-0.01
-0.015
-0.005
-0.02
0.0
0.0
-0.015
-0.035
-0.03
-0.025
-0.005
-0.01
-0.015
-0.01
-0.02
0.0
-0.005
-0.02
-0.04
-0.05
-0.02
-0.025
-0.01
-0.03
-0.015
0.005
-0.01
-0.03
-0.04
-0.05
-0.035
-0.035
-0.02
-0.03
-0.035
-0.02
-0.02
-0.03
-0.035
-0.025
-0.045
-0.035
-0.04
-0.035
-0.01
0.0
-0.025
-0.035
-0.055
-0.03
-0.005
0.01
0.01
0.02
0.015
0.02
0.025
0.02
0.025
0.02
0.025
0.015
0.025
0.025
0.05
0.045
0.015
-0.025
-0.045
-0.03
-0.05
-0.035
-0.055
-0.045
-0.035
-0.025
-0.05
-0.055
-0.07
-0.06
-0.055
-0.06
-0.065
-0.055
-0.04
-0.045
-0.055
-0.065
-0.09
-0.06
-0.045
-0.06
-0.055
-0.055
-0.04
-0.045
-0.055
-0.09
-0.11
-0.065
-0.02
0.03
0.035
0.07
0.135
0.23
0.305
0.41
0.51
0.595
0.685
0.695
0.69
0.62
0.46
0.345
0.17
-0.035
-0.27
-0.325
-0.335
-0.295
-0.24
-0.205
-0.155
-0.15
-0.15
-0.155
-0.145
-0.11
-0.115
-0.07
-0.075
-0.075
-0.055
-0.07
-0.1
-0.095
-0.095
-0.08
-0.07
-0.07
-0.085
-0.065
-0.055
-0.06
-0.075
-0.075
-0.07
-0.035
-0.06
-0.065
-0.055
-0.04
-0.03
-0.06
-0.07
-0.07
-0.055
-0.05
-0.06
-0.055
-0.04
-0.055
-0.035
-0.04
-0.045
-0.055
-0.05
-0.03
-0.035
-0.025
-0.025
-0.04
-0.01
-0.01
-0.025
-0.04
-0.04
-0.03
-0.03
-0.015
0.01
-0.02
0.015
0.015
0.005
-0.01
0.015
0.02
0.02
0.045
0.065
0.07
0.07
0.055
0.045
0.04
0.08
0.085
0.095
0.115
0.11
0.125
0.155
0.13
0.125
0.125
0.13
0.135
0.165
0.165
0.165
0.17
0.17
0.15
0.145
0.135
0.145
0.135
0.14
0.15
0.14
0.14
0.135
0.13
0.105
0.065
0.075
0.075
0.065
0.07
0.065
0.065
0.05
0.035
0.015
-0.005
-0.015
-0.02
-0.03
-0.03
-0.015
-0.025
-0.02
-0.045
-0.045
-0.06
-0.06
-0.065
-0.055
-0.06
-0.06
-0.035
-0.045
-0.055
-0.055
-0.07
-0.085
-0.07
-0.07
-0.085
-0.065
-0.05
-0.055
-0.07
-0.06
-0.08
-0.085
-0.095
-0.095
-0.095
-0.075
-0.06
-0.06
-0.08
-0.08
-0.11
-0.105
-0.09
-0.095
-0.095
-0.07
-0.07
-0.085
-0.095
-0.115
-0.115
-0.075
-0.085
-0.075
-0.075
-0.07
-0.06
-0.06
-0.085
-0.095
-0.11
-0.075
-0.07
-0.065
-0.08
-0.08
-0.065
-0.06
-0.055
-0.07
-0.065
-0.08
-0.085
-0.065
-0.04
-0.05
-0.05
-0.055
-0.065
-0.09
-0.075
-0.075
-0.065
-0.045
-0.045
-0.05
-0.025
-0.03
-0.055
-0.075
-0.055
-0.05
-0.055
-0.05
-0.045
-0.065
-0.05
-0.05
-0.05
-0.065
-0.075
-0.075
-0.07
-0.045
-0.055
-0.06
-0.06
-0.075
-0.075
-0.08
-0.08
-0.055
-0.055
-0.05
-0.04
-0.045
-0.045
-0.05
-0.065
-0.08
-0.05
-0.04
-0.03
-0.035
-0.03
-0.025
-0.015
-0.005
-0.02
-0.045
-0.035
-0.01
-0.015
0.01
0.02
0.03
0.0
-0.02
-0.025
-0.055
-0.04
-0.045
-0.055
-0.075
-0.075
-0.08
-0.08
-0.095
-0.11
-0.12
-0.095
-0.095
-0.095
-0.075
-0.09
-0.08
-0.085
-0.095
-0.095
-0.12
-0.11
-0.1
-0.1
-0.105
-0.105
-0.08
-0.09
-0.1
-0.105
-0.125
-0.1
-0.085
-0.115
-0.085
-0.04
0.045
0.06
0.07
0.15
0.225
0.35
0.465
0.585
0.675
0.735
0.76
0.71
0.52
0.37
0.19
0.025
-0.21
-0.315
-0.355
-0.35
-0.29
-0.27
-0.25
-0.225
-0.21
-0.19
-0.17
-0.135
-0.135
-0.13
-0.11
-0.105
-0.13
-0.13
-0.13
-0.12
-0.14
-0.125
-0.11
-0.11
-0.1
-0.095
-0.1
-0.115
-0.125
-0.125
-0.11
-0.12
-0.095
-0.09
-0.075
-0.08
-0.105
-0.13
-0.13
-0.1
-0.095
-0.095
-0.07
-0.085
-0.065
-0.07
-0.1
-0.105
-0.095
-0.08
-0.09
-0.085
-0.075
-0.05
-0.045
-0.055
-0.07
-0.095
-0.085
-0.065
-0.06
-0.06
-0.055
-0.025
-0.03
-0.045
-0.05
-0.06
-0.05
-0.025
-0.015
-0.01
0.005
0.01
0.0
0.005
-0.01
0.005
0.025
0.045
0.055
0.06
0.065
0.085
0.115
0.08
0.07
0.09
0.09
0.115
0.135
0.145
0.15
0.16
0.185
0.16
0.145
0.13
0.14
0.15
0.145
0.155
0.15
0.145
0.15
0.12
0.115
0.1
0.095
0.095
0.095
0.09
0.095
0.08
0.06
0.035
0.02
0.02
0.015
0.015
-0.005
-0.02
-0.015
0.005
-0.005
-0.035
-0.02
-0.08
-0.06
-0.055
-0.065
-0.065
-0.035
-0.055
-0.065
-0.06
-0.075
-0.095
-0.06
-0.055
-0.055
-0.04
-0.045
-0.03
-0.04
-0.05
-0.06
-0.065
-0.04
-0.035
-0.025
-0.05
-0.05
-0.01
0.0
-0.025
-0.03
-0.055
-0.065
-0.045
-0.03
-0.035
-0.04
-0.02
-0.02
-0.035
-0.06
-0.065
-0.03
-0.03
-0.025
-0.02
-0.015
-0.01
-0.02
-0.02
-0.015
-0.035
-0.03
-0.035
-0.01
0.025
0.005
0.025
0.01
-0.015
-0.02
-0.015
-0.005
-0.005
0.0
0.015
0.03
0.035
0.02
0.0
-0.01
-0.005
-0.005
-0.005
0.01
0.015
0.005
0.005
0.0
-0.02
0.0
0.0
0.01
-0.01
0.005
0.02
0.01
0.025
0.005
-0.015
-0.005
0.01
0.0
-0.02
0.0
0.01
0.01
0.02
0.03
0.0
-0.025
-0.01
-0.01
0.005
0.01
0.025
0.035
0.025
0.01
-0.005
-0.015
0.0
0.015
0.015
0.03
0.03
0.035
0.045
0.025
0.02
0.02
0.025
0.045
0.06
0.055
0.065
0.075
0.055
0.045
0.03
0.02
0.035
0.045
0.01
-0.01
-0.02
0.005
0.0
-0.025
-0.025
-0.055
-0.04
-0.03
-0.01
-0.025
-0.03
-0.025
-0.035
-0.055
-0.055
-0.06
-0.045
-0.035
-0.045
-0.03
-0.025
-0.025
-0.01
-0.045
-0.05
-0.06
-0.055
-0.065
-0.075
-0.06
-0.02
0.035
0.06
0.075
0.135
0.225
0.34
0.455
0.585
0.695
0.785
0.845
0.825
0.745
0.545
0.41
0.27
0.075
-0.175
-0.26
-0.305
-0.295
-0.255
-0.24
-0.21
-0.19
-0.15
-0.15
-0.11
-0.105
-0.09
-0.06
-0.085
-0.06
-0.075
-0.07
-0.06
-0.07
-0.06
-0.065
-0.07
-0.055
-0.07
-0.085
-0.1
-0.1
-0.09
-0.075
-0.075
-0.07
-0.08
-0.06
-0.07
-0.09
-0.105
-0.085
-0.075
-0.075
-0.06
-0.055
-0.075
-0.055
-0.07
-0.075
-0.125
-0.1
-0.085
-0.1
-0.065
-0.07
-0.07
-0.05
-0.115
-0.105
-0.08
-0.075
-0.07
-0.065
-0.04
-0.045
-0.035
-0.02
-0.04
-0.04
-0.05
-0.03
-0.025
-0.015
-0.005
0.0
0.02
0.025
0.03
0.03
0.015
0.04
0.06
0.065
0.07
0.08
0.1
0.12
0.135
0.14
0.135
0.155
0.165
0.17
0.19
0.22
0.235
0.245
0.22
0.215
0.215
0.215
0.23
0.225
0.265
0.285
0.285
0.275
0.26
0.25
0.24
0.24
0.23
0.24
0.255
0.24
0.255
0.235
0.23
0.22
0.22
0.225
0.175
0.18
0.17
0.19
0.195
0.185
0.17
0.175
0.15
0.175
0.15
0.195
0.175
0.18
0.2
0.18
0.165
0.15
0.12
0.175
0.15
0.155
0.16
0.16
0.19
0.195
0.16
0.16
0.15
0.185
0.19
0.205
0.185
0.195
0.18
0.18
0.155
0.135
0.14
0.155
0.16
0.175
0.165
0.175
0.185
0.17
0.16
0.135
0.14
0.155
0.155
0.17
0.18
0.19
0.195
0.19
0.165
0.135
0.17
0.185
0.175
0.155
0.19
0.2
0.2
0.19
0.18
0.18
0.165
0.19
0.17
0.18
0.195
0.2
0.185
0.195
0.175
0.16
0.165
0.165
0.17
0.195
0.19
0.185
0.19
0.19
0.19
0.16
0.17
0.16
0.175
0.2
0.185
0.175
0.185
0.2
0.18
0.155
0.16
0.175
0.15
0.16
0.19
0.2
0.18
0.185
0.17
0.165
0.165
0.155
0.175
0.185
0.19
0.205
0.19
0.195
0.175
0.18
0.195
0.2
0.205
0.21
0.205
0.21
0.23
0.2
0.18
0.185
0.215
0.215
0.215
0.205
0.21
0.2
0.185
0.16
0.145
0.095
0.105
0.15
0.145
0.13
0.13
0.155
0.135
0.115
0.09
0.07
0.085
0.085
0.08
0.085
0.105
0.13
0.115
0.105
0.095
0.075
0.09
0.1
0.1
0.115
0.105
0.11
0.09
0.09
0.11
0.14
0.21
0.23
0.275
0.375
0.49
0.595
0.715
0.83
0.905
0.94
0.945
0.86
0.725
0.595
0.405
0.2
-0.06
-0.115
-0.21
-0.16
-0.095
-0.065
-0.04
-0.01
-0.005
0.04
0.07
0.08
0.06
0.06
0.065
0.07
0.085
0.115
0.125
0.11
0.095
0.08
0.05
0.06
0.09
0.08
0.085
0.08
0.095
0.115
0.115
0.075
0.05
0.095
0.095
0.09
0.135
0.135
0.115
0.14
0.13
0.12
0.115
0.12
0.12
0.095
0.125
0.1
0.135
0.115
0.11
0.105
0.125
0.15
0.12
0.1
0.12
0.16
0.155
0.155
0.145
0.12
0.08
0.15
0.145
0.13
0.15
0.16
0.175
0.165
0.165
0.155
0.165
0.18
0.185
0.18
0.175
0.195
0.23
0.25
0.24
0.235
0.215
0.27
0.26
0.28
0.28
0.29
0.32
0.305
0.3
0.305
0.285
0.315
0.315
0.3
0.32
0.31
0.32
0.285
0.26
0.265
0.25
0.245
0.26
0.27
0.245
0.255
0.26
0.245
0.215
0.205
0.195
0.185
0.18
0.17
0.17
0.165
0.155
0.14
0.135
0.13
0.1
0.12
0.115
0.11
0.14
0.11
0.115
0.095
0.08
0.105
0.085
0.11
0.1
0.105
0.12
0.105
0.11
0.11
0.07
0.05
0.03
0.06
0.09
0.08
0.065
0.07
0.075
0.1
0.06
0.075
0.035
0.04
0.06
0.095
0.055
0.075
0.105
0.07
0.075
0.045
0.065
0.055
0.075
0.095
0.06
0.075
0.085
0.09
0.085
0.08
0.075
0.095
0.095
0.085
0.1
0.12
0.135
0.11
0.12
0.095
0.08
0.095
0.1
0.035
0.055
0.065
0.09
0.085
0.1
0.08
0.1
0.11
0.11
0.075
0.12
0.105
0.12
0.115
0.11
0.08
0.1
0.11
0.115
0.11
0.11
0.12
0.13
0.11
0.08
0.08
0.095
0.12
0.12
0.11
0.12
0.125
0.13
0.11
0.105
0.075
0.065
0.13
0.125
0.095
0.115
0.12
0.1
0.09
0.1
0.11
0.12
0.13
0.125
0.125
0.13
0.15
0.155
0.15
0.175
0.15
0.15
0.125
0.16
0.17
0.135
0.16
0.135
0.15
0.11
0.08
0.055
0.06
0.06
0.035
0.055
0.075
0.065
0.065
0.04
0.03
0.065
0.06
0.05
0.035
0.06
0.06
0.04
0.05
0.025
0.02
0.03
0.065
0.06
0.06
0.05
0.05
0.025
0.025
0.015
0.015
0.07
0.09
0.125
0.165
0.22
0.31
0.425
0.495
0.625
0.72
0.8
0.82
0.775
0.715
0.5
0.405
0.2
-0.03
-0.225
-0.265
-0.25
-0.24
-0.2
-0.125
-0.125
-0.12
-0.12
-0.1
-0.08
-0.095
-0.07
-0.07
-0.045
-0.06
-0.04
-0.05
-0.025
-0.045
-0.07
-0.07
-0.03
-0.055
-0.035
-0.065
-0.05
-0.04
-0.07
-0.095
-0.085
-0.07
-0.07
-0.09
-0.08
-0.08
-0.06
-0.065
-0.055
-0.085
-0.1
-0.09
-0.085
-0.075
-0.085
-0.09
-0.06
-0.095
-0.065
-0.1
-0.105
-0.12
-0.125
-0.115
-0.11
-0.09
-0.105
-0.06
-0.12
-0.135
-0.145
-0.12
-0.095
-0.085
-0.09
-0.095
-0.085
-0.065
-0.115
-0.135
-0.125
-0.1
-0.12
-0.09
-0.1
-0.1
-0.085
-0.07
-0.07
-0.045
-0.075
-0.04
-0.065
-0.08
-0.095
-0.02
0.0
-0.02
-0.03
-0.06
-0.055
-0.035
-0.02
-0.03
-0.035
-0.02
0.015
-0.01
-0.025
-0.07
-0.085
-0.07
-0.09
-0.07
-0.095
-0.105
-0.125
-0.13
-0.105
-0.15
-0.16
-0.18
-0.185
-0.19
-0.18
-0.19
-0.225
-0.21
-0.245
-0.23
-0.29
-0.275
-0.285
-0.29
-0.3
-0.27
-0.24
-0.27
-0.285
-0.32
-0.33
-0.32
-0.335
-0.335
-0.35
-0.33
-0.32
-0.31
-0.365
-0.375
-0.39
-0.355
-0.35
-0.345
-0.355
-0.355
-0.34
-0.335
-0.36
-0.38
-0.4
-0.395
-0.385
-0.365
-0.375
-0.375
-0.365
-0.375
-0.395
-0.4
-0.415
-0.375
-0.39
-0.385
-0.375
-0.38
-0.37
-0.375
-0.395
-0.4
-0.395
-0.38
-0.395
-0.385
-0.37
-0.37
-0.37
-0.375
-0.41
-0.415
-0.41
-0.395
-0.4
-0.345
-0.36
-0.37
-0.35
-0.365
-0.38
-0.38
-0.39
-0.37
-0.39
-0.355
-0.37
-0.375
-0.365
-0.36
-0.365
-0.375
-0.38
-0.37
-0.365
-0.36
-0.34
-0.325
-0.33
-0.345
-0.37
-0.37
-0.36
-0.36
-0.325
-0.335
-0.335
-0.31
-0.31
-0.305
-0.32
-0.32
-0.315
-0.305
-0.34
-0.31
-0.31
-0.315
-0.3
-0.315
-0.305
-0.3
-0.295
-0.29
-0.34
-0.305
-0.315
-0.32
-0.355
-0.38
-0.42
-0.405
-0.395
-0.39
-0.375
-0.37
-0.385
-0.37
-0.375
-0.395
-0.42
-0.425
-0.41
-0.415
-0.415
-0.395
-0.395
-0.385
-0.4
-0.405
-0.41
-0.415
-0.41
-0.41
-0.39
-0.405
-0.41
-0.41
-0.4
-0.385
-0.39
-0.315
-0.27
-0.26
-0.21
-0.115
-0.02
0.115
0.215
0.295
0.33
0.37
0.36
0.2
0.075
-0.06
-0.235
-0.465
-0.62
-0.67
-0.65
-0.63
-0.58
-0.53
-0.515
-0.52
-0.505
-0.45
-0.43
-0.445
-0.45
-0.44
-0.42
-0.41
-0.4
-0.41
-0.44
-0.395
-0.385
-0.395
-0.42
-0.43
-0.42
-0.42
-0.405
-0.39
-0.385
-0.39
-0.395
-0.39
-0.43
-0.405
-0.395
-0.385
-0.39
-0.39
-0.37
-0.36
-0.395
-0.4
-0.395
-0.4
-0.39
-0.385
-0.365
-0.37
-0.365
-0.34
-0.34
-0.365
-0.37
-0.37
-0.36
-0.37
-0.34
-0.35
-0.34
-0.28
-0.335
-0.35
-0.34
-0.315
-0.345
-0.33
-0.305
-0.295
-0.29
-0.27
-0.295
-0.285
-0.305
-0.285
-0.275
-0.26
-0.275
-0.27
-0.22
-0.205
-0.235
-0.22
-0.235
-0.205
-0.195
-0.18
-0.18
-0.17
-0.125
-0.15
-0.16
-0.175
-0.18
-0.155
-0.16
-0.125
-0.145
-0.125
-0.155
-0.14
-0.185
-0.195
-0.185
-0.19
-0.185
-0.205
-0.2
-0.205
-0.2
-0.22
-0.245
-0.255
-0.27
-0.255
-0.26
-0.29
-0.305
-0.3
-0.285
-0.285
-0.29
-0.31
-0.345
-0.335
-0.33
-0.315
-0.355
-0.34
-0.335
-0.355
-0.355
-0.355
-0.37
-0.335
-0.345
-0.34
-0.345
-0.35
-0.33
-0.34
-0.39
-0.375
-0.375
-0.36
-0.39
-0.39
-0.375
-0.365
-0.345
-0.345
-0.37
-0.38
-0.375
-0.35
-0.355
-0.365
-0.37
-0.37
-0.345
-0.355
-0.37
-0.37
-0.38
-0.38
-0.385
-0.36
-0.355
-0.35
-0.335
-0.335
-0.365
-0.365
-0.37
-0.315
-0.365
-0.35
-0.34
-0.345
-0.32
-0.315
-0.36
-0.36
-0.38
-0.34
-0.33
-0.31
-0.325
-0.32
-0.325
-0.335
-0.35
-0.335
-0.335
-0.33
-0.33
-0.35
-0.315
-0.32
-0.295
-0.31
-0.345
-0.36
-0.33
-0.34
-0.33
-0.295
-0.3
-0.3
-0.3
-0.31
-0.35
-0.35
-0.335
-0.325
-0.3
-0.31
-0.3
-0.32
-0.305
-0.295
-0.31
-0.33
-0.31
-0.295
-0.29
-0.28
-0.285
-0.265
-0.26
-0.27
-0.3
-0.29
-0.26
-0.27
-0.275
-0.27
-0.255
-0.24
-0.27
-0.265
-0.28
-0.29
-0.305
-0.305
-0.31
-0.315
-0.325
-0.305
-0.34
-0.36
-0.35
-0.365
-0.34
-0.355
-0.365
-0.335
-0.34
-0.335
-0.34
-0.35
-0.35
-0.375
-0.355
-0.345
-0.355
-0.345
-0.34
-0.335
-0.345
-0.355
-0.36
-0.375
-0.35
-0.375
-0.35
-0.335
-0.28
-0.23
-0.215
-0.19
-0.11
-0.025
0.1
0.215
0.305
0.385
0.39
0.395
0.36
0.16
0.045
-0.105
-0.29
-0.535
-0.57
-0.58
-0.52
-0.47
-0.435
-0.43
-0.455
-0.435
-0.405
-0.375
-0.385
-0.375
-0.35
-0.33
-0.33
-0.34
-0.36
-0.37
-0.36
-0.34
-0.34
-0.335
-0.345
-0.31
-0.335
-0.32
-0.35
-0.35
-0.34
-0.32
-0.3
-0.315
-0.325
-0.3
-0.325
-0.345
-0.335
-0.34
-0.33
-0.315
-0.32
-0.295
-0.3
-0.295
-0.3
-0.3
-0.32
-0.305
-0.31
-0.305
-0.3
-0.285
-0.265
-0.28
-0.28
-0.3
-0.31
-0.275
-0.26
-0.27
-0.255
-0.245
-0.225
-0.235
-0.265
-0.275
-0.28
-0.265
-0.255
-0.24
-0.23
-0.2
-0.21
-0.195
-0.205
-0.215
-0.22
-0.2
-0.2
-0.175
-0.165
-0.155
-0.125
-0.135
-0.14
-0.145
-0.125
-0.115
-0.12
-0.115
-0.12
-0.11
-0.08
-0.11
-0.1
-0.12
-0.135
-0.095
-0.1
-0.09
-0.105
-0.135
-0.125
-0.14
-0.165
-0.165
-0.19
-0.18
-0.165
-0.18
-0.185
-0.18
-0.19
-0.2
-0.215
-0.25
-0.26
-0.23
-0.245
-0.255
-0.26
-0.25
-0.24
-0.235
-0.27
-0.295
-0.29
-0.315
-0.31
-0.29
-0.31
-0.285
-0.285
-0.29
-0.285
-0.295
-0.305
-0.285
-0.295
-0.305
-0.315
-0.32
-0.295
-0.29
-0.32
-0.315
-0.31
-0.3
-0.3
-0.32
-0.31
-0.32
-0.29
-0.295
-0.31
-0.315
-0.315
-0.305
-0.325
-0.315
-0.32
-0.315
-0.29
-0.285
-0.305
-0.31
-0.335
-0.31
-0.31
-0.31
-0.31
-0.29
-0.275
-0.28
-0.295
-0.325
-0.34
-0.315
-0.305
-0.28
-0.29
-0.3
-0.275
-0.285
-0.3
-0.305
-0.3
-0.28
-0.3
-0.295
-0.27
-0.27
-0.265
-0.275
-0.305
-0.315
-0.28
-0.27
-0.27
-0.26
-0.265
-0.29
-0.29
-0.255
-0.275
-0.285
-0.275
-0.275
-0.27
-0.25
-0.255
-0.245
-0.255
-0.255
-0.26
-0.26
-0.265
-0.255
-0.265
-0.265
-0.26
-0.245
-0.245
-0.26
-0.265
-0.265
-0.235
-0.235
-0.225
-0.225
-0.215
-0.215
-0.205
-0.205
-0.225
-0.235
-0.225
-0.225
-0.215
-0.185
-0.195
-0.21
-0.21
-0.23
-0.25
-0.255
-0.26
-0.28
-0.275
-0.265
-0.27
-0.265
-0.28
-0.28
-0.285
-0.305
-0.27
-0.265
-0.31
-0.285
-0.275
-0.275
-0.285
-0.3
-0.285
-0.315
-0.31
-0.31
-0.295
-0.29
-0.28
-0.255
-0.28
-0.3
-0.31
-0.315
-0.31
-0.28
-0.25
-0.195
-0.17
-0.125
-0.095
-0.025
0.065
0.165
0.295
0.375
0.43
0.445
0.43
0.305
0.15
0.01
-0.165
-0.395
-0.49
-0.52
-0.515
-0.495
-0.445
-0.41
-0.375
-0.365
-0.365
-0.355
-0.325
-0.32
-0.3
-0.28
-0.295
-0.28
-0.305
-0.31
-0.305
-0.315
-0.28
-0.29
-0.3
-0.31
-0.275
-0.26
-0.265
-0.305
-0.3
-0.29
-0.275
-0.285
-0.255
-0.275
-0.27
-0.265
-0.255
-0.275
-0.295
-0.27
-0.25
-0.25
-0.275
-0.245
-0.255
-0.26
-0.27
-0.265
-0.27
-0.265
-0.265
-0.26
-0.235
-0.23
-0.23
-0.21
-0.23
-0.245
-0.255
-0.26
-0.23
-0.23
-0.215
-0.2
-0.19
-0.19
-0.2
-0.215
-0.235
-0.195
-0.185
-0.19
-0.16
-0.165
-0.135
-0.145
-0.175
-0.165
-0.16
-0.115
-0.12
-0.13
-0.13
-0.125
-0.08
-0.085
-0.085
-0.1
-0.09
-0.075
-0.08
-0.06
-0.08
-0.075
-0.06
-0.04
-0.055
-0.075
-0.095
-0.08
-0.095
-0.105
-0.09
-0.095
-0.095
-0.09
-0.115
-0.15
-0.155
-0.145
-0.16
-0.17
-0.155
-0.175
-0.17
-0.185
-0.195
-0.215
-0.235
-0.23
-0.23
-0.235
-0.215
-0.23
-0.23
-0.23
-0.215
-0.24
-0.245
-0.24
-0.26
-0.315
-0.25
-0.265
-0.28
-0.34
-0.385
-0.37
-0.295
-0.195
-0.125
-0.215
-0.28
-0.225
-0.18
-0.1
-0.125
-0.2
-0.41
-0.545
-0.56
-0.265
-0.255
-0.285
-0.265
-0.235
-0.3
-0.24
-0.22
-0.25
-0.235
-0.275
-0.44
-0.51
-0.375
-0.18
-0.07
-0.06
-0.11
-0.025
0.13
0.31
0.495
0.53
0.705
0.955
1.26
1.6
1.825
1.92
2.165
2.53
2.77
3.15
3.455
3.6
3.785
4.04
4.4
4.605
4.885
5.135
5.36
5.62
5.87
6.06
6.27
6.47
6.685
6.86
6.995
7.32
7.525
7.78
7.89
8.025
8.255
8.44
8.575
8.675
8.78
8.92
9.075
9.22
9.25
9.33
9.4
9.51
9.52
9.555
9.675
9.77
9.75
9.78
9.805
9.835
9.85
9.895
9.955
10.005
10.04
10.04
10.06
10.185
10.19
10.215
10.26
10.31
10.3
10.365
10.345
10.385
10.405
10.425
10.47
10.49
10.415
10.45
10.445
10.465
10.53
10.56
10.535
10.59
10.5
10.53
10.545
10.47
10.485
10.425
10.45
10.45
10.47
10.57
10.6
10.575
10.57
10.615
10.575
10.55
10.55
10.565
10.565
10.48
10.505
10.56
10.58
10.575
10.61
10.635
10.615
10.58
10.565
10.52
10.49
10.51
10.51
10.49
10.565
10.555
10.495
10.45
10.54
10.44
10.375
10.435
10.455
10.585
10.545
10.43
10.395
10.385
10.425
10.43
10.39
10.48
10.415
10.415
10.38
10.285
10.325
10.31
10.39
10.36
10.365
10.335
10.385
10.44
10.42
10.445
10.455
10.505
10.575
10.57
10.645
10.75
10.765
10.85
10.885
10.77
10.595
10.44
10.32
10.16
10.06
9.965
9.955
10.02
10.115
10.075
10.025
10.05
10.105
10.16
10.1
10.045
9.92
9.945
10.015
10.05
10.115
10.165
10.125
10.055
9.975
9.96
9.92
9.895
9.94
9.935
9.985
9.985
10.01
9.965
9.96
9.915
9.965
9.925
9.9
9.925
9.9
9.915
9.9
9.935
9.895
9.86
9.73
9.735
9.785
9.76
9.84
9.845
9.855
9.8
9.785
9.805
9.745
9.745
9.74
9.785
9.77
9.875
9.795
9.725
9.765
9.68
9.645
9.69
9.65
9.7
9.69
9.665
9.685
9.61
9.645
9.655
9.675
9.74
9.59
9.575
9.665
9.625
9.62
9.575
9.545
9.595
9.64
9.59
9.62
9.54
9.53
9.49
9.515
9.52
9.545
9.65
9.59
9.55
9.565
9.52
9.47
9.505
9.55
9.53
9.535
9.46
9.51
9.5
9.495
9.45
9.4
9.395
9.335
9.415
9.415
9.34
9.315
9.295
9.225
9.155
9.195
9.245
9.24
9.19
9.145
9.2
9.165
9.185
9.155
9.115
9.065
9.09
9.045
9.01
8.98
9.015
9.045
9.09
9.015
8.955
8.92
8.915
8.86
8.915
8.94
8.94
8.925
8.92
8.895
8.89
8.89
8.9
8.88
8.87
8.84
8.825
8.835
8.835
8.83
8.85
8.82
8.83
8.815
8.79
8.77
8.765
8.77
8.76
8.67
8.675
8.695
8.745
8.695
8.635
8.685
8.67
8.675
8.655
8.575
8.64
8.64
8.67
8.695
8.645
8.64
8.615
8.595
8.56
8.575
8.495
8.505
8.515
8.545
8.585
8.615
8.48
8.465
8.48
8.54
8.545
8.505
8.49
8.515
8.51
8.46
8.38
8.38
8.42
8.42
8.44
8.425
8.355
8.32
8.305
8.33
8.29
8.375
8.36
8.385
8.405
8.35
8.315
8.305
8.29
8.27
8.28
8.25
8.225
8.175
8.22
8.29
8.245
8.23
8.19
8.165
8.13
8.19
8.13
8.17
8.16
8.12
8.155
8.12
8.115
8.07
8.11
8.065
8.065
8.005
8.0
8.035
8.01
7.955
7.99
7.89
7.895
7.955
8.0
7.97
7.945
7.925
7.93
7.885
7.875
7.905
7.835
7.805
7.89
7.87
7.875
7.83
7.82
7.83
7.795
7.735
7.705
7.735
7.72
7.775
7.785
7.795
7.765
7.655
7.665
7.64
7.585
7.63
7.66
7.605
7.57
7.59
7.59
7.575
7.655
7.785
7.66
7.68
7.67
7.525
7.55
7.585
7.605
7.535
7.475
7.425
7.425
7.485
7.51
7.465
7.525
7.525
7.49
7.43
7.48
7.475
7.455
7.45
7.445
7.41
7.385
7.42
7.34
7.28
7.255
7.26
7.36
7.345
7.255
7.245
7.19
7.27
7.31
7.28
7.21
7.115
7.125
7.175
7.245
7.215
7.195
7.215
7.155
7.1
7.125
7.205
7.11
7.065
7.095
7.135
7.09
7.12
7.035
6.935
7.09
7.12
7.16
7.205
7.255
7.31
7.35
7.51
7.535
7.49
7.46
7.385
7.3
7.265
7.1
7.03
6.84
6.77
6.74
6.685
6.695
6.76
6.745
6.705
6.695
6.74
6.83
6.875
6.71
6.655
6.69
6.765
6.785
6.715
6.675
6.66
6.77
6.79
6.81
6.72
6.62
6.595
6.695
6.65
6.575
6.585
6.615
6.59
6.615
6.6
6.615
6.57
6.58
6.575
6.545
6.565
6.55
6.535
6.52
6.485
6.465
6.5
6.54
6.545
6.495
6.535
6.46
6.495
6.455
6.31
6.37
6.44
6.46
6.44
6.46
6.4
6.46
6.525
6.45
6.405
6.35
6.365
6.36
6.37
6.38
6.465
6.425
6.445
6.38
6.35
6.315
6.305
6.34
6.35
6.325
6.34
6.365
6.335
6.325
6.315
6.32
6.29
6.335
6.34
6.26
6.265
6.3
6.38
6.315
6.335
6.315
6.275
6.285
6.285
6.295
6.35
6.335
6.22
6.205
6.25
6.23
6.255
6.19
6.13
6.12
6.155
6.12
6.05
6.06
6.07
6.055
6.035
6.015
6.045
5.99
6.03
6.005
6.0
5.98
5.995
5.895
5.835
5.875
5.935
5.975
5.945
5.905
5.88
5.895
5.82
5.86
5.825
5.77
5.775
5.805
5.785
5.775
5.745
5.705
5.735
5.705
5.68
5.715
5.635
5.67
5.695
5.705
5.725
5.73
5.61
5.61
5.68
5.67
5.655
5.6
5.625
5.615
5.615
5.565
5.585
5.545
5.585
5.65
5.62
5.605
5.555
5.595
5.59
5.62
5.68
5.655
5.61
5.65
5.555
5.52
5.49
5.425
5.505
5.49
5.525
5.54
5.475
5.49
5.47
5.435
5.43
5.465
5.48
5.435
5.405
5.365
5.385
5.38
5.39
5.36
5.33
5.4
5.38
5.43
5.455
5.365
5.385
5.33
5.275
5.29
5.345
5.365
5.275
5.255
5.195
5.225
5.225
5.285
5.27
5.22
5.25
5.23
5.195
5.215
5.14
5.135
5.185
5.2
5.195
5.2
5.16
5.13
5.17
5.1
5.1
5.08
5.04
5.135
5.07
4.99
4.995
4.97
4.96
4.935
4.92
4.94
4.955
4.96
4.95
4.925
4.93
4.94
4.89
4.91
4.9
4.905
4.88
4.835
4.845
4.875
4.91
4.87
4.855
4.805
4.795
4.815
4.77
4.78
4.78
4.755
4.76
4.765
4.72
4.72
4.67
4.675
4.655
4.645
4.645
4.645
4.65
4.635
4.585
4.555
4.515
4.48
4.485
4.44
4.39
4.34
4.31
4.245
4.15
4.065
3.96
3.935
3.88
3.81
3.775
3.7
3.635
3.56
3.48
3.41
3.325
3.275
3.235
3.195
3.12
3.07
3.02
2.96
2.885
2.82
2.76
2.71
2.66
2.595
2.52
2.455
2.38
2.245
2.155
2.075
2.015
1.965
1.885
1.8
1.775
1.765
1.755
1.715
1.625
1.53
1.445
1.35
1.28
1.245
1.21
1.21
1.18
1.12
1.075
1.02
0.995
0.955
0.915
0.875
0.845
0.81
0.8
0.78
0.765
0.785
0.78
0.805
0.825
0.87
0.975
1.08
1.2
1.24
1.245
1.215
1.18
1.03
0.86
0.745
0.515
0.25
0.105
0.07
0.045
0.025
0.02
0.1
0.115
0.13
0.11
0.11
0.125
0.1
0.105
0.08
0.06
0.07
0.065
0.065
0.045
0.03
0.04
-0.005
-0.015
-0.005
-0.025
-0.05
-0.055
-0.07
-0.105
-0.05
-0.095
-0.125
-0.17
-0.18
-0.165
-0.205
-0.185
-0.205
-0.155
-0.155
-0.18
-0.205
-0.235
-0.265
-0.235
-0.275
-0.275
-0.285
-0.305
-0.255
-0.295
-0.34
-0.36
-0.345
-0.29
-0.33
-0.365
-0.38
-0.39
-0.355
-0.36
-0.375
-0.39
-0.405
-0.405
-0.42
-0.46
-0.44
-0.425
-0.39
-0.46
-0.445
-0.46
-0.48
-0.46
-0.455
-0.485
-0.47
-0.425
-0.435
-0.445
-0.49
-0.485
-0.49
-0.465
-0.455
-0.49
-0.485
-0.47
-0.465
-0.495
-0.525
-0.495
-0.52
-0.52
-0.5
-0.5
-0.505
-0.515
-0.485
-0.535
-0.58
-0.58
-0.565
-0.575
-0.635
-0.625
-0.635
-0.67
-0.62
-0.64
-0.65
-0.745
-0.745
-0.72
-0.73
-0.74
-0.75
-0.765
-0.75
-0.775
-0.81
-0.835
-0.835
-0.84
-0.865
-0.845
-0.825
-0.845
-0.835
-0.86
-0.87
-0.88
-0.88
-0.86
-0.875
-0.88
-0.905
-0.9
-0.85
-0.815
-0.83
-0.88
-0.88
-0.955
-0.94
-0.91
-0.95
-0.955
-0.92
-0.935
-0.915
-0.94
-0.935
-0.965
-0.955
-0.975
-0.99
-0.935
-0.95
-0.93
-0.945
-0.965
-0.985
-0.955
-0.97
-0.95
-0.96
-0.985
-0.975
-0.99
-1.0
-1.04
-0.985
-0.985
-1.005
-0.975
-0.975
-1.0
-0.965
-0.965
-1.01
-1.005
-0.94
-0.915
-0.975
-1.015
-0.985
-1.0
-1.015
-1.015
-1.03
-1.05
-1.025
-1.015
-1.04
-1.015
-1.01
-0.98
-1.015
-1.025
-1.03
-1.03
-1.035
-1.03
-1.045
-1.055
-1.03
-1.02
-1.04
-1.045
-1.095
-1.105
-1.1
-1.075
-1.065
-1.06
-1.045
-1.045
-1.065
-1.11
-1.075
-1.105
-1.11
-1.11
-1.115
-1.11
-1.1
-1.07
-1.1
-1.09
-1.11
-1.115
-1.12
-1.11
-1.16
-1.13
-1.125
-1.125
-1.135
-1.12
-1.155
-1.135
-1.15
-1.135
-1.12
-1.12
-1.115
-1.12
-1.145
-1.185
-1.2
-1.205
-1.22
-1.195
-1.125
-1.15
-1.16
-1.155
-1.175
-1.2
-1.215
-1.205
-1.19
-1.21
-1.205
-1.205
-1.195
-1.18
-1.205
-1.21
-1.255
-1.235
-1.22
-1.225
-1.23
-1.225
-1.225
-1.21
-1.24
-1.275
-1.275
-1.245
-1.245
-1.225
-1.22
-1.22
-1.255
-1.225
-1.22
-1.21
-1.245
-1.25
-1.225
-1.215
-1.22
-1.22
-1.215
-1.235
-1.245
-1.255
-1.265
-1.25
-1.245
-1.295
-1.315
-1.315
-1.32
-1.31
-1.335
-1.35
-1.37
-1.35
-1.345
-1.345
-1.355
-1.375
-1.345
-1.36
-1.4
-1.38
-1.39
-1.39
-1.39
-1.37
-1.41
-1.39
-1.39
-1.4
-1.415
-1.42
-1.43
-1.46
-1.395
-1.365
-1.325
-1.275
-1.25
-1.28
-1.27
-1.23
-1.17
-1.04
-0.925
-0.82
-0.775
-0.765
-0.79
-0.925
-1.13
-1.28
-1.46
-1.645
-1.79
-1.815
-1.8
-1.765
-1.72
-1.695
-1.7
-1.675
-1.685
-1.615
-1.565
-1.555
-1.55
-1.555
-1.525
-1.535
-1.525
-1.54
-1.555
-1.54
-1.555
-1.55
-1.535
-1.495
-1.46
-1.485
-1.51
-1.505
-1.55
-1.555
-1.54
-1.54
-1.52
-1.53
-1.505
-1.52
-1.51
-1.515
-1.55
-1.515
-1.51
-1.495
-1.51
-1.525
-1.49
-1.51
-1.525
-1.515
-1.545
-1.55
-1.545
-1.54
-1.515
-1.525
-1.49
-1.515
-1.505
-1.54
-1.53
-1.495
-1.52
-1.5
-1.52
-1.53
-1.5
-1.5
-1.495
-1.515
-1.485
-1.475
-1.485
-1.47
-1.46
-1.47
-1.44
-1.44
-1.445
-1.415
-1.43
-1.445
-1.445
-1.41
-1.395
-1.375
-1.36
-1.365
-1.385
-1.395
-1.38
-1.35
-1.35
-1.34
-1.35
-1.335
-1.315
-1.32
-1.37
-1.36
-1.365
-1.385
-1.39
-1.38
-1.36
-1.37
-1.385
-1.415
-1.42
-1.435
-1.435
-1.43
-1.45
-1.48
-1.475
-1.47
-1.465
-1.51
-1.52
-1.54
-1.53
-1.545
-1.56
-1.555
-1.56
-1.555
-1.575
-1.565
-1.61
-1.615
-1.59
-1.595
-1.59
-1.62
-1.605
-1.61
-1.6
-1.615
-1.625
-1.655
-1.62
-1.635
-1.625
-1.645
-1.665
-1.625
-1.64
-1.67
-1.66
-1.665
-1.63
-1.625
-1.65
-1.63
-1.67
-1.66
-1.685
-1.685
-1.67
-1.695
-1.685
-1.64
-1.66
-1.66
-1.695
-1.66
-1.685
-1.705
-1.705
-1.71
-1.705
-1.725
-1.69
-1.71
-1.71
-1.695
-1.725
-1.735
-1.75
-1.75
-1.735
-1.76
-1.775
-1.77
-1.76
-1.745
-1.745
-1.785
-1.825
-1.855
-1.83
-1.835
-1.78
-1.81
-1.825
-1.825
-1.86
-1.91
-1.905
-1.855
-1.815
-1.78
-1.795
-1.785
-1.78
-1.745
-1.765
-1.745
-1.77
-1.765
-1.75
-1.73
-1.715
-1.7
-1.73
-1.715
-1.74
-1.77
-1.775
-1.745
-1.72
-1.725
-1.72
-1.74
-1.72
-1.7
-1.7
-1.715
-1.755
-1.705
-1.705
-1.72
-1.72
-1.735
-1.705
-1.71
-1.72
-1.725
-1.7
-1.73
-1.715
-1.715
-1.69
-1.68
-1.685
-1.695
-1.705
-1.725
-1.73
-1.685
-1.68
-1.68
-1.69
-1.69
-1.68
-1.68
-1.66
-1.69
-1.7
-1.67
-1.685
-1.675
-1.64
-1.645
-1.665
-1.665
-1.645
-1.665
-1.65
-1.63
-1.635
-1.645
-1.65
-1.635
-1.61
-1.605
-1.59
-1.6
-1.615
-1.635
-1.585
-1.615
-1.63
-1.59
-1.595
-1.61
-1.63
-1.655
-1.665
-1.695
-1.67
-1.675
-1.67
-1.65
-1.675
-1.685
-1.685
-1.705
-1.72
-1.685
-1.665
-1.65
-1.665
-1.65
-1.655
-1.665
-1.675
-1.68
-1.685
-1.67
-1.655
-1.665
-1.68
-1.655
-1.66
-1.68
-1.69
-1.67
-1.63
-1.58
-1.555
-1.55
-1.495
-1.38
-1.31
-1.225
-1.11
-1.05
-0.965
-0.91
-0.9
-0.96
-1.125
-1.22
-1.335
-1.52
-1.775
-1.885
-1.895
-1.855
-1.79
-1.745
-1.76
-1.7
-1.675
-1.69
-1.67
-1.655
-1.645
-1.625
-1.645
-1.63
-1.635
-1.625
-1.595
-1.59
-1.605
-1.615
-1.61
-1.59
-1.625
-1.605
-1.615
-1.605
-1.57
-1.595
-1.585
-1.595
-1.595
-1.575
-1.59
-1.59
-1.585
-1.575
-1.55
-1.575
-1.585
-1.59
-1.56
-1.57
-1.55
-1.55
-1.51
-1.515
-1.55
-1.57
-1.575
-1.58
-1.565
-1.57
-1.555
-1.51
-1.52
-1.515
-1.51
-1.515
-1.54
-1.565
-1.52
-1.52
-1.51
-1.48
-1.505
-1.5
-1.485
-1.5
-1.495
-1.5
-1.475
-1.49
-1.465
-1.46
-1.435
-1.445
-1.42
-1.42
-1.435
-1.42
-1.395
-1.38
-1.36
-1.39
-1.38
-1.345
-1.35
-1.37
-1.37
-1.36
-1.33
-1.34
-1.32
-1.295
-1.285
-1.28
-1.3
-1.315
-1.325
-1.365
-1.365
-1.335
-1.355
-1.385
-1.355
-1.35
-1.375
-1.395
-1.43
-1.45
-1.4
-1.425
-1.45
-1.435
-1.45
-1.43
-1.455
-1.47
-1.51
-1.52
-1.5
-1.5
-1.51
-1.51
-1.52
-1.51
-1.51
-1.52
-1.535
-1.55
-1.535
-1.535
-1.535
-1.53
-1.505
-1.515
-1.515
-1.535
-1.565
-1.565
-1.545
-1.53
-1.54
-1.545
-1.54
-1.53
-1.53
-1.555
-1.55
-1.54
-1.54
-1.535
-1.55
-1.53
-1.54
-1.53
-1.525
-1.55
-1.565
-1.565
-1.55
-1.555
-1.54
-1.54
-1.53
-1.52
-1.515
-1.525
-1.54
-1.53
-1.505
-1.525
-1.51
-1.52
-1.51
-1.49
-1.5
-1.515
-1.525
-1.525
-1.5
-1.5
-1.505
-1.5
-1.495
-1.475
-1.485
-1.495
-1.525
-1.495
-1.49
-1.5
-1.48
-1.485
-1.465
-1.455
-1.485
-1.495
-1.495
-1.475
-1.465
-1.475
-1.45
-1.455
-1.475
-1.465
-1.48
-1.52
-1.555
-1.525
-1.485
-1.48
-1.485
-1.465
-1.465
-1.46
-1.47
-1.485
-1.495
-1.48
-1.485
-1.485
-1.485
-1.46
-1.455
-1.485
-1.475
-1.49
-1.52
-1.515
-1.535
-1.53
-1.525
-1.485
-1.485
-1.48
-1.49
-1.52
-1.545
-1.55
-1.505
-1.5
-1.515
-1.495
-1.475
-1.505
-1.51
-1.51
-1.515
-1.495
-1.505
-1.51
-1.51
-1.5
-1.48
-1.495
-1.51
-1.5
-1.51
-1.49
-1.46
-1.465
-1.465
-1.46
-1.425
-1.455
-1.47
-1.47
-1.48
-1.46
-1.435
-1.42
-1.415
-1.42
-1.41
-1.435
-1.46
-1.47
-1.495
-1.495
-1.51
-1.515
-1.515
-1.52
-1.515
-1.52
-1.525
-1.535
-1.555
-1.55
-1.52
-1.5
-1.505
-1.51
-1.505
-1.52
-1.525
-1.53
-1.54
-1.515
-1.515
-1.52
-1.515
-1.51
-1.505
-1.51
-1.53
-1.555
-1.555
-1.51
-1.48
-1.39
-1.39
-1.38
-1.33
-1.24
-1.18
-1.1
-0.99
-0.89
-0.805
-0.775
-0.795
-0.85
-1.005
-1.14
-1.28
-1.49
-1.685
-1.745
-1.76
-1.75
-1.705
-1.67
-1.62
-1.61
-1.61
-1.61
-1.57
-1.55
-1.55
-1.53
-1.51
-1.515
-1.485
-1.505
-1.515
-1.53
-1.53
-1.505
-1.505
-1.5
-1.5
-1.46
-1.475
-1.495
-1.51
-1.5
-1.46
-1.46
-1.485
-1.515
-1.495
-1.465
-1.47
-1.49
-1.5
-1.48
-1.465
-1.47
-1.485
-1.485
-1.485
-1.465
-1.46
-1.485
-1.47
-1.47
-1.465
-1.455
-1.45
-1.46
-1.435
-1.405
-1.41
-1.435
-1.45
-1.445
-1.44
-1.43
-1.42
-1.395
-1.42
-1.4
-1.4
-1.41
-1.425
-1.41
-1.405
-1.39
-1.375
-1.36
-1.34
-1.34
-1.33
-1.33
-1.34
-1.355
-1.33
-1.275
-1.285
-1.285
-1.28
-1.24
-1.245
-1.25
-1.26
-1.275
-1.255
-1.245
-1.23
-1.205
-1.2
-1.205
-1.2
-1.235
-1.25
-1.255
-1.245
-1.245
-1.26
-1.245
-1.245
-1.23
-1.25
-1.28
-1.305
-1.3
-1.305
-1.305
-1.305
-1.305
-1.32
-1.325
-1.345
-1.36
-1.38
-1.39
-1.375
-1.38
-1.38
-1.39
-1.375
-1.37
-1.39
-1.415
-1.435
-1.435
-1.41
-1.415
-1.42
-1.42
-1.41
-1.405
-1.415
-1.41
-1.45
-1.445
-1.42
-1.43
-1.42
-1.41
-1.39
-1.405
-1.43
-1.435
-1.445
-1.44
-1.45
-1.44
-1.44
-1.43
-1.43
-1.42
-1.43
-1.44
-1.45
-1.425
-1.43
-1.43
-1.425
-1.415
-1.415
-1.4
-1.415
-1.425
-1.425
-1.42
-1.405
-1.4
-1.375
-1.385
-1.4
-1.395
-1.405
-1.4
-1.385
-1.38
-1.405
-1.4
-1.37
-1.385
-1.34
-1.345
-1.355
-1.385
-1.405
-1.38
-1.38
-1.365
-1.365
-1.365
-1.35
-1.36
-1.35
-1.37
-1.375
-1.355
-1.365
-1.345
-1.35
-1.335
-1.34
-1.34
-1.34
-1.35
-1.355
-1.345
-1.345
-1.35
-1.355
-1.34
-1.32
-1.325
-1.36
-1.345
-1.36
-1.345
-1.35
-1.345
-1.325
-1.33
-1.32
-1.33
-1.33
-1.32
-1.34
-1.345
-1.345
-1.355
-1.33
-1.335
-1.325
-1.335
-1.355
-1.37
-1.36
-1.34
-1.33
-1.35
-1.34
-1.34
-1.315
-1.315
-1.345
-1.355
-1.36
-1.34
-1.34
-1.325
-1.31
-1.33
-1.305
-1.32
-1.34
-1.34
-1.34
-1.325
-1.32
-1.32
-1.295
-1.315
-1.305
-1.315
-1.31
-1.32
-1.315
-1.29
-1.285
-1.28
-1.27
-1.27
-1.24
-1.27
-1.29
-1.285
-1.285
-1.275
-1.265
-1.255
-1.24
-1.24
-1.235
-1.255
-1.26
-1.28
-1.26
-1.27
-1.295
-1.29
-1.31
-1.32
-1.305
-1.31
-1.335
-1.365
-1.34
-1.315
-1.32
-1.33
-1.32
-1.31
-1.305
-1.315
-1.325
-1.345
-1.33
-1.335
-1.335
-1.33
-1.33
-1.32
-1.3
-1.32
-1.355
-1.365
-1.355
-1.36
-1.335
-1.27
-1.22
-1.185
-1.155
-1.14
-1.08
-0.985
-0.91
-0.78
-0.67
-0.585
-0.55
-0.53
-0.58
-0.77
-0.895
-1.055
-1.2
-1.435
-1.525
-1.565
-1.545
-1.48
-1.465
-1.445
-1.415
-1.42
-1.41
-1.385
-1.355
-1.365
-1.35
-1.33
-1.315
-1.31
-1.33
-1.34
-1.345
-1.33
-1.295
-1.31
-1.31
-1.3
-1.3
-1.295
-1.31
-1.315
-1.315
-1.31
-1.31
-1.29
-1.28
-1.28
-1.295
-1.305
-1.305
-1.325
-1.3
-1.31
-1.285
-1.265
-1.27
-1.27
-1.255
-1.265
-1.285
-1.295
-1.28
-1.275
-1.25
-1.24
-1.225
-1.245
-1.235
-1.25
-1.265
-1.255
-1.25
-1.225
-1.23
-1.22
-1.22
-1.2
-1.21
-1.215
-1.25
-1.235
-1.215
-1.185
-1.19
-1.185
-1.18
-1.155
-1.15
-1.145
-1.16
-1.145
-1.135
-1.145
-1.12
-1.1
-1.095
-1.08
-1.07
-1.08
-1.09
-1.075
-1.06
-1.06
-1.025
-1.03
-1.035
-1.015
-1.015
-1.035
-1.045
-1.05
-1.035
-1.035
-1.025
-1.02
-1.045
-1.015
-1.025
-1.075
-1.095
-1.11
-1.1
-1.1
-1.09
-1.11
-1.105
-1.095
-1.12
-1.165
-1.175
-1.185
-1.185
-1.175
-1.185
-1.19
-1.165
-1.185
-1.205
-1.215
-1.235
-1.22
-1.195
-1.215
-1.22
-1.235
-1.23
-1.225
-1.245
-1.265
-1.27
-1.255
-1.23
-1.255
-1.26
-1.24
-1.25
-1.235
-1.255
-1.27
-1.295
-1.25
-1.245
-1.255
-1.27
-1.255
-1.225
-1.24
-1.25
-1.27
-1.265
-1.26
-1.26
-1.26
-1.245
-1.25
-1.24
-1.25
-1.275
-1.26
-1.26
-1.255
-1.25
-1.255
-1.24
-1.23
-1.22
-1.245
-1.245
-1.255
-1.26
-1.255
-1.245
-1.245
-1.235
-1.24
-1.23
-1.225
-1.235
-1.255
-1.25
-1.235
-1.245
-1.225
-1.225
-1.225
-1.22
-1.23
-1.24
-1.245
-1.235
-1.23
-1.235
-1.205
-1.21
-1.22
-1.205
-1.215
-1.23
-1.245
-1.25
-1.24
-1.22
-1.22
-1.21
-1.22
-1.215
-1.205
-1.22
-1.24
-1.245
-1.22
-1.225
-1.225
-1.23
-1.21
-1.21
-1.195
-1.23
-1.235
-1.23
-1.21
-1.21
-1.215
-1.22
-1.215
-1.205
-1.215
-1.225
-1.25
-1.235
-1.205
-1.21
-1.225
-1.22
-1.23
-1.22
-1.235
-1.25
-1.255
-1.255
-1.245
-1.245
-1.235
-1.245
-1.23
-1.235
-1.255
-1.275
-1.28
-1.27
-1.24
-1.23
-1.24
-1.23
-1.235
-1.22
-1.24
-1.26
-1.27
-1.265
-1.245
-1.245
-1.24
-1.245
-1.24
-1.22
-1.235
-1.245
-1.27
-1.25
-1.235
-1.24
-1.235
-1.235
-1.225
-1.225
-1.225
-1.225
-1.21
-1.185
-1.21
-1.215
-1.195
-1.21
-1.195
-1.185
-1.195
-1.2
-1.21
-1.19
-1.2
-1.2
-1.195
-1.19
-1.175
-1.2
-1.225
-1.26
-1.28
-1.26
-1.255
-1.25
-1.25
-1.25
-1.25
-1.26
-1.285
-1.275
-1.295
-1.27
-1.265
-1.26
-1.26
-1.265
-1.26
-1.275
-1.28
-1.295
-1.3
-1.28
-1.275
-1.285
-1.29
-1.295
-1.265
-1.26
-1.27
-1.235
-1.21
-1.16
-1.13
-1.065
-0.98
-0.9
-0.795
-0.7
-0.615
-0.555
-0.54
-0.52
-0.595
-0.765
-0.875
-1.025
-1.185
-1.415
-1.51
-1.55
-1.52
-1.455
-1.41
-1.4
-1.38
-1.365
-1.345
-1.33
-1.32
-1.32
-1.3
-1.27
-1.28
-1.295
-1.3
-1.29
-1.265
-1.28
-1.29
-1.3
-1.285
-1.255
-1.22
-1.255
-1.29
-1.28
-1.27
-1.27
-1.265
-1.26
-1.25
-1.235
-1.245
-1.26
-1.265
-1.225
-1.24
-1.25
-1.27
-1.285
-1.275
-1.28
-1.285
-1.245
-1.235
-1.23
-1.22
-1.235
-1.225
-1.27
-1.26
-1.245
-1.225
-1.23
-1.23
-1.22
-1.22
-1.205
-1.23
-1.235
-1.22
-1.22
-1.2
-1.195
-1.205
-1.18
-1.175
-1.185
-1.19
-1.19
-1.18
-1.16
-1.165
-1.145
-1.125
-1.11
-1.095
-1.115
-1.11
-1.115
-1.08
-1.07
-1.07
-1.065
-1.05
-1.04
-1.045
-1.05
-1.045
-1.065
-1.04
-1.04
-1.02
-1.02
-1.03
-1.005
-1.02
-1.045
-1.045
-1.055
-1.04
-1.06
-1.055
-1.06
-1.05
-1.055
-1.07
-1.1
-1.115
-1.12
-1.105
-1.12
-1.145
-1.155
-1.155
-1.14
-1.16
-1.175
-1.19
-1.205
-1.18
-1.21
-1.22
-1.215
-1.215
-1.215
-1.21
-1.235
-1.27
-1.29
-1.215
-1.215
-1.225
-1.23
-1.22
-1.215
-1.225
-1.245
-1.255
-1.26
-1.245
-1.235
-1.245
-1.265
-1.265
-1.24
-1.255
-1.275
-1.295
-1.29
-1.275
-1.28
-1.285
-1.28
-1.275
-1.265
-1.27
-1.3
-1.3
-1.3
-1.285
-1.28
-1.275
-1.29
-1.3
-1.27
-1.28
-1.305
-1.33
-1.3
-1.26
-1.285
-1.285
-1.27
-1.26
-1.26
-1.26
-1.275
-1.28
-1.3
-1.28
-1.285
-1.26
-1.26
-1.26
-1.255
-1.27
-1.27
-1.28
-1.27
-1.255
-1.265
-1.25
-1.265
-1.275
-1.255
-1.27
-1.27
-1.255
-1.245
-1.285
-1.29
-1.315
-1.325
-1.32
-1.265
-1.245
-1.28
-1.32
-1.31
-1.28
-1.255
-1.265
-1.29
-1.29
-1.27
-1.3
-1.32
-1.315
-1.31
-1.29
-1.305
-1.315
-1.3
-1.29
-1.29
-1.31
-1.32
-1.33
-1.315
-1.315
-1.31
-1.305
-1.31
-1.3
-1.305
-1.315
-1.325
-1.345
-1.33
-1.315
-1.32
-1.315
-1.3
-1.3
-1.305
-1.32
-1.32
-1.335
-1.325
-1.325
-1.325
-1.305
-1.31
-1.3
-1.305
-1.315
-1.32
-1.325
-1.31
-1.31
-1.31
-1.285
-1.285
-1.295
-1.285
-1.3
-1.315
-1.33
-1.315
-1.29
-1.29
-1.28
-1.275
-1.28
-1.29
-1.275
-1.28
-1.28
-1.26
-1.25
-1.24
-1.25
-1.245
-1.235
-1.225
-1.245
-1.255
-1.255
-1.225
-1.225
-1.215
-1.195
-1.205
-1.2
-1.215
-1.225
-1.235
-1.255
-1.245
-1.255
-1.235
-1.21
-1.255
-1.255
-1.275
-1.29
-1.295
-1.305
-1.295
-1.285
-1.285
-1.29
-1.28
-1.265
-1.26
-1.26
-1.29
-1.32
-1.315
-1.325
-1.29
-1.265
-1.26
-1.235
-1.25
-1.265
-1.285
-1.29
-1.275
-1.26
-1.205
-1.16
-1.115
-1.055
-1.005
-0.955
-0.875
-0.785
-0.665
-0.57
-0.475
-0.445
-0.45
-0.545
-0.73
-0.845
-1.025
-1.195
-1.415
-1.475
-1.495
-1.455
-1.41
-1.39
-1.375
-1.37
-1.355
-1.325
-1.28
-1.255
-1.25
-1.235
-1.23
-1.24
-1.245
-1.24
-1.26
-1.26
-1.225
-1.215
-1.195
-1.22
-1.22
-1.23
-1.225
-1.255
-1.23
-1.215
-1.21
-1.255
-1.225
-1.205
-1.2
-1.195
-1.205
-1.21
-1.23
-1.22
-1.215
-1.19
-1.18
-1.155
-1.17
-1.185
-1.16
-1.185
-1.205
-1.165
-1.145
-1.14
-1.17
-1.16
-1.125
-1.12
-1.16
-1.17
-1.155
-1.155
-1.125
-1.125
-1.125
-1.115
-1.105
-1.105
-1.135
-1.135
-1.14
-1.1
-1.11
-1.085
-1.075
-1.075
-1.055
-1.06
-1.055
-1.045
-1.06
-1.03
-1.03
-1.01
-0.995
-1.0
-0.96
-0.95
-0.945
-0.945
-0.955
-0.92
-0.92
-0.925
-0.93
-0.93
-0.925
-0.94
-0.95
-0.945
-0.93
-0.915
-0.935
-0.97
-0.955
-0.965
-0.945
-0.96
-0.98
-1.0
-1.005
-0.99
-1.02
-1.015
-1.025
-1.015
-1.025
-1.07
-1.1
-1.135
-1.1
-1.045
-1.065
-1.075
-1.055
-1.075
-1.065
-1.115
-1.135
-1.15
-1.135
-1.125
-1.15
-1.13
-1.145
-1.13
-1.13
-1.15
-1.15
-1.17
-1.16
-1.16
-1.155
-1.145
-1.15
-1.15
-1.145
-1.135
-1.18
-1.185
-1.19
-1.18
-1.18
-1.175
-1.165
-1.17
-1.175
-1.175
-1.135
-1.175
-1.19
-1.165
-1.13
-1.145
-1.145
-1.125
-1.125
-1.15
-1.15
-1.135
-1.135
-1.185
-1.165
-1.15
-1.145
-1.135
-1.115
-1.14
-1.155
-1.15
-1.15
-1.15
-1.155
-1.135
-1.12
-1.14
-1.13
-1.14
-1.15
-1.155
-1.145
-1.13
-1.12
-1.12
-1.115
-1.1
-1.11
-1.14
-1.145
-1.145
-1.125
-1.115
-1.115
-1.12
-1.115
-1.105
-1.105
-1.12
-1.105
-1.12
-1.105
-1.14
-1.145
-1.115
-1.11
-1.115
-1.105
-1.14
-1.145
-1.15
-1.125
-1.11
-1.095
-1.1
-1.135
-1.11
-1.125
-1.135
-1.135
-1.145
-1.135
-1.12
-1.12
-1.115
-1.135
-1.115
-1.12
-1.13
-1.14
-1.145
-1.13
-1.125
-1.11
-1.125
-1.12
-1.11
-1.12
-1.11
-1.115
-1.135
-1.145
-1.145
-1.14
-1.12
-1.105
-1.11
-1.135
-1.125
-1.12
-1.11
-1.105
-1.105
-1.12
-1.1
-1.125
-1.105
-1.095
-1.11
-1.125
-1.115
-1.1
-1.1
-1.09
-1.07
-1.06
-1.055
-1.06
-1.065
-1.065
-1.065
-1.06
-1.09
-1.06
-1.065
-1.055
-1.05
-1.055
-1.065
-1.07
-1.095
-1.105
-1.085
-1.075
-1.075
-1.1
-1.1
-1.115
-1.125
-1.155
-1.14
-1.13
-1.125
-1.125
-1.13
-1.135
-1.125
-1.12
-1.15
-1.16
-1.14
-1.125
-1.105
-1.13
-1.14
-1.13
-1.125
-1.12
-1.14
-1.145
-1.15
-1.13
-1.1
-1.055
-0.995
-0.95
-0.96
-0.91
-0.84
-0.75
-0.63
-0.51
-0.425
-0.355
-0.31
-0.3
-0.46
-0.64
-0.755
-0.925
-1.125
-1.315
-1.345
-1.36
-1.33
-1.27
-1.235
-1.205
-1.195
-1.205
-1.185
-1.19
-1.145
-1.125
-1.115
-1.105
-1.105
-1.12
-1.125
-1.14
-1.115
-1.11
-1.095
-1.08
-1.08
-1.055
-1.07
-1.095
-1.135
-1.1
-1.07
-1.065
-1.07
-1.065
-1.05
-1.045
-1.06
-1.08
-1.115
-1.095
-1.085
-1.06
-1.05
-1.05
-1.045
-1.035
-1.035
-1.045
-1.055
-1.055
-1.045
-1.05
-1.035
-1.03
-1.035
-1.03
-1.025
-1.045
-1.04
-1.025
-1.01
-1.0
-0.97
-1.0
-1.015
-1.0
-0.995
-0.985
-0.995
-1.0
-0.98
-0.96
-0.95
-0.95
-0.945
-0.905
-0.93
-0.95
-0.95
-0.935
-0.905
-0.89
-0.88
-0.86
-0.85
-0.835
-0.84
-0.86
-0.865
-0.845
-0.83
-0.825
-0.805
-0.795
-0.795
-0.79
-0.795
-0.81
-0.82
-0.815
-0.81
-0.81
-0.795
-0.795
-0.795
-0.795
-0.875
-0.9
-0.905
-0.88
-0.855
-0.88
-0.885
-0.895
-0.895
-0.9
-0.925
-0.955
-0.96
-0.955
-0.96
-0.955
-0.965
-0.965
-0.96
-0.96
-0.98
-1.005
-1.01
-1.0
-1.0
-1.01
-1.01
-1.01
-1.015
-1.005
-1.02
-1.045
-1.05
-1.02
-1.015
-1.005
-0.995
-1.0
-1.015
-1.01
-1.035
-1.07
-1.08
-1.06
-1.045
-1.03
-1.005
-1.0
-1.0
-1.0
-1.03
-1.035
-1.05
-1.03
-1.035
