# TIPE ECG 2021 - ECG-ID Database v1.0.0 par Physionet
# [N° de la personne, N° de l'enregistrement, Période d'échantillonnage, Prénom, Age, Sexe, Date de l'enregistrement]
[48, 1, 0.002, "Kate", 21, "F", "12.05.2005"]
1.715
1.715
1.64
1.605
1.63
1.65
1.69
1.68
1.68
1.67
1.655
1.66
1.64
1.6
1.63
1.675
1.705
1.68
1.685
1.67
1.645
1.645
1.675
1.675
1.66
1.645
1.655
1.68
1.71
1.655
1.685
1.71
1.6
1.61
1.625
1.65
1.665
1.675
1.69
1.665
1.655
1.665
1.625
1.585
1.64
1.655
1.63
1.665
1.64
1.69
1.63
1.595
1.625
1.67
1.655
1.685
1.63
1.585
1.645
1.615
1.625
1.63
1.62
1.625
1.6
1.64
1.625
1.635
1.67
1.66
1.58
1.61
1.595
1.61
1.625
1.625
1.64
1.625
1.665
1.615
1.61
1.595
1.585
1.63
1.585
1.605
1.64
1.64
1.655
1.63
1.625
1.595
1.615
1.59
1.615
1.635
1.655
1.67
1.615
1.605
1.615
1.6
1.62
1.59
1.65
1.605
1.585
1.63
1.635
1.61
1.62
1.62
1.61
1.6
1.655
1.595
1.595
1.57
1.61
1.615
1.61
1.605
1.615
1.625
1.59
1.605
1.645
1.615
1.635
1.68
1.645
1.58
1.605
1.63
1.605
1.605
1.66
1.645
1.67
1.71
1.67
1.615
1.625
1.67
1.66
1.67
1.705
1.655
1.64
1.64
1.56
1.545
1.585
1.6
1.59
1.55
1.565
1.58
1.61
1.595
1.64
1.57
1.535
1.565
1.615
1.595
1.555
1.6
1.6
1.59
1.57
1.55
1.59
1.585
1.585
1.59
1.605
1.61
1.575
1.605
1.65
1.64
1.655
1.685
1.785
1.875
1.915
1.91
1.915
1.92
1.86
1.865
1.885
1.79
1.62
1.49
1.42
1.45
1.49
1.445
1.325
1.21
1.195
1.24
1.34
1.39
1.44
1.475
1.485
1.505
1.53
1.505
1.515
1.535
1.55
1.585
1.575
1.58
1.57
1.58
1.535
1.57
1.545
1.58
1.58
1.585
1.585
1.605
1.585
1.535
1.555
1.55
1.58
1.565
1.54
1.605
1.585
1.58
1.59
1.595
1.585
1.585
1.57
1.585
1.585
1.58
1.6
1.62
1.61
1.585
1.635
1.61
1.6
1.61
1.595
1.585
1.635
1.65
1.65
1.62
1.58
1.61
1.655
1.655
1.645
1.61
1.635
1.67
1.705
1.645
1.61
1.645
1.66
1.69
1.695
1.71
1.72
1.725
1.745
1.715
1.75
1.7
1.725
1.78
1.76
1.75
1.815
1.845
1.795
1.845
1.805
1.83
1.865
1.86
1.845
1.905
1.885
1.895
1.92
1.86
1.915
1.92
1.94
1.875
1.895
1.91
1.89
1.905
1.875
1.845
1.865
1.845
1.845
1.81
1.84
1.805
1.785
1.8
1.75
1.725
1.715
1.665
1.625
1.635
1.655
1.65
1.645
1.63
1.585
1.57
1.55
1.545
1.57
1.56
1.5
1.51
1.565
1.535
1.545
1.535
1.475
1.545
1.59
1.52
1.5
1.515
1.545
1.5
1.49
1.52
1.495
1.5
1.495
1.48
1.51
1.52
1.525
1.525
1.49
1.505
1.525
1.495
1.435
1.46
1.505
1.485
1.465
1.485
1.495
1.515
1.465
1.49
1.485
1.475
1.5
1.525
1.55
1.505
1.5
1.53
1.425
1.485
1.515
1.515
1.51
1.485
1.48
1.505
1.505
1.48
1.5
1.525
1.5
1.505
1.495
1.515
1.52
1.53
1.51
1.485
1.505
1.495
1.485
1.49
1.51
1.435
1.515
1.51
1.485
1.495
1.495
1.465
1.49
1.47
1.505
1.5
1.505
1.49
1.48
1.445
1.46
1.48
1.48
1.5
1.49
1.51
1.51
1.485
1.44
1.425
1.435
1.46
1.47
1.44
1.485
1.475
1.47
1.49
1.45
1.435
1.46
1.43
1.47
1.49
1.44
1.46
1.47
1.46
1.43
1.46
1.45
1.43
1.44
1.46
1.465
1.44
1.435
1.46
1.435
1.41
1.425
1.43
1.445
1.435
1.445
1.455
1.45
1.465
1.465
1.425
1.445
1.465
1.415
1.45
1.42
1.42
1.44
1.43
1.415
1.4
1.42
1.4
1.425
1.395
1.42
1.425
1.47
1.43
1.43
1.405
1.425
1.44
1.4
1.445
1.4
1.43
1.42
1.435
1.415
1.41
1.385
1.44
1.46
1.46
1.44
1.47
1.46
1.43
1.435
1.405
1.43
1.425
1.475
1.475
1.485
1.46
1.48
1.495
1.45
1.48
1.49
1.47
1.445
1.45
1.4
1.435
1.4
1.365
1.375
1.355
1.395
1.37
1.405
1.37
1.38
1.425
1.39
1.38
1.405
1.355
1.345
1.395
1.38
1.345
1.365
1.385
1.38
1.37
1.365
1.385
1.395
1.34
1.36
1.395
1.38
1.44
1.5
1.5
1.565
1.685
1.745
1.725
1.74
1.725
1.72
1.705
1.655
1.59
1.43
1.225
1.235
1.21
1.275
1.295
1.17
1.09
1.02
1.045
1.09
1.18
1.21
1.23
1.27
1.305
1.325
1.345
1.33
1.355
1.33
1.325
1.32
1.36
1.36
1.365
1.375
1.375
1.355
1.36
1.335
1.38
1.36
1.38
1.36
1.37
1.41
1.35
1.325
1.34
1.34
1.33
1.355
1.365
1.365
1.39
1.395
1.4
1.375
1.325
1.34
1.345
1.345
1.37
1.395
1.365
1.375
1.405
1.405
1.405
1.35
1.375
1.37
1.385
1.4
1.405
1.425
1.41
1.44
1.43
1.4
1.38
1.395
1.425
1.42
1.43
1.475
1.47
1.45
1.45
1.505
1.48
1.47
1.465
1.485
1.48
1.505
1.555
1.565
1.525
1.49
1.55
1.61
1.585
1.605
1.59
1.61
1.615
1.63
1.625
1.61
1.69
1.655
1.64
1.65
1.675
1.7
1.69
1.7
1.665
1.675
1.725
1.675
1.68
1.665
1.68
1.695
1.66
1.65
1.615
1.57
1.595
1.545
1.54
1.575
1.48
1.47
1.465
1.44
1.445
1.365
1.365
1.4
1.4
1.39
1.365
1.35
1.325
1.36
1.3
1.25
1.345
1.295
1.295
1.31
1.305
1.285
1.32
1.265
1.26
1.27
1.265
1.265
1.27
1.285
1.27
1.29
1.27
1.28
1.325
1.265
1.24
1.225
1.27
1.28
1.24
1.295
1.265
1.265
1.26
1.23
1.26
1.245
1.275
1.255
1.255
1.27
1.285
1.255
1.22
1.23
1.26
1.25
1.245
1.24
1.265
1.28
1.255
1.24
1.195
1.23
1.265
1.265
1.26
1.225
1.235
1.285
1.295
1.23
1.22
1.24
1.25
1.265
1.25
1.24
1.275
1.27
1.235
1.22
1.28
1.215
1.225
1.215
1.255
1.245
1.28
1.28
1.22
1.21
1.23
1.255
1.22
1.23
1.205
1.215
1.24
1.27
1.27
1.185
1.21
1.25
1.22
1.21
1.23
1.205
1.195
1.255
1.235
1.175
1.21
1.22
1.205
1.225
1.22
1.23
1.205
1.23
1.245
1.23
1.145
1.18
1.205
1.205
1.21
1.205
1.245
1.26
1.23
1.22
1.145
1.145
1.17
1.23
1.18
1.21
1.235
1.17
1.215
1.195
1.15
1.2
1.2
1.21
1.195
1.215
1.23
1.205
1.155
1.16
1.175
1.18
1.185
1.2
1.195
1.185
1.215
1.2
1.195
1.19
1.19
1.205
1.225
1.185
1.125
1.18
1.19
1.14
1.185
1.18
1.16
1.205
1.17
1.135
1.19
1.185
1.205
1.215
1.2
1.205
1.17
1.23
1.19
1.175
1.175
1.225
1.25
1.215
1.21
1.22
1.23
1.235
1.25
1.235
1.275
1.28
1.235
1.22
1.165
1.125
1.115
1.15
1.205
1.15
1.13
1.14
1.165
1.11
1.105
1.125
1.13
1.12
1.14
1.14
1.16
1.17
1.205
1.15
1.12
1.1
1.1
1.125
1.135
1.13
1.135
1.13
1.14
1.11
1.155
1.23
1.185
1.21
1.295
1.34
1.485
1.505
1.51
1.495
1.495
1.405
1.415
1.465
1.375
1.2
1.06
1.035
1.07
1.065
1.06
0.865
0.78
0.745
0.775
0.905
0.96
1.01
1.035
1.005
1.06
1.085
1.12
1.11
1.07
1.105
1.1
1.115
1.1
1.105
1.125
1.105
1.115
1.13
1.09
1.155
1.14
1.1
1.135
1.09
1.095
1.105
1.16
1.115
1.12
1.125
1.2
1.19
1.125
1.06
1.08
1.065
1.115
1.115
1.13
1.125
1.105
1.16
1.16
1.185
1.125
1.12
1.13
1.145
1.175
1.12
1.145
1.17
1.17
1.165
1.145
1.12
1.155
1.175
1.195
1.185
1.18
1.19
1.225
1.145
1.155
1.165
1.19
1.21
1.22
1.23
1.235
1.255
1.265
1.295
1.355
1.265
1.215
1.245
1.25
1.315
1.325
1.305
1.32
1.34
1.36
1.35
1.375
1.4
1.42
1.435
1.455
1.375
1.415
1.465
1.415
1.37
1.425
1.435
1.465
1.46
1.47
1.465
1.44
1.445
1.445
1.38
1.325
1.34
1.365
1.325
1.32
1.36
1.285
1.27
1.27
1.245
1.22
1.2
1.15
1.2
1.175
1.14
1.13
1.115
1.09
1.08
1.1
1.05
1.1
1.095
1.085
1.095
1.065
1.055
1.04
1.025
1.04
1.025
1.055
1.075
1.055
0.99
1.015
1.01
0.985
1.015
1.03
1.025
1.055
1.045
1.025
1.03
1.025
0.98
1.025
1.065
0.995
1.0
1.025
1.06
1.04
1.015
1.01
0.97
0.985
0.96
0.995
0.99
1.02
1.005
1.035
1.04
0.98
1.02
1.0
1.005
0.965
1.0
1.005
1.02
1.025
0.995
1.015
0.98
0.985
0.98
0.995
1.0
1.025
1.02
1.02
1.025
0.985
1.005
0.985
1.005
1.015
0.975
0.955
1.02
1.02
0.99
0.95
0.97
0.96
0.995
0.985
0.98
0.95
1.005
1.01
0.965
0.985
0.96
0.935
0.955
0.96
0.95
0.995
0.97
0.97
0.955
0.955
0.965
0.93
0.96
0.95
0.95
0.945
0.945
0.995
0.935
0.935
0.99
0.97
0.95
0.945
0.935
0.955
0.945
0.96
0.965
0.985
0.9
0.95
0.965
0.905
0.89
0.935
0.935
0.96
0.945
0.92
0.895
0.915
0.92
0.945
0.915
0.93
0.955
0.945
0.98
0.9
0.895
0.92
0.97
0.9
0.9
0.915
0.94
0.96
0.925
0.91
0.895
0.905
0.89
0.88
0.91
0.94
0.94
0.94
0.9
0.885
0.895
0.9
0.9
0.915
0.93
0.865
0.92
0.985
0.93
0.9
0.885
0.89
0.885
0.875
0.92
0.875
0.895
0.93
0.92
0.915
0.905
0.9
0.9
0.92
0.915
0.945
0.915
0.925
0.895
0.94
0.925
0.95
0.975
0.96
0.975
0.92
0.955
0.98
0.925
0.96
0.965
0.94
0.88
0.86
0.89
0.875
0.89
0.9
0.885
0.86
0.875
0.86
0.87
0.87
0.845
0.825
0.865
0.875
0.85
0.855
0.85
0.855
0.83
0.865
0.86
0.85
0.875
0.875
0.845
0.89
0.815
0.825
0.905
0.965
0.975
1.01
1.055
1.09
1.2
1.245
1.215
1.205
1.225
1.195
1.21
1.195
1.075
0.865
0.755
0.65
0.725
0.785
0.73
0.6
0.515
0.48
0.55
0.61
0.705
0.68
0.715
0.735
0.78
0.84
0.795
0.885
0.9
0.885
0.875
0.77
0.79
0.805
0.83
0.84
0.85
0.865
0.88
0.855
0.85
0.85
0.84
0.81
0.82
0.835
0.82
0.88
0.89
0.87
0.87
0.83
0.84
0.86
0.875
0.85
0.87
0.89
0.86
0.885
0.86
0.86
0.86
0.895
0.94
0.93
0.915
0.925
0.875
0.86
0.85
0.875
0.88
0.92
0.885
0.915
0.895
0.905
0.925
0.935
0.905
0.87
0.955
0.915
0.94
0.95
0.935
0.955
0.955
0.965
0.99
0.945
0.94
0.995
0.98
1.04
1.065
1.035
1.035
1.11
1.08
0.995
1.025
1.075
1.09
1.095
1.12
1.11
1.165
1.175
1.185
1.14
1.2
1.195
1.145
1.155
1.2
1.185
1.19
1.165
1.19
1.155
1.125
1.16
1.13
1.165
1.135
1.16
1.11
1.06
1.06
1.035
1.005
0.975
0.95
0.99
0.99
1.055
0.95
0.875
0.845
0.835
0.85
0.84
0.83
0.835
0.835
0.825
0.825
0.805
0.79
0.795
0.8
0.79
0.76
0.77
0.765
0.78
0.8
0.775
0.735
0.76
0.765
0.75
0.765
0.775
0.8
0.795
0.73
0.74
0.72
0.75
0.735
0.745
0.765
0.745
0.745
0.755
0.78
0.735
0.725
0.715
0.7
0.75
0.77
0.73
0.765
0.755
0.775
0.74
0.705
0.69
0.715
0.755
0.76
0.73
0.715
0.775
0.745
0.71
0.72
0.7
0.72
0.725
0.735
0.73
0.745
0.75
0.77
0.755
0.73
0.675
0.695
0.715
0.72
0.75
0.745
0.725
0.74
0.76
0.715
0.68
0.72
0.725
0.7
0.715
0.76
0.74
0.715
0.715
0.675
0.685
0.695
0.71
0.715
0.675
0.685
0.735
0.73
0.695
0.7
0.705
0.685
0.71
0.71
0.735
0.715
0.7
0.715
0.78
0.67
0.625
0.655
0.675
0.69
0.69
0.665
0.68
0.69
0.67
0.66
0.69
0.665
0.665
0.68
0.71
0.74
0.705
0.685
0.655
0.61
0.67
0.655
0.66
0.685
0.685
0.69
0.725
0.685
0.645
0.67
0.68
0.695
0.66
0.635
0.69
0.65
0.67
0.675
0.68
0.645
0.645
0.65
0.7
0.72
0.625
0.655
0.675
0.665
0.65
0.61
0.645
0.635
0.675
0.66
0.66
0.675
0.66
0.65
0.65
0.61
0.665
0.665
0.72
0.625
0.615
0.67
0.665
0.66
0.66
0.635
0.645
0.68
0.655
0.68
0.68
0.68
0.68
0.67
0.665
0.665
0.675
0.67
0.68
0.7
0.695
0.75
0.73
0.775
0.76
0.76
0.72
0.615
0.62
0.615
0.65
0.665
0.65
0.62
0.64
0.575
0.625
0.625
0.625
0.635
0.625
0.64
0.65
0.61
0.6
0.655
0.65
0.635
0.635
0.6
0.575
0.62
0.62
0.6
0.595
0.61
0.615
0.61
0.59
0.64
0.665
0.735
0.705
0.775
0.78
0.85
0.975
0.975
0.985
0.98
0.99
1.015
0.915
0.855
0.66
0.525
0.49
0.45
0.51
0.535
0.47
0.37
0.27
0.25
0.33
0.41
0.475
0.495
0.51
0.545
0.61
0.58
0.575
0.58
0.595
0.615
0.61
0.635
0.61
0.6
0.62
0.65
0.62
0.58
0.575
0.625
0.615
0.605
0.63
0.615
0.645
0.64
0.645
0.62
0.6
0.605
0.58
0.665
0.645
0.64
0.685
0.685
0.66
0.605
0.595
0.645
0.625
0.62
0.635
0.65
0.67
0.665
0.655
0.67
0.65
0.64
0.645
0.65
0.64
0.685
0.71
0.685
0.685
0.675
0.675
0.695
0.685
0.685
0.7
0.695
0.705
0.725
0.705
0.735
0.72
0.755
0.73
0.735
0.78
0.79
0.83
0.845
0.755
0.775
0.79
0.85
0.84
0.85
0.815
0.855
0.88
0.89
0.935
0.93
0.9
0.945
0.945
0.95
0.97
1.005
1.0
0.945
0.99
0.965
0.895
0.945
0.96
0.955
0.945
0.99
0.94
0.95
0.93
0.925
0.895
0.87
0.845
0.82
0.805
0.795
0.805
0.74
0.745
0.69
0.7
0.72
0.7
0.66
0.65
0.625
0.63
0.64
0.62
0.565
0.595
0.59
0.625
0.595
0.58
0.55
0.6
0.585
0.555
0.535
0.545
0.565
0.54
0.545
0.6
0.575
0.62
0.525
0.55
0.52
0.535
0.555
0.555
0.595
0.575
0.54
0.575
0.53
0.53
0.54
0.53
0.56
0.54
0.555
0.5
0.53
0.585
0.565
0.53
0.545
0.545
0.545
0.49
0.54
0.545
0.59
0.59
0.6
0.47
0.5
0.54
0.52
0.54
0.545
0.53
0.565
0.585
0.595
0.54
0.515
0.53
0.58
0.47
0.515
0.53
0.57
0.535
0.505
0.565
0.515
0.51
0.565
0.52
0.575
0.535
0.56
0.535
0.54
0.535
0.56
0.51
0.505
0.535
0.53
0.525
0.525
0.52
0.515
0.51
0.54
0.505
0.49
0.525
0.56
0.53
0.515
0.535
0.515
0.47
0.48
0.51
0.515
0.515
0.505
0.515
0.53
0.545
0.5
0.495
0.49
0.495
0.53
0.54
0.515
0.495
0.515
0.535
0.485
0.49
0.485
0.51
0.49
0.54
0.465
0.505
0.52
0.51
0.5
0.485
0.51
0.485
0.495
0.51
0.495
0.475
0.52
0.5
0.495
0.48
0.485
0.465
0.49
0.52
0.505
0.525
0.535
0.535
0.505
0.46
0.455
0.505
0.5
0.505
0.48
0.48
0.505
0.495
0.465
0.445
0.465
0.52
0.5
0.515
0.535
0.485
0.5
0.515
0.505
0.47
0.475
0.5
0.505
0.505
0.495
0.51
0.52
0.525
0.505
0.485
0.51
0.53
0.51
0.53
0.525
0.52
0.555
0.57
0.54
0.485
0.535
0.485
0.51
0.555
0.57
0.57
0.58
0.585
0.565
0.57
0.54
0.535
0.53
0.5
0.49
0.54
0.49
0.48
0.47
0.425
0.475
0.495
0.49
0.52
0.49
0.505
0.51
0.485
0.455
0.425
0.475
0.46
0.47
0.455
0.515
0.49
0.47
0.465
0.47
0.465
0.485
0.46
0.47
0.5
0.575
0.61
0.61
0.635
0.71
0.77
0.865
0.855
0.855
0.855
0.82
0.815
0.775
0.73
0.56
0.39
0.37
0.445
0.395
0.4
0.285
0.19
0.115
0.12
0.195
0.285
0.365
0.39
0.415
0.45
0.515
0.435
0.445
0.47
0.475
0.46
0.51
0.445
0.46
0.48
0.475
0.53
0.525
0.505
0.48
0.45
0.485
0.515
0.5
0.5
0.49
0.515
0.5
0.495
0.475
0.53
0.51
0.505
0.525
0.475
0.53
0.57
0.565
0.52
0.475
0.515
0.525
0.515
0.53
0.51
0.55
0.54
0.525
0.525
0.515
0.53
0.54
0.56
0.555
0.565
0.57
0.585
0.595
0.58
0.525
0.545
0.555
0.58
0.625
0.63
0.62
0.615
0.645
0.625
0.62
0.59
0.615
0.665
0.665
0.72
0.665
0.68
0.72
0.71
0.665
0.665
0.775
0.765
0.79
0.795
0.775
0.815
0.79
0.785
0.8
0.81
0.82
0.84
0.85
0.885
0.875
0.92
0.875
0.88
0.885
0.885
0.87
0.875
0.895
0.85
0.855
0.855
0.815
0.79
0.805
0.755
0.75
0.715
0.7
0.69
0.7
0.72
0.675
0.62
0.57
0.61
0.61
0.605
0.545
0.545
0.58
0.555
0.57
0.515
0.485
0.525
0.525
0.505
0.495
0.465
0.505
0.535
0.455
0.475
0.5
0.455
0.485
0.5
0.51
0.48
0.485
0.49
0.475
0.47
0.45
0.45
0.455
0.49
0.48
0.465
0.46
0.495
0.47
0.485
0.445
0.53
0.49
0.46
0.455
0.48
0.535
0.465
0.46
0.485
0.505
0.475
0.45
0.48
0.43
0.455
0.49
0.485
0.475
0.47
0.425
0.455
0.475
0.48
0.48
0.47
0.5
0.485
0.465
0.465
0.465
0.48
0.485
0.51
0.52
0.495
0.465
0.515
0.455
0.445
0.49
0.425
0.445
0.43
0.46
0.475
0.485
0.47
0.46
0.45
0.54
0.475
0.415
0.425
0.43
0.45
0.46
0.475
0.48
0.505
0.51
0.45
0.42
0.43
0.425
0.47
0.47
0.485
0.44
0.46
0.485
0.475
0.445
0.415
0.405
0.445
0.465
0.48
0.465
0.475
0.485
0.455
0.43
0.415
0.45
0.49
0.45
0.45
0.47
0.515
0.535
0.425
0.43
0.41
0.445
0.435
0.435
0.405
0.435
0.49
0.48
0.505
0.46
0.425
0.465
0.43
0.43
0.415
0.435
0.43
0.425
0.45
0.44
0.415
0.46
0.46
0.455
0.47
0.455
0.485
0.49
0.455
0.4
0.455
0.45
0.41
0.44
0.44
0.475
0.46
0.47
0.48
0.42
0.465
0.45
0.415
0.44
0.47
0.46
0.445
0.435
0.425
0.435
0.46
0.45
0.435
0.405
0.43
0.46
0.485
0.445
0.46
0.42
0.43
0.46
0.475
0.49
0.495
0.47
0.47
0.505
0.49
0.445
0.455
0.45
0.465
0.47
0.48
0.48
0.5
0.495
0.485
0.48
0.555
0.535
0.495
0.535
0.51
0.51
0.505
0.485
0.42
0.405
0.43
0.435
0.46
0.415
0.43
0.43
0.425
0.42
0.41
0.425
0.415
0.42
0.44
0.465
0.435
0.42
0.43
0.425
0.435
0.455
0.45
0.435
0.44
0.405
0.395
0.425
0.435
0.41
0.445
0.505
0.515
0.595
0.655
0.765
0.825
0.84
0.82
0.83
0.75
0.78
0.7
0.65
0.49
0.36
0.29
0.305
0.395
0.31
0.195
0.07
0.04
0.075
0.19
0.255
0.285
0.31
0.335
0.35
0.365
0.35
0.44
0.415
0.44
0.42
0.42
0.4
0.465
0.46
0.38
0.405
0.39
0.435
0.405
0.415
0.45
0.43
0.445
0.43
0.42
0.4
0.395
0.47
0.45
0.45
0.445
0.455
0.45
0.465
0.44
0.39
0.43
0.48
0.45
0.45
0.44
0.455
0.485
0.455
0.49
0.505
0.43
0.435
0.45
0.495
0.515
0.5
0.455
0.43
0.445
0.455
0.51
0.49
0.495
0.515
0.525
0.52
0.505
0.515
0.535
0.535
0.565
0.5
0.56
0.6
0.555
0.57
0.61
0.61
0.56
0.54
0.59
0.63
0.665
0.625
0.63
0.64
0.66
0.695
0.685
0.68
0.695
0.775
0.76
0.685
0.715
0.765
0.76
0.77
0.8
0.81
0.765
0.78
0.765
0.775
0.755
0.795
0.785
0.775
0.73
0.705
0.735
0.72
0.735
0.69
0.69
0.67
0.635
0.67
0.61
0.52
0.545
0.555
0.545
0.53
0.52
0.515
0.48
0.48
0.41
0.44
0.455
0.44
0.425
0.43
0.46
0.425
0.405
0.355
0.385
0.375
0.38
0.38
0.39
0.4
0.415
0.43
0.435
0.38
0.335
0.365
0.365
0.38
0.355
0.365
0.375
0.4
0.365
0.41
0.34
0.34
0.38
0.375
0.395
0.4
0.385
0.39
0.355
0.385
0.34
0.36
0.365
0.34
0.355
0.35
0.375
0.385
0.375
0.39
0.335
0.365
0.345
0.38
0.425
0.395
0.365
0.36
0.375
0.34
0.315
0.355
0.38
0.4
0.37
0.375
0.42
0.36
0.36
0.385
0.36
0.35
0.36
0.395
0.375
0.345
0.365
0.375
0.345
0.355
0.345
0.365
0.37
0.39
0.38
0.37
0.39
0.39
0.325
0.29
0.36
0.36
0.385
0.375
0.365
0.36
0.36
0.35
0.385
0.395
0.375
0.35
0.335
0.325
0.335
0.335
0.35
0.35
0.335
0.39
0.335
0.34
0.365
0.385
0.325
0.31
0.36
0.375
0.34
0.295
0.325
0.29
0.315
0.335
0.335
0.32
0.35
0.355
0.35
0.315
0.31
0.305
0.35
0.36
0.295
0.325
0.365
0.355
0.325
0.285
0.275
0.335
0.335
0.37
0.36
0.325
0.335
0.31
0.315
0.31
0.3
0.285
0.305
0.315
0.315
0.325
0.345
0.32
0.315
0.355
0.31
0.375
0.365
0.25
0.29
0.295
0.32
0.325
0.33
0.315
0.34
0.31
0.34
0.365
0.325
0.33
0.37
0.34
0.325
0.36
0.33
0.315
0.34
0.33
0.32
0.34
0.385
0.38
0.35
0.365
0.38
0.415
0.41
0.39
0.39
0.365
0.36
0.32
0.28
0.285
0.28
0.3
0.31
0.29
0.295
0.32
0.315
0.285
0.255
0.29
0.29
0.3
0.29
0.31
0.28
0.285
0.33
0.29
0.345
0.275
0.32
0.395
0.3
0.265
0.22
0.27
0.34
0.365
0.35
0.42
0.48
0.55
0.63
0.64
0.66
0.645
0.635
0.58
0.535
0.55
0.38
0.18
0.085
0.115
0.185
0.22
0.13
-0.02
-0.1
-0.115
0.01
0.075
0.12
0.13
0.14
0.24
0.265
0.3
0.27
0.21
0.25
0.285
0.255
0.275
0.295
0.28
0.275
0.285
0.295
0.26
0.305
0.3
0.29
0.295
0.275
0.345
0.315
0.265
0.29
0.275
0.295
0.26
0.315
0.315
0.325
0.33
0.305
0.32
0.3
0.295
0.31
0.305
0.3
0.32
0.3
0.34
0.31
0.33
0.3
0.315
0.345
0.355
0.375
0.34
0.345
0.36
0.35
0.34
0.335
0.305
0.385
0.38
0.37
0.36
0.36
0.43
0.39
0.375
0.39
0.415
0.405
0.425
0.44
0.46
0.43
0.455
0.475
0.445
0.46
0.455
0.475
0.51
0.52
0.52
0.555
0.565
0.58
0.56
0.575
0.59
0.61
0.62
0.615
0.66
0.67
0.67
0.67
0.635
0.63
0.63
0.665
0.655
0.715
0.685
0.68
0.68
0.65
0.625
0.575
0.56
0.575
0.565
0.525
0.535
0.515
0.495
0.515
0.455
0.42
0.425
0.415
0.37
0.35
0.38
0.4
0.365
0.345
0.29
0.315
0.31
0.32
0.33
0.3
0.32
0.28
0.265
0.28
0.285
0.26
0.275
0.26
0.26
0.295
0.29
0.315
0.28
0.27
0.295
0.255
0.26
0.245
0.25
0.26
0.265
0.265
0.28
0.245
0.26
0.26
0.25
0.265
0.265
0.255
0.27
0.305
0.345
0.295
0.25
0.245
0.265
0.27
0.24
0.26
0.28
0.265
0.27
0.285
0.23
0.24
0.275
0.275
0.29
0.31
0.28
0.265
0.285
0.275
0.24
0.235
0.25
0.275
0.285
0.305
0.27
0.285
0.235
0.245
0.3
0.265
0.265
0.265
0.33
0.3
0.215
0.235
0.285
0.29
0.255
0.235
0.27
0.27
0.26
0.255
0.26
0.305
0.28
0.245
0.23
0.23
0.255
0.285
0.325
0.3
0.215
0.245
0.26
0.255
0.225
0.255
0.235
0.27
0.265
0.265
0.27
0.265
0.295
0.23
0.2
0.245
0.235
0.24
0.245
0.235
0.25
0.27
0.275
0.235
0.23
0.255
0.24
0.225
0.265
0.265
0.26
0.27
0.26
0.27
0.22
0.24
0.245
0.26
0.265
0.23
0.245
0.24
0.235
0.235
0.245
0.225
0.205
0.22
0.25
0.285
0.285
0.245
0.225
0.215
0.22
0.255
0.255
0.225
0.25
0.25
0.27
0.235
0.255
0.205
0.23
0.225
0.25
0.225
0.24
0.235
0.23
0.235
0.265
0.255
0.225
0.22
0.195
0.23
0.26
0.22
0.26
0.27
0.255
0.225
0.19
0.225
0.265
0.235
0.255
0.265
0.275
0.28
0.24
0.23
0.25
0.265
0.29
0.29
0.265
0.355
0.31
0.3
0.315
0.315
0.28
0.31
0.25
0.245
0.22
0.225
0.26
0.27
0.2
0.225
0.18
0.205
0.25
0.24
0.21
0.195
0.23
0.185
0.215
0.19
0.165
0.21
0.245
0.265
0.24
0.16
0.195
0.22
0.225
0.14
0.175
0.19
0.195
0.22
0.27
0.31
0.35
0.4
0.455
0.555
0.595
0.57
0.545
0.575
0.505
0.505
0.495
0.43
0.26
0.08
0.0
0.09
0.125
0.11
-0.01
-0.12
-0.115
-0.075
-0.02
0.04
0.08
0.125
0.145
0.17
0.24
0.155
0.21
0.245
0.225
0.225
0.24
0.185
0.115
0.165
0.225
0.19
0.215
0.2
0.17
0.175
0.195
0.2
0.21
0.225
0.245
0.24
0.235
0.225
0.215
0.235
0.205
0.19
0.235
0.22
0.21
0.25
0.26
0.255
0.24
0.25
0.255
0.24
0.24
0.225
0.255
0.28
0.285
0.24
0.23
0.205
0.215
0.255
0.27
0.29
0.305
0.285
0.29
0.33
0.28
0.27
0.265
0.305
0.3
0.32
0.33
0.325
0.335
0.315
0.315
0.34
0.365
0.38
0.375
0.365
0.365
0.43
0.455
0.4
0.42
0.435
0.44
0.44
0.48
0.485
0.49
0.555
0.54
0.55
0.545
0.51
0.575
0.585
0.57
0.58
0.615
0.66
0.575
0.535
0.59
0.575
0.58
0.59
0.59
0.575
0.58
0.585
0.58
0.56
0.51
0.49
0.495
0.44
0.435
0.425
0.405
0.425
0.4
0.375
0.36
0.315
0.325
0.29
0.28
0.27
0.255
0.285
0.24
0.235
0.28
0.265
0.21
0.215
0.18
0.205
0.2
0.24
0.24
0.21
0.2
0.215
0.205
0.205
0.19
0.245
0.225
0.225
0.26
0.175
0.18
0.19
0.185
0.215
0.18
0.155
0.195
0.25
0.21
0.18
0.205
0.165
0.18
0.195
0.21
0.215
0.22
0.185
0.165
0.17
0.195
0.18
0.19
0.16
0.22
0.21
0.18
0.23
0.17
0.15
0.18
0.185
0.18
0.19
0.19
0.205
0.2
0.23
0.185
0.16
0.19
0.255
0.16
0.16
0.175
0.185
0.215
0.205
0.185
0.18
0.165
0.15
0.17
0.165
0.205
0.2
0.215
0.225
0.21
0.175
0.18
0.175
0.195
0.175
0.16
0.205
0.195
0.18
0.155
0.155
0.155
0.185
0.185
0.18
0.205
0.195
0.18
0.16
0.185
0.155
0.12
0.17
0.14
0.16
0.17
0.165
0.195
0.19
0.165
0.15
0.145
0.165
0.16
0.17
0.19
0.195
0.165
0.13
0.145
0.16
0.14
0.175
0.14
0.155
0.155
0.175
0.205
0.175
0.09
0.13
0.17
0.165
0.105
0.125
0.145
0.155
0.155
0.195
0.145
0.135
0.155
0.175
0.15
0.13
0.14
0.175
0.165
0.175
0.16
0.145
0.115
0.125
0.185
0.16
0.17
0.17
0.165
0.155
0.145
0.145
0.13
0.145
0.17
0.175
0.165
0.155
0.2
0.175
0.185
0.125
0.155
0.145
0.16
0.19
0.18
0.205
0.21
0.215
0.19
0.17
0.16
0.21
0.195
0.295
0.245
0.185
0.23
0.235
0.22
0.21
0.205
0.21
0.2
0.185
0.165
0.165
0.19
0.125
0.12
0.09
0.105
0.15
0.12
0.145
0.15
0.125
0.16
0.16
0.145
0.115
0.115
0.14
0.125
0.13
0.18
0.16
0.17
0.145
0.13
0.09
0.1
0.105
0.13
0.18
0.2
0.28
0.325
0.33
0.455
0.51
0.515
0.515
0.51
0.505
0.465
0.435
0.5
0.325
0.09
0.095
0.045
0.01
0.1
0.015
-0.125
-0.19
-0.175
-0.115
-0.06
-0.02
0.045
0.06
0.095
0.13
0.155
0.125
0.095
0.125
0.145
0.12
0.135
0.14
0.135
0.13
0.14
0.185
0.195
0.15
0.13
0.145
0.15
0.155
0.165
0.13
0.135
0.185
0.18
0.15
0.18
0.155
0.2
0.17
0.185
0.2
0.19
0.185
0.175
0.135
0.16
0.175
0.135
0.16
0.17
0.165
0.205
0.21
0.205
0.21
0.21
0.21
0.215
0.205
0.24
0.2
0.235
0.235
0.22
0.195
0.24
0.245
0.23
0.23
0.23
0.245
0.305
0.3
0.24
0.245
0.29
0.28
0.3
0.31
0.315
0.325
0.365
0.415
0.41
0.32
0.375
0.38
0.38
0.41
0.39
0.42
0.445
0.47
0.48
0.49
0.475
0.46
0.5
0.495
0.53
0.545
0.545
0.575
0.56
0.51
0.51
0.525
0.525
0.52
0.51
0.53
0.515
0.505
0.49
0.445
0.455
0.395
0.415
0.41
0.365
0.415
0.35
0.33
0.3
0.325
0.325
0.225
0.165
0.19
0.195
0.215
0.2
0.175
0.215
0.15
0.16
0.145
0.185
0.15
0.175
0.165
0.125
0.16
0.195
0.15
0.105
0.135
0.165
0.15
0.185
0.135
0.14
0.12
0.125
0.13
0.105
0.095
0.1
0.11
0.14
0.125
0.145
0.135
0.12
0.125
0.11
0.115
0.14
0.175
0.13
0.125
0.14
0.12
0.12
0.07
0.09
0.145
0.11
0.13
0.125
0.13
0.19
0.2
0.115
0.085
0.115
0.16
0.155
0.075
0.12
0.115
0.135
0.125
0.07
0.09
0.11
0.11
0.135
0.14
0.14
0.16
0.165
0.135
0.085
0.085
0.1
0.155
0.145
0.105
0.09
0.145
0.145
0.135
0.105
0.095
0.095
0.11
0.125
0.155
0.145
0.12
0.05
0.11
0.125
0.07
0.095
0.07
0.09
0.09
0.115
0.145
0.12
0.11
0.125
0.055
0.03
0.09
0.095
0.065
0.075
0.085
0.12
0.105
0.085
0.085
0.04
0.095
0.105
0.12
0.07
0.075
0.14
0.095
0.125
0.095
0.095
0.07
0.04
0.1
0.055
0.105
0.095
0.12
0.105
0.025
0.075
0.04
0.085
0.08
0.075
0.135
0.125
0.11
0.085
0.06
0.025
0.065
0.055
0.11
0.09
0.11
0.105
0.13
0.1
0.055
0.07
0.05
0.1
0.105
0.135
0.14
0.115
0.15
0.095
0.085
0.095
0.12
0.11
0.135
0.145
0.15
0.135
0.11
0.075
0.115
0.115
0.14
0.17
0.165
0.18
0.17
0.165
0.11
0.09
0.06
0.09
0.055
0.06
0.09
0.05
0.105
0.115
0.065
0.045
0.08
0.09
0.055
0.13
0.09
0.04
0.08
0.05
0.03
0.03
0.05
0.045
0.085
0.125
0.075
0.085
0.08
0.075
0.05
0.075
0.115
0.185
0.17
0.24
0.325
0.385
0.46
0.47
0.435
0.44
0.37
0.375
0.37
0.245
0.065
-0.035
-0.095
-0.055
-0.01
-0.1
-0.22
-0.295
-0.315
-0.235
-0.135
-0.05
0.01
-0.09
-0.06
0.015
0.025
0.08
0.02
0.09
0.065
0.105
0.085
0.085
0.09
0.045
0.055
0.045
0.075
0.055
0.05
0.105
0.14
0.07
0.07
0.075
0.095
0.075
0.1
0.13
0.085
0.14
0.13
0.095
0.09
0.095
0.09
0.075
0.065
0.145
0.145
0.095
0.12
0.135
0.125
0.09
0.12
0.11
0.13
0.175
0.155
0.13
0.15
0.165
0.145
0.125
0.145
0.145
0.165
0.185
0.175
0.17
0.175
0.175
0.15
0.165
0.185
0.205
0.19
0.22
0.23
0.23
0.245
0.24
0.25
0.245
0.26
0.31
0.285
0.3
0.32
0.325
0.335
0.345
0.33
0.35
0.35
0.38
0.37
0.395
0.43
0.465
0.43
0.415
0.435
0.435
0.46
0.45
0.455
0.48
0.46
0.455
0.475
0.485
0.435
0.38
0.455
0.44
0.43
0.365
0.34
0.395
0.32
0.33
0.265
0.25
0.255
0.2
0.175
0.205
0.23
0.2
0.165
0.125
0.135
0.135
0.115
0.095
0.105
0.085
0.12
0.145
0.165
0.09
0.05
0.1
0.12
0.06
0.06
0.12
0.095
0.085
0.05
0.06
0.07
0.05
0.05
0.09
0.065
0.06
0.07
0.12
0.08
0.04
0.07
0.05
0.045
0.055
0.08
0.075
0.07
0.11
0.095
0.095
0.045
0.08
0.085
0.075
0.025
0.045
0.085
0.11
0.08
0.065
0.045
0.075
0.095
0.08
0.065
0.055
0.095
0.07
0.1
0.065
0.035
0.07
0.105
0.08
0.105
0.115
0.105
0.07
0.09
0.065
0.065
0.075
0.08
0.095
0.085
0.145
0.09
0.09
0.045
0.045
0.06
0.05
0.07
0.1
0.085
0.08
0.065
0.085
0.095
0.05
0.07
0.1
0.04
0.055
0.085
0.08
0.07
0.09
0.055
0.05
0.065
0.05
0.055
0.06
0.07
0.03
0.07
0.07
0.045
0.045
0.04
0.115
0.065
0.095
0.085
0.02
0.05
0.03
0.05
0.05
0.01
0.06
0.075
0.095
0.055
0.025
0.055
0.08
0.05
0.035
0.035
0.065
0.04
0.015
0.07
0.06
0.075
0.05
0.05
0.05
0.03
0.065
0.045
0.07
0.04
0.055
0.055
0.065
0.105
0.035
0.055
0.06
0.065
0.095
0.08
0.07
0.09
0.08
0.05
0.11
0.15
0.115
0.07
0.08
0.125
0.13
0.12
0.12
0.095
0.105
0.07
0.055
0.06
0.02
-0.01
0.04
0.035
0.055
0.025
0.06
0.01
0.0
0.015
0.05
0.045
0.045
0.06
0.02
0.005
0.02
-0.015
0.025
0.025
0.015
0.01
0.02
0.045
0.02
0.015
0.045
0.035
0.09
0.14
0.17
0.295
0.39
0.42
0.435
0.355
0.32
0.275
0.295
0.295
0.265
0.1
-0.07
-0.095
-0.08
-0.07
-0.03
-0.125
-0.26
-0.29
-0.255
-0.17
-0.16
-0.095
-0.075
-0.025
-0.04
0.015
0.04
0.015
0.095
0.04
0.01
0.025
0.03
0.03
0.015
-0.005
0.01
0.03
0.045
0.07
0.065
0.055
0.065
0.015
0.06
0.055
0.04
0.065
0.09
0.05
0.08
0.095
0.065
0.07
0.03
0.025
0.075
0.09
0.095
0.09
0.095
0.085
0.085
0.11
0.075
0.085
0.095
0.08
0.115
0.11
0.105
0.1
0.135
0.12
0.085
0.11
0.135
0.17
0.15
0.14
0.225
0.16
0.145
0.165
0.105
0.16
0.155
0.21
0.2
0.23
0.23
0.225
0.245
0.23
0.205
0.215
0.275
0.28
0.295
0.33
0.325
0.365
0.365
0.345
0.345
0.405
0.4
0.34
0.385
0.455
0.46
0.44
0.425
0.445
0.4
0.435
0.515
0.515
0.445
0.495
0.545
0.55
0.455
0.405
0.46
0.455
0.42
0.445
0.385
0.41
0.41
0.385
0.35
0.335
0.31
0.28
0.24
0.23
0.235
0.25
0.22
0.205
0.185
0.18
0.225
0.175
0.155
0.16
0.12
0.15
0.15
0.18
0.15
0.09
0.13
0.175
0.14
0.1
0.105
0.14
0.125
0.15
0.175
0.12
0.115
0.125
0.1
0.14
0.135
0.17
0.165
0.18
0.135
0.17
0.115
0.12
0.16
0.155
0.075
0.07
0.14
0.115
0.135
0.14
0.115
0.125
0.145
0.15
0.15
0.18
0.16
0.18
0.14
0.125
0.09
0.125
0.105
0.135
0.14
0.13
0.155
0.14
0.125
0.125
0.115
0.165
0.11
0.12
0.135
0.12
0.09
0.11
0.1
0.12
0.16
0.17
0.14
0.115
0.155
0.14
0.12
0.135
0.135
0.12
0.125
0.125
0.145
0.165
0.145
0.095
0.12
0.12
0.14
0.13
0.105
0.12
0.15
0.115
0.11
0.155
0.145
0.14
0.105
0.1
0.12
0.12
0.16
0.135
0.13
0.16
0.15
0.135
0.08
0.115
0.11
0.125
0.175
0.125
0.08
0.105
0.135
0.125
0.09
0.14
0.12
0.13
0.11
0.18
0.14
0.125
0.115
0.125
0.09
0.1
0.11
0.09
0.135
0.145
0.115
0.205
0.15
0.14
0.12
0.11
0.13
0.185
0.155
0.155
0.185
0.18
0.145
0.125
0.135
0.14
0.13
0.14
0.13
0.17
0.175
0.235
0.235
0.215
0.215
0.165
0.18
0.175
0.205
0.145
0.125
0.12
0.125
0.055
0.095
0.11
0.14
0.115
0.115
0.155
0.13
0.115
0.125
0.115
0.1
0.095
0.15
0.14
0.1
0.12
0.125
0.115
0.08
0.115
0.12
0.065
0.115
0.13
0.14
0.14
0.23
0.205
0.26
0.365
0.425
0.485
0.48
0.51
0.475
0.43
0.385
0.375
0.37
0.23
0.06
-0.005
-0.03
-0.035
0.005
-0.035
-0.175
-0.215
-0.205
-0.13
-0.07
-0.03
0.045
0.095
0.145
0.125
0.1
0.075
0.05
0.085
0.115
0.115
0.14
0.12
0.11
0.14
0.115
0.145
0.145
0.105
0.14
0.15
0.08
0.145
0.135
0.105
0.16
0.185
0.19
0.145
0.12
0.085
0.12
0.14
0.185
0.14
0.17
0.195
0.205
0.15
0.17
0.17
0.18
0.145
0.17
0.185
0.16
0.155
0.18
0.165
0.185
0.19
0.15
0.125
0.185
0.2
0.19
0.2
0.2
0.185
0.19
0.22
0.245
0.26
0.26
0.245
0.275
0.27
0.28
0.265
0.29
0.265
0.275
0.275
0.29
0.34
0.315
0.34
0.355
0.335
0.33
0.36
0.4
0.4
0.41
0.43
0.475
0.505
0.485
0.395
0.395
0.445
0.485
0.445
0.475
0.475
0.52
0.535
0.51
0.51
0.52
0.505
0.5
0.505
0.53
0.51
0.46
0.465
0.41
0.425
0.41
0.385
0.335
0.31
0.355
0.305
0.305
0.3
0.275
0.255
0.215
0.235
0.255
0.25
0.16
0.145
0.145
0.16
0.13
0.155
0.16
0.085
0.135
0.175
0.135
0.165
0.145
0.105
0.105
0.135
0.13
0.12
0.165
0.155
0.145
0.14
0.12
0.135
0.085
0.15
0.12
0.105
0.09
0.125
0.12
0.15
0.205
0.185
0.135
0.07
0.11
0.11
0.145
0.155
0.135
0.115
0.17
0.155
0.055
0.105
0.115
0.145
0.105
0.14
0.14
0.175
0.105
0.095
0.07
0.115
0.125
0.135
0.105
0.165
0.155
0.14
0.16
0.135
0.145
0.12
0.13
0.105
0.125
0.12
0.125
0.135
0.18
0.175
0.16
0.06
0.125
0.16
0.115
0.105
0.12
0.145
0.18
0.13
0.125
0.08
0.125
0.125
0.1
0.095
0.115
0.105
0.125
0.13
0.125
0.1
0.125
0.13
0.14
0.125
0.135
0.145
0.175
0.17
0.15
0.095
0.15
0.13
0.09
0.13
0.16
0.15
0.125
0.11
0.105
0.095
0.11
0.12
0.085
0.11
0.155
0.135
0.14
0.205
0.12
0.05
0.11
0.15
0.105
0.105
0.11
0.15
0.145
0.13
0.15
0.115
0.11
0.17
0.155
0.115
0.155
0.14
0.17
0.15
0.125
0.105
0.165
0.15
0.115
0.145
0.12
0.155
0.145
0.13
0.14
0.1
0.135
0.155
0.165
0.155
0.155
0.15
0.135
0.13
0.125
0.14
0.16
0.185
0.165
0.115
0.15
0.18
0.17
0.16
0.175
0.2
0.195
0.205
0.185
0.195
0.18
0.205
0.21
0.125
0.095
0.12
0.11
0.115
0.125
0.12
0.115
0.12
0.13
0.105
0.11
0.095
0.105
0.095
0.12
0.1
0.1
0.115
0.11
0.13
0.065
0.055
0.095
0.11
0.12
0.11
0.085
0.11
0.065
0.1
0.115
0.18
0.25
0.295
0.36
0.435
0.51
0.515
0.44
0.39
0.385
0.395
0.375
0.36
0.22
0.0
-0.01
0.02
0.04
-0.02
-0.13
-0.195
-0.245
-0.165
-0.125
-0.015
0.02
0.005
0.06
0.065
0.085
0.08
0.07
0.14
0.155
0.11
0.085
0.1
0.1
0.115
0.085
0.08
0.095
0.11
0.14
0.16
0.155
0.12
0.14
0.16
0.1
0.115
0.12
0.17
0.205
0.14
0.155
0.2
0.235
0.11
0.095
0.115
0.145
0.14
0.155
0.16
0.195
0.205
0.165
0.145
0.15
0.15
0.155
0.195
0.225
0.185
0.205
0.2
0.17
0.18
0.16
0.165
0.2
0.245
0.245
0.235
0.205
0.225
0.245
0.21
0.225
0.23
0.235
0.215
0.27
0.275
0.315
0.3
0.31
0.3
0.325
0.345
0.325
0.36
0.365
0.355
0.4
0.435
0.43
0.41
0.405
0.44
0.445
0.475
0.515
0.555
0.555
0.44
0.485
0.52
0.53
0.55
0.545
0.555
0.57
0.545
0.555
0.595
0.515
0.52
0.555
0.505
0.48
0.475
0.475
0.425
0.44
0.43
0.375
0.37
0.33
0.345
0.35
0.345
0.315
0.32
0.315
0.22
0.185
0.185
0.175
0.195
0.2
0.2
0.19
0.225
0.215
0.195
0.175
0.15
0.165
0.2
0.14
0.185
0.13
0.23
0.175
0.14
0.125
0.13
0.165
0.205
0.18
0.175
0.18
0.185
0.195
0.155
0.145
0.15
0.2
0.21
0.155
0.19
0.255
0.175
0.145
0.155
0.135
0.155
0.16
0.175
0.155
0.16
0.205
0.2
0.21
0.24
0.115
0.12
0.175
0.16
0.165
0.15
0.175
0.195
0.16
0.15
0.155
0.18
0.17
0.195
0.175
0.195
0.15
0.19
0.185
0.165
0.175
0.165
0.185
0.185
0.18
0.19
0.175
0.19
0.18
0.165
0.155
0.14
0.17
0.18
0.205
0.2
0.2
0.23
0.145
0.175
0.165
0.15
0.185
0.205
0.165
0.21
0.215
0.175
0.175
0.165
0.17
0.185
0.2
0.165
0.17
0.17
0.155
0.2
0.235
0.215
0.2
0.155
0.175
0.205
0.195
0.22
0.215
0.235
0.21
0.215
0.205
0.205
0.175
0.2
0.215
0.22
0.18
0.265
0.25
0.245
0.2
0.155
0.195
0.195
0.24
0.25
0.265
0.305
0.19
0.19
0.195
0.17
0.17
0.245
0.235
0.22
0.225
0.235
0.25
0.22
0.2
0.21
0.225
0.265
0.23
0.22
0.23
0.25
0.245
0.25
0.205
0.24
0.25
0.27
0.275
0.265
0.265
0.255
0.275
0.255
0.265
0.28
0.33
0.305
0.28
0.255
0.25
0.275
0.32
0.315
0.28
0.315
0.36
0.33
0.32
0.295
0.315
0.33
0.305
0.205
0.21
0.245
0.215
0.26
0.255
0.215
0.265
0.27
0.26
0.245
0.265
0.215
0.26
0.25
0.21
0.235
0.26
0.285
0.215
0.255
0.28
0.215
0.225
0.22
0.22
0.27
0.285
0.26
0.23
0.255
0.37
0.375
0.43
0.37
0.475
0.585
0.63
0.615
0.61
0.625
0.57
0.605
0.56
0.43
0.27
0.175
0.14
0.16
0.135
0.05
-0.075
-0.135
-0.155
-0.045
0.025
0.085
0.13
0.175
0.2
0.235
0.195
0.215
0.225
0.255
0.29
0.29
0.295
0.295
0.285
0.265
0.27
0.245
0.25
0.27
0.27
0.295
0.305
0.3
0.3
0.26
0.265
0.29
0.315
0.31
0.345
0.315
0.32
0.345
0.32
0.31
0.29
0.315
0.33
0.31
0.365
0.335
0.345
0.36
0.34
0.34
0.345
0.305
0.33
0.365
0.345
0.32
0.38
0.4
0.335
0.32
0.375
0.39
0.395
0.395
0.38
0.4
0.435
0.375
0.35
0.36
0.4
0.425
0.455
0.435
0.415
0.47
0.45
0.47
0.475
0.48
0.545
0.505
0.515
0.53
0.51
0.555
0.565
0.575
0.57
0.575
0.605
0.63
0.655
0.7
0.635
0.675
0.6
0.63
0.675
0.665
0.665
0.695
0.675
0.7
0.705
0.71
0.685
0.66
0.73
0.685
0.67
0.64
0.66
0.64
0.55
0.59
0.56
0.52
0.525
0.475
0.485
0.47
0.48
0.475
0.43
0.485
0.435
0.41
0.41
0.35
0.355
0.365
0.35
0.355
0.35
0.32
0.35
0.35
0.315
0.33
0.345
0.34
0.32
0.35
0.36
0.305
0.305
0.3
0.325
0.26
0.29
0.33
0.3
0.295
0.3
0.35
0.39
0.31
0.27
0.265
0.325
0.33
0.325
0.315
0.255
0.335
0.33
0.3
0.305
0.3
0.325
0.345
0.33
0.305
0.315
0.335
0.31
0.335
0.35
0.4
0.35
0.295
0.335
0.31
0.355
0.36
0.355
0.285
0.29
0.29
0.34
0.36
0.32
0.345
0.355
0.345
0.34
0.4
0.305
0.27
0.305
0.35
0.345
0.34
0.35
0.375
0.345
0.32
0.335
0.305
0.33
0.335
0.345
0.365
0.335
0.36
0.36
0.33
0.32
0.305
0.355
0.34
0.33
0.335
0.335
0.36
0.34
0.33
0.33
0.325
0.34
0.31
0.33
0.36
0.36
0.36
0.31
0.345
0.33
0.355
0.335
0.355
0.35
0.34
0.325
0.41
0.35
0.32
0.325
0.34
0.395
0.345
0.35
0.34
0.405
0.38
0.34
0.335
0.345
0.325
0.37
0.39
0.33
0.315
0.335
0.355
0.345
0.305
0.32
0.34
0.385
0.365
0.355
0.355
0.38
0.355
0.36
0.385
0.355
0.37
0.41
0.38
0.39
0.39
0.4
0.39
0.425
0.37
0.345
0.4
0.365
0.405
0.45
0.405
0.405
0.42
0.37
0.42
0.38
0.42
0.455
0.44
0.41
0.385
0.355
0.335
0.34
0.37
0.315
0.355
0.33
0.38
0.36
0.34
0.395
0.36
0.34
0.325
0.275
0.355
0.37
0.37
0.39
0.365
0.37
0.355
0.315
0.315
0.305
0.315
0.345
0.345
0.37
0.375
0.435
0.445
0.495
0.495
0.57
0.67
0.725
0.705
0.7
0.665
0.675
0.68
0.65
0.55
0.355
0.22
0.16
0.185
0.255
0.2
0.085
0.005
0.03
-0.005
0.055
0.145
0.18
0.235
0.25
0.29
0.33
0.345
0.34
0.34
0.335
0.355
0.365
0.365
0.365
0.385
0.375
0.35
0.385
0.38
0.37
0.4
0.38
0.38
0.365
0.4
0.4
0.385
0.39
0.395
0.4
0.385
0.405
0.44
0.385
0.375
0.36
0.42
0.42
0.38
0.38
0.395
0.385
0.43
0.43
0.445
0.435
0.44
0.425
0.435
0.435
0.405
0.43
0.43
0.455
0.475
0.465
0.45
0.465
0.445
0.47
0.465
0.485
0.515
0.48
0.5
0.51
0.515
0.475
0.49
0.555
0.54
0.585
0.595
0.58
0.57
0.575
0.55
0.56
0.565
0.595
0.61
0.62
0.64
0.62
0.695
0.755
0.785
0.665
0.665
0.68
0.735
0.75
0.74
0.765
0.77
0.76
0.755
0.775
0.765
0.77
0.79
0.78
0.76
0.78
0.79
0.775
0.73
0.7
0.66
0.66
0.665
0.645
0.655
0.605
0.6
0.585
0.575
0.555
0.53
0.51
0.485
0.475
0.475
0.47
0.47
0.44
0.46
0.47
0.43
0.4
0.385
0.425
0.445
0.385
0.415
0.405
0.39
0.38
0.39
0.39
0.405
0.395
0.395
0.41
0.4
0.405
0.38
0.38
0.37
0.375
0.385
0.385
0.425
0.435
0.43
0.36
0.35
0.37
0.36
0.365
0.35
0.41
0.39
0.37
0.405
0.405
0.42
0.37
0.355
0.415
0.385
0.37
0.405
0.415
0.455
0.42
0.39
0.37
0.405
0.45
0.41
0.365
0.38
0.405
0.415
0.385
0.385
0.36
0.395
0.375
0.38
0.45
0.385
0.415
0.465
0.44
0.425
0.38
0.395
0.395
0.4
0.395
0.4
0.385
0.405
0.39
0.425
0.405
0.395
0.4
0.42
0.42
0.42
0.39
0.39
0.405
0.375
0.435
0.42
0.385
0.355
0.375
0.405
0.415
0.405
0.415
0.425
0.39
0.375
0.42
0.42
0.35
0.375
0.435
0.45
0.385
0.345
0.345
0.405
0.435
0.375
0.375
0.395
0.395
0.4
0.415
0.4
0.385
0.38
0.395
0.395
0.42
0.385
0.41
0.4
0.385
0.385
0.385
0.38
0.4
0.405
0.42
0.415
0.435
0.41
0.375
0.395
0.37
0.415
0.4
0.4
0.46
0.425
0.405
0.42
0.39
0.4
0.38
0.43
0.405
0.39
0.43
0.445
0.47
0.48
0.41
0.385
0.4
0.44
0.435
0.455
0.485
0.46
0.48
0.475
0.475
0.495
0.495
0.455
0.485
0.42
0.44
0.39
0.4
0.42
0.39
0.405
0.36
0.38
0.39
0.405
0.445
0.38
0.45
0.415
0.38
0.335
0.35
0.365
0.385
0.4
0.385
0.42
0.43
0.415
0.4
0.34
0.365
0.4
0.395
0.395
0.41
0.45
0.51
0.5
0.54
0.61
0.69
0.785
0.82
0.795
0.73
0.71
0.705
0.685
0.655
0.43
0.32
0.265
0.24
0.27
0.275
0.165
0.1
0.03
0.04
0.14
0.245
0.275
0.29
0.29
0.335
0.395
0.42
0.365
0.375
0.38
0.37
0.4
0.38
0.39
0.39
0.43
0.46
0.425
0.465
0.38
0.37
0.37
0.435
0.44
0.39
0.44
0.44
0.455
0.38
0.38
0.4
0.44
0.425
0.445
0.445
0.42
0.45
0.45
0.435
0.39
0.42
0.425
0.425
0.455
0.455
0.495
0.475
0.47
0.445
0.435
0.46
0.48
0.475
0.465
0.505
0.495
0.49
0.47
0.5
0.45
0.485
0.49
0.495
0.535
0.52
0.54
0.565
0.535
0.525
0.55
0.545
0.63
0.555
0.595
0.605
0.59
0.6
0.635
0.595
0.64
0.69
0.62
0.665
0.705
0.705
0.715
0.74
0.685
0.74
0.75
0.745
0.76
0.765
0.79
0.81
0.845
0.83
0.785
0.765
0.81
0.79
0.815
0.805
0.805
0.795
0.805
0.75
0.74
0.715
0.715
0.725
0.685
0.69
0.64
0.635
0.64
0.58
0.55
0.535
0.53
0.555
0.56
0.525
0.515
0.45
0.46
0.47
0.465
0.405
0.425
0.435
0.45
0.45
0.435
0.445
0.435
0.44
0.415
0.4
0.445
0.385
0.385
0.425
0.43
0.415
0.44
0.43
0.415
0.39
0.385
0.405
0.435
0.42
0.4
0.41
0.405
0.44
0.385
0.395
0.415
0.43
0.39
0.44
0.41
0.45
0.415
0.41
0.425
0.41
0.375
0.405
0.4
0.44
0.485
0.425
0.39
0.43
0.395
0.38
0.405
0.445
0.405
0.425
0.45
0.44
0.445
0.415
0.375
0.41
0.405
0.425
0.41
0.455
0.435
0.46
0.43
0.405
0.405
0.395
0.415
0.425
0.43
0.44
0.42
0.445
0.415
0.41
0.43
0.395
0.42
0.425
0.45
0.435
0.435
0.415
0.43
0.45
0.415
0.345
0.385
0.415
0.405
0.45
0.425
0.455
0.44
0.39
0.37
0.385
0.425
0.39
0.435
0.405
0.42
0.43
0.45
0.435
0.385
0.36
0.4
0.45
0.44
0.45
0.48
0.45
0.41
0.395
0.35
0.41
0.44
0.39
0.425
0.435
0.425
0.42
0.435
0.4
0.38
0.38
0.415
0.405
0.425
0.42
0.415
0.43
0.43
0.405
0.4
0.435
0.42
0.38
0.45
0.435
0.425
0.485
0.44
0.44
0.4
0.395
0.395
0.4
0.425
0.445
0.445
0.445
0.415
0.465
0.435
0.45
0.45
0.435
0.445
0.465
0.455
0.48
0.47
0.435
0.455
0.485
0.475
0.475
0.475
0.515
0.485
0.53
0.495
0.505
0.47
0.45
0.47
0.455
0.415
0.435
0.425
0.445
0.415
0.44
0.395
0.39
0.41
0.42
0.395
0.42
0.405
0.445
0.44
0.44
0.425
0.4
0.425
0.44
0.435
0.41
0.435
0.435
0.4
0.405
0.37
0.41
0.395
0.43
0.47
0.515
0.625
0.61
0.695
0.79
0.79
0.84
0.82
0.785
0.78
0.775
0.765
0.645
0.45
0.32
0.27
0.32
0.37
0.31
0.18
0.105
0.11
0.14
0.22
0.265
0.335
0.365
0.385
0.37
0.41
0.43
0.445
0.4
0.445
0.435
0.415
0.425
0.45
0.425
0.445
0.47
0.485
0.5
0.455
0.455
0.455
0.44
0.47
0.465
0.48
0.465
0.48
0.5
0.44
0.475
0.47
0.475
0.485
0.5
0.52
0.48
0.505
0.52
0.5
0.5
0.465
0.515
0.51
0.51
0.5
0.5
0.535
0.545
0.51
0.485
0.485
0.515
0.505
0.53
0.6
0.555
0.56
0.58
0.545
0.525
0.55
0.595
0.59
0.585
0.6
0.605
0.63
0.62
0.605
0.605
0.625
0.62
0.625
0.675
0.69
0.68
0.7
0.71
0.72
0.69
0.72
0.735
0.745
0.76
0.785
0.79
0.835
0.79
0.8
0.845
0.87
0.86
0.87
0.84
0.86
0.895
0.9
0.915
0.89
0.905
0.93
0.835
0.855
0.865
0.81
0.865
0.855
0.82
0.785
0.775
0.73
0.765
0.73
0.69
0.69
0.725
0.695
0.675
0.615
0.59
0.585
0.58
0.585
0.56
0.555
0.57
0.56
0.55
0.575
0.5
0.555
0.5
0.525
0.485
0.51
0.575
0.555
0.52
0.465
0.47
0.48
0.485
0.53
0.505
0.485
0.53
0.505
0.55
0.485
0.49
0.545
0.495
0.505
0.505
0.52
0.515
0.5
0.525
0.51
0.53
0.485
0.55
0.525
0.485
0.52
0.565
0.58
0.54
0.47
0.475
0.515
0.51
0.505
0.53
0.545
0.555
0.525
0.555
0.525
0.505
0.53
0.515
0.525
0.555
0.53
0.575
0.55
0.48
0.53
0.515
0.535
0.545
0.57
0.525
0.575
0.58
0.585
0.565
0.48
0.525
0.565
0.535
0.51
0.52
0.545
0.545
0.56
0.58
0.595
0.505
0.495
0.535
0.53
0.545
0.51
0.53
0.53
0.55
0.55
0.54
0.56
0.53
0.5
0.535
0.565
0.56
0.56
0.565
0.53
0.545
0.56
0.565
0.565
0.555
0.57
0.54
0.545
0.56
0.545
0.52
0.52
0.555
0.58
0.55
0.555
0.56
0.58
0.545
0.545
0.55
0.53
0.58
0.54
0.555
0.57
0.57
0.535
0.57
0.545
0.535
0.565
0.59
0.585
0.555
0.57
0.53
0.54
0.56
0.565
0.555
0.495
0.53
0.565
0.555
0.615
0.58
0.6
0.57
0.545
0.585
0.615
0.56
0.57
0.585
0.565
0.61
0.6
0.58
0.6
0.57
0.575
0.585
0.575
0.63
0.625
0.62
0.63
0.64
0.6
0.62
0.64
0.675
0.65
0.615
0.64
0.67
0.595
0.565
0.545
0.53
0.57
0.57
0.56
0.57
0.59
0.58
0.565
0.54
0.55
0.575
0.54
0.615
0.545
0.57
0.595
0.655
0.605
0.52
0.53
0.52
0.57
0.595
0.57
0.6
0.615
0.585
0.64
0.69
0.71
0.755
0.795
0.9
0.93
0.95
0.94
0.93
0.93
0.89
0.885
0.815
0.63
0.485
0.43
0.46
0.5
0.46
0.345
0.205
0.185
0.245
0.33
0.38
0.43
0.48
0.505
0.505
0.53
0.555
0.555
0.59
0.59
0.59
0.605
0.635
0.635
0.625
0.615
0.615
0.615
0.585
0.59
0.59
0.605
0.6
0.63
0.63
0.605
0.6
0.61
0.615
0.655
0.65
0.65
0.64
0.66
0.64
0.61
0.665
0.63
0.61
0.605
0.62
0.665
0.65
0.695
0.695
0.595
0.65
0.655
0.64
0.615
0.645
0.65
0.69
0.7
0.695
0.675
0.655
0.685
0.645
0.705
0.68
0.685
0.69
0.7
0.73
0.73
0.69
0.715
0.705
0.775
0.745
0.74
0.755
0.77
0.78
0.8
0.8
0.79
0.85
0.845
0.83
0.83
0.84
0.895
0.875
0.86
0.875
0.86
0.96
0.975
0.92
0.92
0.99
0.935
0.955
0.955
0.96
0.97
0.94
0.975
0.99
1.02
1.01
0.95
0.955
0.945
0.87
0.885
0.885
0.9
0.86
0.885
0.89
0.86
0.75
0.75
0.72
0.725
0.725
0.725
0.705
0.72
0.72
0.715
0.67
0.6
0.635
0.62
0.615
0.625
0.66
0.64
0.61
0.61
0.615
0.585
0.585
0.58
0.59
0.63
0.6
0.55
0.6
0.615
0.595
0.545
0.57
0.595
0.57
0.565
0.585
0.59
0.59
0.585
0.6
0.545
0.58
0.605
0.585
0.58
0.555
0.545
0.615
0.59
0.575
0.57
0.545
0.555
0.57
0.575
0.595
0.59
0.59
0.59
0.595
0.56
0.605
0.58
0.54
0.59
0.59
0.615
0.61
0.595
0.58
0.545
0.515
0.595
0.585
0.575
0.595
0.63
0.61
0.57
0.58
0.56
0.565
0.62
0.595
0.575
0.56
0.595
0.59
0.56
0.585
0.56
0.585
0.585
0.555
0.56
0.6
0.595
0.62
0.565
0.57
0.555
0.575
0.565
0.54
0.57
0.58
0.6
0.575
0.575
0.58
0.57
0.59
0.595
0.575
0.585
0.54
0.58
0.565
0.55
0.56
0.535
0.545
0.52
0.58
0.55
0.56
0.58
0.595
0.595
0.555
0.56
0.575
0.61
0.57
0.525
0.535
0.56
0.58
0.56
0.575
0.545
0.575
0.62
0.585
0.565
0.585
0.595
0.61
0.6
0.575
0.56
0.56
0.595
0.57
0.585
0.62
0.61
0.605
0.625
0.61
0.595
0.6
0.64
0.595
0.625
0.585
0.585
0.55
0.555
0.515
0.49
0.53
0.545
0.56
0.535
0.535
0.59
0.53
0.5
0.55
0.54
0.57
0.53
0.51
0.545
0.53
0.515
0.535
0.52
0.485
0.495
0.495
0.515
0.53
0.54
0.575
0.595
0.62
0.695
0.725
0.75
0.825
0.9
0.84
0.875
0.885
0.885
0.865
0.745
0.67
0.515
0.385
0.345
0.455
0.46
0.395
0.3
0.18
0.145
0.21
0.295
0.31
0.39
0.435
0.445
0.475
0.53
0.55
0.51
0.46
0.54
0.53
0.525
0.53
0.57
0.505
0.54
0.545
0.52
0.525
0.535
0.56
0.57
0.55
0.53
0.55
0.56
0.52
0.555
0.555
0.53
0.56
0.555
0.6
0.55
0.58
0.595
0.57
0.51
0.55
0.565
0.53
0.55
0.555
0.595
0.605
0.63
0.575
0.605
0.585
0.58
0.61
0.595
0.615
0.64
0.7
0.605
0.625
0.59
0.58
0.595
0.635
0.665
0.66
0.615
0.705
0.705
0.635
0.695
0.66
0.665
0.685
0.69
0.69
0.705
0.76
0.78
0.76
0.705
0.79
0.785
0.715
0.765
0.775
0.8
0.815
0.835
0.78
0.81
0.835
0.845
0.835
0.885
0.88
0.95
0.9
0.895
0.875
0.885
0.87
0.91
0.89
0.91
0.89
0.88
0.885
0.855
0.87
0.825
0.765
0.815
0.785
0.75
0.785
0.725
0.735
0.695
0.66
0.61
0.64
0.625
0.61
0.615
0.605
0.62
0.59
0.585
0.58
0.565
0.535
0.505
0.53
0.525
0.545
0.535
0.51
0.545
0.515
0.535
0.545
0.495
0.45
0.5
0.525
0.5
0.535
0.51
0.49
0.505
0.475
0.51
0.515
0.55
0.545
0.49
0.5
0.545
0.49
0.475
0.495
0.51
0.49
0.49
0.505
0.525
0.515
0.525
0.515
0.555
0.455
0.47
0.505
0.52
0.495
0.51
0.49
0.47
0.495
0.47
0.51
0.525
0.505
0.515
0.52
0.515
0.52
0.51
0.49
0.49
0.535
0.53
0.5
0.465
0.515
0.55
0.53
0.495
0.525
0.5
0.5
0.48
0.485
0.49
0.495
0.505
0.535
0.47
0.49
0.465
0.48
0.485
0.48
0.53
0.565
0.51
0.54
0.5
0.485
0.475
0.49
0.5
0.49
0.525
0.51
0.47
0.495
0.5
0.495
0.435
0.435
0.485
0.51
0.515
0.52
0.55
0.5
0.45
0.485
0.45
0.46
0.48
0.485
0.515
0.515
0.5
0.5
0.51
0.495
0.47
0.49
0.49
0.48
0.48
0.455
0.485
0.52
0.48
0.475
0.475
0.51
0.55
0.51
0.485
0.47
0.47
0.5
0.49
0.49
0.5
0.515
0.49
0.48
0.52
0.515
0.515
0.555
0.54
0.54
0.495
0.545
0.57
0.59
0.575
0.565
0.535
0.54
0.555
0.48
0.44
0.475
0.44
0.46
0.47
0.455
0.475
0.485
0.495
0.425
0.445
0.505
0.485
0.415
0.445
0.49
0.495
0.475
0.465
0.465
0.46
0.465
0.515
0.48
0.465
0.5
0.525
0.48
0.44
0.525
0.585
0.615
0.68
0.8
0.89
0.885
0.88
0.815
0.745
0.695
0.695
0.67
0.565
0.375
0.265
0.275
0.335
0.365
0.335
0.265
0.155
0.16
0.25
0.315
0.34
0.38
0.42
0.465
0.46
0.46
0.45
0.46
0.455
0.485
0.51
0.5
0.45
0.485
0.455
0.46
0.5
0.47
0.49
0.5
0.49
0.48
0.48
0.52
0.48
0.49
0.505
0.465
0.48
0.48
0.5
0.535
0.5
0.515
0.515
0.505
0.505
0.5
0.465
0.53
0.54
0.515
0.53
0.535
0.52
0.525
0.525
0.505
0.525
0.545
0.565
0.55
0.575
0.565
0.545
0.54
0.565
0.55
0.545
0.54
0.54
0.58
0.59
0.62
0.615
0.555
0.595
0.585
0.63
0.61
0.615
0.655
0.675
0.67
0.635
0.625
0.655
0.69
0.705
0.7
0.73
0.75
0.765
0.725
0.73
0.75
0.76
0.815
0.825
0.775
0.775
0.815
0.84
0.825
0.82
0.815
0.84
0.845
0.865
0.85
0.865
0.835
0.83
0.8
0.785
0.775
0.8
0.795
0.77
0.75
0.735
0.72
0.71
0.63
0.595
0.645
0.605
0.605
0.585
0.62
0.635
0.585
0.515
0.48
0.46
0.485
0.49
0.535
0.485
0.5
0.49
0.495
0.46
0.5
0.465
0.44
0.49
0.43
0.475
0.455
0.48
0.475
0.46
0.455
0.435
0.43
0.455
0.46
0.455
0.47
0.48
0.465
0.465
0.465
0.455
0.435
0.43
0.405
0.43
0.46
0.45
0.47
0.46
0.445
0.455
0.405
0.42
0.445
0.495
0.47
0.415
0.465
0.445
0.44
0.455
0.475
0.46
0.425
0.445
0.45
0.46
0.43
0.43
0.425
0.405
0.41
0.455
0.445
0.44
0.415
0.44
0.46
0.44
0.425
0.435
0.415
0.445
0.47
0.45
0.46
0.485
0.43
0.415
0.445
0.425
0.445
0.425
0.445
0.44
0.46
0.505
0.46
0.385
0.38
0.395
0.45
0.44
0.405
0.435
0.435
0.41
0.485
0.41
0.39
0.415
0.415
0.415
0.425
0.45
0.42
0.435
0.445
0.41
0.39
0.39
0.44
0.415
0.435
0.425
0.455
0.43
0.395
0.395
0.4
0.435
0.43
0.405
0.41
0.44
0.385
0.43
0.42
0.375
0.395
0.39
0.43
0.43
0.42
0.445
0.465
0.47
0.5
0.435
0.41
0.43
0.425
0.445
0.465
0.505
0.475
0.44
0.435
0.43
0.42
0.47
0.47
0.455
0.5
0.515
0.575
0.495
0.46
0.475
0.415
0.445
0.46
0.405
0.395
0.42
0.435
0.4
0.4
0.37
0.375
0.42
0.405
0.405
0.375
0.425
0.42
0.41
0.405
0.455
0.36
0.43
0.425
0.38
0.38
0.395
0.38
0.4
0.375
0.38
0.4
0.395
0.44
0.485
0.545
0.59
0.67
0.76
0.76
0.77
0.76
0.76
0.725
0.71
0.755
0.625
0.49
0.33
0.27
0.31
0.325
0.275
0.12
0.03
0.04
0.11
0.215
0.27
0.32
0.265
0.3
0.335
0.365
0.365
0.38
0.4
0.4
0.425
0.385
0.365
0.405
0.385
0.415
0.455
0.43
0.455
0.415
0.4
0.37
0.405
0.365
0.43
0.415
0.38
0.425
0.405
0.445
0.44
0.39
0.42
0.415
0.4
0.42
0.44
0.45
0.415
0.455
0.485
0.45
0.47
0.415
0.435
0.45
0.425
0.48
0.455
0.47
0.465
0.455
0.48
0.445
0.47
0.485
0.48
0.52
0.51
0.515
0.535
0.505
0.515
0.5
0.54
0.495
0.515
0.54
0.545
0.6
0.555
0.545
0.585
0.56
0.59
0.61
0.59
0.625
0.64
0.63
0.655
0.69
0.67
0.67
0.71
0.7
0.73
0.73
0.775
0.825
0.765
0.745
0.73
0.76
0.765
0.785
0.785
0.77
0.75
0.79
0.79
0.805
0.77
0.8
0.745
0.72
0.755
0.69
0.735
0.7
0.615
0.63
0.64
0.57
0.59
0.585
0.61
0.545
0.515
0.535
0.505
0.46
0.46
0.465
0.415
0.435
0.425
0.47
0.44
0.4
0.415
0.395
0.335
0.36
0.395
0.425
0.4
0.43
0.44
0.405
0.345
0.37
0.335
0.365
0.39
0.44
0.405
0.36
0.375
0.33
0.34
0.35
0.405
0.385
0.4
0.345
0.34
0.35
0.39
0.41
0.38
0.31
0.375
0.375
0.345
0.35
0.395
0.39
0.38
0.375
0.335
0.34
0.35
0.35
0.38
0.385
0.385
0.42
0.38
0.375
0.385
0.365
0.38
0.34
0.315
0.36
0.39
0.365
0.365
0.395
0.37
0.36
0.3
0.355
0.345
0.37
0.36
0.385
0.405
0.38
0.33
0.345
0.305
0.35
0.35
0.36
0.38
0.375
0.38
0.34
0.375
0.315
0.35
0.38
0.37
0.395
0.41
0.375
0.33
0.335
0.37
0.3
0.31
0.305
0.35
0.36
0.36
0.315
0.385
0.365
0.34
0.32
0.315
0.31
0.33
0.36
0.35
0.37
0.355
0.36
0.345
0.34
0.35
0.355
0.325
0.33
0.345
0.355
0.35
0.33
0.355
0.35
0.36
0.375
0.37
0.35
0.36
0.39
0.38
0.37
0.445
0.35
0.315
0.34
0.38
0.395
0.39
0.375
0.375
0.395
0.385
0.37
0.385
0.4
0.425
0.425
0.41
0.415
0.425
0.35
0.325
0.335
0.35
0.335
0.335
0.315
0.345
0.345
0.345
0.33
0.335
0.3
0.325
0.305
0.34
0.31
0.365
0.345
0.335
0.315
0.32
0.31
0.31
0.34
0.335
0.405
0.35
0.285
0.32
0.29
0.33
0.38
0.44
0.455
0.505
0.555
0.655
0.69
0.695
0.68
0.67
0.68
0.65
0.64
0.5
0.3
0.26
0.16
0.195
0.225
0.11
-0.03
-0.075
-0.06
0.005
0.09
0.14
0.215
0.235
0.26
0.23
0.31
0.345
0.35
0.355
0.335
0.275
0.305
0.31
0.315
0.305
0.325
0.365
0.355
0.31
0.335
0.37
0.395
0.3
0.32
0.3
0.325
0.335
0.34
0.35
0.39
0.39
0.37
0.36
0.34
0.345
0.32
0.325
0.36
0.365
0.38
0.39
0.4
0.4
0.375
0.31
0.315
0.395
0.385
0.415
0.41
0.43
0.425
0.425
0.365
0.345
0.37
0.39
0.395
0.445
0.41
0.38
0.43
0.44
0.44
0.435
0.445
0.44
0.5
0.47
0.485
0.475
0.475
0.5
0.49
0.475
0.54
0.53
0.55
0.525
0.57
0.565
0.575
0.595
0.61
0.61
0.64
0.63
0.63
0.71
0.66
0.65
0.635
0.655
0.635
0.67
0.65
0.69
0.695
0.715
0.69
0.71
0.735
0.67
0.645
0.645
0.645
0.6
0.64
0.595
0.635
0.555
0.535
0.535
0.48
0.465
0.47
0.44
0.485
0.405
0.405
0.415
0.4
0.355
0.355
0.37
0.36
0.37
0.33
0.34
0.34
0.345
0.305
0.29
0.28
0.29
0.33
0.285
0.335
0.345
0.27
0.31
0.3
0.31
0.28
0.27
0.31
0.31
0.295
0.245
0.285
0.295
0.32
0.295
0.265
0.265
0.3
0.3
0.295
0.31
0.28
0.305
0.285
0.28
0.25
0.28
0.315
0.36
0.315
0.25
0.31
0.305
0.255
0.24
0.275
0.265
0.275
0.27
0.27
0.3
0.31
0.29
0.285
0.29
0.295
0.295
0.275
0.26
0.295
0.285
0.315
0.315
0.27
0.31
0.275
0.255
0.29
0.315
0.275
0.29
0.3
0.255
0.275
0.29
0.26
0.27
0.255
0.285
0.315
0.275
0.26
0.32
0.275
0.24
0.235
0.25
0.285
0.26
0.285
0.275
0.27
0.29
0.27
0.265
0.23
0.25
0.225
0.285
0.285
0.295
0.29
0.295
0.265
0.26
0.265
0.28
0.275
0.28
0.295
0.285
0.25
0.3
0.285
0.315
0.27
0.285
0.275
0.27
0.275
0.38
0.36
0.33
0.35
0.285
0.295
0.295
0.32
0.355
0.325
0.295
0.295
0.305
0.265
0.235
0.225
0.245
0.265
0.27
0.235
0.24
0.29
0.295
0.21
0.235
0.205
0.25
0.22
0.255
0.265
0.235
0.27
0.25
0.21
0.27
0.22
0.255
0.26
0.215
0.25
0.275
0.2
0.27
0.26
0.27
0.26
0.345
0.345
0.415
0.455
0.575
0.61
0.66
0.56
0.59
0.57
0.535
0.535
0.465
0.295
0.14
0.105
0.09
0.115
0.11
0.005
-0.08
-0.15
-0.05
0.005
0.085
0.095
0.125
0.17
0.195
0.21
0.19
0.245
0.275
0.245
0.3
0.235
0.275
0.245
0.205
0.195
0.27
0.275
0.28
0.245
0.255
0.27
0.265
0.27
0.27
0.27
0.235
0.25
0.26
0.305
0.28
0.28
0.27
0.255
0.26
0.26
0.325
0.265
0.335
0.33
0.305
0.33
0.295
0.225
0.26
0.25
0.275
0.295
0.33
0.315
0.35
0.36
0.335
0.305
0.285
0.325
0.34
0.325
0.36
0.35
0.35
0.345
0.35
0.36
0.365
0.36
0.365
0.355
0.4
0.375
0.395
0.425
0.415
0.375
0.42
0.44
0.455
0.45
0.465
0.48
0.515
0.515
0.515
0.52
0.5
0.515
0.55
0.565
0.555
0.615
0.59
0.575
0.67
0.615
0.545
0.585
0.585
0.585
0.635
0.615
0.605
0.59
0.605
0.59
0.545
0.515
0.525
0.52
0.505
0.48
0.535
0.505
0.465
0.415
0.37
0.37
0.395
0.38
0.375
0.38
0.355
0.31
0.28
0.3
0.27
0.245
0.27
0.255
0.25
0.285
0.26
0.295
0.27
0.23
0.19
0.225
0.255
0.235
0.23
0.24
0.255
0.3
0.205
0.205
0.205
0.225
0.21
0.23
0.225
0.28
0.25
0.24
0.2
0.205
0.2
0.21
0.22
0.24
0.245
0.24
0.24
0.24
0.225
0.22
0.2
0.215
0.24
0.275
0.23
0.245
0.265
0.23
0.195
0.205
0.205
0.22
0.235
0.245
0.235
0.235
0.26
0.26
0.21
0.215
0.215
0.235
0.25
0.22
0.25
0.23
0.245
0.245
0.23
0.215
0.215
0.23
0.23
0.23
0.225
0.23
0.245
0.245
0.235
0.245
0.25
0.25
0.2
0.19
0.21
0.23
0.245
0.22
0.215
0.21
0.185
0.2
0.2
0.24
0.21
0.205
0.23
0.225
0.185
0.19
0.225
0.195
0.225
0.215
0.19
0.23
0.25
0.225
0.215
0.195
0.225
0.25
0.265
0.215
0.17
0.205
0.22
0.235
0.245
0.225
0.21
0.235
0.24
0.28
0.265
0.24
0.25
0.255
0.25
0.27
0.27
0.28
0.31
0.33
0.265
0.28
0.28
0.24
0.175
0.195
0.225
0.21
0.215
0.19
0.22
0.225
0.225
0.19
0.185
0.185
0.21
0.215
0.21
0.23
0.23
0.2
0.205
0.2
0.145
0.15
0.185
0.215
0.22
0.19
0.2
0.22
0.26
0.24
0.185
0.12
0.205
0.22
0.305
0.315
0.345
0.42
0.505
0.595
0.59
0.575
0.585
0.58
0.535
0.53
0.505
0.38
0.17
0.035
0.08
0.13
0.175
0.035
-0.085
-0.145
-0.09
0.015
0.05
0.085
0.1
0.095
0.19
0.19
0.19
0.195
0.215
0.225
0.225
0.205
0.185
0.185
0.195
0.19
0.22
0.23
0.3
0.25
0.2
0.205
0.2
0.2
0.22
0.215
0.24
0.235
0.26
0.27
0.245
0.255
0.2
0.225
0.28
0.23
0.21
0.24
0.265
0.28
0.275
0.26
0.24
0.23
0.255
0.25
0.275
0.315
0.305
0.27
0.29
0.265
0.26
0.27
0.33
0.28
0.29
0.275
0.32
0.35
0.32
0.29
0.285
0.3
0.345
0.33
0.35
0.34
0.37
0.37
0.375
0.385
0.375
0.38
0.38
0.445
0.395
0.45
0.465
0.425
0.47
0.47
0.46
0.49
0.515
0.585
0.595
0.5
0.505
0.545
0.54
0.515
0.52
0.58
0.56
0.59
0.63
0.615
0.62
0.6
0.605
0.575
0.56
0.56
0.575
0.57
0.545
0.55
0.565
0.49
0.49
0.445
0.43
0.43
0.4
0.425
0.38
0.39
0.4
0.335
0.26
0.24
0.255
0.265
0.27
0.27
0.255
0.27
0.31
0.28
0.215
0.205
0.22
0.26
0.225
0.195
0.23
0.21
0.215
0.26
0.185
0.195
0.22
0.205
0.195
0.195
0.22
0.225
0.265
0.225
0.21
0.215
0.21
0.215
0.22
0.245
0.23
0.255
0.225
0.245
0.21
0.19
0.165
0.195
0.225
0.265
0.265
0.245
0.21
0.225
0.22
0.22
0.215
0.21
0.18
0.2
0.205
0.205
0.265
0.23
0.21
0.225
0.23
0.25
0.2
0.22
0.25
0.225
0.255
0.27
0.23
0.18
0.215
0.25
0.275
0.24
0.225
0.235
0.235
0.26
0.24
0.215
0.195
0.22
0.28
0.32
0.165
0.175
0.205
0.175
0.155
0.18
0.17
0.195
0.21
0.255
0.22
0.225
0.235
0.24
0.255
0.24
0.17
0.215
0.22
0.225
0.235
0.195
0.22
0.235
0.2
0.215
0.225
0.205
0.19
0.235
0.21
0.22
0.215
0.19
0.205
0.2
0.215
0.2
0.245
0.21
0.275
0.26
0.21
0.175
0.215
0.18
0.21
0.225
0.24
0.235
0.27
0.27
0.27
0.285
0.265
0.19
0.265
0.255
0.255
0.26
0.31
0.335
0.315
0.32
0.27
0.28
0.27
0.25
0.215
0.195
0.175
0.195
0.21
0.225
0.21
0.17
0.21
0.225
0.215
0.19
0.16
0.2
0.2
0.23
0.195
0.14
0.175
0.17
0.165
0.215
0.215
0.195
0.215
0.185
0.23
0.185
0.2
0.175
0.2
0.23
0.26
0.3
0.345
0.35
0.41
0.56
0.57
0.6
0.55
0.57
0.48
0.495
0.455
0.425
0.23
0.04
0.065
0.08
0.1
0.1
-0.095
-0.13
-0.13
-0.095
-0.025
-0.035
0.02
0.095
0.15
0.16
0.15
0.165
0.22
0.16
0.18
0.17
0.185
0.21
0.21
0.235
0.195
0.235
0.225
0.2
0.185
0.2
0.22
0.165
0.225
0.215
0.225
0.26
0.225
0.23
0.17
0.215
0.25
0.185
0.22
0.25
0.225
0.205
0.225
0.195
0.225
0.255
0.26
0.265
0.25
0.3
0.255
0.24
0.21
0.22
0.24
0.215
0.255
0.225
0.27
0.305
0.32
0.315
0.26
0.275
0.275
0.295
0.315
0.325
0.33
0.32
0.365
0.365
0.3
0.32
0.345
0.375
0.34
0.34
0.395
0.395
0.435
0.42
0.39
0.465
0.445
0.425
0.46
0.44
0.46
0.49
0.54
0.565
0.5
0.51
0.53
0.52
0.58
0.59
0.585
0.595
0.595
0.635
0.585
0.54
0.56
0.585
0.545
0.535
0.55
0.5
0.58
0.535
0.53
0.49
0.47
0.49
0.485
0.405
0.375
0.36
0.405
0.38
0.32
0.305
0.305
0.32
0.27
0.3
0.295
0.265
0.275
0.29
0.31
0.195
0.17
0.205
0.24
0.295
0.2
0.18
0.22
0.225
0.23
0.17
0.205
0.175
0.16
0.21
0.23
0.17
0.195
0.245
0.225
0.16
0.215
0.19
0.17
0.17
0.155
0.2
0.235
0.215
0.2
0.195
0.205
0.185
0.21
0.205
0.2
0.195
0.235
0.17
0.19
0.18
0.19
0.19
0.18
0.19
0.205
0.215
0.265
0.23
0.185
0.195
0.195
0.24
0.2
0.17
0.175
0.165
0.175
0.175
0.16
0.165
0.175
0.21
0.215
0.185
0.16
0.2
0.245
0.24
0.18
0.16
0.18
0.22
0.16
0.165
0.155
0.175
0.18
0.155
0.2
0.185
0.175
0.19
0.225
0.215
0.19
0.135
0.17
0.15
0.16
0.135
0.15
0.145
0.185
0.165
0.19
0.18
0.19
0.165
0.18
0.2
0.225
0.195
0.165
0.165
0.21
0.18
0.175
0.165
0.16
0.13
0.17
0.215
0.16
0.165
0.16
0.21
0.19
0.21
0.19
0.18
0.175
0.21
0.205
0.165
0.15
0.18
0.175
0.21
0.16
0.125
0.16
0.18
0.185
0.175
0.185
0.21
0.19
0.175
0.185
0.165
0.235
0.195
0.21
0.275
0.235
0.18
0.235
0.205
0.185
0.2
0.21
0.195
0.17
0.2
0.195
0.285
0.245
0.23
0.28
0.245
0.26
0.215
0.26
0.235
0.25
0.255
0.215
0.175
0.18
0.185
0.155
0.18
0.205
0.2
0.18
0.205
0.2
0.185
0.175
0.18
0.185
0.205
0.2
0.145
0.165
0.2
0.24
0.175
0.165
0.18
0.18
0.145
0.18
0.245
0.19
0.16
0.165
0.205
0.25
0.32
0.385
0.42
0.555
0.555
0.545
0.54
0.545
0.475
0.455
0.49
0.465
0.265
0.085
0.045
0.085
0.145
0.08
-0.025
-0.115
-0.18
-0.115
-0.065
0.0
0.075
0.105
0.13
0.145
0.185
0.165
0.225
0.14
0.185
0.23
0.225
0.165
0.19
0.145
0.175
0.165
0.19
0.22
0.195
0.185
0.2
0.275
0.27
0.26
0.205
0.185
0.19
0.175
0.16
0.19
0.225
0.225
0.23
0.245
0.25
0.23
0.24
0.225
0.225
0.205
0.23
0.24
0.27
0.24
0.195
0.2
0.26
0.31
0.255
0.25
0.235
0.295
0.27
0.3
0.32
0.305
0.32
0.315
0.27
0.295
0.295
0.315
0.315
0.35
0.33
0.3
0.33
0.34
0.365
0.39
0.39
0.37
0.385
0.385
0.41
0.385
0.42
0.455
0.45
0.45
0.475
0.515
0.555
0.52
0.495
0.515
0.495
0.51
0.505
0.555
0.54
0.57
0.59
0.545
0.585
0.575
0.595
0.58
0.58
0.605
0.575
0.615
0.585
0.54
0.545
0.545
0.52
0.49
0.495
0.465
0.45
0.515
0.47
0.44
0.41
0.34
0.385
0.375
0.405
0.31
0.26
0.29
0.255
0.27
0.275
0.24
0.24
0.245
0.22
0.255
0.235
0.26
0.265
0.235
0.175
0.18
0.23
0.205
0.21
0.205
0.235
0.23
0.2
0.175
0.185
0.205
0.225
0.275
0.19
0.235
0.175
0.225
0.2
0.215
0.245
0.25
0.21
0.135
0.17
0.195
0.215
0.22
0.185
0.175
0.195
0.215
0.215
0.19
0.25
0.205
0.235
0.22
0.21
0.195
0.205
0.175
0.19
0.19
0.21
0.235
0.245
0.245
0.195
0.18
0.195
0.195
0.225
0.165
0.215
0.22
0.235
0.225
0.245
0.24
0.2
0.2
0.195
0.235
0.235
0.215
0.23
0.25
0.24
0.245
0.195
0.19
0.295
0.21
0.2
0.22
0.23
0.21
0.155
0.225
0.2
0.175
0.16
0.255
0.225
0.23
0.21
0.225
0.225
0.205
0.205
0.245
0.17
0.215
0.21
0.225
0.245
0.215
0.225
0.24
0.235
0.18
0.215
0.21
0.18
0.2
0.235
0.235
0.205
0.16
0.165
0.205
0.21
0.18
0.225
0.27
0.19
0.175
0.205
0.205
0.155
0.205
0.205
0.215
0.2
0.205
0.22
0.23
0.235
0.21
0.165
0.21
0.245
0.23
0.265
0.265
0.255
0.235
0.24
0.22
0.22
0.26
0.26
0.22
0.23
0.31
0.355
0.27
0.19
0.225
0.255
0.245
0.26
0.225
0.2
0.18
0.195
0.24
0.2
0.165
0.14
0.145
0.19
0.17
0.185
0.18
0.165
0.17
0.175
0.165
0.165
0.18
0.18
0.18
0.175
0.18
0.215
0.185
0.165
0.215
0.22
0.12
0.13
0.2
0.245
0.265
0.315
0.345
0.395
0.455
0.52
0.535
0.525
0.575
0.555
0.5
0.52
0.435
0.2
0.045
0.015
0.035
0.055
0.045
-0.055
-0.12
-0.135
-0.08
-0.065
-0.04
0.035
0.07
0.075
0.11
0.16
0.205
0.195
0.18
0.16
0.155
0.17
0.185
0.225
0.225
0.165
0.21
0.22
0.22
0.185
0.19
0.22
0.23
0.19
0.24
0.255
0.27
0.195
0.225
0.22
0.21
0.22
0.235
0.225
0.205
0.245
0.275
0.26
0.27
0.26
0.22
0.25
0.26
0.255
0.255
0.29
0.28
0.275
0.275
0.29
0.27
0.245
0.25
0.285
0.31
0.315
0.33
0.31
0.285
0.3
0.29
0.33
0.315
0.32
0.33
0.36
0.41
0.4
0.35
0.39
0.35
0.34
0.395
0.38
0.395
0.42
0.43
0.45
0.445
0.45
0.465
0.51
0.51
0.52
0.55
0.52
0.525
0.545
0.555
0.555
0.54
0.58
0.63
0.61
0.615
0.63
0.63
0.61
0.6
0.565
0.615
0.635
0.6
0.63
0.61
0.57
0.605
0.6
0.57
0.495
0.455
0.47
0.43
0.445
0.455
0.425
0.455
0.385
0.33
0.32
0.325
0.335
0.355
0.335
0.295
0.28
0.335
