# TIPE ECG 2021 - ECG-ID Database v1.0.0 par Physionet
# [Numéro de la personne, Période d'échantillonnage, Prénom, Age, Sexe, Date de l'enregistrement]
[19, 0.002, Mandy, 23, F, 26.04.2005]
0.115
0.06
0.04
0.01
-0.065
0.0
0.08
0.07
0.21
0.165
0.16
0.08
0.08
-0.055
-0.145
0.14
0.195
0.19
0.15
0.215
0.38
0.185
0.16
0.07
0.01
0.05
0.075
0.125
0.245
0.345
0.315
0.25
0.12
0.01
-0.025
0.09
0.21
0.18
0.35
0.34
0.25
0.25
0.115
0.135
0.1
0.13
0.24
0.29
0.25
0.465
0.33
0.15
0.1
0.125
0.2
0.07
0.235
0.385
0.335
0.315
0.355
0.28
0.2
0.165
0.045
0.08
0.17
0.22
0.325
0.38
0.265
0.24
0.165
0.005
-0.135
0.09
0.215
0.285
0.265
0.23
0.16
0.125
0.13
0.02
0.03
-0.03
0.075
0.13
0.28
0.235
0.115
0.07
-0.01
-0.205
-0.085
0.015
0.125
0.105
0.24
0.285
0.155
0.16
-0.025
0.05
0.005
0.015
0.14
0.18
0.255
0.25
0.05
0.115
-0.065
-0.085
-0.07
0.085
0.12
0.175
0.25
0.275
0.17
0.125
-0.115
-0.17
0.075
-0.075
0.035
0.23
0.275
0.16
0.09
0.065
0.03
-0.105
0.015
0.105
0.21
0.25
0.355
0.22
0.045
0.08
-0.085
-0.055
0.01
0.02
0.045
0.285
0.3
0.29
0.13
0.035
0.105
-0.075
0.025
0.085
0.055
0.285
0.18
0.16
0.075
0.125
-0.01
0.005
0.02
-0.11
0.055
0.27
0.32
0.165
0.21
0.195
-0.08
-0.075
-0.035
0.125
0.25
0.325
0.14
0.045
0.055
0.09
-0.1
-0.045
0.045
0.155
0.22
0.305
0.33
0.21
0.105
0.07
-0.025
-0.075
-0.125
0.035
0.135
0.145
0.11
0.145
0.085
0.075
-0.05
-0.03
0.1
0.12
0.03
0.175
0.29
0.185
0.125
0.02
-0.14
-0.21
-0.02
0.05
0.32
0.34
0.26
0.12
0.18
0.0
-0.05
-0.015
0.135
0.09
0.245
0.36
0.305
0.24
0.035
-0.035
-0.065
-0.035
0.12
0.215
0.245
0.21
0.29
0.16
0.19
0.1
-0.065
0.04
0.15
0.155
0.275
0.26
0.215
0.195
0.025
-0.03
-0.015
0.05
0.13
0.11
0.215
0.15
0.15
0.075
0.085
-0.05
-0.11
-0.025
0.15
0.135
0.235
0.25
0.24
0.19
0.135
0.015
-0.095
-0.06
0.1
0.14
0.325
0.22
0.155
0.235
0.105
-0.125
-0.015
0.07
0.155
0.21
0.35
0.465
0.545
0.445
0.37
0.4
0.435
0.535
0.69
0.87
1.045
0.925
0.785
0.56
0.48
0.1
0.025
-0.035
-0.03
0.205
0.24
0.155
0.07
0.06
0.065
-0.005
0.04
0.08
0.135
0.175
0.29
0.235
0.22
0.145
0.04
-0.075
-0.05
-0.045
0.06
0.14
0.25
0.255
0.175
0.115
-0.065
-0.13
-0.09
0.005
0.32
0.005
0.145
0.275
0.25
-0.005
0.045
-0.025
-0.005
0.095
0.185
0.145
0.275
0.36
0.29
0.15
0.085
-0.035
0.035
0.085
0.075
0.225
0.23
0.275
0.12
0.105
0.075
0.04
0.02
0.085
0.225
0.26
0.355
0.255
0.295
0.155
0.015
-0.025
-0.015
0.105
0.155
0.235
0.325
0.36
0.25
-0.01
0.185
0.065
-0.005
0.16
0.165
0.35
0.465
0.375
0.305
0.245
0.055
0.115
0.18
0.23
0.315
0.295
0.32
0.365
0.32
0.255
0.095
0.05
0.12
0.21
0.23
0.43
0.46
0.395
0.315
0.345
0.185
0.225
0.095
0.355
0.34
0.435
0.52
0.385
0.345
0.245
0.11
0.09
0.105
0.325
0.25
0.39
0.395
0.37
0.28
0.23
0.05
0.16
0.08
0.055
0.3
0.335
0.35
0.33
0.245
0.175
0.055
0.015
0.02
0.11
0.105
0.155
0.19
0.33
0.2
0.09
0.11
0.055
0.115
0.07
0.14
0.265
0.275
0.16
0.195
0.165
0.155
0.03
0.005
0.16
0.125
0.2
0.265
0.165
0.055
0.025
-0.055
0.04
0.09
0.18
0.195
0.385
0.355
0.235
0.09
0.15
-0.045
-0.11
0.08
0.085
0.085
0.325
0.265
0.24
0.235
0.11
-0.03
-0.065
-0.035
0.15
0.17
0.37
0.285
0.165
0.145
0.125
-0.045
0.01
0.04
0.19
0.28
0.26
0.245
0.29
0.23
0.11
0.05
-0.005
0.085
0.155
0.135
0.365
0.14
0.16
0.195
0.06
0.015
0.1
0.08
0.235
0.235
0.285
0.32
0.175
0.27
0.075
0.045
-0.075
0.23
0.28
0.3
0.335
0.15
0.09
0.12
-0.025
-0.055
-0.025
0.06
0.18
0.4
0.115
0.22
0.29
0.01
0.06
0.14
0.04
0.125
0.22
0.155
0.165
0.145
0.175
0.145
-0.03
-0.01
0.065
0.135
0.215
0.325
0.25
0.265
0.15
0.095
0.02
-0.005
0.05
0.155
0.195
0.24
0.22
0.23
0.215
0.01
-0.095
0.08
0.12
0.06
0.18
0.305
0.275
0.19
0.145
0.035
0.05
0.02
0.07
0.055
0.17
0.15
0.255
0.285
0.23
0.105
0.03
0.115
0.1
0.165
0.21
0.44
0.38
0.425
0.34
0.105
-0.065
0.0
0.07
0.135
0.19
0.31
0.385
0.215
0.16
0.175
0.095
-0.11
0.11
0.205
0.3
0.315
0.35
0.215
0.055
0.03
-0.015
0.09
0.05
0.21
0.19
0.275
0.33
0.135
0.155
0.04
0.03
0.035
0.09
0.14
0.22
0.35
0.245
0.16
0.125
-0.02
-0.025
-0.06
0.13
0.195
0.28
0.48
0.405
0.39
0.56
0.5
0.65
0.7
0.84
0.885
0.98
0.98
0.905
0.735
0.45
0.115
-0.02
-0.005
0.035
0.15
0.29
0.425
0.16
0.2
0.045
0.12
-0.1
0.1
0.085
-0.05
0.215
0.32
0.41
0.22
0.11
-0.01
0.01
-0.01
0.185
0.245
0.23
0.295
0.325
0.09
0.08
0.085
-0.01
0.025
0.02
0.02
0.3
0.38
0.265
0.11
0.16
0.125
0.055
0.0
0.075
0.12
0.365
0.2
0.325
0.09
0.17
-0.055
0.105
-0.075
-0.03
0.23
0.245
0.345
0.25
0.28
0.165
0.015
-0.015
0.07
0.165
0.23
0.315
0.4
0.26
0.195
0.13
0.075
-0.04
0.09
0.16
0.185
0.29
0.335
0.27
0.3
0.175
0.115
-0.025
0.13
0.26
0.19
0.38
0.32
0.295
0.27
0.065
0.095
0.14
0.16
0.305
0.36
0.47
0.34
0.365
0.295
0.205
0.17
0.095
0.075
0.395
0.25
0.43
0.5
0.375
0.245
0.3
0.14
0.115
0.165
0.33
0.325
0.43
0.35
0.37
0.315
0.395
0.265
0.22
0.205
0.39
0.195
0.45
0.47
0.31
0.34
0.11
0.085
0.005
0.11
0.19
0.2
0.53
0.375
0.215
0.3
0.15
-0.04
0.1
0.085
0.095
0.235
0.29
0.28
0.235
0.14
0.11
-0.04
0.0
0.06
0.22
0.22
0.275
0.23
0.15
0.12
0.055
0.03
0.105
0.205
0.085
0.16
0.205
0.13
0.075
0.12
0.01
-0.05
0.04
0.21
0.175
0.3
0.325
0.31
0.21
0.09
0.0
0.085
-0.03
0.05
0.125
0.26
0.275
0.3
0.155
0.0
-0.065
0.01
0.01
0.19
0.045
0.305
0.285
0.33
0.27
0.08
0.03
-0.04
0.105
0.06
0.185
0.305
0.295
0.235
0.12
0.12
0.075
0.035
0.05
0.185
0.225
0.18
0.295
0.215
0.12
0.17
0.025
0.02
0.005
0.145
0.2
0.2
0.335
0.33
0.225
0.01
-0.01
0.01
0.09
0.06
0.14
0.175
0.23
0.24
0.265
0.165
-0.005
0.055
0.045
0.115
0.17
0.29
0.28
0.135
0.125
-0.005
-0.01
-0.02
0.045
0.18
0.09
0.395
0.32
0.325
0.165
0.015
-0.105
-0.01
0.075
0.22
0.185
0.22
0.32
0.15
0.19
0.07
0.015
0.06
0.24
0.105
0.23
0.15
0.16
0.045
0.12
0.04
0.03
0.135
0.085
0.22
0.35
0.14
0.34
0.12
0.095
-0.055
-0.08
0.065
0.14
0.16
0.265
0.275
0.32
0.235
0.075
0.005
0.005
-0.015
0.085
0.3
0.165
0.165
0.145
0.125
0.17
0.005
0.01
-0.025
0.05
0.24
0.22
0.33
0.37
0.155
0.215
0.055
0.07
0.08
0.175
0.185
0.27
0.395
0.24
0.185
0.18
0.12
0.075
0.115
0.14
0.17
0.29
0.475
0.32
0.16
0.12
-0.08
-0.02
0.02
0.11
0.145
0.29
0.14
0.205
0.205
0.14
-0.09
-0.025
0.035
0.015
0.185
0.3
0.27
0.26
0.135
0.095
-0.02
-0.055
-0.005
0.145
-0.02
0.2
0.215
0.255
0.22
0.145
0.065
0.31
0.32
0.29
0.495
0.605
0.79
1.05
0.97
0.83
0.815
0.845
0.585
0.385
0.345
0.29
0.255
0.115
0.065
0.125
-0.035
-0.025
0.035
0.14
0.02
0.295
0.2
0.31
0.07
0.035
0.045
-0.11
-0.065
0.055
0.135
0.185
0.2
0.165
0.1
0.225
0.015
0.005
0.085
0.02
0.17
0.23
0.175
0.15
0.055
0.005
-0.1
-0.005
-0.01
0.145
0.235
0.24
0.43
0.27
0.14
0.14
0.01
-0.125
0.03
0.16
0.265
0.305
0.05
0.26
0.14
-0.035
0.01
0.075
0.115
0.205
-0.01
0.175
0.125
0.16
0.165
0.1
0.05
0.025
0.04
0.065
0.145
0.295
0.375
0.195
0.19
-0.04
0.0
0.055
0.12
0.175
0.2
0.305
0.45
0.28
0.22
0.11
0.13
0.01
0.1
0.155
0.165
0.245
0.29
0.19
0.31
0.195
0.13
0.095
0.195
0.225
0.345
0.335
0.34
0.19
0.145
0.13
0.115
0.22
0.335
0.34
0.34
0.38
0.325
0.23
0.235
0.09
0.15
0.19
0.185
0.34
0.255
0.405
0.405
0.28
0.2
0.135
0.135
0.095
0.29
0.145
0.235
0.305
0.24
0.18
0.125
0.01
-0.065
0.16
0.225
0.17
0.245
0.26
0.28
0.085
0.105
-0.08
0.0
-0.04
0.095
0.165
0.29
0.285
0.155
0.13
0.085
-0.145
0.015
0.055
0.12
0.015
0.28
0.24
0.18
0.065
-0.05
-0.01
-0.01
-0.025
0.12
0.14
0.175
0.245
0.075
0.085
0.09
-0.09
-0.14
0.045
0.17
0.22
0.22
0.2
0.155
0.175
0.03
-0.055
-0.15
0.01
0.035
0.21
0.31
0.27
0.19
0.025
0.005
0.175
0.1
0.075
0.16
0.19
0.335
0.205
0.06
0.125
-0.025
-0.04
0.03
-0.01
0.135
0.315
0.355
0.1
0.165
-0.01
0.065
-0.065
-0.005
0.08
0.13
0.21
0.3
0.25
0.145
0.085
0.035
-0.08
0.055
0.15
0.145
0.32
0.365
0.195
0.1
0.1
0.025
-0.04
0.07
0.105
0.185
0.125
0.305
0.215
0.14
0.095
-0.005
0.01
0.035
0.035
0.065
0.315
0.22
0.17
0.195
0.17
-0.055
0.02
-0.055
0.005
0.18
0.34
0.285
0.115
0.2
0.16
-0.02
-0.04
0.075
0.12
0.12
0.325
0.095
0.255
0.205
0.14
-0.065
-0.035
-0.05
-0.045
0.08
0.2
0.245
0.27
0.13
0.105
0.03
-0.05
0.025
-0.05
0.18
0.235
0.265
0.185
0.075
0.2
-0.01
-0.035
0.06
0.1
0.14
0.305
0.25
0.15
0.0
0.0
-0.025
-0.02
-0.1
0.14
0.185
0.21
0.265
0.105
0.08
0.165
0.135
0.005
-0.035
0.11
0.215
0.255
0.27
0.205
0.175
0.05
0.115
0.165
0.15
0.2
0.11
0.365
0.335
0.095
0.155
0.145
0.095
-0.025
0.08
0.28
0.325
0.275
0.29
0.15
0.145
0.045
-0.075
0.01
0.07
-0.02
0.145
0.3
0.305
0.185
0.175
-0.02
-0.05
-0.085
-0.005
0.125
0.16
0.24
0.24
0.165
0.025
-0.045
-0.08
-0.03
0.035
0.12
0.15
0.185
0.095
0.12
0.19
0.09
0.11
0.145
0.395
0.515
0.615
0.71
0.835
0.785
0.905
0.74
0.595
0.52
0.54
0.465
0.305
0.27
0.14
0.08
0.125
-0.02
-0.11
-0.08
0.125
0.105
0.085
0.115
0.11
0.095
0.08
-0.17
-0.02
0.03
0.115
0.22
0.205
0.23
0.15
0.12
0.015
-0.12
-0.02
0.0
0.025
0.12
0.25
0.23
0.135
0.07
0.04
-0.135
-0.025
-0.03
-0.015
0.145
0.185
0.175
0.235
0.02
-0.005
-0.065
-0.125
-0.08
0.21
0.165
0.25
0.255
0.18
0.15
0.075
-0.24
-0.09
0.055
0.125
0.12
0.115
0.225
0.115
0.105
0.16
0.015
-0.04
-0.06
0.05
0.11
0.3
0.29
0.135
0.115
0.065
-0.035
-0.02
0.115
0.205
0.29
0.4
0.435
0.135
0.11
0.055
-0.02
0.035
0.105
0.12
0.155
0.29
0.265
0.235
0.195
0.045
0.04
0.065
0.14
0.3
0.175
0.32
0.29
0.17
0.2
0.17
0.015
-0.075
-0.01
0.21
0.345
0.41
0.355
0.37
0.25
0.32
0.14
0.105
0.12
0.285
0.37
0.385
0.16
0.31
0.18
0.11
0.085
0.08
0.155
0.155
0.145
0.225
0.175
0.21
0.2
0.04
0.085
0.085
-0.055
0.165
0.195
0.255
0.21
0.055
0.005
-0.105
-0.01
0.03
0.045
0.135
0.195
0.165
0.09
0.1
0.095
-0.155
-0.155
0.02
-0.055
0.055
0.16
0.18
0.1
0.065
0.07
-0.225
-0.065
0.02
-0.045
0.025
0.28
0.245
0.27
0.13
0.015
-0.08
-0.14
-0.12
-0.04
0.04
0.16
0.11
0.055
0.06
0.095
-0.075
-0.115
-0.21
0.015
0.05
0.215
0.24
0.125
0.065
-0.005
-0.15
-0.15
-0.07
-0.05
0.095
0.165
0.16
0.18
-0.055
0.07
-0.035
-0.02
-0.045
0.105
0.06
0.2
0.165
0.135
0.135
0.01
0.015
-0.03
-0.15
-0.06
0.045
0.09
0.115
0.05
0.025
0.075
-0.075
-0.1
-0.015
0.05
0.06
0.2
0.13
0.02
-0.025
-0.18
-0.27
-0.18
-0.055
0.06
0.19
0.28
0.195
0.18
0.05
0.0
-0.04
-0.095
0.005
0.0
0.045
0.155
0.125
0.1
-0.005
0.06
-0.075
-0.07
-0.105
0.105
0.095
0.12
0.075
0.035
0.18
-0.075
-0.135
-0.11
-0.09
-0.06
0.105
0.18
0.185
0.02
0.0
-0.165
-0.145
-0.045
0.0
0.08
0.095
0.155
0.065
-0.005
-0.07
-0.01
-0.16
-0.27
-0.12
0.07
0.1
0.105
0.13
0.15
-0.03
-0.135
-0.08
0.0
-0.06
0.12
0.24
0.215
0.13
-0.015
-0.095
-0.19
-0.125
0.005
0.08
0.065
-0.035
-0.075
-0.015
0.035
0.04
-0.175
-0.01
-0.115
-0.12
0.13
0.06
0.15
0.17
0.1
-0.01
-0.11
0.045
0.025
0.05
0.09
0.265
0.215
0.205
0.23
0.025
-0.165
-0.11
-0.025
0.095
0.14
0.2
0.21
0.255
0.015
-0.03
-0.08
-0.095
-0.145
0.04
0.095
0.06
0.1
0.14
0.095
0.03
-0.24
-0.13
-0.075
-0.05
0.055
0.18
0.085
0.11
-0.05
0.015
-0.045
-0.145
-0.03
-0.06
0.02
0.225
0.15
0.005
0.03
0.005
-0.09
-0.065
0.085
0.21
0.245
0.685
0.63
0.44
0.45
0.665
0.755
0.785
0.795
0.72
0.645
0.495
0.38
0.145
-0.055
-0.08
-0.205
-0.135
-0.095
0.005
0.085
0.065
0.085
0.185
0.135
0.03
-0.105
-0.11
-0.155
-0.06
-0.07
0.165
0.045
-0.015
0.0
0.02
-0.135
-0.23
-0.175
0.105
0.2
0.225
0.185
0.055
-0.02
-0.105
-0.105
-0.095
0.025
0.09
0.19
0.235
0.315
0.145
-0.05
0.075
-0.075
-0.015
-0.085
-0.055
-0.055
0.185
0.165
0.075
0.145
-0.02
-0.075
-0.21
-0.005
0.095
0.055
0.275
0.25
0.025
-0.045
-0.09
-0.225
-0.05
-0.03
0.135
0.27
0.25
0.23
0.065
0.01
-0.115
-0.005
0.065
0.01
0.115
0.225
0.185
0.195
0.06
0.035
-0.04
-0.07
0.005
0.105
0.205
0.2
0.28
0.13
0.26
0.095
0.065
0.04
0.135
0.125
0.035
0.25
0.305
0.34
0.11
0.04
-0.06
0.215
0.07
0.11
0.135
0.36
0.4
0.195
0.16
0.11
-0.005
-0.02
0.11
0.17
0.29
0.255
0.365
0.31
0.195
-0.04
-0.025
0.02
-0.025
0.175
0.23
0.28
0.35
0.22
0.16
0.08
-0.09
0.005
-0.02
0.045
0.02
0.14
0.055
0.07
-0.02
-0.1
-0.195
-0.115
0.07
0.06
-0.045
0.13
0.2
0.165
-0.015
-0.05
-0.205
-0.2
-0.045
0.12
0.165
0.225
0.205
-0.08
-0.09
-0.195
-0.145
-0.175
-0.075
-0.04
-0.035
0.085
-0.03
0.0
-0.01
-0.035
-0.14
0.005
-0.03
-0.005
0.07
0.215
0.125
-0.06
-0.08
-0.21
-0.135
-0.26
-0.13
0.105
0.125
0.165
0.1
-0.025
0.03
-0.01
0.04
-0.05
-0.11
-0.12
-0.13
0.08
0.065
0.055
0.03
-0.105
-0.135
0.0
0.09
0.0
0.155
0.175
0.05
0.1
-0.07
-0.12
-0.23
-0.085
-0.14
-0.195
0.05
0.235
0.135
-0.07
-0.065
-0.195
-0.145
0.015
0.055
0.045
0.145
0.055
-0.14
-0.025
0.07
-0.215
-0.18
0.015
0.02
0.03
0.205
0.16
0.1
-0.005
-0.145
-0.19
-0.165
-0.11
0.035
0.125
0.055
0.03
0.035
-0.03
-0.1
0.175
-0.155
-0.12
-0.08
-0.055
0.2
0.025
0.08
-0.07
-0.125
-0.2
-0.215
-0.155
-0.065
-0.135
0.045
0.13
0.13
0.145
0.02
-0.195
-0.17
-0.155
-0.03
-0.055
0.135
0.13
-0.025
-0.005
-0.05
-0.245
-0.255
-0.11
-0.065
0.15
0.185
0.085
-0.02
-0.085
-0.17
-0.13
-0.195
-0.04
0.11
0.15
0.205
-0.04
-0.01
-0.16
-0.185
-0.18
-0.205
-0.14
-0.1
-0.075
0.09
0.035
0.11
0.015
-0.055
-0.13
-0.11
-0.045
-0.095
-0.025
0.075
0.02
0.035
-0.01
-0.12
-0.175
-0.04
0.005
-0.02
0.08
0.2
0.275
0.07
-0.065
-0.085
-0.025
-0.09
-0.03
-0.075
0.15
0.095
0.17
0.01
-0.02
-0.005
-0.2
-0.04
-0.07
-0.005
0.025
0.145
0.115
-0.175
-0.08
-0.155
-0.235
-0.175
-0.09
-0.12
0.085
0.14
-0.035
0.035
-0.05
-0.25
-0.18
-0.24
-0.245
-0.08
0.125
0.03
0.08
0.055
0.095
-0.205
-0.245
-0.14
-0.14
-0.005
0.095
0.09
0.115
0.155
0.065
0.05
0.135
0.245
0.415
0.58
0.935
0.835
0.725
0.635
0.495
0.175
0.035
-0.065
-0.04
-0.05
-0.065
-0.01
0.075
-0.015
-0.13
-0.28
-0.28
-0.225
-0.095
-0.06
0.015
0.145
0.09
0.02
-0.1
-0.12
-0.185
-0.165
-0.17
0.005
0.08
0.08
-0.065
-0.115
-0.06
-0.255
-0.295
-0.145
-0.085
-0.12
-0.005
0.025
-0.03
-0.125
-0.25
-0.265
-0.17
-0.205
0.065
0.07
0.13
0.125
-0.04
-0.165
-0.195
-0.33
-0.325
-0.255
-0.11
0.02
0.125
0.085
0.055
0.035
-0.23
-0.245
-0.285
-0.135
-0.065
0.07
0.14
-0.055
0.01
0.045
-0.275
-0.275
-0.24
-0.28
-0.09
-0.01
0.175
0.055
-0.06
-0.07
-0.055
-0.115
-0.065
-0.08
-0.07
0.17
0.155
0.175
-0.08
-0.01
-0.085
-0.165
-0.195
-0.13
-0.04
0.07
0.12
0.065
-0.01
0.0
-0.13
-0.125
-0.015
-0.13
0.015
0.095
0.205
0.17
0.13
-0.07
-0.12
-0.025
-0.05
-0.025
0.13
0.225
0.195
0.22
0.16
0.08
-0.17
-0.05
-0.045
0.03
0.125
0.185
0.14
0.075
0.07
0.0
-0.025
-0.265
-0.175
-0.17
-0.02
0.15
0.13
0.11
-0.16
-0.18
-0.28
-0.255
-0.195
-0.175
-0.025
0.105
0.14
0.025
-0.035
-0.185
-0.255
-0.15
-0.155
-0.105
-0.105
0.005
0.04
-0.12
-0.125
-0.08
-0.21
-0.255
-0.24
-0.185
0.0
0.0
-0.055
-0.105
-0.245
-0.065
-0.195
-0.225
-0.065
-0.015
-0.01
-0.01
0.125
0.03
-0.135
-0.19
-0.365
-0.275
-0.18
-0.135
-0.18
-0.08
0.085
-0.015
0.035
-0.205
-0.375
-0.405
-0.27
-0.28
-0.105
0.0
-0.005
-0.05
-0.14
-0.29
-0.26
-0.275
-0.145
-0.15
-0.03
0.145
-0.02
-0.105
-0.19
-0.265
-0.33
-0.19
-0.145
0.035
0.015
0.07
0.075
0.015
-0.12
-0.275
-0.365
-0.145
-0.12
-0.09
0.0
0.09
-0.03
-0.055
-0.215
-0.215
-0.25
-0.275
-0.06
-0.105
-0.08
-0.01
-0.04
-0.165
-0.195
-0.335
-0.235
-0.26
-0.265
-0.045
-0.03
0.0
0.015
-0.175
-0.235
-0.34
-0.215
-0.225
-0.28
-0.28
-0.095
-0.005
-0.095
-0.095
-0.195
-0.165
-0.125
-0.22
-0.09
-0.18
0.005
-0.09
-0.06
-0.095
-0.23
-0.26
-0.365
-0.265
-0.13
-0.06
0.025
-0.03
-0.045
-0.215
-0.145
-0.28
-0.345
-0.195
-0.14
-0.2
0.03
-0.115
-0.035
-0.125
-0.23
-0.24
-0.29
-0.18
-0.14
-0.09
-0.06
0.075
-0.115
-0.155
-0.165
-0.32
-0.415
-0.295
-0.17
-0.16
0.07
-0.015
-0.01
-0.085
-0.25
-0.46
-0.28
-0.285
-0.115
-0.085
0.085
0.025
-0.055
-0.165
-0.06
-0.25
-0.235
-0.15
-0.155
0.095
0.15
0.03
0.115
-0.1
-0.12
-0.21
-0.2
-0.225
-0.27
-0.135
0.02
0.06
-0.01
-0.21
-0.23
-0.35
-0.465
-0.305
-0.17
-0.19
-0.085
0.04
-0.11
-0.24
-0.19
-0.24
-0.305
-0.15
-0.175
-0.095
0.0
-0.12
-0.205
-0.225
-0.21
-0.375
-0.345
-0.26
-0.155
-0.1
0.035
0.1
0.0
-0.065
-0.155
-0.045
-0.055
0.345
0.37
0.66
0.815
0.735
0.645
0.45
0.32
0.115
0.025
-0.155
-0.17
-0.225
-0.145
-0.125
-0.235
-0.235
-0.235
-0.31
-0.275
-0.22
-0.2
-0.07
-0.145
-0.2
-0.08
-0.195
-0.375
-0.35
-0.21
-0.2
-0.21
-0.115
-0.115
-0.12
-0.28
-0.11
-0.35
-0.215
-0.265
-0.2
-0.175
-0.005
-0.115
-0.02
-0.03
-0.12
-0.305
-0.27
-0.13
-0.125
-0.14
-0.02
-0.015
0.01
-0.225
-0.2
-0.33
-0.24
-0.345
-0.235
-0.16
-0.03
-0.05
-0.265
-0.205
-0.265
-0.36
-0.355
-0.315
-0.155
-0.09
0.04
0.085
-0.015
-0.085
-0.11
-0.465
-0.41
-0.22
-0.19
-0.29
-0.125
-0.07
-0.1
-0.155
-0.035
-0.105
-0.17
-0.06
-0.075
-0.03
0.105
-0.065
-0.075
-0.075
-0.2
-0.345
-0.265
-0.21
-0.115
-0.035
0.07
0.065
0.025
0.005
-0.07
-0.19
-0.15
-0.18
-0.045
0.005
0.145
0.11
0.0
-0.05
-0.13
-0.1
-0.21
-0.02
-0.05
0.015
0.095
0.02
-0.035
-0.09
-0.04
-0.145
-0.09
-0.025
0.1
0.035
0.075
-0.01
-0.085
-0.02
-0.185
-0.215
-0.265
-0.155
-0.055
-0.02
-0.055
-0.025
-0.05
-0.19
-0.23
-0.27
-0.32
-0.18
-0.22
0.02
0.09
0.045
-0.01
-0.175
-0.305
-0.295
-0.28
-0.265
-0.255
-0.07
0.015
-0.08
-0.18
-0.195
-0.285
-0.25
-0.31
-0.205
-0.31
-0.065
-0.09
0.07
-0.095
-0.115
-0.38
-0.365
-0.31
-0.33
-0.335
-0.175
0.0
0.0
-0.06
-0.11
-0.215
-0.32
-0.25
-0.305
-0.125
-0.035
-0.015
-0.15
-0.23
-0.35
-0.35
-0.33
-0.23
-0.07
-0.125
0.11
-0.005
-0.035
-0.245
-0.315
-0.225
-0.285
-0.285
-0.235
-0.18
-0.08
-0.105
-0.155
-0.165
-0.185
-0.27
-0.375
-0.25
-0.27
-0.29
-0.09
0.03
-0.05
-0.17
-0.12
-0.285
-0.255
-0.3
-0.1
-0.055
0.005
0.07
-0.205
-0.105
-0.155
-0.345
-0.34
-0.31
-0.24
-0.195
-0.1
-0.02
-0.185
-0.065
-0.075
-0.31
-0.33
-0.205
-0.105
-0.23
-0.125
-0.135
-0.2
-0.255
-0.28
-0.27
-0.335
-0.375
-0.32
-0.065
-0.065
-0.07
-0.185
-0.235
-0.29
-0.245
-0.27
-0.355
-0.275
-0.09
0.015
-0.07
-0.2
-0.195
-0.34
-0.275
-0.3
-0.315
-0.195
-0.105
-0.03
-0.025
-0.2
-0.085
-0.27
-0.315
-0.39
-0.315
-0.215
-0.12
-0.005
-0.065
-0.15
-0.215
-0.305
-0.395
-0.315
-0.265
-0.305
-0.185
0.005
-0.11
-0.215
-0.2
-0.265
-0.18
-0.16
-0.125
-0.05
-0.07
0.045
-0.03
-0.12
-0.155
-0.255
-0.34
-0.225
-0.17
-0.115
0.105
-0.055
0.025
-0.185
-0.32
-0.405
-0.31
-0.345
-0.34
-0.15
0.085
0.015
-0.11
-0.235
-0.315
-0.37
-0.405
-0.47
-0.315
-0.24
-0.13
-0.065
-0.155
-0.16
-0.12
-0.25
-0.31
-0.3
-0.43
-0.165
-0.115
-0.09
-0.075
-0.095
-0.19
-0.185
-0.19
-0.04
0.165
0.215
0.385
0.495
0.555
0.54
0.44
0.2
0.335
0.175
0.095
-0.12
-0.03
-0.125
-0.18
-0.28
-0.25
-0.44
-0.335
-0.225
-0.245
-0.29
-0.195
-0.165
-0.2
-0.315
-0.295
-0.335
-0.37
-0.39
-0.21
-0.225
-0.075
-0.025
0.005
-0.305
-0.37
-0.29
-0.39
-0.33
-0.21
-0.155
0.05
-0.125
-0.185
-0.285
-0.28
-0.43
-0.48
-0.31
-0.27
-0.085
-0.065
-0.09
-0.17
-0.175
-0.235
-0.435
-0.375
-0.26
-0.23
-0.12
-0.12
-0.205
-0.065
-0.255
-0.27
-0.285
-0.355
-0.3
-0.24
-0.13
-0.075
-0.15
-0.06
-0.16
-0.35
-0.315
-0.28
-0.33
-0.255
-0.07
-0.095
-0.1
-0.15
-0.22
-0.265
-0.305
-0.27
-0.195
-0.07
-0.005
-0.035
-0.05
-0.145
-0.15
-0.29
-0.335
-0.295
-0.22
-0.09
-0.115
0.03
0.09
-0.075
-0.245
-0.27
-0.12
-0.19
-0.135
-0.135
0.17
0.175
-0.005
-0.15
-0.245
-0.295
-0.135
-0.16
-0.11
-0.08
0.095
-0.01
0.015
-0.04
-0.185
-0.305
-0.245
-0.195
-0.03
-0.075
0.115
-0.025
0.025
-0.05
-0.055
-0.26
-0.225
-0.205
-0.175
-0.065
0.015
0.02
-0.065
-0.215
-0.235
-0.345
-0.23
-0.255
-0.155
-0.21
-0.015
-0.065
-0.2
-0.11
-0.215
-0.4
-0.48
-0.205
-0.24
-0.15
-0.14
-0.14
-0.195
-0.305
-0.24
-0.405
-0.375
-0.38
-0.275
-0.19
-0.12
-0.095
-0.15
-0.175
-0.33
-0.46
-0.285
-0.195
-0.22
-0.285
-0.11
-0.075
-0.185
-0.24
-0.375
-0.49
-0.47
-0.31
-0.305
-0.25
-0.105
-0.18
-0.215
-0.245
-0.25
-0.395
-0.37
-0.345
-0.235
-0.07
-0.125
-0.075
-0.165
-0.3
-0.28
-0.46
-0.355
-0.305
-0.225
-0.06
-0.105
-0.05
-0.055
-0.28
-0.44
-0.635
-0.44
-0.255
-0.205
-0.055
-0.08
-0.095
-0.19
-0.27
-0.335
-0.445
-0.385
-0.33
-0.27
-0.18
-0.075
-0.195
-0.175
-0.22
-0.48
-0.41
-0.245
-0.405
-0.31
-0.07
-0.145
-0.195
-0.21
-0.335
-0.44
-0.355
-0.405
-0.275
-0.23
0.01
-0.1
-0.145
-0.325
-0.375
-0.465
-0.42
-0.4
-0.3
-0.2
-0.12
-0.16
-0.085
-0.175
-0.26
-0.325
-0.3
-0.32
-0.34
-0.33
-0.21
-0.12
-0.14
-0.305
-0.325
-0.435
-0.24
-0.45
-0.365
-0.235
-0.015
-0.07
-0.32
-0.23
-0.27
-0.44
-0.495
-0.395
-0.26
-0.28
-0.155
-0.125
-0.08
-0.155
-0.2
-0.46
-0.375
-0.415
-0.285
-0.275
-0.01
-0.05
-0.08
-0.17
-0.235
-0.325
-0.265
-0.345
-0.305
-0.215
-0.075
-0.15
0.03
-0.105
-0.2
-0.33
-0.35
-0.29
-0.3
-0.24
-0.08
-0.055
-0.115
-0.23
-0.28
-0.47
-0.525
-0.36
-0.385
-0.355
-0.065
-0.19
-0.15
-0.365
-0.32
-0.375
-0.395
-0.33
-0.24
-0.195
-0.17
-0.18
-0.26
-0.285
-0.29
-0.445
-0.36
-0.47
-0.36
-0.115
0.01
-0.015
-0.145
0.05
-0.045
-0.105
0.015
0.19
0.395
0.555
0.785
0.695
0.435
0.375
0.165
-0.17
-0.335
-0.42
-0.44
-0.265
-0.22
-0.24
-0.33
-0.36
-0.415
-0.46
-0.32
-0.16
-0.19
-0.175
-0.115
-0.11
-0.235
-0.34
-0.385
-0.445
-0.335
-0.255
-0.28
-0.225
-0.175
-0.175
-0.21
-0.31
-0.37
-0.45
-0.41
-0.41
-0.28
-0.225
-0.07
-0.095
-0.09
-0.275
-0.395
-0.445
-0.33
-0.34
-0.245
-0.04
-0.13
-0.125
-0.47
-0.34
-0.445
-0.465
-0.3
-0.185
-0.25
-0.105
-0.035
-0.045
-0.325
-0.315
-0.39
-0.37
-0.265
-0.26
-0.23
-0.085
-0.175
-0.205
-0.28
-0.235
-0.35
-0.38
-0.365
-0.155
-0.205
-0.06
-0.11
-0.23
-0.195
-0.2
-0.345
-0.24
-0.31
-0.2
-0.145
0.06
-0.02
-0.12
-0.275
-0.185
-0.32
-0.555
-0.28
-0.115
-0.055
-0.09
-0.035
-0.045
-0.215
-0.21
-0.295
-0.27
-0.165
-0.065
-0.1
0.015
-0.025
-0.08
-0.08
-0.16
-0.18
-0.23
-0.135
-0.155
-0.045
-0.045
0.09
-0.03
-0.075
-0.195
-0.245
-0.315
-0.165
-0.13
-0.07
-0.035
-0.085
-0.13
-0.185
-0.085
-0.315
-0.245
-0.21
-0.205
-0.18
-0.085
0.06
-0.235
-0.23
-0.385
-0.335
-0.365
-0.405
-0.2
-0.185
-0.135
-0.09
-0.12
-0.295
-0.205
-0.315
-0.375
-0.325
-0.2
-0.205
-0.185
-0.195
-0.195
-0.29
-0.295
-0.335
-0.455
-0.36
-0.225
-0.12
-0.145
-0.175
-0.17
-0.23
-0.485
-0.435
-0.225
-0.305
-0.285
-0.105
-0.095
-0.29
-0.26
-0.315
-0.455
-0.47
-0.3
-0.24
-0.14
-0.18
-0.07
-0.11
-0.285
-0.315
-0.385
-0.385
-0.315
-0.23
-0.17
-0.2
-0.185
-0.145
-0.16
-0.235
-0.23
-0.345
-0.47
-0.355
-0.215
-0.095
-0.1
-0.13
-0.225
-0.285
-0.37
-0.37
-0.27
-0.27
-0.2
-0.165
-0.065
-0.135
-0.3
-0.33
-0.42
-0.375
-0.295
-0.235
-0.12
-0.05
-0.145
-0.24
-0.26
-0.18
-0.385
-0.425
-0.39
-0.23
-0.22
-0.135
-0.065
-0.185
-0.195
-0.3
-0.48
-0.315
-0.325
-0.235
-0.145
-0.04
-0.17
-0.09
-0.16
-0.265
-0.33
-0.295
-0.32
-0.445
-0.185
-0.12
-0.14
-0.295
-0.245
-0.32
-0.345
-0.44
-0.29
-0.26
-0.11
-0.055
-0.075
-0.255
-0.175
-0.07
-0.325
-0.335
-0.265
-0.21
-0.105
0.045
0.035
-0.08
-0.19
-0.23
-0.365
-0.32
-0.11
-0.075
-0.11
-0.015
-0.04
-0.03
-0.14
-0.32
-0.36
-0.37
-0.345
-0.195
-0.135
-0.13
-0.185
-0.165
-0.14
-0.245
-0.34
-0.325
-0.27
-0.28
-0.16
-0.145
-0.145
-0.255
-0.305
-0.3
-0.41
-0.365
-0.35
-0.295
-0.085
0.03
-0.17
-0.17
-0.23
-0.355
-0.535
-0.37
-0.205
-0.035
0.1
0.26
0.23
0.275
0.275
0.225
0.42
0.455
0.54
0.535
0.49
0.545
0.19
-0.13
-0.22
-0.44
-0.43
-0.34
-0.19
-0.23
-0.175
-0.155
-0.28
-0.235
-0.16
-0.245
-0.365
-0.345
-0.26
-0.15
-0.115
-0.045
-0.13
-0.165
-0.25
-0.44
-0.355
-0.22
-0.205
-0.19
-0.03
-0.14
-0.185
-0.165
-0.325
-0.445
-0.475
-0.35
-0.255
-0.055
-0.005
-0.13
-0.125
-0.095
-0.18
-0.365
-0.36
-0.28
-0.17
-0.195
-0.085
-0.07
-0.125
-0.185
-0.18
-0.36
-0.31
-0.28
-0.225
-0.09
-0.055
-0.11
-0.12
-0.195
-0.145
-0.23
-0.25
-0.265
-0.17
-0.065
-0.105
0.045
-0.125
-0.125
-0.16
-0.235
-0.26
-0.185
-0.18
-0.04
0.065
0.005
-0.02
-0.205
-0.21
-0.155
-0.295
-0.06
-0.135
-0.165
-0.005
-0.06
0.025
-0.12
-0.215
-0.3
-0.175
-0.06
-0.115
0.025
0.07
0.125
0.035
-0.01
-0.07
-0.2
-0.125
-0.085
0.07
0.11
0.11
0.125
0.035
-0.095
-0.195
-0.075
-0.145
-0.09
0.04
0.035
0.075
0.035
0.155
0.03
-0.215
-0.22
-0.15
-0.14
-0.1
0.04
0.075
0.06
0.005
-0.195
-0.11
-0.285
-0.305
-0.17
-0.065
0.1
0.165
-0.035
-0.13
-0.175
-0.22
-0.225
-0.25
-0.265
-0.1
-0.13
-0.08
-0.06
-0.135
-0.225
-0.39
-0.235
-0.23
-0.205
-0.055
0.025
0.055
-0.12
-0.18
-0.22
-0.33
-0.32
-0.315
-0.225
-0.13
-0.065
-0.06
0.01
-0.01
-0.19
-0.37
-0.255
-0.145
-0.165
-0.19
-0.06
-0.04
-0.015
-0.225
-0.115
-0.37
-0.23
-0.31
-0.125
-0.205
0.035
-0.025
-0.03
-0.135
-0.11
-0.345
-0.32
-0.225
-0.185
-0.165
0.03
0.05
-0.08
-0.19
-0.15
-0.3
-0.325
-0.21
-0.11
-0.125
-0.06
0.005
-0.07
-0.055
-0.145
-0.325
-0.16
-0.39
-0.23
-0.06
-0.005
0.035
0.0
-0.045
-0.13
-0.235
-0.255
-0.285
-0.25
-0.19
0.06
0.065
-0.11
-0.175
-0.17
-0.315
-0.275
-0.165
-0.19
-0.045
-0.09
0.015
-0.08
-0.17
-0.23
-0.265
-0.24
-0.22
-0.235
-0.125
0.005
-0.05
-0.07
-0.1
-0.215
-0.23
-0.21
-0.315
-0.03
-0.045
0.085
-0.085
-0.11
-0.09
-0.25
-0.265
-0.235
-0.085
0.025
0.075
0.07
0.0
-0.025
-0.1
-0.195
-0.21
-0.28
-0.14
-0.035
-0.155
-0.02
-0.08
-0.21
-0.175
-0.295
-0.305
-0.305
-0.17
-0.145
-0.04
-0.01
-0.015
-0.2
-0.09
-0.225
-0.295
-0.215
-0.16
-0.17
-0.02
-0.045
-0.065
-0.23
-0.295
-0.39
-0.365
-0.37
-0.215
-0.13
-0.105
0.065
0.03
-0.075
-0.04
-0.03
-0.05
-0.075
0.195
0.27
0.505
0.63
0.625
0.65
0.435
0.275
0.11
-0.155
-0.165
-0.2
-0.035
-0.135
-0.185
-0.185
-0.29
-0.315
-0.305
-0.375
-0.26
-0.14
-0.035
-0.11
-0.16
-0.285
-0.25
-0.36
-0.33
-0.33
-0.15
-0.15
-0.03
0.075
-0.14
-0.22
-0.26
-0.375
-0.275
-0.265
-0.14
-0.18
-0.01
0.035
-0.11
-0.32
-0.28
-0.25
-0.235
-0.265
-0.205
-0.04
-0.06
-0.065
-0.07
-0.135
-0.21
-0.205
-0.34
-0.355
-0.19
-0.19
-0.055
0.075
-0.075
-0.21
-0.26
-0.285
-0.305
-0.24
-0.205
-0.01
0.025
-0.11
-0.215
-0.145
-0.24
-0.365
-0.24
-0.14
-0.145
-0.035
-0.005
0.005
-0.04
-0.12
-0.25
-0.315
-0.34
-0.365
-0.095
-0.11
0.0
0.095
-0.06
-0.04
-0.17
-0.285
-0.14
-0.09
-0.155
-0.04
0.04
0.03
0.125
-0.095
-0.21
-0.195
-0.165
-0.155
-0.015
0.085
0.07
0.035
0.0
-0.105
-0.305
-0.17
-0.16
-0.14
-0.03
0.09
0.075
0.09
0.06
-0.095
-0.24
-0.295
-0.2
-0.125
0.065
0.03
0.08
0.025
-0.055
-0.07
-0.215
-0.095
-0.13
-0.19
-0.03
0.09
-0.01
-0.04
-0.2
-0.265
-0.45
-0.45
-0.295
-0.265
-0.18
0.055
-0.025
-0.06
-0.25
-0.19
-0.31
-0.28
-0.34
-0.23
-0.185
-0.105
-0.055
-0.24
-0.09
-0.2
-0.315
-0.355
-0.41
-0.32
-0.21
-0.07
-0.075
-0.025
-0.185
-0.3
-0.4
-0.37
-0.385
-0.145
-0.17
-0.115
-0.11
-0.105
-0.13
-0.235
-0.46
-0.39
-0.325
-0.265
-0.155
-0.125
-0.065
-0.09
-0.24
-0.265
-0.42
-0.475
-0.38
-0.25
-0.29
-0.15
-0.13
-0.08
-0.145
-0.085
-0.205
-0.38
-0.33
-0.28
-0.155
-0.14
-0.075
-0.07
-0.175
-0.365
-0.295
-0.33
-0.38
-0.175
-0.14
-0.205
-0.14
-0.125
-0.19
-0.27
-0.345
-0.475
-0.29
-0.105
-0.145
-0.125
-0.155
-0.08
-0.16
-0.33
-0.355
-0.32
-0.39
-0.26
-0.215
-0.105
-0.165
-0.215
-0.29
-0.32
-0.41
-0.315
-0.225
-0.23
-0.155
-0.085
-0.1
-0.22
-0.26
-0.435
-0.43
-0.345
-0.425
-0.19
-0.185
-0.155
-0.22
-0.125
-0.185
-0.365
-0.265
-0.385
-0.345
-0.26
-0.025
-0.07
-0.115
-0.25
-0.335
-0.37
-0.435
-0.39
-0.265
-0.17
-0.115
-0.115
-0.15
-0.14
-0.275
-0.23
-0.22
-0.36
-0.175
0.015
0.005
-0.125
-0.015
-0.185
-0.245
-0.39
-0.465
-0.43
-0.25
-0.24
-0.02
-0.045
-0.155
-0.21
-0.27
-0.37
-0.485
-0.55
-0.315
-0.285
-0.035
-0.075
-0.245
-0.255
-0.26
-0.415
-0.45
-0.455
-0.305
-0.245
-0.045
-0.105
-0.165
-0.31
-0.22
-0.455
-0.39
-0.4
-0.225
-0.14
0.015
0.08
0.055
0.075
0.14
-0.04
0.085
0.265
0.56
0.49
0.58
0.505
0.295
0.265
-0.09
-0.355
-0.44
-0.38
-0.315
-0.345
-0.2
-0.17
-0.15
-0.33
-0.325
-0.505
-0.44
-0.33
-0.365
-0.27
-0.12
-0.145
-0.24
-0.17
-0.35
-0.475
-0.46
-0.365
-0.265
-0.255
-0.03
-0.02
-0.125
-0.27
-0.4
-0.525
-0.375
-0.45
-0.32
-0.265
-0.165
-0.16
-0.145
-0.195
-0.395
-0.35
-0.46
-0.41
-0.38
-0.13
-0.025
-0.235
-0.31
-0.305
-0.295
-0.32
-0.46
-0.39
-0.275
-0.21
-0.04
-0.145
-0.2
-0.275
-0.29
-0.42
-0.36
-0.38
-0.345
-0.15
-0.16
-0.165
-0.275
-0.265
-0.35
-0.415
-0.355
-0.24
-0.3
-0.155
-0.03
-0.14
-0.225
-0.295
-0.485
-0.435
-0.305
-0.33
-0.195
-0.125
-0.065
-0.17
-0.195
-0.235
-0.485
-0.35
-0.27
-0.205
-0.115
-0.085
-0.005
-0.135
-0.09
-0.21
-0.305
-0.22
-0.285
-0.225
-0.17
0.02
-0.065
-0.135
-0.165
-0.28
-0.385
-0.255
-0.195
-0.135
-0.08
0.005
-0.1
-0.105
-0.165
-0.26
-0.255
-0.28
-0.34
-0.14
-0.26
-0.085
-0.1
-0.14
-0.215
-0.245
-0.435
-0.38
-0.31
-0.3
-0.31
-0.12
-0.09
-0.22
-0.19
-0.215
-0.275
-0.39
-0.55
-0.25
-0.285
-0.225
-0.285
-0.195
-0.235
-0.285
-0.44
-0.43
-0.355
-0.285
-0.335
-0.115
-0.17
-0.215
-0.26
-0.43
-0.43
-0.445
-0.575
-0.42
-0.265
-0.24
-0.265
-0.205
-0.27
-0.35
-0.435
-0.43
-0.355
-0.295
-0.25
-0.145
-0.19
-0.275
-0.35
-0.42
-0.42
-0.48
-0.545
-0.265
-0.265
-0.27
-0.185
-0.175
-0.24
-0.44
-0.47
-0.49
-0.445
-0.275
-0.195
-0.2
-0.17
-0.23
-0.365
-0.405
-0.37
-0.4
-0.37
-0.32
-0.16
-0.13
-0.12
-0.225
-0.255
-0.43
-0.51
-0.375
-0.435
-0.38
-0.235
-0.14
-0.27
-0.28
-0.29
-0.485
-0.56
-0.425
-0.39
-0.355
-0.2
-0.24
-0.255
-0.235
-0.35
-0.42
-0.435
-0.465
-0.32
-0.32
-0.155
-0.2
-0.245
-0.235
-0.365
-0.395
-0.495
-0.495
-0.28
-0.245
-0.16
-0.255
-0.325
-0.36
-0.345
-0.505
-0.515
-0.4
-0.26
-0.29
-0.275
-0.29
-0.165
-0.365
-0.37
-0.485
-0.61
-0.425
-0.395
-0.28
-0.085
-0.14
-0.17
-0.265
-0.4
-0.55
-0.53
-0.37
-0.24
-0.145
-0.125
-0.135
-0.165
-0.285
-0.235
-0.455
-0.34
-0.47
-0.31
-0.305
-0.17
-0.19
-0.26
-0.31
-0.35
-0.515
-0.5
-0.52
-0.485
-0.405
-0.175
-0.215
-0.27
-0.485
-0.44
-0.455
-0.39
-0.395
-0.365
-0.405
-0.185
-0.125
-0.285
-0.385
-0.37
-0.535
-0.47
-0.485
-0.375
-0.385
-0.165
-0.2
-0.235
-0.24
-0.255
-0.39
-0.225
-0.11
0.025
0.095
0.23
0.345
0.465
0.48
0.49
0.07
0.065
0.07
0.02
-0.21
-0.335
-0.22
-0.39
-0.45
-0.465
-0.47
-0.39
-0.35
-0.355
-0.275
-0.235
-0.185
-0.33
-0.545
-0.5
-0.58
-0.515
-0.615
-0.385
-0.23
-0.15
-0.23
-0.215
-0.315
-0.47
-0.49
-0.435
-0.385
-0.325
-0.275
-0.3
-0.345
-0.44
-0.345
-0.51
-0.55
-0.45
-0.515
-0.43
-0.075
-0.235
-0.29
-0.405
-0.33
-0.47
-0.45
-0.38
-0.345
-0.335
-0.265
-0.26
-0.28
-0.325
-0.35
-0.57
-0.46
-0.395
-0.43
-0.315
-0.22
-0.235
-0.25
-0.34
-0.3
-0.46
-0.43
-0.435
-0.405
-0.315
-0.155
-0.15
-0.27
-0.32
-0.315
-0.4
-0.45
-0.43
-0.4
-0.265
-0.155
-0.21
-0.33
-0.385
-0.37
-0.44
-0.34
-0.295
-0.24
-0.435
-0.1
-0.175
-0.385
-0.19
-0.24
-0.415
-0.465
-0.39
-0.315
-0.23
-0.145
-0.235
-0.18
-0.16
-0.19
-0.245
-0.265
-0.27
-0.135
-0.225
-0.1
-0.16
-0.13
-0.2
-0.24
-0.42
-0.39
-0.365
-0.285
-0.18
-0.175
-0.06
-0.215
-0.175
-0.28
-0.375
-0.37
-0.52
-0.28
-0.35
-0.18
-0.16
-0.305
-0.405
-0.29
-0.47
-0.445
-0.455
-0.375
-0.315
-0.19
-0.095
-0.32
-0.48
-0.43
-0.38
-0.52
-0.395
-0.25
-0.3
-0.19
-0.27
-0.39
-0.485
-0.465
-0.565
-0.575
-0.485
-0.37
-0.29
-0.13
-0.24
-0.35
-0.435
-0.48
-0.65
-0.665
-0.39
-0.42
-0.33
-0.335
-0.165
-0.365
-0.375
-0.43
-0.475
-0.39
-0.37
-0.345
-0.245
-0.24
-0.35
-0.295
-0.365
-0.465
-0.455
-0.54
-0.415
-0.405
-0.26
-0.245
-0.155
-0.31
-0.295
-0.465
-0.515
-0.445
-0.395
-0.395
-0.215
-0.295
-0.325
-0.355
-0.44
-0.43
-0.505
-0.57
-0.55
-0.385
-0.29
-0.205
-0.29
-0.335
-0.31
-0.47
-0.49
-0.49
-0.5
-0.45
-0.215
-0.245
-0.22
-0.375
-0.415
-0.54
-0.345
-0.46
-0.405
-0.365
-0.26
-0.145
-0.27
-0.42
-0.4
-0.485
-0.51
-0.43
-0.305
-0.445
-0.245
-0.28
-0.43
-0.335
-0.375
-0.465
-0.525
-0.46
-0.345
-0.415
-0.195
-0.2
-0.26
-0.305
-0.445
-0.47
-0.4
-0.495
-0.44
-0.375
-0.365
-0.225
-0.385
-0.465
-0.285
-0.59
-0.62
-0.45
-0.43
-0.395
-0.32
-0.285
-0.26
-0.335
-0.34
-0.415
-0.465
-0.395
-0.34
-0.285
-0.19
-0.1
-0.185
-0.27
-0.335
-0.5
-0.45
-0.365
-0.215
-0.185
-0.165
-0.22
-0.185
-0.36
-0.455
-0.475
-0.545
-0.475
-0.505
-0.285
-0.235
-0.325
-0.43
-0.39
-0.515
-0.545
-0.415
-0.365
-0.46
-0.175
-0.205
-0.27
-0.315
-0.43
-0.59
-0.655
-0.515
-0.405
-0.34
-0.27
-0.265
-0.155
-0.275
-0.31
-0.465
-0.5
-0.61
-0.465
-0.26
-0.125
-0.03
-0.16
-0.085
-0.1
-0.03
-0.04
0.26
0.385
0.475
0.595
0.395
0.325
0.065
-0.155
-0.415
-0.54
-0.575
-0.53
-0.445
-0.23
-0.185
-0.24
-0.475
-0.445
-0.54
-0.485
-0.57
-0.34
-0.295
-0.18
-0.275
-0.31
-0.385
-0.48
-0.495
-0.455
-0.445
-0.5
-0.26
-0.23
-0.135
-0.22
-0.33
-0.355
-0.61
-0.5
-0.455
-0.38
-0.355
-0.275
-0.31
-0.235
-0.34
-0.385
-0.595
-0.48
-0.45
-0.41
-0.36
-0.145
-0.315
-0.24
-0.43
-0.365
-0.55
-0.515
-0.425
-0.25
-0.4
-0.275
-0.185
-0.205
-0.295
-0.46
-0.555
-0.375
-0.48
-0.375
-0.335
-0.18
-0.16
-0.145
-0.27
-0.41
-0.435
-0.45
-0.415
-0.28
-0.34
-0.195
-0.185
-0.295
-0.315
-0.305
-0.43
-0.445
-0.34
-0.35
-0.31
-0.17
-0.205
-0.195
-0.205
-0.255
-0.48
-0.385
-0.41
-0.225
-0.195
-0.05
-0.125
-0.165
-0.275
-0.365
-0.395
-0.335
-0.365
-0.27
-0.075
0.035
-0.02
-0.165
-0.315
-0.25
-0.36
-0.415
-0.205
-0.125
-0.135
-0.055
-0.05
-0.11
-0.285
-0.37
-0.295
-0.3
-0.35
-0.215
-0.06
-0.055
-0.185
-0.15
-0.33
-0.465
-0.39
-0.4
-0.34
-0.4
-0.12
-0.14
-0.235
-0.11
-0.375
-0.495
-0.375
-0.39
-0.445
-0.32
-0.215
-0.18
-0.21
-0.37
-0.26
-0.47
-0.42
-0.505
-0.53
-0.395
-0.23
-0.16
-0.27
-0.23
-0.305
-0.525
-0.44
-0.475
-0.46
-0.35
-0.18
-0.13
-0.235
-0.42
-0.37
-0.56
-0.56
-0.44
-0.47
-0.335
-0.195
-0.25
-0.305
-0.3
-0.455
-0.515
-0.35
-0.41
-0.4
-0.355
-0.17
-0.155
-0.23
-0.315
-0.455
-0.485
-0.4
-0.465
-0.31
-0.22
-0.265
-0.275
-0.27
-0.32
-0.315
-0.445
-0.47
-0.42
-0.345
-0.455
-0.28
-0.07
-0.21
-0.285
-0.35
-0.485
-0.435
-0.425
-0.425
-0.39
-0.205
-0.145
-0.21
-0.295
-0.415
-0.405
-0.46
-0.355
-0.525
-0.315
-0.205
-0.205
-0.26
-0.315
-0.31
-0.44
-0.545
-0.505
-0.455
-0.28
-0.195
-0.175
-0.41
-0.385
-0.385
-0.41
-0.355
-0.445
-0.285
-0.24
-0.16
-0.16
-0.275
-0.28
-0.47
-0.405
-0.44
-0.275
-0.33
-0.365
-0.22
-0.13
-0.44
-0.395
-0.37
-0.485
-0.39
-0.49
-0.395
-0.31
-0.21
-0.19
-0.375
-0.325
-0.46
-0.415
-0.375
-0.495
-0.34
-0.265
-0.27
-0.2
-0.205
-0.415
-0.585
-0.645
-0.455
-0.38
-0.44
-0.19
-0.22
-0.19
-0.26
-0.3
-0.405
-0.51
-0.365
-0.47
-0.335
-0.135
-0.1
-0.065
-0.16
-0.225
-0.37
-0.41
-0.44
-0.36
-0.32
-0.125
-0.215
-0.185
-0.37
-0.29
-0.53
-0.555
-0.355
-0.375
-0.335
-0.185
-0.175
-0.375
-0.28
-0.36
-0.435
-0.54
-0.55
-0.225
-0.35
-0.35
-0.255
-0.28
-0.385
-0.325
-0.46
-0.48
-0.415
-0.33
-0.305
-0.215
-0.28
-0.215
-0.395
-0.415
-0.59
-0.475
-0.29
-0.225
-0.015
0.175
0.115
0.225
0.22
0.34
0.305
0.345
0.415
0.385
0.245
0.235
0.055
-0.235
-0.455
-0.52
-0.69
-0.505
-0.38
-0.425
-0.39
-0.275
-0.13
-0.3
-0.35
-0.32
-0.495
-0.47
-0.44
-0.355
-0.32
-0.28
-0.255
-0.28
-0.375
-0.37
-0.61
-0.535
-0.45
-0.35
-0.325
-0.16
-0.305
-0.215
-0.28
-0.495
-0.515
-0.56
-0.46
-0.28
-0.25
-0.17
-0.105
-0.245
-0.38
-0.445
-0.52
-0.335
-0.48
-0.37
-0.2
-0.24
-0.2
-0.325
-0.39
-0.485
-0.435
-0.47
-0.305
-0.315
-0.225
-0.195
-0.18
-0.23
-0.365
-0.43
-0.505
-0.53
-0.34
-0.4
-0.17
-0.06
-0.215
-0.31
-0.47
-0.365
-0.475
-0.55
-0.355
-0.115
-0.135
-0.115
-0.215
-0.365
-0.27
-0.365
-0.475
-0.44
-0.425
-0.115
-0.105
-0.065
-0.125
-0.22
-0.165
-0.34
-0.43
-0.265
-0.265
-0.175
-0.13
-0.13
-0.045
-0.215
-0.14
-0.195
-0.445
-0.35
-0.305
-0.21
-0.075
-0.305
-0.16
-0.11
-0.28
-0.37
-0.225
-0.315
-0.17
-0.185
-0.11
-0.055
-0.01
-0.13
-0.165
-0.355
-0.38
-0.35
-0.21
-0.16
0.0
-0.185
-0.12
-0.18
-0.255
-0.45
-0.36
-0.37
-0.225
-0.305
-0.22
-0.13
-0.32
-0.345
-0.315
-0.47
-0.41
-0.43
-0.34
-0.4
-0.195
-0.185
-0.2
-0.33
-0.415
-0.47
-0.495
-0.5
-0.27
-0.34
-0.045
-0.07
-0.205
-0.4
-0.37
-0.425
-0.41
-0.37
-0.28
-0.375
-0.195
-0.2
-0.305
-0.31
-0.275
-0.44
-0.435
-0.35
-0.395
-0.275
-0.235
-0.16
-0.185
-0.22
-0.41
-0.42
-0.435
-0.465
-0.355
-0.205
-0.265
-0.25
-0.41
-0.28
-0.4
-0.43
-0.49
-0.34
-0.175
-0.16
-0.145
-0.145
-0.3
-0.32
-0.335
-0.42
-0.39
-0.31
-0.245
-0.335
-0.17
-0.15
-0.15
-0.305
-0.41
-0.4
-0.35
-0.33
-0.42
-0.24
-0.09
-0.36
-0.255
-0.195
-0.315
-0.51
-0.4
-0.41
-0.34
-0.2
-0.12
-0.185
-0.26
-0.325
-0.475
-0.5
-0.46
-0.395
-0.32
-0.225
-0.065
-0.185
-0.115
-0.345
-0.43
-0.51
-0.47
-0.285
-0.295
-0.115
-0.19
-0.22
-0.29
-0.325
-0.545
-0.515
-0.47
-0.3
-0.275
-0.105
-0.19
-0.25
-0.22
-0.285
-0.43
-0.485
-0.485
-0.31
-0.285
-0.155
-0.22
-0.325
-0.295
-0.365
-0.45
-0.39
-0.315
-0.41
-0.22
-0.08
-0.055
-0.245
-0.375
-0.32
-0.545
-0.46
-0.39
-0.39
-0.25
-0.165
-0.225
-0.25
-0.275
-0.39
-0.505
-0.42
-0.355
-0.225
-0.325
-0.155
-0.105
-0.22
-0.225
-0.31
-0.495
-0.35
-0.42
-0.24
-0.165
-0.09
-0.16
-0.115
-0.26
-0.3
-0.315
-0.375
-0.24
-0.19
-0.11
-0.07
-0.16
-0.225
-0.31
-0.345
-0.425
-0.475
-0.43
-0.31
-0.27
-0.2
-0.025
-0.285
-0.255
-0.285
-0.4
-0.465
-0.41
-0.365
-0.16
-0.145
-0.19
-0.185
-0.29
-0.375
-0.38
-0.49
-0.445
-0.445
-0.315
-0.285
-0.145
-0.33
-0.39
-0.245
-0.3
-0.25
-0.17
-0.05
0.1
0.325
0.3
0.365
0.3
0.345
0.3
0.365
0.41
0.355
0.23
0.18
-0.045
-0.27
-0.375
-0.46
-0.42
-0.42
-0.315
-0.31
-0.15
-0.155
-0.225
-0.33
-0.3
-0.31
-0.43
-0.345
-0.31
-0.21
-0.215
-0.155
-0.135
-0.22
-0.295
-0.465
-0.39
-0.34
-0.265
-0.195
-0.085
-0.005
-0.21
-0.21
-0.325
-0.445
-0.575
-0.405
-0.29
-0.195
-0.255
-0.08
-0.15
-0.225
-0.215
-0.315
-0.43
-0.46
-0.385
-0.31
-0.2
-0.12
-0.115
-0.21
-0.175
-0.32
-0.4
-0.21
-0.19
-0.24
-0.21
-0.08
-0.1
-0.155
-0.185
-0.39
-0.33
-0.315
-0.2
-0.2
-0.09
-0.02
-0.175
-0.115
-0.195
-0.315
-0.27
-0.285
-0.35
-0.3
-0.02
-0.04
-0.08
-0.195
-0.215
-0.32
-0.35
-0.205
-0.105
-0.12
-0.03
-0.07
-0.125
-0.125
-0.12
-0.43
-0.33
-0.26
-0.08
0.01
0.08
0.075
-0.025
-0.18
-0.195
-0.21
-0.19
-0.06
-0.035
-0.02
0.17
0.08
-0.03
-0.065
-0.135
-0.26
-0.3
-0.275
-0.115
0.06
0.23
0.035
-0.055
-0.01
-0.24
-0.27
-0.225
-0.19
-0.065
-0.04
0.105
-0.055
-0.02
-0.21
-0.175
-0.24
-0.27
-0.145
-0.165
-0.1
-0.12
-0.04
-0.13
-0.19
-0.38
-0.34
-0.325
-0.24
-0.22
-0.235
0.045
-0.12
-0.12
-0.17
-0.275
-0.29
-0.355
-0.37
-0.22
-0.16
-0.14
-0.065
-0.175
-0.065
-0.225
-0.36
-0.41
-0.175
-0.205
-0.155
-0.1
0.065
-0.125
-0.21
-0.315
-0.41
-0.45
-0.305
-0.25
-0.075
-0.135
-0.14
-0.15
-0.205
-0.4
-0.28
-0.225
-0.18
-0.18
-0.06
-0.15
-0.07
-0.215
-0.245
-0.27
-0.325
-0.275
-0.25
-0.17
-0.035
-0.07
-0.065
-0.065
-0.145
-0.385
-0.29
-0.315
-0.12
-0.075
-0.135
-0.11
-0.08
-0.33
-0.185
-0.24
-0.315
-0.3
-0.235
-0.075
0.0
-0.13
-0.075
-0.15
-0.195
-0.34
-0.295
-0.33
-0.335
-0.185
0.125
-0.04
-0.245
-0.14
-0.1
-0.305
-0.31
-0.28
-0.16
-0.1
-0.045
-0.05
-0.065
-0.365
-0.28
-0.355
-0.305
-0.33
-0.265
-0.315
-0.155
-0.005
-0.12
-0.125
-0.255
-0.38
-0.37
-0.315
-0.26
-0.215
-0.095
0.01
-0.12
-0.23
-0.17
-0.205
-0.315
-0.335
-0.18
-0.105
-0.09
-0.075
-0.105
-0.19
-0.205
-0.32
-0.3
-0.14
-0.205
-0.265
-0.015
-0.005
-0.075
-0.12
-0.335
-0.39
-0.37
-0.36
-0.205
-0.085
-0.03
-0.14
-0.085
-0.15
-0.2
-0.295
-0.29
-0.22
-0.14
-0.015
0.01
-0.025
-0.125
-0.155
-0.17
-0.18
-0.21
-0.145
-0.09
-0.085
-0.18
-0.17
-0.17
-0.145
-0.35
-0.34
-0.225
-0.22
-0.105
0.01
0.01
-0.095
-0.165
-0.21
-0.345
-0.385
-0.345
-0.29
-0.14
0.005
0.03
-0.125
-0.11
-0.23
-0.435
-0.38
-0.22
-0.19
-0.13
-0.07
-0.05
-0.125
-0.175
-0.265
-0.42
-0.14
-0.205
-0.035
0.075
0.265
0.285
0.415
0.445
0.395
0.48
0.365
0.485
0.405
0.355
0.345
0.09
-0.105
-0.255
-0.35
-0.47
-0.575
-0.35
-0.215
-0.155
-0.09
-0.025
-0.045
-0.225
-0.245
-0.27
-0.37
-0.25
-0.125
-0.15
-0.045
-0.025
-0.16
-0.17
-0.23
-0.295
-0.33
-0.28
-0.11
-0.11
-0.01
-0.085
-0.135
-0.23
-0.175
-0.305
-0.355
-0.225
-0.08
-0.215
-0.09
0.02
-0.01
-0.26
-0.225
-0.39
-0.415
-0.21
-0.02
-0.07
0.0
-0.035
-0.145
-0.075
-0.185
-0.36
-0.445
-0.345
-0.16
-0.025
0.09
-0.03
-0.04
-0.215
-0.17
-0.255
-0.32
-0.175
-0.14
0.005
0.065
0.015
-0.06
-0.025
-0.215
-0.405
-0.31
-0.185
-0.145
-0.12
0.0
0.055
-0.055
-0.13
-0.18
-0.28
-0.245
-0.175
-0.125
-0.03
0.04
0.01
0.0
-0.11
-0.125
-0.13
-0.235
-0.135
-0.03
0.06
0.145
0.135
0.045
-0.025
-0.185
-0.095
-0.03
-0.135
0.09
0.16
0.19
0.115
0.04
-0.045
-0.185
-0.195
-0.205
-0.065
-0.005
0.07
0.175
-0.01
-0.025
-0.11
-0.315
-0.165
-0.055
-0.015
0.01
0.09
-0.11
-0.055
-0.07
-0.1
-0.275
-0.25
-0.205
-0.275
-0.12
0.06
0.045
0.08
-0.04
-0.11
-0.215
-0.295
-0.29
-0.11
-0.055
-0.055
0.01
-0.045
-0.155
-0.13
-0.39
-0.36
-0.38
-0.08
-0.175
-0.06
0.005
-0.09
-0.095
-0.22
-0.27
-0.415
-0.345
-0.23
-0.11
-0.015
-0.08
-0.055
-0.235
-0.27
-0.375
-0.285
-0.23
-0.18
-0.135
0.005
0.03
-0.225
-0.275
-0.195
-0.285
-0.43
-0.2
-0.19
-0.145
0.105
-0.005
-0.115
-0.22
-0.17
-0.31
-0.305
-0.305
-0.14
-0.22
0.02
0.035
-0.06
-0.24
-0.2
-0.4
-0.19
-0.345
-0.275
-0.1
0.055
0.075
-0.11
-0.065
-0.225
-0.27
-0.25
-0.26
-0.33
0.0
-0.055
-0.065
-0.14
-0.185
-0.265
-0.27
-0.325
-0.225
-0.18
-0.045
0.06
0.0
-0.115
-0.205
-0.155
-0.4
-0.265
-0.3
-0.13
-0.095
-0.09
-0.105
-0.185
-0.09
-0.24
-0.285
-0.34
-0.29
-0.16
-0.01
0.05
0.0
-0.125
-0.22
-0.215
-0.34
-0.4
-0.355
-0.115
-0.1
-0.035
-0.135
-0.125
-0.245
-0.255
-0.42
-0.33
-0.155
-0.145
-0.055
0.055
-0.14
-0.06
-0.245
-0.34
-0.32
-0.24
-0.245
-0.115
0.035
-0.11
-0.075
-0.1
-0.18
-0.325
-0.33
-0.415
-0.3
-0.115
-0.035
-0.005
-0.1
-0.15
-0.175
-0.3
-0.17
-0.24
-0.32
-0.225
-0.12
-0.035
-0.065
-0.125
-0.15
-0.305
-0.34
-0.27
-0.22
-0.055
0.02
0.045
-0.04
-0.025
-0.15
-0.315
-0.165
-0.185
-0.135
0.05
0.015
-0.01
-0.035
-0.22
-0.185
-0.375
-0.32
-0.28
-0.18
-0.27
-0.09
-0.015
-0.07
-0.215
-0.18
-0.41
-0.355
-0.285
-0.19
-0.125
-0.045
-0.02
-0.13
-0.155
-0.28
-0.32
-0.28
-0.24
-0.105
-0.13
-0.155
-0.285
-0.03
-0.215
-0.135
-0.275
-0.205
0.005
0.085
0.13
0.23
0.32
0.37
0.355
0.375
0.45
0.39
0.4
0.33
0.16
0.33
0.285
0.01
-0.135
-0.29
-0.31
-0.35
-0.245
-0.21
-0.13
-0.06
-0.12
-0.18
-0.27
-0.28
-0.27
-0.31
-0.195
-0.175
-0.165
-0.095
-0.105
-0.11
-0.125
-0.32
-0.29
-0.36
-0.255
-0.195
-0.135
-0.05
-0.19
-0.185
-0.3
-0.39
-0.335
-0.325
-0.275
-0.23
-0.2
-0.05
-0.05
-0.15
-0.055
-0.15
-0.22
-0.255
-0.225
-0.14
-0.17
-0.12
-0.1
-0.14
-0.23
-0.34
-0.335
-0.18
-0.13
-0.1
-0.01
0.0
-0.03
-0.11
-0.245
-0.46
-0.29
-0.275
-0.15
-0.125
-0.06
-0.06
-0.025
-0.175
-0.155
-0.31
-0.29
-0.195
-0.125
-0.12
-0.01
-0.06
-0.08
-0.06
-0.23
-0.24
-0.315
-0.265
-0.195
-0.01
0.085
0.09
-0.085
-0.125
-0.085
-0.195
-0.19
-0.165
-0.055
-0.035
0.13
0.02
0.0
-0.02
-0.05
-0.175
-0.205
-0.135
-0.04
-0.07
0.06
0.035
0.045
-0.045
-0.06
-0.16
-0.245
-0.025
-0.05
0.095
0.045
-0.005
0.105
0.045
-0.145
-0.31
-0.205
-0.21
-0.135
-0.075
0.0
0.055
0.03
-0.07
-0.1
-0.175
-0.34
-0.17
-0.07
-0.06
0.045
0.05
-0.055
-0.195
-0.245
-0.33
-0.34
-0.335
-0.34
-0.105
-0.115
-0.01
-0.095
-0.115
-0.28
-0.35
-0.37
-0.295
-0.22
-0.12
-0.04
-0.08
-0.05
-0.385
-0.4
-0.405
-0.345
-0.225
-0.135
-0.175
0.045
0.035
-0.155
-0.22
-0.335
-0.425
-0.37
-0.295
-0.185
-0.085
-0.02
-0.14
-0.145
-0.19
-0.265
-0.375
-0.3
-0.26
-0.18
-0.23
-0.075
-0.055
-0.145
-0.26
-0.325
-0.37
-0.26
-0.175
-0.075
-0.07
-0.16
-0.185
-0.1
-0.295
-0.32
-0.305
-0.245
-0.145
-0.125
-0.05
-0.06
-0.07
-0.21
-0.155
-0.22
-0.265
-0.335
-0.19
-0.225
-0.12
-0.04
-0.135
-0.16
-0.18
-0.295
-0.25
-0.18
-0.2
-0.22
-0.015
-0.03
-0.025
-0.185
-0.315
-0.365
-0.41
-0.26
-0.13
-0.055
-0.03
-0.035
-0.15
-0.25
-0.25
-0.32
-0.345
-0.27
-0.12
-0.175
-0.14
-0.07
-0.14
-0.095
-0.25
-0.37
-0.3
-0.28
-0.305
-0.215
0.02
0.045
-0.05
-0.17
-0.155
-0.32
-0.225
-0.255
-0.21
-0.13
-0.05
-0.055
-0.04
-0.18
-0.175
-0.515
-0.33
-0.295
-0.295
-0.125
-0.02
0.005
-0.225
-0.35
-0.305
-0.355
-0.4
-0.28
-0.25
-0.055
-0.065
0.055
-0.235
-0.225
-0.295
-0.385
-0.31
-0.255
-0.1
-0.04
-0.085
-0.04
-0.09
-0.255
-0.12
-0.265
-0.28
-0.275
-0.305
-0.09
-0.065
-0.12
-0.265
-0.155
-0.215
-0.28
-0.335
-0.29
-0.17
-0.12
0.005
0.11
-0.095
-0.24
-0.355
-0.385
-0.335
-0.265
-0.205
-0.12
0.02
0.055
-0.185
-0.15
-0.215
-0.27
-0.18
-0.275
-0.16
-0.185
-0.175
-0.185
-0.145
-0.095
-0.25
-0.4
-0.3
-0.205
-0.2
-0.125
-0.15
-0.2
-0.13
-0.235
-0.365
-0.295
-0.415
-0.355
-0.175
-0.13
-0.1
-0.14
-0.19
-0.01
-0.32
-0.28
-0.265
-0.025
0.09
0.3
0.44
0.62
0.635
0.605
0.415
0.345
0.37
0.315
-0.055
-0.065
-0.02
-0.155
-0.285
-0.31
-0.38
-0.31
-0.215
-0.35
-0.175
-0.09
0.02
-0.11
-0.18
-0.25
-0.31
-0.39
-0.37
-0.18
-0.24
-0.125
-0.22
-0.08
-0.135
-0.19
-0.325
-0.415
-0.34
-0.195
-0.215
-0.08
-0.05
-0.285
-0.245
-0.215
-0.28
-0.315
-0.395
-0.285
-0.255
-0.135
-0.17
-0.105
-0.17
-0.245
-0.39
-0.18
-0.245
-0.24
-0.14
-0.065
-0.105
-0.12
-0.18
-0.215
-0.34
-0.365
-0.285
-0.17
-0.16
-0.045
-0.03
-0.125
-0.2
-0.31
-0.275
-0.34
-0.3
-0.165
-0.095
-0.095
-0.05
-0.03
-0.155
-0.355
-0.18
-0.22
-0.155
-0.14
-0.055
0.02
0.01
-0.02
-0.1
-0.345
-0.33
-0.33
-0.29
-0.055
-0.085
0.135
-0.1
-0.1
-0.115
-0.14
-0.24
-0.22
-0.14
-0.075
-0.03
0.025
0.025
-0.005
-0.21
-0.115
-0.16
-0.155
-0.18
-0.115
-0.035
0.09
0.08
0.07
0.06
-0.155
-0.01
-0.09
-0.155
-0.095
0.1
-0.015
0.03
0.1
-0.06
-0.225
-0.19
-0.125
-0.15
-0.065
-0.08
0.0
-0.045
-0.1
-0.11
-0.19
-0.255
-0.3
-0.23
-0.12
-0.15
-0.08
-0.14
-0.03
-0.215
-0.325
-0.45
-0.455
-0.1
-0.25
-0.08
-0.115
-0.07
-0.07
-0.19
-0.31
-0.325
-0.35
-0.235
-0.19
-0.22
-0.105
-0.095
-0.165
-0.26
-0.345
-0.35
-0.2
-0.22
-0.095
-0.065
-0.055
-0.125
-0.29
-0.27
-0.41
-0.49
-0.31
-0.21
-0.155
-0.185
-0.225
-0.11
-0.315
-0.18
-0.32
-0.405
-0.265
-0.18
-0.065
-0.13
-0.085
-0.145
-0.255
-0.3
-0.38
-0.365
-0.285
-0.205
-0.135
-0.045
0.0
-0.045
-0.26
-0.34
-0.335
-0.43
-0.46
-0.225
-0.145
-0.03
-0.155
-0.085
-0.145
-0.335
-0.39
-0.315
-0.265
-0.32
-0.105
-0.125
-0.085
-0.22
-0.28
-0.28
-0.27
-0.425
-0.305
-0.2
-0.15
0.05
-0.08
-0.19
-0.145
-0.245
-0.43
-0.425
-0.295
-0.02
-0.125
-0.085
-0.01
-0.15
-0.31
-0.435
-0.41
-0.28
-0.345
-0.25
-0.195
-0.125
-0.085
-0.18
-0.17
-0.33
-0.25
-0.36
-0.29
-0.165
-0.255
-0.16
-0.005
-0.245
-0.185
-0.26
-0.285
-0.315
-0.33
-0.35
-0.25
-0.185
-0.155
-0.165
-0.205
-0.38
-0.35
-0.28
-0.21
-0.265
0.0
0.045
-0.19
-0.31
-0.26
-0.42
-0.395
-0.405
-0.28
-0.31
-0.155
0.02
-0.09
-0.155
-0.16
-0.355
-0.39
-0.34
-0.33
-0.125
-0.095
-0.185
-0.16
-0.095
-0.21
-0.32
-0.405
-0.235
-0.24
-0.25
-0.03
-0.23
-0.15
-0.28
-0.2
-0.43
-0.425
-0.325
-0.12
-0.12
0.03
-0.01
-0.05
-0.07
-0.13
-0.465
-0.33
-0.425
-0.145
-0.23
0.005
0.05
-0.08
-0.16
-0.21
-0.31
-0.28
-0.215
-0.305
-0.26
-0.115
-0.105
-0.23
-0.225
-0.23
-0.385
-0.395
-0.395
-0.185
-0.24
-0.01
-0.125
-0.165
-0.19
-0.405
-0.41
-0.31
-0.225
-0.22
-0.185
-0.055
-0.115
-0.22
-0.345
-0.365
-0.45
-0.34
-0.38
-0.22
0.105
0.13
0.125
0.12
0.11
0.205
0.265
0.34
0.47
0.715
0.565
0.6
0.4
0.22
-0.105
-0.42
-0.375
-0.4
-0.415
-0.25
-0.13
-0.13
-0.13
-0.175
-0.17
-0.28
-0.37
-0.305
-0.3
-0.26
-0.275
-0.24
-0.185
-0.125
-0.215
-0.255
-0.245
-0.26
-0.25
-0.215
-0.245
-0.17
-0.125
-0.27
-0.29
-0.41
-0.325
-0.405
-0.29
-0.2
-0.07
-0.005
-0.135
-0.07
-0.25
-0.425
-0.235
-0.28
-0.295
-0.225
-0.06
0.015
-0.23
-0.24
-0.195
-0.3
-0.41
-0.27
-0.345
-0.21
-0.08
-0.085
-0.16
-0.165
-0.04
-0.325
-0.29
-0.35
-0.24
-0.145
-0.105
0.025
-0.075
-0.175
-0.22
-0.4
-0.445
-0.42
-0.175
-0.145
-0.08
0.08
-0.075
-0.095
-0.085
-0.285
-0.235
-0.265
-0.22
-0.12
-0.125
0.135
-0.055
0.03
-0.155
-0.33
-0.365
-0.18
-0.115
-0.085
-0.065
0.085
-0.01
-0.19
-0.185
-0.265
-0.215
-0.195
-0.04
0.035
0.08
0.18
0.06
0.045
-0.1
-0.28
-0.34
-0.255
-0.04
0.005
0.04
0.12
-0.02
-0.095
-0.095
-0.115
-0.12
-0.21
-0.125
-0.175
0.08
0.075
-0.05
-0.175
-0.14
-0.22
-0.38
-0.125
-0.11
-0.08
0.07
-0.03
-0.12
-0.27
-0.235
-0.29
-0.18
-0.315
-0.15
-0.085
-0.095
-0.12
-0.145
-0.22
-0.305
-0.39
-0.295
-0.21
-0.1
-0.225
-0.145
-0.055
-0.195
-0.22
-0.41
-0.385
-0.265
-0.345
-0.2
-0.145
-0.175
-0.245
-0.07
-0.325
-0.225
-0.18
-0.405
-0.15
-0.24
-0.12
-0.12
-0.2
-0.145
-0.225
-0.295
-0.285
-0.435
-0.31
-0.265
-0.195
-0.015
-0.125
-0.285
-0.31
-0.335
-0.365
-0.365
-0.23
-0.13
-0.02
0.03
-0.23
-0.22
-0.265
-0.36
-0.375
-0.305
-0.285
-0.19
-0.15
0.065
-0.08
-0.195
-0.23
-0.35
-0.46
-0.35
-0.13
-0.155
-0.09
-0.095
0.0
-0.12
-0.26
-0.45
-0.34
-0.315
-0.295
-0.2
-0.14
-0.23
-0.185
-0.205
-0.26
-0.42
-0.335
-0.3
-0.155
-0.22
-0.095
-0.155
-0.135
-0.21
-0.275
-0.355
-0.35
-0.29
-0.275
-0.16
-0.1
-0.075
-0.175
-0.24
-0.21
-0.375
-0.45
-0.325
-0.25
-0.215
-0.27
-0.075
-0.095
-0.185
-0.155
-0.16
-0.4
-0.295
-0.21
-0.25
-0.15
-0.12
-0.27
-0.255
-0.31
-0.43
-0.435
-0.435
-0.255
-0.24
-0.075
0.02
-0.185
-0.325
-0.23
-0.41
-0.41
-0.36
-0.195
-0.18
-0.14
-0.085
0.04
-0.23
-0.3
-0.46
-0.46
-0.335
-0.25
-0.155
-0.055
0.0
-0.13
-0.225
-0.235
-0.435
-0.41
-0.34
-0.315
-0.16
-0.115
-0.04
-0.14
-0.09
-0.225
-0.28
-0.375
-0.37
-0.2
-0.055
0.02
-0.045
-0.235
-0.195
-0.285
-0.375
-0.345
-0.26
-0.145
-0.13
-0.01
-0.03
-0.135
-0.145
-0.4
-0.435
-0.405
-0.405
-0.205
-0.26
-0.15
-0.075
-0.16
-0.265
-0.355
-0.525
-0.37
-0.33
-0.145
-0.24
-0.065
-0.11
-0.185
-0.225
-0.33
-0.415
-0.505
-0.33
-0.23
0.0
0.11
0.235
0.0
0.025
0.11
0.09
0.17
0.41
0.495
0.655
0.48
0.41
0.275
0.015
-0.315
-0.39
-0.4
-0.435
-0.305
-0.08
-0.075
-0.1
-0.16
-0.325
-0.405
-0.415
-0.36
-0.25
-0.275
0.02
-0.105
-0.075
-0.295
-0.23
-0.445
-0.48
-0.4
-0.24
-0.305
-0.07
-0.14
-0.165
-0.195
-0.27
-0.35
-0.375
-0.335
-0.335
-0.095
-0.07
-0.075
-0.18
-0.135
-0.23
-0.39
-0.385
-0.355
-0.165
-0.13
-0.06
-0.19
-0.185
-0.365
-0.255
-0.37
-0.31
-0.145
-0.155
-0.185
0.0
0.08
-0.235
-0.28
-0.315
-0.355
-0.43
-0.245
-0.15
-0.22
-0.015
-0.225
-0.09
-0.27
-0.32
-0.45
-0.305
-0.26
-0.215
-0.11
-0.13
-0.035
-0.135
-0.205
-0.18
-0.265
-0.175
-0.215
-0.17
-0.065
-0.04
-0.05
-0.155
-0.13
-0.195
-0.2
-0.335
-0.21
-0.105
-0.03
0.075
-0.01
-0.11
-0.035
-0.24
-0.205
-0.175
-0.22
-0.12
0.045
0.025
0.01
0.04
-0.06
-0.165
-0.09
-0.2
-0.105
-0.045
0.085
0.095
0.045
0.035
-0.085
-0.18
-0.24
-0.27
-0.16
-0.21
-0.045
-0.1
0.03
0.055
-0.075
-0.23
-0.265
-0.095
-0.16
-0.195
0.02
0.05
-0.145
-0.185
-0.095
-0.34
-0.405
-0.255
-0.29
-0.21
0.045
-0.085
-0.12
-0.095
-0.4
-0.17
-0.41
-0.345
-0.235
-0.195
-0.09
0.075
0.0
-0.35
-0.23
-0.455
-0.445
-0.375
-0.31
-0.27
-0.11
-0.3
-0.105
-0.255
-0.24
-0.425
-0.41
-0.33
-0.23
-0.115
-0.15
-0.075
-0.105
-0.11
-0.225
-0.21
-0.385
-0.22
-0.165
-0.285
-0.18
-0.15
-0.07
-0.34
-0.225
-0.38
-0.295
-0.355
-0.29
-0.21
-0.1
0.0
-0.155
-0.115
-0.25
-0.39
-0.355
-0.29
-0.225
-0.19
-0.05
-0.06
-0.09
-0.205
-0.215
-0.35
-0.39
-0.405
-0.315
-0.2
0.04
-0.135
-0.1
-0.15
-0.15
-0.405
-0.435
-0.37
-0.165
-0.14
-0.1
-0.01
-0.175
-0.18
-0.295
-0.305
-0.34
-0.195
-0.25
-0.22
0.025
-0.015
-0.13
-0.165
-0.315
-0.385
-0.43
-0.4
-0.195
-0.255
-0.105
-0.085
-0.13
-0.185
-0.26
-0.385
-0.38
-0.215
-0.2
-0.11
0.0
-0.25
-0.29
-0.33
-0.275
-0.335
-0.37
-0.235
-0.24
-0.12
-0.075
-0.035
-0.205
-0.26
-0.355
-0.39
-0.29
-0.265
-0.245
-0.125
-0.105
-0.15
-0.22
-0.305
-0.29
-0.41
-0.36
-0.29
-0.285
-0.015
-0.12
-0.09
-0.215
-0.215
-0.345
-0.275
-0.21
-0.11
-0.155
-0.05
-0.07
-0.07
-0.035
-0.09
-0.335
-0.31
-0.21
-0.07
-0.185
0.03
-0.13
-0.21
-0.28
-0.175
-0.425
-0.385
-0.285
-0.215
-0.21
-0.145
-0.08
-0.045
-0.31
-0.215
-0.44
-0.36
-0.43
-0.345
-0.205
-0.04
-0.06
-0.205
-0.255
-0.25
-0.43
-0.335
-0.29
-0.215
-0.2
-0.035
-0.125
-0.28
-0.285
-0.3
-0.47
-0.415
-0.15
0.0
-0.01
0.23
0.3
0.255
0.21
0.225
0.195
0.195
0.42
0.575
0.345
0.58
0.485
0.295
-0.02
-0.225
-0.42
-0.505
-0.395
-0.285
-0.295
-0.06
-0.265
-0.21
-0.19
-0.23
-0.355
-0.36
-0.27
-0.2
-0.195
-0.09
-0.09
-0.185
-0.23
-0.31
-0.35
-0.395
-0.28
-0.23
-0.23
-0.115
-0.105
-0.22
-0.2
-0.175
-0.37
-0.395
-0.345
-0.185
-0.18
-0.16
0.035
-0.115
-0.3
-0.225
-0.345
-0.485
-0.35
-0.205
-0.225
-0.12
0.035
-0.115
-0.2
-0.265
-0.41
-0.415
-0.315
-0.29
-0.135
-0.015
-0.045
-0.16
-0.31
-0.335
-0.415
-0.415
-0.285
-0.27
-0.09
-0.015
0.1
-0.105
-0.275
-0.205
-0.4
-0.34
-0.305
-0.145
-0.105
0.0
0.04
-0.165
-0.245
-0.23
-0.225
-0.25
-0.195
-0.14
-0.045
-0.05
0.005
-0.095
-0.11
-0.195
-0.205
-0.255
-0.245
-0.125
-0.06
-0.035
-0.08
-0.14
-0.25
-0.315
-0.295
-0.16
0.0
-0.005
-0.01
0.045
0.1
0.005
-0.05
-0.195
-0.13
-0.16
-0.07
-0.015
-0.075
0.09
-0.02
-0.075
0.035
-0.1
-0.19
-0.26
-0.1
-0.01
0.005
-0.04
-0.075
-0.145
-0.19
-0.3
-0.365
-0.255
-0.175
-0.045
-0.01
-0.045
-0.08
-0.26
-0.25
-0.38
-0.37
-0.39
-0.32
-0.215
0.055
0.005
-0.185
-0.225
-0.325
-0.315
-0.345
-0.325
-0.26
-0.2
-0.23
0.065
0.03
-0.225
-0.385
-0.48
-0.35
-0.315
-0.23
-0.085
-0.04
-0.145
-0.185
-0.28
-0.23
-0.34
-0.51
-0.35
-0.285
-0.19
-0.205
-0.195
-0.27
-0.195
-0.26
-0.24
-0.365
-0.26
-0.24
-0.13
-0.17
-0.11
-0.24
-0.315
-0.35
-0.305
-0.395
-0.255
-0.21
-0.13
-0.005
-0.07
-0.13
-0.275
-0.265
-0.36
-0.38
-0.42
-0.325
-0.12
-0.035
-0.06
-0.13
-0.16
-0.26
-0.445
-0.485
-0.405
-0.205
-0.215
-0.09
-0.035
-0.2
-0.09
-0.3
-0.28
-0.3
-0.21
-0.24
-0.15
-0.11
-0.025
-0.25
-0.315
-0.475
-0.445
-0.415
-0.43
-0.275
-0.01
-0.12
-0.14
-0.13
-0.08
-0.285
-0.315
-0.47
-0.275
-0.235
-0.17
-0.115
-0.095
-0.25
-0.31
-0.385
-0.37
-0.315
-0.285
-0.265
0.01
-0.06
-0.15
-0.29
-0.24
-0.45
-0.405
-0.37
-0.17
-0.19
-0.045
-0.055
-0.12
-0.24
-0.23
-0.32
-0.45
-0.425
-0.355
-0.23
-0.075
-0.115
-0.135
-0.29
-0.25
-0.395
-0.4
-0.315
-0.16
-0.195
-0.08
-0.09
-0.195
-0.305
-0.31
-0.345
-0.325
-0.34
-0.22
-0.24
0.085
-0.075
-0.1
-0.185
-0.265
-0.25
-0.325
-0.195
-0.185
-0.235
-0.185
-0.045
-0.065
-0.145
-0.12
-0.365
-0.43
-0.355
-0.385
-0.27
-0.135
-0.045
-0.105
-0.155
-0.31
-0.38
-0.47
-0.31
-0.135
-0.235
-0.26
-0.155
-0.19
-0.265
-0.305
-0.375
-0.435
-0.275
-0.23
-0.28
-0.055
-0.045
-0.015
-0.25
-0.33
-0.345
-0.34
-0.25
-0.265
-0.06
0.06
0.14
0.065
-0.015
0.0
0.045
0.19
0.48
0.595
0.7
0.63
0.555
0.26
0.005
-0.315
-0.54
-0.435
-0.33
-0.225
-0.085
-0.1
-0.26
-0.15
-0.225
-0.395
-0.355
-0.33
-0.275
-0.18
-0.15
-0.085
-0.15
-0.215
-0.345
-0.365
-0.485
-0.295
-0.16
-0.255
-0.125
-0.17
-0.145
-0.22
-0.165
-0.27
-0.355
-0.33
-0.34
-0.3
-0.065
-0.08
-0.17
-0.2
-0.26
-0.305
-0.37
-0.345
-0.305
-0.245
0.02
-0.195
-0.08
-0.205
-0.23
-0.515
-0.485
-0.405
-0.28
-0.12
0.025
0.065
-0.07
-0.105
-0.23
-0.4
-0.29
-0.265
-0.185
-0.315
-0.16
-0.05
-0.07
-0.16
-0.215
-0.37
-0.32
-0.225
-0.15
-0.165
-0.095
-0.095
-0.08
-0.145
-0.31
-0.42
-0.205
-0.14
-0.22
-0.13
0.01
0.005
-0.005
-0.095
-0.24
-0.465
-0.375
-0.19
-0.175
0.075
0.17
0.035
-0.055
-0.105
-0.09
-0.255
-0.245
-0.16
-0.105
-0.145
0.06
0.01
0.04
-0.085
-0.245
-0.135
-0.115
-0.165
-0.135
0.04
0.1
0.075
-0.06
-0.155
-0.1
-0.35
-0.205
-0.19
-0.035
-0.07
0.075
0.065
-0.04
-0.01
-0.045
-0.26
-0.305
-0.295
-0.1
-0.17
-0.125
-0.005
-0.03
-0.2
-0.15
-0.365
-0.23
-0.205
-0.18
-0.145
-0.135
-0.055
-0.245
-0.35
-0.39
-0.535
-0.35
-0.13
-0.235
-0.06
0.025
-0.005
-0.185
-0.26
-0.375
-0.48
-0.505
-0.39
-0.305
0.03
-0.075
-0.225
-0.08
-0.155
-0.285
-0.35
-0.355
-0.345
-0.295
-0.07
-0.04
-0.105
-0.2
-0.19
-0.34
-0.35
-0.395
-0.255
-0.285
-0.11
-0.185
-0.095
-0.16
-0.125
-0.375
-0.285
-0.38
-0.31
-0.29
-0.02
0.035
-0.145
-0.27
-0.33
-0.4
-0.36
-0.345
-0.15
-0.045
-0.085
-0.125
-0.095
-0.215
-0.195
-0.385
-0.29
-0.365
-0.18
-0.27
-0.12
-0.105
-0.14
-0.145
-0.275
-0.365
-0.435
-0.2
-0.205
-0.115
-0.1
-0.065
-0.11
-0.205
-0.245
-0.41
-0.42
-0.33
-0.255
-0.205
-0.13
-0.12
-0.285
-0.23
-0.235
-0.4
-0.445
-0.475
-0.18
-0.085
-0.05
-0.095
-0.18
-0.24
-0.365
-0.5
-0.26
-0.24
-0.145
-0.045
-0.095
-0.175
-0.115
-0.37
-0.37
-0.49
-0.42
-0.355
-0.205
-0.095
-0.19
-0.055
-0.19
-0.235
-0.345
-0.425
-0.36
-0.28
-0.295
-0.225
-0.165
-0.025
-0.13
-0.2
-0.205
-0.3
-0.345
-0.32
-0.265
-0.14
-0.155
-0.11
-0.165
-0.37
-0.445
-0.37
-0.17
-0.24
-0.08
-0.055
0.03
-0.08
-0.085
-0.21
-0.265
-0.41
-0.34
-0.265
-0.085
-0.08
0.0
0.015
-0.11
-0.205
-0.465
-0.41
-0.32
-0.395
-0.165
-0.1
-0.06
-0.07
-0.295
-0.205
-0.305
-0.47
-0.375
-0.32
-0.24
-0.14
-0.24
-0.09
-0.2
-0.335
-0.395
-0.465
-0.355
-0.29
-0.23
-0.01
-0.05
-0.14
0.03
-0.245
-0.445
-0.53
-0.505
-0.315
-0.415
0.055
0.065
0.04
0.09
0.1
0.035
0.03
0.245
0.365
0.525
0.64
0.705
0.55
0.345
0.16
-0.27
-0.355
-0.39
-0.32
-0.19
-0.055
-0.105
-0.245
-0.155
-0.185
-0.395
-0.365
-0.4
-0.195
-0.15
-0.125
-0.115
-0.17
-0.24
-0.23
-0.39
-0.335
-0.28
-0.15
-0.36
-0.105
-0.18
-0.21
-0.245
-0.355
-0.45
-0.36
-0.27
-0.09
-0.15
-0.015
-0.14
-0.17
-0.16
-0.355
-0.385
-0.32
-0.345
-0.16
-0.225
-0.145
-0.12
-0.105
-0.08
-0.175
-0.35
-0.355
-0.23
-0.28
-0.155
-0.02
-0.06
-0.125
-0.18
-0.265
-0.325
-0.28
-0.365
-0.285
-0.17
-0.065
-0.105
-0.12
-0.135
-0.355
-0.32
-0.285
-0.31
-0.335
-0.005
0.095
-0.02
-0.13
-0.095
-0.265
-0.385
-0.365
-0.235
-0.12
-0.02
0.05
-0.055
-0.1
-0.11
-0.345
-0.2
-0.245
-0.13
-0.08
-0.08
0.06
-0.03
0.04
-0.105
-0.24
-0.28
-0.16
-0.13
-0.265
0.035
0.075
0.075
-0.055
-0.07
-0.15
-0.22
-0.15
-0.085
-0.09
0.155
-0.03
0.125
-0.01
-0.17
-0.265
-0.16
-0.18
-0.125
-0.22
0.135
0.12
0.02
-0.08
-0.04
-0.205
-0.235
-0.195
-0.25
-0.135
-0.005
0.025
-0.075
-0.03
-0.205
-0.27
-0.34
-0.205
-0.2
-0.16
-0.09
-0.13
-0.13
-0.18
-0.15
-0.405
-0.38
-0.265
-0.19
-0.235
-0.23
-0.125
-0.04
-0.225
-0.345
-0.35
-0.32
-0.275
-0.245
-0.19
-0.105
-0.15
-0.005
-0.205
-0.41
-0.445
-0.39
-0.4
-0.22
-0.2
-0.005
0.07
-0.105
-0.19
-0.42
-0.445
-0.28
-0.36
-0.295
-0.165
-0.06
-0.105
-0.07
-0.22
-0.365
-0.42
-0.3
-0.235
-0.17
0.005
-0.045
-0.21
-0.26
-0.37
-0.23
-0.3
-0.43
-0.32
-0.205
-0.1
-0.055
-0.17
-0.11
-0.21
-0.335
-0.37
-0.36
-0.305
-0.185
-0.1
-0.055
-0.045
-0.315
-0.265
-0.375
-0.285
-0.41
-0.3
-0.27
-0.11
0.005
-0.035
-0.03
-0.135
-0.17
-0.385
-0.335
-0.295
-0.225
-0.08
-0.105
-0.035
-0.145
-0.305
-0.285
-0.315
-0.315
-0.245
-0.225
-0.19
-0.16
-0.055
-0.29
-0.34
-0.42
-0.44
-0.29
-0.195
-0.13
-0.085
-0.115
-0.26
-0.195
-0.31
-0.28
-0.33
-0.255
-0.31
-0.195
-0.15
-0.05
-0.155
-0.11
-0.2
-0.415
-0.32
-0.325
-0.2
-0.18
0.0
-0.105
-0.16
-0.215
-0.19
-0.32
-0.425
-0.365
-0.23
-0.155
-0.055
-0.15
-0.07
-0.2
-0.345
-0.27
-0.205
-0.29
-0.245
-0.155
0.035
0.055
-0.14
-0.2
-0.18
-0.28
-0.315
-0.27
-0.22
-0.1
-0.15
-0.11
-0.16
-0.31
-0.33
-0.475
-0.4
-0.235
-0.205
-0.165
-0.085
-0.11
-0.195
-0.31
-0.245
-0.405
-0.425
-0.295
-0.15
-0.085
-0.11
-0.205
-0.14
-0.3
-0.335
-0.43
-0.455
-0.315
-0.285
-0.275
-0.09
-0.065
-0.085
-0.185
-0.075
-0.18
-0.105
-0.025
0.07
0.185
0.46
0.34
0.415
0.435
0.415
0.195
0.17
0.085
0.0
-0.2
-0.17
-0.185
-0.23
-0.335
-0.33
-0.415
-0.31
-0.415
-0.34
-0.27
-0.225
-0.16
-0.21
-0.275
-0.24
-0.305
-0.3
-0.275
-0.335
-0.14
-0.145
-0.14
-0.235
-0.165
-0.32
-0.37
-0.365
-0.38
-0.185
-0.18
-0.135
-0.175
-0.15
-0.28
-0.335
-0.365
-0.365
-0.315
-0.19
-0.16
-0.13
-0.18
-0.155
-0.26
-0.375
-0.315
-0.345
-0.23
-0.185
-0.1
-0.19
-0.18
-0.135
-0.225
-0.35
-0.36
-0.29
-0.25
-0.25
0.025
0.05
-0.005
-0.17
-0.21
-0.45
-0.35
-0.31
-0.245
-0.285
-0.01
-0.06
-0.085
-0.185
-0.13
-0.18
-0.23
-0.315
-0.11
-0.255
-0.19
-0.025
-0.035
-0.15
-0.28
-0.31
-0.265
-0.2
-0.11
-0.155
-0.155
-0.035
0.06
-0.025
-0.17
-0.3
-0.37
-0.255
-0.075
-0.085
0.17
0.135
0.08
-0.035
-0.055
-0.19
-0.23
-0.215
-0.015
-0.14
0.095
0.01
0.025
-0.165
-0.095
-0.325
-0.215
-0.12
-0.08
-0.01
0.075
0.105
0.08
0.005
-0.255
-0.28
-0.355
-0.19
-0.07
-0.055
-0.03
-0.04
-0.17
-0.085
-0.19
-0.175
-0.38
-0.32
-0.34
-0.21
-0.135
0.01
-0.07
-0.15
-0.195
-0.36
-0.355
-0.18
-0.185
-0.21
-0.035
-0.065
-0.19
-0.255
-0.31
-0.515
-0.395
-0.31
-0.34
-0.13
-0.075
-0.12
-0.09
-0.295
-0.315
-0.47
-0.34
-0.205
-0.205
-0.155
-0.16
-0.16
-0.145
-0.285
-0.42
-0.37
-0.39
-0.425
-0.23
-0.135
-0.055
-0.14
-0.21
-0.26
-0.375
-0.41
-0.37
-0.335
-0.225
-0.15
-0.095
-0.16
-0.28
-0.205
-0.17
-0.39
-0.43
-0.3
-0.275
-0.1
0.01
-0.05
-0.185
-0.26
-0.385
-0.34
-0.38
-0.335
-0.23
-0.015
-0.09
-0.11
-0.2
-0.28
-0.43
-0.45
-0.385
-0.335
-0.36
-0.18
-0.16
-0.17
-0.12
-0.215
-0.295
-0.22
-0.15
-0.23
-0.2
-0.02
-0.16
-0.185
-0.165
-0.34
-0.5
-0.405
-0.32
-0.355
-0.325
-0.13
-0.12
-0.18
-0.285
-0.28
-0.34
-0.32
-0.305
-0.39
-0.3
-0.14
-0.115
-0.035
-0.185
-0.245
-0.415
-0.415
-0.515
-0.405
-0.265
-0.045
-0.01
-0.235
-0.305
-0.25
-0.375
-0.455
-0.305
-0.165
-0.16
-0.11
-0.2
-0.205
-0.285
-0.345
-0.425
-0.475
-0.325
-0.205
-0.19
-0.065
-0.095
-0.115
-0.26
-0.235
-0.495
-0.32
-0.295
-0.15
-0.115
0.07
0.075
0.04
-0.095
-0.335
-0.615
-0.235
-0.325
-0.235
-0.2
-0.01
-0.07
-0.18
-0.365
-0.39
-0.415
-0.385
-0.385
-0.29
-0.12
-0.12
-0.14
-0.245
-0.255
-0.285
-0.43
-0.48
-0.355
-0.21
-0.26
-0.19
-0.14
-0.28
-0.105
-0.325
-0.395
-0.4
-0.35
-0.28
-0.145
-0.215
-0.245
-0.265
-0.115
-0.205
-0.225
-0.165
-0.145
0.165
0.105
0.305
0.315
0.51
0.47
0.32
0.31
0.27
0.34
0.185
0.105
-0.05
-0.11
-0.265
-0.345
-0.37
-0.48
-0.445
-0.28
-0.25
-0.15
-0.12
-0.205
-0.235
-0.38
-0.405
-0.46
-0.355
-0.305
-0.29
-0.055
-0.12
-0.085
-0.255
-0.235
-0.335
-0.35
-0.3
-0.25
-0.13
-0.2
-0.205
-0.295
-0.175
-0.245
-0.33
-0.295
-0.38
-0.325
-0.27
-0.075
-0.15
-0.205
-0.23
-0.37
-0.39
-0.355
-0.325
-0.225
-0.24
-0.065
-0.075
-0.16
-0.185
-0.21
-0.41
-0.38
-0.31
-0.37
-0.22
-0.06
-0.015
-0.135
-0.165
-0.17
-0.265
-0.325
-0.335
-0.24
-0.16
-0.07
-0.04
-0.115
-0.22
-0.34
-0.375
-0.325
-0.355
-0.165
-0.21
-0.085
0.04
-0.095
-0.165
-0.15
-0.275
-0.32
-0.215
-0.165
-0.075
-0.04
-0.13
-0.09
-0.05
-0.16
-0.33
-0.27
-0.21
-0.115
-0.035
0.095
-0.02
-0.03
-0.12
-0.095
-0.215
-0.22
-0.16
-0.09
-0.075
-0.01
0.005
-0.005
0.045
-0.11
-0.16
-0.235
-0.055
-0.13
-0.035
0.095
-0.04
-0.06
-0.095
-0.055
-0.255
-0.35
-0.16
-0.18
-0.17
0.005
-0.035
-0.13
-0.175
-0.23
-0.27
-0.33
-0.135
-0.15
-0.17
0.01
-0.02
-0.115
-0.24
-0.365
-0.305
-0.245
-0.34
-0.185
-0.195
-0.185
-0.125
-0.16
-0.185
-0.415
-0.455
-0.455
-0.26
-0.275
-0.105
-0.155
-0.105
-0.145
-0.275
-0.355
-0.45
-0.365
-0.205
-0.235
-0.205
-0.215
-0.23
-0.26
-0.195
-0.325
-0.385
-0.295
-0.275
-0.165
-0.08
-0.14
-0.225
-0.27
-0.24
-0.365
-0.555
-0.35
-0.23
-0.215
-0.005
-0.005
-0.085
-0.215
-0.285
-0.38
-0.32
-0.36
-0.34
-0.215
-0.1
-0.16
-0.11
-0.27
-0.325
-0.495
-0.4
-0.37
-0.345
-0.24
-0.12
-0.005
-0.085
-0.24
-0.215
-0.385
-0.335
-0.43
-0.305
-0.28
-0.15
-0.115
-0.14
-0.16
-0.29
-0.325
-0.4
-0.31
-0.175
-0.25
-0.18
-0.11
-0.065
-0.24
-0.27
-0.41
-0.345
-0.355
-0.31
-0.255
-0.13
-0.05
-0.13
-0.28
-0.265
-0.43
-0.28
-0.365
-0.21
-0.135
-0.045
-0.27
-0.27
-0.325
-0.38
-0.49
-0.515
-0.275
-0.205
-0.17
-0.14
-0.195
-0.365
-0.325
-0.245
-0.34
-0.41
-0.33
-0.21
-0.11
-0.215
-0.265
-0.17
-0.255
-0.385
-0.47
-0.32
-0.25
-0.23
-0.14
-0.02
-0.095
-0.18
-0.26
-0.365
-0.36
-0.425
-0.355
-0.265
-0.225
-0.02
-0.02
-0.195
-0.3
-0.44
-0.44
-0.395
-0.295
-0.21
-0.095
-0.14
-0.14
-0.165
-0.14
-0.34
-0.255
-0.285
-0.24
-0.225
-0.105
-0.035
-0.09
-0.23
-0.115
-0.435
-0.49
-0.425
-0.415
-0.185
-0.08
-0.11
-0.015
-0.15
-0.235
-0.275
-0.505
-0.455
-0.39
-0.28
-0.175
-0.125
-0.24
-0.22
-0.195
-0.425
-0.485
-0.47
-0.435
-0.27
-0.14
-0.16
-0.315
-0.31
-0.175
-0.41
-0.44
-0.345
-0.245
-0.045
0.02
0.065
-0.04
0.02
0.03
0.01
0.095
0.27
0.32
0.565
0.615
0.565
0.455
0.28
-0.095
-0.5
-0.46
-0.55
-0.36
-0.195
0.04
-0.165
-0.275
-0.24
-0.405
-0.415
-0.355
-0.35
-0.37
-0.31
-0.075
-0.135
-0.255
-0.36
-0.315
-0.405
-0.415
-0.35
-0.28
-0.225
-0.105
-0.195
-0.25
-0.265
-0.295
-0.4
-0.39
-0.435
-0.365
-0.26
-0.12
-0.075
-0.16
-0.245
-0.34
-0.3
-0.255
-0.44
-0.25
-0.22
-0.165
-0.21
-0.255
-0.2
-0.25
-0.375
-0.405
-0.38
-0.18
-0.24
-0.03
-0.145
-0.255
-0.22
-0.235
-0.29
-0.445
-0.36
-0.345
-0.075
-0.185
-0.14
-0.285
-0.36
-0.335
-0.29
-0.055
-0.265
-0.255
-0.1
-0.13
-0.115
-0.2
-0.275
-0.43
-0.365
-0.345
-0.385
-0.215
-0.1
-0.055
-0.195
-0.155
-0.015
-0.18
-0.19
-0.315
-0.235
-0.25
-0.035
0.01
-0.09
0.005
-0.03
-0.245
-0.34
-0.14
-0.185
-0.15
-0.03
-0.055
0.02
0.05
-0.115
-0.27
-0.36
-0.255
-0.255
-0.18
0.03
0.05
0.035
0.02
-0.135
-0.225
-0.225
-0.31
-0.255
-0.21
0.03
0.1
-0.005
-0.095
-0.17
-0.27
-0.445
-0.29
-0.185
-0.12
-0.155
-0.115
-0.085
-0.195
-0.21
-0.365
-0.32
-0.26
-0.215
-0.26
-0.095
-0.04
-0.045
-0.22
-0.315
-0.395
-0.42
-0.365
-0.355
-0.31
-0.13
-0.12
-0.185
-0.3
-0.365
-0.45
-0.445
-0.33
-0.165
-0.3
-0.285
-0.125
-0.18
-0.29
-0.355
-0.355
-0.35
-0.385
-0.235
-0.235
-0.05
-0.13
-0.21
-0.28
-0.245
-0.28
-0.515
-0.425
-0.29
-0.21
-0.045
-0.1
-0.17
-0.385
-0.42
-0.46
-0.295
-0.3
-0.34
-0.16
-0.165
-0.19
-0.215
-0.29
-0.335
-0.335
-0.36
-0.355
-0.345
-0.165
-0.05
-0.06
-0.105
-0.235
-0.385
-0.59
-0.47
-0.335
-0.32
-0.145
-0.09
-0.19
-0.145
-0.19
-0.235
-0.38
-0.35
-0.335
-0.295
-0.08
-0.045
-0.115
-0.35
-0.425
-0.295
-0.38
-0.39
-0.3
-0.23
-0.245
-0.205
-0.21
-0.18
-0.155
-0.26
-0.44
-0.525
-0.34
-0.19
-0.12
-0.165
-0.21
-0.26
-0.21
-0.515
-0.345
-0.475
-0.24
-0.255
-0.145
-0.205
-0.205
-0.34
-0.24
-0.37
-0.255
-0.18
-0.17
-0.21
-0.175
-0.26
-0.185
-0.285
-0.295
-0.465
-0.435
-0.53
-0.035
-0.31
-0.085
-0.15
-0.09
-0.12
-0.35
-0.49
-0.525
-0.345
-0.215
-0.245
-0.225
-0.17
-0.265
-0.245
-0.23
-0.345
-0.385
-0.35
-0.325
-0.225
-0.095
-0.19
-0.24
-0.37
-0.385
-0.46
-0.5
-0.44
-0.315
-0.25
-0.08
-0.015
-0.18
-0.215
-0.15
-0.44
-0.395
-0.37
-0.23
