# TIPE ECG 2021 - ECG-ID Database v1.0.0 par Physionet
# [Numéro de la personne, Période d'échantillonnage, Prénom, Age, Sexe, Date de l'enregistrement]
[19, 0.002, Mandy, 23, F, 26.04.2005]
0.385
0.48
0.485
0.445
0.5
0.43
0.57
0.55
0.79
0.84
0.945
0.735
0.495
0.215
0.205
-0.15
-0.23
-0.03
-0.015
0.04
0.385
0.16
0.135
0.05
0.07
-0.23
-0.12
-0.15
-0.065
0.06
0.27
0.325
0.21
0.155
0.1
-0.025
-0.14
-0.055
-0.035
0.08
0.27
0.27
0.14
0.01
-0.075
-0.125
-0.095
-0.095
0.07
0.105
0.24
0.205
0.145
0.055
0.055
-0.03
-0.09
0.05
0.125
0.01
0.17
0.16
0.145
-0.02
0.025
-0.03
-0.05
0.02
0.105
0.165
0.29
0.215
0.175
-0.045
-0.235
-0.205
-0.095
-0.115
0.05
0.125
0.29
0.315
0.205
0.035
-0.035
-0.08
0.01
0.08
0.09
0.195
0.24
0.27
0.24
0.105
0.01
0.035
0.05
0.005
0.055
0.145
0.22
0.18
0.175
0.14
-0.005
-0.015
-0.025
0.035
0.08
0.265
0.305
0.14
0.235
0.26
0.135
0.005
0.035
0.135
0.065
0.235
0.355
0.255
0.195
0.135
0.015
0.075
0.1
0.085
0.125
0.345
0.35
0.295
0.21
0.16
0.09
0.185
0.135
0.195
0.245
0.25
0.255
0.27
0.225
0.01
-0.01
0.115
0.045
0.035
0.065
0.205
0.195
0.165
0.06
0.045
-0.055
-0.205
-0.145
-0.035
0.03
0.21
0.27
0.105
0.085
-0.06
-0.11
-0.175
-0.175
-0.04
-0.015
0.19
0.295
0.125
-0.01
0.005
-0.015
-0.07
-0.14
-0.065
-0.03
0.09
0.035
0.175
0.065
0.035
-0.14
-0.15
-0.035
0.0
0.0
0.155
0.085
-0.015
0.015
-0.055
-0.135
-0.105
-0.085
0.05
0.085
0.175
0.17
0.215
0.025
-0.025
-0.16
-0.115
-0.085
-0.015
0.135
0.18
0.125
0.1
-0.02
-0.075
-0.18
-0.18
0.065
0.065
0.07
0.235
0.155
0.135
-0.07
-0.1
-0.16
-0.16
-0.005
-0.06
0.075
0.185
0.105
0.1
-0.17
-0.125
-0.145
-0.155
-0.15
0.015
0.025
0.165
0.115
-0.005
-0.005
-0.095
-0.215
-0.15
0.01
-0.03
0.055
0.18
0.22
0.08
0.015
-0.105
-0.11
-0.105
-0.015
0.005
0.045
0.21
0.075
-0.01
-0.08
-0.15
-0.095
-0.14
-0.095
-0.125
0.205
0.16
0.09
-0.01
-0.005
-0.11
-0.165
-0.165
-0.155
-0.06
0.025
0.075
0.065
0.03
0.115
-0.18
-0.215
-0.095
-0.11
-0.04
0.17
0.18
0.07
-0.025
-0.07
-0.26
-0.205
-0.27
-0.15
-0.02
0.23
0.185
0.14
0.04
-0.065
-0.13
-0.12
-0.11
-0.11
0.09
0.13
0.175
0.13
-0.01
-0.045
-0.12
-0.155
-0.03
-0.125
0.055
0.14
0.185
0.19
0.125
0.045
-0.14
-0.105
-0.145
-0.065
0.015
0.07
0.07
0.115
0.015
0.025
-0.135
-0.16
-0.245
-0.175
-0.125
0.005
0.07
0.07
0.02
-0.085
-0.2
-0.185
-0.14
-0.135
-0.05
-0.02
0.025
-0.025
-0.01
0.055
-0.1
-0.09
-0.105
-0.105
0.05
0.075
0.14
0.18
0.09
-0.005
0.075
0.145
0.17
0.505
0.735
0.78
1.04
0.865
0.61
0.47
0.11
0.005
-0.065
-0.015
0.01
0.025
0.17
0.08
-0.045
-0.23
-0.275
-0.185
-0.105
-0.025
-0.085
0.09
0.005
0.07
-0.035
-0.18
-0.215
-0.185
-0.125
-0.055
0.08
0.035
0.04
-0.015
-0.115
-0.11
-0.15
-0.13
-0.16
-0.005
0.08
0.175
0.09
-0.09
-0.14
-0.175
-0.095
-0.155
-0.095
-0.035
0.035
0.05
-0.05
-0.075
-0.01
-0.19
-0.35
-0.17
-0.01
-0.02
0.065
0.105
0.105
-0.15
-0.165
-0.17
-0.11
-0.095
-0.255
0.06
0.215
0.1
0.005
-0.02
-0.035
-0.22
-0.08
-0.095
0.06
0.105
0.035
0.06
0.145
0.055
0.025
-0.3
-0.29
-0.115
0.03
0.125
0.18
0.19
0.175
0.165
0.025
-0.125
-0.06
0.04
0.015
0.04
0.105
0.19
0.145
0.12
0.02
-0.21
-0.015
-0.105
0.065
0.055
0.1
0.185
0.395
0.12
0.01
0.0
0.015
0.06
0.085
0.14
0.255
0.3
0.15
-0.01
0.15
-0.18
-0.175
0.055
0.155
0.16
0.34
0.2
0.12
0.02
0.03
0.015
-0.065
-0.01
0.0
0.075
0.165
0.235
0.045
-0.085
-0.09
-0.075
0.005
0.065
-0.085
-0.005
0.19
0.125
0.04
-0.085
-0.115
-0.185
-0.215
-0.13
-0.045
-0.045
0.055
-0.025
-0.085
-0.065
-0.1
-0.24
-0.16
-0.045
0.035
0.035
0.03
0.06
-0.025
-0.065
-0.08
-0.12
-0.215
-0.31
-0.01
0.065
0.085
0.145
0.095
-0.06
-0.175
-0.27
-0.33
-0.14
-0.015
0.055
0.145
0.175
-0.02
-0.105
-0.235
-0.195
-0.23
-0.105
0.0
0.165
0.085
-0.02
-0.045
-0.035
-0.195
-0.185
-0.215
-0.15
0.015
0.055
0.2
0.065
0.025
-0.12
-0.165
-0.215
-0.18
-0.05
-0.01
0.095
0.135
-0.16
0.065
-0.03
-0.175
-0.19
-0.12
-0.12
-0.13
0.115
-0.03
-0.095
-0.105
-0.16
-0.29
-0.245
-0.1
-0.115
-0.06
0.2
0.08
0.065
0.15
-0.015
-0.2
-0.22
-0.33
0.0
-0.005
0.035
0.155
0.135
-0.035
-0.145
-0.22
-0.235
-0.245
-0.135
-0.09
0.03
0.065
-0.035
-0.175
-0.225
-0.365
-0.165
-0.09
0.115
-0.005
0.055
0.085
0.06
-0.03
-0.15
-0.22
-0.165
-0.09
-0.095
-0.135
-0.015
0.03
0.03
-0.09
-0.19
-0.26
-0.14
-0.1
-0.145
-0.045
0.105
0.125
0.03
0.0
-0.06
-0.125
-0.18
-0.065
-0.005
0.045
0.1
0.09
0.05
-0.125
-0.04
-0.2
-0.235
-0.165
-0.13
-0.02
0.115
-0.02
0.195
-0.095
-0.095
-0.155
-0.14
-0.225
-0.09
-0.11
-0.065
-0.075
-0.09
-0.045
-0.13
-0.175
-0.27
-0.19
-0.12
-0.06
0.07
0.08
0.105
-0.13
-0.235
-0.335
-0.33
-0.245
-0.025
0.055
0.155
0.18
0.145
0.185
0.09
0.01
0.26
0.31
0.445
0.695
0.755
0.945
0.705
0.56
0.34
0.055
-0.155
-0.205
-0.13
0.075
-0.21
-0.01
-0.05
-0.06
-0.19
-0.365
-0.225
-0.105
-0.065
-0.14
0.02
0.09
-0.145
-0.1
-0.145
-0.26
-0.225
-0.1
-0.085
0.01
0.07
0.02
0.055
-0.19
-0.23
-0.155
-0.25
-0.035
-0.205
0.085
-0.095
-0.21
-0.07
-0.16
-0.23
-0.175
-0.06
0.0
-0.19
0.06
0.075
0.135
0.07
-0.07
-0.28
-0.26
-0.22
-0.13
-0.045
0.185
0.015
0.11
0.045
-0.095
-0.21
-0.315
-0.065
-0.06
0.01
0.08
0.14
0.07
-0.06
-0.045
-0.22
-0.325
0.015
-0.015
-0.015
0.04
0.085
0.015
-0.09
0.115
-0.075
-0.275
-0.05
-0.01
0.11
0.175
0.05
-0.055
0.035
-0.04
0.035
-0.2
-0.045
0.05
0.0
0.175
0.315
0.06
0.06
-0.02
-0.1
-0.08
0.125
0.05
0.125
0.27
0.335
0.25
0.14
0.0
-0.135
-0.045
0.15
0.15
0.11
0.265
0.255
0.11
0.115
0.015
0.01
-0.12
0.08
0.15
0.24
0.16
0.15
0.22
0.07
-0.05
-0.065
-0.17
-0.045
-0.01
-0.005
0.09
-0.02
0.045
0.1
0.125
-0.01
-0.09
-0.015
-0.025
0.05
0.195
0.115
0.025
-0.08
-0.165
-0.115
-0.135
-0.23
-0.025
0.01
0.075
0.04
-0.105
-0.145
-0.155
-0.225
-0.17
-0.08
-0.08
0.02
-0.005
0.01
0.045
-0.025
-0.265
-0.09
-0.14
-0.035
-0.025
0.015
0.045
-0.015
-0.085
0.08
-0.245
-0.145
-0.18
-0.13
-0.05
0.095
0.075
-0.065
0.0
0.07
-0.225
-0.25
-0.31
-0.07
0.16
0.075
0.07
0.13
0.005
-0.08
-0.15
-0.135
-0.115
-0.14
-0.195
0.11
0.095
0.07
0.01
-0.05
-0.075
-0.15
-0.205
-0.155
-0.035
0.025
0.06
0.075
0.005
-0.025
-0.255
-0.2
-0.195
-0.095
-0.14
0.155
0.1
-0.075
0.075
0.025
-0.335
-0.355
-0.22
-0.11
0.04
0.135
0.065
0.015
-0.11
-0.14
-0.14
-0.335
-0.175
-0.085
-0.07
0.06
0.05
0.095
0.035
-0.14
-0.245
-0.09
-0.08
-0.085
-0.03
0.16
0.13
-0.135
-0.135
-0.2
-0.205
-0.26
-0.195
-0.1
0.065
0.01
0.16
0.19
0.03
0.01
-0.14
-0.225
-0.035
0.075
-0.005
0.145
0.06
0.13
-0.115
-0.14
-0.225
-0.12
-0.005
-0.02
0.11
0.035
0.045
-0.035
-0.09
-0.23
-0.355
-0.34
-0.25
-0.205
-0.025
0.085
0.11
0.035
-0.015
-0.085
-0.255
-0.185
-0.18
0.03
-0.105
0.05
0.045
0.02
-0.215
-0.16
-0.245
-0.205
-0.22
-0.195
0.075
0.025
0.025
-0.105
0.01
-0.115
-0.065
0.125
0.19
0.27
0.385
0.595
0.585
0.69
0.69
0.545
0.565
0.46
0.365
0.325
0.235
-0.01
-0.14
-0.12
-0.105
-0.335
-0.41
-0.375
-0.13
0.005
0.16
0.02
0.0
-0.005
-0.095
-0.275
-0.18
-0.22
-0.115
-0.1
0.015
0.07
0.025
-0.155
-0.19
-0.285
-0.15
-0.035
-0.035
0.04
0.12
0.035
-0.015
-0.035
-0.14
-0.275
-0.29
-0.25
-0.16
0.03
-0.035
-0.09
0.02
-0.055
-0.105
-0.19
-0.2
-0.28
-0.175
-0.015
0.05
0.31
-0.02
-0.05
-0.215
-0.24
-0.15
-0.16
-0.055
0.08
0.095
0.11
-0.025
-0.115
-0.065
-0.2
-0.14
-0.085
-0.005
0.06
0.105
0.085
-0.045
-0.035
-0.205
-0.185
-0.22
-0.125
0.155
0.075
0.11
0.05
-0.03
-0.085
-0.075
-0.15
-0.085
0.005
0.02
0.08
0.2
0.07
0.13
-0.03
-0.035
-0.18
-0.13
-0.025
0.135
0.125
0.185
0.235
0.15
0.215
-0.09
-0.075
0.0
0.05
-0.01
0.205
0.2
0.215
0.145
0.125
-0.095
-0.185
-0.125
-0.055
0.005
0.14
0.27
0.305
0.175
0.015
-0.105
-0.02
0.02
0.045
0.075
0.245
0.26
0.175
-0.02
0.01
-0.175
-0.175
-0.14
-0.025
-0.005
0.115
0.095
0.12
-0.1
-0.06
-0.225
-0.18
-0.13
-0.12
-0.12
0.05
0.08
0.02
-0.015
0.025
-0.19
-0.19
-0.21
-0.035
-0.055
0.095
0.015
-0.07
-0.07
-0.13
-0.3
-0.165
-0.255
-0.14
-0.02
0.215
0.085
-0.135
-0.04
-0.225
-0.18
-0.195
-0.195
-0.15
-0.05
0.095
0.02
-0.07
-0.015
-0.1
-0.29
-0.26
-0.22
-0.17
-0.055
0.03
0.02
-0.015
-0.095
-0.085
-0.235
-0.115
-0.12
-0.01
0.15
0.07
0.06
-0.045
-0.135
-0.08
-0.285
-0.255
-0.1
0.02
0.01
0.045
-0.005
-0.075
-0.14
-0.1
-0.23
-0.24
-0.145
-0.015
0.03
0.045
0.06
0.05
-0.075
-0.155
-0.28
-0.115
-0.185
-0.13
-0.03
0.03
-0.005
-0.13
-0.125
-0.18
-0.23
-0.19
-0.175
-0.07
0.0
0.045
0.08
-0.055
-0.16
-0.145
-0.15
-0.18
-0.14
0.01
0.0
-0.01
0.025
-0.095
-0.125
-0.23
-0.25
-0.31
-0.095
-0.11
-0.005
0.15
0.115
0.015
-0.065
-0.25
-0.155
-0.105
-0.005
-0.005
-0.02
0.03
0.085
0.14
0.015
-0.11
-0.145
-0.165
-0.055
-0.02
0.07
-0.01
-0.065
-0.07
-0.085
-0.19
-0.205
-0.245
-0.14
-0.11
0.1
0.105
0.065
-0.145
-0.145
-0.285
-0.245
-0.215
-0.085
0.025
0.04
0.09
0.075
-0.05
-0.15
-0.28
-0.19
-0.145
-0.19
-0.13
0.015
0.035
-0.02
-0.055
-0.19
-0.195
-0.11
0.0
0.11
0.215
0.365
0.435
0.52
0.505
0.44
0.59
0.64
0.645
0.58
0.56
0.45
0.0
-0.05
-0.125
-0.115
-0.25
-0.2
-0.12
-0.095
-0.05
0.045
0.105
-0.065
-0.105
-0.065
-0.195
-0.185
-0.195
-0.095
0.03
0.09
-0.03
-0.095
-0.075
-0.21
-0.27
-0.3
-0.18
-0.105
0.0
0.05
-0.045
-0.015
-0.005
-0.11
-0.13
-0.27
-0.24
-0.175
0.05
0.175
0.015
-0.005
-0.075
-0.12
-0.25
-0.155
-0.105
0.02
-0.04
0.04
0.11
0.115
0.01
-0.12
-0.185
-0.175
-0.09
-0.055
-0.015
0.14
0.075
-0.005
-0.11
-0.14
-0.19
-0.25
-0.185
-0.085
0.035
0.045
0.075
0.025
-0.07
-0.025
-0.015
-0.21
-0.1
-0.05
0.11
0.165
0.045
-0.06
-0.005
-0.105
-0.165
-0.14
-0.025
0.01
0.115
0.2
0.075
-0.01
0.095
-0.025
-0.015
-0.06
-0.005
0.03
0.16
0.195
0.125
0.18
0.055
-0.195
-0.09
-0.015
-0.01
0.2
0.195
0.11
0.06
0.11
0.045
0.04
-0.055
0.1
0.08
0.13
0.14
0.21
0.075
0.095
0.0
-0.1
0.04
0.015
0.115
0.09
0.195
0.195
0.065
0.035
-0.01
-0.16
-0.09
-0.145
-0.065
0.12
0.155
0.14
0.005
0.005
-0.09
-0.175
-0.19
-0.255
-0.18
-0.12
0.1
0.06
0.06
0.035
-0.07
-0.2
-0.11
-0.205
-0.095
-0.11
0.04
0.07
0.085
0.015
-0.02
-0.245
-0.225
-0.165
-0.095
-0.075
0.03
0.095
0.05
-0.125
-0.12
-0.195
-0.35
-0.17
-0.035
0.045
0.095
0.075
0.035
-0.035
-0.155
-0.21
-0.255
-0.175
-0.02
-0.01
0.005
0.005
0.045
-0.15
-0.23
-0.275
-0.16
-0.11
-0.04
-0.005
0.24
0.015
-0.105
0.01
0.025
-0.305
-0.2
-0.095
-0.005
-0.02
0.075
0.045
-0.105
-0.06
-0.12
-0.225
-0.23
-0.23
-0.095
-0.035
0.165
0.175
0.01
-0.025
-0.21
-0.295
-0.22
-0.085
-0.1
0.095
0.09
-0.015
-0.09
-0.175
-0.21
-0.17
-0.15
-0.005
0.01
0.085
0.08
0.09
-0.075
-0.045
-0.13
-0.17
-0.12
-0.07
-0.09
0.17
0.14
0.015
0.01
0.055
-0.145
-0.14
-0.165
-0.065
0.04
0.0
0.08
-0.04
-0.04
-0.125
-0.175
-0.325
-0.215
-0.075
-0.1
-0.065
0.01
0.0
-0.04
-0.14
-0.225
-0.225
-0.21
-0.105
-0.025
0.16
0.205
-0.005
-0.06
-0.13
-0.4
-0.115
-0.14
-0.135
0.025
0.08
0.035
-0.07
-0.065
-0.095
-0.185
-0.1
-0.21
0.19
0.17
0.425
0.545
0.5
0.46
0.62
0.42
0.51
0.375
0.475
0.355
0.28
0.1
-0.07
-0.165
-0.195
-0.405
-0.28
-0.21
-0.11
-0.18
0.03
0.01
0.04
-0.045
-0.06
-0.265
-0.215
-0.1
-0.18
-0.12
0.105
0.1
0.105
-0.095
-0.225
-0.145
-0.205
-0.175
-0.025
-0.045
0.08
0.05
0.025
-0.105
-0.125
-0.165
-0.28
-0.26
-0.055
-0.025
0.015
0.19
-0.025
-0.005
-0.1
-0.18
-0.19
-0.185
-0.015
-0.05
-0.015
0.03
0.065
-0.01
-0.145
-0.22
-0.15
-0.08
-0.035
-0.035
0.145
0.01
-0.04
-0.06
-0.11
-0.105
-0.09
-0.135
-0.035
0.065
0.155
0.01
0.02
0.03
-0.09
-0.25
-0.105
-0.005
0.015
0.13
0.105
0.145
0.04
-0.06
-0.105
-0.16
-0.12
-0.065
-0.045
0.135
0.17
0.235
0.06
0.01
-0.08
-0.035
-0.015
0.07
0.105
0.11
0.12
0.2
0.25
0.105
0.005
-0.165
-0.025
0.07
0.07
0.145
0.2
0.14
0.11
0.12
0.01
-0.1
-0.06
0.085
0.09
0.23
0.23
0.13
0.19
0.1
-0.035
-0.085
-0.07
-0.06
0.15
0.235
0.125
0.095
0.05
0.025
-0.08
-0.145
-0.155
-0.15
0.075
0.17
0.105
0.015
-0.03
-0.06
-0.18
-0.16
-0.105
0.025
-0.045
0.08
-0.025
-0.015
-0.085
-0.115
-0.18
-0.22
-0.06
-0.08
-0.095
-0.005
-0.02
-0.09
-0.085
-0.135
-0.21
-0.145
-0.13
-0.105
-0.025
0.045
0.0
-0.02
-0.045
-0.16
-0.23
-0.3
-0.14
-0.05
-0.03
0.095
0.08
0.01
-0.055
-0.065
-0.12
-0.105
-0.09
-0.045
-0.01
0.04
0.045
0.005
-0.12
-0.215
-0.25
-0.265
-0.175
-0.01
0.06
0.125
0.145
-0.005
-0.035
-0.105
-0.15
-0.155
-0.13
-0.07
-0.125
0.03
0.03
0.045
-0.065
-0.13
-0.185
-0.175
-0.185
-0.015
0.035
-0.025
0.015
-0.2
-0.145
-0.195
-0.195
-0.13
-0.07
-0.02
0.075
0.115
0.14
-0.02
-0.095
-0.175
-0.27
-0.345
-0.09
-0.03
0.05
0.125
0.005
-0.05
-0.075
-0.14
-0.185
-0.115
-0.07
0.08
0.15
0.125
0.045
0.05
-0.095
-0.18
-0.125
0.02
0.05
0.08
0.195
0.18
-0.015
-0.12
-0.095
-0.245
-0.245
-0.05
-0.095
-0.02
0.155
0.065
-0.08
-0.085
0.01
-0.205
-0.2
-0.17
-0.15
-0.125
0.145
0.085
0.07
-0.04
-0.075
-0.33
-0.275
-0.13
-0.14
-0.075
0.055
0.11
0.135
-0.04
-0.115
-0.335
-0.275
-0.245
-0.08
0.09
0.235
0.265
0.285
0.23
0.16
0.135
0.185
0.56
0.48
0.57
0.8
0.8
0.55
0.38
0.11
-0.085
-0.115
-0.175
-0.195
-0.065
0.085
-0.02
-0.045
-0.075
-0.145
-0.21
-0.165
-0.115
-0.05
0.055
0.08
0.01
0.04
-0.21
-0.19
-0.145
-0.34
-0.19
-0.08
-0.04
0.005
0.055
-0.005
-0.03
-0.225
-0.16
-0.195
-0.13
-0.045
-0.025
0.005
0.04
-0.005
-0.065
-0.16
-0.285
-0.2
-0.155
-0.11
-0.01
0.1
0.03
0.095
-0.08
-0.155
-0.135
-0.15
-0.035
-0.075
0.05
0.065
0.07
0.005
-0.035
-0.12
-0.19
-0.22
-0.135
-0.025
-0.1
0.105
0.085
0.09
-0.155
-0.145
-0.135
-0.155
-0.115
-0.115
0.19
0.115
0.075
0.075
-0.005
-0.135
-0.125
-0.205
-0.075
0.055
0.12
0.15
0.155
0.075
-0.05
-0.195
-0.11
-0.105
-0.06
0.1
0.25
0.21
0.115
0.135
0.095
-0.15
-0.21
-0.13
-0.075
0.12
0.255
0.2
0.29
0.2
0.055
-0.07
-0.08
-0.03
0.07
0.11
0.225
0.245
0.2
0.14
0.05
-0.09
-0.075
0.065
0.03
0.03
0.305
0.15
0.12
-0.055
0.09
-0.11
-0.035
-0.03
0.035
-0.03
0.125
0.14
0.07
-0.08
-0.05
-0.2
-0.2
-0.09
-0.135
-0.01
0.165
0.13
0.075
-0.04
-0.18
-0.155
-0.185
-0.155
-0.12
-0.03
-0.03
0.015
0.07
-0.115
-0.1
-0.155
-0.19
-0.065
-0.015
0.015
0.07
0.0
0.04
-0.1
-0.18
-0.21
-0.165
-0.035
-0.015
-0.02
-0.14
-0.06
0.06
-0.07
-0.085
-0.12
-0.095
-0.13
-0.075
-0.005
-0.015
-0.045
0.045
-0.09
-0.13
-0.225
-0.205
-0.115
-0.045
0.07
0.075
0.055
-0.1
-0.085
-0.175
-0.135
-0.14
-0.075
-0.12
0.07
0.12
0.085
-0.06
-0.12
-0.16
-0.235
-0.11
-0.085
-0.005
0.12
0.025
0.065
0.11
-0.03
-0.155
-0.285
-0.26
-0.03
-0.03
-0.075
0.075
0.04
0.045
-0.09
-0.265
-0.14
-0.12
-0.095
-0.035
0.125
0.04
0.015
-0.045
-0.14
-0.295
-0.245
-0.2
-0.03
-0.04
0.19
0.145
0.215
0.0
-0.055
-0.115
-0.025
-0.175
0.025
-0.01
0.125
0.09
0.1
0.02
-0.16
-0.155
-0.265
-0.315
-0.06
-0.03
0.15
0.095
0.07
-0.145
-0.145
-0.115
-0.15
-0.22
-0.125
-0.09
-0.01
0.11
-0.01
-0.13
-0.08
-0.135
-0.225
-0.185
-0.09
-0.04
0.045
0.095
-0.03
-0.12
-0.14
-0.295
-0.29
-0.275
-0.165
-0.11
0.115
0.3
0.2
0.15
0.205
0.05
0.125
0.265
0.335
0.46
0.73
0.865
0.75
0.74
0.58
0.345
0.095
0.045
-0.075
-0.125
-0.035
0.04
-0.005
-0.065
-0.075
-0.26
-0.195
-0.165
0.025
0.03
0.055
0.03
-0.015
-0.095
-0.185
-0.26
-0.28
-0.17
-0.045
0.0
0.19
0.045
-0.02
-0.05
-0.11
-0.28
-0.225
-0.2
-0.115
0.03
0.145
0.095
0.115
-0.14
-0.165
-0.22
-0.175
-0.16
-0.01
0.01
0.045
0.11
-0.12
0.01
-0.145
-0.15
-0.19
-0.195
-0.05
0.035
0.155
0.13
0.0
-0.135
-0.1
-0.16
-0.215
-0.035
-0.07
0.035
0.125
0.05
0.08
-0.075
-0.09
-0.11
-0.185
-0.05
0.05
0.105
0.14
0.05
-0.01
0.025
-0.05
-0.145
-0.185
-0.02
0.085
0.145
0.19
0.09
0.04
0.09
-0.155
-0.135
-0.1
-0.025
0.09
0.1
0.19
0.185
0.115
0.035
-0.07
-0.125
0.0
0.06
0.13
0.2
0.185
0.15
0.125
0.17
-0.085
-0.065
-0.04
0.12
0.09
0.225
0.175
0.17
0.18
0.095
0.025
-0.08
0.045
0.16
0.205
0.255
0.155
0.185
0.015
-0.03
-0.035
-0.065
-0.075
0.045
0.145
0.15
0.13
0.075
0.06
-0.01
-0.085
-0.025
-0.105
-0.08
0.005
0.135
0.155
0.015
-0.115
-0.07
-0.325
-0.225
-0.05
-0.1
0.015
0.04
0.01
0.1
-0.035
-0.055
-0.205
-0.285
-0.165
-0.195
-0.09
0.1
0.215
0.1
-0.085
-0.125
-0.11
-0.245
-0.165
0.0
0.02
0.055
0.0
0.035
0.0
-0.1
-0.2
-0.115
-0.07
-0.07
-0.025
0.005
0.065
0.075
-0.09
-0.085
-0.2
-0.19
-0.175
0.03
0.04
0.075
-0.025
-0.045
-0.075
-0.05
-0.16
-0.175
-0.1
-0.15
0.0
0.02
0.11
-0.03
0.0
-0.2
-0.205
-0.245
-0.08
0.09
0.02
0.145
0.14
0.055
-0.09
-0.085
-0.13
-0.155
-0.145
0.09
0.035
0.09
-0.02
-0.025
-0.105
-0.195
-0.23
-0.175
-0.125
-0.02
0.08
0.065
0.05
-0.05
-0.065
-0.14
-0.25
-0.18
-0.185
-0.045
0.02
0.09
0.205
0.04
-0.05
-0.21
-0.205
-0.135
-0.125
-0.12
0.08
0.1
0.205
0.105
-0.01
-0.15
-0.07
-0.095
-0.095
0.03
0.205
0.16
0.115
-0.065
-0.05
-0.135
-0.18
-0.095
-0.135
-0.055
0.125
0.01
0.015
-0.04
-0.15
-0.2
-0.295
-0.15
-0.07
-0.025
0.13
0.12
0.03
-0.12
-0.07
-0.35
-0.295
-0.215
-0.015
-0.085
0.135
0.14
-0.035
-0.015
-0.1
-0.24
-0.265
-0.175
-0.095
-0.055
0.125
0.125
0.01
0.1
0.17
0.0
0.095
0.215
0.415
0.43
0.765
0.8
0.82
0.73
0.48
0.385
0.215
0.07
-0.085
-0.11
0.055
0.105
0.025
-0.065
-0.205
-0.21
-0.18
-0.185
-0.115
-0.005
0.09
0.015
0.17
-0.11
-0.155
-0.295
-0.235
-0.15
-0.05
0.01
0.085
0.0
0.06
0.035
-0.18
-0.185
-0.13
-0.165
-0.105
-0.075
0.165
0.095
-0.075
-0.045
-0.24
-0.205
-0.175
-0.08
0.035
0.045
0.07
0.09
-0.03
-0.035
-0.225
-0.135
-0.205
-0.125
-0.105
-0.08
0.105
0.075
0.155
-0.12
-0.22
-0.21
-0.23
-0.13
0.105
0.19
0.165
0.09
-0.025
-0.175
-0.19
-0.145
-0.135
-0.175
0.085
0.21
0.245
0.04
0.035
-0.055
-0.115
-0.165
-0.115
0.04
0.09
0.095
0.075
0.125
0.02
0.005
-0.045
-0.075
-0.175
0.005
0.115
0.175
0.18
0.01
0.045
0.005
-0.04
-0.1
-0.005
0.075
0.08
0.37
0.29
0.16
0.03
0.03
-0.01
-0.1
0.03
0.13
0.12
0.17
0.205
0.185
0.07
0.115
0.005
-0.015
-0.055
0.17
0.165
0.205
0.225
0.16
0.08
0.075
-0.125
-0.06
-0.02
0.115
0.09
0.125
0.09
0.085
-0.08
-0.085
-0.1
-0.14
-0.12
0.02
-0.03
0.07
0.185
0.06
-0.09
-0.05
-0.15
-0.2
-0.165
0.01
0.045
0.135
0.1
0.015
-0.085
-0.235
-0.265
-0.21
-0.24
-0.095
0.095
0.03
0.01
0.035
-0.03
-0.12
-0.155
-0.21
-0.165
-0.12
-0.045
-0.04
-0.025
0.115
-0.025
-0.08
-0.17
-0.145
-0.1
0.02
0.045
0.01
0.1
-0.09
-0.07
-0.17
-0.21
-0.2
-0.085
-0.02
0.145
0.11
0.05
0.055
-0.11
-0.2
-0.285
-0.24
-0.24
-0.05
0.165
0.105
0.05
-0.125
-0.095
-0.075
-0.225
-0.18
-0.09
-0.055
0.065
0.065
-0.005
0.07
0.04
-0.115
-0.37
-0.11
-0.165
-0.085
0.135
0.085
0.025
-0.09
-0.085
-0.225
-0.215
-0.255
-0.045
0.005
0.11
0.05
0.05
-0.125
-0.09
-0.24
-0.115
-0.185
-0.16
-0.07
-0.005
0.05
0.1
-0.115
-0.05
-0.155
-0.22
-0.135
-0.02
0.015
0.0
0.12
-0.045
-0.135
-0.09
-0.225
-0.165
-0.15
-0.08
-0.07
0.15
0.115
0.085
0.01
0.01
-0.18
-0.065
-0.12
-0.065
0.0
0.1
0.07
0.005
-0.135
-0.16
-0.21
-0.29
-0.03
0.015
0.015
0.075
0.01
0.035
-0.12
-0.17
-0.25
-0.17
-0.08
-0.085
-0.13
0.05
-0.025
-0.095
-0.125
-0.125
-0.22
-0.21
-0.17
-0.055
0.03
0.005
0.12
0.025
-0.15
-0.225
-0.265
-0.105
-0.195
-0.1
-0.02
0.075
0.285
0.29
0.28
0.13
0.135
0.09
0.41
0.67
0.62
0.78
0.58
0.355
0.335
0.025
-0.19
-0.32
-0.225
-0.17
-0.06
0.045
0.085
-0.11
-0.045
-0.225
-0.265
-0.165
-0.175
-0.05
0.075
0.085
0.075
-0.06
0.01
-0.14
-0.32
-0.2
-0.145
-0.07
-0.005
0.005
-0.005
-0.08
-0.14
-0.21
-0.165
-0.285
-0.195
0.015
0.23
0.13
0.07
0.115
-0.18
-0.325
-0.22
-0.18
-0.075
-0.04
0.115
0.1
0.075
0.0
-0.075
-0.12
-0.095
-0.13
-0.085
0.055
0.02
0.015
-0.045
-0.07
-0.075
-0.2
-0.245
-0.145
-0.16
0.0
0.17
0.19
0.14
0.0
-0.12
-0.22
-0.25
-0.24
-0.04
-0.1
0.14
0.215
0.21
-0.02
-0.155
-0.16
-0.12
-0.115
-0.035
0.05
0.115
0.16
0.11
0.025
0.055
0.1
-0.115
-0.07
-0.015
0.065
0.105
0.235
0.17
0.055
-0.02
-0.165
-0.11
0.0
0.09
0.16
0.235
0.195
0.05
0.14
0.195
0.05
0.035
0.045
0.01
0.105
0.185
0.255
0.185
0.09
0.07
0.005
0.01
-0.01
0.005
0.09
0.22
0.2
0.085
-0.025
-0.035
-0.045
-0.095
-0.095
-0.03
0.16
0.19
0.105
0.035
-0.075
-0.06
-0.125
-0.195
-0.135
-0.015
0.04
0.115
0.14
0.045
-0.13
-0.245
-0.135
-0.135
-0.07
-0.06
-0.02
-0.04
0.065
0.01
0.0
-0.13
-0.19
-0.115
-0.08
-0.06
0.045
0.12
0.07
-0.015
-0.105
-0.17
-0.205
-0.225
-0.125
-0.115
-0.02
0.065
0.095
-0.07
-0.135
-0.265
-0.27
-0.16
-0.155
-0.03
0.09
-0.01
0.035
-0.01
0.015
-0.115
-0.15
-0.22
-0.08
-0.065
0.045
-0.01
-0.07
-0.04
-0.08
-0.16
-0.2
-0.105
-0.125
-0.015
0.01
0.12
0.155
-0.065
-0.145
-0.185
-0.055
-0.08
-0.17
-0.08
0.16
-0.06
-0.08
-0.05
-0.135
-0.185
-0.205
-0.145
-0.095
-0.045
0.13
0.165
0.12
0.02
-0.015
-0.17
-0.28
-0.165
-0.14
-0.075
0.035
0.09
0.105
-0.165
-0.145
-0.295
-0.275
-0.12
-0.07
-0.005
0.09
0.045
-0.005
-0.01
-0.065
-0.24
-0.27
-0.215
-0.13
-0.115
0.025
0.095
0.14
-0.05
-0.105
-0.22
-0.085
-0.215
-0.095
-0.09
0.025
0.105
-0.01
-0.12
-0.175
-0.22
-0.105
-0.185
0.04
0.01
0.085
0.02
0.045
-0.08
-0.13
-0.22
-0.285
-0.165
0.11
0.105
0.06
0.105
0.155
0.035
-0.145
-0.175
-0.115
-0.005
-0.035
-0.035
0.045
-0.025
-0.095
-0.04
-0.12
-0.27
-0.24
-0.185
-0.075
-0.005
0.115
-0.06
-0.015
-0.05
-0.135
-0.245
-0.145
-0.11
-0.05
0.02
0.07
0.07
-0.005
-0.085
-0.185
-0.28
-0.22
-0.115
-0.11
-0.05
0.07
0.005
-0.095
-0.01
-0.11
-0.17
-0.145
0.06
0.06
0.365
0.45
0.47
0.435
0.53
0.565
0.525
0.465
0.515
0.35
0.36
0.155
0.045
-0.15
-0.085
-0.195
-0.23
-0.265
-0.195
-0.055
0.07
0.115
0.065
-0.005
-0.02
-0.14
-0.26
-0.24
-0.005
-0.065
-0.03
0.03
0.0
-0.015
-0.08
-0.21
-0.23
-0.24
-0.165
-0.125
0.135
0.055
0.04
-0.035
-0.04
-0.175
-0.11
-0.155
-0.125
-0.17
0.005
0.065
0.005
-0.055
0.025
-0.275
-0.21
-0.065
0.055
-0.02
0.015
0.155
0.055
-0.025
-0.105
-0.23
-0.235
-0.13
-0.07
-0.03
0.125
0.13
0.12
-0.045
-0.105
-0.235
-0.155
-0.135
-0.1
0.075
0.055
0.09
0.05
0.025
0.0
-0.13
-0.105
-0.055
-0.03
-0.065
0.155
0.155
0.015
0.005
-0.025
-0.13
-0.155
0.005
0.045
-0.025
0.2
0.12
0.095
-0.03
0.03
-0.085
-0.06
-0.065
0.1
0.2
0.245
0.26
0.105
0.07
-0.055
-0.09
0.025
-0.035
0.06
0.15
0.225
0.225
0.105
0.035
-0.025
-0.07
-0.05
0.015
0.105
0.085
0.25
0.31
0.145
0.0
0.03
-0.045
0.035
0.01
0.0
0.12
0.295
0.175
0.125
0.015
-0.09
-0.125
-0.105
0.035
0.03
0.015
0.07
0.15
-0.025
-0.065
-0.07
-0.19
-0.115
-0.105
-0.025
-0.03
0.055
0.025
-0.045
-0.14
-0.125
-0.28
-0.22
-0.045
-0.045
0.095
-0.045
0.11
-0.13
-0.12
-0.165
-0.115
-0.075
-0.085
-0.055
0.135
0.025
-0.03
-0.01
-0.005
-0.175
-0.265
-0.24
-0.15
0.05
0.09
0.035
0.025
-0.05
0.03
-0.165
-0.21
-0.155
-0.075
-0.03
0.05
0.07
0.005
-0.005
-0.225
-0.185
-0.175
-0.08
-0.095
-0.02
0.065
0.075
0.14
-0.09
-0.14
-0.235
-0.14
-0.185
-0.06
-0.005
0.005
0.15
0.1
0.005
-0.155
-0.17
-0.295
-0.215
-0.03
0.05
0.175
0.09
0.03
-0.04
-0.08
-0.255
-0.23
-0.155
-0.115
-0.13
0.12
0.06
0.035
-0.035
-0.15
-0.265
-0.235
-0.14
-0.07
-0.02
0.06
0.12
0.05
0.015
-0.135
-0.255
-0.235
-0.165
-0.045
-0.11
0.035
0.01
-0.045
-0.07
-0.045
-0.175
-0.165
-0.185
-0.02
-0.005
0.05
-0.03
-0.015
-0.075
-0.26
-0.185
-0.175
-0.23
-0.155
-0.01
0.045
-0.03
0.135
-0.1
-0.18
-0.23
-0.29
-0.03
-0.015
0.0
0.055
0.03
-0.045
-0.015
-0.215
-0.255
-0.205
-0.17
-0.075
0.03
0.09
0.09
0.025
0.055
-0.055
-0.235
-0.12
-0.125
-0.015
0.09
0.08
0.145
0.065
0.02
-0.155
-0.175
-0.225
-0.09
-0.045
0.01
-0.06
-0.05
-0.02
-0.175
-0.165
-0.11
-0.115
-0.09
-0.12
0.025
0.125
0.02
-0.115
-0.105
-0.21
-0.275
-0.135
-0.22
0.115
0.075
0.035
-0.04
-0.065
-0.11
-0.24
-0.3
-0.175
-0.17
-0.085
0.04
0.085
0.03
0.055
0.02
-0.075
-0.065
-0.015
0.125
0.235
0.415
0.465
0.635
0.675
0.675
0.6
0.44
0.415
0.335
0.155
0.045
0.05
-0.085
-0.015
-0.075
-0.225
-0.31
-0.155
-0.155
-0.03
0.075
0.055
0.05
-0.12
-0.15
-0.16
-0.295
-0.1
-0.115
-0.055
0.015
0.005
0.09
-0.025
-0.09
-0.28
-0.25
-0.22
-0.14
-0.015
0.08
-0.035
-0.05
-0.035
-0.325
-0.125
-0.13
-0.08
-0.03
0.065
0.075
0.12
0.07
-0.11
-0.19
-0.26
-0.205
-0.125
-0.075
0.005
0.045
0.065
0.07
0.04
0.035
-0.23
-0.17
-0.055
-0.055
-0.02
0.035
-0.005
0.03
-0.16
-0.175
-0.07
-0.205
-0.135
0.0
0.02
0.18
0.125
-0.065
0.02
0.02
-0.115
-0.115
-0.15
-0.055
0.08
0.08
0.055
0.02
-0.19
-0.18
-0.255
-0.02
0.045
0.07
0.105
0.31
0.195
0.105
-0.055
-0.105
-0.045
-0.04
0.035
0.08
0.125
0.185
0.265
0.09
0.06
-0.075
-0.115
-0.015
-0.005
0.055
0.22
0.315
0.19
0.12
0.035
-0.09
0.02
-0.055
0.075
0.065
0.24
0.135
0.08
0.08
-0.01
-0.05
0.1
-0.045
-0.005
0.11
0.18
0.11
0.185
0.045
-0.085
-0.145
-0.205
-0.105
0.06
0.035
0.17
0.17
0.08
-0.06
-0.04
-0.11
-0.295
-0.195
-0.115
-0.005
0.115
0.065
0.02
-0.105
-0.035
-0.195
-0.24
0.01
-0.055
-0.005
0.01
0.03
-0.05
-0.25
-0.19
-0.205
-0.175
-0.17
-0.015
-0.025
-0.035
0.055
0.13
-0.07
-0.1
-0.3
-0.24
-0.17
-0.035
0.065
0.005
-0.02
0.055
0.025
-0.1
-0.25
-0.195
-0.135
-0.115
-0.08
0.035
0.035
0.11
0.01
-0.03
-0.24
-0.21
-0.065
-0.01
0.08
0.055
0.005
-0.075
-0.095
-0.19
-0.26
-0.215
-0.08
-0.025
-0.015
0.135
0.095
-0.105
-0.065
-0.15
-0.23
-0.185
-0.075
0.02
-0.07
0.03
0.02
-0.005
-0.06
-0.22
-0.235
-0.2
-0.06
-0.06
0.17
0.0
0.04
-0.035
-0.08
-0.205
-0.235
-0.09
-0.07
-0.055
0.02
0.14
0.155
-0.035
-0.14
-0.26
-0.27
-0.27
-0.1
-0.075
0.07
0.125
0.095
0.055
-0.085
-0.24
-0.145
-0.255
-0.015
-0.1
-0.04
-0.005
-0.025
-0.1
-0.085
-0.255
-0.205
-0.155
-0.155
-0.075
0.235
0.015
0.06
-0.005
-0.2
-0.26
-0.29
-0.2
-0.035
-0.02
0.095
0.075
0.05
-0.045
-0.125
-0.285
-0.22
-0.175
-0.155
-0.045
0.055
0.13
0.025
-0.14
-0.12
-0.195
-0.19
-0.23
-0.13
0.01
0.11
0.065
0.03
-0.05
-0.12
-0.255
-0.17
-0.14
-0.045
0.125
0.175
0.125
0.145
0.03
-0.1
-0.21
-0.175
-0.145
-0.145
0.025
0.235
0.09
-0.025
-0.015
-0.055
-0.315
-0.245
-0.185
-0.05
-0.035
0.035
0.02
-0.055
-0.12
-0.09
-0.315
-0.345
-0.105
-0.075
-0.035
0.055
0.065
-0.095
-0.06
-0.14
-0.28
-0.325
-0.16
0.02
-0.095
0.035
0.11
0.015
-0.095
-0.085
-0.175
-0.24
-0.185
0.065
0.225
0.295
0.39
0.345
0.36
0.335
0.33
0.485
0.545
0.69
0.565
0.645
0.545
0.135
-0.065
-0.27
-0.305
-0.33
-0.195
-0.16
0.005
-0.045
0.075
-0.06
-0.07
-0.12
-0.225
-0.22
-0.075
-0.035
0.02
0.05
0.04
-0.035
-0.01
-0.115
-0.24
-0.17
-0.105
-0.03
0.18
0.135
-0.015
-0.125
-0.085
-0.205
-0.355
-0.245
-0.08
-0.06
-0.02
0.175
0.03
-0.055
-0.11
-0.275
-0.26
-0.165
0.055
-0.11
0.125
-0.035
0.06
-0.08
-0.16
-0.115
-0.175
-0.16
-0.105
-0.045
0.09
0.04
0.14
-0.01
-0.145
-0.19
-0.19
-0.215
0.01
0.005
0.155
0.145
0.04
-0.03
-0.06
-0.135
-0.175
-0.17
-0.07
0.035
0.095
0.14
0.06
0.055
0.055
-0.145
-0.125
-0.065
-0.045
-0.035
0.12
0.225
0.12
0.02
0.015
-0.035
-0.07
0.03
0.09
0.095
0.13
0.225
0.12
0.09
-0.01
-0.185
-0.145
0.015
0.14
0.035
0.155
0.175
0.04
0.135
0.025
-0.01
-0.09
0.035
0.1
0.145
0.145
0.27
0.135
0.1
0.035
-0.07
-0.03
0.055
0.135
0.065
0.19
0.12
0.08
-0.075
0.04
-0.09
-0.03
0.025
0.085
0.19
0.185
0.205
0.0
-0.01
-0.05
-0.17
-0.21
-0.175
-0.035
0.035
-0.04
0.01
-0.08
-0.135
-0.255
-0.17
-0.14
-0.075
-0.035
-0.005
0.11
0.145
0.02
-0.05
-0.25
-0.235
-0.24
-0.175
-0.17
0.055
0.27
0.1
0.005
-0.13
-0.21
-0.35
-0.23
-0.11
-0.065
0.07
0.115
0.06
0.045
-0.165
-0.225
-0.27
-0.275
-0.11
-0.045
0.015
0.085
0.09
-0.075
-0.1
-0.26
-0.17
-0.095
-0.135
-0.095
0.065
0.01
-0.01
-0.14
-0.145
-0.215
-0.21
-0.21
0.015
-0.05
0.055
0.12
-0.035
0.045
-0.045
-0.24
-0.23
-0.185
-0.05
-0.045
0.07
0.15
0.05
-0.09
-0.065
-0.255
-0.25
-0.19
-0.135
-0.1
0.14
0.015
-0.065
-0.12
-0.065
-0.22
-0.165
-0.13
-0.04
-0.065
-0.005
-0.085
-0.06
-0.055
-0.035
-0.15
-0.175
-0.245
-0.075
-0.085
0.015
0.06
0.035
-0.04
-0.065
-0.185
-0.175
-0.12
-0.13
-0.02
-0.06
0.045
-0.095
-0.125
-0.165
-0.105
-0.22
-0.21
-0.105
-0.005
0.095
0.065
-0.045
-0.1
-0.185
-0.235
-0.225
-0.275
-0.08
-0.065
-0.03
-0.03
-0.075
-0.2
-0.21
-0.305
-0.26
-0.205
-0.05
0.115
0.085
0.19
0.075
-0.095
-0.125
-0.29
-0.335
-0.205
0.01
0.015
-0.01
0.12
-0.06
-0.01
-0.11
-0.175
-0.145
-0.075
-0.05
0.055
0.13
0.13
0.005
-0.09
-0.22
-0.27
-0.235
-0.105
-0.075
0.025
0.075
-0.015
-0.04
-0.07
-0.29
-0.255
-0.2
-0.225
-0.12
0.0
0.045
-0.03
-0.01
-0.165
-0.17
-0.215
-0.33
-0.17
-0.04
-0.005
0.035
-0.035
-0.155
-0.175
-0.205
-0.235
-0.11
-0.1
-0.08
0.08
0.11
0.04
-0.02
-0.11
-0.195
-0.155
-0.04
0.125
0.315
0.385
0.475
0.52
0.575
0.6
0.595
0.24
0.28
0.27
0.1
-0.06
-0.1
-0.08
-0.185
-0.355
-0.305
-0.205
-0.205
-0.085
-0.095
0.005
0.02
-0.045
-0.095
-0.14
-0.24
-0.315
-0.175
-0.025
-0.045
0.115
0.06
-0.015
0.005
-0.08
-0.135
-0.245
-0.19
-0.2
-0.09
0.01
-0.02
-0.01
-0.09
-0.03
-0.22
-0.2
-0.235
-0.155
-0.055
0.135
0.12
0.03
-0.125
-0.21
-0.35
-0.32
-0.14
-0.035
-0.06
0.04
0.135
0.085
-0.035
-0.08
-0.17
-0.165
-0.155
0.015
-0.005
0.04
0.045
0.045
-0.07
-0.225
-0.235
-0.22
-0.12
0.03
0.11
0.15
0.075
0.035
-0.13
-0.175
-0.32
-0.125
-0.125
-0.06
0.11
0.065
-0.025
0.07
-0.095
-0.15
-0.08
-0.125
0.025
0.125
0.105
0.14
0.255
0.06
0.08
-0.1
-0.105
-0.05
0.005
0.045
0.07
0.15
0.195
0.06
0.095
-0.03
-0.085
0.005
0.015
0.185
0.175
0.24
0.205
0.115
-0.015
-0.17
-0.04
-0.025
-0.05
0.045
0.22
0.205
0.16
0.125
-0.04
-0.13
-0.11
-0.1
0.025
0.115
0.22
0.395
0.27
0.045
-0.02
-0.23
-0.26
-0.165
-0.02
0.045
0.1
0.11
-0.025
-0.04
-0.005
-0.09
-0.12
-0.135
-0.115
-0.055
0.08
0.04
0.02
-0.02
-0.135
-0.26
-0.325
-0.155
-0.185
-0.155
0.075
0.035
0.02
-0.07
-0.145
-0.27
-0.25
-0.155
-0.01
-0.025
0.01
-0.035
-0.07
-0.085
-0.06
-0.105
-0.25
-0.185
-0.11
-0.07
0.095
-0.02
0.01
-0.095
-0.05
-0.22
-0.15
-0.145
-0.135
-0.08
0.04
0.11
-0.05
-0.05
-0.06
-0.265
-0.255
-0.15
-0.045
-0.095
0.075
0.005
0.07
-0.09
-0.145
-0.25
-0.21
-0.17
0.0
-0.045
0.165
0.01
-0.06
-0.045
-0.12
-0.18
-0.13
-0.17
-0.055
-0.035
0.08
0.125
-0.03
-0.04
-0.255
-0.255
-0.235
-0.2
-0.135
-0.11
0.065
0.045
-0.02
-0.09
-0.195
-0.3
-0.16
-0.115
0.015
0.055
0.105
0.0
-0.14
-0.115
-0.24
-0.33
-0.24
-0.105
-0.085
0.135
0.1
0.0
-0.005
-0.005
-0.13
-0.235
-0.18
-0.195
-0.075
-0.02
0.035
-0.055
-0.065
-0.11
-0.17
-0.235
-0.255
-0.03
-0.08
0.005
0.065
0.045
-0.05
-0.125
-0.26
-0.185
-0.26
-0.255
-0.005
-0.065
0.055
-0.01
-0.015
-0.125
-0.155
-0.185
-0.155
-0.195
-0.08
0.155
0.1
0.08
0.035
-0.11
-0.11
-0.215
-0.14
-0.085
-0.005
0.155
0.12
0.03
-0.055
-0.145
-0.225
-0.23
-0.295
-0.165
-0.115
0.03
0.05
-0.08
-0.095
-0.21
-0.2
-0.145
-0.13
-0.05
-0.04
0.145
-0.09
0.0
-0.125
-0.26
-0.295
-0.275
-0.225
-0.165
-0.01
0.085
0.06
0.025
-0.01
-0.065
-0.23
-0.375
-0.1
-0.03
0.1
0.12
0.195
0.13
0.17
0.235
0.185
0.26
0.45
0.725
0.665
0.64
0.605
0.5
0.295
-0.05
-0.34
-0.31
-0.32
-0.2
-0.185
0.04
0.075
-0.04
-0.16
-0.34
-0.37
-0.23
-0.14
-0.005
0.07
0.08
0.025
-0.04
-0.105
-0.18
-0.275
-0.19
-0.04
-0.02
0.02
0.115
0.07
-0.045
-0.18
-0.145
-0.23
-0.195
-0.23
-0.06
0.14
0.105
-0.02
-0.005
-0.125
-0.14
-0.23
-0.265
-0.16
0.02
0.11
0.07
0.045
-0.015
-0.105
-0.265
-0.325
-0.165
-0.11
-0.225
-0.035
0.065
0.02
0.01
-0.055
-0.165
-0.13
-0.005
-0.065
-0.005
0.07
0.065
0.13
0.075
-0.035
-0.145
-0.195
-0.22
-0.095
0.07
0.1
0.125
0.05
-0.005
0.005
-0.18
-0.18
-0.075
-0.01
0.0
0.075
0.085
0.145
0.03
0.065
-0.1
-0.105
-0.075
0.02
-0.04
0.12
0.09
0.22
0.025
0.055
-0.08
0.02
-0.08
0.1
0.065
0.255
0.12
0.21
0.04
0.155
-0.095
-0.11
0.03
0.04
0.22
0.33
0.16
0.16
0.21
0.04
-0.165
-0.085
-0.07
0.045
0.03
0.21
0.185
0.17
0.065
0.005
-0.125
-0.11
-0.02
0.045
0.015
0.17
0.14
0.045
-0.03
-0.075
-0.175
-0.17
-0.145
0.01
-0.02
0.13
0.045
0.02
-0.06
-0.195
-0.19
-0.25
-0.155
0.03
-0.05
0.055
0.1
-0.115
-0.165
-0.165
-0.205
-0.235
-0.115
-0.01
0.055
0.005
0.03
-0.015
-0.045
-0.19
-0.275
-0.23
-0.295
-0.215
0.075
0.08
0.065
-0.065
-0.115
-0.145
-0.23
-0.09
-0.12
-0.105
-0.005
0.075
-0.005
-0.025
-0.155
-0.105
-0.13
-0.2
-0.06
-0.06
0.045
0.095
0.025
-0.075
-0.135
-0.12
-0.21
-0.2
-0.035
-0.025
-0.005
0.055
-0.005
-0.025
-0.2
-0.34
-0.195
-0.17
-0.08
0.05
0.03
-0.005
0.16
-0.025
-0.04
-0.15
-0.185
-0.155
-0.105
-0.055
0.045
0.075
0.07
-0.05
-0.175
-0.31
-0.195
-0.175
-0.09
-0.12
0.105
0.045
0.005
-0.025
-0.125
-0.195
-0.155
-0.18
-0.15
-0.03
-0.045
0.075
-0.005
-0.095
-0.25
-0.175
-0.235
-0.24
-0.08
-0.015
0.04
0.08
-0.02
0.01
-0.21
-0.27
-0.24
-0.095
-0.05
-0.07
0.115
0.03
-0.02
-0.115
-0.185
-0.185
-0.245
-0.13
-0.035
-0.02
0.075
0.07
0.015
-0.06
-0.17
-0.195
-0.175
-0.165
-0.11
-0.04
0.085
-0.01
0.035
-0.095
-0.13
-0.135
-0.205
-0.23
-0.115
-0.1
0.065
-0.05
-0.035
-0.03
-0.09
-0.19
-0.17
-0.14
-0.085
-0.075
0.035
0.16
0.11
-0.035
-0.105
-0.23
-0.18
-0.11
-0.16
0.015
0.04
0.04
0.06
-0.03
-0.195
-0.215
-0.155
-0.075
-0.03
0.005
0.09
0.01
0.005
-0.145
-0.16
-0.205
-0.19
-0.165
-0.095
0.02
0.11
-0.005
-0.02
-0.15
-0.15
-0.235
-0.29
-0.235
-0.145
0.005
0.135
0.015
0.03
-0.08
-0.205
-0.225
-0.145
-0.245
-0.035
0.055
0.31
0.25
0.14
0.245
0.135
0.275
0.34
0.53
0.74
0.725
0.655
0.575
0.345
0.19
-0.055
-0.205
-0.175
-0.13
-0.075
-0.065
0.035
-0.015
-0.04
-0.135
-0.17
-0.325
-0.175
-0.105
-0.09
0.01
0.1
-0.095
-0.02
-0.09
-0.305
-0.275
-0.275
-0.22
-0.065
0.09
-0.03
0.015
-0.09
-0.065
-0.175
-0.225
-0.17
-0.045
-0.09
0.065
0.05
0.0
-0.045
-0.145
-0.205
-0.205
-0.03
-0.16
-0.1
0.075
0.03
0.08
0.065
-0.11
-0.31
-0.195
-0.195
-0.105
-0.015
0.135
0.105
0.1
0.04
-0.125
-0.255
-0.18
-0.215
-0.11
-0.045
0.155
0.005
-0.015
-0.005
-0.11
-0.175
-0.185
-0.155
-0.05
-0.02
0.11
0.14
0.085
-0.16
-0.055
-0.2
-0.175
-0.035
0.13
0.035
0.055
0.145
0.075
0.02
-0.125
-0.2
-0.065
-0.065
0.07
-0.01
0.155
0.165
0.03
0.09
-0.03
-0.055
-0.16
-0.08
0.045
0.15
0.3
0.145
0.175
0.045
0.0
-0.06
-0.055
-0.1
0.03
0.03
0.11
0.18
0.16
0.23
0.06
-0.075
-0.065
-0.005
0.05
0.165
0.155
0.135
0.075
-0.035
-0.05
-0.115
-0.08
-0.015
0.075
0.17
0.205
0.06
0.085
0.0
-0.13
-0.28
-0.225
-0.115
-0.125
-0.01
0.15
0.06
0.005
-0.18
-0.18
-0.285
-0.23
-0.05
-0.025
0.02
0.015
0.025
0.025
-0.15
-0.24
-0.2
-0.3
-0.065
-0.135
0.055
0.085
0.09
-0.13
-0.19
-0.295
-0.245
-0.22
-0.015
-0.105
0.07
0.04
0.0
-0.055
-0.17
-0.255
-0.225
-0.235
-0.08
0.02
0.05
-0.055
-0.01
-0.015
-0.23
-0.265
-0.165
-0.17
-0.125
-0.015
0.015
-0.06
-0.06
-0.115
-0.18
-0.26
-0.205
-0.155
-0.04
-0.025
0.0
0.36
0.07
-0.13
-0.14
-0.28
-0.34
-0.2
-0.055
-0.045
0.0
0.075
-0.07
-0.09
-0.13
-0.28
-0.17
-0.105
-0.065
-0.005
0.085
0.06
0.05
0.005
-0.165
-0.31
-0.305
-0.155
-0.115
-0.14
-0.045
-0.025
0.05
-0.04
-0.145
-0.23
-0.255
-0.185
-0.13
-0.115
0.09
0.07
-0.07
-0.15
-0.16
-0.25
-0.245
-0.16
-0.125
0.025
0.025
0.15
0.01
-0.065
-0.15
-0.24
-0.31
-0.19
-0.05
-0.055
-0.05
0.01
-0.08
-0.175
-0.15
-0.27
-0.19
-0.11
-0.105
-0.005
0.095
0.05
-0.04
-0.13
-0.28
-0.305
-0.245
-0.15
-0.07
0.015
0.095
0.08
-0.025
-0.205
-0.225
-0.16
-0.125
-0.15
-0.165
0.09
0.12
0.085
0.115
0.045
-0.155
-0.2
-0.08
-0.095
-0.09
0.045
-0.025
-0.02
-0.14
-0.22
-0.285
-0.25
-0.31
-0.1
-0.03
0.06
0.055
0.05
-0.06
-0.135
-0.25
-0.215
-0.23
-0.1
-0.12
0.02
-0.03
-0.005
-0.05
-0.155
-0.295
-0.16
-0.235
-0.095
-0.14
0.045
0.0
-0.1
-0.045
-0.065
-0.12
-0.105
-0.01
0.135
0.245
0.41
0.425
0.61
0.655
0.645
0.39
0.3
0.37
0.255
-0.035
0.005
0.0
-0.025
-0.115
-0.11
-0.205
-0.23
-0.195
-0.1
-0.155
0.02
0.005
-0.015
-0.06
-0.15
-0.25
-0.23
-0.21
-0.085
-0.045
0.045
0.035
-0.01
-0.185
-0.21
-0.22
-0.245
-0.12
-0.1
-0.03
0.115
0.035
-0.14
-0.115
-0.23
-0.34
-0.245
-0.165
-0.08
-0.1
0.18
0.165
-0.07
-0.02
-0.13
-0.275
-0.31
-0.12
-0.115
-0.065
0.0
0.0
-0.01
-0.045
-0.09
-0.25
-0.225
-0.105
-0.05
0.03
0.175
0.06
-0.05
-0.1
-0.095
-0.205
-0.27
-0.27
-0.195
0.03
0.12
0.075
0.115
0.015
-0.115
-0.23
-0.205
-0.095
-0.09
0.075
0.01
0.085
0.0
-0.165
-0.07
-0.09
-0.18
-0.01
0.01
0.11
0.24
0.18
0.015
0.05
-0.095
-0.01
-0.07
0.01
-0.025
0.115
0.28
0.185
0.085
0.05
-0.075
-0.085
-0.06
-0.005
-0.005
0.175
0.275
0.175
0.105
-0.065
-0.18
-0.035
0.005
0.06
0.185
0.26
0.255
0.14
0.035
0.07
-0.09
-0.055
-0.085
0.015
0.03
0.165
0.155
0.115
0.035
-0.015
-0.235
-0.165
-0.065
-0.145
-0.045
0.16
0.1
0.155
-0.015
-0.11
-0.25
-0.215
-0.125
-0.085
-0.025
0.125
0.065
0.015
-0.105
-0.075
-0.355
-0.14
-0.105
-0.075
-0.13
0.025
0.03
-0.01
-0.16
-0.085
-0.2
-0.25
-0.25
-0.19
0.06
0.07
0.055
0.005
-0.145
-0.165
-0.23
-0.295
-0.13
0.01
0.005
0.09
-0.005
-0.025
-0.115
-0.095
-0.285
-0.24
-0.1
-0.04
0.1
0.13
0.14
-0.13
-0.155
-0.12
-0.175
-0.265
-0.135
-0.09
0.08
0.155
0.1
-0.025
-0.125
-0.195
-0.275
-0.115
-0.08
-0.04
-0.035
0.155
0.095
0.035
-0.09
-0.16
-0.195
-0.195
-0.25
-0.025
-0.03
0.065
0.07
0.04
-0.09
-0.195
-0.19
-0.1
-0.06
-0.155
0.0
0.04
0.04
-0.125
-0.015
-0.16
-0.135
-0.255
-0.12
-0.05
0.09
0.105
0.02
-0.065
-0.1
-0.15
-0.25
-0.195
-0.125
-0.06
0.095
0.115
0.015
0.015
-0.02
-0.2
-0.195
-0.135
-0.09
-0.02
0.115
0.105
0.075
-0.095
-0.085
-0.23
-0.2
-0.145
-0.06
0.04
0.085
0.075
-0.02
0.025
-0.16
-0.205
-0.165
-0.115
-0.105
-0.035
0.115
0.14
0.15
0.045
0.075
-0.105
-0.225
-0.115
-0.05
-0.025
0.135
0.225
0.32
-0.035
-0.035
-0.13
-0.165
-0.14
-0.08
0.005
0.115
0.075
0.1
0.02
-0.065
-0.04
-0.145
-0.17
-0.195
0.02
0.045
0.075
0.075
0.005
-0.095
-0.11
-0.185
-0.145
-0.045
-0.01
0.17
0.065
-0.095
-0.1
-0.13
-0.165
-0.16
-0.16
0.045
0.0
0.175
0.23
0.205
0.28
0.265
0.19
0.27
0.42
0.57
0.69
0.895
0.89
0.61
0.49
0.455
0.13
0.03
-0.085
-0.095
-0.12
0.01
0.135
0.085
0.06
0.025
-0.195
-0.165
0.05
-0.02
0.045
0.22
0.125
0.14
0.125
-0.045
-0.28
-0.08
0.055
0.135
0.06
0.23
0.135
0.06
0.01
-0.135
-0.205
-0.125
0.03
0.065
0.035
0.265
0.17
0.075
-0.04
-0.125
-0.085
-0.13
-0.13
0.07
0.195
0.275
0.275
0.125
-0.02
-0.05
-0.075
-0.06
0.02
0.14
0.185
0.14
0.155
0.17
0.18
-0.015
0.01
-0.015
0.025
0.16
0.245
0.315
0.285
0.185
0.08
0.0
0.03
-0.025
-0.015
0.14
0.23
0.275
0.27
0.215
0.165
0.02
0.075
0.175
0.085
0.1
0.33
0.17
0.27
0.24
0.21
0.005
0.08
0.065
0.195
0.205
0.38
0.31
0.31
0.235
0.265
0.145
0.12
0.15
0.275
0.32
0.435
0.41
0.275
0.315
0.195
0.135
0.175
0.18
0.31
0.27
0.425
0.44
0.45
0.37
0.25
0.22
0.095
0.23
0.28
0.325
0.41
0.395
0.29
0.28
0.21
0.075
0.175
0.235
0.225
0.23
0.305
0.285
0.235
0.2
0.17
0.085
0.095
0.145
0.155
0.28
0.265
0.29
0.25
0.14
0.04
0.015
0.05
0.08
0.2
0.245
0.28
0.205
0.215
0.18
0.145
0.085
0.06
0.215
0.13
0.095
0.285
0.305
0.2
0.2
0.125
-0.075
-0.05
0.145
0.11
0.255
0.36
0.325
0.12
0.06
0.09
-0.09
0.05
0.095
0.2
0.275
0.4
0.435
0.13
0.175
0.005
0.04
0.13
0.125
0.175
0.26
0.265
0.315
0.3
0.145
-0.02
-0.025
-0.015
0.1
0.155
0.205
0.395
0.335
0.185
0.195
0.095
-0.045
0.025
0.065
0.19
0.225
0.295
0.18
0.205
0.185
0.01
-0.075
0.005
0.145
0.145
0.245
0.25
0.22
0.145
0.13
0.055
-0.045
0.085
0.055
0.145
0.31
0.23
0.16
0.11
0.12
0.01
-0.045
-0.05
0.04
0.24
0.285
0.25
0.185
0.18
0.085
-0.055
-0.06
-0.04
0.02
0.115
0.18
0.2
0.2
0.165
0.04
-0.08
-0.135
-0.15
-0.11
0.03
0.25
0.285
0.305
-0.025
0.07
-0.025
0.07
0.07
0.005
0.035
0.22
0.255
0.145
0.145
0.04
-0.065
-0.07
-0.075
0.1
0.04
0.025
0.085
0.08
-0.01
-0.135
-0.19
-0.25
-0.115
-0.045
0.05
0.15
0.135
0.025
0.04
-0.115
-0.3
-0.325
-0.23
-0.13
-0.14
0.07
0.135
0.03
-0.02
-0.085
-0.135
-0.26
-0.235
-0.195
-0.05
0.145
0.17
0.03
0.045
0.015
0.025
-0.075
0.18
0.345
0.49
0.785
0.645
0.57
0.44
0.29
0.1
-0.095
-0.27
-0.405
-0.32
-0.21
-0.04
-0.065
-0.245
-0.245
-0.29
-0.32
-0.29
-0.3
-0.095
0.04
0.025
-0.085
-0.15
-0.34
-0.39
-0.46
-0.38
-0.35
-0.195
-0.08
-0.19
-0.235
-0.36
-0.37
-0.36
-0.34
-0.33
-0.195
-0.215
-0.165
-0.25
-0.22
-0.27
-0.33
-0.405
-0.34
-0.435
-0.315
-0.23
-0.17
-0.22
-0.225
-0.4
-0.525
-0.39
-0.355
-0.37
-0.37
-0.23
-0.24
-0.27
-0.28
-0.42
-0.565
-0.475
-0.47
-0.455
-0.365
-0.265
-0.21
-0.345
-0.37
-0.445
-0.53
-0.555
-0.425
-0.38
-0.355
-0.165
-0.25
-0.315
-0.355
-0.33
-0.525
-0.47
-0.535
-0.39
-0.38
-0.35
-0.275
-0.41
-0.485
-0.43
-0.61
-0.595
-0.39
-0.455
-0.49
-0.38
-0.34
-0.315
-0.36
-0.365
-0.41
-0.51
-0.46
-0.465
-0.43
-0.215
-0.35
-0.345
-0.425
-0.525
-0.645
-0.6
-0.52
-0.345
-0.31
-0.33
-0.22
-0.365
-0.535
-0.555
-0.68
-0.63
-0.495
-0.36
-0.34
-0.245
-0.34
-0.405
-0.55
-0.665
-0.71
-0.72
-0.65
-0.585
-0.495
-0.405
-0.53
-0.41
-0.57
-0.61
-0.79
-0.95
-0.825
-0.74
-0.64
-0.49
-0.495
-0.59
-0.62
-0.72
-0.805
-0.89
-0.755
-0.745
-0.645
-0.655
-0.765
-0.69
-0.83
-0.875
-0.88
-0.91
-0.83
-0.81
-0.75
-0.72
-0.67
-0.745
-0.775
-0.87
-0.89
-0.905
-0.805
-0.93
-0.835
-0.725
-0.77
-0.84
-0.86
-0.95
-1.055
-1.035
-0.82
-0.84
-0.81
-0.83
-0.91
-0.915
-0.81
-0.99
-0.955
-0.96
-0.955
-0.96
-0.785
-0.7
-0.76
-0.83
-0.94
-1.02
-1.015
-1.04
-0.9
-0.87
-0.905
-0.815
-0.815
-0.98
-0.94
-1.04
-1.065
-1.16
-0.975
-0.925
-0.88
-0.83
-0.88
-0.96
-0.995
-1.135
-1.12
-1.055
-1.04
-1.07
-0.965
-0.865
-0.87
-1.03
-1.04
-1.155
-1.235
-1.15
-1.065
-1.01
-0.855
-0.945
-1.07
-1.015
-0.99
-1.22
-1.13
-1.12
-1.09
-1.015
-0.9
-0.955
-1.015
-1.055
-1.14
-1.32
-1.2
-1.14
-1.0
-1.11
-1.01
-0.97
-1.04
-1.085
-1.13
-1.325
-1.205
-1.12
-1.07
-1.05
-0.88
-0.91
-1.01
-1.175
-1.16
-1.23
-1.37
-1.265
-1.01
-1.08
-1.065
-0.965
-1.02
-1.135
-1.18
-1.31
-1.305
-1.225
-1.18
-1.185
-1.04
-1.005
-1.04
-1.18
-1.285
-1.325
-1.405
-1.3
-1.25
-1.255
-1.135
-1.15
-1.19
-1.26
-1.325
-1.33
-1.335
-1.28
-1.3
-1.195
-1.03
-1.25
-1.04
-1.275
-1.295
-1.255
-1.185
-1.03
-0.9
-0.835
-0.67
-0.775
-0.7
-0.7
-0.7
-0.71
-0.86
-0.72
-0.725
-0.83
-0.88
-1.18
-1.305
-1.385
-1.58
-1.56
-1.425
-1.24
-1.21
-1.195
-1.2
-1.195
-1.355
-1.41
-1.46
-1.55
-1.48
-1.34
-1.19
-1.155
-1.03
-1.16
-1.275
-1.39
-1.465
-1.43
-1.44
-1.34
-1.165
-1.085
-1.15
-1.335
-1.21
-1.42
-1.445
-1.465
-1.325
-1.26
-1.28
-1.285
-1.21
-1.19
-1.355
-1.39
-1.485
-1.56
-1.485
-1.405
-1.37
-1.19
-1.19
-1.125
-1.255
-1.27
-1.565
-1.47
-1.425
-1.29
-1.3
-1.275
-1.345
-1.305
-1.285
-1.33
-1.445
-1.4
-1.54
-1.405
-1.325
-1.105
-1.205
-1.245
-1.255
-1.38
-1.43
-1.48
-1.425
-1.35
-1.32
-1.26
-1.205
-1.385
-1.34
-1.4
-1.425
-1.35
-1.335
-1.445
-1.355
-1.21
-1.265
-1.25
-1.355
-1.325
-1.38
-1.375
-1.36
-1.29
-1.265
-1.19
-1.085
-1.18
-1.315
-1.32
-1.395
-1.445
-1.37
-1.25
-1.215
-1.06
-1.175
-1.195
-1.295
-1.27
-1.375
-1.415
-1.29
-1.23
-1.19
-1.1
-1.18
-1.255
-1.305
-1.36
-1.435
-1.43
-1.345
-1.335
-1.21
-1.215
-1.175
-1.195
-1.4
-1.465
-1.625
-1.565
-1.545
-1.34
-1.375
-1.26
-1.345
-1.4
-1.435
-1.545
-1.47
-1.565
-1.46
-1.42
-1.335
-1.32
-1.38
-1.45
-1.345
-1.52
-1.64
-1.625
-1.68
-1.515
-1.265
-1.3
-1.355
-1.425
-1.425
-1.655
-1.65
-1.53
-1.61
-1.455
-1.35
-1.34
-1.385
-1.515
-1.47
-1.585
-1.635
-1.605
-1.545
-1.5
-1.56
-1.27
-1.325
-1.42
-1.51
-1.665
-1.64
-1.6
-1.62
-1.505
-1.35
-1.42
-1.33
-1.445
-1.55
-1.61
-1.585
-1.645
-1.44
-1.425
-1.405
-1.41
-1.41
-1.47
-1.58
-1.64
-1.665
-1.6
-1.495
-1.43
-1.31
-1.27
-1.425
-1.425
-1.53
-1.6
-1.67
-1.71
-1.4
-1.37
-1.41
-1.49
-1.385
-1.575
-1.67
-1.73
-1.705
-1.55
-1.49
-1.48
-1.265
-1.3
-1.43
-1.46
-1.575
-1.705
-1.555
-1.58
-1.465
-1.52
-1.425
-1.51
-1.495
-1.565
-1.56
-1.66
-1.63
-1.65
-1.52
-1.43
-1.36
-1.415
-1.435
-1.505
-1.6
-1.69
-1.66
-1.565
-1.605
-1.52
-1.425
-1.34
-1.49
-1.565
-1.57
-1.705
-1.65
-1.515
-1.57
-1.4
-1.4
-1.395
-1.4
-1.54
-1.6
-1.78
-1.745
-1.57
-1.56
-1.53
-1.445
-1.465
-1.565
-1.49
-1.445
-1.485
-1.49
-1.655
-1.445
-1.385
-1.305
-1.385
-1.56
-1.515
-1.47
-1.68
-1.595
-1.6
-1.49
-1.385
-1.39
-1.4
-1.47
-1.615
-1.63
-1.695
-1.755
-1.665
-1.53
-1.435
-1.31
-1.515
-1.5
-1.57
-1.72
-1.775
-1.835
-1.59
-1.48
-1.515
-1.35
-1.45
-1.57
-1.53
-1.655
-1.715
-1.675
-1.685
-1.48
-1.465
-1.445
-1.445
-1.51
-1.47
-1.415
-1.42
-1.32
-1.32
-1.275
-1.095
-0.965
-0.925
-0.77
-0.805
-0.985
-1.105
-1.22
-1.155
-1.34
-1.35
-1.425
-1.5
-1.45
-1.475
-1.655
-1.725
-1.64
-1.515
-1.525
-1.44
-1.445
-1.5
-1.53
-1.59
-1.715
-1.745
-1.665
-1.505
-1.5
-1.4
-1.41
-1.48
-1.53
-1.53
-1.695
-1.695
-1.715
-1.55
-1.415
-1.35
-1.385
-1.39
-1.615
-1.655
-1.755
-1.75
-1.815
-1.7
-1.45
-1.35
-1.23
-1.45
-1.4
-1.45
-1.59
-1.665
-1.61
-1.505
-1.455
-1.375
-1.415
-1.405
-1.475
-1.665
-1.675
-1.695
-1.655
-1.535
-1.485
-1.465
-1.44
-1.425
-1.51
-1.515
-1.635
-1.555
-1.585
-1.545
-1.335
-1.46
-1.425
-1.505
-1.495
-1.515
-1.5
-1.59
-1.53
-1.45
-1.41
-1.295
-1.375
-1.37
-1.53
-1.545
-1.6
-1.465
-1.515
-1.455
-1.28
-1.365
-1.275
-1.38
-1.4
-1.545
-1.605
-1.605
-1.485
-1.455
-1.375
-1.29
-1.2
-1.39
-1.585
-1.445
-1.415
-1.435
-1.42
-1.235
-1.19
-1.24
-1.19
-1.265
-1.385
-1.535
-1.52
-1.45
-1.425
-1.31
-1.24
-1.195
-1.3
-1.355
-1.43
-1.425
-1.485
-1.51
-1.54
-1.415
-1.295
-1.245
-1.21
-1.35
-1.465
-1.65
-1.565
-1.595
-1.61
-1.545
-1.365
-1.375
-1.34
-1.435
-1.435
-1.645
-1.6
-1.495
-1.52
-1.53
-1.34
-1.355
-1.34
-1.46
-1.615
-1.745
-1.63
-1.535
-1.555
-1.495
-1.42
-1.34
-1.41
-1.405
-1.545
-1.705
-1.545
-1.52
-1.55
-1.46
-1.475
-1.28
-1.455
-1.57
-1.49
-1.655
-1.665
-1.655
-1.435
-1.39
-1.39
-1.34
-1.485
-1.515
-1.615
-1.63
-1.67
-1.56
-1.5
-1.475
-1.215
-1.275
-1.3
-1.395
-1.41
-1.655
-1.58
-1.535
-1.4
-1.55
-1.35
-1.315
-1.415
-1.405
-1.49
-1.605
-1.57
-1.595
-1.515
-1.445
-1.305
-1.34
-1.425
-1.515
-1.48
-1.55
-1.56
-1.695
-1.44
-1.34
-1.36
-1.43
-1.445
-1.445
-1.61
-1.71
-1.61
-1.48
-1.43
-1.44
-1.33
-1.28
-1.435
-1.51
-1.66
-1.685
-1.57
-1.56
-1.535
-1.365
-1.275
-1.27
-1.32
-1.535
-1.62
-1.575
-1.555
-1.605
-1.44
-1.345
-1.34
-1.385
-1.4
-1.47
-1.475
-1.535
-1.58
-1.58
-1.51
-1.36
-1.315
-1.395
-1.52
-1.585
-1.64
-1.655
-1.58
-1.425
-1.35
-1.28
-1.18
-1.25
-1.385
-1.39
-1.62
-1.57
-1.615
-1.545
-1.485
-1.42
-1.33
-1.3
-1.395
-1.46
-1.545
-1.555
-1.5
-1.37
-1.365
-1.275
-1.275
-1.305
-1.435
-1.375
-1.415
-1.52
-1.545
-1.425
-1.35
-1.255
-1.315
-1.375
-1.465
-1.53
-1.59
-1.485
-1.545
-1.48
-1.46
-1.385
-1.35
-1.32
-1.44
-1.42
-1.59
-1.58
-1.545
-1.43
-1.455
-1.235
-1.175
-1.415
-1.46
-1.44
-1.575
-1.64
-1.525
-1.41
-1.42
-1.295
-1.31
-1.37
-1.445
-1.535
-1.39
-1.45
-1.33
-1.15
-1.095
-0.945
-0.88
-0.9
-0.87
-0.84
-0.805
-0.775
-0.83
-0.725
-0.915
-0.905
-1.205
-1.38
-1.515
-1.515
-1.625
-1.535
-1.49
-1.375
-1.365
-1.21
-1.27
-1.32
-1.415
-1.495
-1.61
-1.58
-1.54
-1.375
-1.265
-1.25
-1.175
-1.295
-1.33
-1.375
-1.5
-1.515
-1.475
-1.38
-1.35
-1.28
-1.275
-1.27
-1.295
-1.47
-1.685
-1.565
-1.495
-1.5
-1.335
-1.205
-1.26
-1.27
-1.365
-1.415
-1.555
-1.465
-1.35
-1.29
-1.36
-1.115
-1.165
-1.35
-1.42
-1.385
-1.545
-1.515
-1.415
-1.43
-1.245
-1.155
-1.04
-1.285
-1.41
-1.425
-1.395
-1.39
-1.395
-1.315
-1.085
-1.215
-1.2
-1.325
-1.325
-1.48
-1.535
-1.42
-1.405
-1.415
-1.225
-1.14
-1.1
-1.16
-1.17
-1.345
-1.375
-1.39
-1.405
-1.225
-1.105
-1.185
-1.13
-1.2
-1.25
-1.235
-1.35
-1.35
-1.22
-1.17
-1.145
-1.1
-1.125
-1.165
-1.21
-1.25
-1.31
-1.205
-1.25
-1.185
-0.98
-1.05
-1.045
-1.145
-1.245
-1.265
-1.32
-1.18
-1.23
-1.21
-0.995
-1.06
-1.06
-1.09
-1.205
-1.29
-1.41
-1.345
-1.245
-1.22
-1.03
-1.065
-1.09
-1.065
-1.225
-1.36
-1.235
-1.415
-1.24
-1.18
-1.025
-1.11
-1.21
-1.285
-1.325
-1.45
-1.355
-1.335
-1.22
-1.195
-1.075
-1.16
-1.235
-1.32
-1.365
-1.46
-1.435
-1.44
-1.235
-1.31
-1.11
-1.085
-1.19
-1.32
-1.415
-1.495
-1.49
-1.32
-1.245
-1.24
-1.12
-1.12
-1.195
-1.29
-1.385
-1.43
-1.44
-1.335
-1.235
-1.08
-1.145
-1.11
-1.23
-1.28
-1.39
-1.48
-1.32
-1.385
-1.27
-1.225
-1.115
-1.21
-1.215
-1.325
-1.31
-1.375
-1.38
-1.345
-1.235
-1.185
-1.02
-1.09
-1.235
-1.24
-1.425
-1.47
-1.36
-1.285
-1.215
-1.175
-1.135
-1.065
-1.09
-1.27
-1.385
-1.43
-1.31
-1.285
-1.36
-1.1
-1.04
-1.13
-1.16
-1.285
-1.35
-1.37
-1.38
-1.385
-1.25
-1.13
-1.155
-1.115
-1.17
-1.23
-1.25
-1.35
-1.31
-1.38
-1.19
-1.185
-1.05
-1.17
-1.175
-1.305
-1.245
-1.405
-1.335
-1.33
-1.28
-1.095
-1.065
-1.17
-1.18
-1.285
-1.325
-1.285
-1.275
-1.175
-1.32
-1.015
-1.12
-1.22
-1.23
-1.23
-1.385
-1.505
-1.275
-1.28
-1.195
-1.04
-1.035
-1.11
-1.275
-1.275
-1.345
-1.355
-1.305
-1.29
-1.215
-1.005
-1.07
-1.07
-1.305
-1.15
-1.375
-1.28
-1.255
-1.22
-1.235
-0.925
-0.955
-1.055
-1.07
-1.175
-1.27
-1.345
-1.25
-1.205
-1.07
-0.93
-0.895
-1.045
-1.215
-1.245
-1.32
-1.34
-1.285
-1.22
-1.14
-1.17
-0.98
-1.04
-1.26
-1.225
-1.28
-1.37
-1.32
-1.23
-1.115
-1.06
-1.075
-1.145
-1.235
-1.14
-1.305
-1.365
-1.29
-1.21
-1.21
-1.105
-1.05
-1.06
-1.145
-1.145
-1.34
-1.285
-1.12
-0.97
-0.88
-0.75
-0.7
-0.795
-0.83
-0.865
-0.77
-0.68
-0.625
-0.47
-0.555
-0.56
-0.7
-0.86
-1.085
-1.335
-1.42
-1.375
-1.315
-1.195
-1.17
-0.95
-0.98
-1.025
-1.155
-1.175
-1.24
-1.23
-1.22
-1.095
-1.045
-1.06
-1.035
-1.205
-1.1
-1.25
-1.27
-1.17
-1.105
-1.145
-1.015
-0.98
-1.08
-1.15
-1.15
-1.205
-1.28
-1.27
-1.19
-1.21
-1.05
-0.985
-0.99
-1.05
-1.105
-1.22
-1.08
-1.255
-1.19
-1.05
-1.09
-0.965
-0.93
-1.0
-1.02
-1.235
-1.105
-1.145
-1.01
-1.03
-0.98
-0.895
-0.97
-0.975
-1.195
-1.285
-1.21
-1.185
-0.995
-1.075
-0.905
-0.915
-0.9
-1.035
-1.07
-1.155
-1.22
-1.19
-1.055
-0.97
-0.89
-0.87
-0.99
-1.07
-1.085
-1.175
-1.155
-1.1
-1.0
-0.935
-0.83
-0.8
-0.85
-0.945
-0.935
-1.06
-1.075
-1.04
-0.945
-0.83
-0.63
-0.69
-0.875
-0.98
-0.91
-0.98
-1.13
-0.96
-0.9
-0.83
-0.795
-0.74
-0.75
-0.905
-0.905
-1.09
-1.06
-0.86
-0.76
-0.735
-0.885
-0.815
-0.915
-1.005
-0.875
-0.995
-1.035
-0.815
-0.875
-0.785
-0.715
-0.71
-0.88
-0.94
-1.025
-1.0
-1.005
-0.955
-0.985
-0.915
-0.805
-0.835
-0.84
-0.925
-1.0
-1.07
-1.085
-1.055
-0.94
-0.885
-0.795
-0.85
-0.96
-0.95
-1.115
-1.185
-1.08
-0.875
-1.08
-0.97
-0.9
-0.945
-0.98
-1.075
-1.175
-1.16
-1.135
-1.095
-0.905
-0.875
-0.77
-0.79
-0.945
-1.07
-1.19
-1.185
-1.07
-0.935
-0.895
-0.885
-0.865
-0.845
-0.845
-0.955
-1.06
-1.19
-1.085
-1.065
-1.04
-0.86
-0.8
-0.93
-0.98
-0.845
-1.125
-1.08
-1.15
-0.935
-0.91
-0.825
-0.9
-0.86
-0.87
-0.995
-1.005
-1.04
-1.045
-1.075
-0.975
-0.71
-0.765
-0.785
-0.865
-0.98
-1.195
-1.115
-1.04
-0.99
-0.825
-0.72
-0.775
-0.8
-0.91
-0.88
-1.045
-1.105
-1.085
-0.96
-0.895
-0.84
-0.765
-0.84
-0.795
-0.885
-1.1
-0.98
-1.01
-1.005
-0.84
-0.8
-0.745
-0.865
-0.85
-0.87
-1.18
-1.1
-1.02
-0.91
-0.875
-0.88
-0.76
-0.835
-1.05
-0.91
-1.02
-1.01
-0.955
-0.95
-0.88
-0.825
-0.84
-0.85
-0.975
-0.955
-1.11
-1.06
-0.93
-0.86
-0.835
-0.665
-0.845
-0.805
-0.875
-0.95
-1.11
-0.985
-1.03
-0.905
-0.83
-0.735
-0.785
-0.745
-0.865
-1.04
-1.015
-1.02
-0.88
-0.82
-0.805
-0.77
-0.805
-0.935
-0.855
-0.825
-1.05
-0.985
-0.975
-0.885
-0.865
-0.665
-0.775
-0.86
-0.94
-0.965
-1.0
-1.05
-0.925
-0.865
-0.605
-0.73
-0.73
-0.83
-0.79
-1.03
-0.935
-0.965
-0.95
-0.96
-0.865
-0.74
-0.795
-0.665
-0.835
-0.995
-0.965
-1.015
-0.865
-0.88
-0.74
-0.655
-0.66
-0.625
-0.68
-0.945
-0.94
-0.82
-0.79
-0.745
-0.66
-0.715
-0.71
-0.71
-0.705
-0.925
-0.97
-0.915
-0.815
-0.88
-0.665
-0.735
-0.725
-0.72
-0.905
-0.945
-0.92
-0.9
-0.855
-0.795
-0.685
-0.645
-0.73
-0.815
-0.785
-0.95
-1.015
-0.93
-0.815
-0.705
-0.665
-0.705
-0.675
-0.76
-0.77
-0.945
-0.845
-0.855
-0.785
-0.75
-0.53
-0.575
-0.555
-0.605
-0.615
-0.705
-0.625
-0.5
-0.27
-0.2
0.01
0.285
0.125
-0.145
-0.25
-0.535
-0.645
-0.89
-0.855
-0.705
-0.685
-0.61
-0.65
-0.68
-0.805
-0.88
-0.89
-0.815
-0.675
-0.76
-0.61
-0.585
-0.665
-0.8
-0.81
-0.905
-0.825
-0.805
-0.745
-0.69
-0.63
-0.515
-0.675
-0.775
-0.76
-1.035
-0.96
-0.75
-0.765
-0.615
-0.63
-0.58
-0.65
-0.7
-0.79
-0.805
-0.895
-0.775
-0.75
-0.71
-0.51
-0.535
-0.7
-0.73
-0.785
-0.76
-0.755
-0.67
-0.71
-0.555
-0.425
-0.58
-0.7
-0.72
-0.81
-0.82
-0.785
-0.65
-0.62
-0.68
-0.6
-0.49
-0.565
-0.725
-0.77
-0.835
-0.825
-0.73
-0.65
-0.6
-0.51
-0.59
-0.58
-0.565
-0.725
-0.805
-0.75
-0.72
-0.615
-0.52
-0.51
-0.465
-0.58
-0.615
-0.66
-0.67
-0.705
-0.645
-0.59
-0.47
-0.405
-0.42
-0.5
-0.635
-0.745
-0.595
-0.63
-0.52
-0.46
-0.395
-0.36
-0.38
-0.49
-0.47
-0.66
-0.625
-0.595
-0.585
-0.465
-0.395
-0.44
-0.43
-0.42
-0.495
-0.67
-0.57
-0.57
-0.45
-0.49
-0.34
-0.39
-0.415
-0.545
-0.475
-0.685
-0.69
-0.67
-0.6
-0.41
-0.395
-0.445
-0.385
-0.41
-0.505
-0.65
-0.825
-0.625
-0.545
-0.635
-0.4
-0.46
-0.485
-0.57
-0.585
-0.76
-0.825
-0.69
-0.6
-0.675
-0.42
-0.51
-0.56
-0.55
-0.565
-0.76
-0.74
-0.68
-0.565
-0.52
-0.565
-0.53
-0.535
-0.66
-0.605
-0.71
-0.835
-0.745
-0.6
-0.585
-0.51
-0.445
-0.545
-0.575
-0.625
-0.705
-0.755
-0.695
-0.63
-0.465
-0.36
-0.395
-0.54
-0.58
-0.715
-0.695
-0.72
-0.7
-0.685
-0.495
-0.455
-0.435
-0.55
-0.66
-0.695
-0.745
-0.66
-0.635
-0.625
-0.49
-0.49
-0.375
-0.445
-0.48
-0.685
-0.725
-0.67
-0.635
-0.53
-0.45
-0.46
-0.43
-0.435
-0.575
-0.645
-0.775
-0.76
-0.625
-0.545
-0.54
-0.35
-0.38
-0.445
-0.5
-0.565
-0.715
-0.63
-0.575
-0.5
-0.515
-0.465
-0.515
-0.58
-0.525
-0.715
-0.72
-0.525
-0.475
-0.495
-0.45
-0.39
-0.42
-0.46
-0.515
-0.77
-0.725
-0.615
-0.605
-0.49
-0.39
-0.465
-0.585
-0.55
-0.605
-0.66
-0.63
-0.715
-0.635
-0.6
-0.445
-0.325
-0.395
-0.515
-0.565
-0.64
-0.6
-0.56
-0.535
-0.415
-0.37
-0.415
-0.335
-0.42
-0.64
-0.72
-0.59
-0.75
-0.54
-0.47
-0.44
-0.51
-0.27
-0.515
-0.615
-0.61
-0.7
-0.58
-0.515
-0.485
-0.365
-0.33
-0.475
-0.425
-0.515
-0.66
-0.73
-0.625
-0.55
-0.495
-0.445
-0.395
-0.455
-0.5
-0.575
-0.605
-0.525
-0.45
-0.44
-0.445
-0.32
-0.385
-0.36
-0.465
-0.62
-0.66
-0.64
-0.67
-0.475
-0.375
-0.315
-0.38
-0.39
-0.51
-0.595
-0.62
-0.65
-0.525
-0.48
-0.44
-0.22
-0.38
-0.475
-0.48
-0.55
-0.555
-0.665
-0.66
-0.46
-0.38
-0.355
-0.31
-0.365
-0.415
-0.54
-0.605
-0.455
-0.395
-0.44
-0.405
-0.235
-0.33
-0.36
-0.42
-0.505
-0.53
-0.5
-0.52
-0.4
-0.33
-0.185
-0.34
-0.35
-0.485
-0.62
-0.615
-0.645
-0.41
-0.46
-0.36
-0.26
-0.23
-0.335
-0.46
-0.655
-0.615
-0.59
-0.58
-0.475
-0.4
-0.19
-0.365
-0.425
-0.43
-0.49
-0.52
-0.58
-0.56
-0.495
-0.275
-0.27
-0.335
-0.37
-0.4
-0.495
-0.44
-0.315
-0.195
-0.125
-0.035
0.07
0.14
0.045
0.26
0.065
0.175
0.18
0.14
0.04
-0.11
-0.19
-0.275
-0.415
-0.45
-0.59
-0.535
-0.51
-0.56
-0.465
-0.325
-0.3
-0.28
-0.3
-0.35
-0.495
-0.58
-0.565
-0.37
-0.415
-0.23
-0.325
-0.25
-0.36
-0.44
-0.605
-0.57
-0.56
-0.325
-0.39
-0.31
-0.19
-0.23
-0.345
-0.455
-0.59
-0.54
-0.445
-0.33
-0.38
-0.35
-0.25
-0.255
-0.265
-0.29
-0.595
-0.56
-0.48
-0.49
-0.4
-0.165
-0.15
-0.255
-0.43
-0.42
-0.44
-0.525
-0.445
-0.365
-0.25
-0.125
-0.15
-0.2
-0.375
-0.495
-0.475
-0.52
-0.465
-0.34
-0.3
-0.215
-0.135
-0.095
-0.275
-0.305
-0.445
-0.445
-0.36
-0.31
-0.25
-0.22
-0.235
-0.17
-0.26
-0.315
-0.43
-0.38
-0.345
-0.28
-0.145
-0.16
-0.225
-0.185
-0.205
-0.23
-0.335
-0.335
-0.265
-0.21
-0.15
-0.115
-0.12
-0.125
-0.265
-0.365
-0.385
-0.3
-0.26
-0.215
-0.135
0.01
-0.01
-0.13
-0.17
-0.255
-0.315
-0.27
-0.21
-0.21
-0.125
-0.005
-0.01
-0.01
-0.135
-0.3
-0.255
-0.25
-0.26
-0.21
-0.05
-0.075
-0.075
-0.19
-0.16
-0.405
-0.425
-0.32
-0.19
-0.235
-0.235
-0.085
-0.105
-0.225
-0.305
-0.505
-0.385
-0.41
-0.19
-0.33
-0.14
-0.16
-0.17
-0.245
-0.245
-0.455
-0.44
-0.42
-0.215
-0.325
-0.28
-0.28
-0.12
-0.265
-0.325
-0.485
-0.425
-0.305
-0.245
-0.28
-0.125
-0.215
-0.29
-0.13
-0.44
-0.555
-0.44
-0.31
-0.22
-0.275
-0.215
-0.175
-0.31
-0.315
-0.35
-0.445
-0.425
-0.3
-0.2
-0.285
-0.13
-0.125
-0.085
-0.345
-0.4
-0.515
-0.4
-0.345
-0.27
-0.24
-0.055
-0.135
-0.105
-0.26
-0.3
-0.425
-0.395
-0.39
-0.37
-0.26
-0.13
-0.1
-0.145
-0.205
-0.335
-0.405
-0.44
-0.335
-0.22
-0.14
-0.1
-0.12
-0.155
-0.32
-0.305
-0.345
-0.425
-0.435
-0.34
-0.18
0.02
-0.16
-0.27
-0.27
-0.3
-0.47
-0.41
-0.37
-0.255
-0.115
-0.065
-0.115
-0.165
-0.265
-0.305
-0.495
-0.455
-0.375
-0.3
-0.16
-0.065
-0.115
-0.17
-0.1
-0.385
-0.435
-0.355
-0.315
-0.175
-0.185
-0.15
-0.145
-0.255
-0.315
-0.33
-0.44
-0.345
-0.36
-0.265
-0.145
-0.025
-0.14
-0.18
-0.28
-0.34
-0.415
-0.32
-0.37
-0.315
-0.075
0.02
-0.16
-0.255
-0.225
-0.3
-0.32
-0.3
-0.395
-0.27
-0.1
-0.225
-0.195
-0.275
-0.23
-0.305
-0.29
-0.39
-0.295
-0.27
-0.11
-0.03
-0.04
-0.185
-0.235
-0.495
-0.42
-0.385
-0.27
-0.255
-0.17
-0.17
-0.205
-0.12
-0.23
-0.345
-0.34
-0.385
-0.245
-0.14
-0.085
0.015
-0.2
-0.255
-0.085
-0.36
-0.345
-0.36
-0.215
-0.185
-0.185
-0.13
-0.11
-0.285
-0.335
-0.29
-0.39
-0.32
-0.25
-0.235
-0.13
-0.045
-0.08
-0.25
-0.23
-0.42
-0.35
-0.33
-0.265
-0.015
0.04
0.075
0.005
-0.115
-0.31
-0.37
-0.27
-0.23
-0.135
-0.125
-0.065
0.02
0.005
-0.17
-0.235
-0.295
-0.295
-0.215
-0.15
-0.095
-0.08
-0.075
-0.265
-0.155
-0.255
-0.475
-0.39
-0.25
-0.165
-0.105
-0.095
-0.05
-0.17
-0.285
-0.07
-0.33
-0.385
-0.33
-0.2
-0.085
-0.035
-0.09
-0.11
-0.145
-0.305
-0.385
-0.325
-0.245
-0.16
-0.14
0.025
0.055
0.135
0.135
0.075
0.055
0.215
0.35
0.46
0.69
0.675
0.535
0.38
0.2
-0.1
-0.43
-0.27
-0.215
-0.18
-0.16
-0.11
-0.065
-0.04
-0.245
-0.22
-0.295
-0.23
-0.215
-0.205
-0.04
-0.015
-0.16
-0.125
-0.175
-0.22
-0.425
-0.35
-0.25
-0.145
-0.05
-0.04
-0.04
-0.045
-0.2
-0.26
-0.16
-0.225
-0.195
-0.195
-0.03
-0.125
-0.15
-0.23
-0.295
-0.31
-0.325
-0.25
-0.175
-0.03
-0.005
-0.055
0.0
-0.05
-0.15
-0.26
-0.175
-0.295
-0.125
-0.13
-0.085
-0.06
-0.075
-0.14
-0.165
-0.27
-0.375
-0.25
-0.155
-0.06
-0.04
-0.04
-0.045
-0.03
-0.175
-0.26
-0.265
-0.3
-0.175
-0.12
0.15
0.01
0.09
-0.015
-0.15
-0.28
-0.215
-0.12
-0.045
-0.095
0.065
0.1
0.08
-0.085
-0.055
-0.08
-0.205
-0.155
-0.115
0.035
0.09
0.125
0.05
-0.015
-0.075
-0.105
-0.125
-0.075
-0.02
0.07
0.125
0.015
0.145
0.01
-0.09
-0.1
-0.135
-0.125
0.05
0.01
0.105
0.18
0.02
0.08
0.055
-0.065
-0.125
-0.055
0.06
0.025
0.17
0.175
0.14
0.015
-0.11
-0.125
-0.1
-0.03
0.01
0.025
0.1
0.09
-0.015
0.02
-0.105
-0.295
-0.185
-0.215
-0.015
0.035
0.09
0.05
-0.035
-0.115
-0.225
-0.18
-0.17
-0.17
-0.065
-0.015
-0.01
-0.07
-0.06
-0.175
-0.195
-0.27
-0.25
-0.185
-0.1
-0.065
0.065
-0.1
-0.045
-0.1
-0.305
-0.29
-0.115
-0.215
-0.09
0.065
0.005
0.005
-0.065
-0.19
-0.195
-0.225
-0.16
-0.15
-0.135
0.005
0.04
0.005
-0.12
-0.11
-0.245
-0.245
-0.215
-0.17
-0.04
0.055
0.05
-0.005
-0.065
-0.08
-0.215
-0.29
-0.2
-0.105
-0.005
-0.01
-0.025
-0.025
-0.125
-0.125
-0.195
-0.26
-0.205
-0.185
-0.015
0.1
0.165
-0.04
-0.245
-0.15
-0.32
-0.28
-0.085
-0.02
-0.07
0.04
0.18
0.015
-0.09
-0.225
-0.26
-0.245
-0.15
-0.095
-0.075
0.015
-0.025
-0.025
-0.03
-0.09
-0.33
-0.285
-0.14
-0.115
0.02
0.06
-0.005
-0.065
-0.07
-0.22
-0.295
-0.285
-0.31
-0.275
-0.025
0.215
0.085
0.005
-0.035
-0.165
-0.235
-0.34
-0.225
-0.205
-0.09
-0.015
-0.005
-0.015
-0.095
-0.17
-0.235
-0.26
-0.175
-0.12
0.02
0.1
0.04
-0.04
-0.26
-0.135
-0.175
-0.215
-0.21
-0.12
-0.01
-0.03
-0.015
-0.02
-0.11
-0.17
-0.32
-0.29
-0.105
-0.13
-0.04
0.12
0.045
-0.03
-0.13
-0.19
-0.335
-0.17
-0.165
-0.11
-0.045
-0.01
-0.03
-0.23
-0.09
-0.1
-0.15
-0.105
-0.18
-0.055
-0.035
0.18
0.025
-0.075
-0.07
-0.19
-0.24
-0.19
-0.185
-0.04
0.11
0.135
0.165
0.015
-0.07
-0.145
-0.15
-0.175
-0.12
-0.02
0.155
0.055
0.08
-0.075
-0.085
-0.07
-0.13
-0.28
-0.195
-0.075
0.0
0.055
-0.12
-0.055
-0.235
-0.2
-0.275
-0.19
-0.08
-0.015
0.085
0.025
0.02
-0.075
-0.165
-0.27
-0.24
-0.175
-0.135
-0.025
0.14
0.015
0.05
-0.095
-0.08
-0.265
-0.29
-0.115
0.06
0.025
0.27
0.215
0.195
0.21
0.245
0.215
0.26
0.47
0.545
0.67
0.695
0.55
0.25
0.045
-0.075
-0.335
-0.31
-0.35
-0.215
-0.18
-0.005
0.055
0.07
0.025
-0.1
-0.21
-0.115
-0.21
-0.14
-0.09
0.125
0.12
-0.005
-0.045
-0.01
-0.185
-0.24
-0.165
-0.175
-0.08
-0.025
-0.015
0.12
-0.075
-0.16
-0.265
-0.145
-0.185
-0.05
-0.005
0.055
0.145
0.025
-0.1
-0.175
-0.07
-0.2
-0.06
0.0
0.08
0.15
0.065
-0.025
0.015
-0.145
-0.3
-0.13
-0.055
-0.015
0.02
0.005
0.045
-0.1
0.01
-0.135
-0.15
-0.24
-0.205
-0.01
-0.055
0.135
0.27
0.095
-0.055
-0.09
-0.15
-0.225
-0.065
-0.02
0.09
0.12
0.105
0.005
0.09
-0.125
-0.135
-0.125
-0.06
0.1
0.17
0.2
0.13
0.105
0.07
-0.02
-0.035
-0.04
0.01
0.17
0.15
0.19
0.245
0.04
0.035
-0.195
-0.13
-0.01
0.16
0.22
0.385
0.32
0.15
0.195
0.13
-0.045
-0.05
-0.08
0.08
0.115
0.27
0.25
0.225
0.215
0.17
0.03
0.035
-0.04
0.06
0.1
0.245
0.29
0.21
0.135
0.105
-0.065
0.075
0.0
0.115
0.085
0.115
0.215
0.185
0.04
0.07
-0.125
-0.105
-0.07
0.0
0.045
0.22
0.08
0.21
0.075
-0.04
-0.19
-0.17
-0.055
0.0
0.045
0.1
0.13
0.04
-0.05
-0.05
-0.21
-0.135
-0.09
-0.045
0.115
0.085
0.185
0.115
-0.045
-0.12
-0.17
-0.18
-0.205
-0.05
-0.015
0.13
0.09
0.055
-0.075
0.0
-0.13
-0.18
-0.065
-0.015
0.08
0.19
0.17
0.08
-0.05
-0.155
-0.14
-0.105
-0.1
0.075
0.065
0.08
0.14
-0.005
0.08
-0.115
-0.145
-0.14
-0.095
0.06
0.065
0.13
0.05
0.125
-0.03
-0.13
-0.175
-0.095
-0.04
0.065
0.165
0.225
0.155
0.04
0.02
-0.095
-0.08
-0.12
-0.1
-0.05
0.02
0.09
0.2
0.105
0.095
-0.065
-0.12
-0.155
-0.07
-0.06
0.085
0.13
0.115
0.035
-0.06
-0.165
-0.295
-0.165
-0.015
0.19
0.16
0.105
0.055
0.05
-0.065
-0.125
-0.145
-0.105
-0.205
0.05
0.21
0.075
0.14
-0.015
0.02
-0.18
-0.185
-0.075
-0.04
0.025
0.205
0.12
0.005
-0.065
-0.035
-0.12
-0.135
0.0
-0.035
0.06
0.19
0.135
0.08
-0.02
-0.08
-0.22
-0.175
-0.19
-0.055
-0.065
0.14
0.185
0.04
0.045
0.015
-0.1
-0.15
-0.12
0.085
0.05
0.19
0.085
0.215
-0.015
0.06
-0.095
-0.115
-0.02
0.07
0.085
0.195
0.095
0.175
0.105
0.035
-0.1
-0.125
-0.1
0.0
0.045
0.22
0.2
0.095
0.14
-0.095
-0.165
-0.175
0.015
-0.015
0.09
0.11
0.135
0.02
0.13
-0.005
-0.13
-0.145
-0.12
-0.125
0.09
0.195
0.155
0.09
-0.015
-0.055
-0.225
-0.255
-0.05
0.09
0.07
0.16
0.055
0.04
0.02
-0.12
-0.175
-0.135
0.0
0.12
0.28
0.355
0.505
0.505
0.39
0.38
0.435
0.485
0.65
0.64
0.82
0.655
0.55
0.305
-0.155
-0.195
-0.065
-0.1
-0.11
-0.085
0.095
0.165
0.18
0.065
-0.09
-0.11
-0.21
-0.08
-0.01
-0.035
0.16
0.105
0.12
0.085
-0.105
-0.16
-0.175
-0.13
-0.035
0.11
0.145
0.195
0.17
0.045
-0.04
-0.12
-0.165
-0.175
0.06
0.005
0.135
0.2
0.1
-0.06
-0.115
-0.1
0.01
-0.08
-0.05
0.085
0.24
0.105
0.055
-0.035
0.015
-0.01
-0.06
-0.065
-0.1
-0.025
0.095
0.255
0.2
0.15
0.085
-0.025
-0.175
-0.12
0.025
0.065
0.215
0.2
0.035
-0.035
0.025
-0.05
-0.105
0.025
0.085
0.075
0.345
0.21
0.145
0.085
0.055
-0.04
-0.1
-0.05
0.12
0.15
0.215
0.195
0.24
0.145
0.075
0.145
0.11
0.06
0.065
0.16
0.325
0.205
0.175
0.19
0.09
0.025
0.11
0.065
0.19
0.265
0.25
0.38
0.265
0.19
0.145
-0.03
-0.11
0.09
0.135
0.37
0.425
0.445
0.32
0.255
0.165
0.05
-0.025
0.085
0.1
0.215
0.295
0.265
0.315
0.255
0.07
0.0
0.095
0.115
0.12
0.15
0.295
0.25
0.165
0.03
-0.01
-0.015
-0.02
0.075
0.06
0.23
0.24
0.17
0.09
0.0
-0.2
-0.205
-0.085
0.01
0.055
0.215
0.165
0.195
0.08
0.04
-0.05
-0.155
-0.1
0.055
0.045
0.19
0.19
0.07
0.195
0.2
-0.15
-0.115
-0.14
0.035
0.08
0.21
0.1
0.14
0.105
0.065
-0.145
-0.07
-0.07
-0.015
0.01
0.04
0.145
0.165
0.065
0.05
-0.07
-0.055
0.035
0.015
0.095
0.185
0.155
0.04
0.145
0.025
-0.135
-0.05
0.055
0.03
0.095
0.265
0.265
0.195
0.035
0.025
-0.105
-0.18
-0.135
0.015
0.105
0.36
0.185
0.12
0.055
0.0
-0.075
-0.035
0.01
0.09
0.035
0.22
0.22
0.155
0.125
0.015
-0.155
-0.07
-0.07
0.015
0.07
0.205
0.115
0.09
0.075
-0.04
-0.08
-0.09
0.005
0.055
0.15
0.255
0.12
0.255
0.08
0.055
-0.06
-0.1
0.04
-0.005
0.015
0.085
0.225
0.21
0.07
0.065
-0.11
-0.12
-0.12
0.04
0.135
0.2
0.095
0.195
0.02
0.0
0.0
-0.115
-0.055
0.0
0.105
0.225
0.2
0.08
0.1
0.095
-0.035
-0.2
-0.07
0.155
0.085
0.265
0.17
0.04
0.01
0.04
-0.09
-0.125
-0.075
0.18
0.15
0.25
0.175
0.15
0.005
0.005
-0.02
-0.02
-0.01
-0.03
0.17
0.19
0.13
0.115
0.15
0.18
-0.075
0.01
0.11
0.15
0.19
0.28
0.34
0.16
0.02
0.05
0.02
0.06
0.08
0.155
0.29
0.365
0.285
0.09
0.05
0.005
0.005
-0.12
-0.085
0.115
0.135
0.105
0.18
0.065
0.06
0.035
-0.09
-0.15
0.075
-0.025
0.1
0.145
0.22
0.055
0.11
0.01
-0.15
-0.09
0.105
0.14
0.21
0.185
0.21
0.245
0.285
0.025
0.165
0.155
0.31
0.48
0.7
0.735
0.715
0.795
0.775
0.52
0.55
0.58
0.38
0.19
0.195
0.25
0.08
-0.04
0.065
-0.06
-0.12
-0.085
0.035
0.045
0.295
0.3
0.245
0.155
0.07
-0.065
-0.035
-0.02
-0.01
0.16
0.265
0.255
0.07
0.12
0.16
-0.065
-0.01
-0.035
-0.005
0.02
0.105
0.16
0.155
0.035
-0.05
-0.065
-0.085
-0.14
-0.04
0.175
0.285
0.245
0.2
0.025
0.095
-0.01
-0.03
0.065
0.11
0.245
0.225
0.29
0.275
0.175
0.01
-0.125
-0.025
0.01
0.11
0.175
0.19
0.26
0.245
0.18
0.03
-0.055
-0.035
0.025
0.1
0.15
0.255
0.28
0.225
0.135
0.095
-0.02
0.045
0.185
0.12
0.175
0.27
0.12
0.22
0.075
0.1
0.04
0.095
0.125
0.175
0.255
0.29
0.395
0.275
0.165
0.06
0.12
0.2
0.16
0.28
0.41
0.31
0.355
0.22
0.16
0.145
0.12
0.06
0.19
0.215
0.275
0.305
0.29
0.335
0.25
0.135
0.145
0.115
0.23
0.265
0.345
0.39
0.325
0.26
0.28
0.2
0.055
0.14
0.335
0.265
0.29
0.385
0.415
0.335
0.245
0.06
0.1
0.0
0.08
0.195
0.375
0.305
0.245
0.155
0.055
0.1
-0.005
0.035
0.08
-0.01
0.24
0.255
0.245
0.195
0.01
-0.055
