# TIPE ECG 2021 - ECG-ID Database v1.0.0 par Physionet
# [N° de la personne, N° de l'enregistrement, Période d'échantillonnage, Prénom, Age, Sexe, Date de l'enregistrement]
[1, 19, 0.002, "Lucas", 25, "H", "26.04.2005"]
1.075
0.96
0.795
0.66
0.57
0.575
0.71
0.86
0.905
1.065
1.02
0.985
0.765
0.62
0.57
0.575
0.645
0.77
0.9
1.01
0.945
0.855
0.72
0.53
0.51
0.585
0.635
0.69
0.765
0.89
0.89
0.815
0.65
0.59
0.51
0.56
0.68
0.775
0.775
0.99
0.91
0.845
0.63
0.51
0.425
0.54
0.565
0.77
0.895
1.005
0.97
0.835
0.69
0.585
0.48
0.57
0.69
0.88
0.99
1.0
0.915
0.815
0.68
0.49
0.415
0.46
0.63
0.74
0.835
0.98
0.94
0.76
0.63
0.53
0.46
0.555
0.68
0.89
1.005
1.1
0.995
0.795
0.635
0.515
0.43
0.485
0.655
0.78
0.855
0.915
0.88
0.765
0.645
0.54
0.455
0.485
0.635
0.78
0.895
0.86
0.82
0.7
0.53
0.435
0.41
0.58
0.705
0.815
0.955
1.03
0.965
0.72
0.58
0.46
0.43
0.505
0.605
0.735
0.85
0.975
0.815
0.685
0.55
0.505
0.46
0.465
0.615
0.795
0.91
0.95
0.835
0.645
0.535
0.395
0.44
0.535
0.58
0.8
0.84
0.865
0.76
0.64
0.54
0.4
0.405
0.49
0.685
0.75
0.895
0.855
0.735
0.59
0.445
0.335
0.345
0.505
0.665
0.77
0.87
0.9
0.83
0.58
0.455
0.34
0.445
0.51
0.685
0.82
0.865
0.795
0.72
0.545
0.495
0.38
0.43
0.52
0.675
0.81
0.895
0.875
0.765
0.55
0.38
0.305
0.38
0.49
0.66
0.85
0.87
0.835
0.775
0.575
0.425
0.3
0.375
0.525
0.71
0.68
0.79
0.76
0.58
0.46
0.34
0.28
0.32
0.44
0.605
0.7
0.775
0.73
0.56
0.405
0.26
0.155
0.285
0.455
0.62
0.76
0.8
0.705
0.56
0.425
0.295
0.2
0.305
0.54
0.595
0.68
0.705
0.64
0.49
0.36
0.265
0.18
0.29
0.465
0.65
0.72
0.74
0.615
0.485
0.315
0.215
0.16
0.265
0.44
0.585
0.63
0.69
0.615
0.515
0.415
0.34
0.355
0.495
0.6
0.765
1.04
1.235
1.245
1.225
1.125
0.975
0.91
0.975
1.075
1.105
1.11
1.07
0.845
0.58
0.355
0.205
0.12
0.225
0.35
0.54
0.72
0.745
0.67
0.5
0.375
0.255
0.285
0.315
0.45
0.61
0.7
0.69
0.625
0.455
0.35
0.22
0.265
0.37
0.485
0.595
0.695
0.61
0.52
0.46
0.25
0.16
0.205
0.345
0.535
0.725
0.815
0.76
0.64
0.485
0.325
0.12
0.21
0.35
0.515
0.665
0.755
0.715
0.645
0.47
0.305
0.215
0.305
0.38
0.505
0.63
0.715
0.67
0.625
0.48
0.325
0.185
0.205
0.32
0.505
0.67
0.81
0.76
0.65
0.495
0.41
0.345
0.375
0.47
0.565
0.67
0.745
0.675
0.54
0.405
0.375
0.27
0.37
0.505
0.675
0.785
0.875
0.795
0.65
0.495
0.39
0.34
0.425
0.585
0.77
0.825
0.905
0.84
0.73
0.585
0.525
0.32
0.4
0.565
0.73
0.85
0.91
0.83
0.66
0.56
0.435
0.355
0.45
0.71
0.755
0.835
0.83
0.735
0.6
0.41
0.29
0.275
0.34
0.5
0.675
0.765
0.77
0.655
0.53
0.35
0.22
0.13
0.235
0.42
0.625
0.74
0.73
0.535
0.37
0.285
0.205
0.15
0.25
0.37
0.485
0.595
0.655
0.545
0.385
0.255
0.215
0.085
0.26
0.39
0.52
0.585
0.62
0.56
0.345
0.235
0.155
0.16
0.215
0.38
0.59
0.74
0.7
0.505
0.34
0.2
0.09
0.085
0.18
0.34
0.495
0.66
0.605
0.46
0.345
0.24
0.135
0.16
0.305
0.445
0.525
0.69
0.685
0.585
0.385
0.19
0.06
0.19
0.23
0.405
0.58
0.63
0.59
0.495
0.34
0.195
0.04
0.13
0.245
0.365
0.495
0.61
0.605
0.52
0.375
0.235
0.19
0.235
0.315
0.395
0.48
0.685
0.575
0.455
0.285
0.175
0.075
0.18
0.305
0.42
0.58
0.685
0.585
0.455
0.265
0.175
0.09
0.125
0.3
0.485
0.565
0.625
0.53
0.395
0.28
0.16
0.055
0.14
0.295
0.445
0.605
0.595
0.47
0.37
0.27
0.155
0.04
0.105
0.23
0.355
0.535
0.59
0.54
0.33
0.23
0.145
0.075
0.145
0.305
0.445
0.555
0.61
0.53
0.385
0.175
0.115
0.105
0.135
0.255
0.43
0.555
0.62
0.525
0.355
0.195
0.14
0.02
0.105
0.29
0.45
0.555
0.61
0.555
0.365
0.215
0.12
0.045
0.175
0.385
0.52
0.56
0.645
0.56
0.37
0.22
0.155
0.085
0.225
0.35
0.46
0.6
0.585
0.52
0.295
0.205
0.135
0.155
0.235
0.385
0.455
0.5
0.465
0.385
0.205
0.085
0.005
0.04
0.165
0.325
0.455
0.595
0.44
0.385
0.23
0.09
-0.06
0.045
0.105
0.285
0.41
0.535
0.49
0.445
0.265
0.15
-0.06
0.01
0.075
0.3
0.42
0.535
0.48
0.46
0.315
0.15
-0.005
0.055
0.16
0.345
0.465
0.48
0.44
0.345
0.17
0.065
0.0
0.125
0.1
0.26
0.41
0.545
0.54
0.5
0.42
0.36
0.26
0.405
0.61
0.895
1.19
1.305
1.23
1.035
0.85
0.63
0.445
0.44
0.515
0.565
0.505
0.57
0.44
0.315
0.175
0.095
-0.005
0.05
0.275
0.37
0.535
0.55
0.505
0.375
0.21
0.11
0.02
0.065
0.175
0.325
0.47
0.57
0.49
0.365
0.205
0.06
0.015
0.12
0.285
0.38
0.53
0.58
0.425
0.32
0.155
0.045
-0.02
0.14
0.32
0.465
0.505
0.595
0.475
0.35
0.225
0.06
0.02
0.18
0.295
0.48
0.56
0.645
0.5
0.345
0.195
0.095
0.03
0.145
0.335
0.475
0.56
0.635
0.47
0.33
0.23
0.125
0.085
0.275
0.42
0.505
0.545
0.63
0.475
0.335
0.135
0.06
0.07
0.22
0.38
0.48
0.635
0.61
0.46
0.37
0.26
0.16
0.16
0.36
0.47
0.615
0.705
0.69
0.58
0.415
0.31
0.18
0.235
0.355
0.51
0.675
0.8
0.76
0.595
0.465
0.27
0.255
0.31
0.305
0.48
0.675
0.72
0.655
0.625
0.45
0.275
0.115
0.18
0.27
0.41
0.585
0.76
0.55
0.47
0.275
0.1
0.025
0.155
0.22
0.365
0.5
0.575
0.425
0.36
0.3
0.125
0.005
0.09
0.15
0.32
0.45
0.52
0.445
0.34
0.145
0.02
-0.015
0.125
0.205
0.375
0.395
0.455
0.375
0.315
0.125
-0.03
-0.025
0.055
0.165
0.265
0.385
0.495
0.385
0.28
0.155
0.065
-0.075
0.075
0.155
0.28
0.415
0.495
0.42
0.325
0.06
-0.065
-0.165
-0.01
0.155
0.28
0.365
0.46
0.32
0.225
0.21
-0.035
-0.13
-0.01
0.175
0.32
0.375
0.435
0.345
0.26
0.105
-0.025
-0.04
0.06
0.16
0.35
0.42
0.525
0.41
0.2
0.05
-0.06
-0.17
-0.015
0.1
0.305
0.495
0.5
0.39
0.245
0.105
-0.08
-0.115
0.015
0.17
0.26
0.415
0.435
0.335
0.22
0.085
-0.06
-0.11
0.03
0.175
0.235
0.395
0.43
0.36
0.215
0.04
-0.055
-0.01
0.005
0.235
0.375
0.415
0.425
0.35
0.08
0.05
-0.11
-0.055
0.035
0.215
0.27
0.37
0.365
0.265
0.11
-0.035
-0.13
-0.075
0.035
0.19
0.33
0.45
0.34
0.255
0.095
-0.005
-0.16
-0.1
0.05
0.225
0.32
0.395
0.34
0.27
0.13
-0.02
-0.19
-0.095
0.055
0.2
0.34
0.455
0.37
0.215
0.08
-0.06
-0.11
-0.015
0.075
0.135
0.34
0.44
0.315
0.22
0.11
-0.02
-0.085
-0.03
0.075
0.3
0.385
0.415
0.275
0.235
0.06
-0.04
-0.11
-0.02
0.115
0.23
0.3
0.33
0.35
0.245
0.07
-0.06
-0.115
-0.065
0.13
0.3
0.41
0.475
0.39
0.195
0.025
-0.035
-0.08
-0.02
0.18
0.23
0.295
0.375
0.28
0.125
0.085
-0.04
-0.145
-0.035
0.135
0.235
0.3
0.325
0.24
0.09
-0.045
-0.155
-0.19
-0.12
0.02
0.215
0.345
0.39
0.255
0.13
-0.07
-0.23
-0.25
-0.075
0.015
0.185
0.285
0.395
0.285
0.135
0.0
-0.175
-0.225
-0.09
0.1
0.215
0.26
0.27
0.24
0.03
-0.125
-0.195
-0.2
-0.065
0.08
0.165
0.315
0.275
0.195
0.015
-0.085
-0.08
0.005
0.17
0.385
0.57
0.72
0.755
0.85
0.74
0.7
0.53
0.56
0.625
0.695
0.755
0.76
0.62
0.455
0.16
-0.09
-0.275
-0.185
-0.045
0.09
0.255
0.355
0.245
0.16
0.02
-0.115
-0.19
-0.175
0.0
0.185
0.235
0.355
0.3
0.2
0.01
-0.09
-0.28
-0.09
0.075
0.19
0.27
0.365
0.295
0.175
-0.02
-0.15
-0.175
-0.08
0.015
0.215
0.375
0.455
0.34
0.165
0.03
-0.065
-0.175
-0.06
0.015
0.08
0.23
0.35
0.275
0.18
0.02
-0.1
-0.17
-0.08
0.085
0.225
0.39
0.46
0.36
0.21
0.085
-0.105
-0.21
-0.08
0.055
0.225
0.345
0.38
0.32
0.19
-0.065
-0.04
-0.14
-0.045
0.13
0.32
0.43
0.49
0.36
0.22
0.06
-0.055
-0.135
0.075
0.21
0.38
0.435
0.48
0.365
0.275
0.115
0.025
0.025
0.12
0.305
0.51
0.575
0.575
0.505
0.415
0.165
0.03
-0.02
0.085
0.255
0.39
0.52
0.56
0.455
0.275
0.105
0.035
0.03
0.08
0.2
0.37
0.53
0.535
0.43
0.255
0.12
-0.035
-0.055
0.045
0.235
0.35
0.405
0.355
0.34
0.19
-0.02
-0.105
-0.12
0.005
0.21
0.195
0.295
0.29
0.29
0.055
-0.085
-0.25
-0.17
0.035
0.025
0.21
0.365
0.29
0.11
-0.02
-0.13
-0.215
-0.18
-0.09
0.05
0.2
0.3
0.305
0.16
0.03
-0.14
-0.18
-0.13
-0.035
0.065
0.26
0.335
0.285
0.165
-0.045
-0.115
-0.18
-0.2
-0.025
0.155
0.27
0.32
0.195
0.095
-0.045
-0.17
-0.255
-0.175
-0.05
0.09
0.285
0.335
0.265
0.09
-0.09
-0.17
-0.25
-0.095
0.045
0.145
0.295
0.275
0.275
0.165
-0.045
-0.195
-0.225
-0.15
-0.03
0.14
0.245
0.305
0.24
0.08
-0.035
-0.11
-0.225
-0.16
-0.02
0.13
0.245
0.355
0.22
0.09
-0.045
-0.22
-0.315
-0.165
-0.025
0.15
0.2
0.31
0.22
0.05
-0.085
-0.17
-0.21
-0.105
0.02
0.2
0.29
0.255
0.16
0.05
-0.045
-0.16
-0.245
-0.12
-0.02
0.115
0.245
0.275
0.13
-0.01
-0.185
-0.24
-0.26
-0.155
0.015
0.185
0.28
0.265
0.13
-0.06
-0.17
-0.24
-0.295
-0.105
0.065
0.17
0.22
0.27
0.17
0.01
-0.125
-0.24
-0.23
-0.225
-0.045
0.09
0.225
0.225
0.155
0.015
-0.105
-0.215
-0.27
-0.14
0.05
0.175
0.29
0.21
0.17
-0.06
-0.205
-0.325
-0.195
-0.09
0.02
0.165
0.245
0.23
0.195
-0.005
-0.165
-0.21
-0.15
-0.075
0.085
0.18
0.335
0.27
0.165
-0.04
-0.12
-0.23
-0.125
-0.015
0.155
0.21
0.25
0.24
0.14
-0.035
-0.16
-0.32
-0.185
-0.075
0.025
0.135
0.255
0.155
0.02
-0.075
-0.21
-0.345
-0.215
-0.09
0.065
0.245
0.255
0.225
0.055
-0.195
-0.26
-0.31
-0.27
-0.065
0.07
0.15
0.25
0.21
0.08
-0.12
-0.27
-0.3
-0.225
-0.125
0.0
0.125
0.175
0.105
-0.03
-0.17
-0.255
-0.31
-0.29
-0.16
0.05
0.215
0.29
0.145
0.005
-0.1
-0.32
-0.315
-0.26
-0.145
0.01
0.11
0.145
0.08
-0.02
-0.115
-0.16
-0.12
0.03
0.24
0.38
0.575
0.79
0.8
0.705
0.51
0.4
0.345
0.41
0.45
0.49
0.515
0.43
0.18
-0.03
-0.265
-0.405
-0.41
-0.275
-0.125
0.075
0.14
0.19
0.1
-0.025
-0.185
-0.305
-0.27
-0.21
-0.05
0.045
0.19
0.205
0.105
0.035
-0.125
-0.26
-0.26
-0.175
-0.04
0.11
0.285
0.195
0.1
-0.075
-0.215
-0.24
-0.215
-0.13
-0.045
0.115
0.21
0.165
0.1
-0.035
-0.195
-0.31
-0.255
-0.135
0.045
0.14
0.245
0.17
0.09
-0.025
-0.16
-0.24
-0.21
-0.11
0.065
0.24
0.275
0.255
0.13
-0.07
-0.155
-0.285
-0.225
-0.08
0.11
0.19
0.235
0.19
0.105
-0.07
-0.19
-0.27
-0.15
-0.035
0.145
0.27
0.38
0.245
0.075
0.04
-0.09
-0.19
-0.125
0.05
0.24
0.315
0.465
0.355
0.23
0.02
-0.075
-0.17
-0.085
0.035
0.2
0.385
0.385
0.29
0.26
0.105
-0.025
-0.065
-0.01
0.12
0.24
0.33
0.395
0.325
0.225
0.065
-0.02
-0.06
-0.055
0.075
0.23
0.36
0.43
0.285
0.115
0.005
-0.12
-0.21
-0.15
-0.01
0.095
0.335
0.36
0.165
0.05
-0.14
-0.19
-0.26
-0.15
-0.08
0.06
0.205
0.25
0.115
-0.07
-0.225
-0.285
-0.355
-0.215
-0.075
0.055
0.205
0.185
0.06
-0.02
-0.175
-0.395
-0.285
-0.205
-0.045
0.115
0.205
0.07
0.12
-0.11
-0.255
-0.32
-0.25
-0.155
-0.045
0.06
0.125
0.13
0.065
-0.035
-0.235
-0.355
-0.345
-0.19
-0.035
0.03
0.15
0.13
0.045
-0.11
-0.21
-0.335
-0.315
-0.22
-0.065
0.09
0.205
0.175
0.095
-0.06
-0.18
-0.385
-0.29
-0.11
0.0
0.065
0.16
-0.01
-0.035
-0.145
-0.235
-0.295
-0.25
-0.12
0.005
0.06
0.17
0.075
-0.01
-0.135
-0.225
-0.315
-0.21
-0.085
0.025
0.115
0.235
0.15
0.055
-0.14
-0.225
-0.365
-0.26
-0.23
0.0
0.11
0.21
0.09
-0.005
-0.195
-0.295
-0.395
-0.33
-0.14
-0.01
0.13
0.175
0.075
-0.03
-0.155
-0.315
-0.385
-0.315
-0.14
-0.005
0.1
0.225
0.115
0.03
-0.175
-0.285
-0.305
-0.175
-0.12
-0.05
0.105
0.13
0.09
-0.085
-0.205
-0.28
-0.35
-0.26
-0.1
-0.01
0.055
0.115
0.035
-0.085
-0.24
-0.385
-0.415
-0.315
-0.085
0.05
0.185
0.205
0.09
-0.035
-0.185
-0.18
-0.27
-0.12
-0.05
0.02
0.185
0.23
0.2
0.025
-0.145
-0.245
-0.355
-0.265
-0.08
0.03
0.095
0.15
0.01
-0.115
-0.215
-0.34
-0.32
-0.205
-0.065
0.04
0.175
0.095
0.025
-0.13
-0.245
-0.355
-0.41
-0.225
-0.155
-0.005
0.115
0.07
0.025
-0.135
-0.215
-0.375
-0.385
-0.275
-0.09
0.03
0.135
0.075
0.07
-0.085
-0.27
-0.4
-0.35
-0.29
-0.115
0.025
0.14
0.105
-0.035
-0.175
-0.305
-0.435
-0.415
-0.305
-0.1
0.025
0.14
0.075
-0.03
-0.17
-0.28
-0.445
-0.42
-0.285
-0.125
0.01
0.13
0.095
0.065
0.015
-0.09
-0.165
-0.03
0.1
0.38
0.525
0.735
0.76
0.615
0.505
0.365
0.19
0.16
0.205
0.255
0.24
0.24
0.065
-0.135
-0.31
-0.365
-0.5
-0.38
-0.21
0.01
0.055
0.185
0.095
0.01
-0.145
-0.325
-0.45
-0.325
-0.25
0.025
0.1
0.185
0.095
-0.1
-0.235
-0.43
-0.475
-0.385
-0.23
-0.06
0.165
0.25
0.14
-0.085
-0.22
-0.315
-0.45
-0.32
-0.165
-0.015
0.15
0.2
0.105
0.0
-0.195
-0.35
-0.335
-0.26
-0.135
0.01
0.09
0.21
0.06
-0.08
-0.18
-0.345
-0.445
-0.225
-0.085
0.06
0.185
0.27
0.125
-0.04
-0.205
-0.315
-0.3
-0.235
-0.065
0.035
0.225
0.265
0.09
-0.07
-0.21
-0.335
-0.36
-0.195
-0.075
0.075
0.255
0.305
0.19
0.02
-0.045
-0.175
-0.2
-0.135
0.01
0.145
0.3
0.345
0.24
0.115
0.01
-0.17
-0.125
-0.015
0.155
0.24
0.34
0.32
0.27
0.09
-0.05
-0.135
-0.08
0.02
0.17
0.26
0.325
0.265
0.165
0.045
-0.095
-0.245
-0.15
-0.015
0.08
0.27
0.31
0.21
0.12
-0.005
-0.135
-0.25
-0.185
-0.095
0.075
0.14
0.26
0.145
0.02
-0.185
-0.275
-0.315
-0.305
-0.18
-0.005
0.11
0.165
0.12
0.005
-0.235
-0.325
-0.415
-0.38
-0.25
-0.015
0.085
0.12
0.06
-0.06
-0.22
-0.335
-0.405
-0.365
-0.24
-0.015
0.14
0.195
0.105
-0.09
-0.245
-0.28
-0.4
-0.335
-0.22
-0.075
0.025
0.135
0.06
-0.06
-0.225
-0.365
-0.4
-0.335
-0.21
0.025
0.07
0.105
0.035
-0.135
-0.18
-0.37
-0.42
-0.31
-0.19
-0.085
0.065
0.165
0.095
-0.075
-0.235
-0.345
-0.395
-0.295
-0.16
-0.045
0.07
0.23
0.05
-0.085
-0.175
-0.33
-0.385
-0.305
-0.13
0.03
0.165
0.155
0.01
-0.165
-0.275
-0.415
-0.4
-0.3
-0.11
-0.025
0.065
0.155
0.055
-0.085
-0.22
-0.355
-0.395
-0.31
-0.165
-0.015
0.155
0.165
0.045
-0.145
-0.275
-0.405
-0.395
-0.285
-0.145
-0.035
0.09
0.09
-0.03
-0.135
-0.26
-0.405
-0.44
-0.305
-0.155
-0.05
0.105
0.04
0.01
-0.135
-0.31
-0.4
-0.305
-0.23
-0.115
0.04
0.145
0.06
-0.035
-0.13
-0.285
-0.41
-0.395
-0.305
-0.15
-0.015
0.18
0.145
0.045
-0.16
-0.35
-0.485
-0.345
-0.24
-0.095
0.055
0.195
0.1
0.015
-0.185
-0.29
-0.35
-0.295
-0.22
-0.035
0.1
0.16
0.19
0.03
-0.185
-0.21
-0.375
-0.365
-0.245
-0.09
0.065
0.18
0.055
-0.11
-0.24
-0.405
-0.455
-0.365
-0.32
-0.115
-0.01
0.125
0.02
-0.035
-0.27
-0.34
-0.455
-0.365
-0.215
-0.06
0.05
0.095
0.035
-0.165
-0.3
-0.395
-0.465
-0.335
-0.23
-0.06
0.085
0.11
0.045
-0.175
-0.315
-0.43
-0.5
-0.42
-0.26
-0.07
0.1
0.11
0.005
-0.135
-0.27
-0.43
-0.46
-0.34
-0.165
-0.11
0.06
0.125
-0.04
-0.16
-0.355
-0.41
-0.46
-0.27
-0.13
0.05
0.215
0.295
0.28
0.15
0.1
0.03
0.11
0.355
0.525
0.705
0.765
0.76
0.51
0.44
0.185
-0.07
-0.185
-0.19
-0.19
-0.09
0.04
0.1
-0.005
-0.12
-0.29
-0.38
-0.315
-0.225
-0.105
0.035
0.135
0.115
0.015
-0.155
-0.315
-0.465
-0.405
-0.295
-0.155
-0.02
0.065
0.105
0.06
-0.22
-0.28
-0.34
-0.325
-0.235
-0.03
0.065
0.12
0.065
0.055
-0.13
-0.255
-0.38
-0.285
-0.245
-0.13
0.005
0.2
0.17
0.04
-0.125
-0.26
-0.365
-0.33
-0.195
-0.115
0.0
0.13
0.0
0.01
-0.105
-0.245
-0.33
-0.195
-0.15
-0.05
0.1
0.17
0.135
0.03
-0.175
-0.275
-0.375
-0.27
-0.115
0.03
0.165
0.275
0.245
0.095
-0.08
-0.215
-0.3
-0.24
-0.05
0.145
0.245
0.355
0.245
0.13
0.015
-0.12
-0.2
-0.07
0.04
0.19
0.3
0.305
0.23
0.16
-0.04
-0.16
-0.235
-0.135
0.0
0.235
0.355
0.41
0.29
0.11
0.03
-0.11
-0.185
-0.105
0.065
0.21
0.335
0.36
0.235
0.085
-0.04
-0.16
-0.225
-0.145
0.015
0.115
0.21
0.22
0.2
-0.045
-0.165
-0.225
-0.305
-0.215
-0.07
0.03
0.15
0.235
0.065
-0.1
-0.21
-0.36
-0.415
-0.295
-0.17
-0.035
0.085
0.075
-0.035
-0.21
-0.35
-0.42
-0.46
-0.285
-0.03
0.045
0.035
0.035
-0.025
-0.235
-0.325
-0.38
-0.395
-0.255
-0.11
0.0
0.12
0.105
0.01
-0.14
-0.32
-0.425
-0.405
-0.335
-0.18
-0.01
0.135
0.04
-0.01
-0.145
-0.32
-0.44
-0.38
-0.34
-0.195
-0.045
0.03
0.01
-0.07
-0.175
-0.315
-0.435
-0.39
-0.28
-0.08
0.01
0.08
0.075
0.03
-0.145
-0.305
-0.395
-0.39
-0.24
-0.115
0.06
0.135
0.06
-0.08
-0.23
-0.335
-0.42
-0.355
-0.235
-0.095
0.025
0.03
0.02
-0.085
-0.26
-0.355
-0.46
-0.355
-0.23
-0.14
0.0
0.095
-0.035
-0.13
-0.245
-0.335
-0.42
-0.28
-0.215
-0.085
0.03
0.125
0.035
-0.135
-0.28
-0.37
-0.445
-0.37
-0.23
-0.04
0.05
0.16
-0.045
-0.145
-0.245
-0.475
-0.5
-0.38
-0.255
-0.11
0.0
0.1
-0.035
-0.205
-0.27
-0.37
-0.4
-0.355
-0.19
-0.08
0.055
0.13
0.065
-0.11
-0.28
-0.42
-0.465
-0.34
-0.24
-0.085
0.06
0.1
0.065
-0.205
-0.305
-0.415
-0.465
-0.4
-0.19
-0.075
0.06
0.095
0.065
-0.09
-0.285
-0.415
-0.48
-0.315
-0.14
-0.045
0.095
0.15
-0.015
-0.18
-0.3
-0.415
-0.42
-0.315
-0.155
0.01
0.18
0.17
-0.03
-0.25
-0.4
-0.47
-0.475
-0.445
-0.2
-0.14
-0.03
0.005
-0.06
-0.225
-0.34
-0.465
-0.41
-0.345
-0.17
-0.015
0.08
0.085
-0.13
-0.265
-0.39
-0.515
-0.465
-0.35
-0.185
-0.07
0.04
-0.04
-0.13
-0.28
-0.465
-0.61
-0.56
-0.41
-0.18
0.0
0.09
-0.005
-0.08
-0.28
-0.395
-0.49
-0.43
-0.33
-0.12
-0.035
0.075
-0.065
-0.18
-0.335
-0.46
-0.5
-0.35
-0.175
0.07
0.25
0.395
0.32
0.235
0.19
0.205
0.13
0.275
0.42
0.51
0.6
0.655
0.41
0.255
-0.005
-0.165
-0.39
-0.41
-0.32
-0.16
-0.045
0.06
0.015
-0.065
-0.215
-0.385
-0.47
-0.33
-0.22
-0.095
0.05
0.19
0.05
-0.15
-0.28
-0.405
-0.43
-0.36
-0.25
-0.1
0.0
0.045
-0.065
-0.225
-0.37
-0.57
-0.62
-0.42
-0.185
-0.06
0.06
0.14
-0.07
-0.18
-0.315
-0.42
-0.495
-0.365
-0.13
-0.055
0.04
0.165
0.075
-0.235
-0.38
-0.435
-0.47
-0.365
-0.175
-0.015
0.1
0.11
-0.02
-0.125
-0.32
-0.47
-0.49
-0.375
-0.21
0.015
0.06
0.09
0.015
-0.18
-0.375
-0.47
-0.345
-0.185
-0.03
0.09
0.145
0.065
0.03
-0.095
-0.27
-0.405
-0.335
-0.175
-0.03
0.09
0.22
0.16
0.11
-0.075
-0.235
-0.285
-0.21
-0.11
0.03
0.195
0.215
0.195
0.17
-0.025
-0.13
-0.2
-0.195
-0.065
0.1
0.275
0.32
0.225
0.105
-0.035
-0.095
-0.195
-0.17
-0.025
0.105
0.255
0.365
0.275
0.215
-0.02
-0.165
-0.29
-0.25
-0.13
-0.015
0.145
0.235
0.23
0.17
-0.045
-0.12
-0.265
-0.21
-0.145
-0.005
0.075
0.19
0.1
-0.085
-0.15
-0.275
-0.385
-0.34
-0.275
-0.15
-0.01
0.08
0.075
0.01
-0.175
-0.265
-0.385
-0.355
-0.21
-0.04
0.08
0.105
0.04
-0.145
-0.235
-0.35
-0.41
-0.345
-0.155
0.04
0.08
0.035
-0.02
-0.135
-0.25
-0.375
-0.49
-0.405
-0.25
-0.075
0.085
0.21
-0.015
-0.165
-0.285
-0.41
-0.465
-0.405
-0.32
-0.09
0.0
0.085
0.01
-0.15
-0.255
-0.395
-0.455
-0.34
-0.19
-0.065
0.025
0.055
-0.095
-0.275
-0.345
-0.465
-0.525
-0.41
-0.21
-0.07
0.065
0.1
-0.055
-0.24
-0.375
-0.505
-0.51
-0.35
-0.225
-0.065
-0.03
0.005
-0.105
-0.215
-0.34
-0.51
-0.465
-0.325
-0.255
-0.185
0.005
-0.045
-0.145
-0.25
-0.4
-0.53
-0.5
-0.41
-0.335
-0.245
-0.08
-0.065
-0.095
-0.31
-0.445
-0.55
-0.53
-0.46
-0.325
-0.17
-0.05
0.025
-0.095
-0.29
-0.455
-0.6
-0.54
-0.475
-0.38
-0.26
0.0
-0.095
-0.135
-0.34
-0.51
-0.615
-0.495
-0.415
-0.27
-0.165
-0.07
-0.13
-0.24
-0.4
-0.545
-0.6
-0.53
-0.425
-0.26
-0.14
-0.015
-0.065
-0.235
-0.38
-0.52
-0.595
-0.485
-0.425
-0.255
-0.12
-0.035
-0.14
-0.195
-0.39
-0.54
-0.51
-0.455
-0.34
-0.18
-0.105
0.04
-0.07
-0.21
-0.33
-0.415
-0.555
-0.505
-0.34
-0.245
-0.165
-0.095
-0.175
-0.26
-0.385
-0.465
-0.575
-0.535
-0.45
-0.24
-0.13
-0.06
-0.18
-0.3
-0.485
-0.54
-0.53
-0.56
-0.43
-0.23
-0.135
-0.08
-0.2
-0.345
-0.425
-0.575
-0.6
-0.59
-0.43
-0.245
-0.155
-0.08
-0.15
-0.31
-0.455
-0.58
-0.6
-0.51
-0.345
-0.215
-0.135
-0.13
-0.19
-0.325
-0.49
-0.585
-0.635
-0.485
-0.32
-0.215
-0.125
-0.025
-0.19
-0.365
-0.525
-0.6
-0.68
-0.5
-0.27
-0.095
0.085
0.095
0.02
-0.08
-0.19
-0.24
-0.095
0.145
0.41
0.52
0.685
0.545
0.475
0.255
0.05
-0.13
-0.215
-0.22
-0.15
-0.1
-0.145
-0.19
-0.325
-0.4
-0.445
-0.56
-0.52
-0.415
-0.22
-0.095
0.03
0.02
-0.02
-0.26
-0.44
-0.585
-0.585
-0.45
-0.305
-0.155
-0.07
-0.13
-0.18
-0.37
-0.525
-0.57
-0.485
-0.385
-0.24
-0.15
-0.025
-0.09
-0.19
-0.32
-0.42
-0.53
-0.48
-0.35
-0.215
-0.1
0.04
-0.045
-0.18
-0.29
-0.425
-0.555
-0.485
-0.33
-0.2
-0.11
-0.005
-0.025
-0.24
-0.375
-0.53
-0.6
-0.45
-0.27
-0.125
-0.025
0.065
-0.01
-0.21
-0.345
-0.42
-0.51
-0.455
-0.29
-0.105
0.04
0.15
0.035
-0.105
-0.235
-0.37
-0.5
-0.395
-0.23
0.0
0.07
0.105
0.04
-0.12
-0.23
-0.3
-0.415
-0.3
-0.16
0.01
0.1
0.15
0.01
-0.035
-0.205
-0.32
-0.35
-0.285
-0.12
0.035
0.16
0.235
0.105
-0.07
-0.26
-0.285
-0.345
-0.22
0.01
0.085
0.13
0.225
0.095
-0.02
-0.165
-0.23
-0.38
-0.255
-0.19
0.0
0.105
0.12
-0.02
-0.19
-0.32
-0.425
-0.465
-0.36
-0.225
-0.09
0.025
0.06
-0.105
-0.26
-0.455
-0.51
-0.465
-0.37
-0.11
-0.04
-0.015
0.015
-0.05
-0.205
-0.38
-0.475
-0.48
-0.405
-0.24
-0.13
-0.045
-0.03
-0.14
-0.26
-0.395
-0.49
-0.49
-0.34
-0.19
-0.135
-0.06
-0.08
-0.205
-0.38
-0.455
-0.47
-0.465
-0.37
-0.22
-0.055
0.065
-0.045
-0.14
-0.32
-0.4
-0.44
-0.425
-0.36
-0.19
-0.05
0.035
-0.04
-0.09
-0.325
-0.46
-0.505
-0.425
-0.315
-0.15
-0.09
0.03
-0.08
-0.21
-0.295
-0.395
-0.525
-0.415
-0.29
-0.125
-0.045
0.045
-0.045
-0.24
-0.39
-0.48
-0.525
-0.495
-0.315
-0.18
-0.09
0.055
-0.01
-0.205
-0.37
-0.465
-0.515
-0.415
-0.195
-0.085
-0.065
0.01
-0.035
-0.225
-0.395
-0.515
-0.48
-0.32
-0.325
-0.14
-0.04
0.1
0.005
-0.17
-0.34
-0.505
-0.565
-0.475
-0.275
-0.055
0.11
-0.02
-0.09
-0.285
-0.455
-0.54
-0.595
-0.495
-0.36
-0.19
-0.02
0.055
-0.03
-0.165
-0.345
-0.41
-0.5
-0.45
-0.28
-0.145
0.015
0.03
-0.1
-0.255
-0.39
-0.48
-0.505
-0.415
-0.27
-0.06
-0.01
0.085
0.01
-0.21
-0.365
-0.505
-0.515
-0.385
-0.255
-0.12
-0.005
0.02
-0.125
-0.275
-0.395
-0.505
-0.51
-0.385
-0.21
-0.065
0.095
0.12
-0.03
-0.11
-0.255
-0.475
-0.41
-0.24
-0.105
-0.005
0.045
-0.005
-0.11
-0.285
-0.42
-0.525
-0.475
-0.425
-0.255
-0.1
-0.015
-0.065
-0.11
-0.245
-0.325
-0.525
-0.485
-0.335
-0.17
-0.11
0.03
-0.035
-0.26
-0.33
-0.455
-0.56
-0.465
-0.335
-0.135
-0.03
0.015
-0.055
-0.205
-0.32
-0.395
-0.52
-0.4
-0.41
-0.265
-0.1
-0.055
0.0
-0.165
-0.33
-0.51
-0.6
-0.455
-0.35
-0.28
-0.08
-0.025
-0.19
-0.275
-0.41
-0.5
-0.605
-0.49
-0.315
-0.185
-0.05
-0.015
-0.1
-0.2
-0.32
-0.44
-0.465
-0.25
-0.09
0.095
0.245
0.4
0.415
0.425
0.445
0.305
0.245
0.265
0.335
0.44
0.455
0.425
0.155
-0.065
-0.33
-0.575
-0.67
-0.585
-0.425
-0.22
-0.09
-0.085
-0.09
-0.195
-0.335
-0.435
-0.55
-0.42
-0.31
-0.135
-0.045
-0.02
-0.205
-0.345
-0.4
-0.515
-0.555
-0.42
-0.315
-0.215
-0.115
0.045
-0.045
-0.24
-0.39
-0.53
-0.57
-0.44
-0.3
-0.18
-0.035
-0.03
-0.035
-0.26
-0.415
-0.53
-0.57
-0.495
-0.25
-0.03
0.1
-0.02
-0.12
-0.32
-0.395
-0.5
-0.415
-0.435
-0.215
-0.06
0.09
0.035
-0.115
-0.34
-0.42
-0.51
-0.47
-0.35
-0.22
-0.02
0.07
0.04
-0.09
-0.26
-0.395
-0.42
-0.41
-0.26
-0.155
-0.025
0.1
0.07
0.025
-0.25
-0.38
-0.445
-0.35
-0.3
-0.16
0.025
0.155
0.115
-0.015
-0.16
-0.255
-0.32
-0.285
-0.17
0.03
0.16
0.265
0.165
0.0
-0.195
-0.29
-0.35
-0.195
-0.055
0.09
0.115
0.185
0.13
0.025
-0.145
-0.255
-0.28
-0.21
-0.16
0.03
0.12
0.23
0.025
-0.08
-0.17
-0.315
-0.465
-0.32
-0.2
0.0
0.065
0.075
0.0
-0.16
-0.315
-0.415
-0.395
-0.33
-0.22
-0.115
-0.055
0.07
-0.08
-0.24
-0.385
-0.465
-0.545
-0.455
-0.27
-0.07
0.0
0.02
-0.16
-0.255
-0.385
-0.485
-0.51
-0.455
-0.32
-0.16
-0.09
0.0
-0.14
-0.26
-0.37
-0.44
-0.55
-0.41
-0.225
-0.13
-0.035
0.05
-0.08
-0.24
-0.42
-0.52
-0.555
-0.375
-0.32
-0.105
-0.03
0.03
-0.06
-0.215
-0.34
-0.465
-0.595
-0.415
-0.24
-0.105
-0.115
-0.07
-0.16
-0.28
-0.365
-0.475
-0.5
-0.345
-0.225
-0.08
0.0
0.025
-0.07
-0.235
-0.405
-0.525
-0.515
-0.33
-0.15
-0.055
0.035
0.055
-0.08
-0.33
-0.445
-0.55
-0.545
-0.46
-0.24
-0.1
0.03
-0.04
-0.125
-0.33
-0.435
-0.6
-0.47
-0.33
-0.16
-0.06
0.1
0.0
-0.11
-0.265
-0.38
-0.49
-0.535
-0.41
-0.14
-0.035
0.0
-0.115
-0.225
-0.355
-0.41
-0.47
-0.42
-0.31
-0.23
-0.125
0.045
-0.01
-0.18
-0.36
-0.465
-0.525
-0.425
-0.35
-0.215
-0.095
-0.025
-0.07
-0.165
-0.325
-0.47
-0.53
-0.46
-0.34
-0.155
-0.09
0.015
-0.04
-0.275
-0.38
-0.505
-0.64
-0.53
-0.415
-0.225
-0.03
0.11
-0.05
-0.195
-0.375
-0.49
-0.52
-0.42
-0.26
-0.16
-0.01
0.08
-0.065
-0.235
-0.36
-0.475
-0.49
-0.435
-0.285
-0.115
-0.045
0.0
-0.085
-0.23
-0.365
-0.39
-0.46
-0.39
-0.26
-0.12
-0.045
0.015
0.0
-0.205
-0.325
-0.38
-0.41
-0.365
-0.245
-0.05
0.01
0.045
0.01
-0.25
-0.37
-0.54
-0.605
-0.455
-0.305
-0.12
-0.04
0.02
-0.085
-0.245
-0.345
-0.485
-0.515
-0.41
-0.335
-0.16
-0.04
-0.035
-0.12
-0.245
-0.375
-0.45
-0.53
-0.415
-0.22
-0.09
0.025
-0.01
-0.18
-0.35
-0.42
-0.56
-0.545
-0.4
-0.235
-0.115
-0.075
-0.11
-0.275
-0.36
-0.415
-0.475
-0.51
-0.425
-0.235
-0.125
-0.03
-0.07
-0.14
-0.31
-0.425
-0.58
-0.565
-0.425
-0.295
-0.145
0.105
0.11
0.105
0.02
-0.13
-0.185
-0.075
0.095
0.37
0.665
0.815
0.76
0.655
0.43
0.265
0.015
0.0
0.02
0.05
0.085
0.095
-0.06
-0.16
-0.37
-0.49
-0.55
-0.47
-0.265
-0.095
0.06
0.095
-0.015
-0.105
-0.19
-0.395
-0.48
-0.37
-0.225
-0.095
-0.055
0.04
0.02
-0.065
-0.195
-0.295
-0.385
-0.38
-0.23
-0.07
0.05
0.12
0.04
-0.045
-0.24
-0.35
-0.385
-0.39
-0.295
-0.1
0.035
0.13
0.02
-0.17
-0.265
-0.335
-0.42
-0.35
-0.165
-0.03
0.115
0.215
-0.025
-0.145
-0.285
-0.375
-0.43
-0.335
-0.09
0.095
0.095
0.19
0.1
-0.1
-0.305
-0.425
-0.455
-0.325
-0.125
0.015
0.055
0.165
0.055
-0.125
-0.27
-0.305
-0.385
-0.2
-0.06
0.08
0.145
0.18
0.035
-0.07
-0.18
-0.285
-0.25
-0.245
-0.06
0.09
0.23
0.22
0.165
0.04
-0.095
-0.265
-0.21
-0.1
0.055
0.185
0.235
0.235
0.2
-0.05
-0.17
-0.275
-0.23
-0.145
0.055
0.135
0.265
0.15
0.075
-0.14
-0.205
-0.275
-0.2
-0.135
-0.005
0.11
0.175
0.165
0.08
0.04
-0.15
-0.335
-0.305
-0.28
-0.05
0.075
0.06
0.025
0.005
-0.17
-0.325
-0.49
-0.395
-0.295
-0.1
-0.02
0.06
0.005
-0.12
-0.295
-0.29
-0.515
-0.49
-0.36
-0.255
-0.075
0.09
-0.045
-0.1
-0.25
-0.425
-0.465
-0.4
-0.28
-0.14
0.005
0.105
0.04
-0.05
-0.24
-0.4
-0.465
-0.42
-0.24
-0.12
0.005
0.095
-0.045
-0.175
-0.33
-0.46
-0.53
-0.41
-0.255
-0.185
-0.005
0.04
-0.045
-0.145
-0.295
-0.39
-0.48
-0.355
-0.21
-0.105
-0.02
0.08
0.0
-0.13
-0.275
-0.36
-0.415
-0.345
-0.245
-0.065
0.01
0.11
0.035
-0.115
-0.33
-0.435
-0.46
-0.375
-0.235
-0.055
0.03
0.125
-0.005
-0.175
-0.32
-0.4
-0.475
-0.36
-0.26
-0.095
0.055
0.1
0.005
-0.19
-0.33
-0.49
-0.475
-0.38
-0.175
0.03
0.085
0.12
0.08
-0.21
-0.325
-0.4
-0.43
-0.355
-0.205
-0.055
0.045
0.085
-0.055
-0.155
-0.295
-0.435
-0.42
-0.32
-0.27
-0.06
0.12
0.055
-0.035
-0.245
-0.375
-0.415
-0.405
-0.35
-0.19
-0.01
0.07
0.04
-0.06
-0.3
-0.365
-0.465
-0.42
-0.305
-0.1
0.005
0.105
0.01
-0.02
-0.25
-0.295
-0.395
-0.38
-0.32
-0.14
0.055
0.115
0.1
0.05
-0.16
-0.33
-0.375
-0.42
-0.33
-0.07
0.005
0.15
0.065
-0.025
-0.175
-0.235
-0.405
-0.345
-0.175
-0.04
0.05
0.155
0.05
-0.055
-0.225
-0.345
-0.43
-0.375
-0.245
-0.01
0.1
0.135
0.055
-0.16
-0.305
-0.365
-0.445
-0.415
-0.22
0.01
0.06
0.125
0.07
-0.075
-0.225
-0.305
-0.4
-0.35
-0.215
-0.09
0.05
0.11
-0.015
-0.105
-0.265
-0.355
-0.455
-0.31
-0.125
-0.02
0.095
0.08
-0.005
-0.175
-0.325
-0.385
-0.425
-0.33
-0.145
-0.065
0.03
0.12
0.06
-0.185
-0.295
-0.39
-0.44
-0.33
-0.185
-0.005
0.105
0.095
-0.035
-0.18
-0.305
-0.275
-0.355
-0.22
-0.035
0.245
0.375
0.375
0.375
0.35
0.33
0.28
0.26
0.37
0.445
0.57
0.61
0.57
0.41
0.175
-0.09
-0.33
-0.41
-0.34
-0.31
-0.175
0.0
0.05
-0.085
-0.185
-0.295
-0.45
-0.38
-0.265
-0.15
0.02
0.115
0.105
-0.03
-0.2
-0.315
-0.41
-0.375
-0.305
-0.145
-0.015
0.14
0.13
-0.005
-0.11
-0.32
-0.455
-0.41
-0.215
-0.13
-0.055
0.135
0.015
-0.025
-0.215
-0.265
-0.355
-0.29
-0.175
-0.07
0.125
0.24
0.18
0.055
-0.135
-0.28
-0.345
-0.265
-0.175
-0.005
0.155
0.295
0.245
0.18
-0.065
-0.165
-0.265
-0.2
-0.14
-0.025
0.145
0.23
0.205
0.05
-0.075
-0.215
-0.325
-0.2
-0.08
0.1
0.185
0.305
0.225
0.1
0.0
-0.12
-0.19
-0.105
0.05
0.17
0.285
0.41
0.29
0.195
0.015
-0.2
-0.255
-0.115
0.03
0.215
0.33
0.355
0.285
0.21
0.06
-0.125
-0.185
-0.05
0.05
0.19
0.345
0.385
0.3
0.165
-0.005
-0.105
-0.185
-0.065
0.095
0.215
0.32
0.38
0.245
0.12
-0.04
-0.255
-0.295
-0.255
-0.145
0.11
0.245
0.23
0.095
-0.015
-0.145
-0.28
-0.39
-0.33
-0.155
-0.03
0.145
0.175
0.07
-0.115
-0.325
-0.425
-0.43
-0.295
-0.155
-0.05
0.095
0.115
0.07
-0.11
-0.275
-0.37
-0.415
-0.29
-0.145
-0.12
0.065
0.05
0.02
-0.22
-0.355
-0.405
-0.44
-0.39
-0.21
-0.06
0.05
0.06
-0.015
-0.2
-0.39
-0.475
-0.455
-0.335
-0.14
-0.035
0.085
0.09
-0.04
-0.295
-0.38
-0.455
-0.43
-0.295
-0.14
-0.035
0.11
0.005
-0.09
-0.25
-0.345
-0.505
-0.45
-0.32
-0.125
-0.02
0.085
0.035
-0.03
-0.245
-0.37
-0.495
-0.435
-0.25
-0.185
-0.045
0.06
0.075
0.005
-0.185
-0.38
-0.5
-0.45
-0.31
-0.145
-0.02
0.07
-0.035
-0.095
-0.255
-0.39
-0.525
-0.405
-0.255
-0.055
0.015
0.085
-0.015
-0.17
-0.28
-0.455
-0.485
-0.36
-0.29
-0.215
-0.045
0.13
-0.015
-0.195
-0.37
-0.365
-0.455
-0.425
-0.25
-0.09
0.015
0.035
-0.03
-0.205
-0.325
-0.36
-0.485
-0.375
-0.235
-0.18
-0.02
0.06
-0.05
-0.185
-0.345
-0.51
-0.53
-0.415
-0.25
-0.13
-0.01
0.11
0.03
-0.155
-0.255
-0.395
-0.53
-0.395
-0.31
-0.16
-0.075
-0.01
-0.08
-0.225
-0.33
-0.48
-0.535
-0.455
-0.205
-0.04
-0.005
0.03
-0.04
-0.23
-0.39
-0.5
-0.575
-0.38
-0.195
-0.09
0.05
0.125
-0.05
-0.22
-0.415
-0.43
-0.455
-0.375
-0.195
0.04
0.1
0.075
-0.065
-0.195
-0.28
-0.41
-0.44
-0.345
-0.135
-0.055
0.095
0.085
0.025
-0.135
-0.32
-0.455
-0.465
-0.345
-0.18
0.045
0.115
0.02
-0.14
-0.205
-0.34
-0.4
-0.41
-0.31
-0.175
0.005
0.055
0.015
-0.025
-0.175
-0.355
-0.45
-0.385
-0.295
-0.1
0.035
0.155
-0.055
-0.115
-0.255
-0.34
-0.415
-0.41
-0.285
-0.16
-0.04
0.125
0.075
-0.005
-0.255
-0.315
-0.45
-0.385
-0.31
-0.1
0.04
0.12
0.055
-0.07
-0.195
-0.305
-0.395
-0.335
-0.21
-0.095
-0.025
0.105
0.0
-0.16
-0.36
-0.465
-0.54
-0.395
-0.245
-0.05
0.085
0.255
0.18
0.16
0.07
-0.03
-0.05
0.155
0.455
0.67
0.74
0.795
0.67
0.535
0.37
0.165
-0.02
-0.05
-0.005
0.055
0.01
0.035
-0.02
-0.14
-0.275
-0.33
-0.37
-0.255
-0.14
-0.04
0.085
0.11
0.03
-0.16
-0.255
-0.365
-0.39
-0.27
-0.135
-0.01
0.045
0.11
0.05
-0.105
-0.205
-0.305
-0.37
-0.29
-0.185
-0.015
0.12
0.275
0.175
-0.07
-0.225
-0.285
-0.295
-0.16
-0.095
0.005
0.16
0.215
0.075
-0.035
-0.185
-0.31
-0.33
-0.215
0.025
0.145
0.25
0.295
0.15
-0.055
-0.225
-0.285
-0.29
-0.145
0.07
0.1
0.29
0.28
0.125
-0.03
-0.17
-0.3
-0.25
-0.095
0.025
0.115
0.235
0.23
0.14
-0.005
-0.15
-0.26
-0.22
-0.095
0.055
0.22
0.305
0.265
0.15
-0.015
-0.15
-0.24
-0.125
-0.095
0.115
0.29
0.35
0.28
0.2
-0.025
-0.135
-0.245
-0.18
-0.07
0.135
0.24
0.36
0.3
0.245
0.04
-0.045
-0.125
-0.165
-0.08
0.06
0.22
0.325
0.285
0.07
-0.055
-0.16
-0.305
-0.16
-0.09
0.075
0.155
0.28
0.185
0.005
-0.105
-0.255
-0.355
-0.37
-0.21
-0.045
0.07
0.18
0.035
-0.135
-0.275
-0.42
-0.51
-0.415
-0.27
-0.105
-0.07
0.065
0.055
-0.12
-0.23
-0.435
-0.49
-0.35
-0.285
-0.17
-0.055
0.05
0.005
-0.135
-0.39
-0.52
-0.545
-0.45
-0.25
-0.075
0.03
0.05
-0.055
-0.225
-0.355
-0.44
-0.535
-0.43
-0.355
-0.175
-0.02
0.11
-0.01
-0.215
-0.385
-0.505
-0.595
-0.375
-0.28
-0.19
-0.04
0.09
-0.07
-0.22
-0.415
-0.48
-0.56
-0.41
-0.235
-0.125
0.02
0.045
-0.07
-0.26
-0.435
-0.52
-0.5
-0.385
-0.23
-0.105
-0.025
0.01
-0.045
-0.235
-0.41
-0.49
-0.465
-0.35
-0.205
-0.045
0.02
-0.025
-0.095
-0.22
-0.375
-0.46
-0.46
-0.42
-0.235
-0.07
-0.015
-0.025
-0.115
-0.325
-0.465
-0.555
-0.55
-0.41
-0.225
-0.115
0.015
0.0
-0.085
-0.24
-0.39
-0.48
-0.4
-0.31
-0.21
-0.09
0.005
-0.03
-0.155
-0.27
-0.395
-0.545
-0.44
-0.335
-0.23
-0.08
0.085
-0.045
-0.17
-0.28
-0.395
-0.575
-0.49
-0.335
-0.215
-0.145
-0.05
-0.015
-0.195
-0.315
-0.395
-0.445
-0.345
-0.285
-0.165
-0.07
-0.015
-0.025
-0.145
-0.345
-0.465
-0.545
-0.41
-0.345
-0.205
-0.05
0.045
0.01
-0.15
-0.295
-0.44
-0.465
-0.4
-0.29
-0.11
-0.015
0.04
-0.05
-0.17
-0.28
-0.4
-0.5
-0.395
-0.22
-0.06
0.085
0.025
-0.005
-0.14
-0.33
-0.4
-0.51
-0.4
-0.195
-0.055
0.06
0.15
0.075
-0.105
-0.245
-0.44
-0.475
-0.37
-0.215
-0.105
0.105
0.14
-0.04
-0.2
-0.29
-0.39
-0.54
-0.42
-0.295
-0.085
-0.02
0.015
-0.04
-0.155
-0.265
-0.415
-0.52
-0.35
-0.295
-0.195
0.065
0.155
0.06
-0.215
-0.35
-0.53
-0.585
-0.45
-0.245
-0.09
0.025
-0.015
-0.11
-0.19
-0.305
-0.435
-0.465
-0.425
-0.25
-0.105
0.005
0.01
-0.08
-0.285
-0.385
-0.43
-0.495
-0.415
-0.22
-0.075
0.03
0.11
-0.005
-0.24
-0.365
-0.52
-0.515
-0.38
-0.14
0.03
0.145
0.155
0.125
0.04
-0.03
-0.035
0.0
0.3
0.57
0.715
0.77
0.68
0.595
0.36
0.135
-0.005
-0.035
-0.07
-0.035
-0.015
0.085
0.04
-0.075
-0.185
-0.265
-0.44
-0.45
-0.275
-0.135
0.02
0.19
0.075
-0.08
-0.21
-0.355
-0.415
-0.37
-0.29
-0.095
0.03
0.15
0.05
-0.075
-0.175
-0.335
-0.44
-0.37
-0.24
-0.005
0.035
0.145
0.055
-0.09
-0.23
-0.36
-0.445
-0.315
-0.235
-0.055
0.05
0.13
0.125
0.025
-0.115
-0.37
-0.435
-0.335
-0.165
-0.085
0.04
0.1
0.02
-0.08
-0.235
-0.315
-0.4
-0.29
-0.13
0.005
0.08
0.15
0.025
-0.11
-0.215
-0.37
-0.415
-0.24
-0.105
0.05
0.125
0.205
0.11
-0.065
-0.225
-0.295
-0.355
-0.24
-0.075
0.075
0.21
0.265
0.135
0.035
-0.085
-0.235
-0.3
-0.205
0.02
0.15
0.275
0.275
0.17
-0.01
-0.115
-0.21
-0.22
-0.055
0.03
0.175
0.29
0.435
0.32
0.135
0.01
-0.1
-0.215
-0.075
0.09
0.19
0.28
0.29
0.25
0.04
-0.125
-0.18
-0.165
-0.035
0.08
0.175
0.255
0.16
0.08
-0.075
-0.09
-0.28
-0.33
-0.185
-0.095
0.1
0.11
0.05
-0.02
-0.115
-0.21
-0.295
-0.34
-0.215
-0.085
-0.005
0.075
0.07
-0.095
-0.225
-0.27
-0.415
-0.37
-0.265
-0.04
0.075
0.19
0.135
-0.03
-0.17
-0.38
-0.465
-0.385
-0.29
-0.14
-0.005
0.105
0.02
-0.085
-0.275
-0.445
-0.54
-0.385
-0.24
-0.015
0.07
0.17
0.08
-0.08
-0.28
-0.39
-0.485
-0.385
-0.205
-0.085
0.135
0.065
-0.075
-0.095
-0.275
-0.39
-0.55
-0.41
-0.185
-0.065
0.03
0.095
-0.02
-0.14
-0.3
-0.385
-0.4
-0.345
-0.17
0.02
0.095
0.16
0.08
-0.115
-0.26
-0.315
-0.44
-0.425
-0.23
-0.075
-0.04
0.085
-0.04
-0.225
-0.34
-0.43
-0.5
-0.295
-0.165
-0.03
0.07
0.075
-0.04
-0.175
-0.315
-0.35
-0.475
-0.34
-0.2
-0.025
0.01
0.025
-0.05
-0.155
-0.305
-0.41
-0.415
-0.26
-0.155
-0.07
-0.045
0.035
0.02
-0.21
-0.345
-0.41
-0.45
-0.335
-0.19
0.0
0.12
0.08
-0.01
-0.19
-0.38
-0.48
-0.49
-0.39
-0.205
-0.065
0.005
0.085
-0.065
-0.16
-0.33
-0.42
-0.46
-0.355
-0.185
-0.045
0.055
0.025
-0.065
-0.185
-0.28
-0.35
-0.33
-0.365
-0.18
-0.06
0.1
0.085
0.015
-0.245
-0.33
-0.47
-0.37
-0.23
-0.06
-0.01
0.09
0.085
-0.03
-0.175
-0.305
-0.405
-0.34
-0.23
-0.07
0.1
0.195
0.135
-0.08
-0.26
-0.335
-0.455
-0.37
-0.29
-0.145
-0.015
0.05
0.045
-0.135
-0.285
-0.34
-0.455
-0.395
-0.33
-0.19
0.02
0.095
0.04
-0.06
-0.255
-0.315
-0.47
-0.415
-0.315
-0.17
-0.015
0.075
-0.04
-0.17
-0.26
-0.395
-0.48
-0.355
-0.2
-0.06
-0.015
0.005
-0.055
-0.12
-0.285
-0.435
-0.505
-0.4
-0.22
-0.06
0.04
0.095
0.035
-0.18
-0.32
-0.425
-0.475
-0.345
-0.255
-0.22
-0.09
0.04
-0.02
-0.1
-0.145
-0.215
-0.225
-0.075
0.115
0.35
0.58
0.73
0.685
0.595
0.41
0.255
0.135
0.185
0.275
0.36
0.295
0.335
0.045
-0.195
-0.365
-0.365
-0.46
-0.355
-0.18
-0.115
0.115
0.18
0.02
-0.15
-0.265
-0.39
-0.435
-0.295
-0.115
0.02
0.125
0.125
0.0
-0.11
-0.21
-0.4
-0.39
-0.33
-0.165
0.005
0.15
0.145
0.02
-0.15
-0.295
-0.425
-0.34
-0.29
-0.1
0.025
0.15
0.175
0.035
-0.095
-0.24
-0.38
-0.345
-0.245
-0.11
0.05
0.15
0.095
-0.015
-0.17
-0.33
-0.385
-0.345
-0.2
-0.105
0.07
0.18
0.16
0.075
-0.13
-0.245
-0.375
-0.33
-0.24
-0.02
0.115
0.225
0.12
-0.045
-0.225
-0.25
-0.35
-0.19
-0.115
0.01
0.155
0.225
0.155
0.07
-0.02
-0.135
-0.265
-0.2
-0.13
0.025
0.2
0.265
0.18
0.05
-0.085
-0.22
-0.28
-0.155
-0.04
0.1
0.24
0.38
0.2
0.08
-0.075
-0.125
-0.215
-0.07
0.025
0.11
0.25
0.33
0.32
0.155
0.025
-0.11
-0.24
-0.185
-0.035
0.08
0.175
0.265
0.265
0.08
-0.15
-0.29
-0.3
-0.225
-0.1
0.04
0.105
0.165
0.05
-0.12
-0.21
-0.31
-0.385
-0.31
-0.115
0.055
0.155
0.14
0.06
-0.065
-0.24
-0.415
-0.43
-0.39
-0.18
-0.035
-0.005
0.09
0.02
-0.085
-0.22
-0.37
-0.44
-0.34
-0.23
-0.05
0.075
0.115
0.03
-0.09
-0.25
-0.36
-0.445
-0.295
-0.19
-0.01
0.035
0.1
-0.015
-0.16
-0.31
-0.46
-0.46
-0.325
-0.125
0.02
0.12
0.15
0.085
-0.135
-0.28
-0.455
-0.38
-0.285
-0.14
-0.01
0.12
0.08
-0.015
-0.12
-0.31
-0.385
-0.37
-0.235
-0.075
0.025
0.135
0.04
0.005
-0.145
-0.31
-0.44
-0.36
-0.32
-0.145
0.09
0.195
0.135
0.035
-0.17
-0.34
-0.44
-0.365
-0.26
-0.095
0.05
0.15
0.09
0.005
-0.12
-0.295
-0.45
-0.4
-0.3
-0.115
-0.04
0.055
-0.02
-0.105
-0.285
-0.345
-0.465
-0.295
-0.175
-0.085
0.035
0.095
0.025
-0.09
-0.26
-0.335
-0.41
-0.29
-0.225
-0.12
0.025
0.17
0.135
-0.04
-0.265
-0.33
-0.43
-0.395
-0.205
-0.08
-0.015
0.015
-0.015
-0.13
-0.265
-0.36
-0.455
-0.41
-0.175
0.025
0.05
0.085
0.005
-0.125
-0.275
-0.4
-0.48
-0.385
-0.24
-0.06
0.06
0.135
0.04
-0.12
-0.3
-0.415
-0.445
-0.32
-0.2
-0.065
0.055
0.16
-0.02
-0.16
-0.25
-0.345
-0.42
-0.32
-0.115
0.04
0.115
0.1
-0.005
-0.145
-0.31
-0.38
-0.37
-0.265
-0.145
-0.025
0.115
0.18
0.04
-0.08
-0.235
-0.325
-0.405
-0.28
-0.245
-0.105
0.04
0.19
0.135
-0.03
-0.195
-0.34
-0.36
-0.215
-0.03
0.05
0.165
0.125
0.035
-0.19
-0.37
-0.435
-0.415
-0.315
-0.13
0.1
0.045
-0.02
-0.07
-0.22
-0.37
-0.425
-0.32
-0.315
-0.175
-0.06
0.085
-0.045
-0.065
-0.23
-0.34
-0.39
-0.25
-0.22
-0.03
0.06
0.15
0.095
-0.03
-0.23
-0.355
-0.41
-0.37
-0.285
-0.145
-0.1
0.05
-0.025
-0.11
-0.285
-0.325
-0.44
-0.365
-0.33
-0.18
0.0
0.055
-0.085
-0.165
-0.3
-0.37
-0.445
-0.35
-0.1
0.135
0.28
0.385
0.405
0.295
0.28
0.35
0.36
0.43
0.54
0.62
0.685
0.67
0.575
0.385
0.065
-0.1
-0.34
-0.38
-0.29
-0.2
-0.01
0.13
0.06
-0.07
-0.24
-0.33
-0.335
-0.315
-0.175
-0.1
-0.025
0.055
0.055
-0.125
-0.185
-0.33
-0.34
-0.245
-0.165
-0.03
0.115
0.17
0.1
-0.09
-0.27
-0.405
-0.395
-0.315
-0.23
-0.02
0.1
0.165
0.015
-0.11
-0.215
-0.34
-0.435
-0.29
-0.155
0.015
0.145
0.19
0.015
-0.12
-0.22
-0.335
-0.41
-0.18
-0.14
0.065
0.19
0.2
0.035
-0.07
-0.2
-0.23
-0.315
-0.265
-0.175
0.02
0.16
0.155
0.075
-0.05
-0.25
-0.34
-0.36
-0.17
-0.07
0.11
0.205
0.21
0.105
-0.03
-0.11
-0.255
-0.24
-0.14
0.025
0.16
0.27
0.24
0.15
-0.055
-0.205
-0.34
-0.22
-0.105
0.13
0.22
0.34
0.275
0.225
0.06
-0.07
-0.18
-0.13
-0.01
0.11
0.215
0.37
0.32
0.215
0.025
-0.105
-0.15
-0.095
0.0
0.135
0.32
0.36
0.22
0.095
-0.095
-0.17
-0.3
-0.165
-0.055
0.05
0.15
0.27
0.105
0.025
-0.075
-0.235
-0.295
-0.28
-0.16
0.015
0.1
0.15
0.06
-0.03
-0.215
-0.33
-0.41
-0.34
-0.16
-0.02
0.115
0.23
0.1
-0.085
-0.175
-0.3
-0.4
-0.41
-0.235
-0.075
0.005
0.075
0.015
-0.08
-0.205
-0.33
-0.455
-0.405
-0.205
-0.045
0.035
0.13
0.055
-0.125
-0.27
-0.345
-0.35
-0.295
-0.17
0.005
0.07
0.14
-0.01
-0.1
-0.205
-0.235
-0.41
-0.385
-0.21
-0.02
-0.005
0.085
0.03
-0.15
-0.305
-0.38
-0.375
-0.33
-0.175
-0.005
0.135
0.175
0.05
-0.055
-0.205
-0.36
-0.425
-0.27
-0.095
0.065
0.105
0.225
0.165
-0.12
-0.34
-0.46
-0.42
-0.275
-0.155
-0.065
0.05
0.085
-0.03
-0.105
-0.215
-0.33
-0.34
-0.305
-0.195
-0.025
0.105
0.13
0.085
-0.08
-0.25
-0.355
-0.36
-0.24
-0.065
0.03
0.185
0.155
0.01
-0.21
-0.325
-0.44
-0.36
-0.255
-0.075
0.03
0.135
0.105
0.0
-0.18
-0.36
-0.385
-0.395
-0.26
-0.05
0.02
0.155
0.11
-0.015
-0.195
-0.275
-0.41
-0.345
-0.175
-0.03
0.055
0.13
0.135
0.03
-0.195
-0.305
-0.4
-0.355
-0.25
-0.085
0.04
0.15
0.15
-0.035
-0.215
-0.265
-0.395
-0.35
-0.19
0.01
0.095
0.165
0.12
-0.01
-0.155
-0.255
-0.315
-0.21
-0.085
0.035
0.11
0.22
0.11
-0.055
-0.235
-0.28
-0.38
-0.33
-0.18
-0.055
0.105
0.16
0.03
-0.16
-0.26
-0.37
-0.485
-0.405
-0.285
-0.075
0.025
0.075
0.1
-0.05
-0.215
-0.345
-0.4
-0.305
-0.19
-0.05
0.06
0.195
0.08
-0.12
-0.305
-0.41
-0.455
-0.4
-0.195
-0.03
0.07
0.095
0.05
-0.065
-0.21
-0.385
-0.43
-0.395
-0.22
-0.105
0.005
0.045
-0.045
-0.115
-0.28
-0.36
-0.5
-0.325
-0.17
-0.1
0.1
0.075
0.005
-0.1
-0.25
-0.215
-0.135
-0.035
0.165
0.375
0.52
0.66
0.645
0.52
0.435
0.28
0.25
0.32
0.33
0.45
0.45
0.34
0.14
-0.12
-0.295
-0.425
-0.43
-0.38
-0.22
-0.095
0.09
0.075
0.025
-0.11
-0.195
-0.325
-0.355
-0.205
-0.065
0.05
0.16
0.145
0.105
-0.055
-0.27
-0.32
-0.255
-0.21
-0.06
0.06
0.185
0.16
0.045
-0.075
-0.275
-0.385
-0.305
-0.23
-0.095
0.055
0.17
0.14
0.085
-0.06
-0.215
-0.32
-0.265
-0.12
0.025
0.155
0.265
0.12
0.085
-0.09
-0.195
-0.275
-0.215
-0.125
0.0
0.115
0.27
0.14
0.045
-0.12
-0.17
-0.275
-0.135
0.005
0.085
0.135
0.175
0.13
0.06
-0.115
-0.21
-0.2
-0.145
-0.055
0.16
0.22
0.29
0.235
0.155
-0.05
-0.165
-0.225
-0.12
0.01
0.12
0.24
0.345
0.25
0.09
0.035
-0.11
-0.115
-0.03
0.105
0.205
0.36
0.37
0.33
0.175
0.09
-0.1
-0.145
-0.005
0.075
0.28
0.37
0.39
0.325
0.12
-0.075
-0.17
-0.215
-0.125
0.09
0.17
0.26
0.35
0.305
0.1
-0.12
-0.215
-0.24
-0.095
0.055
0.16
0.29
0.22
0.145
-0.08
-0.25
-0.24
-0.28
-0.225
-0.085
0.05
0.19
0.13
0.08
-0.05
-0.26
-0.32
-0.31
-0.245
-0.115
-0.015
0.145
0.135
0.05
-0.155
-0.32
-0.405
-0.37
-0.25
-0.085
0.05
0.235
0.18
0.045
-0.145
-0.255
-0.36
-0.355
-0.255
-0.125
0.05
0.16
0.065
-0.01
-0.13
-0.305
-0.44
-0.26
-0.215
-0.035
0.065
0.17
0.08
-0.02
-0.2
-0.265
-0.315
-0.29
-0.165
-0.1
0.075
0.16
0.04
-0.065
-0.19
-0.3
-0.35
-0.245
-0.135
-0.045
-0.035
0.17
0.145
0.045
-0.155
-0.275
-0.34
-0.24
-0.165
-0.03
0.075
0.18
0.1
-0.03
-0.175
-0.32
-0.385
-0.27
-0.155
0.0
0.08
0.17
0.055
-0.015
-0.185
-0.31
-0.305
-0.28
-0.185
-0.01
0.09
0.18
0.065
-0.05
-0.16
-0.245
-0.38
-0.29
-0.21
0.015
0.14
0.165
0.095
-0.08
-0.265
-0.38
-0.435
-0.32
-0.155
0.025
0.15
0.185
0.07
-0.05
-0.21
-0.3
-0.32
-0.225
-0.11
-0.005
0.055
0.165
0.08
-0.065
-0.29
-0.39
-0.335
-0.27
-0.12
0.03
0.12
0.13
0.03
-0.055
-0.255
-0.39
-0.415
-0.315
-0.155
-0.035
0.11
0.12
0.02
-0.1
-0.2
-0.23
-0.35
-0.215
-0.115
0.05
0.14
0.15
0.115
-0.03
-0.18
-0.35
-0.34
-0.21
-0.055
0.1
0.165
0.165
0.075
-0.115
-0.21
-0.365
-0.325
-0.205
-0.005
0.12
0.205
0.115
0.065
-0.035
-0.175
-0.36
-0.33
-0.14
-0.005
0.09
0.145
0.1
-0.035
-0.18
-0.3
-0.405
-0.32
-0.18
-0.02
0.12
0.16
0.01
-0.035
-0.15
-0.345
-0.4
-0.365
-0.215
-0.06
0.05
0.19
0.115
0.015
-0.165
-0.32
-0.43
-0.395
-0.22
-0.08
0.07
0.15
0.055
-0.095
-0.24
-0.355
-0.43
-0.375
-0.23
-0.025
0.065
0.07
0.03
-0.055
-0.215
-0.355
-0.415
-0.345
-0.285
-0.165
0.015
0.18
0.055
-0.08
-0.23
-0.34
-0.365
-0.255
-0.095
0.125
0.21
0.37
0.345
0.325
0.31
0.355
0.355
0.465
0.55
0.67
0.685
0.63
0.55
0.345
0.09
-0.125
-0.3
-0.31
-0.205
-0.05
0.045
0.12
0.065
-0.025
-0.18
-0.31
-0.375
-0.24
-0.095
0.055
0.055
0.12
0.05
-0.095
-0.235
-0.295
-0.33
-0.23
-0.045
0.07
0.205
0.195
0.05
-0.075
-0.225
-0.34
-0.38
-0.275
-0.085
0.03
0.105
0.2
0.085
-0.065
-0.35
-0.32
-0.355
-0.23
-0.06
0.145
0.23
0.235
0.065
-0.115
-0.21
-0.305
-0.34
-0.24
-0.07
0.06
0.215
0.215
0.04
-0.06
-0.13
-0.32
-0.27
-0.24
-0.07
0.1
0.25
0.175
0.035
-0.13
-0.155
-0.245
-0.245
-0.12
-0.03
0.13
0.21
0.25
0.145
0.04
-0.125
-0.22
-0.16
-0.035
0.045
0.185
0.33
0.28
0.185
-0.01
-0.105
-0.215
-0.165
-0.055
0.1
0.245
0.35
0.28
0.195
0.025
-0.01
-0.11
-0.045
-0.005
0.21
0.325
0.405
0.285
0.205
0.075
-0.015
-0.085
-0.04
0.05
0.2
0.305
0.425
0.27
0.125
0.015
-0.115
-0.22
-0.22
-0.075
0.155
0.295
0.365
0.3
0.095
-0.055
-0.215
-0.285
-0.26
-0.065
0.09
0.205
0.32
0.165
0.05
-0.07
-0.31
-0.425
-0.3
-0.08
0.015
0.145
0.225
0.135
-0.02
-0.17
-0.285
-0.325
-0.25
-0.08
0.025
0.11
0.265
0.15
0.035
-0.15
-0.325
-0.425
-0.255
-0.105
0.055
0.15
0.245
0.13
-0.025
-0.145
-0.275
-0.31
-0.215
-0.035
0.1
0.19
0.195
0.135
-0.015
-0.16
-0.245
-0.26
-0.195
-0.095
0.05
0.105
0.165
0.105
-0.05
-0.21
-0.32
-0.35
-0.195
-0.075
0.02
0.175
0.18
0.095
-0.06
-0.18
-0.24
-0.24
-0.13
-0.015
0.135
0.265
0.225
0.085
-0.035
-0.185
-0.365
-0.325
-0.24
-0.11
0.055
0.21
0.2
0.11
-0.05
-0.165
-0.335
-0.3
-0.225
-0.015
0.115
0.175
0.17
0.04
-0.125
-0.24
-0.335
-0.255
-0.16
-0.08
0.005
0.12
0.165
0.045
-0.11
-0.235
-0.325
-0.28
-0.17
0.035
0.115
0.175
0.09
0.07
-0.12
-0.255
-0.35
-0.32
-0.155
0.015
0.135
0.21
0.075
-0.01
-0.18
-0.3
-0.33
-0.275
-0.18
-0.035
0.1
0.125
0.14
-0.005
-0.2
-0.32
-0.39
-0.325
-0.2
-0.075
0.08
0.25
0.165
0.05
-0.15
-0.305
-0.4
-0.33
-0.165
0.005
0.135
0.175
0.065
-0.05
-0.195
-0.19
-0.31
-0.26
-0.145
0.015
0.115
0.185
0.08
-0.035
-0.245
-0.29
-0.345
-0.275
-0.12
0.01
0.1
0.245
0.15
0.035
-0.135
-0.265
-0.295
-0.22
-0.065
0.145
0.2
0.21
0.085
-0.06
-0.2
-0.275
-0.255
-0.24
-0.11
0.005
0.15
0.19
0.07
-0.14
-0.28
-0.345
-0.385
-0.265
-0.09
0.05
0.12
0.16
0.08
-0.105
-0.29
-0.395
-0.385
-0.305
-0.19
-0.04
0.1
0.185
0.17
-0.115
-0.22
-0.29
-0.32
-0.275
-0.135
0.015
0.1
0.1
0.005
-0.165
-0.3
-0.375
-0.385
-0.235
-0.1
0.045
0.115
0.105
0.055
-0.12
-0.3
-0.42
-0.395
-0.345
-0.13
-0.02
0.145
0.11
0.01
-0.11
-0.19
-0.21
-0.085
0.135
0.24
0.445
0.57
0.66
0.675
0.595
0.465
0.36
0.335
0.38
0.465
0.505
0.49
0.325
0.1
-0.16
-0.315
-0.41
-0.295
-0.2
-0.02
0.1
0.17
0.1
0.065
-0.08
-0.235
-0.385
-0.305
-0.155
0.035
0.15
0.19
0.11
0.0
-0.16
-0.26
-0.41
-0.345
-0.15
-0.005
0.075
0.13
0.115
-0.035
-0.125
-0.285
-0.395
-0.24
-0.08
-0.01
0.085
0.175
0.09
0.015
-0.135
-0.26
-0.315
-0.235
-0.095
0.095
0.17
0.195
0.155
-0.05
-0.16
-0.27
-0.27
-0.16
-0.125
0.015
0.22
0.3
0.17
0.05
-0.17
-0.34
-0.295
-0.3
-0.12
0.03
0.095
0.215
0.255
0.02
-0.19
-0.21
-0.28
-0.155
0.0
0.135
0.28
0.305
0.165
-0.005
-0.13
-0.215
-0.24
-0.12
0.095
0.19
0.32
0.36
0.205
0.035
-0.04
-0.12
-0.195
-0.025
0.19
0.275
0.34
0.33
0.225
0.155
-0.01
-0.17
-0.18
0.03
0.105
0.195
0.335
0.37
0.26
0.095
-0.035
-0.215
-0.1
-0.005
0.14
0.265
0.3
0.26
0.19
0.065
-0.05
-0.23
-0.195
-0.085
-0.025
0.09
0.265
0.245
0.175
-0.02
-0.27
-0.37
-0.295
-0.145
-0.035
0.065
0.205
0.08
-0.04
-0.18
-0.275
-0.365
-0.24
-0.17
-0.02
0.1
0.15
0.09
-0.035
-0.13
-0.295
-0.34
-0.25
-0.175
-0.065
0.08
0.2
0.135
0.02
-0.11
-0.275
-0.36
-0.295
-0.205
0.025
0.115
0.145
0.1
0.025
-0.04
-0.2
-0.325
-0.26
-0.13
0.01
0.165
0.23
0.15
0.02
-0.195
-0.3
-0.385
-0.29
-0.11
0.075
0.21
0.26
0.17
0.03
-0.195
-0.245
-0.19
-0.155
-0.08
0.06
0.11
0.2
0.09
0.04
-0.105
-0.215
-0.275
-0.195
-0.085
0.08
0.185
0.27
0.18
0.01
-0.165
-0.25
-0.33
-0.245
-0.025
0.065
0.205
0.31
0.175
0.03
-0.125
-0.25
-0.275
-0.215
-0.01
0.11
0.225
0.235
0.135
0.025
-0.205
-0.295
-0.32
-0.295
-0.075
0.12
0.165
0.18
0.16
0.035
-0.15
-0.28
-0.33
-0.235
-0.025
0.135
0.205
0.225
0.15
0.005
-0.165
-0.27
-0.23
-0.245
-0.105
0.11
0.19
0.22
0.11
0.02
-0.145
-0.355
-0.37
-0.22
-0.055
0.095
0.19
0.19
0.08
-0.09
-0.23
-0.31
-0.27
-0.17
0.0
0.105
0.26
0.23
0.07
-0.04
-0.16
-0.255
-0.235
-0.145
0.08
0.16
0.29
0.23
0.125
-0.105
-0.21
-0.155
-0.22
-0.19
-0.005
0.15
0.25
0.175
0.085
-0.105
-0.19
-0.34
-0.3
-0.155
-0.04
0.095
0.19
0.13
0.015
-0.12
-0.265
-0.37
-0.315
-0.21
-0.065
0.06
0.185
0.155
0.105
-0.04
-0.215
-0.365
-0.335
-0.195
-0.16
0.0
0.145
0.205
0.06
-0.135
-0.28
-0.38
-0.3
-0.19
-0.06
0.04
0.095
0.025
-0.085
-0.22
-0.275
-0.4
-0.3
-0.15
-0.03
0.07
0.205
0.04
-0.09
-0.22
-0.34
-0.38
-0.385
-0.28
-0.155
0.025
0.155
0.095
0.065
-0.085
-0.175
-0.205
-0.08
0.125
0.315
0.525
0.64
0.62
0.585
0.44
0.36
0.27
0.285
0.4
0.465
0.465
0.43
0.23
-0.045
-0.2
-0.41
-0.435
-0.275
-0.18
-0.06
0.01
0.115
0.04
-0.105
-0.255
-0.295
-0.345
-0.255
-0.125
-0.025
0.205
0.175
0.08
-0.035
-0.21
-0.365
-0.45
-0.235
-0.1
0.085
0.135
0.19
0.1
0.005
-0.18
-0.345
-0.345
-0.225
-0.005
0.055
0.11
0.095
0.025
-0.125
-0.215
-0.35
-0.345
-0.2
-0.02
0.12
0.18
0.115
0.055
-0.1
-0.205
-0.3
-0.32
-0.165
0.04
0.075
0.24
0.15
0.035
-0.005
-0.11
-0.355
-0.265
-0.115
-0.09
0.11
0.255
0.205
0.045
-0.1
-0.165
-0.28
-0.19
-0.09
0.015
0.14
0.3
0.24
0.075
-0.03
-0.22
-0.295
-0.19
-0.075
0.105
0.23
0.36
0.3
0.175
-0.01
-0.095
-0.175
-0.08
0.01
0.195
0.3
0.335
0.225
0.23
0.07
-0.085
-0.225
-0.085
0.1
0.23
0.345
0.355
0.375
0.17
0.005
-0.125
-0.25
-0.18
-0.01
0.13
0.33
0.455
0.355
0.14
-0.02
-0.185
-0.29
-0.255
-0.105
0.095
0.18
0.22
0.175
0.02
-0.17
-0.28
-0.295
-0.24
-0.085
0.06
0.21
0.19
0.08
-0.085
-0.245
-0.335
-0.36
-0.24
-0.08
0.065
0.12
0.185
0.08
-0.09
-0.24
-0.385
-0.38
-0.27
-0.13
0.05
0.105
0.2
0.075
-0.125
-0.245
-0.33
-0.34
-0.3
-0.165
0.025
0.115
0.13
0.005
-0.14
-0.275
-0.34
-0.36
-0.235
-0.12
0.045
0.185
0.175
0.055
-0.1
-0.27
-0.365
-0.38
-0.23
0.005
0.105
0.23
0.2
0.055
-0.125
-0.175
-0.295
-0.365
-0.21
-0.09
0.03
0.145
0.155
0.04
-0.1
-0.31
-0.375
-0.325
-0.225
-0.045
0.055
0.185
0.15
0.095
-0.07
-0.255
-0.355
-0.315
-0.215
-0.01
0.075
0.27
0.15
0.035
-0.11
-0.23
-0.36
-0.27
-0.195
-0.065
0.07
0.175
0.085
0.03
-0.095
-0.23
-0.345
-0.32
-0.16
-0.015
0.155
0.205
0.095
0.01
-0.135
-0.235
-0.36
-0.33
-0.21
-0.03
0.085
0.155
0.105
-0.08
-0.175
-0.325
-0.365
-0.275
-0.155
0.01
0.13
0.235
0.13
-0.1
-0.295
-0.3
-0.325
-0.26
-0.135
0.035
0.125
0.18
0.085
0.02
-0.21
-0.415
-0.39
-0.285
-0.12
-0.01
0.13
0.25
0.115
-0.025
-0.195
-0.25
-0.335
-0.31
-0.12
-0.035
0.105
0.165
0.08
-0.055
-0.2
-0.225
-0.355
-0.185
-0.065
0.055
0.135
0.165
0.045
0.005
-0.105
-0.285
-0.255
-0.225
-0.055
0.115
0.205
0.165
0.095
-0.03
-0.18
-0.255
-0.31
-0.16
-0.02
0.105
0.165
0.145
0.1
-0.025
-0.165
-0.335
-0.36
-0.245
-0.12
0.03
0.2
0.115
0.065
-0.055
-0.25
-0.35
-0.305
-0.275
-0.1
0.03
0.115
0.135
0.03
-0.125
-0.235
-0.36
-0.38
-0.255
-0.13
0.04
0.16
0.2
0.07
-0.09
-0.245
-0.45
-0.42
-0.3
-0.09
0.055
0.17
0.13
0.075
-0.105
-0.275
-0.42
-0.325
-0.23
-0.095
0.065
0.15
0.085
0.045
-0.055
-0.355
-0.425
-0.35
-0.25
-0.115
0.065
0.25
0.22
0.16
0.045
-0.005
-0.055
0.11
0.325
0.6
0.825
0.895
0.805
0.655
0.475
0.285
0.08
0.085
0.115
0.145
0.15
0.14
0.06
-0.01
-0.145
-0.265
-0.405
-0.3
-0.12
-0.01
0.13
0.19
0.145
0.03
-0.17
-0.25
-0.405
-0.35
-0.155
-0.02
0.145
0.19
0.07
-0.065
-0.145
-0.23
-0.325
-0.245
-0.12
0.06
0.16
0.21
0.155
-0.04
-0.195
-0.325
-0.28
-0.2
-0.085
0.08
0.14
0.195
0.085
-0.08
-0.22
-0.33
-0.35
-0.19
-0.065
0.07
0.075
0.155
0.11
-0.07
-0.13
-0.215
-0.285
-0.21
-0.005
0.145
0.2
0.275
0.155
0.035
-0.145
-0.32
-0.335
-0.175
-0.005
0.155
0.245
0.29
0.105
-0.045
-0.215
-0.295
-0.295
-0.165
0.09
0.18
0.275
0.255
0.205
0.08
-0.055
-0.18
-0.215
-0.1
0.02
0.215
0.32
0.31
0.21
0.11
-0.025
-0.09
-0.13
0.065
0.21
0.285
0.37
0.315
0.205
0.105
-0.035
-0.155
-0.065
-0.02
0.145
0.305
0.4
0.315
0.245
0.07
-0.075
-0.18
-0.115
-0.025
0.09
0.18
0.29
0.255
0.15
-0.015
-0.16
-0.275
-0.21
-0.14
0.015
0.17
0.24
0.18
0.06
-0.105
-0.195
-0.335
-0.265
-0.16
-0.045
0.105
0.185
0.135
-0.035
-0.15
-0.275
-0.36
-0.33
-0.18
-0.045
0.085
0.23
0.165
-0.03
-0.175
-0.33
-0.375
-0.305
-0.215
-0.015
0.095
0.15
0.06
-0.07
-0.175
-0.295
-0.41
-0.28
-0.155
0.02
0.12
0.205
0.115
-0.02
-0.125
-0.25
-0.39
-0.375
-0.125
0.01
0.14
0.115
0.14
-0.01
-0.115
-0.28
-0.445
-0.39
-0.165
-0.05
0.09
0.21
0.155
0.0
-0.165
-0.235
-0.365
-0.285
-0.115
0.035
0.035
0.185
0.135
0.075
-0.195
-0.315
-0.395
-0.18
-0.09
0.04
0.16
0.195
0.11
-0.05
-0.225
-0.31
-0.33
-0.26
-0.065
0.045
0.165
0.195
0.075
-0.055
-0.215
-0.285
-0.31
-0.265
-0.1
0.09
0.12
0.175
0.17
-0.03
-0.21
-0.395
-0.39
-0.245
-0.075
0.05
0.19
0.235
0.115
-0.07
-0.22
-0.33
-0.3
-0.22
-0.07
0.045
0.095
0.115
0.09
-0.11
-0.25
-0.4
-0.33
-0.185
-0.045
0.08
0.165
0.175
0.13
-0.09
-0.185
-0.37
-0.325
-0.195
-0.07
0.035
0.175
0.12
-0.045
-0.1
-0.23
-0.37
-0.255
-0.185
-0.015
0.105
0.205
0.075
0.015
-0.14
-0.265
-0.39
-0.275
-0.085
0.11
0.12
0.185
0.225
-0.01
-0.155
-0.235
-0.345
-0.275
-0.135
0.08
0.195
0.28
0.185
0.05
-0.095
-0.26
-0.35
-0.19
-0.04
0.09
0.265
0.31
0.17
0.0
-0.215
-0.275
-0.36
-0.245
-0.115
0.005
0.07
0.18
0.17
-0.045
-0.2
-0.275
-0.325
-0.21
-0.11
0.005
0.035
0.13
0.13
-0.045
-0.17
-0.35
-0.425
-0.275
-0.095
0.005
0.115
0.135
0.11
-0.005
-0.23
-0.295
-0.3
-0.26
-0.145
0.04
0.12
0.145
-0.01
-0.155
-0.255
-0.35
-0.385
-0.25
-0.175
0.03
0.115
0.145
0.11
-0.005
-0.26
-0.31
-0.4
-0.335
-0.18
-0.03
0.07
0.14
0.01
-0.105
-0.19
-0.245
-0.2
0.005
0.2
0.385
0.53
0.655
0.73
0.595
0.415
0.375
0.29
0.385
0.45
0.515
0.51
0.425
0.24
0.015
-0.225
-0.4
-0.365
-0.27
-0.135
0.0
0.15
0.13
0.055
-0.08
-0.15
-0.305
-0.335
-0.145
-0.03
0.06
0.13
0.14
0.06
-0.09
-0.285
-0.395
-0.32
-0.2
-0.035
0.15
0.22
0.185
0.01
-0.175
-0.285
-0.33
-0.265
-0.225
0.035
0.125
0.215
0.14
0.01
-0.17
-0.25
-0.355
-0.255
-0.125
0.025
0.14
0.205
0.125
0.015
-0.125
-0.265
-0.36
-0.255
-0.11
0.04
0.16
0.19
0.12
0.06
-0.1
-0.275
-0.335
-0.205
-0.09
0.065
0.14
0.25
0.165
0.05
-0.115
-0.14
-0.235
-0.15
-0.03
0.075
0.185
0.27
0.21
0.035
-0.075
-0.17
-0.17
-0.125
-0.025
0.23
0.28
0.275
0.22
0.105
-0.065
-0.135
-0.175
-0.065
0.07
0.22
0.33
0.4
0.3
0.155
0.02
-0.115
-0.19
0.0
0.13
0.29
0.395
0.465
0.335
0.135
-0.015
-0.13
-0.22
-0.055
0.15
0.315
0.305
0.355
0.215
0.07
-0.09
-0.19
-0.185
-0.12
0.09
0.225
0.225
0.275
0.16
-0.005
-0.205
-0.35
-0.38
-0.205
0.0
0.15
0.175
0.17
0.15
-0.07
-0.24
-0.285
-0.25
-0.165
-0.02
0.075
0.15
0.095
0.035
-0.1
-0.28
-0.355
-0.3
-0.2
-0.01
0.165
0.24
0.175
0.09
-0.055
-0.3
-0.45
-0.37
-0.32
-0.095
0.0
0.135
0.13
0.055
-0.095
-0.215
-0.31
-0.275
-0.11
0.025
0.14
0.26
0.04
0.025
-0.12
-0.265
-0.355
-0.275
-0.155
0.02
0.115
0.22
0.165
-0.04
-0.14
-0.245
-0.39
-0.33
-0.24
-0.105
0.03
0.22
0.18
0.085
-0.035
-0.195
-0.31
-0.285
-0.125
0.02
0.1
0.245
0.125
0.07
-0.13
-0.21
-0.31
-0.285
-0.15
0.07
0.135
0.2
0.075
0.045
-0.15
-0.22
-0.365
-0.215
-0.095
0.0
0.145
0.265
0.1
-0.045
-0.19
-0.295
-0.395
-0.25
-0.085
-0.015
0.08
0.105
0.105
0.02
-0.065
-0.195
-0.335
-0.2
-0.1
0.045
0.17
0.19
0.06
-0.07
-0.175
-0.32
-0.34
-0.21
-0.03
0.025
0.12
0.185
0.07
-0.045
-0.17
-0.3
-0.36
-0.245
-0.08
0.07
0.165
0.23
0.09
-0.06
-0.19
-0.295
-0.3
-0.265
-0.06
0.115
0.195
0.265
0.095
-0.11
-0.18
-0.18
-0.29
-0.245
-0.045
0.145
0.205
0.26
0.165
-0.045
-0.175
-0.255
-0.285
-0.195
-0.01
0.09
0.21
0.25
0.15
0.02
-0.16
-0.33
-0.335
-0.24
-0.09
0.05
0.15
0.12
0.125
-0.02
-0.145
-0.285
-0.255
-0.185
-0.1
0.005
0.115
0.055
0.015
-0.13
-0.215
-0.305
-0.295
-0.16
-0.055
0.085
0.13
0.075
0.005
-0.135
-0.255
-0.345
-0.29
-0.15
-0.02
0.08
0.165
0.105
-0.02
-0.145
-0.285
-0.39
-0.295
-0.17
-0.03
0.145
0.185
0.14
0.07
-0.06
-0.32
-0.42
-0.295
-0.195
-0.115
0.0
0.145
0.135
0.06
-0.09
-0.15
-0.19
-0.04
0.115
0.375
0.555
0.745
0.77
0.705
0.59
0.375
0.24
0.295
0.33
0.365
0.42
0.37
0.23
0.06
-0.14
-0.27
-0.405
-0.365
-0.205
-0.055
0.14
0.23
0.135
-0.005
-0.185
-0.285
-0.335
-0.22
-0.08
-0.02
0.125
0.17
0.075
-0.05
-0.14
-0.24
-0.325
-0.24
-0.135
-0.01
0.15
0.255
0.13
0.015
-0.12
-0.26
-0.325
-0.22
-0.095
0.09
0.2
0.29
0.175
0.0
-0.115
-0.17
-0.315
-0.29
-0.12
0.045
0.13
0.14
0.13
-0.05
-0.13
-0.28
-0.34
-0.165
-0.025
0.055
0.205
0.32
0.19
0.005
-0.19
-0.295
-0.28
-0.155
-0.025
0.18
0.3
0.215
0.22
0.015
-0.125
-0.185
-0.18
-0.105
0.02
0.15
0.275
0.235
0.18
0.05
-0.065
-0.2
-0.21
-0.065
0.105
0.21
0.365
0.285
0.15
0.04
0.005
-0.16
-0.03
0.02
0.175
0.34
0.43
0.325
0.315
0.125
-0.015
-0.11
-0.075
0.02
0.125
0.255
0.43
0.385
0.3
0.11
0.025
-0.105
-0.07
-0.07
0.16
0.32
0.335
0.265
0.195
-0.02
-0.155
-0.24
-0.135
-0.04
0.125
0.225
0.27
0.175
0.06
-0.065
-0.2
-0.265
-0.23
-0.105
0.01
0.2
0.3
0.14
0.02
-0.15
-0.26
-0.39
-0.29
-0.235
-0.02
0.075
0.23
0.165
0.03
-0.105
-0.16
-0.3
-0.26
-0.08
0.025
0.11
0.245
0.155
0.005
-0.145
-0.295
-0.38
-0.31
-0.21
-0.01
0.15
0.215
0.095
-0.01
-0.17
-0.235
-0.245
-0.255
-0.015
0.06
0.155
0.22
0.04
-0.045
-0.22
-0.325
-0.435
-0.235
-0.04
0.105
0.14
0.245
0.185
0.02
-0.2
-0.31
-0.37
-0.215
-0.065
0.13
0.23
0.265
0.14
-0.01
-0.165
-0.3
-0.355
-0.215
-0.045
0.11
0.225
0.255
0.11
-0.05
-0.24
-0.315
-0.245
-0.22
-0.03
0.12
0.19
0.16
0.085
-0.065
-0.195
-0.305
-0.245
-0.13
-0.06
0.14
0.2
0.135
0.18
0.0
-0.18
-0.305
-0.3
-0.2
-0.05
0.085
0.135
0.14
0.085
-0.15
-0.235
-0.32
-0.23
-0.125
0.005
0.13
0.285
0.215
0.09
-0.075
-0.22
-0.35
-0.235
-0.185
-0.005
0.1
0.21
0.115
-0.01
-0.11
-0.29
-0.345
-0.27
-0.195
-0.135
0.08
0.24
0.17
0.005
-0.18
-0.245
-0.33
-0.28
-0.16
-0.03
0.12
0.23
0.18
0.07
-0.155
-0.305
-0.29
-0.225
-0.11
0.025
0.095
0.22
0.14
0.015
-0.105
-0.23
-0.295
-0.22
-0.065
0.065
0.135
0.24
0.12
0.065
-0.11
-0.275
-0.41
-0.215
-0.07
0.065
0.185
0.235
0.175
0.04
-0.13
-0.235
-0.31
-0.245
-0.065
0.09
0.175
0.27
0.2
0.03
-0.125
-0.225
-0.335
-0.175
-0.015
0.155
0.25
0.215
0.105
-0.02
-0.135
-0.195
-0.305
-0.325
-0.13
0.09
0.185
0.19
0.115
-0.07
-0.235
-0.325
-0.38
-0.225
-0.125
-0.01
0.16
0.21
0.105
-0.08
-0.2
-0.34
-0.37
-0.195
-0.1
0.055
0.15
0.14
0.005
-0.14
-0.235
-0.35
-0.315
-0.23
-0.09
0.09
0.205
0.245
0.11
-0.065
-0.22
-0.34
-0.365
-0.19
-0.055
-0.03
0.18
0.115
0.04
-0.13
-0.22
-0.265
-0.2
-0.06
0.15
0.305
0.39
0.39
0.37
0.42
0.41
0.39
0.39
0.5
0.585
0.67
0.685
0.645
0.47
0.205
0.005
-0.35
-0.35
-0.27
-0.05
0.085
0.23
0.165
0.05
-0.065
-0.235
-0.325
-0.225
-0.195
0.02
0.14
0.21
0.175
0.07
-0.07
-0.2
-0.32
-0.195
-0.095
-0.015
0.095
0.21
0.115
-0.005
-0.095
-0.255
-0.335
-0.225
-0.11
0.075
0.145
0.21
0.19
0.065
-0.13
-0.225
-0.335
-0.265
-0.155
0.01
0.2
0.31
0.235
0.12
-0.035
-0.18
-0.31
-0.27
-0.07
0.1
0.205
0.255
0.185
0.045
-0.1
-0.24
-0.3
-0.245
-0.065
0.16
0.265
0.295
0.17
-0.01
-0.145
-0.27
-0.275
-0.105
0.045
0.135
0.27
0.31
0.255
0.08
-0.12
-0.2
-0.245
-0.06
0.05
0.18
0.265
0.38
0.315
0.13
0.03
-0.1
-0.13
-0.015
0.1
0.28
0.315
0.385
0.36
0.2
0.025
-0.08
-0.105
-0.02
0.155
0.285
0.405
0.44
0.31
0.165
0.03
-0.065
-0.095
0.05
0.11
0.255
0.335
0.36
0.195
0.025
-0.03
-0.13
-0.115
-0.025
0.155
0.345
0.39
0.345
0.19
0.015
-0.09
-0.245
-0.215
-0.085
0.095
0.19
0.26
0.195
0.1
-0.055
-0.23
-0.335
-0.26
-0.125
-0.03
0.15
0.18
0.145
0.035
-0.06
-0.17
-0.35
-0.27
-0.135
0.01
0.175
0.265
0.145
0.095
-0.04
-0.22
-0.335
-0.295
-0.125
0.01
0.125
0.275
0.245
0.12
-0.04
-0.155
-0.32
-0.26
-0.12
0.025
0.085
0.185
0.155
0.02
-0.16
-0.2
-0.305
-0.215
-0.14
0.02
0.08
0.21
0.185
-0.005
-0.105
-0.235
-0.31
-0.15
-0.04
0.095
0.22
0.32
0.185
0.015
-0.125
-0.245
-0.295
-0.21
-0.035
0.1
0.135
0.27
0.155
0.01
-0.14
-0.265
-0.32
-0.145
0.035
0.145
0.215
0.26
0.12
0.015
-0.12
-0.26
-0.31
-0.26
-0.08
0.115
0.13
0.19
0.17
0.055
-0.11
-0.255
-0.275
-0.14
-0.015
0.15
0.235
0.225
0.145
0.015
-0.14
-0.225
-0.23
-0.115
-0.06
0.05
0.175
0.2
0.1
-0.035
-0.155
-0.285
-0.275
-0.165
0.005
0.095
0.165
0.215
0.115
-0.045
-0.19
-0.275
-0.295
-0.195
0.055
0.07
0.21
0.275
0.13
-0.05
-0.195
-0.25
-0.31
-0.235
-0.015
0.12
0.175
0.24
0.195
0.02
-0.13
-0.25
-0.255
-0.19
-0.045
0.095
0.23
0.21
0.09
-0.065
-0.24
-0.33
-0.33
-0.215
-0.01
0.15
0.295
0.22
0.115
-0.1
-0.175
-0.325
-0.305
-0.22
0.05
0.16
0.22
0.115
0.07
0.01
-0.155
-0.235
-0.245
-0.09
0.06
0.19
0.275
0.225
0.14
-0.03
-0.16
-0.25
-0.16
-0.085
0.015
0.14
0.245
0.175
0.07
-0.01
-0.07
-0.245
-0.18
-0.02
0.075
0.125
0.23
0.17
0.09
-0.11
-0.18
-0.285
-0.185
-0.03
0.12
0.195
0.275
0.205
0.1
-0.065
-0.23
-0.285
-0.24
-0.11
0.075
0.165
0.21
0.11
0.035
-0.115
-0.165
-0.265
-0.25
-0.14
-0.005
0.13
0.225
0.175
0.02
-0.135
-0.2
-0.285
-0.185
-0.105
0.03
0.125
0.19
0.105
-0.01
-0.17
-0.235
-0.28
-0.195
-0.055
0.07
0.175
0.27
0.11
-0.11
-0.19
-0.27
-0.33
-0.18
-0.12
0.02
0.175
0.23
0.095
-0.035
-0.135
-0.13
-0.105
-0.035
0.15
0.375
0.52
0.66
0.66
0.62
0.51
0.37
0.335
0.4
0.5
0.6
0.685
0.72
0.485
0.225
-0.13
-0.36
-0.34
-0.255
-0.085
0.035
0.155
0.175
0.14
0.01
-0.12
-0.245
-0.23
-0.155
0.025
0.17
0.26
0.24
0.11
-0.06
-0.145
-0.235
-0.19
-0.115
-0.01
0.155
0.315
0.195
0.13
-0.075
-0.225
-0.27
-0.22
-0.185
0.075
0.225
0.35
0.245
0.095
-0.1
-0.19
-0.4
-0.26
-0.055
0.075
0.135
0.28
0.19
0.11
-0.01
-0.09
-0.215
-0.18
-0.04
0.07
0.215
0.37
0.285
0.085
-0.065
-0.175
-0.24
-0.12
0.015
0.145
0.235
0.31
0.215
0.14
-0.015
-0.17
-0.245
-0.12
0.015
0.12
0.3
0.435
0.32
0.165
0.04
-0.085
-0.175
-0.095
0.025
0.16
0.355
0.385
0.37
0.245
0.115
-0.02
-0.12
-0.065
0.175
0.295
0.445
0.49
0.325
0.19
0.015
-0.04
-0.1
0.04
0.165
0.3
0.405
0.44
0.375
0.275
0.11
0.035
-0.035
0.03
0.145
0.325
0.5
0.49
0.335
0.135
0.03
-0.1
-0.2
-0.065
0.12
0.235
0.325
0.32
0.27
0.115
-0.025
-0.185
-0.215
-0.115
0.075
0.17
0.255
0.28
0.225
0.085
-0.115
-0.24
-0.21
-0.15
0.04
0.14
0.235
0.14
0.055
-0.02
-0.125
-0.225
-0.29
-0.145
0.065
0.155
0.21
0.23
0.14
0.0
-0.155
-0.285
-0.26
-0.165
0.03
0.18
0.28
0.21
0.11
-0.015
-0.155
-0.245
-0.215
-0.065
0.08
0.185
0.29
0.195
0.075
-0.075
-0.225
-0.355
-0.235
-0.03
0.04
0.16
0.255
0.22
0.14
-0.02
-0.195
-0.25
-0.18
-0.09
0.045
0.16
0.26
0.235
0.17
-0.03
-0.17
-0.225
-0.18
-0.085
0.105
0.215
0.375
0.305
0.08
-0.085
-0.17
-0.295
-0.235
-0.105
0.065
0.215
0.295
0.21
0.085
-0.045
-0.135
-0.225
-0.17
-0.085
0.055
0.19
0.335
0.24
0.105
-0.05
-0.165
-0.225
-0.195
-0.01
0.12
0.275
0.245
0.185
-0.06
-0.14
-0.205
-0.26
-0.095
0.085
0.165
0.265
0.285
0.195
0.095
-0.125
-0.2
-0.28
-0.22
-0.03
0.125
0.195
0.275
0.23
-0.005
-0.225
-0.255
-0.285
-0.135
0.005
0.16
0.255
0.265
0.1
-0.025
-0.17
-0.255
-0.24
-0.095
-0.01
0.07
0.215
0.21
0.17
0.035
-0.09
-0.19
-0.22
-0.17
-0.035
0.155
0.28
0.345
0.22
0.02
-0.14
-0.24
-0.275
-0.08
0.03
0.205
0.355
0.38
0.195
0.05
-0.1
-0.2
-0.25
-0.115
0.005
0.105
0.3
0.315
0.25
0.055
-0.055
-0.23
-0.22
-0.11
0.06
0.215
0.27
0.24
0.22
0.09
-0.14
-0.225
-0.215
-0.095
0.085
0.155
0.245
0.2
0.12
0.005
-0.09
-0.245
-0.29
-0.165
0.0
0.125
0.27
0.225
0.105
-0.035
-0.185
-0.32
-0.26
-0.12
0.05
0.19
0.255
0.125
0.065
-0.095
-0.205
-0.255
-0.19
-0.08
0.065
0.19
0.295
0.24
0.1
-0.04
-0.225
-0.305
-0.215
-0.115
0.075
0.155
0.255
0.225
0.065
-0.115
-0.235
-0.335
-0.155
0.0
0.115
0.295
0.455
0.38
0.31
0.21
0.205
0.22
0.39
0.535
0.695
0.9
0.96
0.815
0.55
0.335
0.135
-0.035
-0.06
-0.03
0.06
0.165
0.205
0.12
0.025
-0.07
-0.165
-0.265
-0.18
-0.095
0.06
0.195
0.315
0.18
0.05
-0.015
-0.14
-0.175
-0.115
-0.08
0.09
0.17
0.26
0.15
0.02
-0.085
-0.155
-0.22
-0.115
0.0
0.125
0.27
0.415
0.2
-0.005
-0.13
-0.22
-0.205
-0.06
0.01
0.175
0.265
0.3
0.21
0.055
-0.145
-0.21
-0.285
-0.17
0.0
0.225
0.355
0.315
0.27
0.13
-0.015
-0.15
-0.185
-0.04
0.06
0.18
0.32
0.32
0.205
0.025
-0.05
-0.145
-0.095
-0.03
0.065
0.22
0.33
0.29
0.155
0.015
-0.08
-0.185
-0.08
0.025
0.24
0.37
0.355
0.325
0.315
0.145
-0.005
-0.055
-0.015
0.105
0.25
0.395
0.505
0.4
0.295
0.105
0.025
-0.08
0.005
0.155
0.285
0.42
0.465
0.37
0.29
0.07
0.06
0.0
0.07
0.17
0.28
0.37
0.495
0.45
0.305
0.085
-0.015
-0.075
0.02
0.135
0.315
0.33
0.41
0.33
0.185
0.015
-0.09
-0.135
-0.115
-0.045
0.14
0.25
0.335
0.23
0.115
0.0
-0.1
-0.255
-0.13
0.005
0.16
0.26
0.315
0.215
0.055
-0.085
-0.15
-0.19
-0.075
0.055
0.165
0.26
0.295
0.245
-0.04
-0.145
-0.28
-0.34
-0.2
0.0
0.095
0.205
0.355
0.24
0.095
-0.08
-0.2
-0.28
-0.2
-0.07
0.05
0.195
0.34
0.225
0.11
-0.05
-0.2
-0.275
-0.16
0.03
0.19
0.28
0.275
0.145
0.035
-0.005
-0.215
-0.295
-0.15
0.01
0.16
0.275
0.31
0.19
0.0
-0.1
-0.17
-0.235
-0.18
0.005
0.215
0.32
0.31
0.21
0.065
-0.02
-0.185
-0.225
-0.155
-0.065
0.185
0.38
0.315
0.215
0.035
-0.1
-0.17
-0.155
-0.05
0.06
0.13
0.26
0.225
0.1
-0.1
-0.13
-0.26
-0.235
-0.105
0.07
0.22
0.31
0.27
0.215
0.095
-0.04
-0.285
-0.235
-0.085
0.08
0.24
0.335
0.24
0.12
-0.06
-0.145
-0.25
-0.18
-0.055
0.05
0.18
0.355
0.24
0.13
-0.06
-0.215
-0.315
-0.22
-0.07
0.08
0.225
0.27
0.2
0.105
-0.105
-0.185
-0.265
-0.145
0.015
0.145
0.265
0.32
0.23
0.085
0.01
-0.12
-0.215
-0.105
-0.045
0.06
0.175
0.215
0.105
-0.005
-0.085
-0.185
-0.285
-0.2
-0.045
0.1
0.215
0.305
0.18
0.11
0.005
-0.14
-0.18
-0.1
0.08
0.185
0.315
0.39
0.255
0.04
-0.06
-0.155
-0.22
-0.13
0.04
0.23
0.345
0.34
0.22
0.06
-0.03
-0.21
-0.205
-0.16
0.01
0.16
0.26
0.315
0.23
0.115
-0.08
-0.205
-0.27
-0.155
-0.015
0.1
0.17
0.245
0.2
0.01
-0.175
-0.205
-0.245
-0.08
0.03
0.11
0.195
0.23
0.15
0.05
-0.15
-0.22
-0.255
-0.135
0.06
0.08
0.29
0.24
0.1
-0.095
-0.165
-0.34
-0.21
-0.07
0.005
0.125
0.255
0.25
0.175
0.03
-0.145
-0.27
-0.315
-0.16
0.01
0.11
0.195
0.16
0.1
-0.055
-0.17
-0.225
-0.12
-0.005
0.155
0.345
0.44
0.505
0.49
0.455
0.37
0.38
0.405
0.515
0.68
0.75
0.78
0.73
0.545
0.335
0.11
-0.115
-0.125
-0.145
