# TIPE ECG 2021 - ECG-ID Database v1.0.0 par Physionet
# [N° de la personne, N° de l'enregistrement, Période d'échantillonnage, Prénom, Age, Sexe, Date de l'enregistrement]
[53, 4, 0.002, "Valentin", 21, "H", "21.05.2005"]
0.71
0.725
0.75
0.725
0.75
0.735
0.725
0.725
0.74
0.745
0.75
0.74
0.745
0.725
0.69
0.71
0.745
0.745
0.755
0.75
0.745
0.765
0.74
0.705
0.735
0.745
0.725
0.785
0.755
0.67
0.695
0.75
0.755
0.71
0.74
0.76
0.755
0.76
0.725
0.725
0.76
0.705
0.74
0.76
0.77
0.74
0.715
0.74
0.75
0.78
0.735
0.705
0.72
0.76
0.745
0.75
0.745
0.765
0.74
0.72
0.74
0.77
0.765
0.75
0.75
0.74
0.745
0.71
0.74
0.78
0.765
0.75
0.755
0.75
0.71
0.73
0.73
0.77
0.75
0.725
0.715
0.755
0.765
0.745
0.735
0.695
0.725
0.79
0.78
0.73
0.745
0.75
0.735
0.72
0.76
0.72
0.765
0.785
0.765
0.74
0.735
0.79
0.76
0.76
0.74
0.745
0.745
0.78
0.75
0.775
0.77
0.715
0.74
0.765
0.735
0.77
0.765
0.75
0.74
0.795
0.8
0.73
0.715
0.77
0.785
0.74
0.76
0.745
0.735
0.765
0.775
0.76
0.77
0.785
0.755
0.735
0.785
0.825
0.835
0.84
0.83
0.815
0.845
0.87
0.84
0.8
0.835
0.805
0.82
0.805
0.825
0.815
0.82
0.785
0.765
0.77
0.77
0.775
0.77
0.755
0.765
0.755
0.725
0.745
0.745
0.745
0.765
0.74
0.74
0.79
0.785
0.75
0.705
0.775
0.77
0.79
0.75
0.745
0.78
0.75
0.725
0.745
0.72
0.65
0.58
0.52
0.555
0.585
0.69
0.78
0.89
0.99
1.03
1.135
1.18
1.21
1.29
1.345
1.445
1.48
1.51
1.55
1.53
1.445
1.195
0.825
0.66
0.65
0.64
0.63
0.68
0.725
0.745
0.745
0.755
0.77
0.81
0.755
0.74
0.76
0.755
0.75
0.75
0.78
0.755
0.785
0.73
0.705
0.765
0.785
0.745
0.725
0.74
0.75
0.78
0.75
0.77
0.74
0.765
0.77
0.775
0.695
0.775
0.785
0.77
0.785
0.79
0.825
0.81
0.745
0.78
0.795
0.755
0.77
0.78
0.77
0.785
0.78
0.775
0.785
0.765
0.795
0.79
0.79
0.785
0.78
0.745
0.77
0.78
0.785
0.835
0.825
0.815
0.775
0.81
0.775
0.76
0.79
0.81
0.805
0.765
0.8
0.81
0.81
0.775
0.76
0.8
0.79
0.805
0.815
0.79
0.775
0.785
0.81
0.815
0.78
0.81
0.82
0.835
0.82
0.76
0.78
0.745
0.75
0.77
0.78
0.755
0.78
0.825
0.815
0.795
0.795
0.8
0.77
0.755
0.8
0.8
0.785
0.805
0.815
0.79
0.795
0.765
0.82
0.82
0.81
0.785
0.755
0.795
0.8
0.79
0.74
0.79
0.8
0.78
0.78
0.785
0.815
0.815
0.765
0.75
0.825
0.74
0.74
0.77
0.75
0.775
0.79
0.75
0.77
0.755
0.74
0.79
0.755
0.735
0.755
0.76
0.755
0.74
0.775
0.78
0.775
0.75
0.745
0.745
0.77
0.79
0.75
0.76
0.795
0.8
0.785
0.785
0.75
0.695
0.735
0.765
0.76
0.77
0.775
0.78
0.76
0.73
0.735
0.765
0.795
0.8
0.725
0.76
0.77
0.775
0.78
0.815
0.76
0.725
0.745
0.77
0.8
0.795
0.745
0.745
0.78
0.79
0.765
0.765
0.8
0.77
0.8
0.8
0.775
0.795
0.795
0.77
0.76
0.775
0.795
0.765
0.755
0.775
0.83
0.83
0.765
0.77
0.805
0.755
0.745
0.745
0.765
0.78
0.82
0.78
0.75
0.765
0.755
0.785
0.765
0.77
0.765
0.765
0.745
0.785
0.77
0.795
0.79
0.745
0.755
0.735
0.77
0.795
0.795
0.805
0.76
0.775
0.75
0.77
0.805
0.795
0.775
0.78
0.78
0.775
0.735
0.75
0.74
0.785
0.8
0.77
0.79
0.795
0.82
0.805
0.8
0.795
0.75
0.77
0.7
0.79
0.79
0.785
0.785
0.77
0.775
0.775
0.795
0.815
0.79
0.785
0.77
0.785
0.805
0.785
0.77
0.76
0.79
0.775
0.8
0.805
0.78
0.755
0.765
0.81
0.815
0.775
0.81
0.79
0.78
0.825
0.81
0.82
0.865
0.87
0.77
0.855
0.89
0.865
0.85
0.9
0.89
0.83
0.845
0.85
0.855
0.825
0.81
0.795
0.805
0.82
0.81
0.8
0.775
0.8
0.765
0.73
0.74
0.79
0.755
0.745
0.79
0.78
0.775
0.8
0.78
0.805
0.78
0.715
0.745
0.815
0.81
0.785
0.77
0.79
0.765
0.735
0.785
0.715
0.645
0.63
0.605
0.6
0.625
0.735
0.815
0.925
0.995
1.1
1.195
1.245
1.245
1.285
1.41
1.46
1.485
1.55
1.615
1.515
1.375
1.12
0.775
0.62
0.605
0.665
0.705
0.69
0.705
0.755
0.795
0.81
0.83
0.795
0.755
0.765
0.79
0.73
0.755
0.785
0.78
0.765
0.77
0.77
0.785
0.775
0.745
0.78
0.785
0.8
0.82
0.82
0.735
0.755
0.795
0.79
0.785
0.795
0.795
0.795
0.84
0.85
0.8
0.725
0.765
0.795
0.815
0.79
0.785
0.83
0.815
0.82
0.825
0.855
0.85
0.795
0.76
0.75
0.8
0.79
0.82
0.78
0.85
0.85
0.79
0.8
0.825
0.795
0.795
0.805
0.82
0.85
0.825
0.84
0.83
0.81
0.815
0.815
0.785
0.82
0.85
0.875
0.865
0.82
0.815
0.815
0.855
0.835
0.84
0.815
0.81
0.82
0.815
0.845
0.825
0.835
0.81
0.82
0.815
0.83
0.845
0.845
0.785
0.81
0.795
0.795
0.82
0.81
0.775
0.81
0.815
0.825
0.845
0.825
0.81
0.815
0.795
0.81
0.825
0.825
0.87
0.845
0.86
0.855
0.8
0.725
0.79
0.83
0.855
0.79
0.8
0.78
0.82
0.82
0.825
0.815
0.77
0.795
0.775
0.75
0.8
0.815
0.82
0.81
0.78
0.77
0.75
0.8
0.81
0.775
0.79
0.785
0.795
0.735
0.77
0.81
0.81
0.76
0.76
0.8
0.81
0.795
0.765
0.805
0.83
0.755
0.75
0.78
0.79
0.765
0.77
0.81
0.795
0.82
0.815
0.785
0.755
0.72
0.78
0.82
0.8
0.805
0.795
0.775
0.835
0.805
0.79
0.755
0.77
0.8
0.81
0.775
0.79
0.81
0.765
0.765
0.785
0.795
0.755
0.775
0.77
0.81
0.8
0.84
0.79
0.765
0.775
0.81
0.765
0.785
0.81
0.79
0.765
0.78
0.785
0.74
0.79
0.82
0.815
0.765
0.77
0.775
0.785
0.78
0.8
0.81
0.79
0.785
0.805
0.835
0.84
0.82
0.765
0.74
0.765
0.755
0.79
0.77
0.755
0.805
0.76
0.77
0.78
0.8
0.795
0.795
0.815
0.81
0.78
0.8
0.835
0.775
0.79
0.805
0.785
0.78
0.77
0.795
0.79
0.8
0.79
0.825
0.815
0.795
0.775
0.755
0.775
0.81
0.81
0.805
0.8
0.76
0.755
0.79
0.8
0.805
0.735
0.73
0.805
0.835
0.805
0.805
0.78
0.8
0.785
0.795
0.765
0.79
0.83
0.85
0.865
0.865
0.86
0.865
0.89
0.885
0.88
0.875
0.9
0.89
0.83
0.825
0.835
0.87
0.835
0.8
0.84
0.81
0.84
0.805
0.795
0.82
0.795
0.74
0.8
0.79
0.79
0.785
0.795
0.795
0.78
0.78
0.77
0.76
0.755
0.76
0.78
0.81
0.82
0.79
0.775
0.755
0.75
0.78
0.785
0.735
0.72
0.71
0.63
0.58
0.625
0.675
0.74
0.815
0.925
0.995
1.095
1.175
1.265
1.32
1.35
1.42
1.455
1.49
1.56
1.51
1.48
1.44
1.14
0.795
0.67
0.645
0.665
0.675
0.695
0.745
0.8
0.8
0.815
0.8
0.695
0.75
0.8
0.83
0.82
0.795
0.79
0.785
0.75
0.775
0.8
0.815
0.79
0.795
0.775
0.78
0.79
0.8
0.795
0.82
0.825
0.78
0.75
0.77
0.805
0.81
0.81
0.82
0.78
0.825
0.815
0.81
0.84
0.82
0.82
0.795
0.835
0.835
0.76
0.795
0.815
0.765
0.8
0.845
0.815
0.84
0.84
0.83
0.835
0.84
0.84
0.8
0.805
0.8
0.81
0.815
0.855
0.845
0.825
0.845
0.82
0.785
0.84
0.86
0.85
0.81
0.825
0.83
0.825
0.825
0.835
0.85
0.86
0.895
0.8
0.785
0.81
0.835
0.82
0.82
0.84
0.85
0.84
0.845
0.82
0.82
0.79
0.81
0.825
0.845
0.795
0.81
0.825
0.825
0.84
0.81
0.805
0.825
0.835
0.845
0.855
0.795
0.805
0.845
0.855
0.85
0.81
0.845
0.805
0.805
0.825
0.82
0.83
0.815
0.8
0.815
0.815
0.825
0.81
0.805
0.815
0.8
0.82
0.795
0.73
0.755
0.82
0.83
0.815
0.79
0.805
0.795
0.745
0.785
0.8
0.785
0.805
0.78
0.8
0.84
0.79
0.755
0.765
0.79
0.785
0.82
0.795
0.85
0.82
0.77
0.75
0.765
0.79
0.815
0.775
0.785
0.8
0.8
0.825
0.81
0.775
0.775
0.805
0.82
0.8
0.8
0.815
0.835
0.76
0.82
0.795
0.825
0.815
0.78
0.785
0.79
0.84
0.79
0.805
0.85
0.795
0.765
0.775
0.77
0.795
0.825
0.83
0.82
0.815
0.78
0.8
0.815
0.825
0.775
0.79
0.835
0.85
0.845
0.785
0.775
0.79
0.8
0.815
0.82
0.8
0.805
0.82
0.79
0.82
0.82
0.78
0.82
0.815
0.76
0.79
0.815
0.835
0.825
0.83
0.795
0.76
0.815
0.82
0.8
0.79
0.81
0.8
0.805
0.79
0.815
0.8
0.815
0.8
0.815
0.835
0.8
0.785
0.795
0.78
0.82
0.815
0.815
0.85
0.805
0.805
0.82
0.805
0.785
0.81
0.825
0.82
0.795
0.74
0.83
0.84
0.83
0.79
0.815
0.845
0.82
0.78
0.825
0.865
0.825
0.74
0.795
0.815
0.805
0.83
0.845
0.845
0.825
0.875
0.845
0.82
0.905
0.95
0.87
0.915
0.885
0.89
0.88
0.885
0.86
0.855
0.88
0.86
0.815
0.825
0.825
0.81
0.84
0.805
0.805
0.765
0.795
0.81
0.805
0.75
0.785
0.78
0.805
0.82
0.82
0.795
0.81
0.77
0.795
0.83
0.815
0.78
0.79
0.79
0.75
0.77
0.795
0.825
0.815
0.765
0.67
0.525
0.5
0.595
0.72
0.795
0.84
0.95
1.005
1.135
1.185
1.265
1.285
1.375
1.455
1.505
1.56
1.59
1.61
1.55
1.41
1.02
0.68
0.595
0.62
0.675
0.665
0.71
0.765
0.765
0.79
0.795
0.805
0.795
0.77
0.78
0.785
0.79
0.77
0.825
0.75
0.755
0.78
0.775
0.795
0.795
0.785
0.79
0.78
0.765
0.785
0.815
0.755
0.75
0.8
0.81
0.79
0.84
0.835
0.775
0.785
0.815
0.74
0.83
0.795
0.78
0.795
0.835
0.835
0.82
0.81
0.815
0.82
0.83
0.845
0.855
0.765
0.81
0.825
0.815
0.85
0.85
0.835
0.84
0.815
0.835
0.78
0.79
0.87
0.84
0.815
0.845
0.85
0.855
0.855
0.84
0.835
0.88
0.815
0.825
0.845
0.845
0.85
0.83
0.86
0.865
0.86
0.875
0.845
0.85
0.875
0.85
0.865
0.865
0.835
0.845
0.875
0.85
0.855
0.86
0.875
0.85
0.82
0.86
0.875
0.835
0.84
0.83
0.825
0.835
0.805
0.845
0.83
0.87
0.865
0.855
0.87
0.845
0.845
0.81
0.86
0.865
0.82
0.85
0.835
0.795
0.845
0.8
0.775
0.84
0.845
0.825
0.825
0.825
0.84
0.815
0.82
0.81
0.82
0.8
0.795
0.8
0.78
0.82
0.85
0.855
0.745
0.75
0.77
0.77
0.79
0.78
0.795
0.82
0.84
0.83
0.79
0.77
0.805
0.755
0.78
0.72
0.725
0.8
0.85
0.825
0.795
0.81
0.8
0.785
0.815
0.805
0.805
0.77
0.83
0.84
0.805
0.785
0.81
0.8
0.81
0.79
0.8
0.83
0.825
0.765
0.825
0.805
0.795
0.79
0.79
0.79
0.805
0.81
0.79
0.775
0.76
0.81
0.85
0.84
0.815
0.745
0.79
0.81
0.795
0.775
0.8
0.805
0.81
0.795
0.805
0.815
0.8
0.79
0.825
0.79
0.775
0.795
0.82
0.805
0.785
0.795
0.78
0.785
0.815
0.765
0.775
0.815
0.825
0.785
0.805
0.74
0.725
0.77
0.81
0.8
0.81
0.78
0.785
0.785
0.785
0.775
0.75
0.82
0.815
0.78
0.77
0.835
0.805
0.76
0.79
0.815
0.81
0.79
0.765
0.805
0.765
0.745
0.79
0.785
0.77
0.82
0.845
0.81
0.76
0.77
0.775
0.79
0.82
0.83
0.81
0.795
0.77
0.77
0.79
0.815
0.785
0.79
0.805
0.755
0.785
0.81
0.82
0.845
0.825
0.835
0.87
0.835
0.89
0.87
0.895
0.855
0.87
0.91
0.875
0.895
0.905
0.81
0.845
0.855
0.865
0.82
0.835
0.835
0.815
0.81
0.805
0.805
0.79
0.765
0.785
0.815
0.795
0.77
0.795
0.825
0.815
0.8
0.78
0.78
0.805
0.8
0.785
0.785
0.765
0.78
0.82
0.79
0.77
0.79
0.78
0.76
0.73
0.695
0.68
0.61
0.58
0.605
0.635
0.73
0.84
0.92
1.005
1.105
1.24
1.36
1.34
1.405
1.49
1.535
1.565
1.625
1.66
1.595
1.515
1.13
0.705
0.635
0.645
0.63
0.67
0.665
0.71
0.785
0.795
0.785
0.825
0.835
0.825
0.76
0.77
0.785
0.79
0.8
0.8
0.79
0.81
0.8
0.77
0.79
0.79
0.8
0.775
0.785
0.805
0.825
0.77
0.75
0.77
0.815
0.79
0.765
0.815
0.82
0.815
0.835
0.82
0.79
0.82
0.795
0.76
0.775
0.81
0.845
0.835
0.855
0.795
0.815
0.825
0.83
0.82
0.85
0.87
0.79
0.785
0.825
0.84
0.86
0.85
0.81
0.835
0.855
0.855
0.86
0.84
0.87
0.84
0.82
0.81
0.835
0.825
0.865
0.865
0.86
0.825
0.84
0.845
0.83
0.845
0.84
0.845
0.85
0.885
0.865
0.845
0.855
0.84
0.845
0.875
0.855
0.845
0.875
0.885
0.845
0.87
0.87
0.91
0.84
0.84
0.845
0.835
0.86
0.825
0.835
0.835
0.875
0.855
0.84
0.86
0.83
0.85
0.875
0.845
0.805
0.865
0.84
0.825
0.805
0.85
0.79
0.8
0.865
0.84
0.84
0.84
0.835
0.835
0.8
0.82
0.795
0.77
0.81
0.81
0.82
0.825
0.815
0.81
0.795
0.78
0.815
0.83
0.815
0.83
0.78
0.745
0.775
0.825
0.79
0.76
0.815
0.815
0.805
0.8
0.8
0.8
0.815
0.8
0.78
0.85
0.83
0.765
0.725
0.795
0.845
0.84
0.83
0.8
0.775
0.815
0.785
0.79
0.775
0.83
0.83
0.82
0.795
0.81
0.79
0.83
0.83
0.785
0.805
0.795
0.835
0.815
0.82
0.81
0.82
0.815
0.79
0.78
0.805
0.845
0.845
0.795
0.815
0.815
0.8
0.815
0.815
0.805
0.805
0.87
0.775
0.81
0.83
0.81
0.795
0.795
0.78
0.81
0.79
0.82
0.8
0.8
0.815
0.82
0.835
0.77
0.815
0.785
0.805
0.855
0.84
0.835
0.815
0.805
0.78
0.84
0.82
0.795
0.83
0.815
0.805
0.825
0.82
0.815
0.815
0.825
0.83
0.82
0.8
0.795
0.81
0.795
0.865
0.825
0.805
0.81
0.815
0.83
0.825
0.83
0.86
0.86
0.83
0.815
0.82
0.835
0.845
0.87
0.885
0.9
0.905
0.93
0.92
0.925
0.915
0.865
0.85
0.895
0.89
0.91
0.935
0.895
0.855
0.835
0.86
0.865
0.83
0.815
0.845
0.86
0.855
0.8
0.825
0.785
0.805
0.83
0.82
0.82
0.815
0.82
0.76
0.8
0.815
0.82
0.8
0.78
0.85
0.87
0.845
0.79
0.775
0.795
0.815
0.775
0.76
0.74
0.66
0.615
0.575
0.61
0.715
0.835
0.935
1.03
1.15
1.235
1.355
1.41
1.39
1.465
1.56
1.59
1.635
1.7
1.685
1.565
1.295
0.815
0.57
0.61
0.645
0.615
0.67
0.69
0.665
0.61
0.78
0.85
0.83
0.84
0.83
0.795
0.8
0.845
0.795
0.8
0.84
0.845
0.85
0.825
0.815
0.82
0.845
0.82
0.79
0.835
0.83
0.85
0.845
0.825
0.815
0.815
0.855
0.885
0.82
0.81
0.81
0.835
0.865
0.865
0.87
0.885
0.875
0.89
0.84
0.85
0.875
0.84
0.85
0.915
0.88
0.815
0.865
0.89
0.89
0.885
0.89
0.895
0.9
0.885
0.885
0.92
0.93
0.89
0.91
0.92
0.905
0.895
0.96
0.905
0.885
0.885
0.89
0.885
0.895
0.9
0.91
0.935
0.92
0.94
0.925
0.935
0.925
0.97
0.935
0.925
0.945
0.955
0.94
0.95
0.945
1.0
0.98
0.925
0.925
0.905
0.95
0.965
0.94
0.945
0.92
0.92
0.93
0.975
0.975
0.92
0.935
0.915
0.925
0.935
0.935
0.935
0.885
0.915
0.91
0.92
0.905
0.935
0.885
0.865
0.905
0.845
0.83
0.895
0.875
0.845
0.855
0.855
0.865
0.87
0.845
0.82
0.85
0.885
0.86
0.84
0.79
0.86
0.845
0.805
0.835
0.825
0.815
0.83
0.83
0.86
0.835
0.88
0.855
0.83
0.81
0.795
0.825
0.795
0.815
0.84
0.86
0.855
0.84
0.865
0.86
0.855
0.85
0.785
0.735
0.81
0.85
0.875
0.84
0.84
0.845
0.83
0.83
0.845
0.84
0.81
0.855
0.88
0.81
0.83
0.86
0.82
0.82
0.835
0.815
0.835
0.85
0.865
0.865
0.845
0.835
0.83
0.855
0.845
0.84
0.86
0.855
0.825
0.84
0.85
0.8
0.8
0.82
0.865
0.89
0.77
0.825
0.855
0.85
0.825
0.8
0.815
0.84
0.82
0.84
0.835
0.84
0.82
0.835
0.85
0.805
0.78
0.85
0.865
0.825
0.82
0.845
0.83
0.82
0.82
0.79
0.8
0.835
0.835
0.835
0.84
0.835
0.81
0.825
0.865
0.82
0.815
0.86
0.83
0.845
0.845
0.825
0.835
0.82
0.9
0.91
0.9
0.89
0.87
0.86
0.885
0.94
0.905
0.87
0.875
0.895
0.905
0.895
0.87
0.865
0.825
0.835
0.805
0.83
0.82
0.82
0.805
0.82
0.795
0.77
0.805
0.81
0.815
0.82
0.805
0.805
0.81
0.8
0.82
0.81
0.805
0.795
0.8
0.77
0.795
0.79
0.775
0.75
0.77
0.785
0.765
0.755
0.67
0.615
0.53
0.56
0.64
0.755
0.885
0.975
1.065
1.18
1.265
1.34
1.265
1.365
1.435
1.48
1.57
1.595
1.6
1.535
1.365
0.965
0.605
0.57
0.595
0.59
0.745
0.78
0.785
0.755
0.76
0.785
0.81
0.83
0.785
0.76
0.76
0.795
0.745
0.81
0.83
0.76
0.735
0.765
0.75
0.79
0.84
0.84
0.79
0.745
0.755
0.725
0.795
0.765
0.785
0.835
0.825
0.82
0.78
0.795
0.805
0.815
0.805
0.785
0.785
0.82
0.805
0.79
0.84
0.825
0.83
0.81
0.79
0.815
0.84
0.83
0.835
0.815
0.825
0.795
0.765
0.815
0.85
0.84
0.805
0.795
0.84
0.85
0.83
0.88
0.83
0.855
0.81
0.82
0.865
0.87
0.835
0.835
0.83
0.85
0.87
0.865
0.83
0.84
0.885
0.87
0.865
0.835
0.855
0.895
0.855
0.805
0.875
0.885
0.855
0.84
0.84
0.85
0.86
0.82
0.865
0.845
0.875
0.865
0.85
0.88
0.875
0.845
0.83
0.825
0.84
0.855
0.815
0.8
0.835
0.835
0.835
0.855
0.83
0.805
0.76
0.785
0.775
0.81
0.82
0.765
0.78
0.795
0.8
0.78
0.77
0.8
0.78
0.78
0.755
0.775
0.765
0.765
0.75
0.73
0.74
0.74
0.775
0.755
0.785
0.76
0.75
0.77
0.755
0.765
0.725
0.72
0.75
0.75
0.755
0.75
0.74
0.725
0.705
0.76
0.745
0.765
0.775
0.735
0.735
0.77
0.755
0.695
0.74
0.795
0.72
0.715
0.725
0.76
0.77
0.755
0.765
0.76
0.755
0.75
0.745
0.745
0.74
0.73
0.765
0.77
0.775
0.735
0.72
0.755
0.765
0.745
0.755
0.76
0.785
0.755
0.75
0.735
0.765
0.75
0.785
0.765
0.78
0.765
0.735
0.745
0.715
0.745
0.755
0.765
0.79
0.715
0.745
0.76
0.72
0.75
0.775
0.74
0.74
0.755
0.705
0.71
0.725
0.745
0.775
0.735
0.735
0.76
0.76
0.75
0.685
0.705
0.755
0.76
0.76
0.76
0.765
0.76
0.725
0.75
0.745
0.775
0.815
0.8
0.775
0.79
0.845
0.825
0.82
0.855
0.775
0.805
0.85
0.825
0.805
0.805
0.78
0.79
0.775
0.785
0.755
0.75
0.75
0.725
0.75
0.75
0.75
0.735
0.72
0.725
0.71
0.71
0.73
0.77
0.75
0.715
0.675
0.725
0.74
0.715
0.705
0.73
0.73
0.695
0.69
0.755
0.795
0.715
0.7
0.645
0.575
0.565
0.565
0.56
0.485
0.54
0.665
0.755
0.86
0.93
1.02
1.115
1.21
1.275
1.355
1.475
1.55
1.535
1.555
1.59
1.565
1.46
1.25
0.82
0.56
0.59
0.635
0.605
0.635
0.695
0.765
0.75
0.68
0.73
0.715
0.71
0.695
0.7
0.72
0.71
0.69
0.705
0.67
0.695
0.7
0.68
0.71
0.72
0.725
0.7
0.71
0.715
0.695
0.705
0.71
0.725
0.72
0.73
0.72
0.715
0.745
0.755
0.72
0.7
0.73
0.72
0.7
0.71
0.7
0.72
0.695
0.7
0.715
0.73
0.715
0.745
0.765
0.745
0.695
0.725
0.725
0.72
0.735
0.735
0.74
0.745
0.735
0.765
0.74
0.71
0.74
0.735
0.71
0.745
0.735
0.725
0.76
0.78
0.755
0.67
0.75
0.755
0.73
0.725
0.76
0.785
0.765
0.73
0.72
0.725
0.72
0.745
0.755
0.765
0.735
0.75
0.74
0.75
0.715
0.735
0.735
0.75
0.745
0.735
0.775
0.755
0.745
0.765
0.76
0.74
0.715
0.74
0.75
0.765
0.715
0.73
0.765
0.785
0.76
0.76
0.715
0.76
0.755
0.765
0.745
0.74
0.73
0.73
0.72
0.72
0.68
0.73
0.745
0.71
0.705
0.715
0.72
0.715
0.69
0.685
0.68
0.69
0.755
0.72
0.68
0.675
0.69
0.645
0.635
0.68
0.69
0.725
0.705
0.72
0.695
0.665
0.665
0.72
0.71
0.695
0.705
0.715
0.695
0.69
0.665
0.7
0.695
0.685
0.725
0.7
0.705
0.695
0.695
0.705
0.675
0.655
0.7
0.7
0.685
0.67
0.685
0.685
0.695
0.7
0.695
0.665
0.705
0.695
0.645
0.68
0.695
0.72
0.705
0.66
0.67
0.7
0.66
0.705
0.695
0.64
0.645
0.69
0.675
0.715
0.705
0.655
0.71
0.72
0.65
0.66
0.66
0.71
0.71
0.695
0.715
0.68
0.69
0.705
0.68
0.695
0.69
0.65
0.68
0.69
0.695
0.71
0.625
0.65
0.66
0.665
0.7
0.69
0.68
0.645
0.655
0.685
0.675
0.675
0.665
0.68
0.69
0.715
0.71
0.66
0.67
0.675
0.67
0.655
0.655
0.68
0.68
0.695
0.72
0.705
0.7
0.705
0.73
0.765
0.745
0.74
0.765
0.775
0.79
0.765
0.75
0.76
0.76
0.77
0.68
0.71
0.75
0.725
0.705
0.715
0.7
0.685
0.66
0.635
0.68
0.68
0.68
0.68
0.67
0.665
0.66
0.66
0.665
0.665
0.66
0.645
0.655
0.695
0.705
0.675
0.65
0.65
0.665
0.675
0.625
0.645
0.64
0.645
0.63
0.57
0.495
0.42
0.435
0.485
0.59
0.715
0.82
0.91
0.97
1.06
1.185
1.19
1.28
1.45
1.495
1.495
1.575
1.6
1.59
1.49
1.145
0.735
0.545
0.52
0.535
0.555
0.59
0.605
0.65
0.68
0.66
0.63
0.665
0.7
0.69
0.65
0.64
0.645
0.65
0.66
0.635
0.63
0.64
0.655
0.645
0.645
0.665
0.65
0.64
0.685
0.69
0.645
0.67
0.645
0.645
0.66
0.655
0.66
0.665
0.63
0.64
0.615
0.64
0.625
0.615
0.68
0.68
0.635
0.625
0.665
0.665
0.66
0.65
0.61
0.68
0.675
0.665
0.67
0.695
0.705
0.7
0.68
0.665
0.635
0.68
0.675
0.685
0.68
0.68
0.655
0.645
0.66
0.67
0.655
0.68
0.695
0.66
0.705
0.665
0.625
0.67
0.7
0.67
0.655
0.645
0.7
0.695
0.695
0.705
0.68
0.655
0.63
0.675
0.695
0.725
0.695
0.665
0.71
0.68
0.695
0.66
0.665
0.685
0.7
0.725
0.62
0.65
0.735
0.725
0.71
0.66
0.675
0.685
0.715
0.75
0.725
0.675
0.64
0.68
0.66
0.665
0.665
0.665
0.66
0.675
0.695
0.675
0.665
0.67
0.665
0.655
0.645
0.65
0.68
0.645
0.645
0.63
0.655
0.65
0.66
0.645
0.64
0.65
0.66
0.645
0.635
0.625
0.655
0.65
0.635
0.62
0.6
0.645
0.665
0.6
0.65
0.65
0.67
0.645
0.665
0.665
0.655
0.595
0.64
0.6
0.645
0.63
0.65
0.65
0.645
0.62
0.63
0.635
0.62
0.63
0.645
0.665
0.655
0.66
0.62
0.625
0.655
0.66
0.645
0.65
0.66
0.63
0.655
0.635
0.645
0.64
0.625
0.625
0.645
0.645
0.655
0.655
0.66
0.65
0.655
0.63
0.61
0.645
0.66
0.64
0.64
0.655
0.675
0.655
0.64
0.65
0.635
0.63
0.625
0.67
0.665
0.635
0.6
0.555
0.65
0.62
0.595
0.665
0.675
0.65
0.66
0.645
0.62
0.61
0.64
0.655
0.645
0.625
0.65
0.63
0.63
0.65
0.63
0.65
0.615
0.62
0.645
0.63
0.635
0.635
0.665
0.685
0.63
0.655
0.64
0.66
0.645
0.6
0.6
0.665
0.64
0.635
0.62
0.65
0.655
0.645
0.64
0.65
0.655
0.645
0.64
0.655
0.64
0.615
0.62
0.65
0.64
0.595
0.625
0.66
0.675
0.61
0.625
0.64
0.62
0.62
0.665
0.68
0.67
0.68
0.695
0.715
0.735
0.72
0.7
0.735
0.68
0.7
0.73
0.745
0.72
0.71
0.71
0.73
0.69
0.69
0.665
0.63
0.63
0.61
0.63
0.68
0.675
0.655
0.655
0.655
0.665
0.63
0.615
0.6
0.67
0.655
0.605
0.615
0.62
0.605
0.615
0.635
0.61
0.63
0.65
0.61
0.605
0.635
0.635
0.615
0.615
0.605
0.595
0.55
0.475
0.445
0.425
0.405
0.46
0.53
0.645
0.76
0.845
0.945
1.045
1.145
1.23
1.27
1.42
1.45
1.455
1.535
1.545
1.52
1.42
1.145
0.685
0.51
0.54
0.55
0.52
0.48
0.64
0.625
0.6
0.625
0.665
0.64
0.62
0.61
0.59
0.605
0.615
0.615
0.65
0.61
0.57
0.6
0.62
0.62
0.59
0.61
0.64
0.6
0.59
0.615
0.615
0.595
0.57
0.595
0.65
0.615
0.62
0.595
0.635
0.645
0.66
0.635
0.62
0.61
0.645
0.61
0.595
0.625
0.635
0.635
0.625
0.605
0.63
0.63
0.59
0.625
0.655
0.625
0.665
0.675
0.635
0.59
0.645
0.615
0.66
0.615
0.635
0.64
0.635
0.63
0.645
0.635
0.62
0.65
0.615
0.665
0.655
0.635
0.62
0.65
0.64
0.62
0.625
0.64
0.645
0.615
0.625
0.67
0.68
0.645
0.66
0.61
0.575
0.585
0.64
0.66
0.62
0.62
0.62
0.67
0.615
0.62
0.615
0.66
0.63
0.645
0.645
0.67
0.64
0.595
0.615
0.64
0.625
0.64
0.64
0.605
0.645
0.67
0.635
0.625
0.61
0.645
0.635
0.62
0.645
0.615
0.585
0.62
0.63
0.655
0.625
0.625
0.615
0.6
0.585
0.64
0.6
0.595
0.61
0.605
0.605
0.59
0.605
0.575
0.6
0.62
0.645
0.65
0.56
0.58
0.645
0.605
0.56
0.595
0.58
0.575
0.6
0.615
0.595
0.575
0.605
0.615
0.595
0.595
0.625
0.615
0.61
0.58
0.615
0.59
0.585
0.6
0.605
0.615
0.625
0.6
0.61
0.605
0.58
0.62
0.595
0.595
0.6
0.61
0.605
0.62
0.625
0.625
0.63
0.595
0.6
0.56
0.65
0.58
0.56
0.615
0.62
0.615
0.61
0.595
0.57
0.615
0.64
0.6
0.625
0.6
0.63
0.64
0.63
0.6
0.605
0.635
0.585
0.58
0.61
0.635
0.61
0.61
0.63
0.64
0.615
0.605
0.565
0.6
0.6
0.615
0.63
0.635
0.655
0.595
0.55
0.585
0.61
0.59
0.605
0.615
0.625
0.635
0.615
0.605
0.56
0.615
0.66
0.585
0.605
0.585
0.56
0.615
0.63
0.625
0.595
0.59
0.61
0.59
0.615
0.685
0.685
0.61
0.595
0.59
0.585
0.585
0.615
0.595
0.585
0.615
0.635
0.625
0.635
0.62
0.605
0.625
0.64
0.615
0.645
0.63
0.615
0.61
0.64
0.61
0.585
0.65
0.625
0.65
0.64
0.66
0.675
0.67
0.735
0.69
0.605
0.705
0.72
0.69
0.695
0.715
0.735
0.71
0.69
0.69
0.67
0.655
0.645
0.625
0.645
0.655
0.655
0.655
0.61
0.62
0.645
0.64
0.6
0.615
0.645
0.615
0.605
0.6
0.57
0.625
0.615
0.615
0.605
0.635
0.62
0.625
0.655
0.635
0.59
0.57
0.595
0.61
0.58
0.585
0.55
0.535
0.475
0.365
0.365
0.425
0.52
0.645
0.76
0.855
0.935
1.035
1.14
1.175
1.215
1.295
1.385
1.45
1.53
1.54
1.535
1.44
1.21
0.77
0.475
0.425
0.455
0.47
0.49
0.57
0.605
0.625
0.64
0.635
0.64
0.635
0.615
0.615
0.62
0.645
0.655
0.63
0.635
0.62
0.61
0.605
0.62
0.6
0.61
0.655
0.66
0.66
0.645
0.59
0.635
0.625
0.605
0.605
0.615
0.635
0.665
0.7
0.68
0.665
0.64
0.6
0.595
0.645
0.65
0.67
0.68
0.645
0.69
0.68
0.66
0.675
0.655
0.645
0.65
0.675
0.65
0.675
0.65
0.665
0.68
0.7
0.66
0.655
0.685
0.675
0.705
0.69
0.64
0.68
0.705
0.675
0.67
0.665
0.705
0.715
0.72
0.71
0.7
0.71
0.725
0.675
0.655
0.7
0.71
0.745
0.73
0.7
0.69
0.67
0.685
0.695
0.72
0.725
0.74
0.745
0.725
0.7
0.695
0.72
0.7
0.71
0.67
0.66
0.68
0.695
0.74
0.695
0.68
0.685
0.715
0.725
0.705
0.715
0.68
0.725
0.7
0.705
0.71
0.685
0.67
0.66
0.685
0.7
0.65
0.66
0.66
0.74
0.7
0.625
0.635
0.675
0.665
0.6
0.63
0.64
0.66
0.65
0.66
0.615
0.62
0.655
0.685
0.625
0.605
0.65
0.665
0.68
0.65
0.59
0.615
0.645
0.665
0.635
0.625
0.64
0.635
0.64
0.615
0.63
0.635
0.665
0.645
0.615
0.61
0.62
0.66
0.68
0.64
0.62
0.64
0.67
0.65
0.62
0.645
0.655
0.655
0.655
0.675
0.635
0.625
0.625
0.65
0.63
0.64
0.62
0.645
0.69
0.635
0.65
0.675
0.605
0.65
0.64
0.61
0.68
0.67
0.68
0.66
0.615
0.605
0.635
0.625
0.655
0.615
0.665
0.665
0.63
0.64
0.645
0.665
0.665
0.615
0.625
0.64
0.625
0.655
0.63
0.64
0.625
0.615
0.64
0.705
0.675
0.625
0.68
0.635
0.6
0.63
0.65
0.625
0.64
0.665
0.625
0.65
0.65
0.655
0.615
0.655
0.63
0.6
0.645
0.65
0.66
0.66
0.645
0.67
0.685
0.64
0.62
0.59
0.625
0.635
0.675
0.715
0.675
0.66
0.655
0.655
0.65
0.68
0.675
0.645
0.655
0.72
0.71
0.735
0.72
0.715
0.71
0.715
0.765
0.72
0.725
0.785
0.775
0.7
0.695
0.7
0.695
0.67
0.65
0.675
0.66
0.625
0.655
0.67
0.665
0.665
0.65
0.625
0.61
0.645
0.66
0.625
0.66
0.635
0.665
0.645
0.565
0.625
0.64
0.635
0.655
0.62
0.64
0.665
0.655
0.63
0.57
0.575
0.63
0.6
0.575
0.51
0.4
0.415
0.43
0.52
0.615
0.71
0.815
0.935
1.035
1.125
1.17
1.11
1.24
1.33
1.3
1.42
1.455
1.48
1.335
1.12
0.705
0.385
0.405
0.42
0.415
0.46
0.45
0.505
0.575
0.61
0.635
0.645
0.64
0.665
0.64
0.63
0.61
0.585
0.615
0.625
0.625
0.6
0.635
0.655
0.625
0.615
0.64
0.62
0.67
0.66
0.64
0.62
0.635
0.64
0.64
0.63
0.64
0.67
0.705
0.7
0.625
0.655
0.655
0.66
0.62
0.645
0.67
0.65
0.67
0.665
0.68
0.65
0.685
0.745
0.665
0.655
0.665
0.67
0.685
0.685
0.665
0.68
0.67
0.685
0.725
0.68
0.7
0.68
0.68
0.685
0.735
0.75
0.71
0.715
0.72
0.675
0.69
0.705
0.755
0.785
0.745
0.695
0.68
0.73
0.72
0.695
0.715
0.72
0.71
0.76
0.735
0.805
0.755
0.725
0.73
0.75
0.75
0.75
0.705
0.71
0.78
0.745
0.75
0.735
0.74
0.725
0.69
0.735
0.74
0.74
0.74
0.72
0.725
0.775
0.705
0.71
0.695
0.735
0.715
0.72
0.705
0.685
0.67
0.665
0.64
0.655
0.67
0.66
0.66
0.67
0.67
0.645
0.62
0.63
0.655
0.645
0.65
0.595
0.615
0.625
0.645
0.625
0.635
0.63
0.61
0.62
0.625
0.6
0.615
0.625
0.635
0.655
0.605
0.55
0.565
0.585
0.635
0.66
0.63
0.615
0.625
0.57
0.6
0.595
0.59
0.605
0.585
0.615
0.63
0.63
0.635
0.615
0.64
0.63
0.595
0.605
0.63
0.63
0.645
0.605
0.58
0.61
0.62
0.62
0.62
0.61
0.61
0.63
0.615
0.6
0.585
0.595
0.605
0.615
0.625
0.62
0.635
0.605
0.62
0.6
0.615
0.64
0.605
0.6
0.625
0.61
0.59
0.625
0.62
0.635
0.61
0.565
0.595
0.645
0.64
0.65
0.61
0.645
0.635
0.63
0.58
0.565
0.58
0.575
0.625
0.585
0.61
0.605
0.595
0.615
0.59
0.595
0.6
0.61
0.605
0.62
0.57
0.57
0.59
0.605
0.645
0.58
0.565
0.585
0.605
0.58
0.6
0.61
0.59
0.58
0.62
0.61
0.61
0.595
0.61
0.595
0.585
0.58
0.58
0.62
0.63
0.625
0.595
0.605
0.635
0.625
0.635
0.64
0.685
0.69
0.665
0.665
0.645
0.69
0.695
0.66
0.65
0.68
0.67
0.675
0.645
0.645
0.62
0.595
0.57
0.6
0.585
0.59
0.59
0.59
0.595
0.57
0.515
0.515
0.55
0.645
0.645
0.6
0.56
0.545
0.605
0.58
0.6
0.61
0.61
0.595
0.61
0.595
0.585
0.545
0.575
0.5
0.495
0.47
0.43
0.36
0.37
0.405
0.485
0.55
0.66
0.755
0.85
0.975
1.005
1.085
1.175
1.22
1.325
1.37
1.42
1.405
1.425
1.415
1.255
0.915
0.535
0.445
0.46
0.475
0.525
0.54
0.585
0.6
0.6
0.56
0.585
0.585
0.56
0.595
0.59
0.555
0.565
0.56
0.59
0.52
0.585
0.585
0.575
0.575
0.58
0.545
0.54
0.54
0.565
0.565
0.585
0.615
0.595
0.56
0.545
0.57
0.555
0.585
0.575
0.58
0.57
0.62
0.605
0.59
0.59
0.585
0.575
0.6
0.58
0.585
0.56
0.585
0.61
0.61
0.58
0.59
0.56
0.575
0.605
0.62
0.585
0.595
0.585
0.58
0.565
0.58
0.6
0.615
0.595
0.605
0.605
0.58
0.6
0.585
0.585
0.575
0.585
0.625
0.595
0.6
0.59
0.58
0.59
0.59
0.59
0.575
0.575
0.61
0.62
0.595
0.59
0.59
0.62
0.615
0.595
0.575
0.6
0.575
0.57
0.6
0.625
0.59
0.625
0.6
0.625
0.625
0.59
0.6
0.615
0.62
0.59
0.615
0.635
0.625
0.575
0.59
0.58
0.61
0.63
0.61
0.61
0.6
0.635
0.62
0.615
0.53
0.585
0.61
0.585
0.58
0.58
0.58
0.595
0.57
0.55
0.585
0.595
0.55
0.54
0.575
0.555
0.57
0.53
0.545
0.595
0.605
0.575
0.525
0.57
0.55
0.53
0.595
0.595
0.56
0.55
0.56
0.53
0.545
0.56
0.55
0.57
0.56
0.56
0.57
0.555
0.58
0.575
0.55
0.53
0.57
0.57
0.57
0.58
0.55
0.56
0.56
0.565
0.53
0.505
0.545
0.575
0.575
0.535
0.515
0.57
0.58
0.56
0.575
0.565
0.535
0.5
0.53
0.56
0.57
0.545
0.555
0.51
0.52
0.56
0.54
0.555
0.57
0.56
0.58
0.58
0.55
0.53
0.54
0.56
0.575
0.58
0.555
0.555
0.545
0.595
0.57
0.545
0.54
0.515
0.555
0.565
0.575
0.54
0.545
0.545
0.535
0.57
0.545
0.58
0.54
0.525
0.49
0.505
0.53
0.545
0.57
0.565
0.555
0.56
0.555
0.53
0.55
0.555
0.545
0.565
0.565
0.545
0.525
0.54
0.55
0.555
0.565
0.56
0.55
0.545
0.54
0.52
0.555
0.59
0.605
0.65
0.545
0.56
0.58
0.605
0.59
0.585
0.615
0.615
0.66
0.635
0.68
0.63
0.56
0.575
0.56
0.6
0.575
0.555
0.54
0.555
0.57
0.59
0.565
0.52
0.5
0.485
0.53
0.54
0.56
0.57
0.545
0.535
0.53
0.535
0.53
0.535
0.525
0.52
0.565
0.56
0.51
0.515
0.51
0.525
0.575
0.485
0.46
0.46
0.425
0.365
0.295
0.3
0.325
0.42
0.515
0.61
0.69
0.815
0.86
0.995
1.095
1.19
1.265
1.34
1.39
1.445
1.435
1.42
1.365
1.21
0.72
0.425
0.39
0.4
0.42
0.425
0.47
0.495
0.545
0.58
0.54
0.515
0.56
0.57
0.455
0.505
0.55
0.54
0.5
0.51
0.515
0.485
0.49
0.53
0.465
0.49
0.53
0.56
0.53
0.505
0.535
0.515
0.5
0.46
0.49
0.53
0.55
0.55
0.56
0.52
0.52
0.53
0.5
0.49
0.5
0.55
0.55
0.54
0.545
0.565
0.545
0.52
0.545
0.5
0.5
0.535
0.525
0.545
0.555
0.54
0.555
0.555
0.53
0.52
0.555
0.565
0.545
0.565
0.52
0.55
0.6
0.525
0.525
0.525
0.54
0.55
0.52
0.535
0.575
0.56
0.55
0.57
0.525
0.52
0.515
0.535
0.545
0.595
0.61
0.57
0.575
0.535
0.53
0.51
0.505
0.52
0.565
0.59
0.545
0.52
0.565
0.59
0.57
0.55
0.54
0.55
0.52
0.55
0.57
0.56
0.56
0.56
0.59
0.6
0.555
0.525
0.535
0.575
0.57
0.56
0.555
0.545
0.545
0.525
0.535
0.54
0.46
0.55
0.54
0.54
0.53
0.515
0.485
0.515
0.51
0.49
0.525
0.535
0.51
0.525
0.53
0.48
0.485
0.49
0.51
0.495
0.505
0.5
0.475
0.53
0.535
0.515
0.52
0.485
0.48
0.465
0.49
0.52
0.51
0.47
0.495
0.495
0.525
0.5
0.46
0.505
0.51
0.5
0.56
0.51
0.48
0.51
0.52
0.48
0.49
0.495
0.485
0.455
0.52
0.495
0.5
0.51
0.525
0.555
0.5
0.495
0.495
0.48
0.51
0.525
0.49
0.45
0.505
0.52
0.475
0.52
0.52
0.465
0.48
0.525
0.53
0.515
0.515
0.525
0.51
0.5
0.515
0.535
0.535
0.45
0.48
0.52
0.5
0.475
0.485
0.49
0.505
0.53
0.475
0.515
0.52
0.525
0.515
0.535
0.505
0.51
0.515
0.49
0.51
0.535
0.485
0.485
0.49
0.5
0.51
0.505
0.5
0.51
0.51
0.515
0.5
0.48
0.49
0.52
0.495
0.495
0.48
0.495
0.53
0.55
0.515
0.515
0.48
0.44
0.485
0.525
0.515
0.495
0.495
0.515
0.515
0.49
0.525
0.52
0.505
0.5
0.505
0.505
0.52
0.51
0.525
0.495
0.515
0.51
0.49
0.5
0.52
0.515
0.53
0.475
0.515
0.475
0.5
0.51
0.505
0.54
0.585
0.56
0.58
0.56
0.545
0.555
0.555
0.61
0.62
0.575
0.585
0.55
0.585
0.585
0.555
0.575
0.56
0.53
0.53
0.555
0.54
0.51
0.515
0.515
0.525
0.5
0.475
0.48
0.515
0.555
0.555
0.51
0.45
0.505
0.5
0.475
0.495
0.52
0.51
0.475
0.505
0.535
0.55
0.535
0.51
0.45
0.445
0.44
0.42
0.34
0.315
0.31
0.3
0.37
0.51
0.595
0.655
0.695
0.84
0.99
1.025
1.08
1.145
1.235
1.3
1.37
1.405
1.43
1.375
1.255
0.905
0.43
0.315
0.38
0.4
0.405
0.415
0.44
0.505
0.475
0.49
0.535
0.53
0.53
0.5
0.495
0.505
0.525
0.515
0.485
0.54
0.485
0.48
0.51
0.545
0.51
0.495
0.51
0.55
0.515
0.515
0.505
0.465
0.495
0.515
0.515
0.515
0.495
0.495
0.55
0.55
0.55
0.505
0.485
0.495
0.495
0.535
0.525
0.565
0.515
0.515
0.555
0.585
0.55
0.555
0.53
0.56
0.545
0.565
0.56
0.54
0.56
0.54
0.56
0.575
0.555
0.54
0.565
0.605
0.55
0.54
0.56
0.575
0.58
0.56
0.58
0.54
0.53
0.55
0.6
0.585
0.585
0.585
0.57
0.545
0.555
0.585
0.605
0.605
0.56
0.595
0.58
0.545
0.565
0.565
0.575
0.56
0.58
0.575
0.56
0.575
0.6
0.61
0.605
0.535
0.58
0.625
0.63
0.59
0.595
0.57
0.59
0.585
0.57
0.545
0.565
0.55
0.6
0.6
0.57
0.58
0.575
0.585
0.595
0.57
0.55
0.55
0.555
0.565
0.565
0.53
0.545
0.565
0.56
0.565
0.53
0.535
0.545
0.54
0.56
0.53
0.49
0.49
0.535
0.51
0.53
0.535
0.535
0.575
0.545
0.515
0.52
0.53
0.5
0.52
0.535
0.5
0.535
0.545
0.515
0.545
0.545
0.535
0.55
0.525
0.515
0.53
0.54
0.525
0.52
0.54
0.55
0.525
0.535
0.535
0.56
0.55
0.55
0.535
0.54
0.56
0.56
0.56
0.53
0.54
0.52
0.535
0.56
0.495
0.565
0.525
0.525
0.54
0.535
0.54
0.53
0.55
0.52
0.54
0.555
0.505
0.535
0.53
0.54
0.535
0.54
0.555
0.56
0.565
0.575
0.52
0.515
0.52
0.55
0.545
0.51
0.545
0.57
0.555
0.57
0.535
0.53
0.53
0.55
0.55
0.55
0.555
0.52
0.565
0.605
0.525
0.575
0.54
0.515
0.505
0.535
0.56
0.535
0.535
0.54
0.525
0.545
0.555
0.52
0.52
0.555
0.53
0.5
0.555
0.56
0.54
0.525
0.555
0.54
0.53
0.53
0.53
0.53
0.55
0.555
0.58
0.6
0.585
0.55
0.57
0.635
0.62
0.61
0.625
0.635
0.63
0.61
0.615
0.625
0.645
0.63
0.565
0.495
0.53
0.565
0.605
0.575
0.545
0.51
0.495
0.505
0.55
0.545
0.57
0.605
0.555
0.46
0.495
0.5
0.53
0.55
0.575
0.525
0.53
0.505
0.54
0.535
0.54
0.525
0.49
0.51
0.55
0.5
0.46
0.475
0.445
0.315
0.34
0.335
0.34
0.44
0.565
0.67
0.785
0.88
1.01
1.065
1.045
1.085
1.16
1.23
1.29
1.295
1.36
1.315
1.15
0.825
0.445
0.33
0.31
0.305
0.33
0.37
0.445
0.43
0.455
0.52
0.52
0.54
0.535
0.48
0.485
0.57
0.52
0.5
0.5
0.535
0.51
0.52
0.525
0.51
0.535
0.52
0.53
0.535
0.48
0.49
0.51
0.535
0.525
0.53
0.545
0.53
0.535
0.53
0.56
0.545
0.485
0.5
0.525
0.54
0.555
0.555
0.53
0.54
0.545
0.53
0.52
0.53
0.555
0.545
0.56
0.565
0.54
0.555
0.565
0.525
0.505
0.505
0.515
0.55
0.57
0.595
0.57
0.555
0.56
0.545
0.56
0.56
0.565
0.6
0.585
0.555
0.545
0.515
0.585
0.57
0.55
0.58
0.595
0.6
0.59
0.6
0.595
0.595
0.56
0.55
0.535
0.56
0.605
0.6
0.58
0.6
0.585
0.595
0.57
0.58
0.59
0.595
0.56
0.595
0.61
0.59
0.595
0.58
0.57
0.58
0.56
0.575
0.565
0.575
0.57
0.57
0.545
0.545
0.52
0.5
0.525
0.515
0.555
0.525
0.54
0.545
0.56
0.515
0.475
0.51
0.54
0.505
0.485
0.48
0.51
0.52
0.525
0.475
0.47
0.475
0.465
0.475
0.49
0.5
0.495
0.45
0.44
0.485
0.48
0.44
0.475
0.49
0.475
0.485
0.475
0.465
0.47
0.44
0.44
0.45
0.475
0.49
0.45
0.47
0.47
0.47
0.495
0.475
0.455
0.5
0.495
0.465
0.45
0.465
0.5
0.5
0.465
0.455
0.47
0.465
0.475
0.47
0.47
0.495
0.51
0.495
0.49
0.46
0.475
0.46
0.465
0.47
0.465
0.47
0.475
0.51
0.505
0.51
0.46
0.455
0.445
0.42
0.475
0.46
0.45
0.515
0.465
0.44
0.48
0.465
0.455
0.465
0.445
0.5
0.455
0.45
0.46
0.425
0.48
0.495
0.435
0.45
0.47
0.47
0.46
0.455
0.445
0.465
0.45
0.435
0.445
0.425
0.45
0.475
0.48
0.49
0.48
0.435
0.43
0.465
0.435
0.435
0.46
0.465
0.435
0.42
0.445
0.45
0.465
0.47
0.395
0.4
0.47
0.48
0.475
0.46
0.475
0.5
0.51
0.49
0.435
0.485
0.55
0.545
0.52
0.535
0.51
0.55
0.565
0.525
0.495
0.47
0.47
0.47
0.465
0.46
0.45
0.46
0.45
0.44
0.45
0.47
0.485
0.465
0.445
0.42
0.405
0.41
0.44
0.465
0.44
0.44
0.435
0.455
0.44
0.38
0.395
0.45
0.49
0.48
0.455
0.405
0.4
0.39
0.355
0.265
0.22
0.195
0.18
0.265
0.375
0.49
0.58
0.67
0.765
0.865
0.93
1.01
1.115
1.195
1.255
1.3
1.335
1.38
1.355
1.245
0.975
0.52
0.305
0.295
0.305
0.355
0.38
0.415
0.48
0.445
0.455
0.46
0.445
0.44
0.405
0.385
0.365
0.4
0.45
0.47
0.47
0.395
0.39
0.42
0.43
0.4
0.43
0.47
0.42
0.425
0.41
0.41
0.43
0.46
0.425
0.45
0.46
0.43
0.46
0.445
0.445
0.42
0.43
0.455
0.445
0.455
0.46
0.43
0.435
0.415
0.465
0.46
0.4
0.46
0.44
0.45
0.46
0.465
0.475
0.46
0.46
0.47
0.485
0.43
0.435
0.46
0.46
0.47
0.475
0.48
0.47
0.5
0.455
0.39
0.415
0.465
0.475
0.51
0.485
0.46
0.445
0.435
0.45
0.45
0.445
0.5
0.53
0.485
0.485
0.48
0.46
0.47
0.465
0.5
0.505
0.45
0.485
0.505
0.475
0.46
0.46
0.49
0.49
0.46
0.48
0.49
0.51
0.48
0.48
0.48
0.48
0.46
0.485
0.515
0.465
0.51
0.485
0.505
0.465
0.48
0.46
0.44
0.455
0.475
0.44
0.44
0.51
0.465
0.465
0.435
0.41
0.44
0.47
0.425
0.41
0.43
0.445
0.455
0.445
0.425
0.405
0.405
0.455
0.415
0.435
0.44
0.415
0.41
0.405
0.42
0.435
0.405
0.395
0.385
0.425
0.45
0.445
0.42
0.405
0.385
0.38
0.435
0.385
0.41
0.41
0.385
0.445
0.445
0.4
0.41
0.43
0.43
0.42
0.47
0.39
0.38
0.42
0.45
0.4
0.395
0.38
0.365
0.375
0.345
0.4
0.41
0.43
0.45
0.415
0.375
0.35
0.415
0.41
0.395
0.36
0.375
0.41
0.425
0.425
0.405
0.345
0.405
0.38
0.34
0.385
0.435
0.42
0.385
0.395
0.39
0.43
0.455
0.375
0.38
0.385
0.445
0.415
0.35
0.385
0.38
0.365
0.395
0.385
0.355
0.375
0.4
0.42
0.395
0.345
0.37
0.395
0.39
0.39
0.38
0.39
0.395
0.39
0.385
0.39
0.375
0.375
0.37
0.385
0.43
0.355
0.345
0.4
0.45
0.43
0.38
0.335
0.345
0.37
0.395
0.35
0.385
0.41
0.38
0.415
0.405
0.385
0.425
0.455
0.435
0.395
0.46
0.445
0.475
0.475
0.45
0.45
0.44
0.44
0.44
0.45
0.415
0.42
0.4
0.405
0.39
0.38
0.36
0.425
0.35
0.355
0.4
0.42
0.385
0.36
0.375
0.325
0.36
0.415
0.375
0.38
0.405
0.4
0.345
0.375
0.35
0.36
0.385
0.355
0.33
0.375
0.37
0.365
0.315
0.15
0.09
0.105
0.13
0.21
0.265
0.405
0.515
0.56
0.675
0.76
0.855
0.935
1.04
1.17
1.235
1.23
1.265
1.29
1.275
1.165
0.965
0.53
0.235
0.205
0.275
0.305
0.32
0.355
0.34
0.345
0.37
0.37
0.355
0.37
0.32
0.36
0.38
0.375
0.34
0.36
0.35
0.325
0.37
0.33
0.315
0.345
0.345
0.34
0.38
0.345
0.37
0.375
0.35
0.345
0.375
0.365
0.37
0.365
0.35
0.36
0.345
0.375
0.34
0.37
0.415
0.42
0.355
0.37
0.385
0.39
0.35
0.385
0.375
0.385
0.425
0.345
0.335
0.375
0.375
0.365
0.365
0.395
0.395
0.345
0.37
0.355
0.36
0.445
0.39
0.4
0.36
0.335
0.395
0.375
0.375
0.39
0.4
0.4
0.36
0.36
0.38
0.39
0.39
0.395
0.4
0.4
0.395
0.4
0.37
0.37
0.4
0.41
0.37
0.385
0.39
0.385
0.4
0.37
0.4
0.385
0.375
0.355
0.375
0.37
0.38
0.395
0.395
0.365
0.41
0.38
0.395
0.41
0.375
0.35
0.38
0.4
0.38
0.355
0.42
0.39
0.35
0.365
0.39
0.37
0.36
0.365
0.39
0.37
0.375
0.355
0.365
0.37
0.39
0.4
0.355
0.31
0.365
0.355
0.355
0.365
0.32
0.365
0.36
0.345
0.35
0.375
0.35
0.355
0.33
0.33
0.33
0.34
0.315
0.315
0.37
0.38
0.355
0.315
0.345
0.31
0.345
0.385
0.375
0.365
0.35
0.355
0.33
0.32
0.315
0.365
0.34
0.37
0.335
0.34
0.36
0.355
0.325
0.355
0.335
0.34
0.32
0.33
0.34
0.32
0.335
0.345
0.35
0.335
0.34
0.32
0.33
0.38
0.34
0.325
0.325
0.34
0.38
0.345
0.35
0.335
0.355
0.335
0.34
0.34
0.275
0.295
0.275
0.36
0.36
0.34
0.355
0.33
0.34
0.375
0.35
0.3
0.31
0.32
0.345
0.36
0.38
0.385
0.335
0.315
0.325
0.345
0.35
0.325
0.315
0.34
0.33
0.315
0.305
0.31
0.325
0.34
0.345
0.31
0.325
0.35
0.355
0.36
0.29
0.315
0.315
0.34
0.36
0.35
0.305
0.335
0.33
0.3
0.315
0.335
0.315
0.32
0.32
0.335
0.33
0.33
0.365
0.37
0.33
0.345
0.345
0.315
0.315
0.315
0.3
0.335
0.365
0.335
0.345
0.325
0.36
0.395
0.365
0.39
0.385
0.37
0.405
0.44
0.445
0.385
0.405
0.41
0.38
0.4
0.435
0.405
0.34
0.315
0.34
0.35
0.355
0.395
0.335
0.32
0.3
0.325
0.325
0.29
0.32
0.315
0.29
0.35
0.335
0.32
0.305
0.32
0.315
0.32
0.29
0.3
0.3
0.33
0.35
0.34
0.345
0.305
0.33
0.275
0.215
0.21
0.125
0.095
0.105
0.145
0.27
0.335
0.49
0.56
0.685
0.715
0.82
0.98
1.025
1.09
1.14
1.225
1.25
1.25
1.28
1.135
0.84
0.42
0.2
0.22
0.24
0.24
0.245
0.325
0.29
0.33
0.33
0.32
0.3
0.33
0.325
0.315
0.315
0.305
0.315
0.28
0.315
0.33
0.29
0.295
0.33
0.305
0.29
0.34
0.33
0.315
0.315
0.325
0.335
0.27
0.3
0.315
0.335
0.345
0.33
0.375
0.315
0.3
0.3
0.36
0.305
0.3
0.335
0.365
0.36
0.325
0.33
0.335
0.34
0.34
0.33
0.315
0.335
0.31
0.315
0.355
0.365
0.35
0.36
0.355
0.35
0.33
0.345
0.37
0.39
0.3
0.33
0.365
0.345
0.33
0.34
0.35
0.325
0.36
0.395
0.37
0.385
0.3
0.325
0.32
0.35
0.36
0.38
0.325
0.34
0.335
0.33
0.365
0.365
0.34
0.335
0.325
0.285
0.34
0.36
0.35
0.325
0.335
0.345
0.32
0.335
0.365
0.32
0.33
0.325
0.345
0.36
0.355
0.355
0.34
0.335
0.34
0.35
0.35
0.31
0.35
0.375
0.38
0.335
0.33
0.35
0.34
0.35
0.35
0.37
0.38
0.36
0.37
0.305
0.29
0.305
0.345
0.35
0.33
0.34
0.335
0.315
0.36
0.29
0.275
0.32
0.325
0.355
0.315
0.285
0.33
0.315
0.34
0.34
0.32
0.3
0.31
0.295
0.32
0.34
0.35
0.34
0.34
0.35
0.32
0.31
0.295
0.335
0.36
0.33
0.33
0.35
0.365
0.34
0.26
0.32
0.32
0.32
0.325
0.36
0.35
0.315
0.35
0.345
0.31
0.29
0.32
0.285
0.315
0.32
0.35
0.345
0.335
0.3
0.265
0.32
0.33
0.31
0.36
0.335
0.27
0.3
0.32
0.325
0.315
0.32
0.3
0.305
0.33
0.34
0.31
0.33
0.345
0.345
0.305
0.315
0.33
0.305
0.315
0.33
0.305
0.275
0.29
0.3
0.32
0.34
0.325
0.31
0.315
0.35
0.345
0.33
0.32
0.33
0.335
0.315
0.32
0.315
0.29
0.31
0.325
0.315
0.315
0.335
0.355
0.29
0.285
0.295
0.315
0.36
0.325
0.34
0.31
0.295
0.3
0.325
0.35
0.3
0.32
0.325
0.33
0.32
0.37
0.325
0.33
0.35
0.355
0.365
0.35
0.365
0.415
0.43
0.42
0.415
0.41
0.435
0.45
0.38
0.41
0.355
0.385
0.39
0.4
0.355
0.35
0.365
0.325
0.345
0.355
0.305
0.295
0.335
0.325
0.3
0.31
0.35
0.345
0.33
0.37
0.32
0.31
0.32
0.38
0.345
0.305
0.34
0.33
0.315
0.32
0.355
0.385
0.33
0.295
0.26
0.26
0.18
0.105
0.14
0.17
0.185
0.275
0.425
0.505
0.63
0.725
0.835
0.855
0.925
1.045
1.08
1.105
1.175
1.215
1.22
1.13
0.95
0.51
0.165
0.165
0.17
0.155
0.18
0.205
0.23
0.245
0.295
0.335
0.345
0.365
0.39
0.36
0.33
0.33
0.3
0.325
0.345
0.345
0.345
0.345
0.355
0.36
0.34
0.295
0.32
0.32
0.335
0.345
0.35
0.37
0.38
0.405
0.405
0.375
0.35
0.37
0.36
0.385
0.415
0.39
0.345
0.36
0.365
0.37
0.375
0.34
0.4
0.41
0.42
0.4
0.4
0.405
0.32
0.345
0.415
0.41
0.405
0.335
0.38
0.415
0.405
0.42
0.405
0.38
0.415
0.43
0.39
0.43
0.43
0.415
0.43
0.43
0.43
0.43
0.435
0.405
0.405
0.43
0.445
0.44
0.49
0.44
0.43
0.45
0.435
0.41
0.415
0.435
0.465
0.44
0.455
0.46
0.46
0.405
0.41
0.455
0.455
0.43
0.455
0.455
0.445
0.47
0.435
0.44
0.385
0.42
0.455
0.435
0.415
0.44
0.43
0.45
0.44
0.42
0.405
0.425
0.42
0.415
0.41
0.395
0.415
0.425
0.4
0.405
0.375
0.34
0.375
0.41
0.43
0.41
0.35
0.42
0.37
0.345
0.36
0.41
0.355
0.34
0.37
0.365
0.37
0.375
0.375
0.35
0.365
0.38
0.38
0.39
0.365
0.37
0.35
0.36
0.35
0.345
0.365
0.31
0.33
0.345
0.39
0.375
0.365
0.4
0.345
0.37
0.335
0.35
0.37
0.37
0.36
0.38
0.37
0.37
0.365
0.35
0.36
0.415
0.435
0.365
0.34
0.335
0.365
0.385
0.425
0.33
0.355
0.36
0.37
0.355
0.37
0.375
0.385
0.365
0.365
0.335
0.385
0.37
0.37
0.35
0.395
0.365
0.32
0.335
0.36
0.34
0.325
0.375
0.38
0.42
0.39
0.345
0.35
0.355
0.35
0.37
0.36
0.35
0.35
0.37
0.355
0.35
0.35
0.375
0.36
0.37
0.34
0.335
0.34
0.335
0.365
0.365
0.325
0.315
0.325
0.355
0.37
0.37
0.33
0.41
0.42
0.395
0.38
0.405
0.405
0.43
0.415
0.405
0.43
0.48
0.44
0.41
0.44
0.425
0.405
0.37
0.385
0.4
0.385
0.36
0.385
0.365
0.335
0.34
0.335
0.31
0.385
0.385
0.355
0.325
0.38
0.395
0.34
0.35
0.35
0.36
0.355
0.27
0.32
0.355
0.365
0.36
0.345
0.335
0.345
0.325
0.335
0.32
0.255
0.215
0.155
0.135
0.175
0.23
0.325
0.425
0.5
0.635
0.72
0.855
0.92
0.89
0.955
1.06
1.08
1.11
1.16
1.215
1.135
0.95
0.55
0.205
0.195
0.155
0.16
0.155
0.21
0.225
0.295
0.325
0.335
0.355
0.35
0.3
0.32
0.34
0.36
0.32
0.36
0.345
0.33
0.325
0.355
0.36
0.33
0.315
0.34
0.35
0.37
0.385
0.365
0.365
0.365
0.345
0.39
0.355
0.355
0.375
0.39
0.38
0.39
0.395
0.375
0.365
0.39
0.385
0.375
0.355
0.38
0.39
0.36
0.375
0.445
0.4
0.385
0.385
0.365
0.405
0.43
0.41
0.405
0.36
0.39
0.4
0.435
0.42
0.34
0.385
0.42
0.42
0.39
0.4
0.43
0.435
0.405
0.395
0.43
0.445
0.445
0.44
0.445
0.43
0.42
0.44
0.44
0.44
0.425
0.435
0.44
0.435
0.47
0.445
0.45
0.44
0.445
0.395
0.44
0.455
0.455
0.47
0.43
0.43
0.46
0.405
0.42
0.455
0.43
0.405
0.41
0.445
0.46
0.45
0.405
0.425
0.385
0.45
0.43
0.41
0.415
0.41
0.42
0.39
0.375
0.375
0.42
0.425
0.375
0.385
0.36
0.395
0.4
0.34
0.365
0.36
0.33
0.36
0.33
0.31
0.37
0.37
0.37
0.345
0.355
0.35
0.35
0.27
0.295
0.345
0.37
0.355
0.345
0.355
0.34
0.285
0.245
0.345
0.395
0.37
0.35
0.35
0.355
0.34
0.32
0.35
0.345
0.335
0.35
0.395
0.39
0.34
0.325
0.32
0.34
0.35
0.38
0.345
0.315
0.36
0.35
0.32
0.36
0.365
0.34
0.32
0.345
0.35
0.355
0.385
0.365
0.355
0.335
0.26
0.365
0.36
0.335
0.355
0.36
0.38
0.39
0.34
0.315
0.34
0.34
0.34
0.295
0.37
0.365
0.37
0.34
0.38
0.375
0.31
0.375
0.355
0.335
0.33
0.345
0.365
0.34
0.365
0.35
0.355
0.33
0.335
0.32
0.365
0.34
0.315
0.345
0.345
0.345
0.34
0.3
0.3
0.315
0.36
0.325
0.325
0.355
0.39
0.39
0.405
0.425
0.36
0.33
0.395
0.455
0.42
0.44
0.44
0.42
0.415
0.425
0.405
0.42
0.31
0.35
0.335
0.335
0.375
0.36
0.36
0.34
0.34
0.335
0.315
0.315
0.305
0.34
0.335
0.33
0.35
0.33
0.295
0.315
0.345
0.345
0.35
0.33
0.325
0.34
0.335
0.3
0.315
0.3
0.29
0.285
0.245
0.195
0.135
0.06
0.115
0.2
0.265
0.34
0.46
0.56
0.665
0.745
0.835
0.875
0.995
1.1
1.115
1.18
1.21
1.22
1.195
1.05
0.735
0.4
0.19
0.19
0.22
0.23
0.235
0.3
0.36
0.36
0.33
0.33
0.33
0.345
0.335
0.31
0.335
0.305
0.29
0.3
0.3
0.295
0.31
0.31
0.345
0.315
0.285
0.305
0.295
0.32
0.36
0.335
0.325
0.275
0.28
0.325
0.305
0.32
0.315
0.33
0.315
0.31
0.32
0.35
0.325
0.34
0.37
0.37
0.35
0.365
0.335
0.325
0.34
0.35
0.35
0.335
0.35
0.345
0.32
0.305
0.375
0.365
0.365
0.345
0.36
0.355
0.325
0.305
0.33
0.355
0.35
0.325
0.345
0.37
0.36
0.35
0.35
0.37
0.37
0.4
0.345
0.32
0.36
0.345
0.34
0.36
0.375
0.375
0.35
0.35
0.38
0.36
0.335
0.385
0.355
0.37
0.37
0.375
0.37
0.345
0.33
0.4
0.35
0.345
0.335
0.34
0.36
0.375
0.38
0.385
0.38
0.395
0.335
0.33
0.35
0.335
0.345
0.325
0.365
0.375
0.35
0.355
0.35
0.305
0.325
0.36
0.345
0.32
0.395
0.35
0.335
0.345
0.285
0.315
0.315
0.34
0.33
0.32
0.335
0.34
0.335
0.315
0.3
0.31
0.27
0.29
0.36
0.29
0.285
0.295
0.315
0.31
0.305
0.285
0.265
0.355
0.34
0.305
0.335
0.29
0.27
0.26
0.29
0.285
0.32
0.335
0.315
0.295
0.28
0.28
0.3
0.315
0.32
0.255
0.26
0.335
0.325
0.33
0.32
0.325
0.3
0.29
0.32
0.325
0.32
0.28
0.295
0.285
0.295
0.315
0.325
0.33
0.27
0.24
0.295
0.36
0.335
0.285
0.29
0.32
0.31
0.28
0.27
0.305
0.285
0.3
0.345
0.34
0.36
0.33
0.25
0.295
0.275
0.3
0.325
0.29
0.295
0.3
0.29
0.32
0.335
0.27
0.315
0.31
0.325
0.31
0.3
0.305
0.315
0.29
0.3
0.315
0.285
0.295
0.31
0.31
0.305
0.305
0.345
0.32
0.28
0.34
0.36
0.335
0.36
0.4
0.355
0.38
0.375
0.375
0.405
0.385
0.35
0.39
0.38
0.35
0.37
0.34
0.315
0.305
0.325
0.32
0.3
0.265
0.32
0.295
0.31
0.34
0.3
0.295
0.325
0.285
0.285
0.33
0.29
0.285
0.27
0.27
0.3
0.305
0.315
0.32
0.33
0.29
0.29
0.3
0.295
0.265
0.235
0.17
0.11
0.02
0.05
0.09
0.235
0.305
0.41
0.49
0.62
0.715
0.8
0.875
0.94
1.05
1.115
1.12
1.2
1.2
1.185
1.115
0.885
0.425
0.12
0.135
0.24
0.18
0.19
0.275
0.3
0.3
0.28
0.245
0.33
0.33
0.305
0.295
0.285
0.28
0.285
0.28
0.265
0.275
0.245
0.305
0.285
0.3
0.3
0.275
0.285
0.285
0.29
0.29
0.24
0.23
0.26
0.325
0.31
0.28
0.285
0.325
0.315
0.28
0.3
0.305
0.3
0.315
0.325
0.3
0.26
0.29
0.295
0.32
0.29
0.295
0.29
0.285
0.29
0.295
0.32
0.34
0.325
0.33
0.32
0.325
0.345
0.305
0.305
0.335
0.295
0.315
0.35
0.34
0.305
0.355
0.31
0.31
0.32
0.31
0.335
0.35
0.31
0.365
0.285
0.29
0.34
0.355
0.315
0.315
0.32
0.325
0.335
0.34
0.34
0.33
0.355
0.32
0.35
0.385
0.31
0.32
0.345
0.355
0.34
0.32
0.355
0.355
0.38
0.345
0.27
0.34
0.335
0.335
0.37
0.315
0.33
0.325
0.39
0.375
0.385
0.3
0.305
0.315
0.31
0.345
0.345
0.34
0.345
0.305
0.315
0.335
0.31
0.315
0.315
0.3
0.335
0.325
0.31
0.305
0.275
0.305
0.29
0.28
0.31
0.315
0.295
0.26
0.28
0.31
0.315
0.265
0.25
0.245
0.255
0.33
0.32
0.285
0.315
0.3
0.295
0.285
0.29
0.29
0.26
0.285
0.31
0.315
0.26
0.295
0.31
0.305
0.27
0.305
0.29
0.29
0.285
0.315
0.305
0.27
0.26
0.275
0.285
0.305
0.3
0.3
0.315
0.295
0.275
0.32
0.315
0.335
0.26
0.285
0.29
0.3
0.255
0.285
0.345
0.29
0.275
0.295
0.31
0.3
0.3
0.28
0.265
0.25
0.28
0.305
0.285
0.305
0.29
0.295
0.315
0.32
0.29
0.275
0.3
0.285
0.3
0.32
0.29
0.265
0.3
0.305
0.275
0.3
0.28
0.3
0.285
0.28
0.33
0.3
0.33
0.275
0.255
0.275
0.31
0.325
0.325
0.335
0.3
0.32
0.37
0.37
0.405
0.43
0.405
0.365
0.36
0.365
0.34
0.35
0.34
0.315
0.32
0.31
0.3
0.285
0.335
0.305
0.29
0.275
0.295
0.33
0.3
0.265
0.28
0.28
0.28
0.265
0.265
0.265
0.29
0.33
0.285
0.325
0.315
0.305
0.28
0.265
0.265
0.29
0.28
0.29
0.24
0.205
0.125
0.1
0.08
0.05
0.115
0.22
0.325
0.42
0.525
0.62
0.7
0.825
0.845
0.92
1.01
1.11
1.155
1.18
1.155
1.15
1.07
0.84
0.355
0.09
0.175
0.215
0.155
0.21
0.29
0.28
0.285
0.315
0.28
0.3
0.265
0.295
0.26
0.27
0.335
0.315
0.275
0.245
0.295
0.275
0.235
0.27
0.305
0.33
0.295
0.3
0.27
0.275
0.315
0.265
0.29
0.285
0.28
0.315
0.34
0.305
0.33
0.295
0.29
0.25
0.28
0.3
0.325
0.335
0.31
0.285
0.29
0.28
0.285
0.31
0.315
0.31
0.35
0.33
0.31
0.285
0.255
0.315
0.32
0.375
0.315
0.32
0.325
0.32
0.325
0.33
0.345
0.35
0.375
0.395
0.3
0.31
0.32
0.31
0.315
0.39
0.365
0.33
0.255
0.3
0.34
0.355
0.33
0.325
0.35
0.35
0.35
0.33
0.33
0.315
0.3
0.34
0.35
0.37
0.345
0.335
0.325
0.345
0.345
0.305
0.305
0.31
0.335
0.345
0.33
0.37
0.36
0.385
0.345
0.32
0.355
0.36
0.355
0.33
0.32
0.32
0.34
0.365
0.35
0.295
0.31
0.35
0.33
0.32
0.305
0.3
0.285
0.27
0.305
0.31
0.295
0.315
0.33
0.29
0.3
0.295
0.27
0.35
0.33
0.295
0.27
0.245
0.26
0.295
0.27
0.265
0.28
0.29
0.32
0.28
0.295
0.285
0.285
0.295
0.31
0.29
0.265
0.28
0.305
0.31
0.235
0.31
0.295
0.27
0.265
0.28
0.27
0.29
0.3
0.3
0.305
0.345
0.315
0.325
0.25
0.29
0.26
0.245
0.29
0.305
0.285
0.285
0.31
0.315
0.3
0.3
0.3
0.29
0.28
0.22
0.265
0.315
0.315
0.315
0.29
0.295
0.285
0.28
0.265
0.265
0.305
0.3
0.285
0.32
0.295
0.305
0.3
0.275
0.3
0.32
0.245
0.26
0.325
0.305
0.29
0.29
0.3
0.26
0.245
0.25
0.305
0.31
0.3
0.315
0.305
0.26
0.27
0.3
0.335
0.32
0.27
0.29
0.315
0.325
0.33
0.345
0.375
0.355
0.355
0.355
0.395
0.415
0.415
0.37
0.295
0.365
0.35
0.29
0.285
0.3
0.36
0.365
0.325
0.29
0.275
0.28
0.255
0.295
0.29
0.28
0.295
0.315
0.27
0.285
0.31
0.305
0.245
0.27
0.27
0.29
0.27
0.29
0.3
0.325
0.32
0.295
0.29
0.25
0.22
0.165
0.155
0.09
0.04
0.105
0.21
0.225
0.285
0.435
0.52
0.625
0.755
0.855
0.885
0.95
1.04
1.11
1.13
1.135
1.135
1.115
1.0
0.725
0.27
0.12
0.14
0.19
0.19
0.255
0.205
0.24
0.27
0.335
0.355
0.32
0.28
0.28
0.3
0.31
0.33
0.315
0.275
0.275
0.285
0.3
0.3
0.245
0.275
0.305
0.27
0.275
0.315
0.32
0.285
0.29
0.27
0.315
0.28
0.23
0.295
0.315
0.32
0.33
0.32
0.295
0.255
0.33
0.285
0.3
0.295
0.33
0.325
0.315
0.36
0.395
0.29
0.285
0.295
0.305
0.33
0.33
0.28
0.315
0.355
0.35
0.3
0.31
0.315
0.32
0.37
0.395
0.315
0.33
0.375
0.39
0.325
0.235
0.275
0.32
0.34
0.35
0.355
0.365
0.36
0.35
0.355
0.355
0.32
0.32
0.325
0.35
0.355
0.34
0.375
0.35
0.31
0.325
0.36
0.335
0.35
0.44
0.32
0.31
0.31
0.35
0.34
0.32
0.34
0.38
0.365
0.375
0.355
0.375
0.365
0.365
0.37
0.38
0.345
0.345
0.335
0.345
0.345
0.335
0.325
0.335
0.315
0.315
0.35
0.335
0.27
0.33
0.355
0.285
0.325
0.33
0.31
0.315
0.32
0.315
0.325
0.29
0.305
0.355
0.335
0.29
0.295
0.29
0.31
0.32
0.28
0.295
0.285
0.28
0.27
0.3
0.275
0.255
0.285
0.3
0.34
0.32
0.33
0.355
0.31
0.28
0.245
0.275
0.335
0.3
0.32
0.325
0.295
0.325
0.325
0.33
0.32
0.305
0.3
0.265
0.29
0.34
0.335
0.335
0.375
0.32
0.26
0.29
0.305
0.33
0.365
0.325
0.3
0.36
0.29
0.29
0.29
0.255
0.29
0.29
0.305
0.33
0.33
0.31
0.33
0.315
0.305
0.315
0.33
0.325
0.275
0.255
0.32
0.32
0.31
0.33
0.31
0.29
0.305
0.325
0.33
0.325
0.325
0.35
0.35
0.33
0.3
0.305
0.33
0.315
0.355
0.355
0.34
0.345
0.36
0.395
0.4
0.34
0.37
0.38
0.445
0.4
0.39
0.39
0.405
0.4
0.395
0.34
0.33
0.295
0.325
0.345
0.345
0.33
0.29
0.305
0.325
0.32
0.295
0.32
0.32
0.285
0.33
0.31
0.335
0.315
0.33
0.325
0.33
0.315
0.325
0.285
0.325
0.315
0.325
0.32
0.305
0.3
0.31
0.26
0.23
0.215
0.135
0.145
0.13
0.19
0.295
0.385
0.5
0.585
0.715
0.84
0.865
0.865
0.98
1.05
1.04
1.165
1.185
1.205
1.135
0.945
0.485
0.11
0.13
0.155
0.135
0.135
0.15
0.17
0.255
0.33
0.295
0.32
0.29
0.34
0.34
0.36
0.275
0.315
0.34
0.315
0.32
0.33
0.3
0.335
0.32
0.285
0.285
0.32
0.35
0.345
0.335
0.355
0.365
0.335
0.32
0.335
0.35
0.35
0.365
0.37
0.34
0.36
0.32
0.325
0.35
0.35
0.315
0.33
0.37
0.395
0.36
0.395
0.375
0.37
0.32
0.325
0.405
0.405
0.42
0.36
0.345
0.38
0.36
0.36
0.395
0.385
0.385
0.395
0.4
0.385
0.415
0.405
0.395
0.39
0.375
0.42
0.44
0.405
0.41
0.44
0.415
0.385
0.435
0.43
0.4
0.405
0.44
0.455
0.43
0.475
0.465
0.4
0.405
0.42
0.425
0.405
0.415
0.425
0.44
0.445
0.435
0.415
0.435
0.41
0.41
0.435
0.44
0.425
0.42
0.46
0.465
0.435
0.38
0.405
0.425
0.42
0.425
0.395
0.405
0.415
0.39
0.37
0.395
0.37
0.345
0.29
0.35
0.36
0.375
0.37
0.33
0.335
0.345
0.375
0.355
0.345
0.38
0.35
0.31
0.35
0.305
0.33
0.3
0.335
0.34
0.355
0.34
0.315
0.335
0.34
0.36
0.325
0.315
0.335
0.29
0.32
0.33
0.33
0.34
0.345
0.36
0.34
0.32
0.33
0.37
0.305
0.285
0.295
0.31
0.345
0.375
0.375
0.325
0.325
0.31
0.325
0.335
0.35
0.275
0.33
0.35
0.325
0.375
0.365
0.315
0.31
0.325
0.275
0.335
0.395
0.39
0.36
0.305
0.32
0.35
0.355
0.31
0.325
0.345
0.345
0.34
0.32
0.335
0.355
0.345
0.335
0.305
0.39
0.335
0.37
0.36
0.32
0.335
0.335
0.285
0.27
0.33
0.355
0.325
0.34
0.35
0.345
0.305
0.34
0.32
0.3
0.37
0.405
0.395
0.35
0.38
0.41
0.385
0.395
0.375
0.415
0.43
0.38
0.36
0.405
0.425
0.41
0.365
0.33
0.345
0.335
0.34
0.345
0.355
0.355
0.34
0.34
0.355
0.33
0.315
0.345
0.33
0.31
0.3
0.33
0.315
0.315
0.32
0.32
0.325
0.3
0.325
0.32
0.385
0.29
0.28
0.275
0.34
0.32
0.305
0.285
0.245
0.175
0.125
0.115
0.1
0.155
0.28
0.4
0.47
0.585
0.725
0.845
0.855
0.87
0.96
1.03
1.11
1.215
1.225
1.18
1.13
0.96
0.48
0.165
0.145
0.17
0.12
0.17
0.205
0.23
0.29
0.37
0.355
0.325
0.345
0.325
0.31
0.31
0.32
0.27
0.23
0.32
0.35
0.325
0.275
0.305
0.305
0.35
0.315
0.275
0.265
0.33
0.32
0.33
0.345
0.29
0.33
0.33
0.315
0.335
0.35
0.365
0.36
0.35
0.31
0.305
0.33
0.31
0.33
0.385
0.36
0.34
0.38
0.4
0.33
0.32
0.33
0.345
0.355
0.365
0.34
0.355
0.38
0.365
0.34
0.355
0.395
0.325
0.31
0.36
0.325
0.365
0.395
0.375
0.38
0.39
0.345
0.35
0.32
0.31
0.39
0.415
0.415
0.4
0.355
0.345
0.375
0.44
0.42
0.36
0.385
0.385
0.405
0.39
0.36
0.345
0.355
0.39
0.375
0.41
0.415
0.42
0.42
0.385
0.375
0.375
0.395
0.415
0.375
0.355
0.4
0.405
0.39
0.405
0.385
0.365
0.37
0.395
0.35
0.37
0.38
0.365
0.355
0.32
0.33
0.35
0.355
0.345
0.36
0.36
0.35
0.385
0.335
0.305
0.305
0.315
0.345
0.325
0.325
0.305
0.28
0.29
0.315
0.335
0.31
0.3
0.305
0.285
0.315
0.28
0.3
0.325
0.305
0.335
0.325
0.26
0.3
0.27
0.29
0.31
0.345
0.335
0.325
0.315
0.275
0.32
0.285
0.32
0.29
0.315
0.335
0.325
0.325
0.335
0.31
0.315
0.285
0.28
0.305
0.28
0.295
0.33
0.325
0.325
0.335
0.29
0.305
0.315
0.31
0.325
0.295
0.26
0.29
0.345
0.335
0.32
0.33
0.285
0.305
0.345
0.32
0.28
0.29
0.33
0.33
0.33
0.28
0.225
0.315
0.33
0.32
0.34
0.335
0.305
0.28
0.285
0.3
0.305
0.31
0.315
0.3
0.31
0.31
0.335
0.3
0.29
0.27
0.34
0.33
0.285
0.3
0.33
0.33
0.275
0.255
0.295
0.27
0.285
0.31
0.33
0.325
0.325
0.32
0.305
0.285
0.305
0.29
0.285
0.29
0.29
0.315
0.33
0.34
0.31
0.33
0.325
0.325
0.325
0.335
0.355
0.385
0.425
0.42
0.34
0.38
0.385
0.34
0.35
0.345
0.365
0.355
0.325
0.32
0.315
0.29
0.31
0.315
0.285
0.35
0.305
0.26
0.265
0.245
0.27
0.3
0.315
0.32
0.285
0.315
0.29
0.305
0.28
0.26
0.245
0.28
0.3
0.325
0.275
0.26
0.28
0.3
0.275
0.215
0.16
0.065
0.015
0.08
0.1
0.21
0.26
0.33
0.46
0.59
0.68
0.77
0.83
0.96
1.05
1.08
1.155
1.235
1.22
1.21
1.14
0.945
0.485
0.185
0.135
0.21
0.185
0.2
0.255
0.28
0.265
0.285
0.27
0.285
0.285
0.305
0.305
0.265
0.29
0.29
0.28
0.3
0.28
0.265
0.29
0.27
0.25
0.315
0.32
0.275
0.27
0.25
0.25
0.26
0.285
0.305
0.305
0.305
0.335
0.285
0.285
0.3
0.3
0.315
0.28
0.3
0.295
0.3
0.33
0.315
0.32
0.265
0.265
0.275
0.31
0.325
0.305
0.295
0.32
0.315
0.31
0.335
0.32
0.345
0.27
0.285
0.325
0.305
0.325
0.33
0.33
0.335
0.305
0.315
0.325
0.31
0.345
0.315
0.32
0.365
0.355
0.335
0.275
0.265
0.305
0.325
0.325
0.32
0.33
0.3
0.315
0.345
0.36
0.305
0.28
0.305
0.315
0.32
0.355
0.315
0.32
0.32
0.345
0.33
0.3
0.34
0.365
0.315
0.305
0.32
0.335
0.31
0.3
0.36
0.395
0.345
0.33
0.33
0.355
0.325
0.305
0.325
0.315
0.34
0.335
0.345
0.315
0.285
0.3
0.315
0.29
0.275
0.27
0.295
0.34
0.345
0.31
0.285
0.265
0.245
0.275
0.295
0.26
0.275
0.285
0.295
0.32
0.25
0.23
0.295
0.27
0.26
0.275
0.25
0.27
0.3
0.295
0.285
0.265
0.255
0.295
0.29
0.305
0.29
0.27
0.28
0.29
0.275
0.29
0.28
0.29
0.27
0.24
0.28
0.275
0.3
0.29
0.28
0.28
0.285
0.28
0.29
0.31
0.235
0.28
0.325
0.235
0.26
0.27
0.28
0.28
0.31
0.28
0.255
0.285
0.255
0.255
0.265
0.285
0.275
0.31
0.26
0.3
0.265
0.29
0.28
0.295
0.28
0.265
0.275
0.285
0.26
0.29
0.255
0.29
0.335
0.305
0.25
0.245
0.27
0.245
0.265
0.29
0.3
0.3
0.28
0.305
0.27
0.245
0.26
0.265
0.265
0.29
0.27
0.23
0.285
0.29
0.25
0.275
0.305
0.28
0.26
0.235
0.22
0.3
0.35
0.315
0.28
0.245
0.265
0.265
0.27
0.245
0.26
0.285
0.275
0.245
0.295
0.31
0.265
0.265
0.285
0.27
0.28
0.31
0.31
0.28
0.285
0.295
0.28
0.265
0.245
0.28
0.265
0.285
0.26
0.24
0.265
0.285
0.28
0.28
0.29
0.305
0.32
0.36
0.36
0.285
0.305
0.35
0.36
0.355
0.36
0.37
0.37
0.36
0.31
0.41
0.385
0.31
0.27
0.255
0.275
0.29
0.295
0.27
0.265
0.26
0.275
0.25
0.28
0.285
0.275
0.31
0.305
0.285
0.27
0.28
0.265
0.29
0.245
0.295
0.275
0.26
0.26
0.305
0.33
0.305
0.27
0.195
0.235
0.195
0.145
0.04
0.045
0.045
0.11
0.205
0.325
0.435
0.505
0.615
0.765
0.79
0.885
0.945
1.07
1.14
1.165
1.195
1.23
1.19
1.12
0.86
0.435
0.155
0.135
0.155
0.185
0.22
0.26
0.305
0.31
0.275
0.265
0.32
0.275
0.27
0.345
0.3
0.25
0.28
0.255
0.27
0.275
0.27
0.285
0.29
0.27
0.295
0.275
0.255
0.27
0.3
0.29
0.31
0.285
0.275
0.275
0.275
0.295
0.315
0.33
0.3
0.31
0.285
0.29
0.325
0.345
0.315
0.285
0.29
0.29
0.295
0.32
0.34
0.335
0.305
0.285
0.34
0.335
0.285
0.295
0.335
0.32
0.36
0.37
0.28
0.28
0.315
0.34
0.32
0.325
0.37
0.375
0.335
0.295
0.335
0.335
0.335
0.335
0.33
0.345
0.34
0.37
0.37
0.36
0.355
0.35
0.345
0.35
0.335
0.355
0.37
0.38
0.405
0.36
0.33
0.315
0.31
0.385
0.35
0.32
0.335
0.35
0.34
0.345
0.375
0.385
0.365
0.385
0.385
0.385
0.37
0.345
0.385
0.375
0.36
0.355
0.335
0.345
0.36
0.355
0.37
0.385
0.345
0.33
0.3
0.335
0.375
0.365
0.35
0.365
0.395
0.38
0.33
0.35
0.355
0.315
0.285
0.32
0.335
0.345
0.31
0.295
0.295
0.285
0.315
0.365
0.34
0.325
0.34
0.34
0.34
0.335
0.32
0.305
0.31
0.33
0.33
0.325
0.335
0.325
0.3
0.31
0.385
0.35
0.305
0.335
0.315
0.31
0.325
0.33
0.315
0.335
0.335
0.33
0.3
0.325
0.325
0.305
0.295
0.36
0.33
0.345
0.33
0.355
0.35
0.31
0.3
0.33
0.31
0.33
0.36
0.315
0.32
0.305
0.32
0.305
0.29
0.3
0.31
0.34
0.295
0.305
0.34
0.335
0.33
0.32
0.31
0.33
0.335
0.33
0.31
0.325
0.325
0.31
0.3
0.295
0.34
0.35
0.335
0.335
0.355
0.355
0.29
0.255
0.26
0.305
0.3
0.34
0.345
0.355
0.34
0.32
0.305
0.285
0.295
0.32
0.365
0.31
0.335
0.34
0.355
0.3
0.29
0.315
0.255
0.29
0.34
0.315
0.3
0.335
0.34
0.305
0.285
0.315
0.345
0.315
0.305
0.29
0.3
0.33
0.325
0.32
0.295
0.29
0.3
0.31
0.335
0.335
0.29
0.31
0.31
0.33
0.36
0.34
0.29
0.29
0.285
0.285
0.31
0.325
0.335
0.365
0.375
0.36
0.325
0.36
0.37
0.38
0.435
0.41
0.39
0.39
0.395
0.415
0.37
0.34
0.32
0.395
0.36
0.34
0.335
0.32
0.325
0.31
0.31
0.3
0.3
0.305
0.305
0.3
0.345
0.32
0.295
0.33
0.345
0.34
0.325
0.315
0.31
0.3
0.28
0.265
0.32
0.285
0.3
0.345
0.27
0.27
0.285
0.19
0.11
0.065
0.035
0.12
0.195
0.27
0.325
0.45
0.6
0.75
0.815
0.8
0.795
0.9
1.04
1.085
1.155
1.105
1.11
1.015
0.825
0.48
0.135
0.085
0.135
0.14
0.15
0.2
0.215
0.205
0.265
0.33
0.305
0.28
0.285
0.31
0.315
0.315
0.305
0.315
0.315
0.295
0.28
0.32
0.315
0.29
0.3
0.295
0.29
0.34
0.34
0.315
0.295
0.27
0.3
0.32
0.335
0.34
0.32
0.295
0.32
0.305
0.3
0.31
0.35
0.335
0.34
0.295
0.31
0.32
0.36
0.35
0.335
0.31
0.345
0.34
0.325
0.33
0.325
0.335
0.34
0.38
0.35
0.325
0.34
0.345
0.34
0.335
0.355
0.37
0.375
0.335
0.355
0.365
0.36
0.375
0.38
0.37
0.34
0.365
0.355
0.345
0.36
0.375
0.385
0.395
0.36
0.375
0.385
0.355
0.395
0.37
0.39
0.39
0.38
0.38
0.375
0.37
0.405
0.42
0.37
0.37
0.375
0.38
0.38
0.385
0.36
0.35
0.385
0.39
0.39
0.415
0.385
0.355
0.385
0.38
0.37
0.38
0.385
0.37
0.34
0.37
0.395
0.37
0.315
0.315
0.325
0.345
0.365
0.31
0.32
0.31
0.33
0.29
0.275
0.29
0.29
0.265
0.325
0.345
0.35
0.285
0.295
0.26
0.29
0.265
0.275
0.3
0.295
0.285
0.255
0.245
0.28
0.28
0.26
0.295
0.315
0.34
0.25
0.235
0.295
0.345
0.27
0.285
0.285
0.275
0.27
0.295
0.28
0.27
0.255
0.28
