# TIPE ECG 2021 - ECG-ID Database v1.0.0 par Physionet
# [Numéro de la personne, Période d'échantillonnage, Prénom, Age, Sexe, Date de l'enregistrement]
[21, 0.002, Nellie, 21, F, 26.04.2005]
-0.525
-0.46
-0.56
-0.565
-0.71
-0.72
-0.715
-0.81
-0.7
-0.6
-0.54
-0.49
-0.53
-0.595
-0.65
-0.715
-0.765
-0.745
-0.655
-0.55
-0.565
-0.465
-0.465
-0.52
-0.625
-0.74
-0.775
-0.655
-0.645
-0.555
-0.53
-0.375
-0.42
-0.51
-0.705
-0.7
-0.735
-0.66
-0.64
-0.595
-0.52
-0.375
-0.4
-0.535
-0.6
-0.73
-0.775
-0.725
-0.61
-0.515
-0.505
-0.43
-0.485
-0.55
-0.625
-0.74
-0.74
-0.74
-0.62
-0.5
-0.53
-0.415
-0.385
-0.51
-0.6
-0.675
-0.755
-0.69
-0.635
-0.53
-0.49
-0.39
-0.445
-0.585
-0.695
-0.66
-0.745
-0.705
-0.61
-0.51
-0.52
-0.425
-0.48
-0.555
-0.59
-0.63
-0.79
-0.63
-0.615
-0.48
-0.55
-0.39
-0.5
-0.56
-0.585
-0.67
-0.675
-0.665
-0.505
-0.555
-0.44
-0.36
-0.41
-0.545
-0.61
-0.61
-0.665
-0.64
-0.55
-0.41
-0.35
-0.355
-0.48
-0.485
-0.615
-0.555
-0.74
-0.67
-0.515
-0.425
-0.47
-0.395
-0.445
-0.505
-0.61
-0.62
-0.73
-0.65
-0.585
-0.515
-0.445
-0.42
-0.445
-0.535
-0.61
-0.675
-0.75
-0.695
-0.585
-0.485
-0.4
-0.395
-0.425
-0.535
-0.63
-0.7
-0.705
-0.68
-0.555
-0.44
-0.36
-0.34
-0.485
-0.565
-0.585
-0.605
-0.635
-0.645
-0.475
-0.36
-0.435
-0.42
-0.49
-0.595
-0.595
-0.635
-0.695
-0.56
-0.47
-0.42
-0.415
-0.42
-0.435
-0.54
-0.57
-0.69
-0.725
-0.58
-0.45
-0.4
-0.43
-0.415
-0.4
-0.495
-0.565
-0.535
-0.545
-0.465
-0.31
-0.28
-0.245
-0.195
-0.205
-0.255
-0.28
-0.34
-0.455
-0.345
-0.285
-0.17
-0.18
-0.23
-0.31
-0.495
-0.62
-0.75
-0.715
-0.62
-0.465
-0.485
-0.44
-0.345
-0.455
-0.62
-0.615
-0.65
-0.61
-0.57
-0.45
-0.425
-0.35
-0.33
-0.42
-0.575
-0.59
-0.65
-0.65
-0.51
-0.425
-0.42
-0.34
-0.39
-0.455
-0.545
-0.6
-0.635
-0.6
-0.495
-0.46
-0.33
-0.255
-0.41
-0.45
-0.57
-0.58
-0.705
-0.525
-0.47
-0.4
-0.415
-0.31
-0.36
-0.455
-0.585
-0.62
-0.63
-0.595
-0.415
-0.385
-0.425
-0.31
-0.36
-0.415
-0.54
-0.57
-0.63
-0.545
-0.425
-0.355
-0.32
-0.305
-0.355
-0.49
-0.54
-0.555
-0.63
-0.54
-0.515
-0.395
-0.28
-0.2
-0.325
-0.385
-0.475
-0.47
-0.59
-0.515
-0.43
-0.28
-0.26
-0.235
-0.335
-0.43
-0.425
-0.425
-0.495
-0.43
-0.355
-0.23
-0.275
-0.18
-0.255
-0.31
-0.425
-0.42
-0.415
-0.365
-0.32
-0.21
-0.165
-0.105
-0.15
-0.29
-0.42
-0.46
-0.36
-0.325
-0.255
-0.18
-0.12
-0.18
-0.175
-0.31
-0.28
-0.465
-0.425
-0.37
-0.285
-0.245
-0.1
-0.115
-0.265
-0.39
-0.41
-0.48
-0.535
-0.405
-0.325
-0.36
-0.22
-0.245
-0.305
-0.415
-0.535
-0.55
-0.615
-0.505
-0.465
-0.35
-0.31
-0.3
-0.355
-0.48
-0.625
-0.655
-0.605
-0.53
-0.44
-0.365
-0.365
-0.34
-0.415
-0.525
-0.55
-0.615
-0.625
-0.54
-0.515
-0.4
-0.305
-0.37
-0.4
-0.45
-0.605
-0.65
-0.57
-0.52
-0.42
-0.385
-0.345
-0.32
-0.415
-0.495
-0.545
-0.605
-0.535
-0.52
-0.545
-0.415
-0.24
-0.275
-0.41
-0.58
-0.57
-0.6
-0.575
-0.505
-0.385
-0.355
-0.27
-0.335
-0.475
-0.54
-0.495
-0.61
-0.565
-0.445
-0.335
-0.3
-0.295
-0.37
-0.4
-0.535
-0.58
-0.675
-0.51
-0.47
-0.405
-0.335
-0.27
-0.26
-0.43
-0.56
-0.555
-0.615
-0.485
-0.455
-0.36
-0.325
-0.31
-0.42
-0.43
-0.51
-0.515
-0.535
-0.475
-0.405
-0.385
-0.335
-0.255
-0.385
-0.4
-0.495
-0.525
-0.61
-0.555
-0.44
-0.335
-0.33
-0.285
-0.38
-0.42
-0.485
-0.54
-0.56
-0.54
-0.43
-0.375
-0.355
-0.305
-0.355
-0.435
-0.545
-0.53
-0.6
-0.485
-0.435
-0.36
-0.28
-0.315
-0.345
-0.455
-0.49
-0.55
-0.58
-0.515
-0.39
-0.37
-0.315
-0.26
-0.29
-0.43
-0.49
-0.53
-0.54
-0.46
-0.425
-0.33
-0.25
-0.255
-0.34
-0.42
-0.48
-0.555
-0.5
-0.465
-0.38
-0.325
-0.285
-0.295
-0.35
-0.43
-0.52
-0.62
-0.61
-0.47
-0.395
-0.345
-0.315
-0.31
-0.445
-0.475
-0.54
-0.645
-0.545
-0.565
-0.435
-0.33
-0.2
-0.325
-0.44
-0.48
-0.57
-0.61
-0.57
-0.48
-0.39
-0.375
-0.27
-0.385
-0.39
-0.515
-0.495
-0.64
-0.57
-0.52
-0.42
-0.36
-0.265
-0.29
-0.45
-0.545
-0.54
-0.615
-0.56
-0.47
-0.3
-0.385
-0.28
-0.3
-0.4
-0.53
-0.57
-0.565
-0.56
-0.505
-0.34
-0.415
-0.285
-0.305
-0.365
-0.49
-0.475
-0.6
-0.485
-0.43
-0.275
-0.165
-0.105
-0.15
-0.175
-0.23
-0.225
-0.245
-0.245
-0.125
-0.09
-0.02
-0.045
-0.12
-0.22
-0.365
-0.435
-0.52
-0.565
-0.44
-0.38
-0.385
-0.29
-0.4
-0.44
-0.515
-0.575
-0.64
-0.515
-0.475
-0.39
-0.26
-0.25
-0.46
-0.385
-0.53
-0.56
-0.56
-0.48
-0.47
-0.33
-0.31
-0.26
-0.35
-0.425
-0.55
-0.525
-0.6
-0.52
-0.4
-0.365
-0.27
-0.235
-0.375
-0.455
-0.49
-0.535
-0.585
-0.535
-0.41
-0.325
-0.325
-0.28
-0.33
-0.41
-0.475
-0.55
-0.57
-0.48
-0.42
-0.385
-0.315
-0.3
-0.355
-0.455
-0.54
-0.535
-0.56
-0.475
-0.34
-0.335
-0.3
-0.24
-0.355
-0.405
-0.415
-0.535
-0.495
-0.475
-0.4
-0.315
-0.325
-0.22
-0.32
-0.4
-0.52
-0.56
-0.505
-0.415
-0.37
-0.255
-0.205
-0.25
-0.305
-0.4
-0.42
-0.49
-0.46
-0.33
-0.285
-0.265
-0.2
-0.205
-0.275
-0.325
-0.375
-0.415
-0.36
-0.32
-0.24
-0.115
-0.115
-0.15
-0.205
-0.25
-0.36
-0.415
-0.32
-0.29
-0.2
-0.1
-0.075
-0.1
-0.27
-0.32
-0.325
-0.48
-0.37
-0.295
-0.205
-0.175
-0.105
-0.155
-0.265
-0.35
-0.42
-0.555
-0.41
-0.335
-0.355
-0.295
-0.24
-0.37
-0.34
-0.465
-0.565
-0.61
-0.47
-0.455
-0.39
-0.365
-0.245
-0.41
-0.43
-0.57
-0.575
-0.64
-0.545
-0.48
-0.415
-0.405
-0.295
-0.355
-0.49
-0.57
-0.58
-0.615
-0.545
-0.495
-0.375
-0.345
-0.325
-0.35
-0.41
-0.57
-0.57
-0.615
-0.55
-0.475
-0.43
-0.385
-0.35
-0.35
-0.415
-0.53
-0.55
-0.61
-0.605
-0.525
-0.4
-0.345
-0.345
-0.325
-0.395
-0.535
-0.545
-0.585
-0.54
-0.42
-0.34
-0.37
-0.27
-0.365
-0.465
-0.54
-0.525
-0.605
-0.525
-0.435
-0.35
-0.42
-0.28
-0.29
-0.445
-0.5
-0.505
-0.56
-0.58
-0.385
-0.33
-0.35
-0.29
-0.355
-0.4
-0.57
-0.64
-0.61
-0.4
-0.36
-0.31
-0.3
-0.33
-0.365
-0.42
-0.505
-0.575
-0.525
-0.475
-0.395
-0.405
-0.32
-0.355
-0.38
-0.435
-0.485
-0.59
-0.535
-0.49
-0.405
-0.34
-0.3
-0.315
-0.375
-0.48
-0.535
-0.6
-0.595
-0.55
-0.41
-0.28
-0.275
-0.335
-0.33
-0.49
-0.52
-0.565
-0.62
-0.515
-0.41
-0.33
-0.27
-0.305
-0.375
-0.445
-0.555
-0.615
-0.55
-0.475
-0.445
-0.39
-0.255
-0.29
-0.36
-0.485
-0.545
-0.615
-0.54
-0.52
-0.365
-0.33
-0.26
-0.325
-0.425
-0.55
-0.555
-0.625
-0.57
-0.46
-0.375
-0.31
-0.195
-0.285
-0.43
-0.455
-0.475
-0.575
-0.535
-0.385
-0.315
-0.335
-0.16
-0.3
-0.395
-0.51
-0.5
-0.58
-0.475
-0.37
-0.315
-0.285
-0.325
-0.35
-0.36
-0.43
-0.495
-0.555
-0.49
-0.435
-0.33
-0.36
-0.28
-0.34
-0.46
-0.55
-0.585
-0.54
-0.535
-0.415
-0.39
-0.36
-0.345
-0.375
-0.44
-0.575
-0.5
-0.53
-0.485
-0.445
-0.375
-0.355
-0.32
-0.345
-0.445
-0.51
-0.6
-0.585
-0.48
-0.41
-0.325
-0.37
-0.28
-0.355
-0.465
-0.535
-0.615
-0.57
-0.48
-0.415
-0.385
-0.32
-0.325
-0.34
-0.495
-0.595
-0.525
-0.535
-0.525
-0.435
-0.32
-0.32
-0.315
-0.36
-0.45
-0.545
-0.54
-0.55
-0.47
-0.355
-0.175
-0.065
-0.175
-0.21
-0.265
-0.295
-0.295
-0.215
-0.105
-0.09
-0.065
-0.01
-0.045
-0.17
-0.195
-0.295
-0.475
-0.455
-0.455
-0.42
-0.35
-0.34
-0.335
-0.44
-0.505
-0.55
-0.705
-0.605
-0.515
-0.415
-0.415
-0.42
-0.375
-0.48
-0.605
-0.65
-0.73
-0.65
-0.61
-0.53
-0.52
-0.49
-0.435
-0.635
-0.695
-0.73
-0.805
-0.71
-0.625
-0.555
-0.555
-0.49
-0.51
-0.52
-0.625
-0.685
-0.745
-0.695
-0.595
-0.52
-0.45
-0.285
-0.5
-0.535
-0.585
-0.625
-0.73
-0.635
-0.475
-0.425
-0.38
-0.3
-0.415
-0.475
-0.615
-0.605
-0.665
-0.62
-0.52
-0.435
-0.41
-0.33
-0.345
-0.36
-0.495
-0.585
-0.675
-0.525
-0.475
-0.38
-0.33
-0.24
-0.38
-0.475
-0.53
-0.575
-0.63
-0.555
-0.45
-0.38
-0.35
-0.205
-0.27
-0.375
-0.445
-0.515
-0.545
-0.525
-0.39
-0.3
-0.295
-0.14
-0.255
-0.36
-0.445
-0.41
-0.445
-0.39
-0.335
-0.215
-0.16
-0.105
-0.24
-0.31
-0.325
-0.335
-0.385
-0.365
-0.29
-0.19
-0.2
-0.14
-0.195
-0.255
-0.35
-0.375
-0.395
-0.37
-0.305
-0.205
-0.12
-0.09
-0.21
-0.28
-0.385
-0.46
-0.51
-0.365
-0.235
-0.21
-0.195
-0.19
-0.24
-0.42
-0.455
-0.53
-0.53
-0.435
-0.36
-0.31
-0.255
-0.29
-0.35
-0.44
-0.55
-0.54
-0.58
-0.53
-0.415
-0.305
-0.24
-0.295
-0.45
-0.575
-0.56
-0.55
-0.605
-0.485
-0.425
-0.4
-0.28
-0.34
-0.405
-0.51
-0.54
-0.655
-0.585
-0.475
-0.39
-0.375
-0.27
-0.335
-0.455
-0.51
-0.545
-0.575
-0.575
-0.515
-0.42
-0.295
-0.27
-0.335
-0.465
-0.595
-0.555
-0.64
-0.575
-0.515
-0.38
-0.385
-0.235
-0.315
-0.41
-0.545
-0.595
-0.57
-0.54
-0.54
-0.365
-0.375
-0.265
-0.285
-0.4
-0.595
-0.54
-0.655
-0.51
-0.47
-0.395
-0.32
-0.22
-0.395
-0.4
-0.465
-0.55
-0.645
-0.505
-0.45
-0.38
-0.4
-0.235
-0.335
-0.415
-0.485
-0.55
-0.605
-0.555
-0.48
-0.43
-0.345
-0.235
-0.345
-0.46
-0.555
-0.555
-0.57
-0.57
-0.515
-0.33
-0.42
-0.42
-0.395
-0.375
-0.51
-0.595
-0.66
-0.505
-0.465
-0.3
-0.395
-0.275
-0.33
-0.435
-0.505
-0.57
-0.605
-0.595
-0.445
-0.375
-0.385
-0.3
-0.38
-0.455
-0.515
-0.575
-0.59
-0.56
-0.43
-0.395
-0.33
-0.295
-0.405
-0.435
-0.535
-0.605
-0.63
-0.55
-0.5
-0.33
-0.315
-0.275
-0.35
-0.515
-0.56
-0.655
-0.575
-0.515
-0.485
-0.32
-0.29
-0.335
-0.405
-0.525
-0.505
-0.555
-0.57
-0.495
-0.4
-0.36
-0.305
-0.34
-0.38
-0.44
-0.545
-0.6
-0.585
-0.48
-0.36
-0.345
-0.3
-0.305
-0.345
-0.44
-0.555
-0.625
-0.545
-0.525
-0.355
-0.34
-0.27
-0.3
-0.355
-0.435
-0.54
-0.6
-0.54
-0.42
-0.405
-0.295
-0.245
-0.39
-0.46
-0.56
-0.51
-0.58
-0.595
-0.495
-0.395
-0.365
-0.31
-0.325
-0.455
-0.515
-0.555
-0.675
-0.59
-0.48
-0.42
-0.375
-0.27
-0.34
-0.475
-0.49
-0.57
-0.635
-0.545
-0.535
-0.395
-0.345
-0.255
-0.35
-0.435
-0.59
-0.555
-0.63
-0.56
-0.49
-0.455
-0.39
-0.33
-0.355
-0.435
-0.525
-0.485
-0.6
-0.565
-0.525
-0.42
-0.41
-0.32
-0.295
-0.395
-0.46
-0.535
-0.64
-0.63
-0.465
-0.435
-0.345
-0.29
-0.35
-0.41
-0.445
-0.495
-0.51
-0.44
-0.275
-0.21
-0.105
-0.065
-0.035
-0.095
-0.155
-0.185
-0.345
-0.305
-0.26
-0.105
-0.15
-0.205
-0.23
-0.315
-0.47
-0.57
-0.55
-0.54
-0.47
-0.415
-0.33
-0.335
-0.435
-0.465
-0.515
-0.555
-0.6
-0.545
-0.46
-0.38
-0.29
-0.34
-0.36
-0.42
-0.585
-0.625
-0.575
-0.455
-0.425
-0.385
-0.325
-0.335
-0.44
-0.44
-0.56
-0.475
-0.59
-0.53
-0.465
-0.335
-0.32
-0.235
-0.385
-0.535
-0.555
-0.605
-0.545
-0.52
-0.395
-0.305
-0.27
-0.255
-0.37
-0.435
-0.515
-0.58
-0.545
-0.475
-0.39
-0.29
-0.26
-0.32
-0.345
-0.465
-0.49
-0.57
-0.545
-0.485
-0.395
-0.315
-0.265
-0.29
-0.345
-0.44
-0.515
-0.565
-0.505
-0.445
-0.395
-0.335
-0.185
-0.29
-0.285
-0.48
-0.44
-0.555
-0.485
-0.4
-0.31
-0.32
-0.125
-0.255
-0.355
-0.4
-0.385
-0.48
-0.425
-0.345
-0.27
-0.2
-0.145
-0.205
-0.18
-0.295
-0.335
-0.45
-0.325
-0.33
-0.205
-0.155
-0.1
-0.145
-0.24
-0.365
-0.31
-0.43
-0.305
-0.225
-0.205
-0.125
-0.11
-0.225
-0.165
-0.26
-0.35
-0.435
-0.3
-0.21
-0.24
-0.175
-0.085
-0.21
-0.27
-0.38
-0.45
-0.525
-0.395
-0.345
-0.2
-0.225
-0.215
-0.255
-0.33
-0.43
-0.48
-0.555
-0.49
-0.335
-0.23
-0.3
-0.315
-0.365
-0.44
-0.555
-0.58
-0.61
-0.555
-0.405
-0.325
-0.33
-0.3
-0.34
-0.52
-0.52
-0.585
-0.58
-0.545
-0.475
-0.415
-0.3
-0.33
-0.345
-0.415
-0.505
-0.555
-0.63
-0.505
-0.44
-0.4
-0.395
-0.34
-0.395
-0.48
-0.515
-0.595
-0.605
-0.51
-0.44
-0.39
-0.37
-0.3
-0.42
-0.435
-0.515
-0.605
-0.615
-0.565
-0.39
-0.37
-0.31
-0.3
-0.405
-0.485
-0.555
-0.645
-0.565
-0.505
-0.45
-0.355
-0.33
-0.31
-0.35
-0.49
-0.52
-0.595
-0.55
-0.55
-0.44
-0.365
-0.305
-0.35
-0.435
-0.525
-0.595
-0.71
-0.645
-0.57
-0.49
-0.475
-0.445
-0.4
-0.58
-0.675
-0.84
-0.825
-0.78
-0.73
-0.69
-0.55
-0.515
-0.565
-0.57
-0.715
-0.72
-0.77
-0.745
-0.68
-0.56
-0.49
-0.45
-0.495
-0.54
-0.66
-0.725
-0.725
-0.62
-0.535
-0.535
-0.51
-0.38
-0.455
-0.555
-0.635
-0.695
-0.73
-0.615
-0.58
-0.47
-0.465
-0.405
-0.45
-0.5
-0.65
-0.635
-0.69
-0.595
-0.55
-0.445
-0.46
-0.42
-0.43
-0.49
-0.585
-0.605
-0.685
-0.71
-0.595
-0.46
-0.41
-0.365
-0.43
-0.495
-0.615
-0.625
-0.67
-0.595
-0.48
-0.44
-0.43
-0.375
-0.465
-0.535
-0.59
-0.6
-0.7
-0.645
-0.59
-0.41
-0.365
-0.335
-0.46
-0.605
-0.58
-0.55
-0.61
-0.59
-0.5
-0.425
-0.35
-0.34
-0.38
-0.505
-0.545
-0.615
-0.595
-0.58
-0.505
-0.36
-0.345
-0.305
-0.37
-0.51
-0.585
-0.64
-0.555
-0.47
-0.495
-0.415
-0.37
-0.355
-0.42
-0.545
-0.58
-0.6
-0.65
-0.605
-0.55
-0.405
-0.38
-0.34
-0.395
-0.61
-0.72
-0.65
-0.625
-0.57
-0.475
-0.45
-0.42
-0.445
-0.455
-0.53
-0.565
-0.685
-0.635
-0.565
-0.485
-0.4
-0.355
-0.405
-0.43
-0.62
-0.6
-0.61
-0.665
-0.6
-0.445
-0.375
-0.33
-0.325
-0.45
-0.545
-0.58
-0.695
-0.66
-0.57
-0.51
-0.48
-0.36
-0.38
-0.475
-0.525
-0.59
-0.65
-0.585
-0.57
-0.43
-0.38
-0.32
-0.34
-0.44
-0.55
-0.485
-0.6
-0.52
-0.36
-0.215
-0.24
-0.055
-0.08
-0.175
-0.135
-0.175
-0.41
-0.305
-0.265
-0.145
-0.1
-0.14
-0.25
-0.405
-0.595
-0.635
-0.69
-0.62
-0.515
-0.41
-0.435
-0.38
-0.405
-0.54
-0.59
-0.62
-0.675
-0.615
-0.495
-0.465
-0.45
-0.31
-0.425
-0.43
-0.56
-0.615
-0.675
-0.56
-0.54
-0.41
-0.365
-0.36
-0.425
-0.485
-0.565
-0.63
-0.705
-0.575
-0.47
-0.34
-0.37
-0.325
-0.395
-0.54
-0.535
-0.615
-0.675
-0.59
-0.465
-0.415
-0.37
-0.335
-0.455
-0.455
-0.565
-0.645
-0.66
-0.6
-0.515
-0.41
-0.365
-0.305
-0.4
-0.5
-0.575
-0.57
-0.645
-0.63
-0.48
-0.405
-0.335
-0.26
-0.405
-0.53
-0.58
-0.55
-0.65
-0.495
-0.5
-0.36
-0.3
-0.295
-0.39
-0.455
-0.54
-0.565
-0.56
-0.53
-0.41
-0.34
-0.33
-0.29
-0.325
-0.51
-0.495
-0.465
-0.49
-0.485
-0.28
-0.25
-0.24
-0.235
-0.365
-0.395
-0.38
-0.455
-0.47
-0.38
-0.325
-0.23
-0.16
-0.195
-0.245
-0.35
-0.405
-0.465
-0.42
-0.315
-0.245
-0.245
-0.2
-0.215
-0.27
-0.43
-0.405
-0.49
-0.435
-0.385
-0.3
-0.31
-0.31
-0.305
-0.39
-0.42
-0.515
-0.6
-0.51
-0.475
-0.395
-0.375
-0.335
-0.385
-0.47
-0.565
-0.6
-0.705
-0.63
-0.605
-0.5
-0.485
-0.43
-0.47
-0.51
-0.69
-0.835
-0.775
-0.68
-0.64
-0.545
-0.47
-0.425
-0.5
-0.59
-0.745
-0.67
-0.765
-0.795
-0.62
-0.565
-0.54
-0.425
-0.465
-0.525
-0.65
-0.71
-0.775
-0.665
-0.545
-0.525
-0.49
-0.43
-0.475
-0.515
-0.65
-0.655
-0.71
-0.65
-0.565
-0.45
-0.475
-0.435
-0.46
-0.55
-0.585
-0.62
-0.685
-0.615
-0.555
-0.53
-0.415
-0.37
-0.425
-0.56
-0.62
-0.59
-0.61
-0.605
-0.525
-0.395
-0.405
-0.39
-0.37
-0.45
-0.6
-0.61
-0.655
-0.585
-0.59
-0.525
-0.365
-0.27
-0.44
-0.48
-0.55
-0.64
-0.72
-0.585
-0.47
-0.415
-0.415
-0.405
-0.425
-0.51
-0.63
-0.67
-0.66
-0.6
-0.49
-0.485
-0.465
-0.33
-0.395
-0.44
-0.595
-0.645
-0.66
-0.595
-0.44
-0.38
-0.37
-0.385
-0.45
-0.515
-0.605
-0.71
-0.59
-0.565
-0.465
-0.47
-0.355
-0.37
-0.44
-0.5
-0.635
-0.615
-0.625
-0.59
-0.48
-0.43
-0.365
-0.355
-0.4
-0.59
-0.63
-0.75
-0.64
-0.515
-0.42
-0.455
-0.375
-0.41
-0.425
-0.555
-0.6
-0.67
-0.645
-0.55
-0.435
-0.42
-0.355
-0.395
-0.47
-0.59
-0.645
-0.705
-0.645
-0.55
-0.445
-0.4
-0.385
-0.375
-0.44
-0.6
-0.625
-0.66
-0.63
-0.585
-0.45
-0.345
-0.28
-0.345
-0.45
-0.575
-0.585
-0.65
-0.61
-0.52
-0.425
-0.35
-0.29
-0.395
-0.425
-0.53
-0.57
-0.705
-0.58
-0.58
-0.4
-0.325
-0.225
-0.335
-0.455
-0.425
-0.56
-0.7
-0.565
-0.535
-0.395
-0.41
-0.315
-0.4
-0.47
-0.6
-0.575
-0.63
-0.605
-0.575
-0.475
-0.355
-0.345
-0.37
-0.465
-0.625
-0.635
-0.64
-0.58
-0.54
-0.425
-0.34
-0.375
-0.45
-0.545
-0.56
-0.6
-0.66
-0.57
-0.49
-0.445
-0.425
-0.395
-0.38
-0.6
-0.54
-0.63
-0.66
-0.575
-0.525
-0.375
-0.345
-0.33
-0.44
-0.485
-0.55
-0.54
-0.6
-0.59
-0.475
-0.44
-0.385
-0.39
-0.41
-0.51
-0.605
-0.6
-0.55
-0.52
-0.48
-0.355
-0.29
-0.24
-0.28
-0.315
-0.375
-0.37
-0.31
-0.26
-0.165
-0.145
-0.095
-0.13
-0.18
-0.375
-0.435
-0.42
-0.505
-0.575
-0.535
-0.475
-0.405
-0.36
-0.42
-0.525
-0.615
-0.7
-0.64
-0.625
-0.445
-0.405
-0.325
-0.34
-0.44
-0.515
-0.63
-0.685
-0.64
-0.46
-0.435
-0.42
-0.345
-0.355
-0.525
-0.53
-0.585
-0.66
-0.545
-0.54
-0.42
-0.39
-0.255
-0.36
-0.515
-0.535
-0.595
-0.68
-0.575
-0.55
-0.42
-0.345
-0.4
-0.43
-0.4
-0.58
-0.525
-0.645
-0.61
-0.545
-0.425
-0.42
-0.3
-0.375
-0.45
-0.52
-0.555
-0.605
-0.61
-0.48
-0.445
-0.4
-0.35
-0.355
-0.475
-0.6
-0.62
-0.725
-0.61
-0.44
-0.445
-0.37
-0.255
-0.37
-0.475
-0.475
-0.515
-0.54
-0.6
-0.56
-0.29
-0.33
-0.275
-0.415
-0.42
-0.555
-0.57
-0.61
-0.545
-0.405
-0.28
-0.28
-0.25
-0.31
-0.36
-0.47
-0.44
-0.495
-0.475
-0.38
-0.315
-0.3
-0.27
-0.34
-0.37
-0.46
-0.53
-0.61
-0.61
-0.545
-0.56
-0.525
-0.585
-0.57
-0.72
-0.76
-0.76
-0.755
-0.715
-0.515
-0.4
-0.45
-0.385
-0.42
-0.505
-0.595
-0.635
-0.625
-0.56
-0.53
-0.435
-0.41
-0.435
-0.475
-0.52
-0.59
-0.68
-0.745
-0.64
-0.47
-0.46
-0.42
-0.45
-0.505
-0.61
-0.575
-0.685
-0.765
-0.645
-0.505
-0.43
-0.405
-0.445
-0.54
-0.595
-0.675
-0.75
-0.8
-0.65
-0.59
-0.48
-0.5
-0.475
-0.475
-0.605
-0.67
-0.725
-0.7
-0.655
-0.55
-0.475
-0.415
-0.45
-0.555
-0.645
-0.71
-0.75
-0.72
-0.585
-0.505
-0.48
-0.395
-0.435
-0.505
-0.605
-0.655
-0.675
-0.605
-0.635
-0.475
-0.445
-0.375
-0.42
-0.47
-0.545
-0.635
-0.75
-0.625
-0.62
-0.49
-0.39
-0.445
-0.41
-0.605
-0.62
-0.69
-0.675
-0.565
-0.595
-0.465
-0.415
-0.34
-0.445
-0.525
-0.605
-0.61
-0.715
-0.67
-0.595
-0.46
-0.465
-0.395
-0.425
-0.565
-0.61
-0.635
-0.76
-0.71
-0.545
-0.475
-0.39
-0.4
-0.495
-0.56
-0.605
-0.7
-0.78
-0.65
-0.505
-0.495
-0.535
-0.425
-0.54
-0.545
-0.68
-0.625
-0.795
-0.66
-0.63
-0.515
-0.44
-0.425
-0.445
-0.58
-0.685
-0.635
-0.71
-0.66
-0.595
-0.535
-0.52
-0.465
-0.475
-0.58
-0.67
-0.66
-0.74
-0.655
-0.54
-0.475
-0.44
-0.395
-0.395
-0.54
-0.6
-0.625
-0.715
-0.615
-0.515
-0.48
-0.425
-0.41
-0.455
-0.535
-0.605
-0.675
-0.655
-0.59
-0.445
-0.465
-0.39
-0.365
-0.47
-0.525
-0.62
-0.645
-0.67
-0.585
-0.49
-0.425
-0.45
-0.445
-0.525
-0.61
-0.615
-0.63
-0.66
-0.575
-0.52
-0.495
-0.375
-0.39
-0.51
-0.595
-0.605
-0.71
-0.675
-0.62
-0.48
-0.465
-0.315
-0.395
-0.505
-0.565
-0.625
-0.7
-0.595
-0.585
-0.47
-0.49
-0.385
-0.35
-0.45
-0.63
-0.645
-0.71
-0.635
-0.585
-0.465
-0.425
-0.39
-0.41
-0.455
-0.585
-0.595
-0.71
-0.55
-0.59
-0.44
-0.38
-0.34
-0.405
-0.455
-0.575
-0.585
-0.605
-0.605
-0.56
-0.45
-0.33
-0.265
-0.36
-0.42
-0.475
-0.495
-0.545
-0.415
-0.315
-0.26
-0.14
-0.07
-0.12
-0.21
-0.355
-0.435
-0.525
-0.405
-0.29
-0.255
-0.295
-0.265
-0.485
-0.565
-0.64
-0.635
-0.67
-0.65
-0.52
-0.43
-0.385
-0.315
-0.47
-0.585
-0.61
-0.635
-0.605
-0.605
-0.52
-0.415
-0.39
-0.42
-0.435
-0.495
-0.535
-0.6
-0.625
-0.55
-0.45
-0.445
-0.385
-0.335
-0.37
-0.465
-0.54
-0.555
-0.635
-0.595
-0.495
-0.39
-0.365
-0.29
-0.5
-0.505
-0.535
-0.55
-0.615
-0.615
-0.52
-0.425
-0.31
-0.32
-0.4
-0.505
-0.56
-0.61
-0.6
-0.615
-0.47
-0.36
-0.34
-0.34
-0.405
-0.54
-0.55
-0.68
-0.57
-0.55
-0.38
-0.385
-0.375
-0.33
-0.38
-0.52
-0.535
-0.53
-0.56
-0.565
-0.345
-0.375
-0.295
-0.335
-0.39
-0.47
-0.505
-0.585
-0.515
-0.405
-0.365
-0.3
-0.25
-0.23
-0.325
-0.365
-0.4
-0.49
-0.48
-0.375
-0.27
-0.28
-0.195
-0.115
-0.23
-0.33
-0.325
-0.455
-0.385
-0.305
-0.155
-0.205
-0.065
-0.085
-0.18
-0.285
-0.365
-0.37
-0.31
-0.21
-0.175
-0.095
-0.145
-0.07
-0.21
-0.295
-0.32
-0.375
-0.375
-0.295
-0.17
-0.145
-0.125
-0.18
-0.27
-0.405
-0.39
-0.48
-0.435
-0.42
-0.28
-0.23
-0.16
-0.26
-0.36
-0.49
-0.48
-0.55
-0.5
-0.43
-0.32
-0.3
-0.265
-0.3
-0.395
-0.505
-0.52
-0.57
-0.5
-0.5
-0.34
-0.34
-0.24
-0.275
-0.415
-0.515
-0.53
-0.635
-0.495
-0.52
-0.39
-0.29
-0.19
-0.35
-0.45
-0.48
-0.56
-0.605
-0.55
-0.45
-0.405
-0.33
-0.24
-0.365
-0.445
-0.485
-0.525
-0.565
-0.505
-0.405
-0.265
-0.325
-0.255
-0.3
-0.37
-0.515
-0.5
-0.585
-0.49
-0.39
-0.31
-0.3
-0.24
-0.32
-0.485
-0.445
-0.485
-0.555
-0.465
-0.34
-0.32
-0.29
-0.22
-0.295
-0.345
-0.48
-0.57
-0.515
-0.55
-0.375
-0.35
-0.275
-0.235
-0.315
-0.385
-0.48
-0.565
-0.545
-0.405
-0.37
-0.335
-0.285
-0.255
-0.315
-0.42
-0.47
-0.615
-0.515
-0.44
-0.39
-0.26
-0.28
-0.28
-0.3
-0.48
-0.525
-0.56
-0.535
-0.435
-0.4
-0.33
-0.23
-0.28
-0.37
-0.525
-0.505
-0.585
-0.58
-0.465
-0.34
-0.265
-0.23
-0.27
-0.37
-0.425
-0.455
-0.68
-0.545
-0.415
-0.375
-0.25
-0.245
-0.34
-0.345
-0.415
-0.48
-0.54
-0.49
-0.425
-0.345
-0.255
-0.22
-0.225
-0.335
-0.495
-0.59
-0.595
-0.445
-0.44
-0.335
-0.31
-0.3
-0.325
-0.395
-0.5
-0.48
-0.66
-0.57
-0.45
-0.39
-0.35
-0.195
-0.3
-0.41
-0.52
-0.565
-0.625
-0.555
-0.43
-0.395
-0.315
-0.245
-0.325
-0.425
-0.57
-0.545
-0.59
-0.57
-0.4
-0.315
-0.365
-0.27
-0.31
-0.365
-0.505
-0.515
-0.61
-0.52
-0.45
-0.35
-0.295
-0.29
-0.33
-0.395
-0.525
-0.51
-0.54
-0.46
-0.375
-0.355
-0.33
-0.295
-0.355
-0.48
-0.53
-0.5
-0.48
-0.47
-0.385
-0.29
-0.28
-0.2
-0.26
-0.3
-0.44
-0.31
-0.265
-0.21
-0.11
-0.05
0.075
0.06
-0.01
-0.165
-0.255
-0.3
-0.325
-0.33
-0.285
-0.255
-0.305
-0.255
-0.38
-0.44
-0.545
-0.56
-0.53
-0.49
-0.38
-0.335
-0.28
-0.335
-0.32
-0.395
-0.53
-0.525
-0.56
-0.51
-0.365
-0.31
-0.3
-0.25
-0.325
-0.47
-0.5
-0.5
-0.5
-0.475
-0.38
-0.375
-0.245
-0.19
-0.285
-0.415
-0.525
-0.6
-0.535
-0.42
-0.365
-0.34
-0.225
-0.27
-0.33
-0.475
-0.51
-0.55
-0.475
-0.42
-0.325
-0.295
-0.195
-0.22
-0.305
-0.4
-0.495
-0.58
-0.46
-0.445
-0.365
-0.28
-0.175
-0.33
-0.33
-0.495
-0.44
-0.55
-0.445
-0.38
-0.305
-0.29
-0.22
-0.225
-0.29
-0.41
-0.505
-0.515
-0.445
-0.38
-0.325
-0.225
-0.155
-0.185
-0.23
-0.375
-0.5
-0.485
-0.445
-0.375
-0.23
-0.21
-0.125
-0.16
-0.255
-0.33
-0.415
-0.43
-0.375
-0.26
-0.145
-0.12
-0.065
-0.145
-0.24
-0.34
-0.27
-0.35
-0.35
-0.24
-0.115
-0.165
-0.06
-0.095
-0.185
-0.28
-0.27
-0.345
-0.29
-0.23
-0.18
-0.18
0.04
-0.07
-0.18
-0.315
-0.375
-0.405
-0.305
-0.29
-0.17
-0.11
-0.15
-0.175
-0.245
-0.385
-0.38
-0.495
-0.395
-0.325
-0.295
-0.305
-0.18
-0.295
-0.46
-0.455
-0.485
-0.52
-0.485
-0.39
-0.27
-0.305
-0.3
-0.24
-0.4
-0.45
-0.545
-0.53
-0.535
-0.465
-0.295
-0.275
-0.255
-0.315
-0.45
-0.525
-0.545
-0.545
-0.5
-0.45
-0.305
-0.275
-0.295
-0.33
-0.51
-0.505
-0.54
-0.53
-0.495
-0.37
-0.33
-0.315
-0.23
-0.365
-0.485
-0.515
-0.6
-0.515
-0.5
-0.38
-0.345
-0.3
-0.265
-0.365
-0.415
-0.455
-0.615
-0.525
-0.465
-0.33
-0.3
-0.28
-0.265
-0.385
-0.51
-0.52
-0.55
-0.49
-0.45
-0.33
-0.355
-0.255
-0.335
-0.32
-0.445
-0.445
-0.58
-0.525
-0.46
-0.38
-0.35
-0.225
-0.29
-0.375
-0.465
-0.465
-0.565
-0.525
-0.49
-0.415
-0.305
-0.26
-0.36
-0.47
-0.39
-0.5
-0.555
-0.5
-0.445
-0.31
-0.29
-0.235
-0.345
-0.4
-0.5
-0.495
-0.595
-0.535
-0.45
-0.35
-0.375
-0.24
-0.315
-0.385
-0.46
-0.53
-0.585
-0.48
-0.42
-0.38
-0.3
-0.23
-0.335
-0.455
-0.535
-0.55
-0.61
-0.485
-0.415
-0.39
-0.35
-0.325
-0.37
-0.4
-0.52
-0.555
-0.55
-0.54
-0.43
-0.375
-0.305
-0.28
-0.275
-0.355
-0.465
-0.48
-0.615
-0.51
-0.43
-0.28
-0.23
-0.27
-0.39
-0.39
-0.5
-0.475
-0.55
-0.51
-0.33
-0.33
-0.265
-0.19
-0.28
-0.39
-0.48
-0.58
-0.565
-0.42
-0.345
-0.375
-0.34
-0.27
-0.355
-0.445
-0.525
-0.6
-0.605
-0.495
-0.435
-0.405
-0.25
-0.275
-0.355
-0.39
-0.505
-0.62
-0.54
-0.52
-0.49
-0.375
-0.31
-0.315
-0.31
-0.48
-0.595
-0.555
-0.605
-0.515
-0.395
-0.385
-0.29
-0.32
-0.39
-0.47
-0.495
-0.63
-0.525
-0.495
-0.39
-0.285
-0.275
-0.34
-0.47
-0.47
-0.505
-0.545
-0.57
-0.395
-0.415
-0.38
-0.29
-0.275
-0.38
-0.495
-0.515
-0.56
-0.595
-0.475
-0.37
-0.3
-0.255
-0.215
-0.325
-0.32
-0.45
-0.375
-0.295
-0.25
-0.09
0.055
0.125
0.02
-0.095
-0.23
-0.24
-0.34
-0.255
-0.315
-0.255
-0.22
-0.19
-0.335
-0.39
-0.49
-0.485
-0.615
-0.545
-0.43
-0.4
-0.345
-0.265
-0.33
-0.35
-0.485
-0.535
-0.585
-0.505
-0.445
-0.4
-0.315
-0.245
-0.275
-0.375
-0.535
-0.455
-0.565
-0.52
-0.465
-0.34
-0.27
-0.255
-0.365
-0.44
-0.45
-0.475
-0.585
-0.505
-0.485
-0.335
-0.32
-0.245
-0.35
-0.39
-0.51
-0.475
-0.585
-0.505
-0.435
-0.28
-0.245
-0.23
-0.3
-0.37
-0.47
-0.52
-0.55
-0.525
-0.385
-0.28
-0.27
-0.18
-0.325
-0.41
-0.485
-0.435
-0.485
-0.47
-0.41
-0.31
-0.28
-0.26
-0.305
-0.38
-0.48
-0.565
-0.47
-0.415
-0.355
-0.275
-0.26
-0.255
-0.28
-0.375
-0.385
-0.42
-0.5
-0.415
-0.305
-0.25
-0.225
-0.18
-0.275
-0.31
-0.365
-0.44
-0.44
-0.375
-0.245
-0.19
-0.13
-0.185
-0.195
-0.245
-0.345
-0.345
-0.315
-0.275
-0.235
-0.11
-0.03
-0.015
-0.145
-0.24
-0.38
-0.36
-0.375
-0.24
-0.165
-0.125
-0.055
-0.09
-0.175
-0.27
-0.345
-0.41
-0.36
-0.295
-0.245
-0.24
-0.075
-0.135
-0.22
-0.44
-0.48
-0.475
-0.425
-0.335
-0.31
-0.265
-0.195
-0.305
-0.35
-0.47
-0.52
-0.475
-0.47
-0.44
-0.34
-0.29
-0.22
-0.365
-0.45
-0.51
-0.54
-0.59
-0.465
-0.36
-0.39
-0.335
-0.23
-0.35
-0.445
-0.475
-0.485
-0.62
-0.505
-0.47
-0.36
-0.335
-0.265
-0.3
-0.4
-0.485
-0.5
-0.575
-0.52
-0.485
-0.375
-0.31
-0.245
-0.355
-0.43
-0.56
-0.625
-0.605
-0.57
-0.5
-0.345
-0.33
-0.28
-0.29
-0.39
-0.435
-0.52
-0.655
-0.59
-0.44
-0.325
-0.31
-0.21
-0.365
-0.405
-0.52
-0.475
-0.625
-0.51
-0.435
-0.39
-0.28
-0.26
-0.37
-0.425
-0.48
-0.53
-0.565
-0.48
-0.465
-0.35
-0.32
-0.275
-0.31
-0.4
-0.535
-0.59
-0.63
-0.47
-0.43
-0.325
-0.3
-0.32
-0.34
-0.425
-0.485
-0.57
-0.595
-0.485
-0.45
-0.31
-0.25
-0.31
-0.39
-0.445
-0.51
-0.59
-0.54
-0.565
-0.41
-0.31
-0.34
-0.33
-0.36
-0.47
-0.515
-0.59
-0.59
-0.47
-0.41
-0.32
-0.285
-0.31
-0.425
-0.43
-0.525
-0.605
-0.545
-0.53
-0.41
-0.33
-0.285
-0.32
-0.39
-0.465
-0.525
-0.615
-0.55
-0.455
-0.435
-0.385
-0.305
-0.255
-0.39
-0.565
-0.495
-0.56
-0.52
-0.46
-0.385
-0.37
-0.3
-0.28
-0.41
-0.43
-0.525
-0.625
-0.49
-0.42
-0.37
-0.34
-0.27
-0.3
-0.44
-0.47
-0.46
-0.565
-0.57
-0.43
-0.31
-0.27
-0.23
-0.245
-0.38
-0.48
-0.575
-0.645
-0.46
-0.445
-0.385
-0.345
-0.2
-0.335
-0.49
-0.525
-0.51
-0.575
-0.555
-0.52
-0.385
-0.355
-0.34
-0.39
-0.425
-0.535
-0.535
-0.655
-0.525
-0.49
-0.4
-0.34
-0.29
-0.37
-0.425
-0.53
-0.565
-0.615
-0.575
-0.5
-0.38
-0.39
-0.3
-0.4
-0.435
-0.51
-0.53
-0.705
-0.47
-0.465
-0.405
-0.38
-0.265
-0.31
-0.455
-0.53
-0.53
-0.6
-0.57
-0.45
-0.425
-0.36
-0.295
-0.385
-0.42
-0.52
-0.565
-0.595
-0.52
-0.435
-0.335
-0.37
-0.325
-0.345
-0.41
-0.455
-0.39
-0.41
-0.37
-0.24
-0.12
-0.01
-0.045
-0.165
-0.335
-0.35
-0.41
-0.435
-0.37
-0.35
-0.335
-0.32
-0.31
-0.465
-0.535
-0.57
-0.655
-0.755
-0.625
-0.51
-0.46
-0.405
-0.39
-0.495
-0.585
-0.59
-0.69
-0.645
-0.595
-0.515
-0.45
-0.365
-0.38
-0.45
-0.535
-0.59
-0.635
-0.67
-0.61
-0.485
-0.405
-0.345
-0.365
-0.44
-0.58
-0.65
-0.695
-0.565
-0.51
-0.415
-0.41
-0.345
-0.345
-0.49
-0.625
-0.555
-0.69
-0.645
-0.52
-0.42
-0.32
-0.25
-0.38
-0.475
-0.485
-0.565
-0.64
-0.545
-0.475
-0.445
-0.39
-0.285
-0.365
-0.485
-0.525
-0.505
-0.675
-0.585
-0.49
-0.37
-0.34
-0.295
-0.325
-0.39
-0.49
-0.515
-0.64
-0.555
-0.47
-0.39
-0.39
-0.205
-0.27
-0.43
-0.445
-0.485
-0.585
-0.5
-0.44
-0.345
-0.3
-0.235
-0.285
-0.31
-0.395
-0.435
-0.53
-0.475
-0.355
-0.275
-0.185
-0.17
-0.24
-0.265
-0.375
-0.395
-0.49
-0.34
-0.26
-0.185
-0.205
-0.11
-0.16
-0.225
-0.29
-0.35
-0.395
-0.33
-0.255
-0.16
-0.18
-0.11
-0.16
-0.32
-0.3
-0.33
-0.375
-0.375
-0.32
-0.125
-0.17
-0.18
-0.175
-0.385
-0.4
-0.435
-0.435
-0.455
-0.375
-0.24
-0.265
-0.21
-0.335
-0.405
-0.52
-0.55
-0.52
-0.555
-0.44
-0.34
-0.28
-0.26
-0.335
-0.465
-0.555
-0.56
-0.59
-0.525
-0.43
-0.295
-0.31
-0.315
-0.39
-0.46
-0.545
-0.605
-0.565
-0.405
-0.43
-0.36
-0.29
-0.28
-0.37
-0.49
-0.49
-0.58
-0.62
-0.51
-0.435
-0.34
-0.255
-0.35
-0.4
-0.44
-0.535
-0.605
-0.61
-0.54
-0.425
-0.355
-0.38
-0.31
-0.36
-0.495
-0.565
-0.645
-0.57
-0.475
-0.405
-0.325
-0.255
-0.345
-0.465
-0.44
-0.52
-0.595
-0.585
-0.46
-0.34
-0.32
-0.255
-0.27
-0.375
-0.555
-0.535
-0.595
-0.475
-0.4
-0.37
-0.33
-0.245
-0.36
-0.43
-0.55
-0.53
-0.65
-0.575
-0.48
-0.335
-0.315
-0.25
-0.335
-0.385
-0.555
-0.525
-0.605
-0.52
-0.555
-0.405
-0.285
-0.26
-0.315
-0.505
-0.54
-0.425
-0.59
-0.58
-0.41
-0.375
-0.395
-0.265
-0.295
-0.485
-0.495
-0.495
-0.615
-0.57
-0.41
-0.365
-0.375
-0.265
-0.37
-0.48
-0.555
-0.575
-0.555
-0.51
-0.46
-0.42
-0.315
-0.31
-0.365
-0.435
-0.5
-0.58
-0.67
-0.515
-0.445
-0.4
-0.345
-0.265
-0.38
-0.505
-0.51
-0.56
-0.59
-0.505
-0.425
-0.295
-0.32
-0.28
-0.345
-0.4
-0.565
-0.59
-0.515
-0.465
-0.34
-0.395
-0.29
-0.18
-0.29
-0.365
-0.52
-0.54
-0.595
-0.58
-0.39
-0.315
-0.245
-0.265
-0.4
-0.5
-0.57
-0.61
-0.635
-0.515
-0.425
-0.385
-0.315
-0.315
-0.35
-0.485
-0.535
-0.575
-0.565
-0.56
-0.345
-0.37
-0.31
-0.32
-0.46
-0.53
-0.53
-0.625
-0.62
-0.5
-0.43
-0.39
-0.295
-0.335
-0.445
-0.485
-0.58
-0.57
-0.625
-0.465
-0.36
-0.475
-0.285
-0.34
-0.355
-0.5
-0.535
-0.625
-0.55
-0.55
-0.41
-0.345
-0.325
-0.335
-0.385
-0.485
-0.54
-0.585
-0.51
-0.475
-0.4
-0.33
-0.255
-0.315
-0.4
-0.49
-0.495
-0.5
-0.48
-0.33
-0.195
-0.185
-0.075
-0.195
-0.215
-0.175
-0.185
-0.375
-0.33
-0.225
-0.18
-0.15
-0.125
-0.255
-0.36
-0.39
-0.595
-0.64
-0.575
-0.555
-0.475
-0.355
-0.28
-0.37
-0.445
-0.5
-0.515
-0.65
-0.555
-0.47
-0.365
-0.345
-0.265
-0.305
-0.435
-0.485
-0.515
-0.59
-0.54
-0.475
-0.36
-0.31
-0.3
-0.335
-0.435
-0.505
-0.53
-0.595
-0.52
-0.445
-0.39
-0.365
-0.29
-0.33
-0.45
-0.48
-0.475
-0.6
-0.55
-0.43
-0.31
-0.275
-0.29
-0.305
-0.425
-0.52
-0.53
-0.56
-0.465
-0.455
-0.33
-0.32
-0.23
-0.325
-0.445
-0.525
-0.515
-0.56
-0.48
-0.4
-0.335
-0.32
-0.205
-0.32
-0.42
-0.595
-0.5
-0.52
-0.445
-0.35
-0.26
-0.24
-0.31
-0.325
-0.35
-0.49
-0.505
-0.48
-0.445
-0.335
-0.25
-0.225
-0.245
-0.285
-0.375
-0.365
-0.48
-0.44
-0.395
-0.31
-0.205
-0.145
-0.12
-0.155
-0.305
-0.36
-0.4
-0.36
-0.305
-0.255
-0.145
-0.09
-0.115
-0.19
-0.21
-0.325
-0.43
-0.39
-0.36
-0.165
-0.015
-0.065
-0.075
-0.23
-0.245
-0.35
-0.345
-0.34
-0.275
-0.23
-0.155
-0.095
-0.135
-0.25
-0.335
-0.375
-0.405
-0.445
-0.335
-0.27
-0.25
-0.155
-0.225
-0.295
-0.435
-0.495
-0.535
-0.5
-0.465
-0.34
-0.325
-0.21
-0.33
-0.425
-0.435
-0.46
-0.65
-0.53
-0.43
-0.39
-0.39
-0.255
-0.295
-0.46
-0.5
-0.565
-0.58
-0.535
-0.4
-0.335
-0.39
-0.255
-0.4
-0.44
-0.47
-0.555
-0.63
-0.565
-0.505
-0.355
-0.315
-0.29
-0.34
-0.45
-0.545
-0.51
-0.545
-0.545
-0.505
-0.345
-0.345
-0.25
-0.395
-0.445
-0.505
-0.55
-0.66
-0.53
-0.43
-0.37
-0.345
-0.23
-0.355
-0.365
-0.56
-0.56
-0.565
-0.545
-0.395
-0.38
-0.31
-0.34
-0.42
-0.4
-0.485
-0.48
-0.54
-0.475
-0.44
-0.31
-0.295
-0.33
-0.365
-0.465
-0.475
-0.58
-0.56
-0.565
-0.46
-0.325
-0.32
-0.3
-0.35
-0.44
-0.495
-0.575
-0.585
-0.505
-0.46
-0.325
-0.31
-0.295
-0.37
-0.415
-0.535
-0.53
-0.555
-0.6
-0.405
-0.355
-0.315
-0.295
-0.375
-0.435
-0.51
-0.585
-0.595
-0.555
-0.38
-0.355
-0.27
-0.325
-0.4
-0.435
-0.515
-0.555
-0.51
-0.51
-0.39
-0.345
-0.29
-0.315
-0.365
-0.57
-0.5
-0.59
-0.53
-0.46
-0.41
-0.32
-0.19
-0.22
-0.365
-0.46
-0.525
-0.58
-0.53
-0.495
-0.415
-0.345
-0.275
-0.375
-0.45
-0.525
-0.575
-0.595
-0.545
-0.515
-0.415
-0.375
-0.36
-0.385
-0.46
-0.495
-0.61
-0.655
-0.545
-0.47
-0.425
-0.37
-0.33
-0.365
-0.435
-0.545
-0.605
-0.59
-0.595
-0.495
-0.38
-0.37
-0.26
-0.33
-0.5
-0.57
-0.625
-0.69
-0.53
-0.375
-0.39
-0.375
-0.36
-0.32
-0.47
-0.59
-0.595
-0.625
-0.52
-0.485
-0.41
-0.38
-0.295
-0.345
-0.46
-0.555
-0.535
-0.585
-0.61
-0.495
-0.38
-0.38
-0.29
-0.365
-0.425
-0.48
-0.495
-0.57
-0.4
-0.33
-0.265
-0.145
-0.13
-0.225
-0.185
-0.235
-0.26
-0.425
-0.395
-0.22
-0.175
-0.165
-0.12
-0.255
-0.4
-0.57
-0.6
-0.63
-0.64
-0.525
-0.43
-0.405
-0.335
-0.385
-0.49
-0.555
-0.55
-0.665
-0.545
-0.49
-0.415
-0.34
-0.36
-0.39
-0.53
-0.595
-0.535
-0.595
-0.505
-0.42
-0.415
-0.295
-0.325
-0.38
-0.48
-0.56
-0.585
-0.6
-0.555
-0.445
-0.37
-0.365
-0.365
-0.395
-0.5
-0.575
-0.62
-0.575
-0.475
-0.415
-0.365
-0.34
-0.305
-0.4
-0.46
-0.575
-0.595
-0.565
-0.485
-0.42
-0.37
-0.32
-0.3
-0.365
-0.51
-0.5
-0.605
-0.55
-0.505
-0.375
-0.415
-0.315
-0.26
-0.4
-0.505
-0.535
-0.575
-0.515
-0.51
-0.37
-0.285
-0.17
-0.26
-0.415
-0.5
-0.51
-0.56
-0.515
-0.515
-0.35
-0.28
-0.225
-0.245
-0.28
-0.4
-0.46
-0.525
-0.5
-0.365
-0.27
-0.185
-0.165
-0.19
-0.36
-0.33
-0.42
-0.405
-0.385
-0.34
-0.185
-0.14
-0.07
-0.13
-0.255
-0.305
-0.3
-0.45
-0.375
-0.23
-0.175
-0.165
-0.06
-0.22
-0.27
-0.295
-0.365
-0.435
-0.325
-0.285
-0.225
-0.23
-0.125
-0.255
-0.265
-0.365
-0.4
-0.495
-0.385
-0.385
-0.28
-0.345
-0.255
-0.29
-0.39
-0.51
-0.55
-0.57
-0.53
-0.44
-0.335
-0.395
-0.385
-0.315
-0.43
-0.53
-0.61
-0.59
-0.52
-0.445
-0.365
-0.32
-0.35
-0.415
-0.475
-0.57
-0.68
-0.65
-0.715
-0.455
-0.345
-0.35
-0.385
-0.39
-0.49
-0.58
-0.575
-0.605
-0.58
-0.45
-0.395
-0.395
-0.38
-0.425
-0.515
-0.585
-0.69
-0.675
-0.57
-0.48
-0.335
-0.34
-0.28
-0.425
-0.43
-0.555
-0.52
-0.59
-0.485
-0.41
-0.37
-0.275
-0.285
-0.37
-0.395
-0.475
-0.625
-0.545
-0.525
-0.43
-0.325
-0.31
-0.26
-0.345
-0.475
-0.535
-0.575
-0.58
-0.445
-0.39
-0.37
-0.28
-0.22
-0.295
-0.52
-0.595
-0.61
-0.505
-0.42
-0.42
-0.325
-0.22
-0.27
-0.42
-0.515
-0.53
-0.675
-0.565
-0.405
-0.325
-0.255
-0.345
-0.33
-0.42
-0.505
-0.475
-0.62
-0.6
-0.485
-0.36
-0.345
-0.21
-0.305
-0.35
-0.475
-0.525
-0.46
-0.615
-0.485
-0.51
-0.315
-0.25
-0.245
-0.495
-0.535
-0.53
-0.59
-0.425
-0.305
-0.34
-0.26
-0.29
-0.3
-0.375
-0.495
-0.515
-0.62
-0.405
-0.425
-0.325
-0.38
-0.325
-0.185
-0.325
-0.21
-0.405
-0.47
-0.315
-0.32
-0.22
-0.16
-0.17
-0.225
-0.285
-0.35
-0.285
-0.36
-0.36
-0.335
-0.27
-0.135
-0.14
-0.19
-0.29
-0.39
-0.48
-0.58
-0.4
-0.275
-0.22
-0.2
-0.14
-0.12
-0.235
-0.365
-0.365
-0.47
-0.4
-0.3
-0.26
-0.165
-0.11
-0.16
-0.365
-0.52
-0.44
-0.42
-0.345
-0.385
-0.255
-0.165
-0.205
-0.32
-0.375
-0.43
-0.37
-0.51
-0.485
-0.385
-0.155
-0.21
-0.22
-0.25
-0.325
-0.45
-0.435
-0.52
-0.405
-0.395
-0.21
-0.24
-0.245
-0.265
-0.375
-0.435
-0.455
-0.495
-0.37
-0.305
-0.295
-0.32
-0.385
-0.37
-0.39
-0.485
-0.51
-0.525
-0.46
-0.395
-0.21
-0.18
-0.13
-0.215
-0.32
-0.325
-0.3
-0.17
-0.235
-0.17
-0.155
-0.16
-0.14
-0.125
-0.32
-0.525
-0.67
-0.605
-0.6
-0.51
-0.45
-0.42
-0.465
-0.515
-0.58
-0.64
-0.71
-0.635
-0.615
-0.525
-0.375
-0.335
-0.355
-0.5
-0.54
-0.665
-0.74
-0.71
-0.665
-0.535
-0.46
-0.415
-0.455
-0.5
-0.69
-0.675
-0.77
-0.675
-0.57
-0.595
-0.57
-0.445
-0.535
-0.515
-0.625
-0.715
-0.735
-0.595
-0.635
-0.52
-0.54
-0.39
-0.44
-0.565
-0.67
-0.73
-0.805
-0.68
-0.555
-0.49
-0.565
-0.42
-0.555
-0.63
-0.625
-0.675
-0.795
-0.65
-0.62
-0.585
-0.525
-0.39
-0.425
-0.58
-0.575
-0.685
-0.84
-0.69
-0.71
-0.52
-0.495
-0.48
-0.52
-0.585
-0.7
-0.685
-0.75
-0.665
-0.565
-0.515
-0.5
-0.385
-0.51
-0.47
-0.51
-0.58
-0.725
-0.665
-0.505
-0.525
-0.445
-0.35
-0.38
-0.51
-0.69
-0.655
-0.525
-0.565
-0.395
-0.385
-0.38
-0.31
-0.37
-0.48
-0.59
-0.58
-0.635
-0.515
-0.395
-0.305
-0.405
-0.34
-0.29
-0.505
-0.675
-0.665
-0.585
-0.52
-0.515
-0.47
-0.32
-0.23
-0.375
-0.515
-0.625
-0.695
-0.655
-0.645
-0.445
-0.41
-0.385
-0.455
-0.46
-0.62
-0.735
-0.775
-0.77
-0.7
-0.55
-0.51
-0.455
-0.46
-0.56
-0.66
-0.675
-0.675
-0.795
-0.755
-0.525
-0.41
-0.47
-0.48
-0.545
-0.705
-0.695
-0.66
-0.625
-0.615
-0.555
-0.31
-0.32
-0.32
-0.46
-0.455
-0.6
-0.665
-0.6
-0.465
-0.405
-0.3
-0.21
-0.215
-0.425
-0.4
-0.475
-0.53
-0.38
-0.405
-0.27
-0.215
-0.22
-0.29
-0.29
-0.405
-0.335
-0.36
-0.325
-0.28
-0.15
-0.105
0.0
-0.185
-0.135
-0.25
-0.33
-0.285
-0.275
-0.245
-0.015
-0.025
-0.155
-0.18
-0.23
-0.335
-0.37
-0.415
-0.345
-0.22
-0.23
-0.125
-0.105
-0.235
-0.255
-0.325
-0.365
-0.38
-0.39
-0.23
-0.215
-0.33
-0.11
-0.105
-0.21
-0.355
-0.385
-0.43
-0.405
-0.225
-0.195
-0.13
-0.06
-0.11
-0.195
-0.32
-0.34
-0.47
-0.39
-0.275
-0.095
-0.13
-0.125
-0.19
-0.195
-0.28
-0.32
-0.36
-0.425
-0.32
-0.16
-0.175
-0.07
-0.17
-0.215
-0.27
-0.355
-0.425
-0.36
-0.205
-0.13
-0.1
-0.16
-0.12
-0.365
-0.355
-0.405
-0.395
-0.305
-0.255
-0.165
-0.07
-0.07
-0.15
-0.235
-0.34
-0.39
-0.465
-0.43
-0.215
-0.185
-0.165
-0.17
-0.215
-0.315
-0.29
-0.365
-0.43
-0.34
-0.22
-0.135
0.005
-0.095
-0.165
-0.24
-0.305
-0.365
-0.35
-0.315
-0.255
-0.125
-0.085
-0.09
-0.235
-0.3
-0.39
-0.375
-0.34
-0.25
-0.175
-0.13
-0.1
-0.155
-0.19
-0.26
-0.32
-0.33
-0.41
-0.41
-0.24
-0.185
-0.145
-0.17
-0.285
-0.35
-0.45
-0.485
-0.38
-0.31
-0.23
-0.18
-0.135
-0.19
-0.225
-0.355
-0.425
-0.445
-0.39
-0.39
-0.245
-0.24
-0.21
-0.15
-0.26
-0.405
-0.405
-0.47
-0.42
-0.375
-0.21
-0.235
-0.125
-0.225
-0.245
-0.43
-0.47
-0.475
-0.385
-0.335
-0.235
-0.295
-0.15
-0.22
-0.28
-0.415
-0.42
-0.48
-0.435
-0.3
-0.175
-0.225
-0.17
-0.21
-0.28
-0.375
-0.415
-0.45
-0.37
-0.175
-0.05
-0.115
0.06
0.105
0.05
-0.07
-0.14
-0.14
-0.225
-0.125
-0.1
-0.02
0.05
-0.14
-0.25
-0.405
-0.455
-0.605
-0.485
-0.35
-0.285
-0.295
-0.27
-0.3
-0.425
-0.545
-0.62
-0.5
-0.43
-0.385
-0.305
-0.3
-0.3
-0.38
-0.36
-0.55
-0.54
-0.565
-0.505
-0.455
-0.315
-0.295
-0.255
-0.28
-0.44
-0.485
-0.505
-0.575
-0.53
-0.41
-0.325
-0.245
-0.26
-0.345
-0.495
-0.485
-0.545
-0.5
-0.525
-0.365
-0.26
-0.22
-0.28
-0.3
-0.42
-0.515
-0.515
-0.535
-0.405
-0.475
-0.37
-0.225
-0.245
-0.33
-0.375
-0.485
-0.525
-0.595
-0.505
-0.36
-0.205
-0.22
-0.19
-0.265
-0.49
-0.53
-0.55
-0.525
-0.425
-0.335
-0.27
-0.145
-0.19
-0.32
-0.445
-0.44
-0.565
-0.52
-0.425
-0.265
-0.235
-0.215
-0.26
-0.31
-0.36
-0.405
-0.455
-0.455
-0.375
-0.21
-0.22
-0.135
-0.205
-0.235
-0.315
-0.3
-0.48
-0.305
-0.27
-0.235
-0.165
-0.06
-0.15
-0.18
-0.325
-0.35
-0.365
-0.29
-0.27
-0.14
-0.1
-0.06
-0.11
-0.225
-0.33
-0.385
-0.46
-0.305
-0.24
-0.15
-0.14
-0.115
-0.21
-0.28
-0.345
-0.375
-0.475
-0.49
-0.365
-0.2
-0.26
-0.165
-0.25
-0.375
-0.355
-0.435
-0.53
-0.47
-0.33
-0.32
-0.33
-0.32
-0.335
-0.445
-0.455
-0.51
-0.585
-0.445
-0.435
-0.4
-0.36
-0.29
-0.255
-0.445
-0.485
-0.535
-0.61
-0.54
-0.47
-0.37
-0.315
-0.345
-0.37
-0.435
-0.53
-0.575
-0.63
-0.56
-0.49
-0.39
-0.3
-0.295
-0.41
-0.385
-0.54
-0.525
-0.63
-0.55
-0.43
-0.375
-0.34
-0.31
-0.37
-0.5
-0.595
-0.525
-0.565
-0.565
-0.46
-0.31
-0.34
-0.31
-0.43
-0.47
-0.545
-0.565
-0.59
-0.565
-0.43
-0.375
-0.29
-0.325
-0.38
-0.49
-0.58
-0.59
-0.58
-0.48
-0.505
-0.405
-0.315
-0.365
-0.41
-0.5
-0.55
-0.62
-0.635
-0.48
-0.415
-0.455
-0.35
-0.375
-0.405
-0.485
-0.57
-0.575
-0.6
-0.54
-0.43
-0.39
-0.315
-0.415
-0.5
-0.53
-0.69
-0.705
-0.59
-0.495
-0.565
-0.425
-0.345
-0.355
-0.48
-0.48
-0.535
-0.655
-0.705
-0.615
-0.475
-0.47
-0.35
-0.385
-0.5
-0.63
-0.62
-0.685
-0.635
-0.55
-0.435
-0.4
-0.36
-0.51
-0.45
-0.52
-0.645
-0.67
-0.605
-0.59
-0.495
-0.41
-0.395
-0.44
-0.525
-0.635
-0.635
-0.705
-0.66
-0.52
-0.46
-0.44
-0.34
-0.405
-0.475
-0.63
-0.67
-0.75
-0.705
-0.555
-0.47
-0.435
-0.36
-0.475
-0.48
-0.585
-0.615
-0.705
-0.64
-0.59
-0.515
-0.44
-0.335
-0.4
-0.515
-0.595
-0.66
-0.595
-0.605
-0.52
-0.415
-0.41
-0.405
-0.445
-0.485
-0.605
-0.655
-0.7
-0.635
-0.53
-0.475
-0.46
-0.35
-0.53
-0.56
-0.645
-0.69
-0.76
-0.64
-0.56
-0.565
-0.525
-0.505
-0.46
-0.66
-0.61
-0.675
-0.76
-0.72
-0.6
-0.45
-0.43
-0.41
-0.51
-0.635
-0.7
-0.74
-0.725
-0.69
-0.61
-0.485
-0.45
-0.445
-0.585
-0.56
-0.67
-0.715
-0.755
-0.705
-0.57
-0.545
-0.45
-0.47
-0.54
-0.66
-0.63
-0.745
-0.735
-0.73
-0.55
-0.465
-0.435
-0.45
-0.505
-0.63
-0.725
-0.72
-0.685
-0.695
-0.595
-0.435
-0.295
-0.27
-0.395
-0.375
-0.365
-0.395
-0.395
-0.295
-0.235
-0.275
-0.26
-0.305
-0.39
-0.535
-0.61
-0.73
-0.74
-0.74
-0.575
-0.545
-0.505
-0.505
-0.61
-0.71
-0.74
-0.845
-0.74
-0.695
-0.59
-0.535
-0.435
-0.57
-0.665
-0.71
-0.755
-0.86
-0.755
-0.635
-0.575
-0.55
-0.48
-0.585
-0.645
-0.74
-0.76
-0.805
-0.78
-0.68
-0.5
-0.555
-0.455
-0.575
-0.605
-0.62
-0.77
-0.805
-0.74
-0.665
-0.52
-0.6
-0.49
-0.49
-0.645
-0.75
-0.805
-0.81
-0.765
-0.63
-0.6
-0.55
-0.48
-0.51
-0.6
-0.755
-0.745
-0.805
-0.79
-0.675
-0.585
-0.615
-0.48
-0.545
-0.695
-0.735
-0.635
-0.785
-0.785
-0.645
-0.5
-0.545
-0.48
-0.495
-0.595
-0.695
-0.75
-0.7
-0.785
-0.625
-0.55
-0.485
-0.48
-0.545
-0.585
-0.65
-0.735
-0.8
-0.72
-0.6
-0.48
-0.42
-0.45
-0.495
-0.565
-0.695
-0.7
-0.725
-0.615
-0.515
-0.42
-0.395
-0.36
-0.37
-0.505
-0.64
-0.645
-0.65
-0.62
-0.48
-0.43
-0.375
-0.355
-0.385
-0.565
-0.575
-0.66
-0.68
-0.58
-0.42
-0.435
-0.345
-0.335
-0.42
-0.655
-0.7
-0.605
-0.615
-0.685
-0.615
-0.48
-0.465
-0.46
-0.545
-0.635
-0.795
-0.795
-0.775
-0.66
-0.615
-0.585
-0.555
-0.52
-0.665
-0.715
-0.745
-0.895
-0.875
-0.77
-0.66
-0.59
-0.56
-0.605
-0.725
-0.8
-0.84
-0.885
-0.85
-0.795
-0.75
-0.555
-0.665
-0.555
-0.655
-0.77
-0.84
-0.935
-0.85
-0.785
-0.67
-0.66
-0.58
-0.655
-0.695
-0.83
-0.855
-0.955
-0.835
-0.78
-0.75
-0.695
-0.605
-0.695
-0.77
-0.875
-0.89
-0.93
-0.84
-0.78
-0.775
-0.73
-0.595
-0.67
-0.775
-0.885
-0.86
-0.99
-0.99
-0.73
-0.765
-0.71
-0.625
-0.675
-0.745
-0.87
-0.885
-0.99
-0.905
-0.79
-0.685
-0.73
-0.665
-0.7
-0.715
-0.85
-0.9
-0.96
-0.89
-0.865
-0.755
-0.745
-0.735
-0.78
-0.785
-0.91
-0.94
-0.995
-0.96
-0.845
-0.78
-0.68
-0.705
-0.77
-0.92
-0.9
-0.95
-1.085
-0.93
-0.895
-0.825
-0.745
-0.74
-0.81
-0.83
-0.92
-1.04
-0.995
-0.94
-0.87
-0.75
-0.8
-0.75
-0.78
-0.905
-0.935
-1.025
-1.115
-0.995
-0.89
-0.85
-0.8
-0.745
-0.815
-0.945
-1.025
-1.035
-1.055
-0.995
-0.885
-0.825
-0.81
-0.79
-0.935
-0.97
-1.03
-1.15
-1.12
-1.065
-0.92
-0.885
-0.805
-0.755
-0.875
-0.99
-1.075
-1.175
-1.135
-0.98
-0.945
-0.9
-0.815
-0.825
-0.9
-0.985
-1.035
-1.185
-1.08
-1.005
-0.93
-0.84
-0.8
-0.84
-0.955
-1.04
-1.08
-1.17
-1.095
-1.015
-0.905
-0.84
-0.745
-0.84
-0.955
-1.12
-1.08
-1.21
-1.11
-1.095
-0.93
-0.945
-0.91
-0.94
-1.03
-1.145
-1.115
-1.23
-1.19
-1.05
-1.035
-1.0
-0.825
-0.945
-1.0
-1.14
-1.17
-1.245
-1.215
-1.105
-1.005
-1.0
-0.895
-1.0
-1.07
-1.17
-1.215
-1.26
-1.19
-1.09
-1.03
-1.005
-0.915
-0.955
-1.11
-1.225
-1.205
-1.28
-1.235
-1.11
-1.07
-1.055
-1.0
-0.985
-1.095
-1.165
-1.225
-1.335
-1.2
-1.18
-1.145
-0.98
-0.95
-1.02
-1.135
-1.19
-1.295
-1.28
-1.225
-1.185
-1.015
-0.945
-0.92
-0.88
-0.99
-1.02
-0.99
-1.11
-0.89
-0.805
-0.7
-0.78
-0.81
-0.83
-0.895
-1.025
-1.085
-1.195
-1.195
-1.105
-1.145
-1.08
-1.085
-1.13
-1.215
-1.32
-1.315
-1.335
-1.315
-1.155
-1.135
-1.14
-1.015
-1.13
-1.21
-1.27
-1.335
-1.28
-1.235
-1.21
-1.09
-1.045
-1.07
-1.13
-1.25
-1.31
-1.4
-1.44
-1.26
-1.175
-1.165
-1.1
-1.04
-1.225
-1.345
-1.375
-1.345
-1.365
-1.34
-1.25
-1.215
-1.13
-1.165
-1.245
-1.31
-1.375
-1.42
-1.44
-1.355
-1.255
-1.2
-1.22
-1.205
-1.265
-1.37
-1.4
-1.475
-1.485
-1.375
-1.31
-1.25
-1.195
-1.17
-1.23
-1.39
-1.435
-1.465
-1.455
-1.41
-1.2
-1.225
-1.19
-1.2
-1.275
-1.355
-1.385
-1.535
-1.51
-1.35
-1.27
-1.205
-1.165
-1.225
-1.32
-1.455
-1.53
-1.61
-1.52
-1.53
-1.435
-1.435
-1.375
-1.445
-1.445
-1.555
-1.51
-1.655
-1.495
-1.36
-1.28
-1.21
-1.05
-1.095
-1.08
-1.215
-1.195
-1.165
-1.12
-0.95
-0.905
-0.89
-0.765
-0.79
-0.88
-0.975
-1.02
-0.96
-0.92
-0.795
-0.715
-0.735
-0.65
-0.705
-0.74
-0.835
-0.875
-0.92
-0.85
-0.785
-0.685
-0.695
-0.625
-0.715
-0.745
-0.85
-0.905
-1.03
-0.915
-0.81
-0.745
-0.715
-0.63
-0.64
-0.78
-0.845
-0.825
-0.91
-0.9
-0.755
-0.74
-0.67
-0.645
-0.64
-0.745
-0.885
-0.88
-0.95
-0.91
-0.735
-0.615
-0.615
-0.625
-0.615
-0.72
-0.78
-0.885
-0.845
-0.82
-0.73
-0.555
-0.58
-0.6
-0.605
-0.65
-0.69
-0.82
-0.845
-0.745
-0.66
-0.56
-0.495
-0.455
-0.615
-0.61
-0.75
-0.74
-0.78
-0.705
-0.565
-0.485
-0.43
-0.515
-0.52
-0.67
-0.725
-0.81
-0.775
-0.61
-0.52
-0.56
-0.455
-0.425
-0.495
-0.615
-0.625
-0.76
-0.75
-0.655
-0.58
-0.4
-0.415
-0.44
-0.57
-0.64
-0.64
-0.69
-0.62
-0.62
-0.535
-0.48
-0.36
-0.45
-0.455
-0.55
-0.595
-0.74
-0.665
-0.53
-0.505
-0.46
-0.35
-0.405
-0.475
-0.565
-0.605
-0.695
-0.705
-0.52
-0.47
-0.435
-0.395
-0.385
-0.465
-0.63
-0.625
-0.62
-0.65
-0.585
-0.49
-0.415
-0.355
-0.43
-0.46
-0.545
-0.58
-0.665
-0.655
-0.545
-0.43
-0.375
-0.32
-0.425
-0.505
-0.58
-0.54
-0.645
-0.54
-0.44
-0.345
-0.33
-0.36
-0.42
-0.45
-0.565
-0.555
-0.645
-0.54
-0.49
-0.38
-0.36
-0.3
-0.385
-0.47
-0.59
-0.655
-0.66
-0.53
-0.54
-0.415
-0.4
-0.325
-0.41
-0.56
-0.66
-0.59
-0.635
-0.625
-0.53
-0.405
-0.41
-0.395
-0.45
-0.535
-0.555
-0.55
-0.625
-0.59
-0.505
-0.345
-0.39
-0.265
-0.375
-0.49
-0.585
-0.585
-0.695
-0.575
-0.445
-0.39
-0.375
-0.35
-0.45
-0.48
-0.595
-0.555
-0.57
-0.595
-0.455
-0.37
-0.29
-0.265
-0.375
-0.42
-0.485
-0.535
-0.625
-0.425
-0.4
-0.335
-0.315
-0.23
-0.33
-0.45
-0.49
-0.5
-0.575
-0.43
-0.4
-0.295
-0.18
-0.165
-0.255
-0.375
-0.285
-0.34
-0.38
-0.26
-0.1
0.005
0.045
0.105
-0.04
-0.205
-0.29
-0.37
-0.365
-0.315
-0.18
-0.2
-0.2
-0.355
-0.405
-0.45
-0.535
-0.625
-0.57
-0.47
-0.325
-0.265
-0.225
-0.295
-0.3
-0.42
-0.48
-0.565
-0.505
-0.465
-0.285
-0.22
-0.145
-0.125
-0.245
-0.535
-0.42
-0.465
-0.435
-0.375
-0.295
-0.22
-0.14
-0.26
-0.36
-0.38
-0.355
-0.435
-0.435
-0.39
-0.235
-0.25
-0.135
-0.165
-0.265
-0.425
-0.41
-0.495
-0.46
-0.325
-0.235
-0.175
-0.14
-0.275
-0.34
-0.36
-0.425
-0.5
-0.365
-0.28
-0.195
-0.18
-0.135
-0.175
-0.255
-0.415
-0.39
-0.46
-0.375
-0.29
-0.22
-0.13
-0.135
-0.19
-0.28
-0.315
-0.335
-0.41
-0.35
-0.26
-0.145
-0.13
-0.11
-0.15
-0.21
-0.28
-0.35
-0.405
-0.335
-0.215
-0.12
-0.14
0.005
-0.105
-0.225
-0.22
-0.325
-0.345
-0.19
-0.095
-0.025
-0.055
0.07
-0.02
-0.085
-0.155
-0.235
-0.2
-0.135
-0.12
-0.03
0.115
0.075
0.005
-0.1
-0.17
-0.27
-0.15
-0.05
-0.06
0.055
0.015
0.055
0.0
-0.04
-0.16
-0.245
-0.265
-0.18
-0.105
-0.07
0.01
-0.005
-0.045
-0.135
-0.25
-0.39
-0.35
-0.295
-0.18
-0.105
-0.13
-0.11
-0.155
-0.315
-0.36
-0.37
-0.385
-0.28
-0.225
-0.165
-0.15
-0.12
-0.2
-0.355
-0.42
-0.475
-0.42
-0.38
-0.275
-0.19
-0.14
-0.17
-0.215
-0.335
-0.375
-0.445
-0.385
-0.36
-0.23
-0.215
-0.09
-0.2
-0.345
-0.33
-0.35
-0.45
-0.445
-0.315
-0.21
-0.135
-0.165
-0.185
-0.235
-0.35
-0.405
-0.455
-0.355
-0.315
-0.235
-0.2
-0.05
-0.125
-0.31
-0.31
-0.3
-0.455
-0.385
-0.255
-0.185
-0.17
-0.14
-0.175
-0.235
-0.35
-0.355
-0.4
-0.34
-0.3
-0.17
-0.155
-0.12
-0.115
-0.255
-0.345
-0.375
-0.44
-0.3
-0.32
-0.22
-0.165
-0.095
-0.135
-0.3
-0.335
-0.37
-0.38
-0.4
-0.295
-0.205
-0.175
-0.13
-0.12
-0.15
-0.335
-0.39
-0.44
-0.42
-0.29
-0.17
-0.175
-0.085
-0.19
-0.235
-0.34
-0.365
-0.45
-0.345
-0.3
-0.17
-0.17
-0.115
-0.205
-0.225
-0.37
-0.315
-0.405
-0.425
-0.27
-0.215
-0.155
-0.1
-0.245
-0.305
-0.34
-0.38
-0.47
-0.325
-0.26
-0.21
-0.12
-0.04
-0.165
-0.265
-0.34
-0.4
-0.4
-0.375
-0.215
-0.19
-0.18
-0.075
-0.14
-0.245
-0.32
-0.375
-0.405
-0.305
-0.2
-0.185
-0.14
-0.105
-0.22
-0.31
-0.37
-0.405
-0.42
-0.35
-0.305
-0.245
-0.14
-0.145
-0.24
-0.355
-0.405
-0.48
-0.44
-0.385
-0.26
-0.23
-0.23
-0.18
-0.315
-0.325
-0.375
-0.495
-0.51
-0.425
-0.245
-0.15
-0.12
-0.205
-0.285
-0.37
-0.39
-0.455
-0.47
-0.355
-0.235
-0.225
-0.17
-0.16
-0.26
-0.34
-0.4
-0.46
-0.415
-0.32
-0.275
-0.22
-0.09
-0.195
-0.28
-0.33
-0.395
-0.52
-0.41
-0.31
-0.25
-0.195
-0.135
-0.155
-0.29
-0.34
-0.345
-0.44
-0.355
-0.205
-0.04
0.015
0.065
0.01
0.05
-0.005
-0.095
-0.075
-0.005
-0.055
0.06
0.045
0.135
0.005
-0.16
-0.25
-0.35
-0.47
-0.425
-0.34
-0.21
-0.175
-0.16
-0.23
-0.375
-0.32
-0.38
-0.47
-0.38
-0.315
-0.24
-0.175
-0.11
-0.175
-0.345
-0.435
-0.395
-0.45
-0.44
-0.24
-0.21
-0.16
-0.13
-0.175
-0.23
-0.335
-0.395
-0.395
-0.365
-0.275
-0.185
-0.18
-0.135
-0.195
-0.235
-0.4
-0.425
-0.37
-0.375
-0.305
-0.245
-0.19
-0.05
-0.155
-0.305
-0.395
-0.415
-0.355
-0.3
-0.235
-0.2
-0.155
-0.05
-0.175
-0.2
-0.34
-0.47
-0.42
-0.3
-0.26
-0.145
-0.2
-0.09
-0.17
-0.215
-0.28
-0.3
-0.39
-0.29
-0.25
-0.12
-0.085
-0.09
-0.14
-0.24
-0.285
-0.365
-0.345
-0.285
-0.15
-0.13
-0.015
0.005
-0.1
-0.21
-0.27
-0.295
-0.28
-0.2
-0.14
-0.055
0.025
-0.015
-0.105
-0.16
-0.21
-0.245
-0.25
-0.085
0.045
0.02
0.04
0.055
-0.065
-0.045
-0.135
-0.26
-0.12
-0.1
-0.055
0.075
0.16
0.045
-0.075
-0.165
-0.12
-0.205
-0.195
-0.075
-0.01
0.045
0.08
0.005
-0.075
-0.17
-0.23
-0.34
-0.275
-0.145
-0.125
-0.085
0.0
-0.04
-0.145
-0.29
-0.25
-0.37
-0.32
-0.305
-0.205
-0.14
-0.055
-0.13
-0.22
-0.355
-0.22
-0.39
-0.295
-0.27
-0.18
-0.13
-0.065
-0.195
-0.265
-0.3
-0.36
-0.46
-0.425
-0.26
-0.185
-0.085
-0.07
-0.17
-0.265
-0.36
-0.405
-0.425
-0.34
-0.23
-0.165
-0.175
-0.135
-0.17
-0.29
-0.3
-0.345
-0.385
-0.38
-0.25
-0.13
-0.15
-0.2
-0.14
-0.2
-0.325
-0.38
-0.47
-0.375
-0.23
-0.24
-0.175
-0.11
-0.12
-0.21
-0.365
-0.38
-0.4
-0.35
-0.245
-0.165
-0.18
-0.04
-0.12
-0.22
-0.405
-0.345
-0.37
-0.315
-0.305
-0.175
-0.12
0.0
-0.15
-0.26
-0.31
-0.355
-0.355
-0.305
-0.26
-0.165
-0.065
-0.085
-0.2
-0.26
-0.315
-0.355
-0.425
-0.33
-0.285
-0.16
-0.18
-0.09
-0.13
-0.31
-0.355
-0.42
-0.42
-0.37
-0.24
-0.15
-0.07
-0.085
-0.135
-0.3
-0.335
-0.385
-0.35
-0.27
-0.235
-0.155
-0.025
-0.09
-0.165
-0.315
-0.3
-0.335
-0.385
-0.29
-0.205
-0.155
-0.1
-0.155
-0.245
-0.325
-0.355
-0.415
-0.325
-0.285
-0.26
-0.2
-0.04
-0.075
-0.19
-0.255
-0.305
-0.41
-0.34
-0.255
-0.18
-0.155
-0.095
-0.09
-0.23
-0.245
-0.375
-0.36
-0.31
-0.25
-0.08
-0.13
-0.02
-0.005
-0.15
-0.25
-0.29
-0.395
-0.35
-0.255
-0.165
-0.19
-0.15
-0.08
-0.235
-0.285
-0.35
-0.44
-0.35
-0.25
-0.25
-0.155
-0.08
-0.11
-0.28
-0.32
-0.38
-0.41
-0.35
-0.255
-0.13
-0.2
-0.235
-0.235
-0.215
-0.265
-0.385
-0.41
-0.36
-0.31
-0.135
-0.13
-0.1
-0.19
-0.28
-0.345
-0.345
-0.44
-0.34
-0.25
-0.125
-0.165
-0.115
-0.175
-0.26
-0.305
-0.385
-0.41
-0.375
-0.26
-0.21
-0.125
-0.115
-0.19
-0.24
-0.37
-0.425
-0.425
-0.3
-0.245
-0.145
-0.085
-0.02
0.005
-0.135
-0.18
-0.205
-0.185
-0.055
0.06
0.16
0.2
0.295
0.13
0.065
-0.085
-0.175
-0.155
-0.195
-0.155
-0.085
-0.12
-0.18
-0.21
-0.27
-0.38
-0.405
-0.42
-0.39
-0.3
-0.18
-0.16
-0.125
-0.19
-0.255
-0.37
-0.385
-0.44
-0.345
-0.215
-0.19
-0.1
-0.13
-0.2
-0.355
-0.315
-0.435
-0.42
-0.32
-0.235
-0.165
-0.1
-0.1
-0.22
-0.315
-0.34
-0.435
-0.345
-0.27
-0.21
-0.205
-0.105
-0.07
-0.2
-0.32
-0.36
-0.455
-0.39
-0.295
-0.215
-0.175
-0.085
-0.135
-0.23
-0.305
-0.315
-0.365
-0.37
-0.33
-0.23
-0.14
-0.105
-0.13
-0.24
-0.355
-0.325
-0.38
-0.34
-0.28
-0.185
-0.1
-0.04
-0.06
-0.19
-0.335
-0.365
-0.39
-0.26
-0.225
-0.115
-0.18
-0.05
-0.095
-0.165
-0.215
-0.28
-0.35
-0.25
-0.16
-0.11
-0.08
-0.02
-0.08
-0.11
-0.19
-0.19
-0.275
-0.265
-0.16
-0.05
-0.02
0.03
-0.055
-0.05
-0.12
-0.205
-0.275
-0.13
-0.005
0.025
0.015
0.08
0.035
-0.03
-0.135
-0.155
-0.23
-0.16
-0.04
0.07
0.04
0.04
-0.01
-0.05
-0.15
-0.16
-0.225
-0.195
-0.12
-0.05
0.02
0.035
0.005
-0.15
-0.26
-0.29
-0.335
-0.255
-0.165
-0.195
-0.03
-0.05
-0.25
-0.195
-0.27
-0.38
-0.415
-0.285
-0.245
-0.09
-0.09
-0.07
-0.21
-0.255
-0.365
-0.365
-0.4
-0.325
-0.25
-0.135
-0.135
-0.075
-0.12
-0.24
-0.35
-0.445
-0.44
-0.305
-0.235
-0.135
-0.105
-0.155
-0.245
-0.28
-0.385
-0.45
-0.42
-0.33
-0.23
-0.165
-0.13
-0.125
-0.18
-0.24
-0.4
-0.485
-0.385
-0.26
-0.195
-0.195
-0.135
-0.065
-0.225
-0.305
-0.4
-0.42
-0.405
-0.33
-0.225
-0.14
-0.065
-0.09
-0.165
-0.285
-0.365
-0.43
-0.31
-0.3
-0.28
-0.145
-0.095
-0.075
-0.185
-0.28
-0.325
-0.385
-0.34
-0.24
-0.17
-0.145
-0.08
-0.11
-0.175
-0.33
-0.355
-0.43
-0.32
-0.215
-0.16
-0.25
-0.09
-0.105
-0.185
-0.315
-0.32
-0.475
-0.335
-0.215
-0.195
-0.17
-0.12
-0.135
-0.15
-0.305
-0.335
-0.41
-0.335
-0.245
-0.175
-0.14
-0.12
-0.065
-0.235
-0.345
-0.36
-0.43
-0.39
-0.25
-0.175
-0.22
-0.15
-0.215
-0.275
-0.36
-0.44
-0.505
-0.405
-0.305
-0.285
-0.215
-0.125
-0.285
-0.355
-0.44
-0.48
-0.46
-0.52
-0.325
-0.205
-0.2
-0.235
-0.315
-0.315
-0.375
-0.42
-0.465
-0.475
-0.335
-0.285
-0.265
-0.21
-0.26
-0.38
-0.48
-0.45
-0.505
-0.5
-0.46
-0.33
-0.345
-0.33
-0.36
-0.41
-0.535
-0.55
-0.635
-0.575
-0.475
-0.385
-0.385
-0.285
-0.35
-0.475
-0.575
-0.65
-0.655
-0.565
-0.495
-0.41
-0.38
-0.31
-0.395
-0.475
-0.575
-0.58
-0.575
-0.55
-0.485
-0.37
-0.355
-0.33
-0.415
-0.565
-0.595
-0.635
-0.645
-0.565
-0.43
-0.375
-0.45
-0.325
-0.48
-0.565
-0.605
-0.66
-0.625
-0.595
-0.51
-0.405
-0.33
-0.36
-0.5
-0.585
-0.61
-0.71
-0.65
-0.615
-0.5
-0.34
-0.36
-0.365
-0.46
-0.54
-0.585
-0.67
-0.5
-0.415
-0.295
-0.31
-0.155
-0.205
-0.265
-0.33
-0.29
-0.33
-0.32
-0.35
-0.255
-0.215
-0.14
-0.235
-0.285
-0.485
-0.55
-0.655
-0.625
-0.55
-0.52
-0.405
-0.355
-0.4
-0.515
-0.605
-0.63
-0.675
-0.58
-0.505
-0.405
-0.345
-0.24
-0.335
-0.365
-0.455
-0.46
-0.575
-0.475
-0.36
-0.32
-0.375
-0.19
-0.2
-0.315
-0.46
-0.5
-0.51
-0.435
-0.345
-0.26
-0.245
-0.16
-0.195
-0.27
-0.405
-0.415
-0.45
-0.4
-0.325
-0.25
-0.225
-0.16
-0.18
-0.27
-0.405
-0.41
-0.44
-0.305
-0.27
-0.24
-0.21
-0.105
-0.22
-0.215
-0.385
-0.365
-0.405
-0.33
-0.2
-0.175
-0.18
-0.095
-0.105
-0.29
-0.35
-0.36
-0.35
-0.32
-0.21
-0.145
-0.105
-0.055
-0.16
-0.2
-0.29
-0.295
-0.335
-0.29
-0.255
-0.095
0.0
-0.01
-0.06
-0.13
-0.21
-0.295
-0.365
-0.185
-0.065
0.045
0.09
0.0
-0.065
-0.14
-0.205
-0.19
-0.205
-0.115
0.005
0.12
0.065
0.065
0.09
0.03
-0.12
-0.185
-0.15
-0.135
-0.03
0.085
0.175
0.145
0.12
-0.01
-0.095
-0.165
-0.12
-0.085
0.095
-0.01
0.145
0.145
-0.005
-0.06
-0.145
-0.215
-0.175
-0.145
-0.015
0.0
0.08
0.05
-0.045
-0.155
-0.26
-0.295
-0.23
-0.3
-0.105
0.035
0.07
-0.075
-0.16
-0.235
-0.255
-0.265
-0.28
-0.16
-0.06
-0.115
0.015
-0.06
-0.135
-0.27
-0.305
-0.355
-0.275
-0.23
-0.12
-0.11
0.02
-0.1
-0.13
-0.28
-0.27
-0.325
-0.28
-0.25
-0.145
-0.11
-0.04
-0.085
-0.165
-0.16
-0.23
-0.34
-0.23
-0.22
-0.07
-0.085
-0.075
-0.06
-0.165
-0.32
-0.24
-0.305
-0.285
-0.205
-0.1
-0.08
-0.005
-0.055
-0.16
-0.26
-0.29
-0.31
-0.27
-0.195
-0.125
-0.035
-0.005
-0.02
-0.145
-0.275
-0.255
-0.315
-0.26
-0.17
-0.065
-0.105
-0.015
-0.07
-0.21
-0.225
-0.27
-0.31
-0.255
-0.195
-0.05
0.045
-0.035
-0.075
-0.14
-0.25
-0.295
-0.31
-0.24
-0.215
-0.1
-0.1
-0.04
-0.11
-0.185
-0.28
-0.335
-0.335
-0.245
-0.215
-0.135
-0.09
-0.05
-0.08
-0.16
-0.245
-0.305
-0.29
-0.185
-0.17
-0.075
-0.02
-0.005
-0.115
-0.17
-0.26
-0.345
-0.355
-0.335
-0.105
-0.035
0.02
0.065
0.015
-0.18
-0.19
-0.225
-0.275
-0.26
-0.13
-0.14
-0.125
-0.06
-0.15
-0.185
-0.24
-0.295
-0.3
-0.175
-0.19
-0.135
-0.09
-0.155
-0.18
-0.29
-0.3
-0.295
-0.255
-0.255
-0.195
-0.155
-0.09
-0.205
-0.135
-0.18
-0.245
-0.44
-0.335
-0.26
-0.14
-0.15
-0.1
-0.17
-0.165
-0.25
-0.41
-0.44
-0.32
-0.14
-0.1
-0.13
-0.065
-0.115
-0.28
-0.33
-0.365
-0.525
-0.365
-0.235
-0.245
-0.24
-0.225
-0.15
-0.35
-0.295
-0.39
-0.43
-0.39
-0.29
-0.26
-0.285
-0.22
-0.23
-0.33
-0.405
-0.43
-0.52
-0.465
-0.385
-0.3
-0.25
-0.145
-0.135
-0.225
-0.315
-0.28
-0.28
-0.23
-0.075
0.03
-0.11
-0.085
-0.055
-0.19
-0.275
-0.395
-0.455
-0.415
-0.465
-0.47
-0.355
-0.26
-0.33
-0.475
-0.54
-0.49
-0.585
-0.615
-0.44
-0.405
-0.345
-0.345
-0.375
-0.445
-0.56
-0.56
-0.69
-0.565
-0.45
-0.375
-0.34
-0.265
-0.36
-0.445
-0.525
-0.585
-0.635
-0.575
-0.545
-0.46
-0.375
-0.265
-0.345
-0.365
-0.46
-0.53
-0.555
-0.515
-0.32
-0.25
-0.27
-0.215
-0.33
-0.42
-0.475
-0.49
-0.52
-0.42
-0.34
-0.245
-0.255
-0.205
-0.335
-0.41
-0.44
-0.41
-0.515
-0.465
-0.36
-0.275
-0.245
-0.255
-0.3
-0.41
-0.505
-0.555
-0.48
-0.405
-0.27
-0.26
-0.195
-0.205
-0.24
-0.36
-0.395
-0.43
-0.4
-0.365
-0.235
-0.18
-0.145
-0.205
-0.205
-0.29
-0.21
-0.335
-0.36
-0.285
-0.19
-0.11
-0.035
-0.055
-0.15
-0.25
-0.3
-0.305
-0.235
-0.205
-0.14
-0.06
-0.02
0.0
-0.14
-0.23
-0.24
-0.195
-0.195
-0.115
-0.125
-0.035
0.055
-0.01
-0.105
-0.125
-0.19
-0.25
-0.2
-0.15
-0.08
-0.03
0.015
0.025
-0.095
-0.195
-0.17
-0.275
-0.215
-0.195
-0.095
-0.07
-0.05
-0.11
-0.115
-0.285
-0.305
-0.36
-0.29
-0.29
-0.17
-0.165
-0.085
-0.21
-0.23
-0.31
-0.34
-0.445
-0.37
-0.27
-0.205
-0.17
-0.14
-0.205
-0.28
-0.4
-0.385
-0.455
-0.4
-0.305
-0.22
-0.19
-0.135
-0.155
-0.3
-0.395
-0.435
-0.465
-0.385
-0.3
-0.225
-0.2
-0.155
-0.235
-0.27
-0.345
-0.41
-0.44
-0.35
-0.315
-0.235
-0.17
-0.16
-0.18
-0.28
-0.335
-0.485
-0.475
-0.37
-0.23
-0.14
-0.135
-0.19
-0.175
-0.225
-0.335
-0.385
-0.415
-0.475
-0.255
-0.16
-0.155
-0.165
-0.17
-0.245
-0.265
-0.34
-0.365
-0.395
-0.32
-0.205
-0.14
-0.17
-0.125
-0.26
-0.365
-0.38
-0.4
-0.315
-0.23
-0.14
-0.16
-0.16
-0.215
-0.295
-0.36
-0.435
-0.425
-0.26
-0.22
-0.13
-0.155
-0.085
-0.255
-0.375
-0.385
-0.4
-0.355
-0.315
-0.27
-0.17
-0.15
-0.125
-0.24
-0.3
-0.4
-0.38
-0.39
-0.31
-0.3
-0.195
-0.175
-0.135
-0.23
-0.36
-0.345
-0.445
-0.45
-0.35
-0.175
-0.145
-0.14
-0.195
-0.28
-0.325
-0.36
-0.465
-0.41
-0.28
-0.215
-0.195
-0.13
-0.115
-0.215
-0.35
-0.315
-0.405
-0.42
-0.26
-0.225
-0.125
-0.08
-0.14
-0.215
-0.37
-0.305
-0.39
-0.33
-0.245
-0.18
-0.185
-0.085
-0.165
-0.265
-0.33
-0.345
-0.41
-0.385
-0.28
-0.23
-0.28
-0.16
-0.245
-0.27
-0.375
-0.335
-0.445
-0.325
-0.35
-0.225
-0.19
-0.2
-0.195
-0.235
-0.335
-0.37
-0.42
-0.37
-0.345
-0.225
-0.27
-0.135
-0.17
-0.275
-0.365
-0.4
-0.405
-0.355
-0.365
-0.195
-0.195
-0.14
-0.2
-0.305
-0.355
-0.425
-0.49
-0.375
-0.29
-0.15
-0.18
-0.115
-0.185
-0.35
-0.38
-0.39
-0.4
-0.345
-0.295
-0.2
-0.16
-0.165
-0.25
-0.27
-0.425
-0.4
-0.41
-0.295
-0.21
-0.185
-0.005
0.03
0.01
-0.095
-0.125
-0.09
-0.045
0.045
0.115
0.21
0.08
0.06
-0.045
-0.035
-0.14
-0.29
-0.28
-0.26
-0.21
-0.26
-0.18
-0.16
-0.24
-0.28
-0.42
-0.455
-0.425
-0.32
-0.25
-0.2
-0.155
-0.175
-0.235
-0.37
-0.36
-0.435
-0.475
-0.355
-0.245
-0.235
-0.13
-0.18
-0.215
-0.36
-0.38
-0.46
-0.35
-0.31
-0.32
-0.255
-0.095
-0.23
-0.275
-0.32
-0.39
-0.425
-0.465
-0.28
-0.195
-0.22
-0.135
-0.14
-0.265
-0.295
-0.4
-0.45
-0.365
-0.275
-0.235
-0.17
-0.13
-0.145
-0.255
-0.335
-0.425
-0.405
-0.36
-0.305
-0.185
-0.23
-0.13
-0.155
-0.23
-0.375
-0.42
-0.41
-0.35
-0.355
-0.245
-0.15
-0.15
-0.155
-0.225
-0.315
-0.375
-0.505
-0.375
-0.31
-0.225
-0.175
-0.02
-0.115
-0.19
-0.3
-0.32
-0.415
-0.315
-0.205
-0.16
-0.12
-0.05
-0.08
-0.16
-0.265
-0.295
-0.32
-0.26
-0.21
-0.145
-0.045
-0.025
-0.095
-0.165
-0.24
-0.295
-0.31
-0.29
-0.235
0.0
0.02
0.045
-0.015
-0.16
-0.185
-0.285
-0.315
-0.195
-0.185
-0.115
-0.025
0.03
-0.01
-0.205
-0.32
-0.26
-0.32
-0.26
-0.165
-0.16
-0.14
-0.04
-0.2
-0.28
-0.33
-0.395
-0.43
-0.345
-0.27
-0.255
-0.175
-0.14
-0.22
-0.4
-0.425
-0.48
-0.47
-0.39
-0.23
-0.24
-0.25
-0.205
-0.3
-0.39
-0.45
-0.52
-0.515
-0.45
-0.425
-0.29
-0.275
-0.17
-0.335
-0.415
-0.46
-0.555
-0.52
-0.415
-0.355
-0.255
-0.18
-0.26
-0.345
-0.465
-0.5
-0.495
-0.53
-0.445
-0.38
-0.31
-0.16
-0.4
-0.315
-0.42
-0.5
-0.565
-0.505
-0.4
-0.27
-0.38
-0.22
-0.26
-0.415
-0.465
-0.49
-0.585
-0.465
-0.38
-0.37
-0.36
-0.215
-0.27
-0.425
-0.45
-0.485
-0.66
-0.51
-0.44
-0.37
-0.295
-0.31
-0.345
-0.37
-0.47
-0.485
-0.62
-0.565
-0.495
-0.34
-0.36
-0.35
-0.335
-0.43
-0.535
-0.56
-0.59
-0.46
-0.51
-0.395
-0.36
-0.305
-0.355
-0.43
-0.485
-0.54
-0.605
-0.61
-0.525
-0.345
-0.355
-0.325
-0.37
-0.45
-0.595
-0.585
-0.62
-0.615
-0.48
-0.45
-0.42
-0.34
-0.405
-0.47
-0.585
-0.595
-0.645
-0.645
-0.515
-0.395
-0.39
-0.435
-0.48
-0.565
-0.64
-0.59
-0.72
-0.605
-0.545
-0.445
-0.445
-0.435
-0.455
-0.58
-0.64
-0.655
-0.625
-0.635
-0.595
-0.575
-0.485
-0.435
-0.51
-0.64
-0.695
-0.775
-0.735
-0.705
-0.66
-0.535
-0.595
-0.57
-0.665
-0.73
-0.87
-0.895
-0.93
-0.905
-0.845
-0.685
-0.75
-0.73
-0.84
-0.88
-0.975
-1.085
-1.105
-1.09
-0.97
-1.045
-0.815
-0.905
-0.98
-1.09
-1.19
-1.22
-1.275
-1.22
-1.085
-1.08
-1.08
-1.08
-1.2
-1.295
-1.33
-1.385
-1.44
-1.405
-1.23
-1.295
-1.195
-1.165
-1.28
-1.36
-1.38
-1.505
-1.46
-1.38
-1.35
-1.285
-1.195
-1.28
-1.305
-1.395
-1.485
-1.57
-1.575
-1.405
-1.25
-1.28
-1.185
-1.275
-1.35
-1.445
-1.49
-1.57
-1.51
-1.36
-1.315
-1.21
-1.23
-1.315
-1.34
-1.42
-1.5
-1.585
-1.46
-1.365
-1.28
-1.24
-1.205
-1.235
-1.33
-1.355
-1.38
-1.435
-1.35
-1.235
-1.11
-0.98
-0.94
-0.955
-1.085
-1.13
-1.26
-1.36
-1.285
-1.26
-1.205
-1.23
-1.175
-1.315
-1.435
-1.62
-1.615
-1.645
-1.61
-1.555
-1.425
-1.435
-1.36
-1.275
-1.34
-1.43
-1.525
-1.575
-1.485
-1.435
-1.33
-1.3
-1.195
-1.32
-1.32
-1.485
-1.5
-1.56
-1.435
-1.39
-1.31
-1.305
-1.19
-1.2
-1.405
-1.52
-1.43
-1.55
-1.495
-1.345
-1.2
-1.215
-1.24
-1.28
-1.37
-1.505
-1.5
-1.55
-1.465
-1.395
-1.25
-1.22
-1.175
-1.27
-1.31
-1.385
-1.53
-1.61
-1.495
-1.375
-1.36
-1.28
-1.29
-1.36
-1.435
-1.51
-1.56
-1.54
-1.465
-1.325
-1.28
-1.25
-1.265
-1.375
-1.47
-1.52
-1.48
-1.54
-1.43
-1.345
-1.33
-1.15
-1.175
-1.305
-1.405
-1.47
-1.485
-1.55
-1.52
-1.37
-1.19
-1.16
-1.15
-1.24
-1.23
-1.395
-1.415
-1.355
-1.34
-1.255
-1.2
-1.05
-1.115
-1.09
-1.17
-1.19
-1.315
-1.365
-1.345
-1.26
-1.235
-1.225
-1.365
-1.54
-1.52
-1.585
-1.535
-1.475
-1.405
-1.275
-1.15
-1.08
-1.095
-1.225
-1.32
-1.315
-1.43
-1.29
-1.205
-1.14
-1.07
-0.945
-1.1
-1.095
-1.185
-1.195
-1.32
-1.25
-1.105
-1.055
-1.005
-0.905
-1.005
-1.12
-1.195
-1.135
-1.235
-1.18
-1.105
-1.02
-0.96
-0.81
-0.9
-1.03
-1.135
-1.105
-1.225
-1.045
-0.9
-0.92
-0.88
-0.775
-0.78
-0.915
-0.945
-1.025
-1.065
-1.06
-0.95
-0.85
-0.815
-0.74
-0.74
-0.85
-1.015
-0.965
-0.975
-0.85
-0.76
-0.685
-0.635
-0.605
-0.605
-0.705
-0.735
-0.865
-0.955
-0.77
-0.735
-0.72
-0.575
-0.57
-0.605
-0.71
-0.805
-0.77
-0.855
-0.7
-0.625
-0.55
-0.475
-0.455
-0.44
-0.55
-0.625
-0.67
-0.7
-0.57
-0.52
-0.43
-0.43
-0.42
-0.48
-0.6
-0.64
-0.61
-0.615
-0.54
-0.485
-0.365
-0.265
-0.29
-0.29
-0.41
-0.505
-0.465
-0.49
-0.54
-0.43
-0.3
-0.19
-0.285
-0.28
-0.345
-0.39
-0.46
-0.555
-0.55
-0.41
-0.31
-0.23
-0.18
-0.305
-0.335
-0.42
-0.475
-0.49
-0.295
-0.21
-0.18
-0.14
-0.14
-0.125
-0.225
-0.345
-0.345
-0.3
-0.21
-0.125
-0.08
-0.005
0.03
-0.05
-0.13
-0.175
-0.205
-0.17
-0.115
-0.065
0.06
0.14
0.085
0.105
-0.085
-0.17
-0.175
-0.11
-0.03
0.075
0.145
0.205
0.2
0.1
0.04
0.015
-0.145
-0.025
-0.02
0.17
0.235
0.265
0.195
0.145
0.055
-0.045
-0.03
0.025
0.095
0.14
0.22
0.365
0.22
0.145
0.05
0.05
-0.025
0.06
0.155
0.235
0.225
0.295
0.29
0.17
0.075
0.07
-0.045
0.105
0.155
0.24
0.275
0.345
0.25
0.19
0.065
0.04
-0.05
0.065
0.2
0.275
0.28
0.375
0.33
0.19
0.125
0.185
0.04
0.055
0.24
0.32
0.385
0.41
0.4
0.255
0.15
0.125
0.125
0.175
0.355
0.38
0.41
0.445
0.44
0.295
0.3
0.25
0.22
0.335
0.45
0.595
0.565
0.715
0.63
0.59
0.61
0.52
0.37
0.52
0.545
0.635
0.65
0.705
0.53
0.455
0.325
0.205
0.17
0.21
0.31
0.34
0.455
0.495
0.395
0.385
0.365
0.27
0.22
0.3
0.385
0.51
0.55
0.53
0.5
0.405
0.37
0.32
0.255
0.335
0.445
0.52
0.56
0.555
0.49
0.395
0.305
0.305
0.285
0.34
0.425
0.52
0.525
0.465
0.405
0.315
0.255
0.21
0.2
0.26
0.375
0.45
0.505
0.56
0.455
0.435
0.325
0.24
0.25
0.36
0.46
0.47
0.58
0.545
0.43
0.325
0.315
0.19
0.275
0.33
0.375
0.445
0.525
0.39
0.3
0.305
0.28
0.09
0.12
0.235
0.27
0.375
0.525
0.415
0.3
0.24
0.25
0.09
0.18
0.275
0.4
0.36
0.515
0.48
0.4
0.295
0.29
0.235
0.31
0.46
0.515
0.64
0.63
0.605
0.565
0.415
0.375
0.12
0.085
0.025
0.005
0.0
-0.08
-0.32
-0.435
-0.6
-0.62
-0.54
-0.35
-0.195
-0.055
0.085
0.18
0.14
0.115
0.055
0.005
-0.01
0.14
0.175
0.29
0.3
0.39
0.38
0.22
0.155
0.25
0.155
0.2
0.335
0.375
0.45
0.485
0.455
0.35
0.275
0.22
0.235
0.23
0.28
0.43
0.45
0.515
0.44
0.455
0.31
0.27
0.17
0.36
0.395
0.515
0.55
0.55
0.505
0.355
0.285
0.265
0.28
0.32
0.475
0.495
0.59
0.575
0.5
0.46
0.38
0.38
0.32
0.395
0.5
0.535
0.605
0.625
0.53
0.415
0.335
0.315
0.39
0.49
0.545
0.58
0.74
0.62
0.63
0.555
0.42
0.3
0.385
0.32
0.385
0.52
0.505
0.29
0.21
0.065
-0.105
-0.27
-0.305
-0.22
-0.105
-0.135
-0.21
-0.385
-0.36
-0.315
-0.295
-0.34
-0.27
-0.1
0.0
0.1
0.23
0.215
0.14
0.04
0.05
0.01
0.045
0.185
0.265
0.285
0.335
0.345
0.42
0.37
0.18
0.145
0.27
0.28
0.405
0.46
0.475
0.525
0.435
0.27
0.29
0.235
0.285
0.385
0.48
0.52
0.61
0.61
0.51
0.41
0.35
0.335
0.38
0.43
0.575
0.545
0.665
0.625
0.53
0.42
0.41
0.375
0.48
0.505
0.63
0.66
0.7
0.725
0.665
0.47
0.48
0.465
0.53
0.61
0.74
0.665
0.805
0.675
0.715
0.58
0.485
0.505
0.555
0.665
0.695
0.775
0.78
0.775
0.68
0.63
0.58
0.54
0.58
0.675
0.745
0.77
0.81
0.745
0.66
0.615
0.605
0.515
0.55
0.625
0.78
0.745
0.875
0.8
0.73
0.575
0.59
0.59
0.595
0.725
0.765
0.85
0.87
0.855
0.765
0.63
0.61
0.55
0.58
0.775
0.92
0.875
0.9
0.8
0.855
0.67
0.62
0.615
0.68
0.8
0.89
0.93
0.97
0.845
0.715
0.75
0.74
0.76
0.69
0.76
0.9
0.965
0.945
0.86
0.795
0.74
0.71
0.67
0.75
0.865
0.91
1.015
0.995
1.005
0.93
0.92
0.865
0.95
1.01
1.165
1.29
1.375
1.34
1.245
1.09
1.04
0.965
1.04
1.005
1.075
0.985
1.065
0.92
0.92
0.875
0.76
0.67
0.72
0.79
0.895
0.93
1.045
1.05
0.92
0.79
0.84
0.75
0.7
0.84
0.995
0.985
1.025
1.0
0.88
0.84
0.805
0.7
0.835
0.81
0.855
0.995
1.075
0.945
0.88
0.775
0.81
0.77
0.835
0.875
0.985
1.07
1.095
0.985
0.895
0.78
0.805
0.725
0.835
0.87
0.96
1.06
1.095
1.035
1.0
0.845
0.785
0.78
0.855
0.9
0.97
0.99
1.13
0.975
0.945
0.855
0.805
0.76
0.94
0.93
1.035
1.06
1.16
1.025
0.985
0.865
0.84
0.785
0.855
0.925
1.07
1.085
1.13
1.085
0.94
0.925
0.875
0.825
0.885
1.0
1.075
1.155
1.155
1.165
1.095
0.93
0.92
0.92
1.025
1.07
1.12
1.17
1.245
1.21
1.055
0.935
1.03
1.035
0.99
1.095
1.13
1.28
1.335
1.24
1.12
1.05
1.025
1.035
1.005
1.135
1.215
1.265
1.24
1.265
1.17
1.06
0.945
0.92
0.985
1.115
1.16
1.205
1.235
1.145
1.065
0.865
0.88
0.915
0.915
1.04
1.105
1.135
1.13
1.005
0.88
0.865
0.8
0.885
0.905
1.01
1.03
1.075
1.04
1.0
0.925
0.89
0.795
0.81
0.81
0.93
1.04
1.065
1.02
0.985
0.91
0.885
0.81
0.84
0.79
0.93
1.005
1.065
1.06
1.015
0.85
0.845
0.735
0.77
0.865
0.985
0.91
1.02
1.05
0.985
0.8
0.77
0.745
0.83
0.875
1.005
1.05
1.085
0.99
0.91
0.765
0.86
0.69
0.825
0.925
0.955
0.945
1.15
1.025
0.965
0.885
0.76
0.755
0.81
0.85
0.995
1.015
1.11
1.06
0.935
0.865
0.815
0.75
0.82
0.855
0.945
0.985
1.065
0.95
0.94
0.84
0.765
0.685
0.835
0.88
1.005
1.005
1.05
1.015
0.92
0.8
0.74
0.675
0.765
0.88
0.925
0.945
1.1
0.96
0.905
0.79
0.75
0.745
0.78
0.81
0.995
1.01
1.015
0.92
0.975
0.815
0.775
0.655
0.75
0.88
0.945
0.995
1.02
0.97
0.865
0.785
0.68
0.595
0.735
0.83
0.94
0.92
0.975
0.875
0.83
0.775
0.72
0.725
0.745
0.84
0.935
0.96
0.98
0.93
0.825
0.77
0.75
0.72
0.76
0.835
0.95
1.01
1.035
0.905
0.88
0.835
0.78
0.795
0.76
0.92
0.985
0.98
0.995
0.975
0.84
0.75
0.64
0.815
0.845
0.845
0.915
0.99
1.055
0.92
0.77
0.775
0.715
0.725
0.775
0.91
0.96
1.005
0.91
0.83
0.785
0.73
0.64
0.72
0.74
0.845
0.85
0.975
0.94
0.91
0.77
0.735
0.655
0.695
0.775
0.855
0.865
0.955
0.925
0.85
0.8
0.715
0.6
0.72
0.77
0.8
0.865
1.0
0.88
0.855
0.78
0.715
0.64
0.765
0.76
0.865
0.935
1.015
0.91
0.805
0.76
0.71
0.63
0.71
0.755
0.865
0.865
0.94
0.93
0.86
0.77
0.725
0.63
0.72
0.825
0.905
0.885
1.005
1.04
0.95
0.915
0.875
0.8
0.93
1.01
1.24
1.295
1.365
1.17
1.08
0.985
0.96
0.885
0.91
0.92
0.99
0.89
0.805
0.9
0.805
0.72
0.685
0.65
0.685
0.795
0.905
0.87
0.925
0.84
0.795
0.695
0.675
0.58
0.73
0.785
0.84
0.88
0.92
0.82
0.705
0.66
0.655
0.625
0.685
0.78
0.85
0.875
0.92
0.86
0.73
0.705
0.625
0.68
0.675
0.74
0.825
0.92
0.925
0.895
0.76
0.635
0.675
0.655
0.63
0.79
0.87
0.915
0.88
0.855
0.78
0.66
0.57
0.585
0.565
0.615
0.675
0.69
0.685
0.585
0.43
0.31
0.265
0.34
0.48
0.585
0.615
0.69
0.67
0.685
0.595
0.485
0.515
0.49
0.575
0.695
0.75
0.775
0.79
0.695
0.645
0.57
0.52
0.525
0.64
0.77
0.83
0.825
0.79
0.685
0.62
0.515
0.43
0.465
0.585
0.795
0.81
0.86
0.855
0.8
0.72
0.68
0.58
0.665
0.755
0.92
0.96
1.015
0.87
0.82
0.77
0.695
0.59
0.765
0.785
0.875
0.93
0.985
0.93
0.87
0.68
0.69
0.735
0.685
0.765
0.805
0.905
0.945
0.865
