# TIPE ECG 2021 - ECG-ID Database v1.0.0 par Physionet
# [N° de la personne, N° de l'enregistrement, Période d'échantillonnage, Prénom, Age, Sexe, Date de l'enregistrement]
[56, 1, 0.002, "Suzanne", 21, "F", "12.05.2005"]
-0.73
-0.74
-0.725
-0.72
-0.765
-0.74
-0.72
-0.755
-0.76
-0.735
-0.745
-0.735
-0.765
-0.76
-0.75
-0.77
-0.745
-0.755
-0.695
-0.7
-0.71
-0.755
-0.74
-0.73
-0.775
-0.79
-0.77
-0.725
-0.755
-0.75
-0.695
-0.69
-0.765
-0.72
-0.77
-0.76
-0.73
-0.7
-0.7
-0.72
-0.78
-0.735
-0.69
-0.725
-0.74
-0.745
-0.73
-0.735
-0.675
-0.665
-0.695
-0.77
-0.71
-0.705
-0.71
-0.725
-0.71
-0.7
-0.705
-0.715
-0.705
-0.675
-0.71
-0.7
-0.69
-0.695
-0.715
-0.745
-0.7
-0.71
-0.69
-0.71
-0.745
-0.685
-0.69
-0.705
-0.69
-0.625
-0.625
-0.73
-0.65
-0.69
-0.7
-0.675
-0.68
-0.69
-0.68
-0.665
-0.675
-0.685
-0.66
-0.655
-0.695
-0.685
-0.71
-0.615
-0.675
-0.645
-0.68
-0.685
-0.685
-0.64
-0.685
-0.725
-0.605
-0.64
-0.62
-0.645
-0.675
-0.715
-0.655
-0.66
-0.63
-0.665
-0.62
-0.7
-0.685
-0.695
-0.635
-0.68
-0.64
-0.67
-0.67
-0.64
-0.685
-0.65
-0.64
-0.62
-0.58
-0.625
-0.675
-0.645
-0.66
-0.655
-0.68
-0.655
-0.685
-0.7
-0.665
-0.61
-0.635
-0.6
-0.64
-0.66
-0.65
-0.65
-0.645
-0.595
-0.655
-0.64
-0.665
-0.64
-0.63
-0.635
-0.635
-0.625
-0.655
-0.6
-0.56
-0.57
-0.65
-0.74
-0.67
-0.63
-0.6
-0.695
-0.605
-0.6
-0.625
-0.605
-0.625
-0.64
-0.62
-0.61
-0.67
-0.55
-0.685
-0.595
-0.59
-0.61
-0.605
-0.665
-0.565
-0.55
-0.58
-0.595
-0.54
-0.525
-0.56
-0.545
-0.525
-0.53
-0.61
-0.58
-0.56
-0.6
-0.565
-0.545
-0.635
-0.59
-0.6
-0.61
-0.61
-0.62
-0.62
-0.62
-0.615
-0.61
-0.61
-0.61
-0.605
-0.61
-0.63
-0.59
-0.615
-0.57
-0.575
-0.625
-0.645
-0.58
-0.58
-0.625
-0.635
-0.645
-0.655
-0.64
-0.59
-0.63
-0.575
-0.615
-0.615
-0.56
-0.595
-0.615
-0.605
-0.585
-0.605
-0.615
-0.605
-0.545
-0.6
-0.59
-0.62
-0.63
-0.625
-0.645
-0.625
-0.71
-0.705
-0.71
-0.615
-0.585
-0.575
-0.355
-0.285
-0.145
-0.025
0.05
0.175
0.2
0.26
0.355
0.39
0.38
0.325
0.3
0.205
0.065
-0.005
-0.125
-0.15
-0.205
-0.32
-0.49
-0.565
-0.535
-0.555
-0.55
-0.52
-0.46
-0.49
-0.57
-0.515
-0.555
-0.55
-0.585
-0.59
-0.57
-0.545
-0.54
-0.525
-0.61
-0.645
-0.535
-0.525
-0.52
-0.545
-0.54
-0.515
-0.545
-0.505
-0.545
-0.535
-0.6
-0.585
-0.52
-0.52
-0.55
-0.555
-0.53
-0.55
-0.525
-0.55
-0.535
-0.55
-0.54
-0.525
-0.525
-0.52
-0.47
-0.52
-0.51
-0.52
-0.54
-0.51
-0.53
-0.51
-0.555
-0.515
-0.53
-0.55
-0.48
-0.52
-0.52
-0.525
-0.505
-0.515
-0.53
-0.535
-0.47
-0.475
-0.485
-0.485
-0.475
-0.47
-0.445
-0.455
-0.49
-0.475
-0.46
-0.44
-0.485
-0.53
-0.5
-0.45
-0.43
-0.435
-0.46
-0.455
-0.42
-0.43
-0.385
-0.4
-0.405
-0.42
-0.415
-0.435
-0.405
-0.375
-0.345
-0.345
-0.345
-0.38
-0.405
-0.39
-0.33
-0.275
-0.315
-0.305
-0.29
-0.315
-0.25
-0.255
-0.29
-0.27
-0.255
-0.235
-0.215
-0.22
-0.235
-0.175
-0.24
-0.305
-0.22
-0.245
-0.205
-0.235
-0.24
-0.185
-0.25
-0.225
-0.255
-0.235
-0.235
-0.29
-0.29
-0.295
-0.235
-0.245
-0.32
-0.325
-0.375
-0.41
-0.365
-0.375
-0.39
-0.37
-0.38
-0.37
-0.405
-0.47
-0.45
-0.41
-0.38
-0.41
-0.41
-0.43
-0.51
-0.405
-0.4
-0.45
-0.43
-0.41
-0.46
-0.4
-0.45
-0.455
-0.43
-0.38
-0.41
-0.435
-0.415
-0.42
-0.44
-0.43
-0.44
-0.395
-0.46
-0.43
-0.455
-0.44
-0.4
-0.405
-0.385
-0.43
-0.39
-0.41
-0.455
-0.41
-0.47
-0.38
-0.43
-0.44
-0.38
-0.395
-0.395
-0.425
-0.44
-0.4
-0.395
-0.415
-0.44
-0.465
-0.41
-0.395
-0.385
-0.405
-0.405
-0.41
-0.435
-0.425
-0.445
-0.41
-0.425
-0.42
-0.385
-0.38
-0.415
-0.455
-0.41
-0.425
-0.45
-0.415
-0.425
-0.42
-0.41
-0.38
-0.375
-0.405
-0.44
-0.415
-0.405
-0.41
-0.39
-0.38
-0.38
-0.385
-0.395
-0.44
-0.355
-0.385
-0.39
-0.41
-0.39
-0.355
-0.395
-0.43
-0.43
-0.36
-0.33
-0.35
-0.41
-0.415
-0.355
-0.37
-0.395
-0.375
-0.38
-0.385
-0.375
-0.41
-0.405
-0.345
-0.32
-0.355
-0.395
-0.36
-0.29
-0.355
-0.415
-0.4
-0.38
-0.385
-0.375
-0.385
-0.37
-0.355
-0.37
-0.33
-0.385
-0.4
-0.33
-0.34
-0.31
-0.375
-0.415
-0.325
-0.355
-0.34
-0.34
-0.39
-0.38
-0.315
-0.37
-0.365
-0.335
-0.325
-0.355
-0.33
-0.365
-0.35
-0.33
-0.355
-0.32
-0.31
-0.355
-0.385
-0.315
-0.325
-0.365
-0.33
-0.335
-0.36
-0.365
-0.34
-0.32
-0.35
-0.37
-0.315
-0.305
-0.3
-0.31
-0.39
-0.32
-0.26
-0.295
-0.325
-0.36
-0.365
-0.285
-0.305
-0.31
-0.29
-0.275
-0.34
-0.29
-0.345
-0.34
-0.305
-0.33
-0.315
-0.325
-0.31
-0.285
-0.325
-0.345
-0.29
-0.265
-0.255
-0.29
-0.36
-0.3
-0.27
-0.28
-0.295
-0.29
-0.315
-0.315
-0.265
-0.305
-0.27
-0.28
-0.195
-0.2
-0.285
-0.255
-0.255
-0.24
-0.26
-0.275
-0.315
-0.2
-0.225
-0.225
-0.24
-0.225
-0.255
-0.22
-0.27
-0.31
-0.295
-0.29
-0.285
-0.235
-0.305
-0.245
-0.28
-0.275
-0.29
-0.27
-0.22
-0.23
-0.28
-0.355
-0.34
-0.29
-0.295
-0.32
-0.295
-0.275
-0.28
-0.31
-0.295
-0.275
-0.31
-0.305
-0.275
-0.3
-0.3
-0.265
-0.27
-0.305
-0.31
-0.27
-0.295
-0.295
-0.265
-0.24
-0.23
-0.295
-0.295
-0.31
-0.31
-0.305
-0.28
-0.245
-0.24
-0.305
-0.305
-0.36
-0.4
-0.37
-0.36
-0.31
-0.26
-0.205
-0.065
0.105
0.21
0.325
0.375
0.495
0.585
0.585
0.58
0.6
0.615
0.6
0.545
0.435
0.28
0.195
0.13
0.065
0.015
-0.125
-0.225
-0.29
-0.285
-0.245
-0.265
-0.275
-0.25
-0.235
-0.195
-0.23
-0.255
-0.275
-0.285
-0.23
-0.295
-0.3
-0.235
-0.265
-0.295
-0.315
-0.23
-0.245
-0.26
-0.295
-0.285
-0.31
-0.255
-0.28
-0.26
-0.2
-0.27
-0.28
-0.235
-0.265
-0.255
-0.24
-0.23
-0.29
-0.3
-0.235
-0.2
-0.185
-0.265
-0.28
-0.28
-0.245
-0.27
-0.195
-0.22
-0.265
-0.26
-0.21
-0.25
-0.275
-0.23
-0.23
-0.205
-0.24
-0.23
-0.17
-0.215
-0.245
-0.195
-0.19
-0.17
-0.22
-0.245
-0.255
-0.21
-0.225
-0.22
-0.18
-0.22
-0.185
-0.17
-0.185
-0.185
-0.15
-0.205
-0.205
-0.165
-0.145
-0.18
-0.19
-0.215
-0.125
-0.105
-0.135
-0.115
-0.085
-0.105
-0.115
-0.17
-0.135
-0.075
-0.085
-0.08
-0.1
-0.115
-0.085
-0.045
-0.03
-0.06
-0.12
-0.015
-0.005
0.03
0.005
-0.01
0.03
0.075
0.11
0.08
0.01
-0.005
0.065
0.02
0.04
0.07
0.09
0.055
0.105
0.095
0.075
0.055
0.025
0.06
0.03
-0.01
0.03
0.01
-0.035
0.0
-0.04
-0.02
-0.02
-0.055
-0.075
-0.1
-0.11
-0.12
-0.145
-0.095
-0.125
-0.16
-0.11
-0.1
-0.13
-0.125
-0.155
-0.165
-0.165
-0.135
-0.13
-0.16
-0.19
-0.165
-0.2
-0.175
-0.185
-0.195
-0.215
-0.145
-0.185
-0.175
-0.17
-0.135
-0.165
-0.135
-0.125
-0.18
-0.145
-0.18
-0.19
-0.125
-0.12
-0.075
-0.155
-0.17
-0.145
-0.16
-0.12
-0.17
-0.155
-0.14
-0.175
-0.135
-0.09
-0.085
-0.145
-0.1
-0.125
-0.145
-0.22
-0.14
-0.095
-0.175
-0.145
-0.115
-0.15
-0.15
-0.13
-0.17
-0.145
-0.105
-0.085
-0.135
-0.165
-0.13
-0.13
-0.115
-0.12
-0.08
-0.12
-0.13
-0.16
-0.135
-0.18
-0.145
-0.095
-0.1
-0.07
-0.08
-0.095
-0.115
-0.18
-0.11
-0.085
-0.145
-0.125
-0.115
-0.12
-0.08
-0.125
-0.065
-0.095
-0.105
-0.15
-0.1
-0.13
-0.08
-0.11
-0.16
-0.085
-0.08
-0.105
-0.1
-0.075
-0.06
-0.09
-0.115
-0.125
-0.125
-0.12
-0.11
-0.095
-0.1
-0.095
-0.05
-0.115
-0.075
-0.105
-0.11
-0.085
-0.11
-0.11
-0.095
-0.1
-0.09
-0.11
-0.145
-0.115
-0.05
-0.16
-0.11
-0.095
-0.115
-0.125
-0.055
-0.06
-0.12
-0.105
-0.095
-0.065
-0.105
-0.1
-0.04
-0.1
-0.165
-0.11
-0.08
-0.08
-0.075
-0.115
-0.085
-0.045
-0.085
-0.13
-0.065
-0.065
-0.11
-0.085
-0.15
-0.085
-0.12
-0.075
-0.085
-0.07
-0.085
-0.09
0.01
-0.155
-0.1
-0.11
-0.085
-0.08
-0.075
-0.075
-0.095
-0.095
-0.03
-0.04
-0.1
-0.09
-0.04
-0.11
-0.015
-0.005
-0.065
-0.085
-0.06
-0.125
-0.07
-0.1
-0.05
-0.025
-0.09
-0.08
-0.08
0.01
0.005
-0.015
-0.07
-0.025
-0.015
-0.005
0.005
0.015
0.025
-0.035
0.05
-0.025
-0.02
0.015
0.015
-0.04
-0.01
-0.03
-0.04
-0.08
-0.09
-0.065
-0.02
-0.05
-0.05
-0.055
-0.055
-0.045
-0.06
-0.105
-0.075
-0.075
-0.055
-0.035
-0.06
-0.06
0.0
-0.035
-0.075
-0.06
-0.03
-0.095
-0.08
-0.015
-0.045
-0.015
-0.03
-0.05
-0.04
-0.06
-0.09
-0.06
-0.08
-0.015
-0.055
-0.075
-0.03
-0.095
-0.055
-0.05
-0.08
-0.035
-0.045
-0.05
-0.025
-0.065
-0.05
-0.08
-0.13
-0.125
-0.115
-0.045
0.09
0.165
0.325
0.49
0.56
0.635
0.695
0.735
0.82
0.77
0.795
0.745
0.775
0.725
0.56
0.49
0.32
0.32
0.31
0.23
0.105
-0.1
-0.07
-0.04
-0.02
-0.03
-0.025
-0.015
0.03
0.0
-0.03
-0.02
-0.015
-0.005
0.005
-0.04
-0.015
-0.015
-0.045
-0.035
-0.04
-0.015
-0.04
-0.065
-0.09
-0.05
-0.015
-0.005
0.025
-0.015
-0.02
-0.04
-0.02
-0.045
-0.015
0.005
-0.02
-0.01
-0.045
-0.025
0.01
-0.005
-0.03
-0.025
-0.005
0.015
-0.01
0.015
-0.01
0.0
0.035
0.02
-0.005
-0.035
-0.03
-0.035
-0.025
0.005
-0.015
0.005
-0.015
-0.01
-0.02
0.0
0.025
0.035
0.02
0.015
0.01
0.0
0.045
0.04
0.035
0.015
0.04
-0.005
0.005
0.045
0.045
0.065
-0.03
0.05
0.04
0.08
0.03
0.065
0.04
0.045
0.055
0.105
0.095
0.065
0.025
0.125
0.14
0.15
0.155
0.14
0.09
0.065
0.135
0.135
0.155
0.13
0.105
0.2
0.185
0.175
0.205
0.19
0.255
0.23
0.225
0.265
0.235
0.22
0.24
0.27
0.31
0.265
0.235
0.22
0.255
0.245
0.265
0.25
0.215
0.225
0.205
0.205
0.21
0.165
0.155
0.135
0.125
0.12
0.13
0.1
0.105
0.09
0.11
0.075
0.04
0.02
0.07
0.075
0.07
0.035
0.05
0.045
0.015
0.02
-0.03
-0.015
-0.01
-0.075
-0.015
-0.005
0.005
0.01
-0.045
0.01
0.01
-0.035
0.0
0.005
0.005
0.01
0.005
-0.085
-0.025
0.01
0.005
0.055
-0.01
-0.03
-0.02
-0.02
-0.07
-0.005
0.02
-0.005
-0.03
-0.02
-0.04
-0.025
-0.01
-0.035
-0.025
-0.02
0.0
-0.045
-0.025
-0.04
-0.005
-0.02
0.0
-0.025
-0.06
-0.03
-0.015
0.01
-0.015
-0.075
-0.085
-0.065
-0.015
-0.015
-0.06
-0.035
-0.02
0.03
-0.01
0.01
-0.045
-0.09
-0.035
0.015
-0.055
-0.03
-0.065
-0.055
-0.03
0.0
0.02
0.005
-0.04
-0.03
-0.005
-0.035
-0.04
-0.045
-0.02
-0.04
-0.065
-0.025
-0.03
-0.035
-0.035
-0.025
0.045
-0.05
-0.03
0.025
-0.04
-0.025
-0.01
-0.06
-0.03
-0.035
0.01
-0.035
-0.045
-0.005
-0.04
-0.025
-0.075
-0.025
-0.015
-0.015
-0.015
0.0
-0.02
-0.04
-0.005
0.005
-0.01
-0.055
-0.06
-0.02
-0.01
-0.035
-0.02
-0.02
-0.03
-0.02
-0.035
-0.055
-0.055
-0.045
0.035
-0.015
-0.065
0.02
-0.02
-0.05
-0.045
-0.06
-0.025
-0.02
0.0
0.0
-0.015
0.05
-0.06
-0.065
-0.025
-0.1
-0.045
-0.04
-0.025
-0.055
-0.04
0.0
0.0
-0.025
0.0
-0.01
-0.01
-0.065
-0.05
-0.075
-0.035
-0.03
0.04
0.0
-0.015
-0.06
-0.055
-0.045
0.02
-0.04
-0.025
-0.03
0.005
0.0
-0.03
-0.03
-0.02
-0.045
-0.04
0.03
-0.05
-0.045
-0.04
-0.02
-0.035
0.0
0.0
0.02
-0.04
-0.015
-0.015
-0.06
-0.02
0.025
0.015
0.025
0.005
0.005
-0.02
-0.02
-0.01
-0.025
-0.005
-0.02
0.035
0.005
0.025
0.04
0.02
0.035
0.045
0.01
0.09
0.03
0.0
0.0
-0.03
0.02
0.11
0.06
0.045
-0.005
-0.035
0.01
-0.055
-0.03
0.005
-0.06
-0.05
-0.03
-0.005
-0.04
-0.06
0.005
-0.005
-0.03
-0.045
-0.05
-0.065
-0.015
-0.01
0.02
-0.01
-0.005
-0.07
-0.07
-0.07
-0.005
-0.055
-0.045
-0.06
-0.05
-0.01
-0.045
-0.02
0.01
-0.04
-0.07
-0.05
-0.05
-0.05
-0.035
-0.015
-0.04
-0.085
-0.02
-0.06
-0.065
-0.01
-0.05
-0.05
-0.055
-0.065
-0.075
-0.115
-0.16
-0.085
0.035
0.12
0.22
0.34
0.48
0.595
0.69
0.72
0.795
0.84
0.85
0.885
0.855
0.86
0.825
0.72
0.535
0.515
0.405
0.35
0.345
0.245
0.065
-0.08
-0.05
-0.05
-0.015
0.02
0.025
-0.06
0.025
-0.025
-0.02
-0.01
-0.015
-0.01
-0.06
0.0
-0.025
-0.015
-0.035
-0.06
0.025
-0.005
-0.045
-0.065
0.02
-0.055
-0.04
-0.01
-0.065
-0.005
0.02
-0.025
-0.07
-0.015
-0.06
-0.05
-0.045
-0.04
-0.01
0.04
-0.05
-0.01
-0.02
-0.03
-0.055
-0.02
-0.01
-0.03
-0.025
0.01
-0.05
-0.045
0.015
-0.01
0.0
0.01
0.0
0.005
0.025
0.005
-0.03
0.0
0.0
0.025
0.0
-0.025
-0.055
0.02
-0.01
0.005
0.005
0.065
-0.025
0.01
0.04
-0.025
-0.015
0.01
0.04
0.08
0.065
-0.025
-0.005
0.005
-0.015
0.055
0.11
0.04
0.03
0.04
0.095
0.105
0.115
0.105
0.115
0.08
0.09
0.125
0.12
0.125
0.09
0.1
0.14
0.135
0.15
0.115
0.14
0.175
0.15
0.19
0.195
0.18
0.205
0.185
0.165
0.205
0.27
0.205
0.205
0.23
0.225
0.245
0.21
0.2
0.185
0.22
0.235
0.205
0.2
0.135
0.225
0.185
0.19
0.115
0.155
0.13
0.125
0.065
0.09
0.07
0.1
0.105
0.025
0.05
0.095
0.07
0.015
0.055
0.115
0.025
-0.01
0.035
-0.05
-0.04
0.025
0.02
0.06
0.03
0.015
0.02
-0.005
0.03
0.0
0.01
0.0
-0.025
-0.005
0.035
0.0
0.025
0.0
0.005
0.0
0.025
-0.015
0.035
0.01
0.005
-0.02
-0.015
0.0
0.05
0.06
0.02
0.005
0.0
0.01
-0.015
0.045
0.01
0.005
-0.005
0.015
-0.02
0.025
0.02
-0.03
0.015
-0.015
-0.03
0.005
0.01
-0.015
0.01
-0.025
0.03
0.015
-0.05
-0.015
0.005
-0.005
-0.055
-0.01
0.035
0.015
-0.035
-0.005
0.0
-0.02
-0.02
-0.025
-0.02
-0.015
-0.015
-0.065
-0.01
-0.02
-0.02
-0.02
0.0
-0.005
-0.03
-0.025
0.03
-0.025
-0.06
-0.03
-0.03
0.015
0.025
-0.005
-0.055
0.02
-0.035
-0.025
-0.01
0.005
0.035
-0.005
-0.045
-0.035
0.01
-0.04
-0.02
0.02
0.0
0.02
0.0
0.03
0.04
0.02
0.005
0.035
0.015
-0.005
-0.01
-0.01
-0.025
-0.01
-0.01
0.055
-0.035
-0.005
-0.025
0.03
-0.015
-0.005
0.005
0.02
-0.015
-0.045
-0.03
-0.02
0.02
0.01
0.025
0.015
-0.01
0.02
0.015
-0.015
-0.055
0.01
0.03
0.05
0.03
0.0
-0.005
-0.005
0.035
0.03
-0.025
-0.025
-0.005
0.055
-0.01
0.06
0.04
0.035
0.015
-0.04
0.01
-0.01
0.01
0.03
-0.01
-0.01
-0.02
0.015
0.04
-0.005
-0.005
-0.025
-0.005
0.035
0.015
-0.01
0.005
0.03
-0.035
-0.045
-0.005
0.0
0.045
-0.005
-0.01
0.005
-0.02
-0.075
0.005
0.05
0.06
0.015
-0.015
0.0
0.01
-0.03
0.025
-0.035
0.005
0.0
0.015
0.01
-0.01
0.015
-0.025
0.0
0.0
-0.02
-0.005
0.0
0.025
0.07
0.02
-0.015
-0.02
0.025
-0.025
0.0
0.065
0.03
0.025
0.02
0.015
0.035
0.03
0.0
0.045
0.06
0.035
0.03
0.03
0.055
0.065
0.075
0.09
0.045
0.0
0.03
0.055
0.05
-0.025
-0.015
0.005
0.025
0.045
0.05
0.045
-0.015
-0.065
0.045
0.0
0.005
0.0
-0.035
0.02
0.035
0.035
-0.025
-0.075
-0.035
-0.025
-0.045
-0.045
-0.01
-0.005
0.01
-0.035
-0.005
-0.015
0.01
-0.005
-0.045
-0.025
-0.015
-0.03
-0.035
-0.015
-0.065
-0.04
0.025
0.025
-0.01
-0.025
-0.025
-0.045
-0.025
-0.015
-0.02
-0.04
-0.035
-0.065
-0.09
-0.095
-0.055
-0.12
-0.085
-0.025
0.145
0.235
0.33
0.47
0.575
0.645
0.73
0.78
0.845
0.89
0.945
0.89
0.905
0.91
0.75
0.53
0.455
0.46
0.365
0.34
0.185
0.04
0.015
-0.005
-0.01
-0.005
-0.005
0.02
0.035
0.07
0.01
-0.015
-0.04
-0.035
-0.055
-0.065
0.005
-0.015
-0.005
0.015
0.025
0.02
0.01
-0.07
-0.015
-0.085
0.005
-0.02
-0.015
0.025
-0.01
-0.055
-0.015
0.005
0.015
0.015
-0.04
-0.015
-0.01
-0.035
-0.005
0.02
0.015
-0.02
-0.04
0.07
0.035
0.015
0.045
0.025
0.0
-0.06
-0.005
0.0
-0.005
-0.02
-0.045
-0.025
0.045
0.0
0.04
0.005
0.005
0.065
0.035
0.01
-0.01
0.03
0.025
-0.015
0.02
0.085
0.0
0.015
0.035
0.025
0.065
0.03
-0.005
0.045
0.04
0.075
0.06
0.095
0.05
0.065
0.055
0.085
0.08
0.08
0.09
0.1
0.12
0.12
0.075
0.095
0.18
0.145
0.105
0.1
0.15
0.135
0.125
0.195
0.22
0.19
0.145
0.17
0.24
0.195
0.18
0.195
0.17
0.195
0.245
0.2
0.21
0.205
0.26
0.29
0.275
0.29
0.26
0.285
0.22
0.27
0.245
0.21
0.245
0.205
0.195
0.175
0.225
0.185
0.195
0.195
0.145
0.1
0.155
0.155
0.07
0.025
0.08
0.07
0.095
0.08
0.045
0.045
0.065
0.05
0.025
0.025
0.055
0.04
0.065
0.09
0.03
0.06
0.05
0.035
0.03
0.08
0.01
-0.01
0.08
0.02
0.03
0.055
0.03
0.015
0.055
0.06
0.015
-0.005
0.06
0.085
-0.01
0.07
0.09
0.045
0.0
0.05
0.065
0.005
0.04
0.0
0.095
0.04
0.01
0.055
0.03
0.065
-0.025
-0.035
0.055
0.05
-0.03
0.07
0.09
0.035
0.05
0.065
0.065
0.005
0.005
0.03
0.03
-0.005
0.03
0.045
0.055
0.07
0.02
0.005
0.02
-0.01
0.06
0.075
-0.015
0.0
0.03
0.01
0.03
0.05
0.035
0.015
0.06
0.03
0.055
0.03
0.05
-0.02
0.005
0.025
0.01
0.085
0.0
0.01
0.0
0.11
0.06
0.03
0.025
0.06
-0.005
0.01
0.08
0.035
-0.005
0.03
0.055
0.1
0.13
0.01
0.005
0.015
0.075
0.0
0.04
0.065
0.035
0.06
0.11
0.02
0.01
0.045
0.07
0.105
0.0
0.005
0.065
0.085
0.045
0.04
0.065
0.095
0.04
0.06
0.1
0.045
-0.015
0.03
0.01
0.055
0.05
0.005
0.055
0.04
0.03
0.005
0.09
0.07
0.01
0.095
0.06
0.045
0.035
0.065
0.045
0.02
0.005
0.075
0.08
0.035
0.035
0.05
0.14
0.04
0.02
0.075
0.025
0.02
0.075
0.055
0.035
0.04
0.025
0.115
0.085
0.025
0.04
0.08
0.1
0.065
0.06
0.055
0.045
0.04
0.025
0.065
0.11
0.1
0.18
0.105
0.09
0.175
0.145
0.115
0.13
0.105
0.09
0.12
0.07
0.08
0.085
0.11
0.055
0.04
0.06
0.09
0.065
0.025
0.065
0.065
0.08
0.015
0.035
0.045
-0.025
0.04
0.035
0.045
0.085
0.09
0.025
-0.01
0.055
0.07
0.05
0.08
0.055
0.035
0.08
0.045
0.055
0.015
0.02
0.05
0.035
0.03
0.02
0.06
0.06
0.05
0.045
0.045
0.05
0.035
0.06
-0.005
0.01
0.1
0.125
0.01
-0.035
0.005
0.0
-0.09
-0.035
0.04
0.015
0.165
0.345
0.39
0.55
0.62
0.73
0.735
0.81
0.875
0.91
0.825
0.87
0.845
0.815
0.665
0.535
0.46
0.42
0.4
0.315
0.165
0.04
0.02
0.05
0.045
0.025
0.09
0.065
0.005
0.11
0.095
0.115
0.11
0.03
0.04
0.04
0.045
0.065
0.115
0.05
-0.005
0.015
0.085
0.105
0.045
0.095
0.045
0.115
0.08
0.11
0.085
0.07
0.035
0.095
0.09
0.09
0.075
0.125
0.105
0.065
0.055
0.055
0.045
0.105
0.075
0.105
0.06
0.025
0.07
0.165
0.085
0.075
0.1
0.105
0.1
0.06
0.09
0.08
0.14
0.095
0.12
0.13
0.125
0.11
0.11
0.07
0.13
0.13
0.14
0.115
0.115
0.145
0.16
0.15
0.17
0.11
0.1
0.08
0.13
0.13
0.13
0.165
0.16
0.16
0.13
0.155
0.18
0.195
0.22
0.205
0.15
0.17
0.185
0.23
0.205
0.24
0.245
0.26
0.255
0.275
0.255
0.26
0.315
0.23
0.22
0.28
0.27
0.31
0.29
0.345
0.355
0.34
0.34
0.355
0.34
0.37
0.365
0.365
0.33
0.33
0.335
0.305
0.375
0.395
0.355
0.375
0.335
0.32
0.325
0.315
0.26
0.27
0.29
0.235
0.22
0.165
0.21
0.225
0.25
0.22
0.165
0.175
0.135
0.17
0.12
0.185
0.16
0.16
0.155
0.09
0.09
0.105
0.125
0.12
0.065
0.075
0.13
0.12
0.105
0.08
0.125
0.075
0.07
0.105
0.095
0.035
0.125
0.135
0.13
0.09
0.1
0.085
0.08
0.105
0.12
0.11
0.075
0.095
0.065
0.12
0.155
0.095
0.05
0.085
0.085
0.115
0.08
0.135
0.13
0.095
0.05
0.075
0.095
0.16
0.1
0.13
0.09
0.1
0.06
0.13
0.09
0.09
0.095
0.1
0.1
0.11
0.09
0.12
0.13
0.05
0.14
0.145
0.085
0.09
0.165
0.13
0.13
0.06
0.16
0.145
0.1
0.1
0.1
0.155
0.09
0.135
0.08
0.085
0.12
0.135
0.165
0.15
0.1
0.125
0.115
0.15
0.135
0.15
0.125
0.095
0.105
0.13
0.145
0.115
0.095
0.12
0.165
0.095
0.125
0.15
0.12
0.075
0.125
0.085
0.1
0.095
0.09
0.105
0.17
0.2
0.16
0.1
0.095
0.125
0.14
0.125
0.09
0.145
0.1
0.155
0.135
0.105
0.155
0.075
0.115
0.135
0.12
0.115
0.135
0.08
0.1
0.1
0.095
0.13
0.135
0.115
0.165
0.135
0.135
0.105
0.07
0.095
0.15
0.1
0.1
0.15
0.13
0.13
0.11
0.155
0.11
0.06
0.15
0.1
0.135
0.125
0.155
0.09
0.13
0.15
0.145
0.125
0.165
0.13
0.075
0.135
0.205
0.19
0.185
0.195
0.195
0.16
0.16
0.1
0.14
0.17
0.16
0.135
0.115
0.065
0.155
0.155
0.12
0.12
0.095
0.12
0.085
0.05
0.08
0.12
0.13
0.105
0.08
0.11
0.11
0.09
0.07
0.095
0.065
0.13
0.13
0.09
0.115
0.1
0.095
0.105
0.11
0.1
0.09
0.075
0.13
0.085
0.075
0.12
0.13
0.06
0.08
0.085
0.115
0.105
0.095
0.065
0.12
0.09
0.12
0.13
0.11
0.105
0.075
0.02
0.045
0.03
0.02
0.115
0.135
0.24
0.44
0.55
0.665
0.685
0.715
0.765
0.885
0.925
0.87
0.89
0.9
0.915
0.815
0.65
0.54
0.555
0.495
0.435
0.325
0.2
0.135
0.11
0.12
0.115
0.14
0.14
0.165
0.11
0.105
0.1
0.09
0.12
0.1
0.06
0.115
0.12
0.09
0.14
0.06
0.085
0.085
0.08
0.11
0.075
0.09
0.12
0.09
0.065
0.085
0.105
0.1
0.115
0.13
0.13
0.075
0.06
0.09
0.125
0.135
0.07
0.075
0.125
0.09
0.08
0.09
0.115
0.09
0.14
0.105
0.105
0.065
0.11
0.11
0.11
0.13
0.095
0.09
0.09
0.125
0.11
0.135
0.105
0.145
0.12
0.065
0.14
0.09
0.065
0.12
0.13
0.15
0.115
0.18
0.125
0.095
0.09
0.11
0.16
0.13
0.125
0.11
0.115
0.095
0.165
0.165
0.15
0.245
0.15
0.12
0.175
0.15
0.16
0.18
0.155
0.17
0.155
0.2
0.155
0.225
0.22
0.23
0.235
0.21
0.24
0.24
0.22
0.225
0.255
0.275
0.265
0.29
0.315
0.29
0.285
0.285
0.28
0.265
0.245
0.285
0.28
0.285
0.305
0.29
0.3
0.28
0.315
0.245
0.28
0.24
0.175
0.23
0.25
0.24
0.17
0.21
0.215
0.17
0.215
0.17
0.16
0.16
0.135
0.125
0.195
0.195
0.15
0.08
0.085
0.135
0.15
0.145
0.13
0.065
0.08
0.13
0.13
0.115
0.1
0.08
0.075
0.16
0.11
0.105
0.085
0.085
0.075
0.115
0.075
0.085
0.085
0.075
0.155
0.075
0.14
0.085
0.11
0.115
0.115
0.08
0.08
0.06
0.1
0.095
0.08
0.16
0.14
0.08
0.085
0.1
0.09
0.115
0.095
0.085
0.13
0.125
0.065
0.09
0.055
0.06
0.065
0.065
0.08
0.095
0.105
0.1
0.095
0.125
0.08
0.035
0.025
0.085
0.07
0.09
0.08
0.085
0.08
0.08
0.115
0.1
0.09
0.105
0.09
0.035
0.1
0.055
0.02
0.065
0.06
0.07
0.085
0.075
0.11
0.06
0.105
0.065
0.055
0.085
0.085
0.045
0.15
0.185
0.025
0.035
0.03
0.06
0.085
0.06
0.105
0.04
0.09
0.11
0.085
0.125
0.075
0.055
0.075
0.08
0.09
0.07
0.12
0.14
0.13
0.055
0.09
0.11
0.085
0.065
0.075
0.09
0.05
0.09
0.155
0.095
0.095
0.06
0.12
0.125
0.08
0.08
0.09
0.055
0.08
0.095
0.085
0.13
0.035
0.085
0.09
0.085
0.065
0.125
0.115
0.105
0.11
0.1
0.085
0.055
0.105
0.12
0.065
0.1
0.095
0.055
0.05
0.04
0.085
0.06
0.1
0.085
0.08
0.075
0.125
0.075
0.01
0.03
0.055
0.075
0.08
0.14
0.105
0.13
0.125
0.1
0.1
0.04
0.065
0.07
0.065
0.06
0.105
0.12
0.045
0.04
0.105
0.09
0.075
0.085
0.125
0.115
0.07
0.11
0.135
0.135
0.15
0.12
0.115
0.135
0.075
0.075
0.11
0.145
0.155
0.175
0.155
0.11
0.085
0.07
0.115
0.01
0.045
0.09
0.025
0.045
0.065
0.095
0.14
0.07
0.105
0.135
0.0
0.025
0.065
0.03
-0.005
0.055
0.13
0.105
0.04
0.075
0.12
0.09
0.115
0.03
-0.005
0.065
0.05
0.08
0.055
0.05
0.045
0.08
0.035
0.025
0.04
0.035
0.11
0.085
0.05
0.06
0.04
0.03
0.05
0.05
-0.015
0.075
0.095
-0.005
-0.03
-0.06
0.0
0.02
0.035
0.145
0.305
0.38
0.45
0.55
0.59
0.565
0.68
0.755
0.785
0.79
0.875
0.84
0.865
0.805
0.64
0.49
0.41
0.42
0.41
0.375
0.22
0.06
0.09
0.065
0.105
0.045
0.085
0.02
0.06
0.0
0.035
0.05
0.045
0.08
0.01
0.005
0.065
0.075
0.015
0.045
0.09
0.06
0.045
0.095
0.04
0.045
0.05
0.025
0.07
0.075
0.06
0.035
0.03
0.025
0.06
0.045
0.09
0.07
0.065
0.135
0.07
0.07
0.09
0.075
-0.05
0.005
0.06
0.165
0.12
-0.05
0.06
0.06
0.055
0.03
0.085
0.155
0.075
0.05
0.11
0.06
-0.005
0.05
0.115
0.06
0.075
0.085
0.075
0.115
0.105
0.095
0.105
0.11
0.09
0.125
0.025
0.1
0.125
0.045
0.04
0.12
0.085
0.12
0.125
0.16
0.105
0.11
0.105
0.115
0.08
0.055
0.12
0.17
0.14
0.175
0.14
0.125
0.15
0.21
0.165
0.13
0.15
0.16
0.12
0.185
0.25
0.245
0.255
0.29
0.19
0.245
0.235
0.315
0.25
0.295
0.27
0.265
0.295
0.34
0.305
0.21
0.25
0.325
0.29
0.27
0.25
0.315
0.34
0.295
0.225
0.235
0.235
0.175
0.215
0.27
0.195
0.155
0.225
0.16
0.165
0.18
0.17
0.13
0.1
0.11
0.13
0.085
0.175
0.135
0.15
0.11
0.085
0.055
0.11
0.035
0.105
0.1
0.095
0.045
0.115
0.055
0.015
0.08
0.07
0.1
0.12
0.07
0.035
0.115
0.135
0.015
0.025
0.08
0.075
0.085
0.075
0.055
0.05
0.09
0.005
0.07
0.08
0.12
0.105
0.12
0.085
0.08
0.015
0.05
0.055
0.005
0.085
0.085
0.06
0.085
0.105
0.07
0.08
0.09
0.095
0.02
0.005
0.04
0.065
0.05
0.02
0.04
0.125
0.05
0.07
0.035
-0.005
0.015
0.11
0.105
-0.015
0.02
-0.045
0.04
0.025
0.055
0.065
0.045
0.01
-0.02
0.025
0.07
-0.015
0.03
-0.005
-0.02
0.01
-0.01
-0.05
-0.075
0.075
0.035
0.115
0.015
0.05
0.02
0.05
-0.035
-0.06
-0.035
-0.005
0.035
0.02
0.0
0.04
-0.02
-0.115
0.06
0.005
0.015
0.01
-0.025
0.03
0.01
0.025
0.045
0.05
0.005
-0.09
0.0
-0.025
0.035
-0.02
0.04
0.0
0.01
0.09
-0.055
-0.105
-0.03
0.025
0.075
0.04
0.045
-0.015
-0.03
0.005
-0.055
-0.1
0.0
-0.01
0.015
-0.1
-0.045
-0.005
-0.075
0.17
0.065
-0.095
-0.01
-0.045
-0.06
-0.025
-0.02
0.03
0.05
-0.055
-0.03
-0.05
0.0
0.04
-0.065
-0.005
0.09
0.07
0.0
-0.02
-0.03
-0.075
-0.005
0.005
0.025
-0.01
-0.04
0.1
0.005
-0.06
-0.045
-0.07
0.045
-0.1
0.045
0.06
0.025
-0.01
-0.09
-0.01
0.05
-0.045
0.005
0.07
0.085
0.0
0.01
0.055
0.005
0.04
-0.05
0.01
0.04
0.1
-0.02
0.065
0.03
0.075
-0.005
-0.105
-0.04
-0.065
-0.015
-0.02
-0.055
0.005
-0.15
-0.17
0.08
0.075
0.005
-0.115
-0.13
-0.1
-0.18
-0.225
-0.12
-0.125
-0.12
-0.135
0.045
0.025
-0.115
-0.07
-0.095
-0.065
-0.175
-0.075
-0.075
-0.045
-0.05
0.045
-0.07
-0.015
-0.04
-0.035
-0.015
-0.145
-0.13
-0.135
-0.01
-0.08
-0.005
-0.075
-0.105
-0.13
-0.105
-0.095
-0.165
-0.215
-0.185
-0.15
-0.1
0.04
0.14
0.25
0.395
0.51
0.725
0.84
0.78
0.83
0.85
0.925
0.945
0.865
0.85
0.77
0.66
0.54
0.415
0.295
0.15
-0.07
-0.175
-0.135
-0.095
-0.06
-0.04
-0.01
0.03
0.015
-0.07
-0.145
-0.225
-0.1
-0.055
-0.1
-0.125
-0.115
-0.07
-0.16
-0.07
-0.055
-0.12
-0.09
0.0
-0.055
-0.19
-0.04
-0.11
-0.16
-0.235
-0.225
-0.11
-0.08
-0.115
-0.13
-0.18
-0.165
-0.17
-0.07
-0.095
-0.1
-0.125
-0.095
-0.11
-0.12
-0.105
-0.125
-0.14
-0.185
-0.15
-0.045
-0.11
-0.09
-0.09
-0.14
-0.195
-0.195
-0.15
-0.185
-0.075
-0.08
-0.02
0.025
-0.14
-0.105
-0.05
-0.215
-0.22
0.03
-0.09
-0.075
-0.16
-0.065
-0.025
-0.05
-0.055
-0.045
-0.05
-0.035
-0.14
-0.105
-0.05
-0.09
0.015
-0.08
-0.105
0.005
-0.045
-0.065
-0.07
-0.08
-0.095
-0.025
-0.05
-0.015
0.01
-0.025
-0.01
0.055
-0.035
0.01
-0.03
0.085
0.14
0.005
0.06
0.08
0.15
0.13
0.085
0.075
0.16
0.04
0.145
0.19
0.17
0.16
0.14
0.16
0.12
0.14
0.2
0.205
0.18
0.04
-0.04
0.115
0.11
0.06
0.045
0.16
0.155
0.11
0.07
0.065
0.11
0.06
0.12
-0.005
0.055
-0.04
-0.105
-0.025
0.075
-0.075
0.015
-0.005
-0.1
-0.05
0.02
-0.095
-0.255
-0.095
-0.015
-0.09
-0.085
-0.085
-0.17
-0.135
-0.215
-0.235
-0.135
-0.11
-0.09
-0.18
-0.08
-0.045
-0.05
-0.02
-0.15
-0.08
-0.12
-0.145
-0.21
-0.095
-0.095
-0.12
-0.175
-0.11
-0.09
-0.14
-0.115
-0.11
-0.145
-0.145
-0.14
-0.105
-0.14
-0.17
-0.16
-0.11
-0.055
-0.1
-0.245
-0.14
-0.075
-0.12
-0.085
-0.15
-0.08
-0.21
-0.205
-0.11
-0.11
-0.195
-0.205
-0.175
-0.095
-0.175
-0.04
-0.175
-0.065
-0.15
-0.205
-0.21
-0.245
-0.185
-0.215
-0.115
-0.12
-0.135
-0.08
-0.065
-0.055
-0.16
-0.095
-0.09
-0.23
-0.1
-0.18
-0.18
-0.16
-0.11
-0.075
-0.045
-0.105
-0.125
-0.13
-0.09
-0.12
-0.135
-0.05
-0.085
-0.16
-0.185
-0.14
-0.23
-0.145
-0.04
-0.115
-0.165
-0.12
-0.075
-0.225
-0.105
-0.035
-0.02
-0.14
-0.21
-0.145
-0.115
-0.16
-0.23
-0.14
-0.085
0.03
0.005
-0.055
-0.1
-0.14
-0.045
-0.02
-0.19
-0.305
-0.21
-0.205
-0.27
-0.15
-0.05
-0.065
-0.045
-0.1
-0.04
-0.01
-0.145
-0.05
-0.05
-0.04
0.035
-0.12
-0.04
-0.12
-0.045
-0.13
-0.03
-0.025
-0.085
-0.015
-0.055
-0.035
0.03
-0.08
-0.145
-0.06
-0.075
-0.06
-0.075
-0.045
-0.065
-0.14
-0.235
-0.22
-0.23
-0.17
-0.16
-0.115
-0.09
-0.08
-0.145
-0.055
-0.11
-0.12
-0.215
-0.22
-0.17
-0.185
-0.25
-0.135
-0.135
-0.17
-0.165
-0.085
-0.085
-0.165
-0.22
-0.105
-0.11
-0.22
-0.13
-0.165
-0.18
-0.11
-0.075
-0.175
-0.1
-0.205
-0.235
-0.16
-0.165
-0.05
-0.115
-0.15
-0.12
-0.055
-0.125
-0.145
-0.14
-0.205
-0.19
-0.275
-0.285
-0.245
0.0
0.05
0.24
0.47
0.56
0.68
0.755
0.875
0.915
0.945
0.945
1.05
0.955
0.98
0.9
0.585
0.435
0.415
0.38
0.245
0.065
-0.065
-0.185
-0.15
-0.135
-0.19
-0.2
-0.08
-0.115
-0.08
-0.075
-0.115
-0.095
-0.085
-0.13
-0.075
-0.075
-0.06
-0.11
-0.115
-0.095
-0.155
-0.045
-0.085
-0.065
-0.09
-0.085
-0.105
-0.075
0.03
0.075
0.135
0.125
-0.065
-0.12
-0.065
0.035
-0.055
-0.035
-0.13
-0.14
-0.11
-0.155
-0.115
-0.1
-0.08
-0.07
-0.065
-0.125
-0.09
-0.025
0.005
-0.025
-0.055
-0.05
-0.015
-0.015
-0.13
-0.01
-0.005
-0.035
-0.03
0.0
0.09
0.03
-0.04
0.015
0.01
0.065
0.035
0.035
-0.025
-0.01
-0.03
0.015
0.035
0.015
0.055
0.035
0.015
0.04
0.04
0.035
0.065
0.07
-0.035
0.005
0.05
0.155
0.155
-0.025
0.11
0.11
0.1
0.085
0.14
0.105
0.145
0.135
0.105
0.125
0.15
0.15
0.11
0.255
0.225
0.08
0.15
0.195
0.21
0.185
0.14
0.135
0.145
0.235
0.28
0.275
0.22
0.21
0.19
0.18
0.2
0.31
0.26
0.11
0.25
0.255
0.23
0.18
0.1
0.22
0.11
0.16
0.03
-0.03
0.075
0.14
0.03
-0.005
0.025
0.025
0.0
0.02
0.035
0.01
-0.03
-0.05
-0.08
-0.07
-0.065
-0.01
-0.055
-0.06
0.02
0.01
-0.025
-0.085
-0.01
-0.075
-0.085
-0.04
0.05
-0.005
-0.095
0.03
-0.115
-0.055
-0.085
-0.035
-0.03
0.02
0.02
-0.035
0.01
-0.03
-0.04
-0.04
0.0
-0.035
-0.06
-0.095
-0.055
-0.005
0.015
-0.02
-0.055
0.04
-0.03
-0.09
-0.025
0.005
-0.03
0.05
-0.035
-0.055
0.015
-0.025
0.025
-0.03
-0.12
-0.075
-0.075
0.02
0.035
0.015
0.005
-0.045
-0.015
-0.035
-0.04
-0.04
-0.06
-0.065
-0.06
-0.035
-0.075
-0.1
-0.16
-0.26
-0.225
-0.29
-0.365
-0.3
-0.325
-0.42
-0.56
-0.65
-0.685
-0.665
-0.79
-0.85
-0.875
-0.815
-0.76
-0.58
-0.58
-0.675
-0.85
-0.905
-0.8
-0.65
-0.63
-0.525
-0.435
-0.39
-0.51
-0.485
-0.43
-0.33
-0.37
-0.335
-0.365
-0.335
-0.265
-0.285
-0.26
-0.205
-0.165
-0.19
-0.165
-0.165
-0.195
-0.185
-0.225
-0.21
-0.25
-0.175
-0.15
-0.135
-0.17
-0.18
-0.225
-0.19
-0.25
-0.28
-0.29
-0.2
-0.15
-0.125
-0.185
-0.18
-0.195
-0.19
-0.195
-0.14
-0.2
-0.165
-0.15
-0.165
-0.255
-0.215
-0.22
-0.185
-0.15
-0.14
-0.155
-0.17
-0.27
-0.195
-0.195
-0.2
-0.18
-0.175
-0.18
-0.17
-0.155
-0.19
-0.205
-0.18
-0.2
-0.155
-0.195
-0.22
-0.16
-0.225
-0.215
-0.185
-0.205
-0.225
-0.185
-0.25
-0.23
-0.21
-0.225
-0.245
-0.28
-0.18
-0.09
0.02
0.07
0.175
0.28
0.37
0.405
0.5
0.605
0.715
0.65
0.605
0.58
0.66
0.575
0.48
0.31
0.15
0.085
0.005
-0.065
-0.285
-0.37
-0.435
-0.435
-0.51
-0.51
-0.45
-0.515
-0.49
-0.475
-0.455
-0.45
-0.515
-0.48
-0.495
-0.48
-0.495
-0.46
-0.485
-0.445
-0.405
-0.445
-0.41
-0.49
-0.46
-0.435
-0.45
-0.43
-0.455
-0.365
-0.39
-0.415
-0.39
-0.375
-0.41
-0.435
-0.515
-0.495
-0.45
-0.52
-0.52
-0.555
-0.525
-0.5
-0.505
-0.49
-0.535
-0.495
-0.49
-0.495
-0.475
-0.42
-0.445
-0.4
-0.48
-0.5
-0.5
-0.505
-0.435
-0.49
-0.445
-0.36
-0.39
-0.385
-0.34
-0.36
-0.29
-0.355
-0.325
-0.31
-0.295
-0.275
-0.265
-0.285
-0.23
-0.225
-0.255
-0.26
-0.215
-0.19
-0.195
-0.115
-0.23
-0.195
-0.175
-0.19
-0.155
-0.135
-0.14
-0.12
-0.115
-0.135
-0.13
-0.095
-0.115
-0.1
-0.065
-0.065
-0.165
-0.1
-0.065
-0.03
-0.045
-0.02
-0.055
-0.025
-0.01
0.01
0.02
0.005
0.035
0.05
0.02
0.075
0.045
0.025
0.0
0.045
0.015
0.085
0.075
0.09
0.045
0.085
0.065
0.015
0.03
0.035
0.065
0.055
-0.01
-0.075
-0.025
0.005
-0.095
-0.05
-0.03
-0.06
-0.07
-0.105
-0.055
-0.095
-0.08
-0.07
-0.105
-0.09
-0.105
-0.15
-0.09
-0.095
-0.105
-0.06
-0.1
-0.13
-0.115
-0.12
-0.085
-0.12
-0.1
-0.14
-0.115
-0.13
-0.135
-0.11
-0.085
-0.085
-0.13
-0.115
-0.085
-0.055
-0.1
-0.1
-0.06
-0.09
-0.135
-0.115
-0.085
-0.145
-0.09
-0.08
-0.125
-0.15
-0.11
-0.105
-0.05
-0.09
-0.08
-0.04
-0.065
-0.09
0.0
-0.115
-0.075
-0.145
-0.12
-0.055
-0.075
-0.125
-0.1
-0.1
-0.095
-0.095
-0.125
-0.03
-0.03
-0.08
-0.075
-0.07
-0.1
-0.095
-0.05
-0.065
-0.005
-0.065
-0.055
-0.065
-0.085
-0.04
-0.06
-0.075
-0.03
-0.05
-0.02
-0.08
-0.065
-0.025
-0.04
-0.03
-0.055
-0.105
0.0
0.025
-0.035
-0.02
-0.015
0.015
0.05
-0.04
-0.045
0.015
0.055
0.005
0.025
0.035
0.075
0.05
0.06
0.07
-0.015
0.005
0.05
0.0
-0.045
-0.04
-0.04
-0.025
-0.04
-0.065
-0.035
-0.02
-0.005
-0.06
-0.07
-0.075
-0.055
-0.03
-0.06
-0.015
-0.05
-0.075
-0.08
-0.075
-0.07
-0.09
-0.025
-0.03
-0.035
-0.065
-0.06
-0.06
-0.005
-0.08
-0.04
-0.045
-0.045
-0.115
-0.1
-0.075
-0.07
-0.11
-0.05
-0.045
-0.06
-0.085
-0.08
-0.09
-0.07
-0.09
-0.08
-0.05
-0.05
-0.09
-0.06
-0.07
-0.09
-0.07
-0.13
-0.145
-0.09
-0.14
-0.15
-0.055
0.045
0.205
0.245
0.395
0.545
0.625
0.76
0.795
0.825
0.855
0.9
0.845
0.89
0.825
0.68
0.49
0.37
0.335
0.32
0.28
0.06
-0.015
-0.04
-0.015
-0.065
-0.07
-0.05
0.045
0.0
-0.08
-0.09
-0.095
-0.055
-0.03
-0.04
-0.025
-0.095
-0.115
-0.04
-0.095
-0.075
-0.06
-0.035
-0.06
-0.09
-0.07
-0.04
-0.025
-0.11
-0.11
-0.035
0.0
-0.015
-0.11
-0.055
-0.085
-0.1
-0.09
-0.035
-0.11
-0.065
0.0
0.005
-0.03
-0.015
-0.12
-0.08
-0.075
-0.045
-0.11
-0.095
-0.09
-0.065
-0.03
0.01
-0.06
-0.015
-0.06
-0.03
-0.01
-0.05
0.0
-0.015
-0.065
-0.03
0.015
0.005
-0.06
-0.005
-0.01
0.0
-0.02
-0.005
0.02
-0.055
-0.045
0.015
0.015
-0.005
0.015
0.01
-0.035
-0.025
0.02
-0.005
0.015
0.03
0.0
0.05
0.085
0.055
0.01
0.055
0.06
0.065
0.07
0.05
0.085
0.04
0.095
0.08
0.135
0.115
0.165
0.12
0.075
0.11
0.135
0.185
0.135
0.17
0.2
0.09
0.165
0.18
0.165
0.19
0.17
0.22
0.11
0.14
0.14
0.17
0.15
0.18
0.14
0.13
0.095
0.075
0.07
0.115
0.105
0.03
0.01
0.07
0.035
-0.005
0.04
0.055
0.025
0.06
0.085
0.07
0.0
-0.06
-0.065
0.005
-0.045
0.0
-0.03
-0.035
-0.005
-0.03
-0.03
0.0
-0.01
-0.045
-0.065
-0.03
0.0
-0.06
-0.05
-0.06
-0.05
-0.08
0.05
-0.035
-0.055
-0.045
0.0
-0.015
-0.05
-0.065
-0.025
-0.035
-0.055
0.0
-0.04
-0.03
-0.04
-0.055
-0.04
0.01
0.01
-0.025
-0.015
-0.11
-0.03
0.005
-0.025
-0.045
-0.05
-0.1
-0.095
-0.08
-0.015
-0.06
-0.075
-0.065
-0.035
0.0
-0.05
-0.035
-0.145
-0.06
-0.04
-0.065
-0.01
-0.04
-0.09
-0.01
-0.02
0.005
-0.035
-0.05
-0.01
0.045
0.04
0.025
-0.01
0.07
-0.04
0.0
-0.01
0.02
0.005
0.045
0.03
0.035
0.025
0.04
0.04
0.01
0.045
0.035
-0.005
0.035
0.08
0.075
0.03
-0.035
0.03
0.01
-0.035
-0.045
-0.025
-0.06
-0.025
-0.06
-0.075
-0.025
0.01
-0.025
-0.025
-0.07
-0.085
-0.055
-0.1
-0.05
0.025
-0.06
-0.145
-0.11
-0.085
-0.05
-0.06
-0.075
-0.07
-0.08
-0.115
-0.08
-0.05
-0.065
-0.05
-0.065
-0.045
-0.04
-0.075
-0.105
-0.025
-0.06
-0.11
-0.02
-0.05
-0.05
-0.115
-0.105
-0.04
-0.07
-0.05
-0.09
-0.075
-0.085
-0.14
-0.06
-0.095
-0.145
-0.185
-0.17
-0.065
0.025
0.145
0.235
0.37
0.49
0.55
0.625
0.725
0.75
0.8
0.835
0.815
0.86
0.755
0.66
0.52
0.345
0.285
0.305
0.195
0.05
-0.06
-0.085
-0.085
-0.11
-0.05
-0.02
-0.045
-0.085
-0.085
-0.085
-0.06
-0.14
-0.12
-0.06
-0.05
-0.155
-0.115
-0.125
-0.12
-0.12
-0.205
-0.07
-0.175
-0.085
-0.12
-0.11
-0.12
-0.135
-0.095
-0.195
-0.115
-0.12
-0.085
-0.15
-0.13
-0.045
-0.125
-0.165
-0.09
-0.155
-0.18
-0.16
-0.09
-0.075
-0.15
-0.125
-0.105
-0.15
-0.145
-0.155
-0.15
-0.125
-0.125
-0.13
-0.19
-0.125
-0.13
-0.125
-0.125
-0.14
-0.135
-0.12
-0.15
-0.13
-0.135
-0.125
-0.135
-0.14
-0.125
-0.07
-0.125
-0.15
-0.17
-0.16
-0.12
-0.13
-0.135
-0.065
-0.12
-0.14
-0.08
-0.065
-0.075
-0.125
-0.065
-0.105
-0.095
-0.07
-0.08
-0.065
-0.025
-0.115
-0.05
0.02
0.005
-0.07
-0.06
-0.015
-0.025
-0.01
-0.01
-0.02
-0.075
-0.075
0.015
0.03
0.015
0.04
0.065
0.065
0.06
0.09
0.05
0.08
0.05
0.03
0.045
0.095
0.14
0.04
0.015
0.065
0.07
0.03
0.02
0.02
0.02
0.0
0.005
0.02
0.05
0.015
0.025
-0.085
-0.075
-0.09
-0.155
-0.16
-0.04
-0.1
-0.13
-0.165
-0.155
-0.12
-0.16
-0.15
-0.105
-0.16
-0.155
-0.16
-0.12
-0.14
-0.205
-0.185
-0.13
-0.155
-0.21
-0.135
-0.095
-0.07
-0.23
-0.16
-0.145
-0.175
-0.165
-0.16
-0.195
-0.09
-0.16
-0.195
-0.165
-0.175
-0.145
-0.145
-0.155
-0.14
-0.16
-0.15
-0.235
-0.165
-0.14
-0.23
-0.19
-0.2
-0.205
-0.145
-0.16
-0.16
-0.145
-0.13
-0.25
-0.165
-0.175
-0.21
-0.15
-0.17
-0.145
-0.185
-0.195
-0.165
-0.145
-0.16
-0.215
-0.25
-0.155
-0.135
-0.165
-0.195
-0.17
-0.13
-0.17
-0.185
-0.225
-0.21
-0.195
-0.155
-0.125
-0.155
-0.215
-0.145
-0.19
-0.155
-0.21
-0.23
-0.18
-0.145
-0.11
-0.205
-0.22
-0.165
-0.16
-0.16
-0.155
-0.14
-0.165
-0.12
-0.19
-0.135
-0.15
-0.14
-0.155
-0.19
-0.19
-0.205
-0.11
-0.13
-0.105
-0.05
-0.1
-0.125
-0.15
-0.21
-0.155
-0.16
-0.12
-0.11
-0.085
-0.105
-0.1
-0.11
-0.1
-0.135
-0.155
-0.155
-0.135
-0.16
-0.15
-0.135
-0.215
-0.175
-0.205
-0.14
-0.215
-0.215
-0.175
-0.195
-0.18
-0.225
-0.185
-0.15
-0.135
-0.24
-0.255
-0.225
-0.195
-0.19
-0.26
-0.225
-0.24
-0.195
-0.165
-0.175
-0.21
-0.185
-0.225
-0.225
-0.25
-0.225
-0.24
-0.18
-0.205
-0.245
-0.19
-0.165
-0.225
-0.225
-0.225
-0.21
-0.185
-0.19
-0.19
-0.21
-0.235
-0.205
-0.215
-0.24
-0.23
-0.28
-0.295
-0.27
-0.135
0.01
0.14
0.2
0.295
0.385
0.5
0.555
0.615
0.65
0.635
0.655
0.7
0.705
0.585
0.465
0.35
0.235
0.275
0.155
0.085
-0.11
-0.165
-0.195
-0.15
-0.115
-0.165
-0.155
-0.185
-0.175
-0.265
-0.255
-0.19
-0.175
-0.17
-0.2
-0.255
-0.195
-0.215
-0.18
-0.225
-0.23
-0.215
-0.265
-0.25
-0.22
-0.15
-0.19
-0.195
-0.18
-0.22
-0.165
-0.245
-0.21
-0.19
-0.23
-0.28
-0.21
-0.165
-0.23
-0.215
-0.185
-0.225
-0.275
-0.2
-0.245
-0.27
-0.195
-0.165
-0.165
-0.095
-0.24
-0.295
-0.165
-0.135
-0.21
-0.215
-0.175
-0.205
-0.23
-0.25
-0.11
-0.25
-0.195
-0.165
-0.195
-0.215
-0.185
-0.185
-0.155
-0.18
-0.215
-0.235
-0.13
-0.225
-0.205
-0.21
-0.185
-0.225
-0.2
-0.195
-0.17
-0.17
-0.145
-0.15
-0.14
-0.185
-0.185
-0.175
-0.13
-0.11
-0.16
-0.18
-0.095
-0.16
-0.105
-0.155
-0.16
-0.125
-0.105
-0.145
-0.085
-0.075
-0.13
-0.085
-0.085
-0.055
-0.07
-0.065
-0.095
-0.035
-0.025
-0.085
-0.03
-0.025
-0.035
-0.025
-0.025
-0.035
-0.11
-0.055
-0.06
-0.04
-0.02
-0.02
-0.045
-0.005
-0.065
-0.04
-0.105
-0.14
-0.115
-0.11
-0.11
-0.12
-0.145
-0.15
-0.165
-0.09
-0.19
-0.175
-0.17
-0.16
-0.17
-0.195
-0.205
-0.165
-0.18
-0.175
-0.14
-0.23
-0.245
-0.185
-0.265
-0.165
-0.21
-0.225
-0.22
-0.22
-0.2
-0.17
-0.14
-0.2
-0.2
-0.2
-0.19
-0.185
-0.185
-0.285
-0.25
-0.225
-0.17
-0.27
-0.23
-0.175
-0.16
-0.175
-0.205
-0.245
-0.26
-0.255
-0.2
-0.195
-0.21
-0.195
-0.235
-0.185
-0.17
-0.24
-0.295
-0.18
-0.255
-0.22
-0.21
-0.21
-0.155
-0.2
-0.235
-0.22
-0.29
-0.255
-0.255
-0.24
-0.24
-0.25
-0.23
-0.245
-0.24
-0.22
-0.235
-0.24
-0.28
-0.2
-0.26
-0.25
-0.26
-0.22
-0.245
-0.26
-0.275
-0.265
-0.26
-0.21
-0.215
-0.215
-0.225
-0.22
-0.205
-0.26
-0.31
-0.245
-0.255
-0.24
-0.215
-0.19
-0.26
-0.275
-0.215
-0.245
-0.21
-0.205
-0.195
-0.175
-0.17
-0.135
-0.205
-0.195
-0.15
-0.19
-0.16
-0.235
-0.225
-0.175
-0.115
-0.155
-0.165
-0.175
-0.14
-0.21
-0.085
-0.015
-0.13
-0.17
-0.17
-0.195
-0.215
-0.225
-0.235
-0.245
-0.245
-0.28
-0.23
-0.195
-0.23
-0.19
-0.24
-0.235
-0.255
-0.27
-0.22
-0.245
-0.21
-0.24
-0.305
-0.215
-0.215
-0.275
-0.27
-0.275
-0.27
-0.215
-0.27
-0.26
-0.25
-0.295
-0.235
-0.225
-0.245
-0.27
-0.275
-0.25
-0.205
-0.235
-0.2
-0.22
-0.255
-0.275
-0.28
-0.285
-0.28
-0.255
-0.205
-0.275
-0.2
-0.295
-0.32
-0.295
-0.375
-0.32
-0.34
-0.275
-0.215
-0.095
0.01
0.125
0.19
0.33
0.415
0.545
0.64
0.615
0.66
0.675
0.705
0.72
0.645
0.555
0.315
0.235
0.215
0.15
0.055
-0.065
-0.19
-0.255
-0.28
-0.23
-0.295
-0.225
-0.25
-0.255
-0.255
-0.19
-0.23
-0.255
-0.21
-0.22
-0.235
-0.26
-0.225
-0.235
-0.255
-0.215
-0.27
-0.26
-0.235
-0.23
-0.27
-0.285
-0.205
-0.205
-0.225
-0.265
-0.255
-0.275
-0.215
-0.2
-0.21
-0.245
-0.23
-0.215
-0.275
-0.235
-0.265
-0.24
-0.185
-0.235
-0.19
-0.2
-0.285
-0.24
-0.255
-0.28
-0.26
-0.215
-0.2
-0.22
-0.24
-0.22
-0.23
-0.195
-0.215
-0.28
-0.235
-0.215
-0.29
-0.22
-0.19
-0.19
-0.205
-0.18
-0.23
-0.195
-0.17
-0.2
-0.185
-0.19
-0.15
-0.15
-0.145
-0.165
-0.19
-0.24
-0.26
-0.25
-0.25
-0.195
-0.065
-0.07
-0.095
-0.09
-0.165
-0.19
-0.145
-0.15
-0.17
-0.17
-0.165
-0.16
-0.11
-0.075
-0.015
-0.1
-0.065
-0.03
-0.035
-0.04
-0.04
-0.06
-0.085
-0.045
-0.055
-0.06
-0.025
-0.005
0.04
-0.07
-0.06
-0.035
-0.02
-0.03
0.03
0.02
-0.03
0.0
-0.045
-0.04
-0.06
-0.065
-0.035
0.035
-0.08
-0.085
-0.065
-0.065
-0.125
-0.175
-0.145
-0.125
-0.115
-0.15
-0.12
-0.115
-0.16
-0.13
-0.195
-0.29
-0.17
-0.175
-0.18
-0.205
-0.215
-0.23
-0.185
-0.155
-0.17
-0.19
-0.2
-0.19
-0.135
-0.225
-0.21
-0.21
-0.185
-0.225
-0.175
-0.185
-0.21
-0.205
-0.175
-0.22
-0.145
-0.19
-0.18
-0.21
-0.215
-0.16
-0.125
-0.155
-0.21
-0.23
-0.225
-0.225
-0.215
-0.18
-0.22
-0.195
-0.195
-0.11
-0.17
-0.18
-0.245
-0.205
-0.225
-0.205
-0.185
-0.19
-0.23
-0.185
-0.245
-0.245
-0.24
-0.205
-0.215
-0.24
-0.165
-0.235
-0.19
-0.195
-0.29
-0.25
-0.23
-0.275
-0.23
-0.205
-0.235
-0.26
-0.18
-0.24
-0.23
-0.23
-0.21
-0.195
-0.225
-0.195
-0.23
-0.23
-0.155
-0.215
-0.29
-0.21
-0.195
-0.155
-0.215
-0.175
-0.22
-0.215
-0.245
-0.275
-0.21
-0.18
-0.18
-0.265
-0.16
-0.18
-0.18
-0.205
-0.19
-0.125
-0.18
-0.185
-0.195
-0.23
-0.25
-0.195
-0.235
-0.2
-0.19
-0.18
-0.235
-0.21
-0.185
-0.2
-0.235
-0.195
-0.215
-0.18
-0.18
-0.14
-0.215
-0.14
-0.14
-0.175
-0.195
-0.155
-0.165
-0.22
-0.165
-0.16
-0.17
-0.095
-0.11
-0.145
-0.09
-0.08
-0.11
-0.195
-0.15
-0.16
-0.165
-0.135
-0.1
-0.1
-0.15
-0.11
-0.18
-0.185
-0.12
-0.09
-0.17
-0.225
-0.195
-0.25
-0.25
-0.19
-0.22
-0.24
-0.19
-0.175
-0.225
-0.205
-0.285
-0.235
-0.185
-0.205
-0.235
-0.205
-0.19
-0.17
-0.205
-0.25
-0.26
-0.23
-0.225
-0.215
-0.22
-0.21
-0.245
-0.21
-0.21
-0.215
-0.19
-0.2
-0.235
-0.245
-0.26
-0.245
-0.17
-0.21
-0.255
-0.25
-0.235
-0.21
-0.24
-0.21
-0.235
-0.21
-0.215
-0.235
-0.29
-0.295
-0.315
-0.29
-0.17
0.02
0.065
0.115
0.26
0.395
0.5
0.595
0.62
0.7
0.69
0.71
0.71
0.69
0.68
0.545
0.25
0.215
0.09
0.15
0.12
0.005
-0.125
-0.17
-0.16
-0.17
-0.2
-0.185
-0.2
-0.12
-0.18
-0.23
-0.155
-0.17
-0.19
-0.195
-0.25
-0.22
-0.265
-0.265
-0.205
-0.205
-0.235
-0.205
-0.255
-0.19
-0.175
-0.22
-0.19
-0.205
-0.23
-0.265
-0.235
-0.195
-0.2
-0.155
-0.12
-0.185
-0.23
-0.25
-0.21
-0.165
-0.13
-0.205
-0.19
-0.235
-0.195
-0.25
-0.265
-0.17
-0.21
-0.235
-0.215
-0.17
-0.2
-0.22
-0.21
-0.185
-0.22
-0.255
-0.2
-0.155
-0.15
-0.23
-0.205
-0.16
-0.225
-0.215
-0.11
-0.115
-0.2
-0.165
-0.16
-0.195
-0.175
-0.19
-0.15
-0.125
-0.16
-0.13
-0.17
-0.18
-0.18
-0.14
-0.14
-0.155
-0.14
-0.115
-0.095
-0.065
-0.07
-0.105
-0.15
-0.115
-0.005
-0.01
-0.1
-0.07
-0.075
-0.08
0.0
-0.035
-0.035
-0.005
0.005
-0.045
0.045
-0.02
0.025
0.0
-0.05
0.035
0.07
0.045
0.005
0.01
0.01
0.03
0.125
0.035
0.005
0.02
0.05
0.14
0.04
0.075
0.055
0.03
-0.015
0.01
-0.025
-0.025
0.015
0.0
0.06
0.01
-0.085
-0.11
-0.08
-0.085
-0.11
-0.115
-0.055
-0.09
-0.1
-0.07
-0.125
-0.115
-0.175
-0.145
-0.135
-0.16
-0.09
-0.135
-0.145
-0.09
-0.15
-0.175
-0.17
-0.135
-0.11
-0.145
-0.14
-0.15
-0.13
-0.145
-0.115
-0.12
-0.1
-0.125
-0.165
-0.14
-0.185
-0.135
-0.075
-0.135
-0.08
-0.195
-0.135
-0.105
-0.1
-0.145
-0.115
-0.1
-0.14
-0.195
-0.145
-0.115
-0.145
-0.14
-0.09
-0.08
-0.12
-0.13
-0.15
-0.205
-0.22
-0.18
-0.14
-0.11
-0.155
-0.1
-0.195
-0.18
-0.18
-0.185
-0.09
-0.175
-0.16
-0.15
-0.165
-0.195
-0.18
-0.185
-0.1
-0.085
-0.1
-0.165
-0.12
-0.14
-0.23
-0.155
-0.145
-0.155
-0.13
-0.11
-0.115
-0.24
-0.165
-0.07
-0.095
-0.19
-0.205
-0.145
-0.12
-0.17
-0.135
-0.105
-0.075
-0.12
-0.155
-0.145
-0.125
-0.105
-0.115
-0.13
-0.15
-0.155
-0.135
-0.1
-0.09
-0.06
-0.125
-0.09
-0.15
-0.165
-0.125
-0.08
-0.13
-0.18
-0.145
-0.055
-0.11
-0.115
-0.125
-0.135
-0.145
-0.07
-0.085
-0.025
-0.065
-0.07
-0.075
-0.08
-0.07
-0.065
-0.035
-0.08
-0.065
-0.04
-0.065
0.0
0.02
0.015
-0.03
-0.01
0.01
-0.07
-0.045
-0.015
0.025
-0.045
-0.01
0.005
-0.04
-0.09
-0.07
-0.065
-0.055
-0.085
-0.045
-0.09
-0.045
-0.13
-0.1
-0.01
-0.04
-0.035
-0.04
-0.07
-0.09
-0.1
-0.095
-0.045
-0.075
-0.115
-0.085
-0.085
-0.11
-0.055
-0.085
-0.075
-0.03
-0.165
-0.055
-0.02
-0.115
-0.06
-0.05
-0.08
-0.07
-0.025
-0.105
-0.135
-0.105
-0.06
-0.045
-0.07
-0.035
-0.05
-0.085
-0.06
-0.07
0.01
-0.095
-0.14
-0.1
-0.13
-0.15
-0.115
-0.105
-0.045
0.065
0.18
0.3
0.485
0.54
0.68
0.715
0.765
0.9
0.865
0.93
0.9
0.85
0.76
0.635
0.44
0.345
0.34
0.36
0.265
0.115
-0.06
-0.07
-0.05
-0.06
-0.05
0.015
-0.025
0.01
-0.035
-0.085
-0.025
-0.02
-0.07
-0.065
-0.055
-0.06
-0.09
-0.125
-0.1
-0.005
-0.02
-0.05
-0.08
-0.11
-0.075
-0.065
0.03
-0.04
-0.005
-0.035
-0.05
-0.05
-0.13
-0.08
-0.07
-0.05
-0.02
-0.05
-0.045
-0.06
-0.03
-0.035
-0.05
0.035
-0.045
-0.045
-0.055
-0.025
0.015
0.03
0.02
-0.05
-0.065
0.025
-0.015
-0.02
-0.05
-0.035
-0.045
0.005
-0.02
-0.03
-0.02
0.01
0.04
0.035
0.005
0.03
0.06
-0.015
-0.015
-0.005
-0.03
0.02
-0.01
-0.04
0.0
0.01
0.03
0.02
0.035
0.06
0.08
0.055
0.015
0.005
0.075
0.08
0.025
0.055
0.035
0.075
0.13
0.04
0.175
0.075
0.045
0.12
0.12
0.1
0.155
0.12
0.14
0.115
0.14
0.135
0.18
0.25
0.2
0.19
0.215
0.25
0.19
0.14
0.155
0.195
0.19
0.205
0.225
0.225
0.195
0.18
0.19
0.165
0.185
0.21
0.17
0.12
0.125
0.13
0.14
0.11
0.09
0.06
0.175
0.1
0.015
0.1
0.0
0.065
0.07
0.055
-0.005
0.095
0.015
0.005
0.035
0.06
0.035
0.005
-0.035
-0.015
0.005
0.035
0.035
0.005
-0.02
0.025
0.04
0.035
0.015
0.045
0.015
0.04
0.11
-0.005
-0.035
-0.005
-0.035
-0.005
-0.02
-0.045
0.02
0.035
0.015
0.04
-0.035
-0.055
0.05
0.0
-0.05
-0.04
0.005
-0.03
0.025
-0.01
-0.005
-0.035
-0.01
-0.02
-0.06
-0.075
0.005
-0.01
-0.01
-0.03
-0.04
-0.055
0.0
-0.025
-0.03
0.02
-0.015
-0.01
-0.02
0.015
0.01
-0.055
-0.015
-0.045
-0.03
-0.04
0.01
-0.04
-0.035
-0.01
0.01
0.005
-0.02
-0.02
-0.05
-0.015
0.01
-0.035
-0.02
-0.05
-0.04
-0.03
-0.005
-0.02
-0.005
-0.01
0.06
0.015
-0.04
0.02
-0.02
-0.02
-0.04
0.03
-0.045
-0.095
0.035
0.01
0.0
-0.05
0.02
0.025
0.025
0.04
0.015
-0.015
-0.03
-0.05
-0.01
0.045
-0.045
0.02
0.04
0.04
0.005
-0.01
-0.02
-0.005
-0.01
0.015
0.0
-0.04
-0.085
-0.055
0.0
-0.065
0.08
0.065
0.095
0.01
0.0
-0.01
-0.05
0.03
0.085
0.03
0.05
0.06
0.095
0.125
0.1
0.04
0.055
0.065
0.01
0.015
-0.015
-0.025
-0.025
0.045
0.07
-0.005
-0.055
-0.085
-0.08
-0.05
-0.015
-0.045
0.01
0.035
-0.005
0.025
-0.04
-0.09
-0.045
-0.03
-0.05
-0.055
-0.015
0.01
-0.065
-0.035
0.0
-0.02
-0.02
-0.085
-0.08
-0.005
-0.045
-0.04
0.01
-0.015
0.015
-0.065
-0.06
-0.04
-0.07
-0.055
-0.055
-0.035
-0.01
-0.015
-0.035
-0.015
-0.02
-0.075
-0.05
-0.09
-0.14
-0.12
-0.115
-0.025
0.055
0.165
0.25
0.39
0.49
0.575
0.675
0.815
0.815
0.84
0.905
0.955
0.895
0.875
0.775
0.65
0.455
0.385
0.41
0.405
0.275
0.02
-0.05
-0.05
-0.05
-0.04
-0.035
-0.025
0.035
0.025
0.03
0.055
0.03
-0.025
-0.02
-0.005
-0.04
-0.05
-0.015
0.025
0.02
0.0
-0.015
-0.025
0.005
-0.015
-0.095
-0.05
0.005
-0.025
-0.04
-0.01
-0.065
-0.005
-0.01
0.01
0.04
-0.005
-0.015
0.045
0.02
-0.015
-0.015
-0.015
0.03
0.02
-0.07
-0.01
0.035
-0.035
0.015
0.065
-0.01
0.06
-0.015
-0.005
0.06
0.065
-0.01
0.02
0.045
-0.02
-0.035
-0.04
0.01
0.055
0.05
0.04
0.04
0.105
0.07
0.045
0.065
0.07
0.08
-0.015
-0.02
0.035
0.09
0.09
0.08
0.065
0.07
0.07
0.07
0.05
0.075
0.085
0.095
0.1
0.08
0.09
0.155
0.12
0.115
0.135
0.1
0.18
0.195
0.115
0.19
0.12
0.095
0.16
0.14
0.24
0.24
0.23
0.215
0.26
0.195
0.24
0.255
0.2
0.26
0.23
0.235
0.275
0.25
0.31
0.25
0.22
0.235
0.215
0.205
0.2
0.15
0.19
0.195
0.22
0.185
0.19
0.05
0.1
0.075
0.135
0.135
0.095
0.09
0.105
0.01
0.055
0.075
0.075
0.015
0.06
0.02
0.005
0.025
0.035
0.07
0.01
-0.03
0.015
0.05
0.0
0.05
0.0
0.0
0.04
0.05
-0.035
0.01
-0.01
-0.04
0.005
-0.01
0.015
0.025
-0.015
-0.03
0.005
0.005
-0.01
-0.005
0.005
-0.015
-0.015
-0.065
-0.005
-0.08
-0.035
-0.03
0.015
-0.02
0.02
0.015
-0.04
-0.025
-0.035
-0.01
0.08
0.02
0.01
0.02
-0.025
-0.05
-0.045
-0.025
-0.01
-0.065
-0.02
0.015
-0.005
0.0
0.02
-0.055
-0.01
-0.025
-0.025
-0.005
-0.02
-0.005
0.0
0.0
0.03
0.005
0.03
-0.06
-0.085
0.0
0.045
0.045
0.02
-0.015
0.055
-0.01
-0.045
0.005
0.025
0.005
0.015
-0.07
-0.035
0.015
-0.005
-0.005
-0.005
-0.025
-0.065
-0.04
0.05
-0.015
0.045
0.07
-0.01
0.005
-0.01
0.09
-0.02
-0.03
0.025
0.005
0.005
0.01
0.025
0.01
0.04
0.04
-0.015
-0.03
0.04
0.035
0.04
0.06
0.035
0.005
0.08
0.145
0.05
0.045
0.055
0.085
0.005
0.05
0.0
-0.015
0.125
0.025
-0.03
0.04
0.0
-0.01
-0.035
0.025
0.0
0.005
-0.015
0.02
-0.05
0.05
-0.02
0.025
-0.095
-0.045
-0.03
0.025
0.085
-0.02
-0.045
-0.005
0.0
-0.055
-0.045
-0.055
0.005
-0.005
-0.02
0.0
-0.035
-0.03
0.02
-0.055
0.01
-0.05
-0.04
-0.035
-0.065
-0.015
0.005
-0.045
-0.05
0.06
0.005
-0.01
-0.04
-0.035
-0.01
0.0
-0.04
-0.11
-0.035
-0.095
-0.14
-0.075
-0.04
0.07
0.265
0.365
0.425
0.495
0.61
0.695
0.72
0.835
0.815
0.77
0.835
0.825
0.75
0.675
0.445
0.385
0.405
0.38
0.29
0.115
-0.025
-0.035
0.025
-0.01
0.03
-0.035
0.0
0.01
0.035
-0.03
-0.015
-0.02
-0.02
-0.055
-0.035
-0.03
-0.05
-0.03
-0.08
-0.045
-0.03
-0.045
-0.045
-0.04
-0.07
-0.065
-0.01
-0.06
-0.005
0.01
0.015
-0.005
0.0
-0.01
0.015
-0.035
-0.005
-0.045
-0.065
-0.065
-0.025
0.005
0.0
0.0
-0.035
-0.015
-0.05
-0.01
0.02
0.005
0.005
0.035
-0.065
-0.085
0.045
0.045
-0.03
-0.04
0.005
0.025
-0.005
-0.015
0.015
-0.01
0.035
-0.075
0.0
0.03
0.015
0.02
0.015
0.015
0.01
0.03
0.02
-0.025
-0.025
0.03
0.04
0.01
0.065
0.08
0.09
0.005
-0.01
0.025
0.03
0.045
0.115
0.08
0.05
0.06
0.055
0.075
0.055
0.03
0.13
0.1
0.105
0.135
0.145
0.14
0.14
0.135
0.17
0.14
0.115
0.14
0.165
0.185
0.18
0.19
0.17
0.145
0.185
0.145
0.14
0.225
0.175
0.13
0.205
0.205
0.165
0.21
0.18
0.155
0.105
0.16
0.165
0.155
0.12
0.055
0.055
0.095
0.07
0.045
0.07
0.045
0.09
0.015
0.025
-0.005
0.005
-0.025
0.04
0.03
-0.005
0.015
0.005
0.025
0.035
-0.015
-0.01
-0.02
0.03
0.0
-0.01
0.0
0.025
0.025
-0.005
0.015
-0.01
0.05
0.035
0.075
-0.035
0.02
0.04
-0.005
-0.03
0.005
0.075
-0.005
0.01
0.025
-0.015
-0.01
0.02
0.01
0.005
-0.015
0.01
-0.005
0.035
0.045
0.01
-0.025
-0.065
0.02
0.01
-0.005
0.015
0.015
-0.075
0.0
0.0
-0.035
-0.045
-0.02
-0.005
-0.03
0.045
-0.035
-0.035
0.01
0.04
-0.06
-0.005
-0.005
0.01
-0.055
-0.05
0.0
-0.045
-0.01
-0.05
-0.055
-0.05
0.01
0.035
-0.03
0.015
-0.01
-0.075
-0.075
0.0
-0.055
0.0
0.07
-0.02
0.01
0.015
-0.04
-0.025
-0.02
0.025
0.03
0.015
-0.08
-0.03
0.04
0.04
0.055
-0.02
-0.02
0.015
-0.02
0.035
0.06
-0.065
-0.07
0.005
0.02
-0.02
-0.01
0.015
0.015
0.065
0.05
0.025
0.06
0.035
0.075
0.04
0.05
0.065
0.03
0.035
0.025
0.035
0.06
0.065
-0.005
0.015
0.03
0.01
-0.015
-0.015
-0.045
0.035
0.025
0.005
-0.045
-0.015
-0.04
-0.01
-0.045
0.01
-0.015
0.03
-0.075
-0.035
-0.025
-0.02
-0.005
-0.035
-0.05
-0.03
-0.055
-0.06
-0.08
-0.005
-0.035
-0.035
-0.02
-0.015
-0.075
-0.04
-0.01
-0.045
-0.09
-0.055
-0.055
0.0
-0.035
-0.06
-0.035
0.015
0.035
-0.01
-0.01
-0.065
-0.055
-0.025
-0.055
-0.075
-0.095
-0.08
-0.11
-0.09
-0.035
0.005
0.055
0.195
0.34
0.495
0.555
0.655
0.715
0.76
0.79
0.88
0.855
0.845
0.92
0.695
0.54
0.44
0.36
0.39
0.395
0.275
0.115
0.0
-0.01
-0.005
-0.015
-0.015
-0.015
0.01
0.025
0.01
-0.04
0.005
-0.035
-0.015
-0.03
-0.035
-0.015
-0.01
-0.04
-0.005
-0.03
-0.04
-0.03
-0.045
0.02
0.0
0.0
-0.035
-0.03
-0.04
-0.06
-0.03
0.005
0.035
-0.025
-0.035
-0.045
-0.015
-0.03
-0.005
-0.015
-0.06
-0.05
-0.025
0.02
-0.025
0.005
0.015
-0.005
-0.015
-0.01
-0.03
-0.05
-0.01
-0.005
0.065
0.12
-0.01
0.01
-0.02
-0.01
-0.05
-0.055
0.025
-0.005
-0.03
0.035
-0.01
0.02
0.005
0.015
0.01
-0.015
-0.04
0.015
0.01
0.015
0.015
0.085
0.015
0.005
0.04
0.005
-0.045
0.02
0.065
0.045
0.045
0.055
0.095
0.175
0.04
0.06
0.125
0.11
0.065
0.045
0.11
0.14
0.095
0.095
0.11
0.1
0.155
0.16
0.155
0.11
0.075
0.21
0.165
0.18
0.19
0.16
0.215
0.195
0.215
0.205
0.285
0.215
0.23
0.19
0.14
0.16
0.16
0.175
0.155
0.17
0.155
0.125
0.155
0.12
0.13
0.11
0.05
0.105
0.09
0.065
0.04
0.04
0.045
0.015
0.045
0.025
0.015
0.035
0.015
0.055
-0.035
0.01
0.065
0.085
0.07
0.075
-0.015
0.0
0.02
0.02
-0.07
0.02
-0.005
0.025
-0.015
0.04
-0.025
0.035
0.03
-0.025
0.015
0.035
0.0
0.015
-0.005
-0.025
-0.045
0.05
0.02
-0.035
-0.03
-0.05
0.03
-0.02
-0.025
0.0
-0.015
0.04
0.01
0.01
-0.02
0.005
-0.01
-0.07
-0.005
0.045
0.055
0.03
-0.015
-0.05
-0.055
-0.015
0.015
0.055
-0.025
-0.02
-0.04
-0.025
-0.025
-0.05
-0.02
-0.015
-0.02
-0.035
-0.025
-0.025
0.0
0.005
0.015
0.005
0.02
-0.025
-0.03
-0.02
0.015
-0.015
0.02
-0.01
0.025
0.065
0.025
0.045
-0.01
-0.02
-0.04
-0.025
-0.015
0.015
-0.005
-0.005
-0.02
0.005
0.02
0.035
0.03
0.055
0.015
0.03
0.005
-0.005
-0.015
0.065
0.105
0.045
0.03
0.01
0.075
0.085
0.06
0.105
0.095
0.015
0.055
0.125
0.03
0.045
0.07
0.07
0.08
0.095
0.07
0.07
0.06
0.01
0.045
0.01
-0.05
0.05
0.025
-0.07
0.005
-0.03
-0.035
-0.04
-0.015
-0.01
-0.02
0.02
-0.05
-0.03
0.035
-0.01
-0.005
0.02
0.0
-0.04
-0.01
-0.045
-0.08
-0.105
-0.045
-0.045
-0.005
0.04
0.01
0.0
-0.07
-0.025
0.03
-0.025
0.015
-0.045
-0.07
-0.03
0.025
-0.05
0.01
0.02
-0.015
-0.03
-0.025
-0.065
-0.055
-0.045
-0.06
-0.12
-0.145
-0.11
-0.11
0.01
0.055
0.18
0.32
0.465
0.56
0.68
0.755
0.79
0.8
0.915
0.93
0.925
0.935
0.875
0.735
0.61
0.465
0.39
0.415
0.28
0.115
0.005
-0.03
-0.005
0.025
-0.01
0.01
0.01
0.065
0.055
0.04
-0.035
-0.04
-0.065
-0.03
0.0
0.02
-0.03
-0.03
0.005
0.0
-0.02
-0.025
-0.005
-0.07
-0.015
-0.02
-0.02
-0.05
-0.06
0.045
0.005
0.0
-0.01
0.01
-0.02
-0.025
-0.035
0.03
-0.05
0.01
-0.03
-0.025
0.025
0.045
0.06
0.005
0.025
-0.035
0.0
-0.035
-0.045
0.045
0.01
-0.05
0.085
0.04
-0.005
0.045
0.03
-0.015
-0.025
-0.02
0.015
0.07
0.1
0.01
-0.005
-0.055
0.01
0.0
-0.01
0.025
0.095
0.005
0.06
0.06
0.065
0.03
0.055
0.055
0.07
0.11
0.065
0.01
0.005
0.06
0.085
0.095
0.045
0.06
0.12
0.13
0.13
0.105
0.135
0.11
0.105
0.145
0.105
0.175
0.155
0.13
0.185
0.17
0.185
0.165
0.21
0.24
0.2
0.175
0.205
0.175
0.24
0.245
0.26
0.245
0.245
0.275
0.235
0.175
0.14
0.205
0.255
0.2
0.205
0.205
0.16
0.15
0.14
0.1
0.085
0.12
0.14
0.11
0.15
0.115
0.0
0.06
0.095
0.09
0.09
0.045
0.04
0.055
0.015
0.04
0.03
0.0
0.03
0.03
0.055
0.045
0.025
0.03
0.005
0.035
0.06
0.075
0.065
0.055
-0.005
0.02
0.05
0.08
0.05
0.005
-0.015
0.025
0.03
0.06
0.045
0.02
0.005
-0.01
0.005
0.01
-0.035
0.005
0.02
0.035
0.035
0.015
0.005
-0.025
0.06
-0.015
0.005
0.065
0.015
-0.015
-0.03
0.08
0.045
0.01
0.045
0.015
-0.02
-0.015
0.035
0.0
0.025
0.005
0.065
0.035
0.055
0.01
0.03
0.0
-0.03
0.015
0.045
0.01
-0.015
-0.025
-0.025
0.025
-0.025
-0.01
-0.065
0.005
0.01
0.06
0.035
0.015
0.005
0.03
0.025
0.01
0.0
0.01
0.05
0.025
0.035
0.035
0.035
0.055
-0.06
-0.035
0.04
0.035
0.055
0.025
0.035
0.075
0.13
0.055
0.07
0.05
-0.03
-0.015
0.045
0.075
0.06
0.065
0.07
0.075
0.12
0.11
0.115
0.1
0.095
0.095
0.08
0.09
0.075
0.14
0.15
0.145
0.135
0.065
0.07
0.085
0.08
0.045
0.01
0.04
-0.02
-0.035
0.025
0.02
0.035
0.05
0.055
0.015
0.04
0.015
-0.025
0.015
-0.035
-0.01
0.02
0.06
-0.01
0.055
0.08
0.005
0.02
-0.075
-0.015
0.015
0.025
0.0
-0.025
0.015
0.01
0.0
0.03
0.005
0.02
0.065
0.02
0.03
-0.085
0.015
0.005
0.01
-0.02
0.045
0.005
0.02
-0.04
-0.045
-0.075
-0.025
-0.11
-0.075
-0.07
-0.01
0.09
0.245
0.325
0.42
0.595
0.65
0.73
0.85
0.855
0.9
0.9
1.005
1.02
0.96
0.875
0.67
0.54
0.435
0.4
0.375
0.235
0.125
-0.005
-0.01
0.04
0.01
0.025
0.015
0.08
-0.01
0.03
0.04
0.045
0.05
0.06
0.005
0.0
-0.025
-0.04
0.035
0.025
-0.03
0.01
0.05
0.02
-0.015
-0.025
0.03
-0.035
-0.005
0.02
0.035
0.03
0.065
0.01
0.025
-0.005
0.01
0.01
0.015
-0.015
0.005
0.055
0.055
0.09
0.055
0.005
0.0
0.015
0.005
0.05
0.015
0.065
0.055
0.09
0.07
0.09
0.03
0.02
0.025
0.015
0.02
0.055
0.065
0.095
0.115
0.07
0.06
0.06
0.05
0.035
0.09
0.04
-0.005
0.065
0.11
0.06
0.07
0.11
0.1
0.19
0.02
0.075
0.075
0.11
0.09
0.12
0.14
0.115
0.135
0.13
0.135
0.085
0.1
0.16
0.235
0.225
0.16
0.09
0.225
0.22
0.185
0.17
0.2
0.17
0.21
0.21
0.195
0.215
0.255
0.305
0.22
0.265
0.235
0.205
0.245
0.21
0.245
0.245
0.19
0.235
0.215
0.185
0.23
0.26
0.195
0.19
0.23
0.17
0.165
0.175
0.2
0.155
0.15
0.155
0.17
0.15
0.14
0.125
0.065
0.07
0.07
0.08
0.135
0.055
0.045
0.025
0.09
0.075
0.06
0.02
0.055
0.05
0.08
0.04
0.06
0.035
0.005
0.02
0.06
0.045
0.055
0.03
0.075
0.025
0.07
0.05
0.065
0.055
0.025
0.065
0.07
0.03
0.055
0.04
0.055
-0.035
0.045
0.05
0.035
0.025
0.03
0.05
0.005
-0.005
0.06
0.06
0.055
0.04
0.04
0.025
0.02
0.0
-0.045
0.005
0.025
0.005
0.075
0.055
0.03
0.0
-0.015
0.005
0.03
0.025
0.025
0.07
0.04
-0.005
0.015
0.025
0.005
0.01
0.02
0.02
0.03
-0.025
0.025
0.0
0.01
0.03
0.03
0.015
0.015
0.005
0.015
0.005
0.005
0.055
0.075
0.1
0.01
0.04
0.025
0.045
0.04
0.005
0.075
0.075
0.045
0.035
0.03
0.04
0.095
0.105
0.1
0.09
0.075
0.095
0.115
0.08
0.075
0.12
0.135
0.095
0.13
0.155
0.115
0.115
0.065
0.12
0.125
0.12
0.125
0.105
0.11
0.12
0.115
0.1
0.065
0.05
0.1
0.045
0.09
0.045
0.055
0.015
0.0
0.015
0.035
-0.025
0.0
0.105
0.09
0.025
0.035
0.09
0.045
-0.015
0.03
0.015
0.06
0.085
-0.01
0.005
0.07
0.02
0.05
0.005
0.055
0.05
0.045
0.01
-0.005
0.015
0.06
0.015
0.025
0.015
0.005
0.025
0.0
0.025
0.055
0.015
0.025
0.015
-0.03
-0.01
-0.01
-0.03
-0.035
-0.025
-0.01
0.03
0.11
0.22
0.305
0.455
0.615
0.765
0.84
0.905
0.935
0.955
0.95
0.98
1.0
0.905
0.8
0.615
0.54
0.445
0.43
0.305
0.185
0.015
-0.01
0.005
0.06
0.03
0.045
0.115
0.155
0.035
0.075
0.045
0.055
0.09
-0.045
0.0
0.015
0.05
0.04
0.09
0.02
0.025
0.065
0.01
0.0
0.025
0.015
-0.015
0.04
0.05
0.08
0.01
0.0
0.005
0.055
0.1
0.035
0.05
0.045
0.105
0.03
0.015
0.005
-0.04
0.025
0.115
0.07
0.06
0.08
0.065
0.03
0.07
0.035
0.055
0.07
0.055
0.03
0.065
0.095
0.06
0.04
0.005
0.09
0.07
0.04
0.045
0.075
0.105
0.045
0.035
0.105
0.045
0.075
0.06
0.17
0.125
0.11
0.085
0.105
0.105
0.115
0.085
0.095
0.08
0.115
0.115
0.175
0.2
0.185
0.13
0.14
0.175
0.115
0.135
0.135
0.165
0.17
0.18
0.155
0.185
0.155
0.185
0.22
0.2
0.27
0.275
0.245
0.255
0.255
0.26
0.195
0.26
0.26
0.24
0.24
0.31
0.305
0.325
0.295
0.26
0.275
0.26
0.245
0.26
0.165
0.22
0.21
0.18
0.235
0.2
0.145
0.15
0.13
0.18
0.15
0.155
0.12
0.125
0.09
0.09
0.085
0.14
0.135
0.16
0.065
0.045
0.095
0.06
0.075
0.015
-0.025
0.065
0.09
0.08
0.085
0.05
0.02
0.045
0.06
0.135
0.085
0.03
0.065
0.06
0.05
0.045
0.115
0.085
0.06
0.07
0.045
0.015
0.06
0.045
0.03
0.065
0.11
0.07
0.06
0.05
0.03
0.025
0.045
0.065
0.065
0.08
0.08
0.06
0.085
0.08
0.085
0.025
-0.035
0.025
0.04
0.035
0.03
0.06
0.055
0.04
0.07
0.04
0.06
0.045
0.085
0.06
0.025
0.075
0.085
0.075
0.085
0.055
0.065
0.035
0.045
0.05
0.04
0.06
0.02
0.055
0.105
0.1
0.025
0.015
0.07
0.085
0.095
0.13
0.03
0.015
0.025
0.02
0.04
0.085
0.13
0.115
0.07
0.005
0.06
0.08
0.125
0.11
0.13
0.04
0.035
-0.01
0.065
0.05
0.11
0.095
0.12
0.115
0.075
0.07
0.11
0.115
0.115
0.065
0.07
0.075
0.18
0.13
0.135
0.15
0.1
0.155
0.13
0.145
0.09
0.145
0.14
0.14
0.16
0.145
0.105
0.105
0.155
0.115
0.155
0.15
0.04
0.04
0.05
0.11
0.1
0.07
0.08
0.07
0.075
0.06
0.07
0.01
0.015
0.05
0.07
0.11
0.02
0.025
0.03
0.07
0.07
0.075
0.01
0.045
0.095
0.06
0.11
0.085
0.05
0.04
0.0
0.05
0.055
0.015
0.015
0.045
0.06
0.045
0.055
0.065
0.07
0.055
0.06
0.065
0.075
0.135
0.035
0.015
0.025
0.025
-0.02
-0.025
-0.025
0.03
0.075
0.135
0.285
0.47
0.585
0.685
0.775
0.845
0.945
1.0
0.905
0.89
0.995
0.935
0.835
0.575
0.495
0.37
0.4
0.4
0.195
0.115
0.1
0.1
0.065
0.08
0.035
0.07
0.1
0.035
0.035
0.01
0.075
0.14
0.095
0.055
0.06
0.06
0.06
0.01
0.015
0.14
0.065
0.055
0.04
0.05
0.065
0.065
0.09
0.13
0.08
0.105
0.06
0.115
0.035
0.045
0.06
0.03
0.07
0.055
0.05
0.1
0.09
0.045
0.04
0.085
0.055
0.12
0.095
0.1
0.085
0.13
0.145
0.115
0.03
0.035
0.05
0.05
0.13
0.075
0.095
0.115
0.105
0.125
0.11
0.15
0.125
0.095
0.07
0.07
0.165
0.13
0.105
0.13
0.15
0.11
0.12
0.085
0.095
0.13
0.15
0.165
0.175
0.145
0.145
0.13
0.175
0.235
0.185
0.17
0.17
0.14
0.17
0.135
0.21
0.21
0.225
0.285
0.275
0.245
0.24
0.23
0.295
0.225
0.25
0.225
0.33
0.325
0.325
0.315
0.305
0.29
0.34
0.285
0.26
0.355
0.345
0.26
0.37
0.34
0.33
0.3
0.305
0.255
0.29
0.23
0.22
0.29
0.23
0.25
0.205
0.175
0.18
0.16
0.2
0.215
0.14
0.125
0.155
0.15
0.11
0.105
0.05
0.115
0.085
0.105
0.07
0.08
0.105
0.19
0.155
0.05
0.065
0.145
0.08
0.075
0.12
0.065
0.055
0.09
0.095
0.05
0.145
0.06
0.085
0.065
0.095
0.105
0.095
0.095
0.11
0.09
0.075
0.005
0.065
0.05
0.03
0.065
0.065
0.075
0.085
0.13
0.145
0.13
0.05
0.02
0.065
0.13
0.05
0.06
0.075
0.025
0.045
0.09
0.145
0.09
0.065
0.105
0.1
0.07
0.065
0.07
0.065
0.095
0.025
0.02
0.11
0.115
0.05
0.055
0.045
0.09
0.11
0.06
0.065
0.08
0.11
0.13
0.095
0.13
0.105
0.155
0.085
0.1
0.035
0.08
0.085
0.1
0.09
0.06
0.12
0.07
0.135
0.095
0.09
0.085
0.125
0.09
0.03
0.105
0.095
0.085
0.065
0.09
0.065
0.11
0.055
0.08
0.095
0.06
0.095
0.085
0.075
0.095
0.075
0.1
0.11
0.105
0.09
0.085
0.08
0.1
0.065
0.08
0.075
0.075
0.065
0.08
0.095
0.085
0.145
0.085
0.085
0.065
0.11
0.095
0.13
0.065
0.075
0.105
0.105
0.045
0.09
0.095
0.115
0.115
0.075
0.105
0.115
0.12
0.13
0.07
0.13
0.14
0.14
0.09
0.12
0.19
0.12
0.135
0.09
0.095
0.125
0.12
0.1
0.095
0.115
0.045
0.1
0.06
0.09
0.09
0.08
0.075
0.075
0.045
0.035
0.03
0.085
0.045
0.0
0.075
0.065
0.1
0.045
0.08
0.085
0.085
0.035
0.01
0.04
0.035
0.12
0.055
-0.005
0.05
0.07
0.02
0.09
0.055
0.05
0.03
0.04
0.07
0.07
0.045
0.055
0.085
0.1
0.045
0.05
0.045
-0.01
-0.015
0.0
0.015
0.005
-0.01
0.02
0.06
0.12
0.215
0.36
0.525
0.6
0.64
0.715
0.815
0.9
0.945
0.92
0.915
0.96
0.885
0.8
0.605
0.49
0.45
0.5
0.455
0.29
0.155
0.045
0.07
0.075
0.055
0.095
0.105
0.1
0.1
0.11
0.11
0.105
0.05
0.035
0.03
0.08
0.08
0.08
0.025
-0.005
0.035
0.1
0.045
0.045
0.035
0.045
0.09
0.07
0.135
0.095
0.025
0.075
0.105
0.07
0.04
0.09
0.07
0.09
0.095
0.025
-0.015
0.04
0.095
0.125
0.11
0.09
0.035
0.04
0.085
0.12
0.07
0.1
0.09
0.06
0.04
0.055
0.095
0.125
0.035
0.05
0.08
0.12
0.06
0.1
0.105
0.08
0.085
0.13
0.14
0.13
0.095
0.08
0.11
0.09
0.09
0.075
0.1
0.16
0.115
0.09
0.14
0.07
0.07
0.09
0.11
0.13
0.145
0.145
0.175
0.19
0.15
0.155
0.195
0.185
0.09
0.14
0.195
0.21
0.195
0.16
0.21
0.25
0.22
0.23
0.255
0.26
0.235
0.155
0.22
0.28
0.265
0.31
0.275
0.335
0.325
0.3
0.27
0.235
0.21
0.245
0.24
0.255
0.21
0.325
0.22
0.245
0.245
0.28
0.21
0.23
0.155
0.135
0.095
0.145
0.21
0.205
0.175
0.115
0.12
0.14
0.08
0.115
0.12
0.13
0.07
0.13
0.075
0.15
0.17
0.125
0.08
0.1
0.11
0.05
0.055
0.085
0.095
0.11
0.08
0.11
0.125
0.105
0.07
0.055
0.11
0.085
0.12
0.025
0.05
0.1
0.09
0.125
0.06
0.09
0.125
0.125
0.135
0.18
0.04
0.085
0.13
0.105
0.1
0.08
0.11
0.115
0.06
0.11
0.045
0.06
0.065
0.095
0.05
0.105
0.08
0.09
0.155
0.115
0.09
0.075
0.07
0.025
0.015
-0.005
0.095
0.105
0.12
0.12
0.03
0.025
0.065
0.065
0.075
0.03
0.1
0.075
0.13
0.045
0.08
0.095
0.07
0.07
0.095
0.07
0.1
0.09
0.105
0.075
0.085
0.055
0.045
0.1
0.045
0.13
0.065
0.05
0.08
0.095
0.115
0.125
0.1
0.06
0.105
0.05
0.1
0.09
0.085
0.075
0.075
0.125
0.13
0.115
0.075
0.115
0.13
0.08
0.065
0.07
0.07
0.075
0.085
0.04
0.06
0.095
0.12
0.135
0.08
0.115
0.155
0.095
0.085
0.1
0.115
0.13
0.11
0.065
0.11
0.12
0.12
0.08
0.105
0.125
0.13
0.08
0.1
0.08
0.1
0.145
0.115
0.13
0.16
0.125
0.135
0.15
0.16
0.195
0.19
0.135
0.08
0.175
0.205
0.175
0.16
0.115
0.085
0.165
0.125
0.11
0.11
0.115
0.08
0.155
0.165
0.12
0.105
0.125
0.07
0.075
0.07
0.06
0.065
0.09
0.055
0.12
0.11
0.12
0.15
0.065
0.07
0.09
0.1
0.155
0.06
0.08
0.1
0.12
0.075
0.055
0.06
0.045
0.13
0.16
0.01
0.06
0.135
0.085
0.055
0.1
0.085
0.04
0.13
0.065
0.065
0.08
0.06
0.115
0.12
0.12
0.105
-0.015
0.005
0.03
0.04
0.03
0.155
0.25
0.345
0.505
0.57
0.71
0.765
0.865
0.92
0.995
1.015
0.97
1.04
0.995
0.895
0.79
0.6
0.515
0.52
0.45
0.46
0.28
0.175
0.135
0.14
0.04
0.07
0.11
0.145
0.115
0.075
0.13
0.17
0.135
0.125
0.105
0.08
0.105
0.07
0.07
0.09
0.115
0.105
0.145
0.085
0.105
0.095
0.115
0.08
0.075
0.105
0.16
0.1
0.105
0.065
0.095
0.105
0.045
0.14
0.12
0.11
0.135
0.11
0.1
0.12
0.14
0.09
0.03
0.115
0.085
0.12
0.075
0.15
0.155
0.095
0.105
0.16
0.12
0.2
0.075
0.095
0.12
0.125
0.16
0.175
0.15
0.105
0.18
0.125
0.135
0.08
0.15
0.175
0.185
0.065
0.09
0.11
0.175
0.115
0.11
0.17
0.15
0.135
0.135
0.16
0.19
0.165
0.22
0.19
0.155
0.14
0.195
0.22
0.185
0.215
0.2
0.21
0.23
0.255
0.3
0.235
0.28
0.225
0.25
0.27
0.285
0.28
0.315
0.295
0.29
0.275
0.295
0.315
0.275
0.32
0.325
0.285
0.3
0.355
0.345
0.355
0.26
0.32
0.325
0.39
0.295
0.29
0.285
0.305
0.24
0.24
0.215
0.215
0.24
0.23
0.17
0.18
0.205
0.24
0.215
0.23
0.195
0.135
0.09
0.16
0.15
0.14
0.15
0.125
0.16
0.195
0.14
0.16
0.115
0.125
0.145
0.115
0.09
0.105
0.125
0.135
0.105
0.14
0.125
0.135
0.12
0.135
0.105
0.12
0.045
0.1
0.105
0.155
0.15
0.12
0.09
0.075
0.1
0.07
0.125
0.15
0.115
0.04
0.08
0.1
0.13
0.12
0.08
0.12
0.175
0.12
0.065
