# TIPE ECG 2021 - ECG-ID Database v1.0.0 par Physionet
# [N° de la personne, N° de l'enregistrement, Période d'échantillonnage, Prénom, Age, Sexe, Date de l'enregistrement]
[58, 2, 0.002, "Benjamin", 24, "H", "12.05.2005"]
-0.02
-0.03
0.01
-0.02
-0.035
-0.025
-0.015
0.005
-0.005
-0.03
-0.045
-0.035
0.01
0.015
0.035
-0.025
0.035
0.03
-0.02
0.03
0.04
0.03
0.035
-0.045
-0.035
-0.06
-0.06
-0.04
0.0
-0.035
-0.01
0.06
0.02
0.005
0.05
0.04
0.0
-0.025
-0.015
-0.05
-0.085
-0.085
-0.025
-0.02
-0.04
-0.025
-0.01
-0.035
-0.02
-0.02
0.01
0.0
-0.03
-0.04
-0.055
-0.07
-0.05
-0.025
-0.005
-0.095
-0.04
-0.015
-0.04
-0.015
-0.05
-0.075
-0.11
-0.045
-0.03
-0.03
0.01
-0.005
0.015
-0.03
-0.075
-0.08
-0.065
-0.055
-0.015
-0.055
-0.1
-0.105
-0.1
-0.06
-0.015
-0.06
-0.055
-0.045
-0.06
-0.07
-0.01
-0.04
-0.065
-0.065
-0.065
-0.065
-0.03
-0.02
-0.09
-0.14
-0.165
-0.185
-0.06
-0.01
-0.03
-0.005
-0.005
-0.055
-0.055
-0.105
-0.105
-0.1
-0.07
-0.045
-0.045
-0.12
-0.075
0.03
0.03
-0.005
-0.005
-0.105
-0.13
-0.09
-0.075
-0.045
-0.06
-0.105
-0.075
-0.055
-0.055
-0.05
-0.05
-0.075
-0.005
-0.025
-0.06
-0.08
-0.11
-0.075
-0.075
-0.125
-0.1
-0.085
-0.11
-0.06
-0.055
-0.095
-0.065
-0.025
-0.05
-0.06
0.01
0.01
-0.08
-0.06
-0.08
-0.07
-0.13
-0.115
-0.075
-0.06
-0.07
-0.085
-0.07
0.045
0.0
-0.11
-0.075
-0.015
-0.075
-0.075
-0.03
-0.08
-0.115
-0.1
-0.075
-0.07
-0.05
-0.08
-0.13
-0.065
-0.05
-0.025
-0.04
-0.055
-0.05
-0.015
-0.085
-0.125
-0.095
-0.07
-0.04
-0.035
-0.04
-0.09
-0.15
-0.18
-0.195
-0.155
-0.14
-0.12
-0.08
-0.115
-0.145
-0.175
-0.175
-0.125
-0.105
-0.12
-0.085
-0.065
-0.04
-0.04
-0.055
-0.055
-0.06
-0.065
-0.15
-0.16
-0.165
-0.095
-0.13
-0.15
-0.075
-0.1
-0.065
-0.105
-0.095
-0.055
-0.095
-0.09
-0.095
-0.12
-0.025
-0.025
-0.11
-0.115
-0.11
-0.02
-0.025
-0.1
-0.095
-0.125
-0.1
-0.105
-0.115
-0.12
-0.095
-0.08
-0.02
-0.06
-0.07
-0.04
-0.045
-0.08
-0.055
-0.05
-0.095
-0.075
-0.075
-0.085
-0.11
-0.08
-0.035
-0.025
-0.065
-0.055
-0.065
-0.045
-0.03
-0.065
-0.13
-0.125
-0.125
-0.13
-0.185
-0.175
-0.08
-0.065
-0.05
-0.08
-0.035
-0.03
-0.06
-0.04
-0.025
-0.025
-0.06
-0.075
-0.155
-0.125
-0.065
-0.07
-0.045
-0.075
-0.12
-0.055
-0.075
-0.07
-0.085
-0.08
-0.035
-0.05
-0.055
-0.095
-0.055
-0.1
-0.08
-0.095
-0.095
0.01
-0.02
0.0
-0.03
-0.075
-0.065
-0.065
-0.025
-0.025
-0.065
-0.04
-0.05
-0.11
-0.065
-0.02
-0.04
-0.02
-0.03
-0.015
0.005
0.015
-0.005
-0.02
0.0
-0.02
0.02
0.01
0.005
0.01
0.005
0.04
0.07
0.005
-0.015
-0.04
-0.01
-0.025
-0.07
-0.115
-0.1
-0.065
-0.03
-0.01
-0.06
-0.055
-0.08
-0.07
-0.05
-0.025
-0.01
-0.04
-0.04
-0.08
-0.07
-0.11
-0.125
-0.11
-0.115
-0.095
-0.05
-0.01
-0.015
-0.06
-0.05
-0.1
-0.1
-0.095
-0.065
-0.03
-0.055
-0.09
-0.16
-0.125
-0.145
-0.185
-0.125
-0.025
0.04
0.11
0.17
0.29
0.38
0.455
0.6
0.845
1.0
1.135
1.215
1.235
1.2
1.115
1.005
0.86
0.715
0.605
0.505
0.35
0.225
0.045
-0.075
-0.165
-0.25
-0.255
-0.19
-0.15
-0.15
-0.16
-0.155
-0.175
-0.195
-0.18
-0.125
-0.1
-0.095
-0.11
-0.09
-0.05
-0.055
-0.065
-0.08
-0.105
-0.12
-0.07
-0.005
-0.025
-0.02
-0.03
-0.045
-0.045
-0.035
-0.03
-0.045
-0.045
-0.015
-0.01
-0.015
-0.02
-0.01
-0.055
-0.035
-0.01
0.005
0.03
0.005
-0.015
-0.03
-0.01
0.025
-0.005
0.005
0.025
0.005
-0.03
-0.01
0.015
0.03
0.055
0.07
0.015
0.03
-0.01
-0.075
-0.015
0.09
0.03
0.07
0.09
0.06
0.04
0.025
0.055
0.02
0.015
0.03
0.025
0.05
0.09
0.1
0.12
0.16
0.19
0.155
0.1
0.115
0.14
0.11
0.125
0.09
0.085
0.115
0.125
0.16
0.19
0.16
0.18
0.17
0.19
0.245
0.2
0.225
0.19
0.21
0.2
0.22
0.19
0.25
0.25
0.28
0.275
0.3
0.28
0.245
0.25
0.26
0.295
0.29
0.32
0.3
0.265
0.25
0.275
0.255
0.28
0.295
0.325
0.35
0.305
0.3
0.35
0.33
0.275
0.265
0.265
0.23
0.25
0.26
0.21
0.195
0.175
0.21
0.18
0.18
0.14
0.12
0.095
0.13
0.125
0.095
0.11
0.12
0.125
0.1
0.04
0.01
-0.01
-0.01
-0.015
0.02
0.025
0.04
0.0
0.035
0.04
0.065
0.04
0.025
0.025
0.005
-0.02
-0.005
0.025
0.02
0.035
0.07
0.045
0.005
-0.04
-0.02
-0.01
0.01
0.0
-0.015
0.005
0.005
0.025
0.015
0.015
0.0
-0.07
-0.1
-0.1
-0.04
0.02
0.04
0.075
0.075
0.03
-0.035
0.015
0.065
0.02
-0.065
-0.03
-0.02
0.045
0.03
-0.005
-0.03
-0.045
-0.08
-0.05
-0.02
-0.025
-0.005
-0.06
0.005
-0.005
-0.01
-0.01
0.0
-0.025
-0.04
-0.025
-0.08
-0.11
-0.11
-0.075
-0.04
0.03
0.01
-0.045
-0.02
-0.07
-0.085
-0.06
-0.035
-0.045
-0.03
-0.045
-0.05
-0.06
-0.075
-0.02
-0.02
-0.045
-0.035
-0.035
-0.06
-0.11
-0.115
-0.085
-0.06
-0.055
-0.1
-0.115
-0.09
-0.025
-0.04
-0.02
-0.015
-0.02
-0.04
-0.08
-0.125
-0.105
-0.075
-0.07
-0.085
-0.1
-0.13
-0.09
-0.13
-0.125
-0.085
-0.03
-0.04
-0.095
-0.09
-0.07
-0.085
-0.075
-0.045
-0.095
-0.11
-0.125
-0.075
-0.045
-0.03
-0.045
-0.065
-0.09
-0.1
-0.085
-0.075
-0.115
-0.105
-0.05
-0.045
-0.085
-0.13
-0.105
-0.02
-0.065
-0.075
-0.07
-0.04
-0.055
-0.06
-0.07
-0.065
-0.07
-0.05
-0.065
-0.07
-0.08
-0.075
-0.075
-0.09
-0.07
-0.08
-0.075
-0.07
-0.125
-0.065
-0.035
-0.065
-0.025
-0.07
-0.09
-0.09
-0.11
-0.125
-0.13
-0.075
-0.06
-0.075
-0.05
-0.045
-0.035
-0.105
-0.105
-0.08
-0.08
-0.09
-0.09
-0.1
-0.06
-0.055
-0.06
-0.02
-0.055
-0.085
-0.08
-0.105
-0.11
-0.08
-0.105
-0.11
-0.12
-0.06
-0.065
-0.09
-0.125
-0.14
-0.12
-0.095
-0.075
-0.065
-0.045
-0.055
-0.035
-0.03
-0.035
-0.02
-0.025
-0.06
-0.045
-0.07
-0.105
-0.115
-0.135
-0.095
-0.11
-0.14
-0.11
-0.07
-0.09
-0.03
0.015
-0.035
-0.1
-0.105
-0.05
-0.07
-0.07
-0.055
-0.065
-0.035
-0.055
-0.09
-0.075
-0.04
-0.05
-0.065
-0.13
-0.065
-0.075
-0.08
-0.155
-0.1
-0.055
-0.09
-0.065
0.03
-0.045
-0.09
-0.03
0.005
0.075
0.06
0.0
0.02
-0.025
-0.05
-0.05
-0.07
-0.065
-0.03
0.025
-0.005
-0.02
0.0
-0.005
-0.02
-0.025
-0.025
-0.01
-0.055
-0.075
-0.035
-0.03
-0.025
-0.005
0.0
-0.07
-0.11
-0.155
-0.115
-0.075
-0.06
-0.055
-0.065
-0.095
-0.07
-0.02
-0.01
-0.07
-0.09
-0.045
-0.03
-0.055
-0.105
-0.12
-0.14
-0.125
-0.09
-0.06
-0.095
-0.105
-0.14
-0.115
-0.115
-0.1
-0.085
-0.105
-0.14
-0.155
-0.16
-0.09
-0.07
-0.065
0.0
0.12
0.215
0.285
0.405
0.555
0.765
0.93
1.005
1.09
1.17
1.2
1.1
1.0
0.91
0.79
0.755
0.655
0.515
0.425
0.255
0.1
-0.005
-0.14
-0.215
-0.215
-0.2
-0.165
-0.135
-0.075
-0.07
-0.085
-0.1
-0.1
-0.095
-0.075
-0.1
-0.08
-0.045
-0.045
-0.09
-0.065
-0.06
-0.1
-0.11
-0.08
-0.065
-0.08
-0.055
-0.065
-0.08
-0.055
-0.045
-0.01
-0.02
-0.05
-0.045
-0.02
-0.08
-0.075
-0.025
-0.085
-0.055
-0.035
-0.015
-0.025
0.0
0.02
-0.005
0.04
-0.02
0.005
-0.05
-0.02
-0.005
-0.015
-0.005
0.035
0.03
0.04
0.05
0.065
0.08
0.04
0.035
0.05
0.015
0.015
0.06
0.045
0.03
-0.02
0.03
0.08
0.085
0.075
0.1
0.11
0.08
0.095
0.095
0.1
0.115
0.1
0.095
0.13
0.185
0.195
0.185
0.175
0.155
0.145
0.17
0.165
0.18
0.19
0.2
0.235
0.22
0.22
0.22
0.23
0.24
0.295
0.28
0.285
0.27
0.27
0.255
0.285
0.29
0.285
0.295
0.305
0.345
0.365
0.425
0.42
0.365
0.345
0.325
0.375
0.36
0.365
0.33
0.305
0.32
0.36
0.36
0.35
0.31
0.3
0.295
0.28
0.315
0.33
0.305
0.27
0.245
0.265
0.25
0.275
0.28
0.205
0.16
0.11
0.145
0.115
0.1
0.05
0.07
0.1
0.135
0.085
0.035
0.015
0.0
-0.055
-0.005
-0.035
-0.05
-0.05
-0.055
0.03
0.065
0.025
0.03
-0.04
-0.03
0.0
-0.01
-0.05
-0.05
-0.05
-0.025
-0.025
-0.05
-0.055
0.005
-0.025
-0.005
0.04
0.06
0.065
0.02
0.035
0.01
-0.02
0.0
0.005
0.0
0.0
0.045
0.02
-0.015
0.0
-0.03
0.0
0.005
0.01
0.0
0.005
0.015
0.015
-0.005
-0.005
0.005
0.025
-0.025
-0.045
-0.035
-0.065
-0.05
-0.04
0.005
0.015
0.03
0.02
0.045
0.015
0.025
-0.03
-0.055
-0.085
-0.09
0.03
0.085
0.0
0.015
-0.025
-0.125
-0.015
0.005
-0.005
-0.045
-0.025
-0.015
-0.055
-0.025
0.02
0.01
0.005
-0.04
-0.04
-0.04
-0.025
-0.06
-0.045
-0.055
-0.035
-0.025
0.01
-0.025
-0.06
-0.065
-0.065
-0.05
-0.055
-0.045
-0.05
-0.015
-0.03
-0.03
-0.05
-0.06
-0.09
-0.05
-0.07
-0.03
-0.03
-0.015
-0.05
-0.105
-0.065
-0.105
-0.08
-0.05
-0.04
0.0
-0.045
-0.035
-0.03
-0.045
-0.07
-0.065
-0.09
-0.085
-0.075
-0.1
-0.075
-0.075
-0.035
-0.08
-0.1
-0.055
0.0
-0.03
-0.04
-0.025
-0.035
0.02
-0.06
-0.06
-0.075
-0.07
-0.04
-0.055
-0.075
-0.04
-0.04
-0.045
-0.075
-0.08
-0.05
-0.025
-0.055
-0.06
-0.045
-0.065
-0.055
-0.06
-0.04
-0.02
-0.025
-0.05
-0.06
-0.085
-0.1
-0.085
-0.075
-0.075
-0.09
-0.08
-0.105
-0.09
-0.04
-0.095
-0.055
-0.03
-0.03
-0.045
-0.045
-0.07
-0.075
-0.025
0.01
-0.045
-0.075
-0.055
-0.045
-0.025
-0.045
-0.06
-0.125
-0.065
-0.035
-0.085
-0.06
-0.05
-0.055
-0.075
-0.04
-0.105
-0.125
-0.09
-0.045
-0.075
-0.09
-0.055
-0.055
-0.025
0.0
-0.01
-0.035
-0.035
-0.045
-0.05
-0.09
-0.1
-0.105
-0.07
-0.075
-0.02
0.025
-0.07
-0.09
-0.06
-0.06
-0.1
-0.13
-0.08
-0.065
-0.035
-0.01
-0.015
-0.05
-0.035
-0.05
-0.045
-0.06
-0.07
-0.065
-0.075
-0.06
-0.065
-0.08
-0.065
-0.035
0.015
0.03
-0.06
-0.09
-0.105
-0.075
-0.055
-0.065
-0.07
-0.005
0.0
0.03
0.04
0.04
0.05
0.085
0.035
0.015
0.04
0.025
0.025
0.04
-0.01
-0.06
-0.045
-0.02
0.015
0.015
-0.015
-0.035
-0.04
-0.025
0.0
-0.025
-0.03
-0.06
-0.045
0.035
-0.01
-0.11
-0.085
-0.01
0.03
-0.01
0.0
-0.03
-0.05
-0.08
-0.125
-0.095
-0.105
-0.085
-0.085
-0.035
-0.03
-0.04
-0.05
-0.06
-0.08
-0.025
-0.085
-0.105
-0.08
-0.04
-0.075
-0.07
-0.065
-0.05
-0.03
-0.055
-0.105
-0.14
-0.14
-0.14
-0.165
-0.14
-0.045
0.035
0.145
0.175
0.285
0.36
0.525
0.755
0.95
1.115
1.24
1.25
1.27
1.19
1.12
1.11
0.985
0.755
0.64
0.54
0.465
0.36
0.19
-0.015
-0.1
-0.205
-0.24
-0.21
-0.205
-0.15
-0.09
-0.11
-0.095
-0.035
-0.06
-0.025
-0.03
-0.045
-0.045
-0.08
-0.085
-0.08
-0.08
-0.045
-0.075
-0.025
0.01
0.005
0.02
0.0
-0.005
0.04
0.03
-0.01
-0.04
-0.085
-0.05
0.0
-0.045
0.005
0.02
0.01
-0.015
-0.01
0.04
-0.005
0.0
0.04
0.015
-0.01
0.005
0.0
0.025
0.06
0.05
0.04
0.01
0.065
0.06
0.045
0.02
0.035
0.005
0.005
-0.06
0.005
0.125
0.07
0.04
0.07
0.075
0.075
0.1
0.095
0.12
0.19
0.2
0.1
0.08
0.06
0.1
0.15
0.175
0.17
0.11
0.125
0.215
0.23
0.19
0.235
0.225
0.155
0.17
0.21
0.215
0.22
0.235
0.23
0.26
0.255
0.285
0.3
0.315
0.3
0.33
0.31
0.305
0.38
0.34
0.345
0.31
0.375
0.44
0.445
0.445
0.425
0.42
0.43
0.445
0.43
0.42
0.435
0.465
0.495
0.485
0.455
0.405
0.415
0.415
0.38
0.385
0.43
0.41
0.375
0.345
0.335
0.32
0.345
0.32
0.285
0.25
0.3
0.285
0.265
0.24
0.245
0.25
0.225
0.165
0.165
0.16
0.13
0.105
0.125
0.085
0.12
0.12
0.125
0.11
0.075
0.02
0.025
0.05
0.02
0.015
-0.03
-0.005
0.06
0.075
0.03
0.07
0.09
0.035
0.025
0.0
0.0
0.005
0.01
0.025
-0.015
-0.005
0.045
0.045
0.02
0.005
0.04
0.075
0.06
0.06
0.05
0.06
0.02
0.02
0.01
0.0
0.03
0.025
0.035
0.015
0.07
0.04
-0.015
-0.025
0.02
0.06
0.015
0.015
0.055
0.015
0.055
0.04
0.045
0.08
0.045
0.025
0.01
0.02
0.01
0.025
0.07
0.065
0.045
0.05
0.01
-0.015
-0.04
-0.025
0.005
0.01
0.04
0.035
-0.015
-0.01
0.01
0.045
0.055
-0.025
-0.05
-0.005
0.02
-0.005
-0.03
0.02
0.045
0.01
-0.015
0.02
-0.005
0.02
0.015
0.01
0.0
-0.03
-0.025
-0.06
-0.1
-0.075
0.0
-0.005
-0.005
-0.015
0.015
0.03
-0.025
-0.015
-0.02
-0.01
-0.045
-0.015
-0.035
-0.045
-0.055
-0.025
0.02
0.0
-0.03
-0.045
-0.02
-0.01
-0.01
-0.02
-0.06
-0.06
-0.005
0.0
0.025
0.025
0.0
-0.03
-0.02
-0.03
-0.025
-0.055
-0.07
-0.055
-0.025
-0.025
-0.02
-0.01
-0.035
-0.015
-0.025
-0.01
-0.02
-0.01
0.035
0.015
-0.055
-0.055
-0.065
-0.03
-0.01
-0.005
0.01
0.005
-0.01
-0.045
-0.04
-0.035
-0.035
0.005
-0.025
-0.035
-0.035
-0.005
0.015
-0.01
-0.015
-0.03
-0.09
-0.04
0.0
0.01
0.0
-0.025
-0.06
-0.025
-0.035
-0.05
-0.045
-0.035
-0.04
-0.06
-0.08
-0.05
0.015
-0.025
-0.045
0.015
0.0
-0.025
0.005
0.035
-0.025
-0.1
-0.085
-0.045
-0.025
0.01
0.015
0.025
-0.085
-0.09
-0.045
-0.025
-0.025
0.005
0.0
-0.015
-0.02
-0.03
-0.025
-0.065
-0.05
-0.055
-0.04
-0.025
-0.015
-0.01
0.02
0.02
0.025
0.06
0.055
0.055
0.04
0.035
0.045
0.04
0.025
-0.045
0.01
0.05
0.06
0.04
0.05
-0.03
0.015
0.045
0.0
-0.045
0.015
0.06
0.055
0.07
0.065
0.03
0.015
-0.065
-0.07
-0.055
-0.015
-0.045
-0.025
-0.025
-0.075
-0.025
-0.045
-0.045
-0.035
-0.02
-0.05
-0.085
0.01
0.04
0.0
-0.045
-0.03
-0.055
-0.06
-0.045
-0.06
-0.045
-0.04
-0.045
-0.07
-0.06
-0.09
-0.09
-0.055
-0.07
-0.035
-0.03
-0.075
-0.115
-0.13
-0.1
-0.095
-0.085
0.02
0.09
0.16
0.26
0.29
0.37
0.455
0.635
0.86
1.04
1.165
1.215
1.26
1.2
1.085
1.01
0.88
0.84
0.7
0.615
0.43
0.3
0.14
-0.045
-0.145
-0.175
-0.205
-0.205
-0.185
-0.14
-0.105
-0.145
-0.12
-0.075
-0.065
-0.055
0.005
0.035
0.005
-0.055
-0.045
-0.055
-0.06
-0.025
-0.06
-0.04
-0.05
-0.005
0.025
0.015
-0.025
-0.045
-0.02
-0.02
-0.03
-0.03
-0.015
0.01
-0.005
0.055
0.035
0.035
0.06
0.02
-0.025
-0.045
-0.05
-0.01
0.03
0.035
0.02
0.065
0.095
0.11
0.165
0.1
0.02
0.0
-0.015
0.0
0.04
0.055
0.085
0.075
0.055
0.075
0.115
0.09
0.055
0.035
0.025
0.015
0.075
0.1
0.095
0.105
0.115
0.07
0.14
0.16
0.155
0.15
0.12
0.13
0.165
0.165
0.125
0.185
0.245
0.295
0.26
0.205
0.18
0.2
0.185
0.145
0.185
0.255
0.25
0.205
0.25
0.29
0.31
0.36
0.335
0.315
0.325
0.335
0.335
0.345
0.355
0.39
0.4
0.33
0.27
0.27
0.27
0.275
0.25
0.41
0.48
0.44
0.365
0.365
0.415
0.4
0.365
0.395
0.365
0.33
0.345
0.35
0.37
0.335
0.34
0.305
0.36
0.315
0.31
0.33
0.295
0.315
0.285
0.255
0.215
0.17
0.15
0.09
0.095
0.13
0.155
0.105
0.105
0.1
0.1
0.065
0.03
0.095
0.08
0.095
0.105
0.025
0.015
-0.035
0.02
0.01
0.02
0.03
0.075
0.045
-0.025
-0.025
-0.05
0.045
0.025
0.07
0.025
0.035
0.01
-0.015
0.035
0.05
0.02
0.03
-0.005
0.025
0.04
0.075
0.095
0.065
0.055
0.05
0.04
-0.015
-0.04
-0.065
-0.015
0.08
0.06
0.075
0.065
0.085
0.08
0.05
-0.02
-0.02
-0.005
-0.005
0.06
0.08
0.13
0.085
0.07
0.04
0.045
-0.035
-0.005
0.015
0.0
0.01
0.01
0.02
0.0
-0.005
0.035
0.06
0.055
0.045
0.035
0.055
-0.01
-0.04
-0.025
0.0
0.025
-0.01
-0.04
-0.03
-0.005
0.04
0.1
0.045
0.01
0.0
0.0
-0.015
-0.025
-0.03
-0.045
-0.075
-0.075
-0.045
-0.08
-0.06
-0.05
0.01
0.0
0.015
0.03
-0.045
-0.04
-0.03
-0.025
-0.03
-0.005
0.09
0.065
0.015
-0.01
-0.06
-0.065
-0.065
0.03
-0.005
-0.025
-0.035
-0.005
-0.04
-0.1
-0.055
-0.04
-0.07
-0.08
0.005
0.025
0.065
-0.02
-0.025
-0.045
-0.045
-0.035
0.035
0.035
-0.045
-0.01
0.045
-0.04
-0.05
-0.015
0.02
-0.06
-0.145
-0.03
-0.005
-0.025
-0.02
-0.065
-0.065
-0.04
0.025
-0.005
0.025
0.02
-0.01
-0.005
-0.01
-0.03
-0.095
-0.05
0.025
0.02
-0.015
0.02
-0.015
-0.01
0.01
-0.025
-0.085
-0.09
-0.065
-0.045
-0.055
-0.04
-0.065
-0.03
-0.005
-0.005
0.01
0.0
-0.035
-0.015
-0.015
-0.035
-0.055
-0.065
0.0
0.03
0.045
0.025
0.075
0.025
-0.04
-0.045
-0.025
-0.02
0.0
-0.005
-0.015
0.0
-0.05
-0.04
-0.03
-0.035
-0.005
-0.01
-0.02
0.02
0.005
0.04
-0.005
-0.025
0.03
-0.035
0.045
0.045
0.065
0.035
-0.05
-0.11
-0.075
-0.1
-0.09
-0.07
-0.025
-0.025
-0.015
-0.02
0.055
-0.005
-0.025
-0.02
0.02
0.01
0.015
-0.025
-0.005
0.01
0.015
0.0
-0.015
-0.035
-0.045
-0.03
-0.02
0.0
0.045
-0.04
-0.095
-0.1
-0.025
-0.005
-0.01
0.06
0.06
0.06
0.07
0.07
0.125
0.125
0.075
0.01
0.095
0.105
0.025
0.02
0.005
-0.025
0.065
0.085
0.0
0.03
0.015
0.07
0.12
0.07
0.01
0.0
0.06
0.075
0.06
0.06
-0.015
0.0
-0.015
-0.03
-0.02
-0.03
-0.01
0.03
0.055
0.06
0.02
-0.015
-0.035
-0.08
-0.035
-0.025
-0.015
-0.025
-0.03
0.0
-0.02
-0.035
-0.085
-0.055
0.025
-0.05
-0.1
-0.05
0.025
-0.05
-0.105
-0.105
-0.015
-0.07
-0.165
-0.185
-0.09
-0.015
0.13
0.155
0.195
0.225
0.185
0.275
0.37
0.615
0.83
1.065
1.225
1.29
1.22
1.205
1.17
1.15
1.09
0.935
0.8
0.705
0.555
0.42
0.255
0.08
-0.13
-0.175
-0.175
-0.2
-0.185
-0.155
-0.09
-0.085
-0.075
-0.06
0.005
-0.025
-0.11
-0.09
-0.065
0.025
-0.005
0.035
0.02
0.07
0.085
0.075
0.07
0.0
-0.06
-0.06
-0.1
-0.125
-0.075
-0.005
-0.025
-0.04
-0.05
-0.005
0.035
0.025
0.065
-0.035
-0.07
-0.045
-0.025
0.09
0.145
-0.01
-0.04
-0.005
-0.01
0.005
0.035
0.01
-0.03
0.025
0.175
0.165
0.115
0.07
0.085
0.08
0.12
0.14
0.115
0.06
0.005
0.075
0.145
0.12
0.06
0.08
0.1
0.085
0.12
0.075
0.11
0.055
0.09
0.145
0.105
0.125
0.16
0.13
0.065
0.035
0.115
0.22
0.245
0.27
0.255
0.24
0.205
0.23
0.275
0.22
0.225
0.26
0.21
0.28
0.31
0.365
0.325
0.365
0.33
0.355
0.345
0.33
0.36
0.43
0.39
0.36
0.35
0.345
0.32
0.38
0.375
0.335
0.4
0.375
0.395
0.395
0.39
0.39
0.48
0.445
0.47
0.44
0.385
0.42
0.43
0.435
0.43
0.44
0.44
0.39
0.355
0.4
0.385
0.285
0.28
0.315
0.29
0.28
0.275
0.285
0.225
0.21
0.225
0.205
0.17
0.18
0.14
0.13
0.12
0.1
0.13
0.1
0.02
0.055
0.06
0.015
0.02
0.05
0.065
0.105
0.05
0.02
0.055
0.08
0.09
0.08
0.01
0.015
0.02
0.045
0.055
0.0
-0.035
-0.125
-0.065
0.02
0.015
0.08
0.15
0.14
0.16
0.14
0.07
0.025
0.035
0.045
0.055
0.065
0.085
0.105
0.065
-0.005
-0.015
0.01
0.135
0.095
0.055
0.07
0.035
0.07
0.045
-0.005
0.03
0.075
0.05
0.045
0.075
0.05
0.025
-0.005
-0.035
-0.02
0.09
0.055
0.03
0.015
0.06
0.085
0.11
0.155
0.115
0.1
0.03
0.045
0.01
-0.025
0.01
0.045
0.065
0.03
0.0
0.03
0.06
-0.06
-0.05
-0.045
-0.03
-0.055
-0.065
0.04
0.055
0.07
0.06
0.055
0.085
0.055
0.035
0.005
-0.04
-0.015
-0.07
-0.08
-0.05
-0.045
0.015
0.055
0.015
0.04
0.06
-0.005
0.005
0.01
0.015
0.045
0.015
-0.005
-0.015
-0.005
0.005
0.03
-0.025
-0.005
0.0
0.01
-0.01
-0.05
-0.03
0.0
-0.015
-0.04
0.0
-0.015
0.025
0.04
0.015
-0.005
-0.01
0.0
-0.025
-0.05
-0.065
-0.01
0.01
0.05
0.015
-0.035
-0.065
-0.015
0.035
-0.035
-0.015
-0.005
0.01
0.02
-0.01
-0.075
-0.02
0.0
0.01
0.03
0.035
0.045
0.04
0.015
-0.045
-0.01
-0.05
-0.06
-0.055
-0.03
-0.04
-0.015
0.035
0.04
0.06
0.07
0.02
-0.05
-0.035
0.015
-0.045
-0.07
-0.06
-0.02
-0.09
-0.02
0.07
0.055
0.05
-0.01
-0.015
-0.01
-0.02
-0.06
-0.03
0.0
-0.035
-0.025
-0.01
-0.005
0.04
0.045
-0.015
-0.03
0.055
0.065
0.035
-0.025
-0.025
-0.095
-0.05
0.015
0.04
0.04
0.02
-0.02
-0.045
-0.005
0.01
0.005
0.005
-0.03
-0.05
-0.065
-0.05
-0.04
0.0
-0.015
-0.06
0.01
0.04
0.015
-0.01
-0.015
0.065
0.065
0.04
-0.06
-0.07
-0.095
-0.04
0.035
0.04
-0.01
-0.045
-0.05
-0.05
-0.045
-0.01
0.025
0.045
0.05
-0.005
-0.05
0.01
0.04
0.0
-0.005
0.06
0.005
-0.06
-0.085
-0.08
-0.08
-0.125
-0.05
0.05
0.085
0.05
0.075
0.035
0.035
-0.02
-0.025
0.015
0.0
-0.06
-0.085
-0.065
-0.01
0.0
-0.045
0.005
0.04
0.075
0.02
0.035
0.025
0.055
0.08
0.04
0.035
0.035
0.04
0.04
0.025
0.08
0.145
0.12
0.125
0.115
0.075
0.015
0.035
0.03
-0.015
-0.08
-0.075
0.035
0.115
0.045
0.07
0.075
0.0
0.015
0.085
0.1
0.06
0.04
-0.05
-0.065
-0.06
0.01
0.03
0.045
0.03
-0.04
-0.055
-0.03
-0.05
0.005
0.015
0.01
-0.025
-0.025
-0.02
-0.02
-0.025
-0.055
-0.045
-0.02
-0.05
-0.09
-0.07
-0.035
-0.08
-0.07
0.055
0.045
0.025
0.005
-0.035
-0.06
-0.015
0.05
0.085
0.09
0.075
0.185
0.32
0.435
0.605
0.79
1.03
1.18
1.25
1.36
1.335
1.305
1.18
1.025
0.895
0.805
0.675
0.545
0.42
0.31
0.15
0.01
-0.07
-0.235
-0.265
-0.19
-0.165
-0.12
-0.075
-0.105
-0.1
-0.045
-0.035
-0.025
0.02
0.05
0.035
0.03
0.015
-0.005
-0.09
-0.13
-0.055
-0.01
-0.01
0.045
0.06
0.125
0.09
0.06
0.0
0.005
0.04
-0.015
-0.04
0.0
0.015
0.02
0.015
0.015
0.005
0.065
0.07
0.075
0.08
0.065
0.0
0.06
0.08
0.055
0.085
0.085
0.085
0.13
0.115
0.05
0.04
0.055
0.05
0.08
0.15
0.11
0.135
0.115
0.055
0.07
0.09
0.07
0.095
0.11
0.09
0.06
0.07
0.11
0.17
0.12
0.14
0.215
0.26
0.28
0.2
0.195
0.165
0.135
0.14
0.155
0.17
0.165
0.205
0.235
0.255
0.215
0.265
0.285
0.335
0.31
0.34
0.35
0.32
0.315
0.325
0.335
0.29
0.325
0.33
0.29
0.295
0.34
0.375
0.375
0.325
0.33
0.395
0.4
0.34
0.36
0.375
0.385
0.43
0.44
0.42
0.42
0.48
0.45
0.435
0.415
0.355
0.295
0.355
0.345
0.4
0.41
0.48
0.49
0.41
0.4
0.38
0.305
0.265
0.29
0.29
0.315
0.235
0.185
0.155
0.2
0.225
0.225
0.165
0.095
0.095
0.08
0.075
0.065
0.045
0.065
0.085
0.07
0.07
0.085
0.055
0.045
0.05
0.07
0.08
0.07
0.01
-0.02
0.025
0.07
0.065
0.095
0.055
0.06
0.05
0.045
0.03
0.08
0.095
0.125
0.1
0.1
0.06
-0.005
-0.005
0.06
0.085
0.04
0.035
0.045
0.02
0.055
0.05
0.05
0.11
0.06
0.065
0.075
0.02
-0.025
-0.02
0.01
0.045
0.035
0.045
0.06
0.07
0.06
0.08
0.125
0.15
0.135
0.045
0.035
0.07
0.075
0.03
0.025
0.01
0.055
0.06
0.015
0.015
0.045
0.105
0.065
0.05
0.015
-0.01
0.005
0.045
0.105
0.145
0.085
-0.04
-0.04
-0.015
-0.015
-0.07
-0.05
0.05
0.055
0.08
0.12
0.065
0.055
0.045
0.01
-0.015
-0.035
-0.045
-0.01
0.015
0.005
-0.01
0.01
-0.01
0.025
0.035
0.035
-0.005
0.01
0.015
-0.02
-0.01
-0.02
-0.045
-0.035
-0.025
0.005
0.025
0.075
0.045
0.01
0.01
0.045
0.03
0.0
-0.035
-0.02
0.015
0.025
-0.025
-0.07
-0.085
-0.04
-0.045
-0.01
-0.04
-0.025
0.015
0.015
-0.025
-0.04
-0.025
0.01
0.005
0.025
0.015
0.0
-0.035
-0.095
-0.025
0.01
-0.005
0.02
-0.035
-0.04
-0.05
-0.04
-0.07
-0.06
-0.02
0.035
0.02
-0.005
0.005
-0.03
-0.015
-0.02
-0.075
-0.065
-0.03
0.0
0.0
0.02
-0.025
-0.005
-0.02
0.015
0.045
0.01
-0.01
-0.025
0.0
0.02
-0.005
0.005
-0.03
-0.05
-0.045
-0.005
0.025
-0.005
-0.025
-0.025
-0.055
-0.08
-0.11
-0.055
-0.02
0.02
0.0
-0.005
-0.07
-0.05
-0.035
-0.01
-0.005
0.015
-0.06
-0.08
-0.06
-0.04
-0.08
-0.095
-0.015
0.005
-0.06
-0.055
-0.04
-0.04
-0.02
-0.02
0.03
0.0
-0.03
0.0
-0.05
-0.035
-0.025
-0.005
0.015
0.03
0.01
0.055
-0.04
-0.035
-0.005
0.0
-0.025
-0.04
-0.08
-0.05
-0.03
-0.045
-0.065
-0.06
-0.115
-0.1
-0.065
-0.045
-0.03
0.0
0.005
-0.045
-0.015
-0.015
-0.1
-0.115
-0.09
-0.075
-0.045
-0.03
-0.05
0.035
0.01
0.015
-0.005
0.035
0.07
0.035
0.055
0.085
0.115
0.07
0.045
0.015
-0.01
-0.02
0.015
0.005
0.01
0.025
0.01
-0.015
-0.03
0.025
-0.015
0.02
0.025
0.035
0.07
0.06
0.06
-0.005
-0.05
-0.065
-0.055
-0.11
-0.09
-0.035
-0.06
-0.065
-0.06
-0.05
-0.035
-0.065
0.01
-0.005
-0.01
0.025
-0.035
-0.1
-0.095
-0.13
-0.15
-0.075
-0.045
-0.1
-0.065
0.015
-0.005
0.0
-0.055
-0.13
-0.12
-0.07
-0.095
-0.145
-0.115
-0.145
-0.135
-0.115
-0.025
-0.015
0.035
0.145
0.19
0.28
0.405
0.565
0.73
0.92
1.07
1.165
1.15
1.2
1.145
1.1
1.085
0.995
0.85
0.725
0.585
0.43
0.375
0.22
0.015
-0.12
-0.2
-0.23
-0.225
-0.175
-0.16
-0.12
-0.125
-0.155
-0.13
-0.08
-0.045
-0.03
0.01
0.01
-0.005
-0.045
0.01
0.045
-0.025
-0.05
-0.06
0.0
-0.075
-0.06
-0.1
-0.115
-0.07
-0.01
0.005
0.0
-0.04
-0.02
0.05
0.015
-0.015
-0.025
-0.01
-0.005
0.005
-0.025
0.01
-0.01
-0.04
-0.05
0.02
0.055
-0.04
-0.01
0.01
0.0
0.025
0.07
0.06
0.065
0.06
0.05
0.06
0.035
0.05
0.075
0.025
0.035
0.05
0.04
0.045
0.105
0.1
0.045
0.055
0.06
0.06
0.11
0.095
0.115
0.22
0.185
0.16
0.105
0.08
0.125
0.075
0.09
0.09
0.13
0.14
0.21
0.17
0.185
0.17
0.12
0.165
0.285
0.255
0.215
0.26
0.29
0.33
0.29
0.235
0.265
0.315
0.285
0.285
0.275
0.275
0.295
0.335
0.39
0.315
0.365
0.345
0.34
0.335
0.355
0.39
0.415
0.355
0.355
0.405
0.41
0.405
0.405
0.37
0.375
0.34
0.305
0.365
0.395
0.37
0.41
0.39
0.37
0.3
0.285
0.265
0.22
0.175
0.235
0.195
0.165
0.17
0.17
0.2
0.16
0.17
0.18
0.16
0.06
0.075
0.105
0.075
0.03
-0.005
-0.01
0.015
-0.04
0.025
0.04
0.06
-0.045
-0.035
-0.035
-0.075
-0.04
0.01
0.015
-0.005
-0.03
-0.05
-0.055
-0.07
-0.035
0.0
-0.02
0.04
0.04
0.005
-0.01
-0.015
0.01
0.02
0.03
-0.03
-0.1
0.005
0.045
0.005
0.005
0.045
-0.005
-0.04
0.0
0.055
0.005
0.005
0.02
0.005
-0.015
-0.06
-0.015
0.005
0.025
-0.015
0.015
-0.025
0.03
0.035
0.01
-0.02
-0.02
0.09
0.04
-0.105
-0.025
-0.02
-0.08
-0.025
-0.02
-0.065
0.0
-0.025
-0.04
-0.06
0.015
0.005
-0.005
-0.01
-0.02
0.01
0.02
-0.02
0.02
-0.03
-0.03
-0.06
-0.045
0.0
-0.035
-0.035
-0.04
-0.065
-0.045
-0.05
-0.065
-0.02
0.035
0.01
-0.055
-0.045
-0.015
-0.02
-0.05
-0.055
-0.06
-0.04
-0.025
-0.05
-0.065
-0.13
-0.08
-0.075
-0.005
-0.02
-0.06
-0.04
-0.03
-0.01
-0.035
-0.075
-0.085
-0.105
-0.135
-0.095
-0.075
-0.035
-0.045
-0.105
-0.055
-0.03
-0.03
-0.015
0.0
-0.04
-0.015
-0.03
-0.04
-0.01
-0.085
-0.135
-0.11
-0.075
-0.045
-0.035
-0.05
0.005
-0.02
-0.025
-0.04
-0.04
-0.075
-0.065
-0.06
-0.065
-0.03
-0.03
0.005
-0.03
-0.065
-0.095
-0.06
-0.08
-0.13
-0.115
-0.095
-0.05
-0.055
-0.08
-0.05
-0.055
-0.035
-0.06
-0.07
-0.095
-0.115
-0.125
-0.105
-0.04
0.03
0.005
-0.045
-0.06
-0.035
-0.05
-0.07
-0.035
-0.035
-0.055
-0.1
-0.06
-0.04
-0.025
-0.005
0.0
-0.02
-0.075
-0.02
-0.06
-0.135
-0.085
-0.065
-0.04
-0.045
-0.045
-0.055
-0.095
-0.035
-0.045
-0.045
-0.02
-0.02
-0.075
-0.11
-0.12
-0.09
-0.055
-0.06
-0.04
-0.085
-0.14
-0.085
-0.055
-0.05
-0.015
-0.085
-0.005
0.015
-0.04
-0.05
-0.07
-0.06
-0.06
-0.035
-0.095
-0.145
-0.125
-0.08
-0.065
-0.045
-0.075
-0.06
-0.025
-0.135
-0.175
-0.07
-0.07
-0.03
-0.005
-0.04
-0.055
-0.075
-0.105
-0.12
-0.08
-0.075
-0.03
-0.015
-0.125
-0.15
-0.045
-0.045
-0.045
-0.06
-0.03
-0.085
-0.1
-0.07
-0.095
-0.105
-0.065
-0.065
-0.04
0.015
-0.04
-0.055
-0.035
-0.055
-0.035
-0.12
-0.1
-0.065
-0.1
-0.1
-0.145
-0.1
-0.045
-0.005
-0.07
-0.09
-0.115
-0.145
-0.115
-0.095
-0.08
-0.03
-0.095
-0.125
-0.095
-0.075
-0.07
-0.115
-0.06
-0.045
-0.09
-0.11
-0.09
-0.105
-0.025
-0.04
-0.025
-0.055
-0.115
-0.12
-0.12
-0.085
-0.04
-0.02
-0.085
-0.08
-0.02
-0.025
-0.09
-0.07
-0.105
-0.135
-0.105
-0.03
-0.06
-0.055
-0.035
-0.025
-0.02
-0.095
-0.125
-0.11
-0.045
-0.045
-0.035
-0.055
-0.045
-0.005
-0.045
-0.05
-0.055
-0.05
-0.015
-0.045
-0.025
0.0
0.01
-0.01
-0.015
-0.01
-0.045
-0.03
-0.01
0.03
0.045
-0.035
-0.085
-0.065
-0.02
-0.07
-0.03
-0.01
0.0
-0.06
-0.035
0.005
-0.05
-0.07
-0.05
-0.035
-0.105
-0.075
-0.08
-0.02
-0.045
-0.09
-0.085
-0.07
-0.07
-0.085
-0.125
-0.08
-0.095
-0.105
-0.07
-0.01
-0.045
-0.03
-0.065
-0.135
-0.12
-0.15
-0.155
-0.16
-0.115
-0.035
-0.065
-0.105
-0.09
-0.13
-0.17
-0.26
-0.195
-0.145
-0.065
0.005
0.075
0.145
0.23
0.285
0.365
0.525
0.74
0.94
1.05
1.12
1.155
1.135
1.13
1.11
0.99
0.885
0.815
0.6
0.475
0.38
0.255
0.105
0.005
-0.06
-0.195
-0.23
-0.185
-0.12
-0.12
-0.14
-0.135
-0.075
-0.02
-0.09
-0.09
-0.08
-0.08
-0.105
-0.125
-0.055
-0.06
-0.115
-0.095
-0.12
-0.11
-0.065
-0.035
-0.015
0.0
-0.065
-0.09
-0.04
0.0
-0.075
-0.11
-0.065
-0.065
-0.05
0.01
0.04
-0.015
-0.065
-0.01
0.0
0.01
-0.03
-0.07
-0.045
-0.015
-0.025
0.02
0.035
0.03
0.025
0.02
0.035
0.025
-0.015
-0.035
-0.005
0.035
0.03
0.01
0.01
-0.025
0.0
0.07
0.045
0.005
-0.02
-0.045
0.0
0.03
0.12
0.17
0.08
0.1
0.11
0.11
0.105
0.165
0.17
0.195
0.095
0.115
0.115
0.09
0.135
0.17
0.155
0.175
0.14
0.15
0.18
0.16
0.14
0.195
0.25
0.22
0.185
0.175
0.21
0.23
0.26
0.285
0.29
0.28
0.29
0.325
0.32
0.255
0.3
0.345
0.375
0.43
0.335
0.29
0.35
0.37
0.375
0.345
0.405
0.395
0.335
0.345
0.41
0.365
0.38
0.39
0.405
0.41
0.445
0.445
0.39
0.325
0.245
0.205
0.2
0.22
0.23
0.17
0.15
0.15
0.185
0.18
0.26
0.295
0.305
0.285
0.155
0.06
0.095
0.075
0.055
0.025
0.025
0.01
0.04
0.0
0.0
0.005
0.055
0.01
0.045
0.02
-0.055
-0.02
0.005
0.005
0.005
-0.04
-0.035
-0.015
0.0
0.005
0.0
-0.04
0.0
-0.055
-0.065
-0.04
-0.03
-0.05
-0.05
-0.035
0.0
0.0
-0.005
-0.01
-0.005
0.12
0.125
0.035
0.025
0.01
-0.02
0.0
-0.035
-0.065
-0.045
-0.02
-0.02
-0.015
0.02
0.1
0.07
-0.03
-0.05
-0.05
-0.05
-0.035
-0.07
-0.04
-0.04
-0.1
-0.05
-0.03
-0.045
-0.03
0.05
0.12
0.015
0.02
0.015
-0.08
-0.115
-0.035
-0.035
-0.02
-0.085
-0.06
-0.01
0.11
0.11
0.065
-0.02
-0.02
-0.05
-0.065
-0.08
-0.075
0.015
-0.02
-0.11
-0.085
-0.075
-0.035
-0.045
-0.04
-0.02
-0.02
-0.045
-0.14
-0.14
-0.065
-0.08
-0.04
-0.025
-0.02
0.0
0.04
-0.01
-0.085
-0.13
-0.13
-0.1
-0.05
0.0
-0.01
-0.04
-0.1
-0.075
-0.16
-0.065
-0.015
0.02
0.015
-0.005
-0.055
-0.085
-0.145
-0.105
-0.1
-0.04
0.02
-0.04
-0.07
-0.095
-0.1
-0.16
-0.16
-0.08
0.015
0.01
-0.04
0.0
-0.065
-0.06
-0.055
-0.08
-0.1
-0.1
-0.095
-0.035
0.015
-0.03
-0.11
-0.12
-0.13
-0.065
-0.025
-0.01
0.01
-0.045
-0.045
-0.075
-0.15
-0.16
-0.105
-0.06
0.01
0.02
0.005
-0.075
-0.105
-0.06
-0.035
-0.005
0.025
0.005
-0.02
-0.065
-0.085
-0.155
-0.205
-0.02
0.1
0.015
-0.04
-0.1
-0.22
-0.245
-0.23
-0.075
0.055
0.085
0.0
-0.035
-0.12
-0.13
-0.085
-0.005
-0.015
-0.03
-0.03
-0.035
-0.085
-0.14
-0.14
-0.135
-0.055
0.075
0.045
-0.04
-0.08
-0.07
-0.025
0.015
-0.025
-0.05
-0.07
-0.065
-0.1
-0.045
-0.02
-0.06
-0.105
-0.05
-0.065
-0.075
-0.03
0.015
0.015
-0.01
-0.025
-0.13
-0.225
-0.17
-0.05
0.08
0.1
0.025
-0.015
-0.095
-0.115
-0.08
-0.085
-0.095
-0.015
0.035
0.02
-0.035
-0.055
-0.055
-0.05
0.02
-0.04
-0.095
0.01
-0.005
-0.07
-0.105
-0.13
-0.135
-0.095
-0.035
-0.035
-0.005
-0.06
-0.085
-0.05
-0.005
0.0
-0.045
-0.08
-0.02
0.0
0.06
0.075
0.06
0.065
0.06
0.08
0.11
0.025
-0.05
-0.06
-0.03
0.0
-0.05
0.045
-0.015
-0.04
-0.02
-0.035
-0.04
0.05
0.06
0.05
0.03
-0.05
-0.04
0.0
0.05
0.015
-0.01
0.03
-0.03
-0.07
-0.09
-0.095
-0.12
-0.045
-0.055
-0.06
-0.015
-0.04
-0.03
-0.025
-0.025
0.04
0.015
-0.02
-0.085
-0.095
-0.095
-0.045
-0.005
0.01
-0.05
-0.09
-0.075
-0.08
-0.03
0.005
-0.005
-0.085
-0.145
-0.12
-0.045
-0.055
-0.075
-0.025
0.14
0.23
0.275
0.395
0.58
0.76
0.885
0.995
1.11
1.32
1.335
1.235
1.13
1.075
0.955
0.845
0.705
0.625
0.45
0.34
0.24
0.08
-0.055
-0.195
-0.205
-0.225
-0.235
-0.145
-0.16
-0.145
-0.12
-0.085
-0.035
-0.07
-0.05
-0.04
-0.055
-0.055
0.005
0.015
-0.005
0.05
0.095
0.015
-0.015
0.015
-0.055
-0.07
-0.06
0.025
0.025
0.04
0.015
0.005
-0.06
0.005
-0.03
0.0
0.075
0.085
0.08
0.085
0.095
0.06
-0.01
-0.035
-0.04
-0.03
0.08
0.06
0.04
0.045
0.065
0.08
0.045
0.005
0.015
-0.015
-0.005
0.04
0.07
0.1
0.065
0.1
0.085
0.075
0.09
0.08
0.17
0.115
0.105
0.065
0.12
0.12
0.11
0.13
0.14
0.2
0.15
0.145
0.15
0.165
0.125
0.12
0.155
0.185
0.2
0.22
0.28
0.3
0.24
0.155
0.145
0.17
0.195
0.27
0.345
0.325
0.305
0.3
0.305
0.31
0.32
0.305
0.29
0.275
0.245
0.335
0.425
0.39
0.405
0.385
0.34
0.36
0.39
0.41
0.365
0.385
0.395
0.395
0.44
0.465
0.42
0.44
0.45
0.42
0.435
0.36
0.405
0.44
0.395
0.37
0.38
0.375
0.38
0.405
0.34
0.325
0.29
0.27
0.245
0.19
0.195
0.225
0.235
0.225
0.21
0.16
0.115
0.075
0.06
0.105
0.13
0.12
0.165
0.135
0.095
0.025
0.025
0.02
0.01
0.035
0.035
0.04
0.02
0.015
0.05
0.035
-0.055
-0.055
0.065
0.065
0.03
0.045
-0.015
0.055
0.085
0.045
0.05
0.0
-0.04
-0.01
0.045
-0.01
-0.05
-0.035
-0.01
0.03
0.03
0.025
0.035
0.09
0.06
0.01
0.05
0.06
0.065
0.075
0.01
0.0
0.005
-0.01
0.0
0.025
0.005
0.04
0.065
0.13
0.085
0.06
0.08
0.055
0.07
0.04
0.04
-0.005
-0.04
-0.055
-0.03
-0.02
-0.015
0.035
0.11
0.07
0.065
0.02
-0.04
-0.03
-0.005
0.05
0.055
0.07
0.02
-0.05
-0.12
-0.08
-0.035
0.02
0.03
0.0
-0.015
0.005
0.065
0.045
0.005
-0.025
-0.035
-0.055
-0.02
0.035
0.015
0.04
0.015
0.05
0.0
-0.025
-0.05
-0.025
-0.005
-0.015
-0.015
0.025
-0.025
-0.025
-0.025
-0.04
-0.025
-0.08
-0.04
-0.07
0.005
-0.02
-0.045
-0.045
0.035
-0.06
-0.075
0.0
-0.025
-0.025
-0.015
0.005
0.035
-0.035
-0.045
0.05
0.085
0.04
0.05
0.02
-0.04
-0.025
-0.035
-0.065
-0.085
-0.075
-0.065
-0.025
0.0
-0.015
0.005
-0.015
-0.03
-0.07
-0.065
-0.06
-0.03
-0.025
-0.03
-0.04
-0.035
-0.02
-0.01
0.01
0.03
-0.005
-0.055
-0.025
0.01
-0.065
-0.06
0.01
0.06
0.015
-0.025
-0.03
-0.02
-0.04
-0.05
-0.06
0.0
-0.02
-0.005
0.055
0.025
-0.04
-0.05
-0.085
-0.075
-0.025
-0.04
-0.06
-0.065
-0.02
0.0
0.01
0.03
0.085
0.01
-0.04
-0.065
-0.05
-0.065
-0.02
0.02
0.04
-0.01
-0.045
-0.03
0.025
0.01
-0.04
-0.04
-0.045
-0.04
-0.04
-0.04
-0.07
-0.095
-0.025
-0.035
0.02
0.04
0.02
-0.035
-0.01
-0.03
-0.06
-0.025
-0.02
-0.005
-0.005
0.005
0.085
0.095
0.06
0.085
0.07
0.02
0.035
0.035
-0.03
-0.005
0.04
0.025
0.025
0.02
-0.045
-0.025
0.06
0.08
0.06
0.015
0.02
0.07
0.13
0.055
0.03
0.055
-0.04
-0.085
-0.03
0.01
0.06
0.03
-0.01
-0.05
-0.045
-0.045
-0.035
-0.045
-0.055
-0.02
-0.025
-0.035
-0.04
-0.04
-0.055
-0.16
-0.055
0.04
0.04
0.09
0.045
-0.045
-0.085
-0.055
-0.045
-0.05
-0.035
-0.065
-0.095
-0.085
-0.06
-0.035
-0.09
-0.015
0.045
0.115
0.125
0.13
0.26
0.33
0.485
0.62
0.805
0.985
1.145
1.19
1.23
1.29
1.225
1.13
0.95
0.825
0.775
0.64
0.565
0.445
0.27
0.12
-0.02
-0.115
-0.215
-0.16
-0.08
-0.055
-0.035
-0.07
-0.04
-0.01
-0.01
-0.015
-0.01
-0.03
-0.055
-0.035
-0.02
-0.035
-0.03
0.0
0.0
0.035
0.085
0.07
0.025
0.02
0.0
-0.005
0.01
0.01
0.02
-0.025
-0.03
-0.06
-0.085
-0.015
0.0
0.015
0.055
0.06
0.11
0.1
-0.01
0.005
0.015
0.065
0.055
-0.02
-0.01
-0.005
0.01
-0.01
0.04
0.095
0.1
0.16
0.09
0.03
0.01
0.05
0.065
0.085
0.09
0.095
0.125
0.12
0.12
0.115
0.125
0.13
0.11
0.155
0.16
0.145
0.16
0.065
0.14
0.175
0.22
0.19
0.16
0.11
0.045
0.105
0.195
0.25
0.26
0.24
0.255
0.255
0.255
0.235
0.205
0.215
0.23
0.255
0.235
0.285
0.31
0.315
0.3
0.34
0.34
0.29
0.29
0.43
0.47
0.365
0.4
0.365
0.365
0.395
0.385
0.43
0.405
0.425
0.43
0.445
0.48
0.5
0.455
0.455
0.42
0.37
0.42
0.445
0.435
0.435
0.42
0.405
0.365
0.45
0.355
0.265
0.26
0.225
0.26
0.325
0.215
0.27
0.325
0.37
0.32
0.235
0.2
0.135
0.105
0.085
0.09
0.095
0.075
0.085
0.08
0.055
0.065
0.06
0.05
0.05
0.095
0.135
0.13
0.06
0.015
0.0
0.02
0.005
0.01
-0.04
-0.03
-0.03
0.0
0.005
-0.045
-0.07
-0.03
-0.02
0.025
0.075
0.055
0.05
0.07
0.065
-0.015
0.025
0.065
0.01
0.0
0.04
0.025
0.035
0.025
0.03
0.02
0.04
0.05
0.02
0.035
0.015
0.01
0.02
0.015
0.03
-0.005
-0.015
0.06
0.035
0.0
0.025
0.125
0.085
0.1
0.06
-0.03
-0.025
-0.03
-0.015
-0.075
-0.085
-0.05
-0.035
0.02
0.05
0.015
0.04
0.015
0.03
-0.015
-0.03
-0.02
-0.005
0.04
0.065
0.055
0.04
0.035
0.005
0.03
0.035
0.03
0.035
-0.01
-0.015
-0.03
-0.015
0.01
0.0
0.025
-0.01
-0.04
-0.085
-0.065
-0.07
-0.075
-0.045
-0.04
-0.03
-0.04
-0.025
-0.03
-0.025
-0.04
-0.03
-0.01
0.0
-0.065
-0.06
-0.02
0.03
-0.03
-0.03
-0.05
-0.055
-0.03
-0.005
0.0
-0.09
-0.08
-0.03
0.02
0.045
0.01
-0.02
-0.005
-0.01
-0.05
-0.025
0.055
-0.015
-0.02
-0.03
-0.05
-0.065
-0.065
0.0
-0.005
-0.04
-0.065
-0.065
-0.06
-0.055
-0.035
-0.04
-0.05
-0.07
-0.09
-0.03
-0.045
-0.01
-0.015
-0.035
-0.005
-0.1
-0.09
-0.06
-0.06
-0.04
-0.025
-0.005
0.005
0.005
-0.055
-0.085
-0.095
-0.16
-0.055
-0.015
0.02
0.005
0.055
0.075
0.065
-0.02
-0.005
0.005
-0.05
-0.02
-0.005
-0.01
-0.025
0.005
-0.005
-0.025
-0.14
-0.185
-0.105
-0.06
-0.07
-0.02
-0.02
-0.045
-0.025
-0.05
-0.06
-0.025
-0.01
-0.01
0.0
-0.035
-0.075
-0.095
-0.14
-0.055
-0.065
-0.03
-0.01
-0.05
0.0
0.045
-0.02
-0.06
-0.03
-0.04
-0.085
-0.085
-0.08
-0.085
-0.04
-0.03
-0.045
-0.03
-0.025
-0.055
-0.065
0.0
-0.01
-0.055
-0.015
-0.065
-0.015
-0.005
0.05
-0.025
-0.07
-0.055
-0.065
-0.09
-0.04
-0.055
-0.055
-0.02
-0.005
0.01
-0.03
0.005
0.04
0.065
0.07
0.04
0.03
-0.005
0.05
0.015
-0.01
0.02
-0.005
-0.085
-0.07
-0.015
-0.005
0.01
0.055
0.05
0.06
0.095
0.065
0.03
0.015
0.025
0.0
-0.015
-0.01
-0.025
-0.04
-0.04
-0.05
-0.01
-0.025
-0.045
-0.045
-0.08
-0.115
-0.095
-0.055
-0.125
-0.085
-0.025
-0.025
-0.03
-0.05
-0.045
0.03
-0.01
-0.105
-0.145
-0.045
-0.025
-0.065
-0.05
-0.015
-0.01
-0.095
-0.16
-0.17
-0.165
-0.235
-0.13
0.0
0.075
0.13
0.26
0.29
0.34
0.485
0.63
0.86
1.075
1.18
1.265
1.215
1.195
1.15
1.085
0.99
0.835
0.78
0.64
0.53
0.41
0.285
0.105
-0.085
-0.115
-0.2
-0.145
-0.095
-0.11
-0.1
-0.095
-0.115
-0.12
-0.065
-0.005
-0.01
-0.105
-0.105
-0.035
-0.02
-0.06
-0.105
-0.05
-0.005
-0.055
-0.055
-0.02
0.025
-0.03
0.005
0.065
0.035
-0.02
-0.055
-0.08
0.02
0.045
-0.005
-0.035
-0.01
-0.02
-0.02
0.04
0.08
0.05
-0.01
0.015
-0.015
0.0
-0.035
-0.02
-0.005
-0.045
-0.01
0.025
-0.01
0.015
0.12
0.12
0.055
0.05
0.055
0.1
0.05
0.005
0.065
0.105
0.105
0.09
0.06
0.08
0.11
0.075
0.06
0.065
0.075
0.08
0.125
0.17
0.22
0.2
0.16
0.13
0.135
0.08
0.14
0.165
0.155
0.165
0.215
0.185
0.165
0.19
0.185
0.19
0.265
0.31
0.305
0.275
0.25
0.26
0.295
0.35
0.32
0.27
0.22
0.295
0.325
0.325
0.345
0.335
0.395
0.395
0.4
0.435
0.395
0.445
0.425
0.42
0.395
0.385
0.395
0.41
0.38
0.395
0.405
0.415
0.445
0.455
0.425
0.41
0.375
0.37
0.345
0.315
0.33
0.32
0.375
0.4
0.42
0.36
0.295
0.26
0.205
0.145
0.19
0.185
0.18
0.125
0.145
0.16
0.13
0.13
0.085
0.05
0.025
0.075
0.11
0.105
0.03
0.05
0.035
0.04
0.04
0.04
0.05
0.09
0.015
0.045
-0.04
-0.075
0.02
0.145
0.12
0.025
-0.01
0.025
0.035
0.035
-0.005
-0.005
0.0
-0.045
-0.025
0.01
0.065
0.045
0.02
-0.045
0.02
0.07
0.055
0.035
0.015
-0.01
-0.04
-0.015
0.03
0.035
0.05
0.06
0.07
0.125
0.085
0.06
0.06
0.045
0.045
0.015
0.01
0.04
0.025
-0.01
0.055
0.055
0.045
0.065
-0.04
-0.055
-0.04
-0.02
0.015
0.0
0.01
-0.005
-0.01
-0.005
-0.01
-0.01
0.0
-0.005
0.0
-0.005
-0.03
-0.025
-0.01
0.015
0.03
0.015
-0.04
-0.01
-0.025
-0.16
-0.15
-0.095
-0.01
0.005
0.035
0.015
-0.05
-0.075
-0.05
-0.03
0.015
-0.015
-0.08
-0.08
-0.06
-0.03
-0.13
-0.14
-0.085
-0.02
-0.015
-0.01
0.03
-0.03
-0.06
-0.04
0.045
0.025
0.035
0.03
0.01
-0.025
-0.04
-0.055
-0.055
-0.06
-0.065
-0.075
-0.075
-0.03
-0.03
-0.085
-0.095
-0.1
-0.035
-0.045
-0.165
-0.16
-0.13
-0.13
-0.05
0.0
-0.06
-0.055
-0.055
-0.035
-0.05
-0.015
-0.03
-0.105
-0.1
-0.085
-0.125
-0.15
-0.07
-0.02
-0.05
-0.015
0.025
0.025
0.02
0.015
-0.025
-0.085
-0.065
-0.1
-0.125
-0.12
-0.12
-0.14
-0.105
-0.075
-0.055
-0.015
-0.06
-0.09
-0.045
0.005
-0.015
-0.05
-0.08
-0.075
-0.095
-0.025
0.07
0.03
-0.04
-0.08
-0.105
-0.12
-0.08
-0.09
-0.14
-0.11
-0.09
-0.12
-0.045
0.0
-0.095
-0.04
0.005
-0.005
-0.065
-0.055
-0.09
-0.15
-0.08
-0.075
-0.01
-0.04
-0.03
-0.075
-0.05
0.005
-0.025
-0.04
-0.095
-0.1
-0.12
-0.105
-0.045
-0.02
-0.125
-0.12
-0.05
-0.05
-0.05
-0.025
-0.025
-0.045
-0.06
-0.05
-0.065
-0.095
-0.08
-0.105
-0.085
-0.035
-0.025
-0.005
-0.015
-0.04
-0.07
-0.045
-0.05
-0.01
0.0
0.015
0.015
0.005
-0.02
-0.035
-0.015
-0.01
0.03
0.0
-0.025
0.02
0.005
0.035
0.08
0.005
0.0
-0.005
-0.035
-0.08
-0.105
-0.105
-0.075
-0.07
-0.095
-0.1
-0.13
-0.135
-0.065
-0.01
-0.01
0.025
-0.015
0.025
0.0
-0.08
-0.105
-0.035
-0.08
-0.115
-0.105
-0.03
-0.055
-0.03
-0.025
-0.025
-0.06
-0.08
-0.055
-0.035
-0.1
-0.125
-0.115
-0.11
-0.145
-0.11
-0.095
-0.06
-0.075
-0.115
-0.12
-0.14
-0.09
-0.05
-0.065
0.065
0.145
0.125
0.16
0.275
0.425
0.545
0.715
0.91
1.05
1.15
1.17
1.16
1.04
0.97
0.95
0.79
0.635
0.495
0.37
0.235
0.17
0.045
-0.17
-0.285
-0.28
-0.295
-0.27
-0.235
-0.2
-0.24
-0.185
-0.125
-0.085
-0.08
-0.035
-0.045
-0.015
-0.02
-0.025
-0.075
-0.075
-0.085
-0.045
-0.06
-0.065
-0.055
-0.065
-0.095
-0.09
-0.04
-0.02
-0.025
0.02
0.015
0.075
0.055
-0.045
-0.04
-0.045
-0.065
-0.055
0.0
-0.03
0.0
0.02
0.0
-0.005
-0.045
-0.05
-0.015
-0.01
0.03
0.065
0.07
0.01
0.045
0.035
0.075
0.025
-0.005
0.0
-0.045
-0.005
0.015
0.02
0.075
0.085
0.09
0.115
0.155
0.145
0.12
0.08
0.095
0.025
0.075
0.115
0.115
0.115
0.14
0.125
0.105
0.095
0.11
0.14
0.17
0.16
0.16
0.2
0.17
0.18
0.17
0.165
0.2
0.24
0.225
0.22
0.27
0.24
0.19
0.17
0.2
0.19
0.215
0.315
0.255
0.34
0.365
0.345
0.425
0.455
0.5
0.405
0.39
0.395
0.405
0.375
0.39
0.335
0.3
0.3
0.355
0.32
0.295
0.3
0.4
0.43
0.46
0.425
0.345
0.345
0.345
0.365
0.355
0.335
0.32
0.3
0.2
0.22
0.24
0.22
0.265
0.25
0.19
0.15
0.155
0.19
0.15
0.1
0.055
0.085
0.08
0.055
0.04
0.0
0.015
0.065
0.015
-0.02
0.025
0.0
0.02
0.02
0.0
-0.05
-0.09
-0.01
0.08
0.05
0.1
0.015
-0.025
-0.005
0.0
-0.035
-0.005
0.08
0.095
-0.06
-0.05
-0.005
0.0
-0.04
-0.01
0.005
0.02
0.015
0.035
0.01
0.04
0.055
0.03
-0.005
0.0
0.015
-0.02
-0.045
0.0
0.03
-0.025
-0.09
-0.02
-0.06
-0.065
-0.01
0.015
-0.02
0.03
0.04
0.015
0.0
-0.015
-0.06
-0.06
0.005
0.07
0.065
0.065
0.02
0.025
-0.02
-0.12
-0.045
-0.06
-0.05
-0.055
-0.105
-0.08
0.0
-0.04
0.025
0.035
0.065
0.045
-0.02
-0.045
-0.015
-0.06
-0.09
-0.095
-0.125
-0.06
-0.045
-0.035
-0.045
-0.065
-0.08
-0.04
-0.06
0.02
0.07
0.01
-0.015
-0.12
-0.105
-0.075
-0.105
-0.115
-0.145
-0.045
-0.025
-0.02
-0.03
-0.015
-0.035
-0.085
-0.105
-0.05
-0.03
-0.015
-0.025
-0.085
-0.105
-0.065
-0.075
-0.11
-0.15
-0.1
-0.05
-0.055
-0.09
-0.05
-0.075
-0.07
-0.105
-0.08
-0.1
-0.075
-0.025
-0.03
-0.055
-0.025
-0.05
-0.11
-0.14
-0.11
0.005
0.025
0.075
0.04
0.005
-0.025
-0.02
-0.06
-0.065
-0.095
-0.08
-0.065
-0.095
-0.09
-0.035
-0.075
-0.195
-0.22
-0.08
-0.095
-0.045
-0.075
-0.005
0.01
0.005
0.005
0.005
0.01
0.01
-0.045
-0.09
0.01
-0.015
-0.075
-0.065
-0.05
0.01
-0.03
-0.005
0.085
0.055
-0.02
0.02
0.04
0.04
0.035
0.02
0.02
-0.005
0.015
0.015
-0.005
0.01
-0.04
-0.06
-0.12
-0.155
-0.175
-0.065
-0.05
-0.08
-0.035
-0.06
-0.05
-0.065
-0.065
-0.03
-0.045
-0.005
-0.015
-0.075
-0.07
-0.105
-0.16
-0.13
-0.12
-0.115
-0.085
-0.1
-0.095
-0.025
-0.065
-0.035
-0.055
-0.13
-0.2
-0.265
-0.18
-0.12
-0.07
-0.065
0.015
0.065
0.12
0.21
0.3
0.39
0.505
0.625
0.855
1.04
1.055
1.08
0.945
0.855
0.87
0.86
0.74
0.62
0.51
0.415
0.4
0.265
0.145
0.035
-0.07
-0.185
-0.29
-0.2
-0.2
-0.13
-0.14
-0.15
-0.13
-0.155
-0.14
-0.08
-0.075
-0.025
0.04
0.025
-0.07
-0.09
-0.045
-0.04
-0.065
-0.085
-0.045
-0.08
-0.15
-0.09
-0.025
-0.075
-0.055
-0.06
-0.05
-0.075
-0.055
-0.06
-0.105
-0.05
-0.035
-0.01
-0.095
-0.03
-0.035
-0.005
-0.035
-0.005
-0.015
0.055
0.045
0.015
-0.005
0.01
-0.08
-0.05
-0.04
-0.015
0.0
0.025
-0.01
0.07
0.145
0.135
0.07
0.005
-0.045
0.01
0.02
0.055
0.05
0.035
0.025
0.005
0.01
0.02
0.04
0.03
0.1
0.1
0.15
0.125
0.115
0.115
0.115
0.075
0.04
0.05
0.1
0.1
0.12
0.125
0.16
0.175
0.175
0.17
0.195
0.19
0.205
0.21
0.18
0.225
0.26
0.245
0.305
0.295
0.28
0.25
0.265
0.285
0.3
0.265
0.24
0.3
0.36
0.355
0.34
0.34
0.375
0.32
0.29
0.3
0.28
0.28
0.345
0.395
0.44
0.345
0.31
0.345
0.38
0.305
0.32
0.315
0.33
0.28
0.295
0.235
0.175
0.165
0.16
0.13
0.145
0.135
0.14
0.1
0.095
0.14
0.23
0.135
0.085
0.085
0.05
0.055
0.0
-0.01
-0.015
-0.015
-0.035
-0.075
-0.115
-0.01
0.01
0.005
0.0
0.02
0.05
0.045
-0.05
-0.055
-0.055
-0.075
-0.075
-0.045
-0.03
-0.01
0.015
0.02
-0.01
-0.025
-0.025
-0.05
-0.02
0.015
0.015
0.02
0.04
0.035
-0.035
-0.06
-0.02
0.005
0.015
-0.02
-0.01
0.04
-0.005
0.015
-0.02
-0.005
-0.055
-0.005
0.045
0.055
-0.015
-0.055
0.015
0.06
0.04
0.03
0.02
-0.01
-0.005
-0.04
-0.105
-0.075
-0.1
-0.075
-0.005
-0.005
0.035
0.04
0.02
0.025
0.015
0.015
0.02
0.01
0.0
0.055
-0.025
-0.125
-0.005
0.02
-0.025
-0.045
-0.03
-0.005
-0.025
-0.015
0.025
0.02
-0.02
-0.055
-0.055
-0.075
-0.11
-0.06
0.02
-0.005
-0.025
-0.015
-0.035
-0.06
-0.025
-0.05
-0.07
-0.035
-0.01
0.0
-0.04
-0.095
-0.12
-0.06
-0.04
-0.035
-0.055
-0.055
-0.035
-0.025
-0.025
-0.04
-0.025
-0.005
-0.02
-0.015
-0.025
-0.06
-0.005
-0.03
-0.09
-0.1
-0.05
-0.03
-0.005
0.01
-0.05
-0.08
-0.045
-0.045
-0.06
-0.04
-0.055
-0.115
-0.075
-0.065
-0.095
-0.04
0.055
0.045
-0.03
0.005
0.025
-0.01
-0.05
-0.06
-0.025
0.03
-0.015
-0.08
-0.085
-0.06
0.015
0.11
0.07
0.055
0.11
0.045
-0.005
-0.005
0.03
0.04
0.025
0.02
0.025
0.01
-0.03
0.01
0.015
-0.01
-0.045
-0.095
-0.035
-0.015
0.025
0.005
-0.015
-0.04
-0.05
-0.03
-0.045
-0.015
-0.015
-0.11
-0.135
-0.135
-0.12
-0.065
-0.035
-0.11
-0.035
0.02
-0.015
-0.02
-0.035
-0.025
-0.065
-0.11
-0.17
-0.1
-0.085
-0.11
-0.175
-0.095
-0.105
-0.165
-0.19
-0.075
0.025
0.095
0.08
0.165
0.295
0.39
0.48
0.585
0.78
0.97
1.135
1.215
1.215
1.105
1.035
0.99
0.91
0.775
0.665
0.58
0.465
0.375
0.255
0.075
-0.04
-0.13
-0.175
-0.225
-0.21
-0.19
-0.15
-0.05
-0.07
-0.115
-0.14
-0.105
-0.06
-0.06
-0.085
-0.12
-0.16
-0.06
-0.045
-0.085
-0.105
-0.02
0.045
0.095
0.025
0.0
-0.025
-0.04
-0.065
0.01
0.015
-0.025
-0.015
-0.035
-0.05
-0.02
0.01
0.005
-0.06
-0.1
-0.045
-0.065
-0.025
-0.03
-0.07
-0.035
-0.04
-0.015
0.03
0.04
0.095
0.065
0.085
0.055
0.055
0.02
-0.015
-0.035
0.005
0.03
0.035
0.0
0.0
0.1
0.045
0.0
0.05
0.06
0.01
0.06
0.075
0.115
0.095
0.075
0.11
0.125
0.15
0.17
0.1
0.13
0.15
0.13
0.085
0.165
0.2
0.19
0.215
0.215
0.18
0.07
0.11
0.18
0.185
0.23
0.18
0.22
0.25
0.265
0.28
0.285
0.27
0.285
0.275
0.29
0.27
0.345
0.315
0.32
0.325
0.355
0.36
0.345
0.32
0.33
0.375
0.385
0.36
0.325
0.31
0.295
0.295
0.335
0.365
0.39
0.355
0.35
0.36
0.325
0.335
0.33
0.305
0.315
0.26
0.25
0.235
0.23
0.185
0.155
0.125
0.1
0.095
0.13
0.13
0.08
0.07
0.085
0.06
0.06
0.09
0.08
0.05
0.045
-0.005
0.015
0.0
0.015
-0.02
-0.03
0.01
0.0
0.005
0.015
-0.005
-0.03
-0.02
-0.015
-0.01
0.05
0.025
-0.02
0.07
-0.035
0.005
-0.035
-0.055
-0.115
-0.105
-0.025
-0.055
-0.06
-0.07
-0.025
0.0
0.045
0.04
0.05
0.07
0.09
0.045
0.025
0.02
-0.03
-0.045
-0.035
0.0
-0.045
-0.07
-0.03
-0.01
0.01
0.02
0.065
0.055
0.075
0.075
-0.05
-0.05
-0.035
-0.065
-0.015
-0.04
-0.1
-0.09
-0.005
-0.015
-0.045
-0.025
-0.01
-0.025
0.01
0.03
0.0
0.0
0.02
0.02
0.025
0.035
0.01
-0.03
-0.07
-0.06
-0.08
-0.09
-0.055
-0.05
-0.03
0.01
0.065
-0.015
-0.07
-0.075
-0.06
-0.06
-0.04
-0.005
-0.025
-0.075
-0.045
-0.07
-0.05
-0.02
-0.035
-0.045
-0.01
-0.005
-0.035
-0.045
-0.05
-0.01
-0.045
-0.06
-0.08
-0.125
-0.075
-0.07
-0.075
-0.065
-0.055
0.005
0.02
-0.06
-0.115
-0.065
-0.07
-0.05
-0.06
-0.085
-0.085
-0.015
-0.06
-0.03
-0.01
-0.02
-0.015
0.025
-0.04
-0.06
-0.05
-0.105
-0.035
-0.065
-0.045
-0.11
-0.11
-0.06
-0.035
-0.02
0.005
0.0
0.045
0.03
0.01
0.03
-0.005
0.015
0.025
0.02
-0.01
0.005
0.01
-0.015
-0.03
-0.025
-0.045
-0.08
-0.02
0.06
0.08
0.04
0.035
0.03
-0.01
-0.03
-0.01
-0.005
-0.02
0.01
-0.055
-0.04
-0.09
-0.115
-0.07
-0.11
-0.08
-0.04
-0.03
-0.065
-0.02
-0.06
-0.1
-0.08
-0.1
-0.125
-0.085
-0.12
-0.115
0.0
0.035
0.015
0.025
-0.045
-0.07
-0.065
-0.075
-0.055
-0.125
-0.135
-0.125
-0.045
-0.085
-0.09
-0.1
-0.11
-0.12
-0.135
-0.04
-0.03
0.03
0.095
0.165
0.245
0.35
0.435
0.59
0.805
0.93
1.01
1.08
1.12
1.05
0.98
0.865
0.83
0.77
0.69
0.56
0.455
0.355
0.21
0.025
-0.075
-0.155
-0.225
-0.22
-0.235
-0.145
-0.165
-0.14
-0.17
-0.08
0.0
0.02
0.025
0.025
0.01
0.01
-0.025
-0.035
-0.05
-0.1
-0.095
-0.07
-0.065
-0.065
-0.05
0.01
-0.06
-0.065
-0.035
-0.04
-0.05
-0.03
-0.05
-0.06
-0.095
-0.05
-0.045
-0.05
-0.03
-0.025
-0.04
-0.075
0.0
0.065
0.085
0.07
0.02
0.0
0.02
0.025
0.005
0.02
0.005
-0.025
0.0
-0.05
-0.03
-0.055
0.05
0.05
0.105
0.105
0.135
0.095
0.015
0.035
0.04
0.06
0.035
0.045
0.035
0.03
0.005
0.04
0.04
0.055
0.09
0.1
0.175
0.18
0.16
0.13
0.15
0.17
0.17
0.14
0.165
0.21
0.17
0.145
0.125
0.135
0.18
0.23
0.195
0.185
0.21
0.285
0.365
0.31
0.305
0.275
0.29
0.27
0.22
0.205
0.23
0.36
0.305
0.35
0.345
0.31
0.35
0.415
0.35
0.395
0.355
0.325
0.37
0.39
0.38
0.38
0.38
0.375
0.395
0.4
0.37
0.405
0.34
0.27
0.225
0.21
0.21
0.22
0.295
0.24
0.22
0.2
0.235
0.155
0.055
0.025
0.05
0.065
0.07
0.065
0.09
0.085
0.06
0.06
0.07
0.025
-0.015
-0.035
0.005
0.05
0.01
-0.005
-0.06
-0.09
-0.07
-0.01
0.04
-0.025
-0.015
0.03
0.045
0.04
-0.005
0.01
-0.01
-0.025
-0.02
-0.005
-0.025
-0.05
-0.045
-0.045
-0.07
-0.1
-0.06
-0.005
-0.01
0.03
0.0
0.0
0.0
0.125
0.055
0.045
0.045
0.015
0.01
-0.02
-0.04
-0.035
0.005
0.0
0.03
-0.005
-0.05
-0.06
-0.05
-0.105
-0.12
-0.065
-0.005
0.055
0.105
0.12
0.06
0.005
-0.005
-0.01
-0.045
0.01
0.01
-0.03
-0.04
-0.005
0.015
0.03
-0.015
-0.05
-0.05
-0.09
-0.06
-0.055
-0.03
-0.07
-0.075
-0.03
-0.025
0.025
0.085
0.005
-0.085
-0.015
-0.015
-0.055
-0.025
-0.02
-0.005
-0.055
-0.085
-0.06
-0.11
-0.115
-0.005
-0.02
-0.035
0.01
-0.01
-0.02
-0.01
-0.025
0.01
-0.03
-0.025
-0.04
-0.08
-0.055
-0.07
0.015
-0.02
-0.16
-0.05
-0.045
-0.04
0.02
-0.015
-0.05
-0.055
-0.095
-0.095
-0.065
-0.035
-0.05
-0.085
-0.04
-0.025
-0.015
0.03
0.005
-0.05
-0.12
-0.075
-0.025
-0.04
-0.08
-0.12
-0.085
-0.075
-0.05
-0.035
-0.055
-0.06
-0.02
0.005
0.005
-0.065
-0.07
0.07
0.055
-0.03
-0.08
-0.085
-0.075
-0.055
-0.09
-0.14
-0.115
-0.065
-0.065
-0.065
-0.045
-0.055
-0.015
-0.035
-0.025
-0.055
-0.03
0.04
0.04
0.035
0.025
-0.025
0.035
0.01
-0.055
-0.08
-0.1
-0.08
-0.085
-0.07
-0.095
-0.11
-0.09
-0.025
-0.035
0.0
-0.01
-0.045
-0.02
-0.035
-0.065
-0.035
-0.03
-0.04
-0.055
-0.055
-0.075
-0.085
-0.085
-0.11
-0.095
-0.075
-0.055
-0.015
-0.055
-0.025
-0.015
0.005
0.03
0.0
-0.065
-0.085
-0.11
-0.115
-0.14
-0.07
-0.055
-0.09
-0.045
-0.01
0.05
0.05
0.01
-0.01
-0.035
-0.06
-0.03
-0.04
-0.025
-0.04
-0.105
-0.065
-0.055
-0.055
-0.075
-0.11
-0.19
-0.165
-0.05
-0.05
-0.04
0.01
0.065
0.035
-0.005
-0.03
-0.015
-0.03
-0.045
-0.06
-0.095
-0.11
-0.08
-0.055
-0.025
-0.045
-0.08
-0.095
-0.165
-0.15
-0.1
-0.045
-0.005
0.025
0.05
0.025
0.0
-0.02
-0.105
-0.04
-0.015
-0.045
-0.09
-0.09
-0.085
-0.05
-0.05
0.045
0.04
-0.02
-0.02
0.005
-0.015
-0.02
0.01
0.03
0.035
0.025
-0.01
0.005
0.06
0.02
0.015
-0.055
-0.075
0.0
0.025
-0.01
-0.01
0.02
-0.035
0.01
0.02
0.005
0.015
0.02
-0.02
0.0
-0.03
-0.03
-0.115
-0.015
-0.015
-0.035
-0.07
-0.08
-0.055
-0.04
-0.04
0.0
0.005
0.05
0.04
-0.065
-0.08
-0.08
-0.095
-0.13
-0.155
-0.135
-0.095
-0.055
-0.05
-0.05
-0.02
-0.02
-0.01
-0.02
-0.065
-0.09
-0.04
-0.045
-0.05
-0.09
-0.145
-0.19
-0.245
-0.205
-0.105
-0.035
0.125
0.165
0.24
0.345
0.5
0.635
0.8
0.955
1.055
1.135
1.115
1.13
1.06
1.05
0.915
0.885
0.85
0.635
0.455
0.385
0.29
0.15
0.02
-0.095
-0.2
-0.215
-0.145
-0.135
-0.195
-0.21
-0.19
-0.12
-0.02
-0.015
-0.055
-0.055
-0.02
-0.055
-0.07
-0.115
-0.105
-0.045
-0.02
-0.05
-0.05
-0.05
-0.025
-0.035
-0.01
-0.005
-0.02
-0.015
-0.045
-0.085
-0.1
-0.135
-0.09
-0.12
0.0
0.04
0.0
-0.015
0.025
0.005
-0.045
-0.085
-0.05
-0.045
-0.075
-0.08
-0.055
-0.035
0.0
0.055
0.075
0.045
-0.005
-0.015
-0.045
0.0
0.045
0.065
0.07
-0.005
0.005
0.04
-0.025
0.01
0.005
0.1
0.08
0.075
0.105
0.11
0.07
0.035
0.065
0.1
0.1
0.07
0.09
0.08
0.08
0.1
0.13
0.075
0.12
0.16
0.145
0.19
0.195
0.155
0.095
0.14
0.185
0.24
0.265
0.25
0.225
0.23
0.205
0.225
0.23
0.165
0.225
0.24
0.315
0.3
0.33
0.335
0.345
0.37
0.34
0.3
0.34
0.3
0.235
0.31
0.38
0.34
0.325
0.34
0.33
0.405
0.4
0.365
0.37
0.345
0.375
0.365
0.35
0.335
0.31
0.355
0.36
0.325
0.355
0.29
0.25
0.265
0.235
0.2
0.165
0.115
0.155
0.17
0.165
0.145
0.17
0.185
0.155
0.15
0.1
0.045
0.09
0.065
0.07
0.055
-0.005
0.01
0.06
0.085
0.065
0.025
0.06
0.0
-0.075
-0.055
-0.025
-0.06
0.015
0.01
0.11
0.065
-0.01
0.025
0.045
0.045
0.04
-0.03
-0.015
-0.015
0.0
-0.02
-0.02
-0.03
0.0
-0.065
-0.055
0.02
0.04
0.0
0.02
0.055
0.04
0.035
0.015
0.03
0.015
0.05
-0.015
-0.07
-0.005
-0.015
-0.01
-0.035
-0.08
-0.01
0.055
0.035
0.03
0.085
0.12
0.07
0.0
-0.06
-0.065
-0.055
-0.075
0.01
-0.035
0.0
0.0
-0.06
-0.03
-0.005
-0.03
-0.045
0.02
0.045
-0.005
-0.05
-0.03
-0.07
-0.05
-0.025
-0.005
-0.06
-0.05
-0.05
-0.05
-0.02
-0.015
-0.02
-0.02
-0.085
-0.035
0.0
-0.025
-0.12
-0.08
-0.06
-0.06
-0.04
-0.05
-0.015
-0.045
-0.125
-0.14
-0.075
-0.075
-0.105
-0.08
-0.05
0.025
0.015
-0.04
-0.015
0.01
-0.005
-0.11
-0.08
-0.07
-0.11
-0.085
-0.085
-0.105
-0.065
-0.07
-0.06
-0.03
-0.025
0.015
-0.02
-0.095
-0.11
-0.075
-0.095
-0.08
-0.06
-0.125
-0.1
-0.1
-0.045
-0.07
-0.045
-0.015
-0.04
-0.005
-0.035
-0.055
-0.065
-0.07
-0.065
-0.025
-0.05
-0.04
-0.04
-0.045
-0.045
-0.075
-0.07
-0.04
-0.08
-0.065
-0.075
-0.1
-0.09
-0.1
-0.085
-0.04
-0.095
-0.115
-0.09
-0.025
-0.045
-0.04
-0.04
-0.055
-0.065
-0.075
-0.075
-0.13
-0.07
0.0
-0.015
-0.03
-0.025
-0.045
-0.06
-0.145
-0.175
-0.12
-0.05
-0.08
-0.085
-0.09
-0.105
-0.1
-0.125
-0.155
-0.11
-0.04
-0.015
-0.01
0.0
-0.085
-0.09
-0.06
-0.015
-0.045
-0.05
-0.03
-0.135
-0.135
-0.085
-0.06
-0.05
-0.03
-0.015
-0.04
-0.04
-0.035
-0.045
-0.105
-0.035
-0.07
-0.075
-0.06
-0.095
-0.13
-0.115
-0.125
-0.125
-0.1
-0.07
-0.06
-0.04
-0.055
-0.05
-0.04
-0.03
-0.095
-0.085
-0.1
-0.14
-0.11
-0.085
-0.09
-0.115
-0.075
-0.045
-0.015
-0.055
-0.075
-0.07
-0.095
-0.105
-0.095
-0.07
-0.065
-0.105
-0.085
-0.045
-0.035
-0.065
-0.03
-0.05
-0.06
-0.06
-0.1
-0.09
-0.085
-0.12
-0.08
-0.08
-0.11
-0.145
-0.04
-0.02
-0.065
-0.09
-0.085
-0.055
-0.03
0.01
0.04
0.025
-0.035
-0.045
-0.025
-0.005
-0.045
-0.06
-0.03
-0.02
-0.04
-0.035
-0.05
-0.065
-0.12
-0.07
0.0
0.05
0.03
0.035
-0.015
-0.075
-0.085
-0.125
-0.055
0.005
-0.005
0.0
-0.05
-0.07
-0.025
-0.01
-0.065
-0.08
-0.105
-0.115
-0.125
-0.105
-0.09
-0.1
-0.11
-0.085
-0.055
-0.04
-0.065
-0.11
-0.13
-0.105
-0.125
-0.115
-0.06
-0.07
-0.12
0.0
0.01
-0.1
-0.075
-0.015
-0.125
-0.145
-0.13
-0.145
-0.2
-0.17
-0.2
-0.13
-0.09
-0.08
-0.045
0.01
0.095
0.225
0.32
0.495
0.67
0.905
1.085
1.265
1.315
1.33
1.245
1.115
1.055
1.005
0.91
0.76
0.63
0.465
0.31
0.18
-0.03
-0.2
-0.26
-0.27
-0.185
-0.17
-0.135
-0.09
-0.105
-0.19
-0.21
-0.085
-0.02
-0.065
-0.05
-0.005
-0.085
-0.13
-0.09
-0.08
-0.115
-0.09
-0.055
-0.05
-0.035
-0.025
-0.085
-0.08
-0.085
-0.085
-0.085
-0.075
-0.11
-0.09
-0.05
-0.015
-0.015
-0.02
-0.025
-0.015
-0.03
-0.065
-0.045
-0.03
-0.065
-0.045
-0.005
-0.02
0.005
-0.005
0.01
0.025
0.02
-0.01
-0.005
0.025
0.025
-0.015
-0.015
0.045
0.025
0.035
-0.025
-0.03
0.03
0.08
0.06
0.06
0.055
-0.015
0.0
0.04
0.065
0.025
0.045
0.065
0.1
0.09
0.1
0.155
0.13
0.16
0.14
0.095
0.155
0.175
0.155
0.165
0.18
0.17
0.13
0.17
0.23
0.2
0.185
0.195
0.24
0.235
0.23
0.195
0.195
0.205
0.27
0.29
0.315
0.32
0.305
0.3
0.365
0.33
0.315
0.335
0.295
0.29
0.3
0.335
0.345
0.36
0.34
0.325
0.365
0.34
0.38
0.34
0.325
0.41
0.42
0.355
0.33
0.345
0.355
0.34
0.32
0.305
0.305
0.305
0.3
0.205
0.18
0.195
0.165
0.16
0.185
0.19
0.175
0.17
0.155
0.16
0.115
0.025
-0.03
-0.025
-0.01
0.065
0.04
0.03
0.035
0.05
0.005
0.03
0.035
0.015
0.025
0.005
0.055
0.015
-0.055
-0.1
-0.075
-0.025
-0.01
-0.06
-0.06
-0.015
0.015
0.03
0.03
0.02
-0.005
-0.045
-0.025
-0.025
-0.035
0.0
-0.05
-0.03
-0.045
-0.06
-0.075
-0.095
-0.04
-0.015
0.025
0.005
0.025
0.075
0.07
-0.01
-0.055
-0.035
0.0
0.015
0.0
-0.03
-0.075
-0.065
-0.1
-0.115
-0.1
-0.065
-0.015
-0.02
-0.005
0.015
0.03
0.025
0.02
0.025
-0.08
-0.1
-0.075
-0.065
-0.055
-0.03
-0.1
-0.125
-0.075
-0.01
-0.015
-0.125
-0.105
-0.06
-0.09
-0.05
-0.06
-0.045
-0.01
-0.01
0.02
-0.05
-0.1
-0.08
-0.1
-0.135
-0.08
-0.075
-0.065
-0.1
-0.05
-0.015
-0.1
-0.08
-0.115
-0.12
-0.075
-0.07
-0.14
-0.09
-0.08
-0.105
-0.075
-0.065
-0.065
-0.065
-0.055
-0.04
-0.09
-0.095
-0.11
-0.145
-0.16
-0.155
-0.15
-0.105
-0.06
-0.06
-0.035
-0.03
-0.06
-0.06
-0.06
-0.055
-0.11
-0.105
-0.1
-0.08
-0.03
-0.04
-0.1
-0.095
-0.095
-0.05
-0.02
-0.105
-0.165
-0.105
-0.075
-0.145
-0.16
-0.14
-0.09
-0.04
-0.06
-0.065
-0.13
-0.115
-0.08
-0.075
-0.025
-0.105
-0.135
-0.065
-0.05
-0.085
-0.125
-0.135
-0.125
-0.125
-0.085
-0.09
-0.13
-0.08
-0.005
-0.015
-0.025
-0.005
-0.055
-0.055
-0.085
-0.135
-0.165
-0.155
-0.09
-0.055
-0.055
-0.065
-0.05
-0.045
-0.1
-0.065
0.0
-0.05
-0.135
-0.14
-0.1
-0.105
-0.115
-0.135
-0.135
-0.13
-0.125
-0.045
-0.1
-0.08
-0.08
-0.01
-0.005
-0.055
-0.035
-0.065
-0.115
-0.065
-0.095
-0.13
-0.115
-0.085
-0.115
-0.05
-0.025
-0.08
-0.03
-0.06
-0.125
-0.11
-0.085
-0.12
-0.13
-0.04
-0.065
-0.15
-0.095
-0.085
-0.08
-0.125
-0.09
-0.005
0.06
0.07
-0.025
-0.05
-0.095
-0.035
-0.015
-0.08
0.005
-0.005
0.015
-0.01
-0.045
-0.03
-0.05
-0.03
-0.065
-0.07
-0.04
0.0
0.0
0.015
0.01
0.065
0.02
-0.03
-0.095
-0.085
-0.07
-0.065
-0.05
-0.02
-0.055
-0.045
-0.08
-0.105
-0.13
-0.11
-0.115
-0.13
-0.115
-0.15
-0.135
-0.105
-0.045
-0.07
-0.055
-0.075
-0.085
-0.07
-0.01
-0.05
-0.105
-0.08
-0.09
-0.095
-0.115
-0.15
-0.12
-0.065
-0.035
-0.065
-0.095
-0.15
-0.175
-0.17
-0.185
-0.18
-0.06
0.04
0.08
0.15
0.28
0.45
0.53
0.71
0.875
1.04
1.185
1.26
1.26
1.145
1.075
0.995
0.795
0.705
0.545
0.435
0.36
0.21
0.13
0.005
-0.215
-0.27
-0.26
-0.245
-0.24
-0.245
-0.175
-0.14
-0.17
-0.205
-0.17
-0.105
-0.065
-0.06
-0.08
-0.055
-0.03
-0.035
-0.035
-0.065
-0.06
-0.065
-0.085
-0.05
-0.065
-0.085
-0.095
-0.07
-0.07
-0.015
0.015
-0.055
-0.055
-0.055
0.045
0.005
-0.065
-0.04
-0.055
-0.02
-0.01
-0.025
-0.035
-0.05
-0.055
-0.035
-0.04
0.02
-0.035
0.015
-0.03
0.025
0.02
0.01
0.04
0.02
0.07
0.085
0.065
0.035
0.05
0.045
0.055
0.09
0.04
0.015
-0.09
-0.035
0.08
0.13
0.065
0.1
0.125
0.095
0.105
0.085
0.075
0.105
0.135
0.15
0.135
0.1
0.08
0.085
0.09
0.09
0.185
0.23
0.265
0.245
0.215
0.22
0.185
0.22
0.295
0.26
0.265
0.235
0.2
0.21
0.225
0.255
0.235
0.17
0.195
0.25
0.27
0.27
0.35
0.38
0.4
0.43
0.465
0.4
0.405
0.375
0.385
0.325
0.31
0.265
0.25
0.28
0.31
0.345
0.375
0.38
0.38
0.385
0.365
0.335
0.335
0.335
0.395
0.375
0.33
0.22
0.215
0.195
0.16
0.165
0.11
0.105
0.16
0.13
0.09
0.095
0.08
0.105
0.1
0.005
-0.035
0.035
-0.01
-0.005
0.08
0.095
0.065
0.085
-0.005
-0.005
-0.03
-0.06
-0.05
-0.06
-0.01
-0.045
-0.015
-0.05
-0.07
-0.02
-0.05
0.03
0.02
-0.015
-0.01
0.01
0.05
0.04
0.005
0.02
0.08
-0.01
-0.07
-0.045
-0.055
-0.025
-0.035
-0.035
0.04
0.01
-0.01
0.0
0.02
0.045
-0.015
0.0
0.01
-0.01
-0.03
-0.005
-0.04
-0.03
-0.055
-0.005
-0.005
-0.025
-0.02
-0.045
-0.09
-0.065
0.0
-0.055
-0.08
-0.03
-0.01
0.02
0.04
-0.015
-0.045
-0.09
-0.075
-0.09
-0.045
-0.03
-0.04
-0.09
-0.025
0.02
0.025
-0.04
-0.04
-0.045
-0.065
-0.045
-0.045
-0.075
-0.115
-0.04
-0.055
-0.035
-0.03
-0.1
-0.1
-0.105
-0.115
-0.065
-0.115
-0.085
-0.06
-0.02
-0.03
-0.035
-0.085
-0.04
-0.08
-0.075
-0.055
-0.095
-0.055
-0.045
-0.1
-0.115
-0.07
-0.05
-0.1
-0.085
-0.105
-0.08
-0.065
-0.09
-0.085
-0.07
-0.08
-0.12
-0.045
-0.06
-0.075
-0.065
-0.07
-0.07
-0.065
-0.065
-0.1
-0.095
-0.09
-0.055
-0.07
-0.065
-0.05
-0.025
-0.085
-0.095
-0.13
-0.12
-0.08
-0.065
-0.105
-0.08
-0.045
-0.035
-0.045
-0.105
-0.095
-0.045
-0.07
-0.115
-0.075
-0.115
-0.09
-0.065
-0.085
-0.07
-0.06
-0.075
-0.055
-0.06
-0.115
-0.09
-0.065
-0.1
-0.155
-0.14
-0.135
-0.12
-0.1
-0.135
-0.115
-0.015
0.01
-0.06
-0.11
-0.105
-0.085
-0.07
-0.045
-0.05
-0.04
-0.02
-0.055
-0.05
-0.055
0.08
0.04
0.01
0.0
-0.02
-0.035
-0.025
-0.035
-0.04
-0.05
-0.03
-0.025
0.005
-0.03
-0.03
-0.045
-0.015
-0.005
-0.04
-0.115
-0.12
-0.055
-0.02
0.005
-0.005
-0.025
-0.09
-0.075
-0.065
-0.09
-0.07
-0.065
-0.085
-0.05
-0.055
-0.09
-0.135
-0.1
-0.115
-0.17
-0.13
-0.07
-0.105
-0.09
-0.01
-0.115
-0.11
-0.03
-0.015
-0.04
-0.045
-0.11
-0.12
-0.165
-0.135
-0.12
-0.11
-0.175
-0.18
-0.21
-0.12
-0.09
-0.075
-0.025
0.035
0.1
0.15
0.215
0.33
0.435
0.64
0.865
1.09
1.165
1.28
1.295
1.205
1.13
1.07
0.96
0.81
0.655
0.525
0.43
0.295
0.15
-0.03
-0.15
-0.25
-0.29
-0.27
-0.22
-0.165
-0.16
-0.12
-0.085
-0.17
-0.205
-0.155
-0.09
-0.09
-0.13
-0.115
-0.055
-0.055
-0.035
-0.06
-0.07
-0.095
-0.09
-0.04
-0.025
-0.02
0.01
-0.05
-0.025
-0.025
-0.085
-0.07
-0.06
-0.045
-0.03
-0.04
-0.06
-0.045
-0.055
0.0
0.02
-0.05
-0.095
-0.035
-0.035
-0.035
-0.065
-0.065
-0.03
0.025
0.02
0.005
0.04
0.0
-0.005
-0.02
0.03
0.045
0.04
0.015
0.005
0.025
0.035
0.025
0.04
0.075
0.09
0.095
0.085
0.07
0.04
0.07
0.07
0.045
0.045
0.065
0.07
0.125
0.135
0.115
0.13
0.125
0.185
0.135
0.135
0.115
0.11
0.13
0.15
0.15
0.18
0.17
0.175
0.2
0.215
0.25
0.265
0.215
0.24
0.24
0.245
0.25
0.28
0.25
0.185
0.26
0.29
0.31
0.295
0.29
0.315
0.35
0.33
0.365
0.39
0.305
0.305
0.335
0.315
0.3
0.31
0.35
0.365
0.335
0.325
0.295
0.31
0.245
0.25
0.27
0.305
0.29
0.275
0.265
0.22
0.205
0.175
0.19
0.145
0.1
0.1
0.125
0.125
0.07
0.06
0.09
0.035
-0.02
0.005
0.065
-0.005
0.015
0.015
-0.005
-0.035
-0.02
-0.045
-0.02
-0.05
-0.075
-0.055
-0.045
-0.01
0.005
-0.025
-0.065
-0.08
-0.045
-0.04
-0.05
-0.035
-0.04
-0.04
0.015
0.015
-0.055
-0.045
-0.07
-0.09
-0.075
0.015
0.0
-0.03
-0.025
0.005
0.035
-0.005
-0.04
-0.025
-0.05
-0.06
-0.025
0.005
0.005
-0.035
0.01
-0.09
-0.155
-0.09
-0.08
-0.13
-0.025
-0.03
-0.02
-0.02
-0.02
-0.025
-0.04
-0.08
-0.045
-0.025
-0.035
-0.01
-0.045
-0.07
-0.065
-0.035
-0.055
-0.105
-0.105
-0.095
-0.055
-0.06
-0.04
-0.065
-0.035
-0.04
-0.07
-0.005
-0.055
-0.06
-0.11
-0.065
-0.075
-0.075
-0.09
-0.105
-0.12
-0.075
-0.06
-0.065
-0.075
-0.06
-0.075
-0.11
-0.11
-0.15
-0.14
-0.125
-0.11
-0.075
-0.055
-0.05
-0.045
-0.065
-0.04
-0.105
-0.165
-0.11
-0.08
-0.085
-0.08
-0.085
-0.055
-0.02
-0.07
-0.07
-0.075
-0.135
-0.18
-0.105
-0.1
-0.115
-0.145
-0.065
-0.085
-0.055
-0.06
-0.055
-0.08
-0.11
-0.11
-0.125
-0.06
-0.095
-0.135
-0.095
-0.06
-0.105
-0.145
-0.135
-0.12
-0.085
-0.06
-0.07
-0.055
-0.06
-0.115
-0.11
-0.14
-0.105
-0.095
-0.1
-0.145
-0.155
-0.125
-0.1
-0.06
-0.065
-0.05
-0.06
-0.065
-0.1
-0.16
-0.125
-0.09
-0.115
-0.095
-0.115
-0.09
-0.045
-0.07
-0.01
-0.075
-0.075
-0.09
-0.11
-0.125
-0.075
-0.09
-0.11
-0.035
-0.035
-0.045
-0.105
-0.14
-0.115
-0.13
-0.125
-0.095
-0.1
-0.12
-0.13
-0.13
-0.12
-0.115
-0.15
-0.16
-0.13
-0.115
-0.085
-0.1
-0.07
-0.055
-0.05
-0.125
-0.16
-0.14
-0.12
-0.115
-0.065
-0.025
-0.075
-0.055
-0.12
-0.105
0.0
-0.07
-0.14
-0.09
-0.095
-0.045
-0.095
-0.1
-0.13
-0.125
-0.135
-0.125
-0.115
-0.07
-0.07
-0.095
-0.075
-0.05
-0.085
-0.13
-0.1
-0.055
-0.1
-0.105
-0.065
-0.08
-0.11
-0.095
-0.075
-0.08
-0.1
-0.12
-0.08
-0.105
-0.09
-0.075
-0.075
-0.11
-0.13
-0.105
-0.13
-0.135
-0.135
-0.115
-0.07
-0.125
-0.115
-0.175
-0.195
-0.07
0.035
-0.02
-0.025
0.0
0.01
-0.04
-0.065
-0.055
-0.055
-0.02
-0.04
-0.055
-0.05
-0.095
-0.075
-0.02
0.005
-0.06
-0.01
-0.03
0.0
-0.025
0.005
-0.025
-0.045
-0.035
-0.03
-0.05
-0.075
-0.09
-0.08
-0.025
-0.005
-0.055
-0.035
-0.06
-0.06
-0.1
-0.08
-0.13
-0.105
-0.08
-0.15
-0.155
-0.065
-0.07
-0.125
-0.095
-0.12
-0.075
-0.055
-0.07
-0.13
-0.125
-0.07
-0.08
-0.06
-0.105
-0.09
-0.11
-0.14
-0.095
-0.145
-0.17
-0.12
-0.16
-0.17
-0.185
-0.15
-0.105
-0.045
0.03
0.13
0.16
0.23
0.32
0.475
0.63
0.83
1.02
1.125
1.18
1.24
1.105
1.065
1.0
0.835
0.74
0.665
0.51
0.405
0.35
0.215
0.03
-0.075
-0.205
-0.22
-0.195
-0.165
-0.11
-0.105
-0.11
-0.18
-0.115
-0.09
-0.12
-0.105
-0.07
-0.105
-0.1
-0.085
-0.115
-0.08
-0.09
-0.065
-0.055
-0.01
-0.025
-0.115
-0.125
-0.11
-0.07
-0.05
-0.095
-0.08
-0.135
-0.1
-0.055
-0.025
-0.055
-0.065
-0.005
-0.03
-0.07
-0.055
-0.075
-0.02
-0.02
-0.01
-0.06
0.005
0.045
0.04
0.05
0.05
0.04
-0.005
-0.025
-0.015
-0.04
-0.035
-0.045
0.015
-0.035
0.035
0.005
0.03
0.01
0.025
0.01
0.05
0.075
0.045
0.01
0.035
0.0
0.005
0.02
0.06
0.095
0.115
0.105
0.11
0.075
0.04
0.09
0.12
0.15
0.14
0.09
0.165
0.12
0.195
0.13
0.155
0.16
0.16
0.215
0.195
0.2
0.26
0.275
0.245
0.245
0.225
0.26
0.295
0.315
0.275
0.235
0.265
0.28
0.285
0.235
0.275
0.295
0.315
0.385
0.36
0.335
0.32
0.345
0.35
0.34
0.37
0.385
0.385
0.33
0.34
0.3
0.225
0.26
0.295
0.385
0.295
0.345
0.32
0.32
0.31
0.25
0.255
0.24
0.29
0.205
0.18
0.14
0.13
0.145
0.14
0.115
0.085
0.11
0.08
0.075
0.075
0.03
0.055
0.135
0.08
-0.02
-0.04
-0.005
0.02
0.025
0.0
-0.005
-0.055
0.03
0.045
-0.04
-0.045
-0.04
-0.025
-0.03
-0.06
-0.035
-0.005
-0.035
-0.025
-0.035
-0.09
-0.035
0.0
-0.045
-0.025
0.015
0.005
0.055
0.07
0.015
0.025
0.025
0.005
0.0
-0.005
-0.025
-0.02
-0.11
-0.035
0.005
0.045
-0.045
-0.03
0.045
-0.01
0.025
0.035
-0.005
-0.03
-0.04
-0.025
-0.04
0.02
0.1
0.045
-0.03
0.03
0.065
-0.06
-0.105
-0.11
-0.14
-0.09
-0.035
0.02
0.065
0.06
0.005
-0.04
-0.045
-0.07
-0.015
-0.005
-0.05
-0.04
0.015
-0.06
-0.09
-0.06
-0.03
-0.015
-0.035
-0.015
-0.035
-0.05
-0.005
-0.035
-0.035
-0.06
-0.115
-0.1
-0.08
-0.06
-0.055
-0.01
-0.035
-0.045
-0.03
-0.05
-0.075
-0.035
0.01
0.005
-0.02
-0.025
-0.075
-0.07
-0.025
-0.05
-0.065
-0.085
-0.065
-0.07
-0.055
-0.04
-0.025
-0.03
-0.09
-0.07
-0.035
-0.05
-0.105
-0.105
-0.11
-0.11
-0.12
-0.12
-0.075
-0.05
0.0
0.045
-0.02
-0.005
-0.05
-0.03
-0.02
-0.045
-0.055
-0.01
-0.055
-0.065
-0.07
-0.07
-0.09
-0.07
-0.1
-0.09
-0.045
-0.04
-0.07
-0.09
-0.1
-0.09
-0.05
-0.05
0.025
-0.01
-0.05
-0.04
-0.055
-0.05
-0.03
-0.01
-0.075
-0.1
-0.055
-0.08
-0.06
-0.025
-0.035
-0.05
-0.05
-0.1
-0.055
-0.075
-0.085
-0.065
-0.075
-0.085
-0.015
0.0
-0.045
-0.035
-0.01
-0.065
-0.145
-0.095
-0.11
-0.05
-0.055
-0.08
0.03
-0.05
-0.065
-0.14
-0.115
-0.075
-0.035
-0.07
-0.025
0.04
-0.02
-0.005
0.01
-0.02
-0.01
-0.09
-0.115
-0.11
-0.14
-0.065
-0.025
-0.045
-0.035
-0.03
-0.015
-0.01
-0.05
-0.005
-0.04
-0.1
-0.12
-0.03
0.005
-0.07
-0.085
-0.01
