# TIPE ECG 2021 - ECG-ID Database v1.0.0 par Physionet
# [Numéro de la personne, Période d'échantillonnage, Prénom, Age, Sexe, Date de l'enregistrement]
[22, 0.002, William, 25, H, 26.04.2005]
-0.13
-0.09
0.08
0.235
0.33
0.275
0.16
0.105
-0.06
-0.105
-0.05
-0.085
-0.125
0.02
0.23
0.21
0.025
0.015
0.06
-0.04
-0.065
0.06
0.04
0.055
0.145
0.245
0.14
0.075
0.0
-0.075
-0.075
-0.005
0.035
0.12
0.1
0.165
0.2
0.06
-0.055
0.055
-0.015
-0.025
0.095
0.245
0.185
0.115
0.26
0.165
0.095
-0.06
-0.075
0.025
0.15
0.175
0.065
0.06
0.12
-0.015
-0.045
0.025
-0.04
-0.08
-0.025
0.095
0.135
0.295
0.215
0.15
0.015
-0.01
-0.07
-0.04
0.07
0.115
0.075
0.18
0.235
0.065
-0.07
-0.065
-0.065
0.03
0.035
-0.035
0.075
0.21
0.13
0.015
-0.025
0.12
0.125
-0.095
-0.11
0.015
0.325
0.355
0.22
0.005
-0.085
-0.045
-0.035
-0.04
-0.045
0.03
0.205
0.275
0.16
0.05
-0.035
-0.045
-0.015
0.01
0.19
0.255
0.225
0.17
0.105
-0.125
-0.045
0.08
-0.02
-0.015
0.15
0.215
0.3
0.285
0.075
-0.005
0.035
0.055
0.09
0.0
0.205
0.245
0.225
0.165
0.075
0.135
0.045
-0.145
-0.045
-0.005
0.12
0.095
0.13
0.14
0.17
0.155
0.1
-0.01
-0.02
0.05
0.07
0.075
0.135
0.16
0.095
0.1
-0.025
-0.18
-0.06
0.055
0.125
0.05
0.225
0.26
0.24
0.105
-0.09
-0.275
-0.06
0.145
0.31
0.27
0.255
0.275
0.2
0.135
0.12
0.03
0.13
0.27
0.345
0.235
0.18
0.065
-0.1
-0.17
-0.2
-0.43
-0.51
-0.46
-0.415
-0.255
-0.29
-0.31
-0.345
-0.4
-0.39
-0.35
-0.275
-0.18
-0.06
0.07
0.05
0.06
0.16
0.08
0.12
-0.025
-0.075
0.055
0.045
0.095
0.215
0.195
0.06
0.045
0.065
0.06
0.035
0.105
0.035
0.115
0.255
0.175
0.17
0.105
0.015
0.015
0.205
0.21
0.23
0.23
0.28
0.255
0.155
0.13
-0.025
-0.05
0.075
0.12
0.29
0.305
0.355
0.22
0.145
-0.015
-0.14
0.025
0.365
0.495
0.26
0.195
0.3
0.21
0.125
0.05
0.05
0.02
0.235
0.205
0.275
0.39
0.38
0.31
0.24
0.12
0.065
0.125
0.195
0.33
0.365
0.44
0.39
0.295
0.26
0.215
0.165
0.125
0.2
0.37
0.425
0.535
0.34
0.295
0.29
0.225
0.225
0.23
0.43
0.68
0.56
0.365
0.33
0.27
0.35
0.305
0.1
0.075
0.28
0.425
0.385
0.42
0.38
0.405
0.285
0.175
0.135
0.115
0.075
0.12
0.27
0.25
0.29
0.12
0.025
0.095
0.025
-0.045
0.155
0.195
0.315
0.36
0.195
0.18
-0.085
-0.115
-0.03
-0.025
0.08
0.27
0.31
0.42
0.23
0.12
-0.07
0.01
-0.045
-0.135
-0.065
0.04
0.12
0.195
0.13
0.205
0.165
-0.035
-0.165
-0.015
0.085
0.155
0.085
0.205
0.05
-0.04
-0.02
0.05
0.015
-0.07
-0.09
0.095
0.235
0.38
0.11
-0.04
-0.16
-0.19
0.065
0.215
0.205
0.135
0.095
0.16
0.205
0.105
-0.045
-0.02
0.12
0.09
0.09
0.135
0.185
0.205
0.175
0.135
0.09
-0.01
0.065
-0.055
-0.015
0.05
0.175
0.15
0.135
0.185
0.12
0.01
-0.055
0.025
0.185
0.2
0.165
0.105
0.045
-0.015
-0.105
-0.065
-0.01
0.005
0.1
0.215
0.27
0.19
0.105
0.065
0.06
0.01
-0.095
-0.03
-0.015
0.16
0.25
0.26
0.18
0.155
0.09
-0.14
-0.265
-0.085
0.095
0.18
0.33
0.275
0.145
0.14
0.035
-0.105
0.01
0.095
0.245
0.26
0.155
0.085
0.115
-0.005
0.045
0.01
0.07
0.165
0.325
0.345
0.375
0.11
-0.16
-0.195
-0.14
-0.135
0.01
0.065
0.03
0.135
0.11
0.2
0.165
0.05
-0.02
0.0
-0.155
-0.125
0.075
0.1
0.135
0.05
0.13
0.11
0.105
-0.05
0.08
0.03
-0.01
0.08
0.165
0.165
0.12
-0.055
0.02
-0.085
-0.05
0.06
0.045
0.13
0.13
0.055
0.21
0.045
-0.105
0.035
0.015
0.065
0.295
0.27
0.195
0.2
0.2
0.125
0.11
-0.08
-0.115
-0.105
-0.1
-0.265
-0.275
-0.215
-0.26
-0.445
-0.51
-0.695
-0.565
-0.34
-0.235
-0.175
-0.08
-0.155
-0.285
-0.19
-0.255
-0.225
-0.1
0.04
0.17
0.185
0.105
0.025
0.055
0.095
0.035
-0.055
-0.025
0.095
0.22
0.325
0.225
0.06
0.135
-0.015
-0.055
-0.075
0.025
0.2
0.255
0.375
0.38
0.35
0.13
0.07
0.03
-0.015
0.13
0.045
0.07
0.16
0.16
0.13
0.065
0.02
-0.035
0.025
0.07
0.195
0.26
0.245
0.32
0.18
0.155
0.18
0.11
0.195
0.215
0.265
0.19
0.175
0.265
0.255
0.135
0.12
0.005
0.09
0.23
0.49
0.28
0.34
0.33
0.285
0.1
0.03
-0.045
0.2
0.27
0.235
0.295
0.27
0.405
0.44
0.325
0.255
0.165
0.335
0.355
0.46
0.47
0.485
0.425
0.32
0.24
0.155
0.16
0.175
0.28
0.375
0.425
0.395
0.315
0.305
0.25
0.21
0.225
0.28
0.245
0.17
0.09
0.295
0.18
0.195
0.115
0.04
0.055
0.11
0.145
0.315
0.265
0.21
0.135
0.045
-0.085
-0.07
-0.045
0.025
0.13
0.15
0.205
0.11
0.005
0.085
0.15
0.075
-0.06
-0.065
0.06
0.05
0.115
0.14
0.01
-0.105
0.03
0.075
0.055
0.035
0.095
0.24
0.15
0.15
0.035
0.015
-0.025
-0.17
-0.16
-0.07
0.095
0.2
0.18
0.285
0.22
0.015
-0.105
-0.18
-0.22
-0.135
0.01
0.075
0.195
0.19
0.025
-0.065
-0.035
-0.075
-0.085
0.035
0.07
0.07
0.185
0.31
0.15
0.055
-0.09
-0.14
-0.08
0.085
0.155
0.1
0.06
0.21
0.19
0.085
-0.07
0.03
0.065
-0.135
0.09
0.105
0.1
0.11
0.105
-0.02
-0.07
-0.08
-0.09
-0.03
0.04
0.14
0.13
0.085
0.105
0.145
0.05
-0.025
0.095
0.06
0.18
0.15
0.075
0.02
0.005
-0.07
-0.15
-0.145
-0.08
-0.09
0.08
0.22
0.245
0.175
-0.015
-0.065
-0.155
-0.14
-0.115
-0.105
0.055
0.14
0.25
0.255
0.205
0.025
-0.11
-0.125
-0.05
-0.03
0.105
0.28
0.28
0.1
0.0
-0.045
0.0
-0.05
-0.11
0.06
0.22
0.25
0.24
0.135
0.07
-0.03
-0.005
-0.08
-0.07
0.03
0.135
0.305
0.255
0.16
0.245
0.165
0.165
0.015
-0.12
-0.06
0.005
0.045
0.29
0.175
0.05
0.095
-0.09
-0.13
-0.06
0.115
0.15
0.03
0.045
0.075
0.06
-0.03
-0.095
-0.14
-0.045
0.055
0.065
0.095
0.185
0.11
0.075
-0.065
-0.055
0.09
0.085
0.085
0.09
0.115
0.185
0.115
-0.115
-0.12
-0.09
-0.12
-0.04
0.005
0.075
0.14
0.27
0.43
0.16
-0.07
-0.2
0.07
0.215
0.21
0.29
0.325
0.29
0.085
-0.12
-0.29
-0.355
-0.33
-0.35
-0.37
-0.41
-0.375
-0.315
-0.325
-0.425
-0.475
-0.375
-0.365
-0.285
-0.175
-0.01
0.095
0.13
0.105
-0.015
-0.065
-0.035
0.01
-0.03
0.1
0.095
0.145
0.22
0.14
0.14
0.175
0.045
-0.15
-0.07
0.165
0.11
0.21
0.2
0.195
-0.03
0.02
-0.03
0.0
0.09
0.15
0.21
0.195
0.205
0.155
0.115
0.035
-0.02
0.025
0.105
0.255
0.24
0.31
0.245
0.205
0.1
0.045
0.09
0.09
0.1
0.215
0.205
0.37
0.425
0.27
0.285
0.085
0.09
0.155
0.08
0.24
0.315
0.39
0.29
0.29
0.195
0.175
0.07
0.08
0.135
0.27
0.3
0.385
0.365
0.37
0.305
0.33
0.19
0.2
0.185
0.36
0.325
0.325
0.245
0.36
0.305
0.16
0.085
0.345
0.475
0.445
0.33
0.445
0.245
0.115
0.055
0.19
0.18
0.215
0.185
0.165
0.335
0.395
0.26
0.14
0.04
0.14
0.075
0.12
0.305
0.2
0.25
0.33
0.23
0.175
0.12
0.05
0.015
0.16
0.175
0.11
-0.035
0.08
0.205
0.16
-0.08
-0.075
-0.105
-0.075
0.23
0.215
0.075
0.18
0.19
0.1
-0.11
-0.15
-0.16
-0.055
0.015
0.08
0.19
0.19
0.105
0.02
0.105
0.18
-0.045
-0.115
0.105
0.205
0.13
0.14
0.085
0.025
0.005
-0.005
-0.075
-0.18
-0.02
0.11
0.19
0.06
0.085
0.075
0.085
0.055
-0.015
-0.025
-0.01
0.115
0.185
0.1
0.1
0.065
-0.085
-0.19
0.04
-0.005
0.02
0.05
0.165
0.14
0.09
0.095
0.13
0.0
-0.03
0.065
0.095
-0.015
0.21
0.25
0.1
0.025
0.03
-0.125
-0.085
-0.035
0.03
0.09
0.2
0.205
0.075
0.125
0.035
-0.165
-0.005
0.06
0.1
0.06
0.24
0.21
0.13
-0.055
0.025
-0.025
-0.06
0.115
0.17
0.095
0.14
0.16
0.12
-0.015
-0.005
-0.055
-0.04
-0.08
0.1
0.15
0.175
0.075
0.05
0.055
0.03
-0.105
0.08
0.1
0.135
0.105
0.05
0.055
0.01
0.03
-0.025
-0.025
0.005
0.015
0.145
0.22
0.15
0.16
0.1
0.025
0.03
-0.09
-0.03
-0.005
0.145
0.215
0.235
0.235
0.21
0.065
-0.11
-0.085
-0.015
0.07
0.115
0.18
0.285
0.15
0.005
0.1
0.005
-0.115
0.01
-0.015
0.105
0.14
0.16
0.18
0.02
-0.055
-0.13
0.07
0.055
0.01
0.095
0.115
0.26
0.2
0.045
-0.105
-0.135
-0.095
-0.09
-0.01
0.065
0.145
0.205
0.23
0.08
-0.02
-0.09
-0.02
-0.02
-0.005
0.03
0.14
0.115
0.06
-0.035
-0.145
-0.16
0.03
0.255
0.34
0.365
0.335
0.325
0.205
-0.005
-0.005
-0.275
-0.215
-0.135
-0.07
-0.12
-0.165
-0.325
-0.545
-0.585
-0.505
-0.495
-0.435
-0.355
-0.205
-0.11
-0.04
-0.07
-0.08
-0.255
-0.17
-0.155
-0.02
-0.12
-0.04
0.06
0.185
0.35
0.15
0.075
0.0
-0.075
-0.045
0.005
0.0
0.115
0.26
0.17
0.125
0.085
-0.02
-0.135
0.04
0.075
0.115
0.145
0.205
0.235
0.195
0.09
0.045
0.01
0.11
0.075
0.105
0.13
0.285
0.255
0.16
0.135
0.005
-0.05
0.04
0.21
0.195
0.28
0.33
0.205
0.11
0.095
0.05
0.0
0.13
0.255
0.285
0.275
0.22
0.225
0.225
0.105
0.005
-0.155
-0.215
0.07
0.295
0.425
0.41
0.22
0.1
-0.045
0.08
0.03
0.17
0.245
0.27
0.36
0.35
0.345
0.205
0.145
0.075
0.115
0.195
0.395
0.525
0.535
0.505
0.255
-0.02
-0.07
0.14
0.335
0.255
0.245
0.275
0.42
0.4
0.32
0.18
0.005
-0.03
0.03
0.2
0.24
0.13
0.335
0.165
0.22
0.24
0.07
-0.055
-0.12
-0.025
0.175
0.115
0.12
0.115
0.18
0.03
-0.015
-0.135
-0.09
-0.055
0.13
0.125
0.23
0.275
0.08
-0.005
0.08
-0.095
-0.08
0.05
0.025
0.04
0.07
0.075
-0.04
-0.11
-0.02
-0.035
-0.12
-0.005
0.045
0.02
0.195
0.14
0.08
0.0
-0.09
-0.2
-0.145
-0.115
0.085
0.21
0.245
0.145
0.145
-0.01
-0.175
-0.165
-0.135
-0.025
0.14
0.11
0.205
0.205
0.09
0.125
0.055
-0.06
-0.09
-0.025
-0.04
-0.03
0.085
0.115
0.1
-0.01
-0.075
-0.205
-0.165
0.075
0.165
0.08
0.03
0.105
0.155
0.055
-0.015
-0.175
-0.095
0.105
0.265
0.265
0.21
0.145
0.03
-0.13
-0.095
0.01
0.095
0.045
0.085
0.115
0.15
0.17
0.065
-0.03
0.05
-0.055
-0.045
0.11
0.215
0.155
0.13
0.0
-0.12
-0.075
-0.185
-0.035
-0.015
0.085
0.27
0.245
0.215
-0.11
-0.125
-0.09
-0.065
-0.125
-0.055
0.12
0.21
0.135
0.135
0.105
0.04
0.03
-0.075
-0.03
-0.04
0.055
0.085
0.17
0.02
-0.2
-0.125
-0.095
-0.11
-0.055
-0.09
0.015
0.175
0.41
0.205
0.15
0.06
-0.035
-0.155
-0.11
-0.02
0.095
0.045
0.185
0.24
0.145
0.055
0.085
-0.08
0.005
0.045
0.12
0.13
0.265
0.275
0.165
0.01
-0.04
-0.035
-0.005
-0.07
0.115
0.185
0.21
0.12
0.125
0.035
-0.115
-0.04
-0.105
-0.175
0.1
0.265
0.21
0.12
0.08
-0.045
-0.015
-0.27
-0.075
0.0
-0.05
0.08
0.255
0.19
0.11
0.005
-0.125
-0.145
-0.005
0.02
0.045
0.075
0.18
0.145
0.01
-0.08
-0.04
0.08
0.03
0.015
0.03
0.075
0.195
0.12
0.04
-0.085
-0.075
-0.015
0.11
0.06
0.12
0.245
0.29
0.14
-0.165
-0.225
-0.37
-0.47
-0.445
-0.375
-0.435
-0.48
-0.45
-0.405
-0.385
-0.4
-0.26
-0.34
-0.24
-0.14
-0.015
-0.045
-0.05
-0.05
0.06
0.03
-0.04
-0.16
-0.005
0.065
0.155
0.09
0.095
0.0
-0.14
-0.02
0.025
-0.01
0.015
0.055
0.025
0.03
0.245
0.195
0.12
-0.025
-0.08
-0.03
-0.03
0.095
0.225
0.37
0.31
0.145
-0.12
-0.09
-0.065
-0.045
-0.055
0.08
0.215
0.325
0.31
0.095
0.055
-0.01
0.11
0.16
-0.045
-0.025
0.22
0.325
0.19
0.08
0.055
-0.08
0.015
0.12
0.14
0.14
0.135
0.195
0.385
0.24
0.2
0.015
-0.075
0.035
0.06
0.28
0.34
0.51
0.445
0.4
0.25
0.255
0.265
0.165
0.075
0.065
0.285
0.445
0.285
0.19
0.06
0.15
0.255
0.32
0.185
0.3
0.315
0.36
0.375
0.22
0.17
0.085
0.005
0.23
0.34
0.355
0.445
0.37
0.225
0.17
0.095
0.265
0.23
0.255
0.14
0.06
0.175
0.265
0.23
0.095
0.005
-0.045
0.0
0.04
0.005
0.06
0.07
0.205
0.115
-0.005
-0.13
-0.1
-0.065
0.02
0.03
0.04
0.04
0.22
0.29
0.12
-0.04
0.02
-0.115
-0.12
-0.015
0.16
0.255
0.28
0.15
0.095
-0.025
-0.12
-0.16
0.025
0.185
-0.01
-0.045
0.16
0.145
-0.05
-0.15
-0.075
0.065
0.01
0.05
0.11
0.03
0.105
0.1
0.065
-0.025
-0.1
-0.26
-0.135
0.02
0.13
0.075
0.06
0.16
0.045
0.02
-0.115
-0.11
-0.06
0.015
0.345
0.255
0.135
0.145
0.005
-0.135
-0.205
-0.11
-0.04
0.04
0.095
0.14
0.1
-0.02
0.03
-0.025
-0.145
-0.09
0.06
0.17
0.11
0.23
0.12
-0.005
-0.07
0.015
-0.045
-0.09
-0.175
0.02
0.19
0.245
0.005
0.145
0.27
0.05
-0.105
-0.16
-0.025
0.025
-0.03
0.01
0.1
0.09
-0.035
-0.135
-0.08
-0.05
-0.1
0.005
0.145
0.19
0.16
0.085
-0.025
-0.265
-0.26
-0.005
0.065
0.13
0.215
0.52
0.315
-0.05
-0.135
-0.135
-0.245
0.01
0.045
0.05
-0.025
0.1
0.16
0.075
-0.065
-0.115
-0.145
-0.05
0.035
0.075
0.21
0.18
0.085
0.105
0.045
0.05
-0.09
-0.08
-0.15
0.0
0.165
0.365
0.265
0.15
0.005
0.015
-0.135
-0.04
-0.02
-0.035
0.195
0.39
0.15
0.075
0.055
-0.035
0.025
-0.02
0.01
0.12
0.22
0.13
0.125
0.04
0.005
0.015
-0.04
-0.13
0.02
0.1
0.085
0.09
0.175
0.065
0.05
0.065
0.005
-0.005
0.145
0.125
0.095
0.04
-0.13
-0.07
-0.115
-0.045
-0.02
0.005
0.115
0.235
0.19
0.145
0.195
0.06
-0.095
-0.165
-0.105
-0.02
0.045
0.175
0.33
0.225
0.075
0.15
0.045
0.14
0.02
0.015
0.1
0.13
0.205
0.275
0.085
-0.105
-0.12
-0.155
-0.295
-0.33
-0.315
-0.365
-0.46
-0.27
-0.255
-0.445
-0.46
-0.45
-0.545
-0.36
-0.25
-0.21
-0.09
0.085
-0.06
0.04
-0.03
-0.075
-0.215
-0.07
0.045
0.17
0.22
0.22
0.225
0.115
-0.08
-0.17
-0.065
0.075
0.21
0.19
0.12
0.27
0.13
-0.11
-0.075
-0.005
0.175
0.125
0.09
0.29
0.285
0.2
0.105
0.115
0.035
-0.075
-0.055
-0.03
0.155
0.21
0.245
0.25
0.165
0.12
0.13
-0.14
-0.075
-0.005
0.24
0.325
0.45
0.19
0.065
0.05
0.135
0.05
0.07
0.13
0.215
0.215
0.415
0.365
0.325
0.175
0.19
-0.035
0.005
0.205
0.34
0.37
0.365
0.28
0.27
0.065
-0.075
0.06
0.205
0.25
0.21
0.36
0.58
0.52
0.26
0.155
0.215
0.21
0.26
0.29
0.3
0.38
0.485
0.465
0.34
0.14
0.22
0.16
0.16
0.305
0.41
0.445
0.32
0.29
0.195
0.28
0.195
0.11
0.035
0.125
0.225
0.255
0.28
0.205
0.05
0.115
0.155
0.115
0.185
0.14
0.105
0.035
0.13
0.18
0.07
-0.07
-0.12
-0.105
-0.08
0.105
0.18
0.175
0.18
0.165
0.075
-0.06
-0.01
0.015
-0.01
0.045
0.11
0.16
0.1
0.11
-0.01
-0.045
-0.105
-0.09
0.075
0.135
0.24
0.265
0.085
0.065
0.175
-0.005
-0.035
0.01
0.085
0.1
0.12
0.2
0.14
0.11
0.005
-0.04
-0.1
-0.005
-0.005
0.085
0.18
0.235
0.11
-0.005
-0.1
-0.05
-0.09
-0.125
-0.085
0.185
0.18
0.07
0.205
0.205
-0.08
-0.09
-0.125
0.045
0.18
0.15
0.09
0.205
0.12
-0.025
0.005
0.085
0.1
0.055
0.065
0.11
0.17
0.265
0.125
-0.015
0.12
0.005
-0.195
-0.3
0.015
0.375
0.375
0.23
0.025
-0.08
-0.09
-0.06
-0.1
-0.035
0.055
0.18
0.04
0.13
0.21
0.21
-0.01
-0.06
-0.205
-0.185
0.01
0.09
0.055
0.085
0.18
0.1
-0.085
-0.045
-0.035
0.12
-0.015
-0.035
0.085
0.26
0.245
0.07
0.07
-0.01
-0.045
-0.01
0.11
0.01
0.025
0.205
0.15
0.11
-0.04
-0.165
-0.075
-0.02
0.135
0.2
0.13
0.145
0.135
0.125
-0.05
-0.095
-0.115
-0.09
0.225
0.33
0.33
0.225
0.1
-0.045
0.035
0.11
0.095
-0.1
0.025
0.2
0.235
0.25
0.205
0.03
-0.16
-0.255
-0.125
-0.07
-0.01
0.075
0.19
0.26
0.12
-0.06
-0.215
-0.155
-0.21
-0.115
0.01
0.105
0.165
0.245
0.05
-0.055
-0.13
-0.225
-0.085
0.06
0.08
0.025
0.015
0.15
0.075
0.035
0.07
0.12
0.075
0.065
0.155
0.22
0.215
0.265
0.125
-0.12
-0.12
-0.035
-0.08
-0.205
-0.27
-0.29
-0.41
-0.535
-0.54
-0.59
-0.505
-0.5
-0.585
-0.3
-0.295
-0.23
-0.185
-0.105
-0.185
-0.175
-0.115
-0.215
-0.15
0.025
0.08
0.085
0.165
0.1
0.06
-0.03
-0.075
-0.12
-0.07
0.005
0.135
0.385
0.5
0.345
0.235
-0.045
-0.235
-0.24
-0.045
0.03
0.12
0.2
0.15
0.15
0.08
-0.005
-0.045
-0.115
-0.03
0.135
0.085
0.16
0.4
0.21
-0.04
-0.07
0.055
-0.06
-0.015
0.08
0.14
0.335
0.235
0.055
0.06
-0.035
-0.065
-0.11
-0.13
0.01
0.365
0.365
0.35
0.295
0.135
0.02
-0.055
-0.06
0.175
0.245
0.355
0.425
0.38
0.205
0.11
0.07
-0.025
0.005
0.235
0.375
0.355
0.27
0.255
0.25
0.125
0.18
0.18
0.12
0.185
0.315
0.34
0.2
0.155
0.17
0.11
0.15
0.29
0.235
0.1
0.315
0.32
0.21
0.285
0.365
0.305
0.155
0.02
0.025
0.085
0.195
0.29
0.295
0.225
0.155
0.045
0.085
-0.015
-0.07
-0.01
0.11
-0.04
0.055
-0.065
-0.12
-0.075
-0.02
-0.09
-0.21
0.005
0.045
0.105
0.195
0.155
0.02
-0.05
-0.13
-0.195
-0.165
0.005
-0.04
-0.01
0.175
0.265
0.115
-0.055
-0.265
-0.25
-0.145
-0.08
0.02
0.065
0.165
0.1
0.005
-0.07
-0.145
-0.115
-0.185
-0.19
-0.07
-0.03
0.105
0.11
-0.04
-0.065
-0.02
-0.145
-0.175
-0.05
0.0
0.07
0.19
0.085
0.04
-0.09
-0.16
-0.29
-0.18
-0.08
0.0
-0.07
0.11
-0.06
-0.07
-0.01
-0.075
-0.385
-0.235
-0.04
0.01
-0.03
0.16
0.055
-0.075
-0.11
0.005
0.015
-0.09
-0.065
0.085
0.115
0.285
0.11
-0.1
-0.17
-0.105
-0.295
-0.15
-0.045
-0.08
-0.11
0.04
0.02
-0.14
-0.25
-0.305
-0.13
0.025
0.04
0.06
-0.01
0.025
0.015
-0.04
-0.19
-0.13
-0.14
-0.165
-0.27
-0.15
0.2
0.37
0.155
-0.26
-0.275
-0.31
-0.29
-0.32
-0.26
-0.08
0.02
0.02
-0.065
-0.105
-0.135
-0.245
-0.355
-0.235
-0.045
-0.055
-0.045
-0.055
-0.055
-0.09
-0.16
-0.2
-0.205
-0.155
-0.1
0.0
-0.025
0.055
0.02
-0.295
-0.23
-0.2
-0.245
-0.1
0.025
0.07
0.045
-0.225
-0.135
-0.24
-0.265
-0.24
-0.205
-0.125
-0.075
-0.07
0.075
0.105
-0.01
-0.11
-0.14
-0.225
-0.225
-0.22
-0.07
0.115
0.03
0.06
-0.05
-0.095
-0.095
-0.005
-0.125
-0.12
-0.04
0.055
0.025
-0.07
-0.14
-0.185
-0.17
-0.17
-0.27
-0.12
0.065
0.01
-0.02
0.125
-0.15
-0.335
-0.28
-0.305
-0.23
-0.09
0.035
-0.05
-0.05
-0.11
-0.275
-0.34
-0.15
-0.06
-0.08
-0.135
-0.04
-0.03
0.12
0.095
-0.045
-0.35
-0.21
0.085
-0.13
-0.055
0.13
0.075
0.215
0.185
-0.06
-0.19
-0.17
-0.3
-0.205
-0.175
-0.16
-0.26
-0.37
-0.365
-0.505
-0.595
-0.745
-0.8
-0.655
-0.55
-0.38
-0.44
-0.32
-0.295
-0.34
-0.345
-0.255
-0.285
-0.145
-0.105
-0.045
-0.03
-0.005
0.025
-0.135
-0.18
-0.175
-0.11
-0.005
0.065
-0.015
0.09
0.005
-0.13
0.06
-0.01
-0.12
-0.18
-0.195
-0.135
-0.125
0.135
0.1
0.065
-0.065
-0.145
-0.19
-0.03
0.04
0.055
0.085
0.11
0.015
0.05
0.05
-0.04
-0.085
-0.11
-0.085
0.07
0.07
0.045
0.26
0.24
0.07
-0.01
0.02
-0.07
-0.07
0.105
0.2
0.105
0.1
0.05
0.19
0.175
-0.19
-0.07
0.05
0.235
0.26
0.19
0.185
0.195
0.055
0.165
0.05
0.02
0.055
0.17
0.26
0.36
0.275
0.22
0.08
0.055
0.035
0.065
0.145
0.34
0.33
0.43
0.325
0.315
0.255
0.14
-0.005
0.055
0.195
0.335
0.325
0.32
0.24
0.23
0.135
0.02
-0.065
0.105
0.215
0.355
0.285
0.275
0.27
0.12
-0.09
0.025
-0.085
-0.035
0.08
0.09
0.05
0.145
0.125
0.02
-0.105
-0.045
-0.05
-0.06
-0.055
0.03
0.135
0.1
0.065
0.025
-0.055
-0.04
-0.075
-0.095
-0.015
0.105
0.035
0.08
0.015
-0.13
-0.315
-0.3
0.085
0.235
0.025
-0.105
-0.06
0.24
0.13
-0.04
-0.24
-0.185
-0.205
-0.145
-0.005
0.13
0.135
0.08
0.11
0.12
-0.095
-0.21
-0.16
-0.085
0.025
0.075
0.09
0.225
0.015
-0.195
-0.205
-0.16
-0.065
-0.04
0.065
0.135
0.08
0.145
0.21
-0.135
-0.275
-0.31
-0.2
-0.12
0.075
0.075
0.15
0.165
0.035
-0.2
-0.005
0.11
-0.09
-0.08
0.065
0.095
0.095
0.165
0.05
-0.1
-0.065
0.05
0.005
-0.055
0.005
0.06
0.025
0.08
0.005
-0.02
-0.09
-0.185
-0.17
-0.02
0.145
0.22
0.115
0.005
0.02
-0.115
-0.22
-0.205
-0.01
0.13
0.085
0.09
0.08
0.11
0.05
-0.055
-0.13
-0.08
-0.05
-0.06
0.015
0.135
0.225
0.2
0.055
-0.165
-0.155
-0.165
-0.05
-0.05
-0.035
0.02
0.055
0.1
0.07
-0.035
0.015
-0.12
-0.07
0.06
0.01
0.065
0.065
0.055
0.075
-0.045
-0.025
0.005
-0.125
-0.025
0.165
0.235
0.17
0.085
0.055
-0.005
-0.05
-0.11
-0.06
0.04
0.02
0.095
0.27
0.155
-0.035
-0.115
-0.125
-0.11
-0.06
0.0
0.07
0.14
0.38
0.22
0.065
-0.05
-0.045
-0.045
-0.025
0.065
0.055
-0.01
0.145
0.21
0.05
-0.17
-0.11
-0.18
-0.045
0.1
-0.025
-0.05
0.06
0.09
-0.055
-0.165
-0.18
-0.12
-0.09
-0.015
0.08
0.17
0.105
0.11
-0.19
-0.29
-0.215
-0.185
-0.035
-0.205
-0.02
0.02
0.05
-0.025
-0.065
-0.06
-0.07
-0.095
-0.06
-0.005
0.07
0.195
0.185
0.12
0.06
0.055
0.035
-0.08
-0.185
-0.22
-0.185
-0.365
-0.34
-0.375
-0.515
-0.73
-0.835
-0.685
-0.595
-0.61
-0.63
-0.33
-0.09
-0.32
-0.48
-0.475
-0.49
-0.375
-0.325
-0.21
0.0
-0.05
-0.1
-0.15
-0.11
-0.215
-0.3
-0.11
-0.14
-0.15
-0.02
0.025
-0.005
-0.025
-0.115
0.0
-0.16
-0.12
-0.1
0.03
0.19
0.215
0.14
0.115
-0.005
-0.15
-0.155
-0.185
-0.055
0.055
0.08
0.18
0.12
0.055
-0.005
0.045
-0.125
-0.085
0.13
0.14
0.125
0.16
0.11
0.08
-0.03
-0.025
-0.115
-0.075
0.06
0.105
-0.015
0.13
0.29
0.23
0.195
0.08
0.095
0.085
0.08
0.245
0.285
0.225
0.325
0.275
0.085
-0.005
-0.125
0.105
0.21
0.205
0.17
0.33
0.43
0.245
0.06
0.02
0.135
0.2
0.29
0.37
0.375
0.4
0.38
0.25
0.23
0.19
-0.02
0.01
0.16
0.3
0.255
0.245
0.445
0.335
0.32
0.295
0.215
0.225
0.285
0.33
0.2
0.19
0.065
-0.01
-0.045
0.005
0.04
0.02
0.065
0.185
0.225
0.16
0.135
0.125
-0.01
-0.055
-0.155
-0.035
0.11
0.185
0.24
0.225
0.075
-0.085
-0.19
-0.055
0.095
0.075
0.04
0.115
0.185
0.175
0.065
-0.015
0.0
0.09
0.07
-0.09
0.015
0.13
0.18
0.08
-0.025
-0.16
-0.105
-0.12
-0.11
-0.085
-0.04
0.025
0.185
0.09
0.05
-0.02
0.01
-0.035
0.07
0.12
0.145
0.18
0.19
0.135
0.1
-0.145
-0.055
0.085
0.01
0.075
0.07
0.11
0.11
0.225
0.07
-0.135
-0.16
-0.005
-0.09
-0.07
0.1
0.265
0.22
0.125
0.075
-0.095
-0.235
-0.245
-0.13
0.09
0.065
0.09
0.145
0.175
0.125
0.085
0.07
-0.06
-0.085
0.11
0.27
0.16
0.13
0.08
0.155
-0.055
0.065
0.015
0.055
0.06
0.09
0.07
0.24
0.09
0.055
-0.1
-0.025
-0.11
0.005
0.02
0.04
0.09
0.255
0.135
-0.095
-0.085
0.04
-0.085
-0.04
-0.08
0.055
0.13
0.125
0.185
0.1
0.01
0.005
-0.095
-0.005
0.075
0.08
0.215
0.065
0.05
0.195
0.105
0.09
-0.01
-0.09
-0.03
0.14
0.155
0.185
0.12
0.125
0.01
0.0
-0.125
-0.155
0.005
0.16
0.2
0.175
0.12
-0.025
-0.145
-0.085
-0.165
-0.07
0.09
0.3
0.26
0.04
0.1
0.11
-0.015
-0.075
-0.07
0.045
0.175
0.23
0.19
0.18
0.22
0.15
0.025
-0.055
-0.045
-0.135
0.105
0.185
0.17
0.14
0.035
-0.08
-0.065
0.035
0.13
0.16
0.125
0.12
0.255
0.295
0.08
-0.02
0.055
-0.05
-0.09
-0.06
0.185
0.11
0.12
0.065
0.1
0.1
-0.095
-0.18
-0.08
-0.095
0.11
0.22
0.24
0.065
0.025
-0.02
0.005
-0.235
-0.15
-0.085
0.115
0.24
0.24
0.165
0.095
-0.11
-0.075
-0.105
-0.055
0.14
0.255
0.26
0.19
0.14
0.165
0.265
0.075
0.06
0.1
-0.04
0.015
-0.08
-0.015
-0.175
-0.415
-0.54
-0.58
-0.585
-0.545
-0.49
-0.42
-0.235
-0.1
0.04
-0.025
-0.17
-0.245
-0.275
-0.225
-0.11
0.075
0.13
0.385
0.235
0.21
0.13
0.06
-0.11
-0.275
-0.055
0.08
0.29
0.405
0.31
0.09
0.065
0.035
-0.04
-0.015
0.115
0.19
0.215
0.145
0.285
0.195
0.19
0.1
-0.075
-0.07
0.065
0.24
0.21
0.13
0.22
0.305
0.335
0.175
-0.025
-0.085
-0.005
0.13
0.305
0.245
0.2
0.12
-0.02
0.11
0.07
0.13
0.365
0.225
0.16
0.27
0.265
0.09
0.145
0.115
0.135
0.145
0.25
0.355
0.4
0.325
0.26
0.195
0.245
0.22
0.15
0.185
0.295
0.39
0.485
0.535
0.345
0.22
0.23
0.15
0.06
0.2
0.335
0.485
0.48
0.435
0.455
0.415
0.255
0.155
0.2
0.27
0.34
0.36
0.375
0.405
0.25
0.195
0.195
0.235
0.18
0.2
0.3
0.39
0.395
0.4
0.345
0.185
0.22
0.27
0.055
0.065
0.185
0.23
0.16
0.23
0.195
-0.005
-0.015
-0.085
-0.08
0.01
0.24
0.285
0.285
0.275
0.095
-0.045
-0.06
-0.065
0.155
0.155
0.235
0.13
0.1
0.16
0.155
0.075
-0.03
-0.19
-0.1
0.03
0.155
0.1
0.26
0.385
0.15
-0.09
-0.005
-0.125
-0.085
0.075
0.055
0.165
0.22
0.12
-0.005
-0.02
0.055
0.045
0.0
0.06
0.115
0.12
0.285
0.16
0.06
-0.08
-0.065
0.03
0.165
0.195
0.295
0.265
0.24
0.115
0.05
0.035
0.05
-0.15
-0.07
0.04
0.24
0.37
0.28
0.165
0.18
0.105
-0.005
-0.115
-0.095
-0.085
0.305
0.31
0.29
0.16
0.125
-0.08
-0.145
-0.21
0.005
0.14
0.185
0.29
0.265
0.11
0.025
0.13
0.165
0.105
-0.005
0.03
0.195
0.215
0.265
0.155
0.125
0.075
0.03
0.005
0.025
0.12
0.195
0.25
0.185
0.15
0.085
0.0
-0.04
-0.065
0.045
0.15
0.235
0.185
0.145
0.13
0.055
-0.075
0.005
-0.095
0.015
0.275
0.195
0.24
0.255
0.23
-0.075
0.005
0.075
0.055
0.075
0.05
0.145
0.32
0.225
0.09
-0.005
-0.06
-0.195
0.025
0.12
0.27
0.2
0.18
0.115
0.15
0.03
-0.045
-0.085
0.115
0.225
0.31
0.24
0.135
0.03
0.045
0.0
0.045
-0.17
-0.16
0.0
0.155
0.26
0.265
0.135
0.075
0.025
-0.02
-0.035
0.115
0.2
0.26
0.235
0.25
0.19
0.085
0.03
0.04
0.01
0.01
0.125
0.34
0.32
0.26
0.085
0.045
0.06
0.06
-0.075
-0.055
0.15
0.235
0.205
0.16
0.185
0.07
-0.035
-0.155
-0.08
0.0
0.085
0.165
0.08
0.1
0.09
0.015
0.0
0.02
0.005
-0.035
0.06
0.165
0.235
0.31
0.17
0.02
-0.115
-0.085
-0.065
-0.045
0.025
0.045
0.125
0.345
0.3
0.065
-0.085
0.005
-0.07
-0.005
0.125
0.375
0.36
0.24
0.28
0.125
-0.08
-0.27
-0.215
-0.17
-0.07
-0.15
-0.225
-0.395
-0.42
-0.33
-0.56
-0.59
-0.48
-0.52
-0.26
-0.17
-0.03
-0.055
-0.09
0.035
-0.015
-0.12
-0.08
0.0
0.085
0.05
0.14
0.19
0.18
0.005
0.02
-0.035
-0.045
0.04
0.17
0.175
0.145
0.19
0.15
0.13
0.185
-0.01
-0.01
0.065
0.26
0.255
0.04
0.065
0.175
0.25
0.05
0.075
0.12
0.035
0.155
0.14
0.26
0.195
0.12
0.285
0.25
0.03
0.01
0.01
0.115
0.245
0.245
0.22
0.14
0.085
0.06
0.175
0.145
0.2
0.275
0.17
0.185
0.375
0.17
0.21
0.065
-0.04
0.15
0.21
0.26
0.305
0.395
0.37
0.29
0.205
0.205
0.14
0.12
0.275
0.325
0.385
0.52
0.48
0.415
0.325
0.275
0.02
0.145
0.35
0.48
0.355
0.4
0.365
0.345
0.365
0.39
0.19
0.2
0.32
0.37
0.315
0.35
0.29
0.335
0.265
0.22
0.06
0.085
0.045
0.11
0.23
0.32
0.305
0.22
-0.01
0.17
0.045
0.115
0.32
0.32
0.16
0.15
0.005
-0.175
-0.135
-0.095
-0.025
-0.045
0.045
0.195
0.23
0.33
0.265
0.115
-0.15
-0.145
-0.04
-0.05
-0.005
0.03
0.12
0.21
0.245
0.145
-0.04
-0.01
-0.035
-0.065
0.09
0.355
0.35
0.15
0.13
0.135
0.065
-0.01
-0.05
-0.065
0.0
0.24
0.395
0.175
0.175
0.11
0.095
-0.155
-0.095
-0.16
0.0
0.225
0.2
0.2
0.085
0.045
-0.095
-0.005
-0.005
0.025
0.095
0.095
0.18
0.165
0.17
0.105
0.04
-0.03
0.075
0.225
0.28
0.295
0.295
0.2
0.13
0.13
-0.025
-0.05
0.12
0.305
0.175
0.195
0.17
0.11
0.02
0.08
-0.045
-0.075
-0.145
-0.08
0.15
0.265
0.215
0.115
0.15
0.06
0.125
0.0
-0.015
0.025
0.22
0.235
0.24
0.195
0.035
-0.045
0.045
-0.11
-0.03
0.105
0.21
0.235
0.345
0.295
0.205
-0.05
-0.07
-0.13
0.02
0.13
0.175
0.065
0.17
0.22
0.06
0.055
-0.025
-0.135
0.04
0.185
0.18
0.115
0.17
0.195
0.185
-0.01
0.01
-0.03
-0.09
0.135
0.23
0.21
0.13
0.135
0.075
0.045
0.095
0.075
0.11
0.185
0.11
0.18
0.095
0.05
0.135
0.085
-0.1
-0.285
0.015
0.15
0.27
0.34
0.265
0.21
0.105
0.0
-0.03
0.035
0.065
0.265
0.185
0.15
0.315
0.22
0.06
0.05
0.085
0.05
0.05
0.25
0.44
0.275
0.175
0.205
0.06
-0.035
-0.05
-0.015
0.065
0.06
0.175
0.255
0.21
0.22
0.08
-0.015
0.095
-0.03
-0.06
0.055
0.18
0.19
0.195
0.175
0.22
0.115
-0.055
0.02
0.15
0.18
0.33
0.235
0.18
0.005
-0.065
-0.155
-0.14
-0.095
0.14
0.19
0.19
0.28
0.15
0.225
0.19
0.12
0.035
0.035
0.165
0.37
0.49
0.455
0.135
-0.13
-0.28
-0.305
-0.345
-0.26
-0.295
-0.39
-0.35
-0.28
-0.255
-0.265
-0.295
-0.35
-0.37
-0.335
-0.165
-0.08
-0.08
0.16
0.28
0.045
-0.175
-0.13
-0.095
-0.02
0.01
0.06
0.12
0.265
0.195
0.195
0.235
0.115
0.015
0.05
0.145
0.265
0.315
0.315
0.265
0.035
0.005
0.025
0.01
0.03
0.085
0.355
0.35
0.39
0.38
0.17
-0.11
0.025
-0.01
-0.085
-0.02
0.085
0.24
0.19
0.06
-0.05
-0.12
-0.205
-0.35
-0.325
-0.265
-0.485
-0.4
-0.3
-0.19
-0.015
-0.1
-0.215
-0.135
-0.135
-0.07
0.09
0.1
0.23
0.025
-0.04
-0.135
-0.09
0.025
0.085
0.105
0.15
0.155
0.32
0.245
0.08
0.065
-0.02
0.075
0.19
0.22
0.265
0.325
0.24
0.295
0.225
0.115
0.145
0.27
0.295
0.33
0.36
0.265
0.285
0.365
0.325
0.28
0.225
0.235
0.34
0.34
0.39
0.4
0.345
0.335
0.205
0.12
-0.085
-0.13
-0.045
0.05
0.14
0.155
0.21
0.245
0.205
0.085
-0.01
0.03
-0.015
0.09
0.06
0.035
0.18
0.17
0.16
0.085
-0.085
-0.04
0.175
0.195
0.175
0.155
0.16
0.09
-0.01
0.09
-0.095
0.045
0.05
0.055
0.115
0.075
0.095
0.07
-0.07
-0.06
-0.08
-0.095
-0.035
-0.02
-0.095
0.01
0.135
0.22
0.18
0.025
-0.14
-0.12
-0.13
0.075
0.15
0.32
0.225
0.115
0.005
0.005
0.065
0.0
-0.06
-0.055
0.155
0.21
0.125
0.085
0.105
0.07
-0.09
-0.125
0.03
0.095
0.2
0.085
0.085
0.01
0.005
0.11
-0.07
-0.075
0.015
0.115
0.085
0.08
0.19
0.24
0.08
0.005
-0.065
-0.195
-0.025
0.325
0.415
0.215
0.145
0.105
-0.095
-0.085
-0.065
0.075
0.095
0.085
0.145
0.23
0.15
0.16
0.125
0.085
-0.075
0.015
-0.045
-0.015
0.075
0.075
0.1
0.05
0.0
-0.015
0.015
0.155
0.135
0.22
0.25
0.19
0.095
0.02
-0.12
-0.035
0.05
0.065
0.085
0.16
0.28
0.165
0.105
0.13
0.03
0.0
-0.005
0.0
0.075
0.12
0.21
0.18
0.265
0.28
0.125
-0.13
-0.135
0.0
0.2
0.18
0.145
0.05
0.205
0.225
0.02
-0.12
0.055
0.0
0.055
0.085
0.215
0.205
0.16
0.065
0.05
0.005
-0.1
0.03
0.07
0.09
0.18
0.135
0.16
0.05
-0.065
-0.055
0.005
0.015
0.11
0.115
0.155
0.105
0.17
0.29
-0.015
-0.15
-0.03
-0.06
-0.005
0.185
0.305
0.22
0.025
0.01
-0.01
-0.04
0.175
0.01
0.215
0.23
0.15
0.17
0.21
0.13
0.185
0.05
0.005
0.035
0.015
-0.06
0.045
-0.16
-0.19
-0.365
-0.38
-0.355
-0.375
-0.43
-0.315
-0.245
-0.175
-0.205
-0.12
-0.19
-0.405
-0.295
-0.155
-0.165
-0.065
0.24
0.31
0.215
0.055
-0.035
-0.075
-0.18
-0.14
0.03
0.31
0.195
0.19
0.265
0.18
-0.06
-0.03
0.05
0.085
0.065
0.21
0.22
0.245
0.18
0.125
0.1
0.06
0.07
0.18
0.165
0.13
0.165
0.225
0.18
0.01
0.05
0.105
0.07
0.105
0.17
0.21
0.28
0.23
0.335
0.2
-0.085
-0.07
0.04
0.185
0.18
0.145
0.39
0.37
0.26
0.155
0.095
0.1
0.08
0.17
0.25
0.17
0.325
0.39
0.27
0.275
0.36
0.14
0.115
0.23
0.4
0.395
0.16
0.29
0.425
0.315
0.145
0.02
0.17
0.275
0.29
0.315
0.415
0.505
0.58
0.53
0.28
0.18
0.1
0.185
0.43
0.415
0.305
0.35
0.355
0.335
0.28
0.055
0.215
0.235
0.3
0.39
0.525
0.45
0.345
0.22
0.11
-0.005
0.2
0.065
0.045
-0.01
0.2
0.3
0.235
0.115
0.06
-0.04
0.015
0.11
0.195
0.175
0.22
0.21
-0.04
-0.065
0.015
-0.07
0.01
0.095
0.17
0.145
0.19
0.165
0.14
0.1
0.095
-0.095
-0.045
0.14
0.185
0.055
0.155
0.13
0.105
-0.12
-0.17
-0.16
-0.125
0.085
0.155
0.23
0.205
0.21
0.16
0.17
0.05
-0.06
-0.18
-0.105
0.06
0.105
0.265
0.205
0.05
0.005
-0.075
-0.185
-0.08
0.01
0.095
0.1
0.345
0.28
0.17
0.025
-0.06
-0.065
0.0
0.03
-0.005
0.115
0.29
0.25
0.07
0.0
-0.095
0.0
-0.02
0.09
0.15
0.205
0.19
0.085
0.12
0.135
0.08
-0.115
0.045
0.095
0.18
0.275
0.235
0.225
0.065
-0.165
-0.045
-0.05
0.06
-0.045
0.065
0.145
0.32
0.295
0.07
-0.035
-0.16
-0.035
0.095
0.16
0.18
0.16
0.115
0.15
0.15
-0.085
-0.12
-0.03
0.155
0.225
0.18
0.16
0.15
0.2
0.145
0.045
-0.005
0.045
0.04
0.05
0.24
0.26
0.31
0.225
0.085
-0.045
-0.015
0.105
0.06
0.065
0.12
0.035
0.26
0.16
0.145
0.125
-0.02
-0.135
0.035
0.175
0.295
0.39
0.22
0.08
0.105
-0.045
-0.025
0.005
0.12
0.15
0.135
0.28
0.26
0.17
0.19
0.015
-0.01
0.055
0.1
0.14
0.06
0.235
0.225
0.1
-0.105
-0.04
-0.09
-0.065
-0.02
0.07
0.06
0.11
0.205
0.035
-0.07
-0.045
-0.01
0.06
0.035
0.13
0.19
0.21
0.15
0.14
-0.03
-0.055
0.045
0.105
0.135
0.22
0.265
0.29
0.24
0.275
0.12
0.095
0.01
-0.135
-0.255
-0.2
-0.135
-0.055
-0.095
-0.245
-0.475
-0.47
-0.55
-0.475
-0.235
-0.105
-0.115
-0.15
0.015
-0.105
-0.085
-0.16
-0.115
0.015
0.125
0.085
0.12
0.17
0.155
0.145
0.09
0.04
-0.06
-0.06
0.095
0.215
0.225
0.215
0.22
0.115
0.04
-0.065
0.075
0.24
0.38
0.345
0.38
0.4
0.24
0.015
-0.035
0.035
-0.03
-0.055
0.095
0.23
0.29
0.33
0.24
0.12
0.065
0.03
0.0
0.065
0.12
0.215
0.35
0.32
0.26
0.135
0.03
0.045
0.11
0.185
0.245
0.27
0.36
0.38
0.305
0.32
0.225
0.215
0.08
-0.045
0.03
0.21
0.435
0.46
0.225
0.165
0.18
0.12
0.24
0.32
0.46
0.385
0.355
0.35
0.275
0.265
0.31
0.15
0.155
0.29
0.42
0.37
0.425
0.435
0.405
0.3
0.265
0.22
0.285
0.3
0.32
0.475
0.62
0.34
0.22
0.08
0.005
0.02
0.25
0.425
0.455
0.245
0.28
0.305
0.22
0.21
0.13
-0.01
0.0
0.175
0.16
0.07
0.28
0.23
0.2
0.01
0.025
0.005
0.015
0.095
0.325
0.265
0.175
0.06
0.185
-0.015
0.025
0.06
0.21
0.08
0.075
0.08
0.315
0.275
0.06
-0.065
-0.05
-0.045
0.06
0.03
0.05
0.165
0.245
0.25
0.08
-0.02
-0.1
0.05
0.02
-0.015
0.13
0.215
0.175
0.085
-0.045
-0.01
0.01
-0.1
0.025
0.105
0.155
0.28
0.26
0.015
-0.105
-0.05
0.085
0.035
0.07
0.07
0.14
0.235
0.245
0.26
0.055
-0.005
-0.075
-0.115
0.02
0.13
0.11
0.145
0.1
0.095
0.045
-0.025
-0.055
-0.045
-0.04
0.07
0.165
0.115
0.25
0.26
0.125
0.06
-0.07
-0.04
-0.015
0.09
0.15
0.295
0.275
0.155
-0.045
-0.04
0.06
-0.01
0.14
0.15
0.175
0.295
0.22
0.11
-0.1
-0.075
0.06
0.085
0.075
0.15
0.215
0.245
0.19
0.105
0.07
0.1
-0.025
-0.07
0.09
0.245
0.15
0.19
0.16
0.125
-0.035
0.035
-0.095
-0.125
0.035
0.15
0.225
0.13
0.165
-0.01
-0.065
0.12
-0.05
0.05
0.2
0.25
0.17
0.03
-0.075
0.07
-0.015
-0.075
-0.06
0.155
0.22
0.115
0.1
0.195
0.085
0.135
0.11
0.16
0.13
0.08
0.18
0.175
0.185
0.345
0.275
0.11
-0.035
0.03
0.16
-0.075
-0.035
0.12
0.255
0.27
0.115
-0.02
-0.04
-0.11
-0.065
-0.03
-0.03
0.15
0.09
0.155
0.15
0.09
0.015
-0.065
-0.02
0.05
-0.015
0.14
0.295
0.195
0.08
-0.005
-0.08
-0.045
-0.03
-0.03
0.165
0.29
0.295
0.29
0.17
0.105
0.04
-0.13
-0.26
-0.13
0.11
0.205
0.335
0.355
0.19
0.22
0.11
0.035
-0.035
-0.05
-0.115
-0.195
-0.145
-0.18
-0.275
-0.38
-0.445
-0.415
-0.49
-0.375
-0.325
-0.225
-0.185
-0.095
-0.13
-0.065
-0.1
-0.14
-0.05
0.04
0.22
0.235
0.315
0.13
0.02
0.055
0.03
-0.095
0.06
0.02
0.055
0.13
0.16
0.05
0.01
0.065
0.04
0.025
0.015
-0.13
0.205
0.35
0.275
0.165
0.17
0.17
0.115
-0.02
-0.005
0.1
0.18
0.175
0.17
0.22
0.285
0.29
0.19
-0.08
-0.01
0.13
0.25
0.29
0.31
0.23
0.17
0.115
0.04
-0.07
0.065
0.035
0.175
0.185
0.425
0.315
0.345
0.235
0.145
-0.095
-0.07
0.03
0.195
0.295
0.275
0.375
0.245
0.155
0.1
0.12
0.18
0.135
0.24
0.44
0.46
0.34
0.225
0.35
0.39
0.2
0.17
0.19
0.345
0.44
0.43
0.33
0.255
0.095
-0.015
-0.03
0.27
0.49
0.45
0.525
0.525
0.27
0.285
0.135
0.06
-0.05
0.355
0.135
0.155
0.265
0.23
0.275
0.195
0.155
0.08
0.015
-0.025
0.1
0.235
0.35
0.315
0.125
-0.015
0.04
0.07
0.095
0.0
0.015
0.1
0.095
0.18
0.025
-0.05
-0.145
-0.04
-0.005
-0.025
0.065
0.145
0.1
0.145
0.175
0.04
-0.125
-0.11
-0.01
-0.055
0.025
0.155
0.125
0.135
0.18
0.17
0.07
0.025
0.01
0.0
-0.02
0.04
0.14
0.175
0.07
-0.175
-0.14
-0.09
-0.025
-0.075
0.005
0.07
0.21
0.22
0.08
0.05
0.125
0.05
-0.12
-0.115
0.065
0.02
0.115
0.155
0.175
0.055
-0.03
-0.17
-0.04
0.145
0.21
0.115
0.13
0.13
0.155
0.145
-0.04
-0.095
-0.07
-0.03
0.08
0.135
0.23
0.185
0.165
-0.055
-0.16
-0.12
-0.115
-0.045
0.02
0.17
0.265
0.03
0.055
0.085
0.12
-0.08
-0.085
-0.02
0.145
0.15
0.2
0.265
-0.02
-0.095
-0.01
-0.09
-0.075
-0.005
0.105
0.125
0.185
0.23
0.155
-0.025
-0.07
-0.115
0.04
-0.01
0.07
0.075
0.19
0.145
0.15
0.02
-0.175
-0.06
-0.03
0.08
0.18
0.085
0.265
0.055
-0.13
-0.135
-0.09
-0.08
-0.03
-0.03
0.105
0.17
0.19
0.165
0.005
-0.08
-0.07
0.055
0.05
0.03
0.065
0.095
0.26
0.08
0.095
0.1
0.095
-0.055
-0.195
0.105
0.195
0.33
0.245
0.22
0.21
0.09
0.065
-0.075
-0.035
-0.045
0.09
0.145
0.145
0.065
-0.015
-0.04
-0.07
-0.165
-0.055
0.02
0.115
0.145
0.155
0.07
-0.16
-0.11
-0.14
-0.075
0.01
0.17
0.045
0.195
0.15
0.06
0.06
0.04
0.05
0.015
-0.09
0.0
0.035
0.16
0.27
0.12
-0.095
-0.135
0.005
-0.03
0.04
0.185
0.215
0.42
0.3
0.135
0.0
0.105
0.0
-0.135
-0.115
0.0
0.0
-0.04
-0.055
-0.385
-0.335
-0.385
-0.63
-0.69
-0.645
-0.425
-0.17
-0.19
-0.095
-0.225
-0.295
-0.145
-0.115
-0.045
-0.09
0.005
0.01
0.245
0.205
0.11
0.055
-0.145
-0.065
-0.105
0.01
0.12
0.095
0.185
0.215
0.17
0.105
-0.03
-0.12
-0.02
0.13
0.17
0.19
0.215
0.295
0.105
-0.13
-0.14
-0.155
-0.05
0.15
0.175
0.28
0.245
0.235
0.205
0.035
-0.1
-0.025
0.13
0.13
0.19
0.21
0.2
0.28
0.175
0.1
0.095
0.065
0.135
0.205
0.225
0.245
0.285
0.21
0.115
0.05
0.02
-0.005
0.045
0.09
0.19
0.26
0.25
0.305
0.245
0.145
0.135
0.09
0.06
0.105
0.34
0.415
0.485
0.45
0.275
0.205
0.165
-0.115
0.0
0.3
0.52
0.515
0.42
0.3
0.235
0.26
0.14
0.165
0.275
0.32
0.48
0.445
0.325
0.215
0.235
0.215
0.155
0.08
0.08
0.22
0.33
0.365
0.28
0.16
0.105
0.07
-0.015
0.05
-0.02
-0.075
0.115
0.26
0.22
0.1
0.165
0.32
0.14
0.025
-0.01
0.065
-0.01
0.07
0.23
0.15
0.065
-0.065
-0.06
0.075
0.09
0.14
0.045
0.075
0.17
0.01
-0.075
-0.095
-0.11
-0.17
-0.04
0.125
0.25
0.24
0.01
-0.035
-0.135
-0.125
-0.015
-0.065
0.015
0.04
0.145
0.315
0.245
0.175
-0.015
-0.22
-0.11
0.09
0.015
0.05
0.095
0.125
0.15
-0.01
-0.04
-0.115
-0.025
0.205
0.06
0.095
0.13
0.15
0.11
0.02
-0.1
-0.045
-0.12
-0.075
-0.01
0.135
0.085
0.195
0.17
0.07
0.005
-0.12
-0.18
-0.085
0.11
0.2
0.205
0.245
0.25
-0.08
-0.125
0.06
0.0
-0.06
-0.045
0.035
0.03
0.24
0.195
0.07
0.02
0.03
-0.105
0.03
0.01
0.045
0.13
0.105
0.155
0.095
0.06
-0.045
-0.095
0.09
0.055
0.18
0.245
0.255
0.045
-0.12
-0.21
-0.12
-0.025
0.02
0.045
0.13
0.07
0.11
0.175
0.055
-0.03
-0.01
-0.045
0.09
0.195
0.09
-0.015
0.07
0.195
0.06
-0.095
0.01
-0.1
-0.065
0.045
0.1
0.195
0.135
0.1
0.005
-0.065
-0.055
-0.045
0.03
0.05
0.145
0.175
0.125
0.155
0.13
-0.04
-0.245
-0.07
0.08
0.17
0.13
0.135
0.075
0.085
-0.055
-0.055
0.035
0.11
-0.005
0.13
0.195
0.25
0.205
0.13
0.005
-0.095
-0.065
0.065
0.13
0.09
0.075
0.235
0.2
0.21
0.08
-0.05
-0.215
-0.08
0.0
0.09
0.19
0.265
0.14
0.04
-0.105
-0.09
-0.085
-0.15
-0.01
0.295
0.215
0.13
0.125
-0.075
-0.025
-0.02
-0.085
-0.025
0.025
0.13
0.01
0.07
0.085
-0.015
-0.025
-0.03
-0.18
0.025
0.16
0.205
0.235
0.245
0.245
0.215
0.07
0.085
-0.03
0.16
0.18
0.16
0.065
0.0
-0.145
-0.345
-0.315
-0.37
-0.49
-0.615
-0.48
-0.165
-0.295
-0.455
-0.4
-0.37
-0.32
-0.26
-0.25
-0.215
-0.05
0.025
0.055
0.12
0.235
0.045
-0.085
-0.08
-0.075
-0.05
0.075
0.05
0.205
0.325
0.065
0.0
-0.025
-0.02
-0.055
-0.03
0.14
0.255
0.235
0.14
0.1
-0.02
-0.08
-0.035
0.1
0.035
0.015
0.21
0.27
0.265
0.12
0.09
0.025
-0.08
-0.025
0.11
0.135
0.18
0.205
0.115
0.165
0.065
0.005
0.015
-0.065
0.09
0.265
0.205
0.16
0.175
0.2
0.04
0.055
0.005
0.115
0.215
0.305
0.285
0.26
0.24
0.09
0.055
0.25
0.12
0.02
0.09
0.28
0.325
0.405
0.425
0.36
0.195
0.18
0.11
0.17
0.16
0.36
0.425
0.38
0.225
0.215
0.215
0.205
0.14
0.15
0.21
0.395
0.36
0.435
0.41
0.36
0.15
0.04
0.175
0.235
0.175
0.165
0.33
0.345
0.265
0.25
0.06
0.005
0.08
0.22
0.15
0.225
0.245
0.24
0.195
0.16
0.01
-0.025
-0.07
-0.04
-0.03
0.165
0.165
0.29
0.14
0.135
0.095
0.0
-0.09
-0.025
-0.03
0.14
0.09
0.08
0.08
-0.05
-0.12
-0.13
-0.125
-0.1
0.04
0.265
0.35
0.22
0.075
0.03
0.12
0.065
-0.185
-0.015
0.115
0.155
0.09
0.1
0.09
0.03
-0.09
-0.05
-0.08
0.05
0.085
0.14
0.24
0.085
0.045
-0.085
-0.055
-0.075
-0.07
-0.07
0.065
0.175
0.14
0.06
0.01
0.055
0.11
0.03
-0.135
-0.075
0.125
0.145
0.14
0.14
0.115
0.08
-0.04
-0.105
-0.04
-0.015
0.105
0.235
0.285
0.315
0.215
0.15
-0.005
-0.2
-0.13
-0.005
0.155
0.075
0.215
0.215
0.07
-0.015
-0.025
-0.115
-0.155
-0.07
0.015
0.155
0.23
0.17
0.125
-0.035
0.01
-0.09
-0.055
0.025
0.16
0.045
0.07
0.135
0.095
0.06
0.02
-0.065
-0.065
-0.005
0.105
0.19
0.225
0.17
0.06
-0.005
-0.035
-0.125
-0.06
-0.07
0.11
0.24
0.345
0.285
0.075
-0.005
-0.075
-0.02
-0.03
0.0
0.045
0.11
0.26
0.175
0.025
-0.125
-0.095
-0.05
-0.09
0.08
0.135
0.04
0.155
0.185
0.06
-0.095
-0.04
-0.08
-0.085
-0.02
0.055
0.135
0.21
0.135
0.08
-0.065
-0.005
-0.005
-0.025
0.02
0.205
0.31
0.275
0.15
0.06
-0.065
-0.02
0.02
-0.055
0.1
0.255
0.15
0.21
0.205
0.195
0.265
0.08
-0.12
-0.055
0.12
0.075
0.09
0.105
0.045
-0.01
-0.06
-0.205
-0.115
-0.065
0.06
0.16
0.21
0.36
0.125
-0.08
-0.015
-0.075
-0.12
0.005
0.06
0.155
0.105
0.26
0.295
0.165
0.0
-0.095
-0.085
-0.055
-0.03
0.08
0.2
0.205
0.14
0.015
0.075
0.065
-0.08
-0.15
-0.01
0.04
0.095
0.2
0.23
0.165
0.035
-0.08
0.035
0.265
0.26
0.12
0.16
0.065
-0.13
-0.26
-0.4
-0.455
-0.485
-0.53
-0.5
-0.43
-0.405
-0.295
-0.335
-0.23
-0.11
-0.245
-0.21
-0.125
-0.015
0.075
0.13
0.225
0.115
-0.005
-0.065
-0.215
-0.195
0.02
0.1
0.16
0.26
0.17
0.095
0.01
0.03
-0.03
0.005
0.09
0.075
0.135
0.25
0.375
0.205
0.085
0.07
0.0
-0.05
0.135
0.2
0.15
0.24
0.215
0.225
0.12
-0.04
-0.11
-0.035
0.095
0.28
0.3
0.25
0.2
0.21
0.165
0.095
-0.105
0.06
0.31
0.17
0.115
0.38
0.35
0.2
-0.035
0.035
-0.04
0.065
0.11
0.25
0.39
0.26
0.46
0.3
0.05
-0.015
-0.075
0.095
0.195
0.29
0.26
0.275
0.14
0.08
0.155
0.1
0.085
0.12
0.155
0.245
0.27
0.36
0.32
0.215
0.195
0.16
0.115
0.005
0.185
0.355
0.5
0.555
0.595
0.32
0.095
0.14
0.03
0.12
0.16
0.29
0.29
0.295
0.265
0.26
0.11
0.005
0.105
0.12
0.155
0.145
0.18
0.18
0.155
0.1
0.025
-0.2
-0.125
-0.06
0.11
0.185
0.25
0.22
0.06
0.1
0.095
-0.065
-0.17
-0.035
0.19
0.34
0.265
0.195
-0.005
-0.115
-0.12
-0.11
-0.015
-0.075
0.035
0.05
0.17
0.23
0.13
0.015
-0.07
-0.12
-0.1
0.05
0.175
0.145
0.07
0.11
0.005
-0.045
-0.005
-0.01
0.005
-0.07
0.04
0.155
0.295
0.13
0.025
0.055
-0.08
-0.06
0.005
0.025
0.095
0.16
0.155
0.05
0.09
-0.045
-0.005
0.095
0.125
0.08
0.08
-0.005
0.055
0.115
0.085
-0.005
-0.025
0.04
0.09
0.18
0.16
0.155
0.175
0.11
0.06
0.015
0.065
-0.065
-0.09
0.115
0.235
0.195
0.16
0.165
0.04
-0.115
0.03
0.06
0.055
0.085
0.095
0.105
0.09
0.0
0.035
0.205
0.06
-0.185
-0.14
0.125
0.26
0.15
0.17
0.045
-0.205
-0.025
0.045
-0.16
-0.08
0.155
0.265
0.245
0.175
0.13
0.14
-0.035
-0.01
0.065
-0.035
-0.015
0.155
0.16
0.12
0.11
0.07
-0.015
0.015
-0.02
0.035
0.07
0.165
0.09
0.215
0.24
0.18
-0.065
-0.18
-0.03
-0.01
-0.125
-0.04
0.235
0.295
0.21
0.06
-0.095
-0.12
-0.02
0.06
0.18
0.175
0.21
0.1
0.12
0.125
-0.015
-0.125
-0.095
0.035
0.165
0.175
0.12
0.085
0.12
0.165
0.055
-0.07
-0.06
0.105
0.19
0.095
0.205
0.31
0.21
0.015
0.045
-0.04
0.1
0.12
0.185
0.27
0.225
0.06
0.03
-0.025
0.06
-0.06
-0.05
-0.045
0.03
0.06
0.125
0.285
0.165
-0.105
0.04
-0.015
0.06
0.075
0.12
0.215
0.255
0.195
0.115
0.07
-0.01
-0.05
-0.04
0.08
0.135
0.22
0.305
0.25
-0.03
-0.065
0.01
-0.275
-0.115
0.105
0.165
0.205
0.23
0.295
0.14
0.095
0.03
0.015
0.0
0.23
0.335
0.09
-0.015
-0.165
-0.205
-0.315
-0.29
-0.455
-0.365
-0.385
-0.405
-0.32
-0.3
-0.29
-0.355
-0.29
-0.32
-0.25
-0.085
-0.085
0.045
0.05
0.105
0.115
-0.055
0.04
0.03
0.035
0.105
0.045
0.09
0.07
0.23
0.185
0.15
0.09
0.03
0.02
0.035
0.14
0.06
0.12
0.22
0.17
0.08
0.055
-0.02
0.05
0.14
0.21
0.26
0.3
0.32
0.165
-0.01
-0.005
0.09
0.045
0.02
0.22
0.225
0.19
0.18
0.265
0.105
-0.03
-0.07
0.04
0.23
0.24
0.195
0.315
0.36
0.225
0.235
0.075
-0.01
0.095
0.19
0.29
0.24
0.31
0.28
0.34
0.27
0.13
0.065
0.195
0.21
0.36
0.355
0.45
0.345
0.3
0.29
0.185
0.15
0.25
0.175
0.22
0.24
0.49
0.57
0.365
0.285
0.19
0.205
0.25
0.35
0.48
0.34
0.375
0.41
0.35
0.14
0.135
0.135
0.31
0.3
0.305
0.295
0.435
0.405
0.335
0.185
0.15
0.07
0.01
0.005
0.14
0.27
0.39
0.21
0.05
0.085
0.045
0.06
0.125
0.17
0.065
0.115
0.17
0.18
0.175
0.065
-0.04
-0.055
0.025
0.145
0.055
0.06
0.125
0.295
0.065
0.015
-0.065
-0.08
-0.035
-0.03
0.075
0.08
0.08
0.095
0.025
-0.065
0.0
0.105
0.165
0.105
0.16
0.11
0.185
0.235
0.09
0.045
-0.045
-0.115
-0.17
-0.16
-0.05
0.205
0.245
0.18
0.135
0.01
0.035
-0.085
0.0
0.135
0.08
0.085
0.13
0.06
0.045
0.095
0.12
0.025
0.0
0.07
0.225
0.165
0.135
0.16
0.04
-0.015
-0.065
-0.04
0.035
0.14
0.175
0.145
0.185
0.19
0.1
-0.03
-0.09
-0.05
-0.005
0.22
0.27
0.175
0.115
0.085
0.06
0.06
0.01
-0.125
-0.175
0.115
0.15
0.32
0.275
0.13
-0.125
0.015
-0.005
0.03
0.035
0.185
0.105
0.09
0.095
0.06
-0.015
0.005
-0.03
0.03
0.06
0.11
0.16
0.21
0.14
0.185
0.085
0.005
0.01
-0.07
0.185
0.14
0.15
0.2
0.15
0.125
-0.115
-0.015
-0.08
-0.055
-0.005
0.13
0.205
0.265
0.225
0.025
-0.005
-0.055
-0.09
0.005
0.025
0.16
0.17
0.3
0.225
0.14
0.005
-0.015
0.0
0.065
-0.005
0.035
0.155
0.155
0.08
0.07
0.205
0.055
-0.13
-0.04
0.055
0.115
0.115
0.245
0.22
0.115
0.1
0.02
-0.12
-0.115
0.0
0.185
0.265
0.4
0.275
0.16
0.085
0.02
-0.035
0.0
-0.04
0.12
0.285
0.335
0.245
0.16
0.125
0.145
0.0
0.005
-0.02
0.13
0.145
0.185
0.075
0.08
-0.01
-0.1
-0.02
0.06
-0.02
0.265
0.285
0.06
-0.02
0.075
0.055
-0.12
-0.16
-0.04
0.175
0.235
0.255
0.2
0.105
-0.045
-0.025
-0.03
-0.045
0.035
0.225
0.36
0.335
0.275
0.155
0.1
-0.035
0.01
0.09
0.175
0.28
0.285
0.225
0.13
0.005
-0.25
-0.325
-0.385
-0.565
-0.585
-0.56
-0.42
-0.165
-0.235
-0.295
-0.305
-0.285
-0.3
-0.235
-0.155
0.015
0.125
0.185
0.08
0.06
-0.035
-0.075
-0.145
0.0
0.1
0.145
0.175
0.11
0.175
0.34
0.175
0.095
0.03
-0.025
0.01
0.105
0.29
0.39
0.29
0.215
0.135
0.02
-0.115
-0.02
0.085
0.205
0.255
0.205
0.085
0.09
0.165
0.19
-0.065
0.09
0.15
0.215
0.25
0.285
0.22
0.15
0.065
0.025
0.01
0.015
0.16
0.22
0.305
0.335
0.32
0.275
0.27
0.26
0.19
0.07
0.115
0.295
0.335
0.305
0.265
0.155
0.065
0.06
0.165
0.095
0.24
0.335
0.305
0.39
0.3
0.18
0.18
0.14
0.21
0.205
0.31
0.33
0.375
0.38
0.495
0.42
0.235
0.165
0.34
0.295
0.28
0.335
0.505
0.49
0.37
0.295
0.12
0.185
0.185
0.125
0.15
0.315
0.31
0.44
0.42
0.2
0.045
-0.075
0.065
0.16
0.305
0.325
0.22
0.295
0.205
0.215
0.045
0.03
-0.06
-0.045
0.12
0.22
0.295
0.19
0.085
0.055
0.035
0.0
0.065
0.0
0.1
0.17
0.22
0.15
0.015
0.085
-0.025
-0.04
-0.01
-0.085
0.04
0.05
0.065
0.105
0.05
0.03
0.085
-0.06
-0.07
0.06
0.125
0.15
0.33
0.36
0.12
-0.06
0.045
-0.03
0.02
0.05
0.14
0.075
0.12
0.05
0.2
0.08
-0.025
-0.065
0.015
0.185
0.275
0.195
0.235
0.02
-0.1
-0.06
-0.095
-0.115
-0.01
0.01
0.145
0.11
0.155
0.2
0.095
-0.01
-0.065
-0.095
0.02
0.225
0.21
0.22
0.255
0.145
0.135
0.055
0.045
0.03
-0.05
-0.05
0.17
0.28
0.345
0.29
0.08
0.035
-0.02
0.005
0.045
0.2
0.145
0.11
0.12
0.135
0.225
0.035
-0.02
0.01
0.03
0.095
0.135
0.135
0.16
0.115
0.11
-0.055
-0.145
0.0
0.065
-0.005
0.11
0.075
0.28
0.21
0.18
0.04
0.025
-0.045
0.12
0.095
0.145
0.165
0.22
0.18
0.135
0.0
-0.135
-0.04
-0.055
0.2
0.225
0.345
0.17
0.145
-0.005
-0.045
-0.06
0.01
0.02
0.025
0.08
0.14
0.14
0.33
0.17
-0.01
-0.155
-0.04
-0.015
0.055
0.05
0.045
0.12
0.2
0.07
0.04
0.165
0.13
0.015
0.005
0.225
0.275
0.255
-0.06
-0.095
-0.05
0.05
-0.065
0.02
0.08
0.205
0.265
0.205
0.25
0.025
-0.025
-0.085
-0.045
0.03
0.19
0.345
0.31
0.335
0.105
0.045
-0.03
0.005
0.04
0.05
0.145
0.1
0.21
0.265
0.18
-0.035
0.025
0.015
0.135
0.085
0.05
0.14
0.215
0.21
0.06
-0.085
-0.165
-0.165
0.06
0.1
0.16
0.11
0.205
0.25
0.035
-0.075
0.03
-0.01
-0.11
0.025
0.185
0.145
0.275
0.25
0.15
0.115
0.085
0.055
0.135
0.165
0.305
0.325
0.3
0.185
-0.08
-0.155
-0.295
-0.475
-0.375
-0.345
-0.475
-0.415
-0.4
-0.415
-0.27
-0.385
-0.335
-0.225
-0.135
-0.04
-0.04
-0.115
0.025
0.08
0.055
0.075
-0.03
-0.145
-0.145
0.025
0.115
0.28
0.32
0.185
0.135
0.085
0.01
-0.075
-0.05
0.03
0.13
0.285
0.25
0.22
0.085
0.095
0.135
0.1
-0.015
0.075
0.34
0.38
0.275
0.285
0.13
0.07
-0.035
-0.03
-0.085
0.05
0.15
0.31
0.35
0.31
0.185
0.06
0.03
0.055
0.135
0.245
0.265
0.235
0.315
0.255
0.125
0.195
0.11
-0.005
0.005
0.2
0.25
0.365
0.435
0.245
0.185
0.19
0.175
0.185
0.165
0.27
0.36
0.345
0.36
0.4
0.13
0.05
0.2
0.31
0.445
0.47
0.18
0.385
0.35
0.285
0.36
0.375
0.195
0.17
0.35
0.335
0.345
0.455
0.39
0.28
0.255
0.255
0.135
0.2
0.305
0.33
0.365
0.4
0.41
0.27
0.125
0.07
-0.045
0.215
0.14
0.235
0.3
0.19
0.175
0.255
0.175
0.2
0.05
-0.1
0.045
0.17
0.035
0.235
0.09
0.085
0.095
0.15
0.085
-0.035
0.045
0.185
0.24
0.275
0.175
0.105
-0.095
-0.21
-0.29
-0.125
0.13
0.135
0.13
0.305
0.255
0.15
-0.015
-0.06
-0.115
-0.055
0.11
0.17
0.3
0.245
0.145
0.015
-0.17
-0.1
-0.135
0.015
0.135
0.19
0.105
0.24
0.25
0.07
-0.01
-0.005
-0.025
-0.085
0.055
0.07
0.125
0.275
0.24
-0.015
-0.015
-0.005
0.005
0.14
0.11
0.09
0.1
0.06
0.09
0.045
0.09
0.005
-0.11
0.055
0.08
0.135
0.265
0.185
0.33
0.18
-0.005
-0.165
-0.055
0.035
0.125
0.16
0.2
0.23
0.185
0.105
-0.07
0.01
0.11
0.0
-0.03
0.125
0.285
0.205
0.065
0.14
-0.055
-0.075
-0.055
0.015
0.085
0.105
0.16
0.21
0.085
0.065
0.04
-0.07
-0.155
0.03
0.375
0.415
0.11
0.01
0.035
-0.1
0.005
-0.03
-0.01
0.005
0.075
0.205
0.24
0.245
0.255
-0.02
-0.015
-0.075
-0.135
-0.015
0.12
0.235
0.175
0.05
0.085
0.125
-0.005
-0.235
-0.04
-0.035
0.0
0.095
0.295
0.275
0.105
-0.145
-0.065
0.1
0.125
0.085
0.1
0.06
0.22
0.175
0.165
0.115
0.025
-0.04
-0.02
0.065
0.15
0.145
0.16
0.115
0.065
-0.165
-0.1
-0.04
0.085
0.04
0.22
0.22
0.195
0.215
0.22
0.125
0.035
-0.025
-0.055
0.08
0.085
0.07
0.205
0.1
0.14
0.115
-0.05
0.025
0.12
0.075
0.145
0.315
0.28
0.19
0.04
0.07
0.005
-0.26
-0.23
-0.105
0.025
0.095
0.155
0.135
0.025
-0.04
-0.01
-0.005
-0.045
-0.1
0.055
0.21
0.295
0.18
0.095
0.03
-0.045
-0.015
0.02
0.16
0.19
0.23
0.3
0.375
0.195
-0.07
0.035
0.13
0.17
0.29
0.13
0.005
-0.145
-0.195
-0.325
-0.385
-0.435
-0.445
-0.41
-0.49
-0.48
-0.38
-0.27
-0.405
-0.495
-0.3
-0.115
-0.13
-0.13
-0.06
0.04
0.165
0.08
0.05
0.04
-0.015
-0.08
-0.025
-0.005
0.14
0.225
0.255
0.245
0.175
0.07
-0.03
-0.04
0.185
0.24
0.35
0.28
0.245
0.14
0.04
-0.035
-0.13
-0.15
0.0
0.04
0.18
0.29
0.355
0.205
0.09
0.12
0.175
-0.015
0.05
0.03
0.135
0.255
0.37
0.265
0.295
0.155
0.02
-0.01
0.11
0.15
0.185
0.145
0.335
0.295
0.28
0.255
0.135
-0.005
0.13
0.305
0.315
0.415
0.41
0.125
0.125
0.055
0.08
0.085
0.22
0.24
0.29
0.245
0.345
0.31
0.215
0.3
0.435
0.215
0.115
0.295
0.37
0.43
0.43
0.465
0.32
0.225
0.19
0.13
0.245
0.4
0.405
0.51
0.5
0.39
0.35
0.27
0.195
0.135
0.24
0.345
0.44
0.345
0.365
0.305
0.135
0.08
0.07
0.02
-0.055
0.095
0.21
0.39
0.275
0.1
0.05
-0.025
-0.02
0.04
0.08
0.13
0.165
0.13
0.19
0.125
0.165
0.1
0.035
0.035
0.135
0.115
0.095
0.245
0.16
0.095
0.09
0.01
-0.145
-0.105
0.025
0.155
0.025
0.1
0.11
0.13
0.14
0.05
0.055
-0.025
-0.045
-0.04
0.105
0.185
0.185
0.14
0.0
-0.1
-0.095
-0.07
0.065
0.185
0.11
0.155
0.265
0.085
0.035
0.015
0.025
0.085
0.05
0.085
0.185
0.37
0.32
0.22
-0.2
-0.245
-0.145
-0.005
-0.05
0.0
0.13
0.17
0.18
0.06
0.07
0.065
-0.105
-0.01
0.155
0.24
0.015
0.07
0.12
0.11
0.005
0.13
0.09
-0.01
0.06
0.165
0.215
0.195
0.115
0.085
-0.065
0.02
0.02
0.015
0.08
0.18
0.3
0.315
0.21
-0.06
-0.13
-0.13
-0.19
-0.13
-0.04
0.175
0.315
0.28
0.18
0.1
-0.13
-0.065
-0.09
-0.08
0.1
0.15
0.155
0.155
0.16
0.155
0.1
0.055
-0.025
-0.055
0.02
0.16
0.27
0.275
0.105
0.015
-0.025
0.01
-0.01
0.05
0.215
0.28
0.135
0.07
0.145
-0.205
-0.21
-0.12
0.015
0.115
0.095
0.225
0.28
0.12
0.115
0.09
0.01
0.02
-0.065
0.075
0.165
0.155
0.135
0.22
0.24
0.095
0.105
0.09
-0.035
0.03
0.19
0.22
0.19
0.29
0.225
0.055
0.06
0.02
-0.085
-0.15
0.115
0.21
0.27
0.2
0.005
0.025
-0.015
-0.08
0.02
0.045
0.295
0.215
0.2
0.065
0.16
0.18
0.06
-0.115
-0.06
-0.01
-0.075
0.06
0.24
0.26
0.09
-0.055
-0.085
-0.045
0.03
0.175
0.265
0.18
0.245
0.085
0.06
-0.115
-0.025
0.14
0.215
0.085
0.0
0.155
0.375
0.28
0.29
0.365
0.28
0.0
-0.105
-0.245
-0.08
-0.055
-0.115
-0.245
-0.465
-0.585
-0.41
-0.54
-0.515
-0.51
-0.25
-0.28
-0.19
-0.17
-0.14
-0.145
-0.12
-0.125
-0.105
0.065
0.25
0.205
0.255
0.24
0.17
-0.035
-0.09
0.015
-0.005
0.155
0.255
0.135
0.275
0.415
0.31
0.09
-0.045
-0.08
-0.09
0.04
0.125
0.255
0.345
0.22
0.115
0.115
0.01
-0.07
0.0
0.135
0.165
0.29
0.285
0.16
0.07
0.095
0.075
0.115
0.095
0.215
0.19
0.235
0.315
0.365
0.28
0.09
0.09
0.1
0.175
0.195
0.34
0.425
0.415
0.41
0.29
0.1
-0.02
0.04
0.07
0.24
0.29
0.325
0.305
0.22
0.235
0.195
0.125
0.14
0.29
0.4
0.37
0.35
0.45
0.425
0.28
0.31
0.23
0.215
0.2
0.27
0.54
0.55
0.525
0.475
0.295
0.26
0.23
0.28
0.355
0.36
0.395
0.5
0.48
0.395
0.225
0.09
-0.005
0.2
0.34
0.375
0.185
0.27
0.455
0.415
0.235
-0.005
-0.11
0.1
0.135
0.12
0.22
0.295
0.29
0.24
-0.05
0.04
0.205
0.12
0.01
0.035
0.12
0.22
0.155
0.15
-0.015
0.055
-0.08
-0.025
-0.02
0.13
0.145
0.22
0.07
0.035
0.02
-0.02
-0.08
0.01
0.045
0.145
0.245
0.26
0.075
0.035
0.13
0.04
-0.005
-0.06
0.01
0.075
0.09
0.225
0.15
0.14
0.005
0.01
-0.03
0.015
0.095
0.235
0.05
0.09
0.1
-0.035
0.015
0.125
-0.12
-0.115
-0.035
0.11
0.04
0.21
0.245
0.195
0.16
-0.06
-0.145
0.035
0.17
0.225
0.175
0.205
0.19
0.08
0.005
-0.075
-0.11
-0.025
0.135
0.29
0.345
0.34
0.165
0.065
-0.05
-0.19
-0.07
0.065
0.14
0.1
0.095
0.07
0.125
0.13
0.075
-0.03
-0.075
0.005
0.06
0.2
0.17
0.12
0.225
0.19
-0.03
-0.175
-0.02
0.025
0.125
0.245
0.225
0.215
0.085
0.08
0.145
0.045
-0.1
-0.07
0.04
0.14
0.19
0.12
0.15
0.15
0.17
0.015
-0.095
-0.06
0.22
0.175
0.125
0.105
0.08
-0.025
-0.05
-0.09
0.015
0.14
0.21
0.21
0.21
0.165
0.15
0.145
0.11
-0.07
-0.045
-0.015
0.27
0.475
0.35
0.29
0.255
-0.01
-0.19
-0.065
0.13
0.08
-0.005
0.065
0.27
0.25
0.18
-0.005
-0.055
-0.13
-0.005
0.07
0.25
0.275
0.3
0.12
0.015
-0.12
-0.03
-0.045
-0.02
-0.055
0.045
0.015
0.245
0.165
0.155
0.045
-0.04
0.035
0.14
0.15
0.2
0.14
0.175
0.2
0.12
-0.12
-0.06
-0.11
0.035
0.31
0.205
0.225
0.295
0.265
0.255
0.22
0.13
-0.095
-0.08
0.025
-0.005
-0.09
-0.1
-0.265
-0.33
-0.515
-0.545
-0.55
-0.595
-0.435
-0.355
-0.205
-0.05
-0.03
-0.17
-0.125
-0.11
-0.15
-0.05
-0.01
0.155
0.165
0.205
0.0
-0.055
0.06
0.01
0.03
0.02
0.135
0.175
0.2
0.275
0.23
0.165
0.06
-0.045
-0.03
0.065
0.1
0.275
0.255
0.325
0.285
0.165
0.17
0.1
0.0
-0.035
0.035
0.21
0.305
0.265
0.23
0.095
-0.005
0.09
-0.015
-0.06
-0.02
0.345
0.33
0.26
0.355
0.265
0.095
0.08
0.25
0.185
0.165
0.245
0.36
0.305
0.215
0.185
0.065
0.04
0.065
0.12
0.33
0.42
0.425
0.42
0.335
0.32
0.16
0.085
0.11
0.24
0.37
0.365
0.355
0.44
0.415
0.215
0.16
0.165
0.235
0.32
0.53
0.44
0.475
0.425
0.45
0.29
0.15
0.115
0.295
0.305
0.28
0.435
0.585
0.545
0.43
0.175
0.385
0.295
0.065
0.035
0.285
0.36
0.4
0.34
0.31
0.24
0.145
-0.075
0.065
0.165
0.11
0.11
0.21
0.25
0.205
0.04
-0.03
0.015
0.08
0.145
0.105
0.075
0.105
0.085
0.14
-0.01
0.01
0.03
0.045
0.075
0.18
0.12
0.175
0.12
0.165
0.075
0.02
0.015
0.07
0.11
0.29
0.15
0.185
0.26
0.09
-0.13
0.04
0.005
-0.205
0.005
0.08
0.11
0.175
0.175
0.125
0.035
-0.115
-0.205
-0.08
0.12
0.255
0.275
0.28
0.19
0.16
0.12
-0.095
-0.125
-0.095
0.04
0.19
0.33
0.225
0.18
0.055
-0.01
0.02
0.045
0.105
0.195
0.175
0.225
0.285
0.235
0.06
-0.025
-0.075
-0.11
-0.03
0.135
0.2
0.31
0.22
0.155
0.02
-0.08
-0.155
-0.005
0.14
0.16
0.13
0.17
0.185
0.23
0.165
0.01
-0.045
0.065
0.145
0.19
0.2
0.215
0.155
0.13
0.035
0.035
-0.01
0.055
0.085
0.2
0.24
0.345
0.27
0.205
0.025
-0.095
-0.15
-0.025
0.05
0.17
0.215
0.305
0.22
0.1
0.1
0.1
0.03
-0.04
-0.06
0.15
0.23
0.255
0.285
0.185
0.025
0.07
-0.015
-0.09
-0.02
0.075
0.245
0.36
0.31
0.15
-0.045
0.01
0.03
0.125
0.25
0.285
0.24
0.23
0.3
0.165
-0.05
0.06
0.09
0.045
0.005
0.18
0.225
0.28
0.17
0.2
0.155
0.065
0.12
0.065
0.085
0.25
0.255
0.185
0.135
0.175
0.11
0.04
-0.045
0.005
-0.045
0.105
0.27
0.305
0.26
0.19
0.15
0.085
0.09
0.165
0.165
0.175
0.195
0.125
0.1
-0.06
0.015
0.11
0.045
0.055
0.245
0.355
0.3
0.325
0.295
0.18
0.16
-0.16
-0.215
-0.11
0.01
0.125
0.27
0.375
0.31
0.155
0.185
0.155
0.28
0.215
0.22
0.275
0.27
0.08
-0.07
-0.14
-0.3
-0.27
-0.29
-0.35
-0.405
-0.445
-0.285
-0.22
-0.165
-0.255
-0.295
-0.3
-0.235
-0.09
0.0
0.215
0.345
0.275
0.07
0.095
0.065
-0.14
-0.115
0.085
0.135
0.145
0.315
0.29
0.31
0.19
-0.02
-0.105
0.085
0.11
0.195
0.235
0.26
0.23
0.25
0.13
0.085
0.06
0.195
0.275
0.25
0.17
0.315
0.31
0.3
0.195
0.14
0.075
0.085
0.13
0.24
0.325
0.32
0.17
0.235
0.165
0.105
0.12
0.225
0.325
0.255
0.195
0.305
0.285
0.155
0.17
0.175
0.035
0.085
0.15
0.415
0.485
0.41
0.355
0.38
0.325
0.335
0.185
0.13
0.255
0.44
0.45
0.51
0.425
0.285
0.18
0.405
0.365
0.33
0.22
0.33
0.44
0.435
0.38
0.36
0.235
0.255
0.29
0.3
0.31
0.37
0.4
0.515
0.51
0.36
0.28
0.17
0.17
0.37
0.395
0.365
0.49
0.535
0.365
0.24
0.205
0.275
0.08
0.075
0.175
0.365
0.45
0.285
0.115
0.16
0.12
0.03
-0.04
0.02
0.22
0.295
0.295
0.29
0.215
0.115
0.11
0.01
0.035
0.05
0.19
0.155
0.15
0.36
0.225
0.03
-0.03
-0.06
0.24
0.2
0.085
0.12
0.215
0.265
0.115
0.085
0.075
-0.05
-0.035
-0.035
0.115
0.225
0.28
0.41
0.22
0.02
-0.06
0.005
0.055
0.13
0.175
0.1
0.15
0.16
0.13
0.105
0.1
0.05
0.03
0.23
0.29
0.13
0.275
0.26
0.195
0.1
0.14
0.165
0.1
0.06
-0.045
-0.005
0.035
0.23
0.255
0.075
0.025
-0.015
0.045
0.09
0.16
0.12
0.255
0.35
0.22
0.01
0.02
0.11
0.085
0.0
0.115
0.25
0.28
0.105
0.115
0.155
0.165
0.05
0.055
0.15
0.215
0.28
0.4
0.255
0.11
0.095
0.115
-0.045
0.155
0.08
0.195
0.07
0.26
0.19
0.11
-0.04
-0.035
-0.045
0.065
0.155
0.145
0.13
0.315
0.15
0.12
0.01
-0.015
0.045
0.105
0.14
0.135
0.225
0.175
0.18
0.24
-0.04
-0.05
0.1
0.085
0.115
0.13
0.255
0.395
0.335
0.245
0.03
-0.07
-0.095
0.04
0.175
0.16
0.255
0.335
0.255
0.04
0.075
-0.045
-0.065
-0.035
0.1
0.15
0.22
0.24
0.225
0.09
0.07
0.095
0.05
0.115
0.105
0.285
0.445
0.33
0.37
0.31
0.095
-0.085
-0.005
0.06
0.205
0.16
0.16
0.195
0.115
0.015
-0.015
-0.02
-0.06
0.055
0.16
0.16
0.205
0.205
0.105
0.17
0.14
0.02
-0.115
-0.05
0.18
0.12
0.26
0.29
0.165
0.05
0.045
0.02
0.075
0.165
0.275
0.315
0.095
-0.005
0.165
0.175
0.145
0.03
0.06
0.09
0.23
0.215
0.42
0.385
0.28
0.12
-0.13
-0.335
-0.35
-0.28
-0.185
-0.205
-0.19
-0.37
-0.435
-0.41
-0.28
-0.395
-0.305
-0.22
-0.185
-0.15
0.01
0.055
0.095
-0.075
-0.09
-0.225
-0.105
0.055
0.245
0.39
0.45
0.15
0.085
0.075
0.115
-0.015
-0.045
0.085
0.295
0.265
0.28
0.29
0.125
0.05
0.145
-0.015
-0.085
0.17
0.275
0.235
0.3
0.12
0.21
0.245
0.1
0.05
0.135
0.175
0.18
0.18
0.2
0.26
0.275
0.195
0.125
0.165
0.05
0.14
0.185
0.325
0.275
0.315
0.195
0.1
0.12
0.075
0.32
0.405
0.38
0.42
0.415
0.285
0.115
0.085
0.04
0.07
0.16
0.315
0.42
0.42
0.5
0.445
0.28
0.045
0.02
0.235
0.31
0.34
0.405
0.41
0.41
0.445
0.355
0.185
0.115
0.185
0.315
0.35
0.43
0.615
0.535
0.41
0.4
0.315
0.23
0.28
0.31
0.405
0.375
0.45
0.335
0.405
0.265
0.22
0.16
0.23
0.265
0.255
0.265
0.295
0.285
0.37
0.215
0.1
-0.04
-0.21
-0.06
0.255
0.305
0.22
0.245
0.18
-0.005
-0.015
0.0
0.04
0.02
0.075
0.13
0.255
0.265
0.36
0.215
0.065
-0.05
-0.01
0.09
0.18
0.2
0.16
0.155
0.15
0.065
0.02
0.1
-0.04
0.0
0.125
0.32
0.175
0.16
0.085
0.05
0.02
0.045
0.03
0.04
0.155
0.135
0.21
0.12
-0.035
-0.105
-0.005
0.025
0.04
0.06
0.27
0.23
0.275
0.165
0.14
0.0
0.005
-0.01
-0.005
0.145
0.17
0.1
0.23
0.215
0.205
0.12
0.11
-0.085
-0.08
0.1
0.19
0.175
0.255
0.18
0.115
0.065
0.145
-0.085
-0.14
0.175
0.235
0.22
0.27
0.275
-0.03
-0.075
-0.015
-0.105
0.04
0.13
0.195
0.285
0.255
0.235
0.13
0.1
0.0
0.01
0.025
0.12
0.115
0.17
0.255
0.125
0.02
-0.045
0.035
0.055
0.05
0.08
0.215
0.23
0.325
0.235
-0.005
-0.005
-0.09
-0.08
-0.07
0.18
0.225
0.265
0.3
0.155
0.035
-0.025
-0.115
0.005
0.0
0.135
0.135
0.19
0.19
0.18
0.035
0.025
0.015
-0.055
-0.025
0.205
0.325
0.33
0.34
0.12
0.065
0.19
-0.01
-0.19
-0.05
0.245
0.255
0.3
0.25
0.13
0.07
0.07
-0.06
0.02
0.05
0.16
0.14
0.095
0.24
0.085
0.03
0.04
0.01
0.055
0.075
0.295
0.29
0.31
0.23
0.135
0.07
0.13
-0.02
-0.095
0.15
0.245
0.17
0.205
0.22
0.145
0.08
0.035
-0.035
-0.01
0.075
0.085
0.08
0.325
0.345
0.085
-0.12
-0.055
-0.075
-0.095
0.065
0.15
0.115
0.18
0.155
0.23
0.115
-0.025
-0.035
0.0
0.045
0.19
0.11
0.265
0.21
0.08
-0.015
0.1
0.2
0.15
0.25
0.36
0.3
0.34
0.315
0.18
0.11
0.05
0.035
-0.345
-0.205
-0.165
-0.1
-0.135
-0.315
-0.435
-0.515
-0.615
-0.455
-0.21
-0.17
-0.115
-0.155
-0.025
-0.095
-0.065
-0.025
-0.17
-0.01
0.03
0.01
0.12
0.26
0.395
0.22
0.065
-0.005
-0.1
-0.07
0.01
0.19
0.255
0.245
0.17
0.19
0.18
0.135
0.15
0.165
0.095
0.245
0.255
0.24
0.25
0.225
0.255
0.135
-0.055
-0.015
-0.08
0.055
0.205
0.26
0.29
0.245
0.13
0.09
0.065
0.12
0.245
0.215
0.27
0.285
0.295
0.275
0.14
0.155
0.045
0.13
0.04
0.23
0.295
0.405
0.415
0.31
0.17
0.085
0.095
0.16
0.17
0.27
0.45
0.455
0.36
0.38
0.215
0.185
0.095
0.06
0.085
0.265
0.39
0.535
0.465
0.26
0.085
0.275
0.185
0.405
0.425
0.445
0.36
0.35
0.33
0.405
0.26
0.335
0.24
0.25
0.32
0.435
0.465
0.5
0.425
0.295
0.18
0.12
0.085
0.115
0.19
0.395
0.38
0.395
0.39
0.19
0.02
0.17
0.075
0.065
0.075
0.235
0.265
0.265
0.18
0.07
0.01
0.125
-0.01
-0.12
0.005
0.185
0.195
0.275
0.265
0.095
-0.01
0.085
-0.06
0.01
0.165
0.2
0.145
0.14
0.065
0.055
0.065
0.05
-0.11
-0.05
0.14
0.245
0.205
0.135
0.115
0.095
0.155
-0.055
-0.03
0.03
0.09
0.02
0.095
0.22
0.175
0.06
0.085
-0.02
0.045
0.075
0.115
0.155
0.19
0.13
0.18
0.11
-0.015
-0.075
-0.055
0.18
0.12
0.17
0.22
0.215
0.16
0.04
-0.015
-0.075
-0.12
0.03
0.265
0.095
0.215
0.195
0.16
-0.12
-0.12
-0.065
0.025
-0.01
0.105
0.205
0.24
0.2
0.1
0.165
0.015
0.02
0.025
0.15
0.3
0.35
0.31
0.235
-0.035
-0.075
-0.01
-0.065
-0.04
0.17
0.135
0.165
0.275
0.215
0.17
0.095
-0.01
-0.1
-0.115
0.03
0.19
0.145
0.16
0.21
0.095
0.03
0.065
0.01
-0.01
0.075
0.21
0.235
0.19
0.125
0.055
-0.005
0.08
0.07
0.04
0.105
0.12
0.11
0.155
0.29
0.28
0.09
-0.06
-0.15
-0.045
0.05
0.175
0.19
0.27
0.215
0.135
0.05
0.08
0.055
0.04
0.13
0.115
0.025
0.045
0.11
0.175
0.01
0.005
-0.045
0.04
0.165
0.21
0.13
0.09
0.135
0.07
0.075
0.035
-0.015
0.075
0.195
0.265
0.28
0.21
0.205
0.25
0.055
-0.07
-0.165
-0.085
0.09
0.185
0.345
0.38
0.19
0.17
0.13
0.04
0.0
0.045
0.03
0.035
0.085
0.23
0.12
0.045
0.06
0.07
0.015
0.06
0.205
0.21
0.145
0.235
0.19
0.135
0.0
-0.03
-0.14
0.015
0.11
0.205
0.265
0.15
0.12
0.105
-0.06
0.02
0.03
-0.075
-0.02
0.19
0.12
0.27
0.155
0.115
-0.03
-0.015
0.08
0.26
0.37
0.21
0.21
0.255
0.165
0.025
0.02
0.015
-0.105
-0.14
-0.09
-0.19
-0.07
-0.305
-0.525
-0.58
-0.55
-0.59
-0.525
-0.37
-0.155
-0.19
-0.12
-0.03
-0.08
-0.12
-0.165
-0.035
-0.02
-0.02
0.075
0.275
0.32
0.155
-0.015
0.07
0.17
0.045
0.025
0.005
0.1
0.095
0.26
0.36
0.155
-0.19
-0.075
-0.03
0.035
0.065
0.125
0.145
0.18
0.19
0.26
0.105
0.1
-0.03
0.095
0.3
0.235
0.355
0.32
0.215
0.19
0.19
0.075
-0.05
0.03
0.12
0.335
0.28
0.415
0.37
0.255
0.145
0.05
0.02
0.14
0.16
0.2
0.19
0.225
0.22
0.155
0.13
0.17
0.21
0.065
0.21
0.36
0.395
0.435
0.395
0.175
0.055
0.16
0.295
0.325
0.355
0.355
0.365
0.485
0.35
0.275
0.23
0.185
0.28
0.265
0.315
0.45
0.445
0.485
0.34
0.235
0.185
0.135
0.275
0.29
0.33
0.435
0.29
0.275
0.32
0.415
0.34
0.04
0.08
0.245
0.35
0.29
0.46
0.325
0.21
0.1
0.06
0.15
0.185
0.135
0.215
0.16
0.21
0.2
0.04
-0.035
-0.115
-0.02
-0.07
0.04
0.165
0.175
0.22
0.24
0.16
0.005
-0.035
-0.075
-0.035
-0.05
0.03
0.08
0.315
0.205
0.185
0.065
-0.08
-0.135
0.0
0.19
0.145
0.295
0.31
0.31
0.175
-0.15
-0.055
-0.06
0.055
0.095
0.19
0.155
0.055
0.065
0.03
0.05
0.05
0.03
0.08
-0.045
-0.015
0.105
0.3
0.19
0.125
0.04
-0.055
-0.03
0.055
0.05
0.1
0.195
0.235
0.235
0.04
-0.09
0.1
0.045
-0.02
0.15
0.18
0.2
0.24
0.185
0.17
0.04
-0.125
-0.05
-0.08
0.01
0.095
0.12
0.275
0.165
0.0
-0.025
0.07
-0.015
0.04
0.065
0.12
0.14
0.2
0.145
0.085
0.165
0.19
0.095
-0.095
-0.085
-0.115
0.115
0.195
0.11
0.14
0.07
-0.07
0.05
-0.025
0.07
0.21
0.295
0.21
