# TIPE ECG 2021 - ECG-ID Database v1.0.0 par Physionet
# [Numéro de la personne, Période d'échantillonnage, Prénom, Age, Sexe, Date de l'enregistrement]
[22, 0.002, William, 25, H, 26.04.2005]
0.175
0.31
0.24
0.075
-0.145
0.025
0.125
-0.255
-0.085
0.055
0.06
-0.05
-0.01
-0.045
-0.09
-0.175
-0.1
-0.09
-0.025
-0.025
0.14
0.365
0.28
0.03
-0.16
-0.25
-0.23
-0.165
0.0
0.075
0.015
0.005
0.02
-0.1
-0.125
-0.165
-0.055
0.04
0.105
0.045
-0.07
0.07
0.08
-0.015
-0.13
-0.295
-0.155
0.05
0.225
0.215
0.315
0.255
0.155
0.035
-0.08
-0.17
-0.195
-0.33
-0.285
-0.215
-0.305
-0.39
-0.47
-0.575
-0.63
-0.725
-0.72
-0.53
-0.42
-0.24
-0.15
-0.03
-0.07
-0.235
-0.22
-0.23
-0.12
-0.18
-0.12
0.01
0.22
0.22
0.02
-0.08
-0.355
0.035
0.045
0.05
0.165
0.165
0.12
-0.055
-0.07
-0.105
-0.065
-0.1
-0.02
-0.03
0.105
0.125
0.285
0.145
-0.01
-0.05
-0.05
-0.025
-0.05
0.01
0.1
0.125
0.165
0.175
0.055
0.01
0.08
-0.08
-0.16
0.0
0.26
0.21
0.26
0.16
0.13
-0.015
-0.045
-0.065
0.06
0.13
0.36
0.065
0.2
0.125
-0.01
-0.08
0.025
0.025
0.0
0.095
0.205
0.145
0.265
0.25
0.235
0.195
0.135
0.1
0.095
0.31
0.285
0.185
0.33
0.33
0.105
0.13
-0.03
0.135
0.195
0.33
0.34
0.325
0.415
0.315
0.23
0.235
0.21
0.09
0.185
0.415
0.515
0.495
0.225
0.125
0.045
-0.015
-0.055
-0.01
0.195
0.21
0.23
0.11
0.215
0.175
0.065
-0.075
-0.14
-0.03
0.175
0.165
0.205
0.17
0.12
0.05
-0.045
-0.05
-0.13
-0.115
-0.155
0.01
-0.03
0.16
0.12
-0.025
-0.075
-0.08
-0.1
-0.125
-0.085
0.175
0.135
-0.04
-0.04
-0.09
-0.155
-0.095
-0.145
-0.025
0.005
-0.02
-0.01
0.03
0.18
0.03
-0.095
-0.065
-0.17
-0.03
-0.09
0.015
0.045
0.115
0.05
0.04
-0.08
-0.13
-0.395
-0.18
-0.03
0.16
0.03
0.19
0.16
-0.11
-0.34
-0.36
-0.37
-0.135
0.07
0.16
-0.01
0.08
0.145
0.03
-0.08
-0.08
-0.12
-0.025
0.045
0.09
-0.045
0.09
0.08
0.045
-0.005
-0.24
-0.22
0.015
0.195
0.075
-0.055
0.04
-0.035
-0.045
-0.16
-0.26
-0.285
-0.175
-0.015
0.13
0.015
0.13
0.05
-0.095
-0.125
-0.21
-0.23
-0.1
0.09
0.085
0.145
0.075
0.11
-0.005
-0.235
-0.2
-0.11
-0.15
0.09
0.04
0.01
0.15
0.065
-0.19
-0.175
0.065
-0.01
-0.135
-0.05
-0.06
0.015
0.08
0.035
-0.01
-0.01
-0.16
-0.27
-0.155
-0.085
0.0
-0.03
0.085
0.1
-0.065
-0.105
-0.21
-0.105
0.125
-0.015
0.05
0.045
0.04
-0.03
-0.11
-0.155
-0.17
-0.04
0.0
0.05
0.04
0.095
-0.075
0.08
-0.075
-0.11
-0.11
-0.34
-0.195
-0.03
0.08
0.175
0.18
-0.035
-0.125
-0.145
-0.115
-0.06
-0.005
0.14
0.185
0.23
0.195
-0.045
-0.18
-0.085
-0.045
-0.125
0.06
0.16
0.05
0.11
0.11
0.115
-0.15
-0.15
-0.11
0.015
-0.13
0.045
0.04
0.06
0.035
-0.145
-0.225
-0.2
-0.125
-0.03
-0.19
-0.075
0.025
0.245
0.06
-0.165
-0.155
-0.095
-0.115
-0.11
-0.045
0.025
0.05
0.135
0.07
0.035
-0.015
-0.12
-0.225
-0.18
-0.145
0.12
0.005
0.145
0.31
0.24
-0.025
0.09
0.015
-0.09
-0.07
0.01
-0.025
-0.01
-0.13
-0.33
-0.365
-0.52
-0.665
-0.735
-0.66
-0.595
-0.495
-0.495
-0.315
-0.39
-0.45
-0.285
-0.275
-0.34
-0.24
-0.13
0.07
0.15
0.015
-0.105
-0.055
-0.1
-0.13
-0.05
0.07
0.155
0.03
0.065
0.085
-0.045
-0.245
-0.175
-0.055
-0.11
-0.05
-0.03
0.0
0.095
0.115
-0.02
0.005
-0.11
-0.195
-0.01
0.115
0.245
0.18
0.195
0.1
-0.015
-0.03
-0.045
-0.06
0.065
0.095
0.03
0.125
0.265
0.23
0.105
-0.035
-0.035
0.0
-0.08
0.095
0.015
0.175
0.18
0.12
0.095
0.09
-0.125
-0.15
0.075
0.11
0.065
0.205
0.24
0.155
0.035
-0.01
-0.055
0.125
0.2
0.095
0.15
0.325
0.35
0.3
0.21
0.135
-0.03
0.05
0.185
0.395
0.305
0.41
0.4
0.46
0.38
0.195
0.08
0.23
0.2
0.11
0.13
0.26
0.39
0.205
0.155
-0.01
-0.1
0.04
0.095
0.245
0.175
0.275
0.225
0.21
0.205
0.1
-0.04
-0.065
0.07
0.03
0.095
0.24
0.22
0.11
0.005
-0.095
-0.145
0.01
0.13
0.17
0.135
0.05
0.17
-0.085
-0.08
-0.06
-0.13
-0.17
0.025
0.215
0.02
-0.125
-0.13
-0.1
-0.11
-0.04
-0.065
0.015
0.04
0.005
0.03
0.035
-0.045
-0.17
-0.21
-0.02
-0.115
-0.04
0.0
0.035
0.03
0.105
0.085
-0.035
-0.165
-0.135
-0.245
-0.29
0.035
0.205
0.14
0.12
0.115
0.055
-0.005
-0.2
-0.295
-0.095
0.15
0.09
0.07
-0.02
-0.125
-0.12
-0.1
0.01
0.015
-0.08
-0.035
0.205
0.26
-0.035
-0.145
-0.15
-0.22
-0.1
0.01
0.045
0.025
-0.095
0.06
0.165
0.01
-0.02
-0.125
-0.21
-0.035
-0.145
-0.055
0.12
0.33
0.395
0.115
-0.115
-0.33
-0.07
-0.13
-0.19
-0.075
0.08
0.08
0.135
0.07
-0.045
-0.1
-0.145
-0.11
-0.03
0.025
0.08
0.095
0.075
-0.02
-0.19
-0.22
-0.305
-0.18
0.03
0.105
0.04
-0.025
0.025
0.225
-0.025
-0.1
-0.12
-0.115
-0.075
0.185
0.14
0.015
0.055
0.035
0.055
-0.26
-0.26
-0.11
0.145
0.245
0.075
0.09
0.09
0.0
-0.02
-0.02
-0.155
-0.325
-0.245
0.005
0.105
0.215
0.23
-0.03
-0.135
-0.195
-0.285
-0.255
-0.14
0.085
0.085
0.085
0.11
0.055
-0.075
-0.035
-0.115
-0.125
0.08
0.21
0.065
0.055
0.12
0.09
0.11
0.2
-0.04
-0.02
-0.045
0.01
-0.06
0.04
0.22
0.0
-0.215
-0.265
-0.265
-0.095
0.03
0.11
0.06
0.04
-0.07
0.015
-0.095
-0.125
-0.28
-0.17
0.045
0.1
0.02
0.065
0.08
0.0
-0.1
-0.165
-0.24
-0.135
0.04
0.06
0.08
0.145
0.025
-0.025
-0.035
-0.03
0.11
0.2
0.235
0.16
0.265
0.245
0.085
-0.125
-0.28
-0.37
-0.36
-0.335
-0.32
-0.34
-0.5
-0.515
-0.52
-0.595
-0.655
-0.7
-0.66
-0.545
-0.16
-0.12
-0.07
-0.1
-0.055
-0.025
-0.075
-0.25
-0.235
-0.145
0.01
0.09
0.035
0.105
0.125
-0.015
0.06
-0.155
-0.105
-0.03
0.155
0.045
0.035
0.1
-0.01
-0.07
-0.115
-0.04
-0.075
-0.07
-0.025
0.195
0.24
0.195
0.13
-0.04
-0.075
-0.125
-0.08
0.145
0.195
0.15
0.09
0.12
0.16
-0.06
-0.115
-0.005
0.07
0.125
0.16
0.135
0.08
0.13
0.01
0.06
0.055
-0.05
0.035
0.02
0.095
0.14
0.215
0.16
0.185
0.105
0.055
0.04
0.1
0.125
0.215
0.285
0.39
0.33
0.27
0.18
0.02
-0.13
0.105
0.155
0.26
0.37
0.295
0.385
0.335
0.12
0.02
0.165
0.155
0.295
0.145
0.205
0.435
0.465
0.29
0.15
0.13
0.06
0.21
0.11
0.15
0.23
0.225
0.29
0.295
0.105
0.115
0.105
0.145
0.225
0.205
0.26
0.32
0.325
-0.065
-0.105
-0.155
-0.1
-0.16
0.07
0.27
0.085
0.21
0.245
0.055
-0.015
-0.18
-0.13
-0.275
-0.08
0.04
0.11
0.085
0.055
-0.005
-0.065
-0.125
-0.1
-0.175
0.005
0.045
0.125
0.11
0.145
0.04
-0.035
-0.14
-0.185
-0.08
0.075
-0.02
0.045
0.115
0.075
-0.2
-0.225
-0.065
0.05
-0.035
-0.025
0.125
0.245
0.175
-0.1
-0.155
-0.14
-0.13
-0.195
-0.185
-0.05
0.08
0.175
0.2
0.065
-0.04
-0.13
-0.195
-0.085
-0.105
-0.07
0.005
0.275
0.105
0.025
-0.095
-0.105
-0.165
-0.055
-0.03
0.08
0.015
0.26
0.165
-0.005
-0.09
-0.105
-0.16
0.015
-0.005
-0.01
0.075
0.165
0.025
-0.02
-0.18
-0.225
-0.315
-0.21
-0.095
0.075
0.235
0.1
0.05
0.115
0.005
-0.06
-0.185
-0.15
-0.1
-0.105
0.015
0.16
0.01
0.03
0.175
-0.03
-0.095
-0.19
-0.085
0.07
0.055
0.035
0.0
-0.02
-0.06
0.005
-0.22
-0.08
-0.2
-0.06
0.11
0.145
0.0
-0.05
-0.08
-0.02
-0.065
-0.155
-0.035
0.115
0.155
0.07
0.035
0.02
-0.085
-0.105
-0.145
-0.125
-0.03
0.11
0.185
0.2
0.09
0.025
0.055
0.01
-0.1
-0.165
0.085
0.175
0.155
0.16
0.075
-0.035
-0.255
-0.265
-0.255
-0.105
-0.08
0.025
0.075
-0.04
0.01
-0.015
-0.09
-0.215
-0.185
-0.07
0.1
0.075
0.145
0.075
0.055
0.015
0.035
-0.235
-0.27
-0.07
0.03
0.0
0.06
0.095
0.215
-0.03
-0.025
-0.11
-0.205
-0.145
-0.025
0.11
0.165
0.195
0.065
0.005
-0.055
0.0
-0.145
0.015
0.155
0.12
0.21
0.12
-0.15
-0.265
-0.29
-0.53
-0.415
-0.35
-0.38
-0.53
-0.47
-0.48
-0.44
-0.505
-0.61
-0.645
-0.38
-0.425
-0.21
-0.075
0.095
0.12
0.04
0.04
-0.12
-0.23
-0.14
-0.02
0.075
0.135
0.195
0.035
-0.105
-0.07
-0.17
-0.195
-0.18
0.0
0.215
0.09
0.15
0.205
0.005
-0.16
-0.145
-0.1
0.1
0.055
0.15
0.145
0.2
0.055
0.105
-0.11
-0.085
0.005
-0.115
0.145
0.25
0.195
0.26
0.255
0.02
-0.195
-0.065
0.005
-0.015
-0.035
0.08
0.185
0.295
0.315
0.11
0.045
0.135
-0.04
0.075
0.0
0.06
0.175
0.23
0.125
0.085
0.015
0.155
0.2
0.21
0.245
0.085
0.265
0.345
0.47
0.265
0.075
0.02
0.075
0.155
0.155
0.195
0.325
0.435
0.32
0.31
0.17
0.08
0.165
0.215
0.29
0.365
0.4
0.345
0.405
0.355
0.225
0.22
0.245
0.14
0.075
0.205
0.36
0.39
0.315
0.11
0.015
0.03
0.06
-0.005
0.14
0.16
0.3
0.235
0.14
0.185
-0.025
-0.06
0.075
0.05
0.02
0.11
0.12
0.125
-0.025
-0.025
-0.19
-0.115
0.1
0.065
0.145
0.185
0.17
0.13
0.02
0.0
-0.065
-0.205
-0.13
-0.06
0.255
0.275
0.28
-0.165
-0.245
-0.075
-0.035
-0.155
-0.295
-0.23
0.04
0.08
0.245
0.1
0.045
-0.025
-0.005
-0.085
-0.06
0.0
0.04
0.1
0.27
0.195
-0.005
-0.16
-0.145
-0.075
-0.025
0.01
0.03
0.165
0.165
0.035
0.005
0.18
0.085
-0.105
0.035
0.095
0.03
0.135
0.145
-0.02
-0.065
-0.155
-0.16
-0.24
-0.135
0.0
0.155
0.17
0.085
0.09
0.04
-0.04
0.015
-0.09
-0.065
0.08
0.175
0.14
0.18
0.125
0.115
0.08
-0.055
-0.165
-0.13
-0.115
0.25
0.52
0.21
0.01
-0.03
-0.095
-0.075
-0.165
-0.035
0.075
0.14
0.085
0.08
0.095
0.125
0.055
-0.015
-0.095
-0.02
-0.095
0.08
0.15
0.07
0.125
0.095
0.005
-0.075
-0.045
0.05
0.15
0.155
0.235
0.22
0.285
0.1
-0.035
-0.205
-0.115
-0.085
0.07
0.17
0.21
0.245
0.075
-0.02
-0.115
-0.035
0.08
0.05
0.085
0.165
0.085
0.145
0.045
-0.115
-0.225
0.015
-0.17
-0.255
-0.02
0.165
0.18
0.185
-0.035
-0.03
-0.07
-0.03
0.055
0.03
0.065
0.015
0.12
0.18
0.095
-0.01
-0.095
-0.175
-0.055
0.18
0.285
0.215
0.3
0.285
0.175
0.125
0.005
-0.025
-0.245
-0.055
-0.19
-0.29
-0.325
-0.365
-0.38
-0.235
-0.56
-0.76
-0.67
-0.45
-0.27
-0.13
-0.15
-0.15
-0.055
-0.155
-0.195
-0.41
-0.385
-0.13
0.11
0.19
0.18
0.185
0.19
-0.07
-0.055
-0.035
0.045
0.015
0.055
0.04
0.165
0.08
0.095
0.07
0.025
0.025
0.075
0.17
0.105
0.155
0.29
0.215
0.01
-0.04
-0.015
-0.045
0.055
0.195
0.325
0.19
0.125
0.23
0.125
0.045
0.065
0.0
0.08
0.13
0.085
0.15
0.2
0.22
0.255
0.185
0.075
0.06
0.035
-0.045
0.19
0.46
0.435
0.26
0.165
0.035
0.095
0.145
0.14
0.125
0.18
0.34
0.33
0.355
0.265
0.25
0.155
0.18
0.11
0.36
0.35
0.475
0.53
0.365
0.235
0.32
0.245
0.17
0.345
0.335
0.35
0.365
0.41
0.355
0.235
0.165
0.18
0.28
0.29
0.395
0.43
0.515
0.405
0.185
0.185
0.21
0.095
0.03
0.09
0.25
0.385
0.35
0.295
0.295
0.21
0.125
0.025
0.12
0.14
0.2
0.305
0.27
0.25
0.115
-0.015
-0.025
-0.03
0.015
-0.02
0.03
0.195
0.145
0.18
0.185
0.17
0.03
-0.075
-0.215
0.02
0.15
0.13
0.14
0.035
0.04
0.01
-0.165
-0.24
-0.015
0.19
0.145
0.075
0.065
0.085
0.11
-0.03
-0.16
0.01
0.08
0.025
0.26
0.15
0.185
0.12
0.055
0.01
-0.05
-0.12
0.02
0.055
0.1
0.1
0.15
0.185
0.09
-0.055
-0.12
-0.115
-0.115
-0.025
0.015
0.23
0.13
0.02
0.055
-0.045
-0.11
-0.12
-0.01
0.015
0.14
0.13
0.145
0.125
0.24
0.175
0.03
-0.14
-0.05
0.165
0.16
0.14
0.215
0.165
0.04
-0.07
-0.07
-0.09
0.055
0.17
0.155
0.095
0.215
0.265
0.11
0.0
-0.08
-0.095
-0.08
0.075
0.11
0.26
0.155
-0.045
-0.135
-0.1
-0.02
-0.09
-0.025
0.09
0.07
0.175
0.115
0.145
0.18
0.115
0.005
-0.27
0.02
0.18
0.275
0.175
0.265
0.22
0.005
0.045
0.015
-0.14
-0.045
0.15
0.3
0.28
0.245
0.13
0.04
0.13
0.005
-0.05
0.045
0.205
0.215
0.14
0.065
0.085
0.015
-0.115
-0.135
0.185
0.07
0.135
0.215
0.155
-0.025
0.035
0.025
-0.02
-0.1
-0.11
-0.025
0.085
0.08
-0.01
0.11
0.15
-0.105
-0.115
-0.115
0.06
-0.045
-0.035
0.19
0.41
0.315
0.135
0.14
0.05
-0.09
0.04
0.13
0.225
0.19
0.225
0.27
0.26
0.205
-0.06
-0.185
-0.135
-0.215
-0.165
-0.175
-0.205
-0.315
-0.445
-0.48
-0.42
-0.475
-0.455
-0.325
-0.275
-0.26
-0.215
-0.305
-0.09
0.04
0.01
-0.085
0.025
0.23
0.28
0.13
0.065
-0.07
-0.075
0.03
-0.075
-0.23
-0.105
0.09
0.25
0.23
0.17
0.22
0.185
0.05
-0.025
-0.065
0.09
0.12
0.12
0.25
0.24
0.29
0.155
-0.17
-0.165
-0.07
0.075
0.2
0.315
0.23
0.39
0.39
0.285
-0.055
0.02
0.04
0.155
0.225
0.195
0.195
0.2
0.175
0.165
0.17
0.095
-0.07
0.12
0.11
0.21
0.295
0.315
0.35
0.085
-0.01
0.055
0.14
0.06
0.19
0.325
0.275
0.29
0.31
0.29
0.315
0.325
0.245
0.27
0.415
0.38
0.395
0.32
0.335
0.125
0.21
0.2
0.28
0.24
0.245
0.395
0.445
0.455
0.295
0.27
0.195
0.275
0.275
0.255
0.185
0.375
0.38
0.395
0.265
0.25
0.135
0.06
0.01
0.27
0.275
0.17
0.26
0.32
0.17
0.15
0.09
0.005
0.225
0.385
0.275
0.18
0.355
0.255
0.125
0.0
-0.05
-0.02
-0.105
0.02
0.08
0.18
0.23
0.305
0.145
-0.115
-0.22
-0.205
-0.185
0.05
0.18
0.12
0.045
0.14
0.185
0.035
-0.17
-0.155
-0.01
0.065
0.15
0.18
0.22
0.1
-0.01
-0.1
-0.115
-0.05
-0.065
0.125
0.385
0.24
0.32
0.15
0.085
-0.005
-0.005
-0.1
-0.22
0.125
0.105
0.145
0.23
0.095
0.005
-0.075
-0.02
0.04
-0.03
0.035
-0.045
0.135
0.26
0.1
-0.01
-0.085
-0.07
-0.07
-0.115
0.105
0.255
0.3
0.315
0.14
-0.03
0.105
-0.04
-0.065
-0.015
0.16
0.36
0.16
0.095
-0.11
-0.005
0.005
-0.035
-0.09
0.005
0.14
0.115
0.22
0.235
0.08
0.095
0.04
-0.21
-0.21
-0.1
-0.005
0.21
0.275
0.295
0.17
0.03
-0.05
0.11
-0.055
-0.035
0.21
0.28
0.045
0.105
0.07
0.015
0.005
0.065
-0.005
0.0
0.095
0.28
0.275
0.13
0.07
-0.03
-0.035
0.045
0.19
0.13
0.06
0.085
0.225
0.21
0.17
-0.04
-0.03
-0.11
-0.225
-0.055
0.12
0.12
0.155
0.285
0.26
0.07
-0.06
-0.115
-0.02
-0.005
0.16
0.15
0.095
0.025
0.155
0.085
0.045
-0.075
0.05
-0.02
0.11
0.135
0.095
0.25
0.2
0.055
-0.005
-0.11
-0.065
0.0
0.135
0.04
0.055
0.17
0.2
0.18
0.16
-0.005
0.04
0.06
0.075
0.31
0.395
0.145
-0.14
-0.25
-0.23
-0.41
-0.425
-0.4
-0.34
-0.28
-0.32
-0.36
-0.39
-0.41
-0.345
-0.415
-0.315
-0.32
-0.23
0.045
0.32
0.175
0.075
0.05
-0.065
-0.13
0.0
0.04
0.285
0.215
0.16
0.265
0.315
0.135
-0.21
-0.25
-0.11
0.035
0.14
0.165
0.185
0.235
0.28
0.09
0.09
0.03
-0.1
0.075
0.115
0.28
0.355
0.29
0.155
-0.075
0.02
-0.025
0.085
0.15
0.215
0.12
0.325
0.35
0.235
0.25
0.145
0.055
0.065
0.1
0.38
0.29
0.195
0.015
0.15
0.245
0.14
0.1
0.085
0.19
0.25
0.205
0.45
0.375
0.15
0.165
0.1
0.115
0.2
0.215
0.25
0.275
0.43
0.39
0.33
0.105
0.12
0.15
0.265
0.34
0.35
0.335
0.455
0.415
0.4
0.355
0.305
0.285
0.365
0.355
0.36
0.365
0.49
0.48
0.39
0.145
0.03
0.06
0.365
0.32
0.41
0.46
0.27
0.135
0.225
0.24
0.03
0.06
0.12
0.085
0.285
0.49
0.305
0.14
-0.045
-0.09
0.125
0.15
0.14
0.185
0.23
0.15
0.245
0.23
-0.025
0.02
-0.005
0.01
-0.04
0.025
0.225
0.3
0.205
0.2
-0.03
-0.02
-0.16
-0.125
0.11
0.085
0.105
0.175
0.18
0.09
0.125
-0.035
-0.135
0.09
0.16
0.025
-0.045
0.215
0.185
0.2
0.025
0.07
-0.035
-0.015
0.04
0.155
0.2
0.19
0.15
0.14
0.09
0.155
-0.005
-0.025
-0.04
0.085
0.145
0.285
0.14
0.045
0.16
0.02
0.115
-0.075
-0.14
0.04
0.12
0.26
0.175
0.115
-0.04
-0.105
-0.125
-0.09
-0.055
0.21
0.345
0.22
0.19
0.07
-0.005
-0.02
0.095
0.115
0.11
0.125
0.25
0.225
0.15
0.02
0.085
-0.055
-0.05
0.125
0.28
0.065
0.065
0.155
0.15
0.165
-0.075
-0.075
0.015
0.005
0.03
0.16
0.205
0.29
0.255
0.225
0.03
-0.19
-0.045
0.135
0.18
0.145
0.065
0.135
0.22
0.06
0.035
0.01
-0.055
0.055
0.155
0.255
0.265
0.125
0.165
0.09
0.06
0.14
0.09
0.02
0.11
0.215
0.295
0.23
0.115
0.04
0.13
0.025
0.04
0.04
0.13
0.2
0.215
0.215
0.285
0.06
-0.03
-0.15
0.005
-0.075
0.025
0.03
0.25
0.3
0.18
0.01
-0.01
0.01
-0.17
0.015
0.06
0.085
0.18
0.295
0.14
0.11
0.01
-0.105
-0.065
0.035
0.165
0.165
0.25
0.225
0.18
0.075
0.13
0.155
0.25
0.2
0.22
0.225
0.51
0.295
-0.115
-0.23
-0.12
-0.365
-0.445
-0.415
-0.615
-0.61
-0.345
-0.395
-0.315
-0.475
-0.45
-0.385
-0.24
-0.045
0.04
0.1
0.13
0.105
0.14
0.025
-0.07
-0.055
-0.085
0.025
0.19
0.265
0.27
0.2
0.07
0.13
-0.04
-0.22
-0.025
0.445
0.575
0.35
0.47
0.38
0.08
-0.14
-0.135
-0.04
-0.03
0.005
0.19
0.23
0.23
0.22
0.15
0.005
-0.01
0.01
0.095
0.115
0.245
0.305
0.29
0.305
0.12
-0.02
-0.02
0.095
0.17
0.235
0.28
0.34
0.375
0.365
0.205
-0.045
-0.04
0.175
0.28
0.18
0.38
0.55
0.55
0.175
0.12
0.06
-0.035
0.16
0.275
0.395
0.415
0.38
0.42
0.275
0.295
0.17
0.18
0.215
0.16
0.255
0.48
0.42
0.42
0.395
0.23
0.31
0.31
0.26
0.275
0.325
0.375
0.515
0.44
0.565
0.395
0.2
0.2
0.21
0.205
0.33
0.275
0.32
0.305
0.31
0.12
0.025
0.095
0.15
0.385
0.28
0.225
0.255
0.275
0.13
0.055
0.01
-0.055
0.07
0.165
0.21
0.225
0.27
0.215
0.12
0.08
0.075
0.01
-0.02
0.03
0.075
0.12
0.265
0.235
0.075
0.04
0.0
-0.05
-0.045
0.055
0.225
0.455
0.235
0.215
0.13
0.045
-0.135
-0.22
-0.18
0.03
0.21
0.055
0.195
0.14
0.035
0.065
0.13
-0.02
-0.03
-0.03
0.13
0.085
0.31
0.205
0.11
-0.01
-0.015
-0.13
0.025
0.185
0.16
0.14
0.195
0.14
0.045
-0.1
-0.055
0.015
0.185
0.205
0.07
0.07
0.15
0.175
0.025
0.04
-0.015
-0.145
-0.01
0.115
0.17
0.195
0.24
0.195
0.15
0.065
-0.035
-0.075
0.035
0.225
0.33
0.295
0.155
0.14
0.085
-0.025
-0.015
-0.05
0.03
-0.12
-0.07
0.215
0.18
0.18
0.235
0.105
0.02
-0.045
-0.005
0.065
0.21
0.335
0.285
0.16
0.055
0.025
-0.195
-0.19
-0.075
0.125
0.185
0.33
0.265
0.24
0.07
0.005
-0.1
0.095
0.155
0.28
0.245
0.095
0.1
0.025
-0.015
-0.13
-0.16
0.125
0.155
0.165
0.195
0.2
0.165
0.145
0.04
0.09
0.01
0.12
0.15
0.18
0.185
0.265
0.17
0.205
0.07
-0.11
-0.025
0.095
0.05
0.005
0.07
0.23
0.175
0.125
0.035
0.03
-0.025
0.115
0.025
0.025
0.12
0.21
0.195
0.14
0.01
0.01
-0.17
-0.085
0.145
0.095
0.245
0.275
0.075
-0.06
0.02
0.025
-0.095
0.0
0.07
0.115
0.18
0.165
0.205
0.365
0.145
0.13
-0.01
0.145
0.205
0.225
0.165
0.225
-0.015
-0.205
-0.18
-0.07
-0.35
-0.585
-0.55
-0.46
-0.47
-0.36
-0.345
-0.4
-0.395
-0.27
-0.365
-0.125
-0.04
-0.075
-0.05
0.205
0.18
0.04
0.01
0.01
-0.01
0.015
0.105
0.14
0.205
0.11
0.175
0.09
0.07
0.155
0.085
0.105
0.08
0.255
0.255
0.35
0.26
0.18
0.055
-0.015
0.0
0.15
0.205
0.155
0.075
0.165
0.185
0.06
0.075
0.01
0.02
0.045
0.13
0.075
0.135
0.315
0.44
0.3
0.305
0.065
-0.025
0.05
0.245
0.265
0.275
0.31
0.1
0.15
0.175
0.17
-0.015
0.135
0.265
0.255
0.3
0.445
0.25
0.24
0.22
0.2
0.1
0.08
0.225
0.39
0.49
0.465
0.405
0.23
0.165
-0.02
0.08
0.215
0.38
0.5
0.52
0.445
0.375
0.365
0.295
0.195
0.335
0.24
0.31
0.56
0.58
0.435
0.37
0.035
0.115
0.175
0.125
0.225
0.495
0.465
0.535
0.27
0.16
0.11
0.11
0.145
0.28
0.135
0.225
0.305
0.28
0.17
0.12
0.015
0.045
-0.05
0.1
0.175
0.025
0.29
0.285
0.245
0.13
-0.055
-0.165
-0.13
0.185
0.16
0.235
0.25
0.275
0.06
-0.16
-0.01
-0.135
-0.095
-0.03
0.065
0.22
0.135
0.145
0.19
0.18
-0.025
-0.24
-0.24
-0.06
0.15
0.225
0.26
0.285
0.13
-0.065
0.055
-0.01
-0.07
-0.025
0.025
0.11
0.205
0.195
0.14
0.07
0.18
0.055
-0.15
-0.12
0.025
0.155
0.245
0.175
0.265
0.0
-0.175
0.01
-0.08
-0.06
0.08
0.09
0.145
0.23
0.22
0.045
-0.095
-0.17
-0.095
0.05
0.075
0.09
0.22
0.195
0.205
0.04
-0.115
-0.09
-0.12
-0.07
0.065
0.415
0.58
0.27
0.15
0.055
-0.215
-0.255
-0.08
0.035
0.04
0.255
0.235
0.175
0.195
0.035
-0.205
-0.055
0.075
0.035
0.09
0.145
0.23
0.2
0.075
-0.1
-0.01
-0.065
-0.15
-0.095
0.1
0.17
0.13
0.215
0.12
0.08
0.04
0.115
0.085
-0.03
0.045
0.14
0.23
0.225
0.275
0.0
-0.25
-0.165
-0.015
0.12
0.04
0.075
0.105
0.28
0.245
-0.065
-0.105
-0.125
-0.055
0.04
0.17
0.265
0.28
0.235
0.12
0.02
0.065
0.055
0.045
0.025
-0.065
0.15
0.395
0.445
0.315
0.06
-0.045
-0.17
-0.135
0.015
0.195
0.165
0.07
0.2
0.17
0.085
-0.01
0.0
-0.135
-0.095
-0.045
-0.1
0.12
0.18
0.12
0.07
-0.085
-0.13
-0.025
0.055
0.105
0.22
0.21
0.115
0.06
-0.09
-0.07
0.025
0.055
0.13
0.05
0.005
0.235
0.44
0.275
0.1
0.06
-0.01
0.17
0.29
0.28
0.105
0.145
0.115
-0.17
-0.29
-0.405
-0.58
-0.49
-0.535
-0.455
-0.39
-0.365
-0.27
-0.4
-0.31
-0.245
-0.255
-0.285
-0.09
-0.04
0.075
0.185
0.12
0.075
0.02
0.025
-0.045
-0.17
-0.07
0.1
0.185
0.2
0.275
0.16
0.14
0.025
0.175
0.04
0.12
0.205
0.365
0.28
0.18
0.125
0.08
-0.06
-0.065
-0.04
0.155
0.3
0.385
0.215
0.235
0.19
0.005
-0.025
0.095
0.16
0.135
0.285
0.285
0.175
0.13
0.145
0.2
0.1
0.085
0.12
0.32
0.295
0.29
0.305
0.445
0.275
0.19
0.27
0.15
0.165
0.285
0.21
0.305
0.505
0.6
0.405
0.27
0.155
0.02
0.055
0.295
0.18
0.345
0.42
0.34
0.26
0.235
0.215
0.175
0.275
0.34
0.32
0.585
0.445
0.265
0.395
0.23
0.16
0.245
0.25
0.235
0.33
0.395
0.405
0.315
0.22
0.19
0.13
0.25
0.31
0.21
0.21
0.545
0.375
0.105
0.2
0.235
0.205
0.2
0.355
0.205
0.11
0.19
0.2
0.08
-0.095
0.075
0.04
0.12
0.06
0.0
0.075
0.15
0.06
0.04
-0.09
-0.11
-0.03
0.0
0.09
0.235
0.145
0.125
0.09
0.07
-0.075
0.075
-0.035
-0.075
0.125
0.21
0.275
0.34
0.26
-0.085
-0.055
-0.08
-0.05
-0.03
0.09
0.195
0.26
0.13
-0.015
0.045
0.08
0.1
-0.14
-0.17
-0.18
-0.165
0.145
0.185
0.135
0.005
-0.03
-0.09
-0.105
-0.08
0.11
0.155
0.155
0.175
0.055
0.03
-0.14
0.045
0.09
0.04
0.075
0.215
0.265
0.115
0.01
0.075
0.015
-0.2
0.05
0.1
0.095
0.035
0.15
0.195
0.085
-0.03
-0.015
-0.075
-0.03
0.04
0.04
0.16
0.285
0.29
0.015
-0.08
-0.145
-0.125
-0.04
0.045
0.095
0.02
0.345
0.215
0.145
-0.005
0.015
-0.065
-0.02
-0.015
0.055
0.215
0.145
0.105
0.145
-0.08
-0.115
0.005
-0.01
-0.005
0.095
0.16
0.165
0.12
0.135
0.0
-0.025
-0.085
0.055
0.22
0.16
0.175
0.19
0.12
0.01
0.1
-0.01
-0.2
-0.215
0.065
0.18
0.12
0.19
0.205
0.105
-0.075
-0.075
-0.155
-0.08
-0.025
0.175
0.22
0.215
0.125
-0.07
-0.08
0.03
-0.005
0.035
0.085
0.09
0.25
0.255
0.105
0.12
-0.045
-0.02
0.085
0.08
0.17
0.235
0.05
0.21
0.18
0.045
-0.115
-0.14
-0.235
0.075
0.1
0.07
0.055
0.23
0.18
0.155
0.005
-0.08
-0.105
-0.06
0.015
0.07
0.105
0.195
0.145
0.035
-0.15
-0.01
0.035
-0.1
-0.07
0.16
0.09
0.015
-0.035
0.055
0.16
-0.055
-0.045
0.155
0.055
0.175
0.21
0.34
0.175
0.115
0.065
-0.04
-0.08
-0.05
-0.03
0.035
-0.115
-0.325
-0.385
-0.46
-0.685
-0.59
-0.645
-0.43
-0.35
-0.245
-0.14
-0.125
-0.135
-0.215
-0.195
-0.215
-0.1
-0.06
0.065
0.12
0.19
0.195
-0.125
-0.005
-0.04
-0.14
-0.045
0.12
0.17
0.12
0.14
0.115
0.255
0.025
-0.15
-0.08
-0.055
0.065
0.12
0.055
0.135
0.215
0.265
0.005
-0.11
-0.065
0.15
0.15
0.08
0.155
0.245
0.365
0.23
0.085
0.055
-0.03
0.045
0.075
0.02
0.095
0.18
0.12
0.13
0.105
0.05
0.005
-0.115
0.145
0.3
0.36
0.32
0.26
0.275
0.235
0.06
-0.1
0.06
0.3
0.285
0.15
0.235
0.295
0.35
0.22
0.13
0.03
0.125
0.185
0.39
0.355
0.445
0.28
0.12
0.045
0.085
0.15
0.315
0.38
0.44
0.395
0.49
0.44
0.245
-0.025
0.165
0.215
0.335
0.385
0.35
0.34
0.265
0.275
0.25
0.08
0.0
0.01
0.19
0.325
0.295
0.245
0.32
0.3
0.185
0.09
-0.045
-0.13
0.02
0.135
0.26
0.275
0.475
0.415
-0.015
-0.185
-0.11
-0.14
-0.11
-0.06
0.145
0.105
0.23
0.13
-0.03
-0.135
-0.125
-0.09
-0.1
-0.025
0.165
0.145
0.17
0.045
0.025
0.01
-0.185
-0.08
0.005
-0.005
0.22
0.125
0.105
0.06
-0.1
-0.1
-0.05
-0.055
-0.105
0.155
0.345
0.35
0.075
-0.02
0.055
-0.055
-0.055
0.0
0.04
0.13
0.05
0.205
0.2
-0.03
-0.2
-0.16
-0.205
-0.035
0.0
0.08
0.08
0.01
0.115
0.035
-0.055
0.005
0.035
-0.05
0.005
0.13
0.235
0.315
0.1
-0.005
-0.09
-0.125
-0.13
-0.065
0.095
0.155
0.14
0.195
0.285
0.215
0.13
-0.07
-0.115
-0.01
0.03
0.045
0.185
0.21
0.135
0.03
0.05
-0.065
-0.095
-0.015
0.075
0.035
0.08
0.215
0.21
0.14
-0.06
0.04
-0.21
-0.205
-0.05
-0.05
-0.05
0.285
0.595
0.235
-0.06
-0.145
-0.205
-0.08
0.045
0.165
0.24
0.145
0.045
0.075
0.02
-0.06
-0.145
-0.215
-0.015
0.155
0.02
0.29
0.11
0.04
-0.025
-0.04
-0.14
0.02
0.11
0.135
0.08
0.08
0.025
0.105
0.11
-0.005
-0.065
-0.01
0.155
0.155
0.09
0.21
0.25
0.01
-0.005
0.04
-0.025
-0.01
0.035
0.255
0.245
0.38
0.12
-0.02
0.07
0.01
-0.11
-0.215
0.03
0.12
0.17
0.155
0.215
0.29
0.035
-0.15
-0.06
-0.125
-0.04
0.09
0.19
0.185
0.145
0.095
-0.02
-0.175
-0.16
-0.025
0.355
0.285
0.16
-0.035
-0.225
-0.08
-0.17
-0.13
-0.04
-0.005
-0.025
-0.01
0.075
0.13
0.01
-0.01
-0.105
-0.065
-0.12
-0.025
0.125
0.095
0.17
0.39
0.315
0.22
0.27
0.145
0.095
0.08
0.07
-0.025
-0.08
-0.03
-0.285
-0.5
-0.48
-0.72
-0.745
-0.52
-0.21
-0.32
-0.29
-0.235
-0.25
-0.15
-0.21
-0.285
-0.295
-0.195
-0.1
-0.01
0.1
-0.055
-0.055
-0.05
-0.02
-0.11
-0.075
-0.02
0.14
0.24
0.12
0.065
-0.125
-0.065
0.035
0.095
0.005
0.04
0.195
0.18
0.18
0.075
0.085
0.05
0.0
-0.045
0.015
0.075
0.095
0.23
0.29
0.115
0.09
0.03
0.035
-0.01
-0.095
-0.07
0.12
0.28
0.275
0.285
0.13
-0.18
-0.12
-0.125
0.01
0.155
0.1
0.21
0.16
0.22
0.14
0.06
0.035
-0.01
0.005
0.18
0.47
0.4
0.33
0.22
0.095
0.095
0.01
0.145
0.135
0.285
0.42
0.395
0.36
0.275
0.115
0.165
0.035
0.085
0.205
0.375
0.525
0.55
0.32
0.375
0.055
0.14
0.11
-0.02
0.185
0.275
0.29
0.375
0.34
0.275
0.21
0.08
0.07
0.155
0.335
0.335
0.22
0.185
0.25
0.245
0.2
0.055
0.01
-0.01
0.0
0.115
0.3
0.32
0.27
0.105
-0.03
0.07
0.04
-0.075
-0.15
-0.03
0.12
0.205
-0.07
0.015
-0.005
-0.17
-0.27
-0.25
0.065
0.085
0.0
0.18
0.27
0.14
-0.175
-0.18
-0.17
-0.035
0.005
0.045
0.015
0.045
0.075
0.05
-0.04
-0.085
-0.1
-0.12
-0.055
0.08
0.105
0.21
0.075
0.06
0.015
0.185
0.03
-0.385
-0.205
-0.045
-0.1
0.015
0.135
-0.005
-0.145
-0.06
-0.08
-0.06
0.045
0.13
0.15
0.07
0.025
0.18
-0.125
-0.21
-0.15
-0.065
-0.05
0.075
0.085
0.2
0.305
-0.05
-0.135
-0.15
-0.155
-0.075
0.055
0.06
0.07
0.15
0.06
0.0
0.005
-0.055
-0.245
-0.135
0.06
0.08
-0.015
-0.08
0.05
0.115
0.04
-0.13
-0.13
-0.09
-0.04
0.125
0.19
0.245
0.045
-0.005
-0.055
-0.195
-0.215
-0.16
-0.015
0.085
0.175
0.14
0.085
0.035
-0.105
-0.21
0.01
-0.04
0.14
0.17
0.105
0.045
0.02
-0.07
-0.07
-0.2
-0.09
-0.11
-0.09
0.03
0.095
0.145
0.12
0.035
0.05
-0.085
-0.035
-0.045
-0.015
0.195
0.24
0.215
0.165
0.055
-0.02
-0.135
0.015
0.075
0.065
0.08
0.115
0.125
0.09
-0.02
-0.055
-0.12
-0.11
-0.06
0.035
0.075
0.1
0.055
0.08
0.065
-0.105
-0.165
-0.175
-0.04
0.13
-0.01
0.005
0.085
0.005
0.1
0.045
-0.12
-0.2
-0.015
0.015
0.04
0.11
0.15
0.075
-0.045
-0.1
-0.195
-0.08
0.03
0.065
0.05
0.095
-0.015
-0.06
-0.085
-0.07
-0.01
-0.03
0.09
0.17
0.24
0.435
0.335
0.23
-0.03
-0.165
-0.315
-0.395
-0.38
-0.48
-0.415
-0.375
-0.545
-0.42
-0.51
-0.57
-0.455
-0.49
-0.51
-0.375
-0.235
0.08
0.0
-0.055
-0.205
-0.205
-0.2
-0.19
-0.11
0.085
0.04
0.11
0.13
0.065
0.01
-0.13
-0.235
-0.055
0.04
0.305
0.08
0.165
0.145
0.03
-0.03
-0.07
-0.05
-0.275
-0.075
0.135
0.13
0.115
0.13
0.06
0.1
0.01
-0.06
-0.095
0.01
0.21
0.24
0.17
0.135
0.145
-0.09
-0.035
0.085
0.13
0.18
0.155
0.03
0.08
0.15
0.075
0.04
-0.045
0.105
0.125
0.15
0.245
0.3
0.305
0.255
0.15
-0.055
0.05
0.01
0.035
0.21
0.315
0.245
0.335
0.35
0.125
0.12
0.14
0.15
0.13
0.355
0.305
0.295
0.395
0.36
0.315
0.205
0.14
0.15
0.215
0.23
0.325
0.325
0.4
0.465
0.285
0.17
0.205
0.245
0.25
0.215
0.275
0.29
0.365
0.32
0.195
0.08
-0.065
0.15
0.205
0.21
0.165
0.235
0.165
0.3
0.235
-0.06
-0.09
-0.085
0.06
0.135
0.18
0.25
0.14
0.0
-0.13
-0.15
-0.26
0.01
0.055
0.01
0.175
0.26
0.16
-0.11
-0.155
-0.03
-0.135
-0.135
0.09
0.32
0.115
-0.04
-0.005
-0.075
-0.11
-0.115
-0.115
-0.125
-0.09
-0.075
0.045
0.06
0.08
0.155
0.03
-0.14
-0.2
-0.16
-0.045
0.16
0.25
0.145
-0.025
-0.01
-0.01
-0.03
-0.09
-0.15
-0.025
0.05
0.0
0.085
0.09
-0.005
-0.08
-0.03
0.05
0.085
0.01
-0.015
0.035
0.22
0.215
0.02
-0.06
-0.385
-0.26
-0.085
-0.005
0.035
0.175
0.265
0.195
-0.02
-0.15
-0.13
-0.145
-0.09
-0.01
0.1
0.125
0.09
0.1
-0.005
-0.205
-0.215
-0.05
0.1
0.175
0.075
0.22
0.0
0.005
-0.155
-0.2
-0.11
-0.065
-0.055
-0.1
0.12
0.05
0.14
0.135
-0.075
-0.095
-0.115
-0.135
-0.04
-0.035
-0.005
0.18
0.175
0.06
-0.035
-0.09
-0.085
-0.17
0.0
0.06
0.0
0.06
0.21
0.005
-0.015
-0.09
-0.085
-0.01
0.04
0.08
-0.01
0.05
0.03
0.145
-0.055
-0.05
0.01
-0.13
-0.09
-0.175
-0.09
0.1
0.225
0.095
-0.095
-0.025
-0.11
-0.055
-0.03
0.105
0.29
0.31
0.13
0.175
0.075
-0.08
-0.215
-0.17
-0.09
0.11
0.025
0.2
0.005
-0.02
-0.105
-0.17
-0.03
0.085
0.12
0.025
-0.02
-0.09
0.005
-0.055
-0.12
-0.07
-0.27
-0.19
0.005
0.04
-0.01
0.09
0.105
-0.07
-0.015
-0.065
-0.035
-0.14
0.04
0.105
0.03
0.14
0.28
-0.015
-0.18
-0.02
0.105
0.135
0.16
0.23
0.305
0.34
0.215
-0.135
-0.405
-0.53
-0.385
-0.19
-0.4
-0.405
-0.49
-0.485
-0.565
-0.58
-0.615
-0.62
-0.56
-0.405
-0.27
-0.215
-0.195
0.045
0.125
-0.105
-0.035
-0.15
-0.135
0.045
0.05
0.09
0.245
0.135
0.085
-0.05
-0.04
-0.075
-0.075
-0.005
0.07
0.19
0.3
0.115
0.0
-0.1
-0.18
-0.215
0.015
0.12
0.07
0.11
0.19
0.105
0.025
-0.05
-0.01
-0.12
-0.025
0.14
0.135
0.155
0.155
0.245
0.31
-0.02
-0.02
-0.1
-0.05
0.04
0.14
0.075
0.18
0.31
0.25
0.155
0.145
0.05
0.055
-0.05
-0.005
0.065
0.25
0.315
0.275
0.03
0.065
0.06
0.035
0.075
0.2
0.11
0.26
0.17
0.185
0.205
0.2
0.165
0.035
0.175
0.35
0.32
0.435
0.435
0.36
0.26
0.315
0.16
0.19
0.235
0.15
0.245
0.395
0.395
0.255
0.26
0.245
0.13
0.255
0.16
0.125
0.175
0.435
0.195
0.145
0.05
-0.03
-0.025
0.075
0.185
0.265
0.22
0.245
0.115
0.03
-0.03
0.035
-0.02
0.02
0.07
0.275
0.15
0.18
0.155
0.105
0.01
-0.065
-0.135
-0.125
-0.09
-0.065
0.025
-0.115
-0.105
0.02
0.02
0.095
-0.065
-0.135
-0.045
0.025
0.09
0.165
0.08
-0.105
-0.205
-0.04
-0.125
-0.105
-0.045
0.03
-0.025
-0.02
-0.03
0.075
0.205
0.06
-0.135
-0.1
0.0
0.17
0.345
0.21
-0.045
-0.26
-0.19
-0.115
-0.09
0.02
-0.025
-0.02
0.09
0.15
0.07
-0.16
-0.255
-0.01
0.025
-0.03
0.15
0.21
0.225
0.105
0.01
-0.04
-0.115
-0.02
-0.045
-0.05
0.02
0.13
0.24
0.175
0.125
-0.07
-0.06
0.04
0.03
-0.025
0.035
-0.06
0.155
0.11
0.145
-0.055
-0.025
-0.205
-0.135
0.04
0.115
0.015
0.135
0.155
0.135
-0.005
-0.08
-0.005
-0.105
-0.08
0.115
0.235
0.255
0.12
0.09
0.02
-0.025
-0.16
0.005
0.025
0.04
0.185
0.095
0.13
-0.03
0.02
0.05
-0.025
-0.07
0.005
0.085
0.19
0.05
-0.01
0.02
0.165
0.075
-0.125
0.05
0.095
0.075
0.11
0.165
0.13
0.115
0.015
0.015
-0.03
-0.015
0.04
0.19
0.115
0.275
0.065
0.09
0.02
-0.08
-0.125
0.01
0.125
0.15
0.135
0.355
0.255
0.06
-0.15
-0.13
-0.045
0.02
0.175
0.11
0.085
0.27
0.165
0.055
0.01
-0.045
-0.06
-0.17
-0.095
0.125
0.05
0.205
0.235
0.045
-0.06
-0.05
-0.1
0.075
0.035
0.1
0.295
0.205
0.085
-0.13
-0.135
-0.11
-0.155
0.02
0.06
0.05
0.2
0.195
0.265
0.065
0.14
0.055
0.02
0.02
0.155
0.135
0.165
0.21
-0.065
-0.405
-0.4
-0.435
-0.625
-0.455
-0.4
-0.37
-0.375
-0.235
-0.14
-0.22
-0.4
-0.48
-0.375
-0.3
-0.135
-0.07
0.16
0.27
0.1
-0.03
-0.095
-0.035
-0.12
-0.09
-0.055
-0.05
0.225
0.255
0.1
-0.09
-0.05
-0.105
-0.12
0.07
0.305
0.175
0.165
0.07
0.225
0.26
0.065
-0.08
0.02
0.01
0.13
0.185
0.195
0.205
0.15
0.105
0.135
-0.04
0.04
0.015
0.12
0.22
0.28
0.26
0.145
0.025
0.075
-0.02
0.055
0.005
0.175
0.3
0.28
0.22
0.01
-0.095
0.005
0.075
0.135
0.195
0.29
0.245
0.3
0.255
0.185
0.12
0.11
0.06
0.115
0.215
0.42
0.4
0.375
0.36
0.37
0.165
-0.005
0.055
0.165
0.435
0.64
0.345
0.25
0.255
0.21
0.1
0.06
0.06
0.31
0.34
0.375
0.43
0.405
0.42
0.27
0.22
0.195
0.1
0.075
0.275
0.37
0.31
0.345
0.22
0.11
0.185
0.15
0.005
0.205
0.26
0.155
0.07
0.265
0.2
-0.045
-0.095
0.11
0.045
0.005
-0.07
0.06
0.235
0.23
0.0
0.035
-0.045
-0.225
-0.115
0.05
0.05
0.135
0.27
0.285
0.065
0.06
0.0
-0.035
-0.105
-0.15
0.055
0.095
0.105
-0.02
0.04
-0.03
-0.11
-0.12
-0.205
-0.075
0.13
0.215
0.275
0.155
0.08
0.025
-0.155
-0.28
-0.155
-0.005
0.105
0.145
0.1
0.08
0.115
0.085
-0.085
-0.06
0.005
0.01
0.125
0.135
0.015
0.06
0.125
0.035
-0.09
-0.065
-0.065
0.04
0.14
0.15
-0.06
0.08
0.02
-0.11
-0.065
0.0
-0.01
-0.005
0.13
0.25
0.32
0.165
0.01
0.005
-0.135
-0.165
-0.01
-0.01
0.01
0.11
0.255
0.19
0.12
0.185
0.025
-0.145
-0.1
-0.075
-0.035
0.075
0.15
0.195
0.0
0.04
-0.05
-0.165
0.035
0.1
-0.04
0.15
0.2
0.13
0.06
-0.02
-0.125
-0.19
-0.085
0.08
0.135
0.125
0.3
0.195
-0.015
-0.12
-0.115
-0.035
0.135
0.17
0.225
0.245
0.21
0.095
0.265
0.035
0.07
-0.05
0.01
-0.075
0.085
0.19
0.13
0.195
0.155
0.125
0.26
0.04
0.065
0.13
0.245
0.295
0.35
0.185
0.07
-0.055
-0.115
-0.215
-0.15
0.065
0.185
0.26
0.415
0.205
0.125
0.0
-0.055
-0.125
0.005
0.18
0.205
0.025
-0.015
0.12
0.105
-0.02
-0.07
0.01
0.065
0.05
0.045
0.185
0.17
0.105
0.07
0.01
-0.05
0.06
-0.01
0.175
0.28
0.24
0.29
0.195
0.195
0.09
-0.045
-0.015
-0.02
0.17
0.055
-0.02
-0.12
-0.215
-0.305
-0.505
-0.605
-0.68
-0.475
-0.35
-0.27
-0.215
-0.165
-0.29
-0.3
-0.15
-0.33
-0.29
-0.1
0.135
0.285
0.185
0.165
0.13
0.055
-0.045
0.01
0.05
0.045
0.08
0.185
0.265
0.105
0.175
-0.055
-0.05
0.03
0.02
0.03
0.24
0.24
0.38
0.435
0.115
-0.1
-0.135
-0.09
0.065
0.16
0.12
0.21
0.27
0.25
0.125
0.0
0.02
-0.02
0.07
0.175
0.3
0.235
0.275
0.21
0.255
0.105
0.145
0.07
0.045
0.115
0.35
0.38
0.25
0.2
0.235
0.13
0.155
0.105
0.1
0.155
0.265
0.2
0.23
0.16
0.255
0.285
0.225
0.065
0.14
0.155
0.295
0.29
0.475
0.5
0.32
0.23
0.1
-0.03
0.255
0.37
0.415
0.495
0.49
0.46
0.34
0.165
0.215
0.165
0.22
0.315
0.34
0.41
0.5
0.365
0.165
0.14
0.175
0.185
0.29
0.285
0.26
0.305
0.365
0.24
0.155
0.29
0.205
0.035
-0.015
-0.035
0.2
0.285
0.28
0.155
0.075
0.07
-0.07
-0.075
0.065
0.185
0.23
0.195
0.26
0.165
0.055
0.05
-0.1
-0.115
-0.015
0.1
0.17
0.34
0.325
0.155
0.11
0.065
-0.235
-0.18
0.125
0.13
0.06
0.115
0.185
0.335
0.055
-0.115
-0.165
-0.17
0.055
0.09
0.165
0.325
0.255
0.105
-0.075
-0.025
0.07
0.01
0.055
0.105
0.045
0.145
0.295
0.095
0.01
0.05
-0.06
-0.1
0.035
0.135
0.14
0.225
0.17
0.165
-0.175
-0.215
-0.11
0.02
0.07
0.195
0.095
0.205
0.025
0.08
0.01
-0.005
-0.07
-0.055
0.08
0.145
0.2
0.275
0.225
0.01
-0.08
-0.01
0.08
0.055
0.14
0.26
0.235
0.175
0.075
0.04
-0.085
-0.065
-0.005
0.02
0.01
0.095
0.19
0.24
0.175
0.15
-0.04
0.04
0.03
-0.07
0.015
0.07
0.12
0.095
0.09
0.0
-0.005
0.145
0.05
0.025
0.09
0.14
0.085
0.2
0.2
0.105
-0.015
-0.155
-0.195
-0.05
0.12
0.3
0.295
0.245
0.18
0.15
0.015
-0.095
-0.19
0.0
0.005
0.165
0.225
0.195
0.16
0.105
0.025
0.0
-0.045
0.075
0.13
0.27
0.305
0.255
0.145
0.0
-0.005
0.03
-0.32
-0.07
-0.025
0.165
0.44
0.435
0.1
0.085
0.075
-0.095
-0.03
-0.03
0.13
0.14
0.145
0.045
0.115
0.155
0.06
-0.04
-0.135
-0.05
0.07
0.22
0.145
0.115
0.09
-0.06
-0.01
-0.09
-0.06
0.065
0.14
0.13
0.185
0.08
-0.055
-0.03
0.085
0.115
0.27
0.16
0.13
0.25
0.385
0.29
0.135
0.015
-0.005
-0.15
-0.225
-0.17
-0.23
-0.255
-0.245
-0.285
-0.5
-0.55
-0.435
-0.335
-0.195
-0.075
-0.12
-0.285
0.0
0.075
-0.035
-0.065
-0.055
-0.095
-0.07
-0.035
0.01
0.035
0.045
-0.045
-0.065
0.07
0.03
-0.065
0.09
0.2
0.31
0.435
0.445
0.36
0.22
0.035
0.07
0.005
0.08
0.14
0.505
0.735
0.605
0.355
0.29
0.22
0.14
-0.035
0.16
0.295
0.44
0.415
0.325
0.09
0.09
0.175
0.165
0.085
0.03
0.135
0.36
0.315
0.265
0.27
0.14
0.16
0.14
0.1
0.135
0.29
0.45
0.41
0.41
0.285
0.265
0.25
0.255
0.14
0.165
0.33
0.365
0.37
0.65
0.455
0.3
0.18
0.16
0.045
0.1
0.28
0.475
0.595
0.485
0.555
0.26
0.105
0.185
0.3
0.135
0.305
0.51
0.59
0.515
0.385
0.385
0.215
0.195
0.32
0.24
0.28
0.39
0.48
0.475
0.425
0.21
0.095
0.075
0.12
0.26
0.355
0.43
0.365
0.445
0.43
0.265
0.18
0.09
0.03
0.14
0.18
0.25
0.29
0.335
0.215
0.15
0.115
0.0
0.115
0.14
0.195
0.195
0.38
0.29
0.155
0.085
0.015
-0.055
0.055
0.24
0.245
0.235
0.25
0.13
0.085
0.105
0.3
0.305
0.295
0.31
0.26
0.11
0.08
0.0
0.055
0.065
0.055
0.07
0.18
0.23
0.135
0.17
0.255
0.22
0.09
-0.07
0.03
0.075
0.03
-0.06
0.195
0.35
0.305
0.275
0.33
0.125
-0.035
-0.13
0.15
0.06
0.3
0.285
0.28
0.22
-0.015
0.04
-0.005
-0.03
0.11
0.215
0.26
0.09
0.15
0.095
0.095
-0.035
-0.045
-0.105
-0.055
0.045
0.24
0.22
0.23
0.235
0.105
0.055
0.075
-0.015
-0.005
-0.045
0.075
0.15
0.305
0.385
0.135
0.03
0.03
-0.09
0.005
0.055
0.08
0.25
0.275
0.27
0.04
-0.11
0.03
-0.01
0.02
0.095
0.195
0.195
0.17
0.265
0.235
0.165
0.06
-0.12
-0.025
-0.09
0.05
0.365
0.265
0.235
0.175
0.025
-0.005
0.065
0.125
0.215
0.32
0.16
0.225
0.25
0.12
0.19
0.19
0.06
0.105
0.21
0.345
0.51
0.475
0.32
0.2
0.05
0.035
0.095
0.135
0.285
0.35
0.4
0.325
0.23
0.155
0.17
0.135
0.09
0.11
0.26
0.4
0.385
0.395
0.215
0.17
0.095
0.095
0.105
0.26
0.21
0.225
0.245
0.305
0.24
0.06
-0.015
0.06
0.215
0.31
0.285
0.355
0.38
0.355
0.3
0.195
0.105
0.09
0.22
0.135
0.21
0.355
0.41
0.29
0.155
0.18
0.165
0.115
0.165
0.275
0.385
0.5
0.54
0.47
0.42
0.355
0.24
0.06
0.03
-0.14
-0.03
-0.07
0.015
-0.27
-0.395
-0.295
-0.295
-0.36
-0.385
-0.08
0.045
0.13
0.1
-0.095
0.04
0.095
0.13
0.225
0.03
0.225
0.375
0.245
0.245
0.26
0.305
0.205
0.145
0.07
0.1
0.295
0.45
0.415
0.28
0.2
0.255
0.13
0.075
0.095
0.115
0.255
0.34
0.32
0.335
0.275
0.165
0.205
0.115
0.09
0.22
0.47
0.445
0.26
0.21
0.3
0.25
0.25
0.255
0.235
0.42
0.255
0.28
0.335
0.545
0.47
0.325
0.305
0.25
0.155
0.2
0.295
0.285
0.385
0.555
0.445
0.345
0.16
0.26
0.275
0.245
0.385
0.51
0.61
0.495
0.36
0.345
0.27
0.275
0.41
0.29
0.3
0.59
0.73
0.68
0.41
0.23
0.235
0.415
0.4
0.36
0.41
0.53
0.615
0.525
0.48
0.375
0.395
0.385
0.51
0.49
0.48
0.51
0.63
0.56
0.495
0.385
0.355
0.33
0.325
0.43
0.525
0.48
0.51
0.325
0.28
0.35
0.12
0.05
0.17
0.06
0.075
0.33
0.505
0.505
0.335
0.19
0.08
0.06
0.15
0.23
0.225
0.47
0.425
0.37
0.26
0.085
0.02
0.07
0.125
0.185
0.425
0.265
0.315
0.315
0.175
0.155
0.165
0.13
0.11
0.18
0.255
0.27
0.455
0.46
0.22
0.02
0.01
0.01
0.08
0.19
0.32
0.335
0.355
0.395
0.31
0.125
0.08
0.11
0.23
0.2
0.22
0.25
0.495
0.485
0.27
0.13
0.085
0.03
0.04
0.315
0.27
0.325
0.265
0.36
0.37
0.25
-0.015
-0.065
0.09
0.18
0.335
0.24
0.295
0.235
0.32
0.21
0.27
0.175
0.155
0.255
0.36
0.335
0.365
0.255
0.18
0.17
0.185
0.14
0.245
0.26
0.27
0.365
0.4
0.385
0.23
0.145
0.05
0.025
0.1
0.245
0.37
0.435
0.47
0.44
0.245
-0.025
0.055
0.06
0.06
0.315
0.345
0.44
0.33
0.4
0.245
0.08
0.09
0.17
0.12
0.2
0.17
0.25
0.33
0.355
0.155
0.085
0.105
0.275
0.27
0.205
0.34
0.495
0.535
0.415
0.18
0.07
-0.01
0.025
0.15
0.35
0.345
0.33
0.47
0.47
0.37
0.25
0.065
0.07
0.195
0.29
0.26
0.25
0.35
0.36
0.255
0.23
-0.025
0.03
0.065
0.18
0.34
0.275
0.43
0.215
0.105
0.135
0.135
0.16
0.265
0.38
0.38
0.335
0.295
0.2
0.2
0.02
-0.085
-0.03
0.215
0.47
0.44
0.345
0.36
0.235
0.255
0.28
0.13
0.19
0.315
0.405
0.53
0.495
0.455
0.25
-0.065
-0.33
-0.315
-0.255
-0.115
0.05
-0.055
-0.075
-0.185
-0.265
-0.23
-0.295
-0.355
-0.16
-0.06
0.11
0.195
0.405
0.395
0.19
0.105
-0.05
0.005
0.015
0.15
0.335
0.41
0.32
0.2
0.135
0.19
0.22
0.22
0.135
0.3
0.38
0.42
0.46
0.275
0.155
0.22
0.235
0.17
0.07
0.21
0.435
0.54
0.5
0.485
0.395
0.35
0.32
0.27
0.37
0.425
0.25
0.22
0.285
0.25
0.11
0.16
0.23
0.175
0.105
0.29
0.47
0.42
0.425
0.375
0.29
0.235
0.095
0.115
0.43
0.61
0.62
0.59
0.55
0.315
0.28
0.305
0.21
0.305
0.45
0.43
0.49
0.615
0.695
0.55
0.345
0.275
0.32
0.435
0.47
0.275
0.425
0.64
0.68
0.55
0.53
0.4
0.285
0.255
0.36
0.425
0.505
0.76
0.61
0.42
0.535
0.495
0.405
0.37
0.36
0.45
0.545
0.58
0.55
0.57
0.39
0.255
0.315
0.29
0.3
0.39
0.45
0.54
0.495
0.43
0.235
0.245
0.2
0.14
0.235
0.31
0.265
0.345
0.31
0.145
0.11
0.165
0.085
0.22
0.285
0.3
0.32
0.365
0.305
0.195
0.09
0.155
0.105
0.145
0.3
0.43
0.245
0.41
0.315
0.1
0.01
0.07
0.115
0.185
0.195
0.33
0.305
0.345
0.425
0.325
0.22
0.085
0.03
0.175
0.26
0.265
0.285
0.395
0.29
0.08
0.12
0.185
0.075
0.15
0.18
0.36
0.385
0.395
0.14
0.14
0.105
0.28
0.26
0.135
0.22
0.28
0.29
0.43
0.34
0.17
0.165
0.105
0.15
0.205
0.255
0.255
0.235
0.295
0.355
0.255
0.195
0.06
0.155
0.27
0.265
0.27
0.235
0.325
0.245
0.355
0.115
-0.025
0.135
0.19
0.195
0.4
0.44
0.33
0.365
0.155
0.165
0.135
0.045
0.215
0.275
0.415
0.37
0.435
0.34
0.115
0.135
0.105
0.075
0.14
0.245
0.3
0.315
0.3
0.31
0.2
0.175
0.105
0.15
0.19
0.335
0.32
0.41
0.34
0.255
0.225
0.13
0.09
-0.01
0.16
0.31
0.345
0.355
0.275
0.235
0.18
0.135
0.015
0.065
0.11
0.355
0.455
0.5
0.33
0.25
0.195
0.2
0.015
0.125
0.485
0.5
0.36
0.355
0.235
0.22
0.19
0.085
0.05
0.07
0.22
0.205
0.355
0.49
0.4
0.32
0.265
0.195
0.13
0.18
0.205
0.28
0.315
0.415
0.435
0.3
0.165
0.205
0.035
0.195
0.38
0.27
0.245
0.295
0.385
0.265
0.14
0.14
-0.045
0.0
0.215
0.495
0.35
0.325
0.27
0.275
0.165
0.16
0.165
0.115
0.185
0.18
0.3
0.415
0.315
0.165
0.06
0.165
0.215
0.115
0.21
0.32
0.4
0.39
0.305
0.315
0.245
0.255
0.245
0.235
0.34
0.405
0.295
0.18
0.1
-0.135
-0.245
-0.315
-0.355
-0.43
-0.265
-0.16
-0.065
-0.105
-0.055
-0.14
-0.085
-0.02
-0.09
-0.1
0.05
0.195
0.425
0.36
0.31
0.175
0.09
0.135
0.2
0.285
0.26
0.245
0.32
0.315
0.42
0.365
0.255
0.09
0.1
0.16
0.21
0.34
0.405
0.36
0.38
0.15
0.265
0.275
0.155
0.11
0.3
0.475
0.5
0.28
0.285
0.205
0.2
0.225
0.21
0.265
0.37
0.385
0.525
0.485
0.35
0.21
0.235
0.165
0.14
0.39
0.475
0.425
0.4
0.28
0.375
0.37
0.305
0.135
0.125
0.295
0.405
0.485
0.47
0.385
0.415
0.345
0.23
0.195
0.485
0.465
0.545
0.565
0.59
0.59
0.425
0.26
0.35
0.3
0.285
0.44
0.63
0.535
0.565
0.59
0.435
0.375
0.3
0.45
0.45
0.43
0.53
0.45
0.54
0.64
0.525
0.43
0.38
0.24
0.32
0.385
0.535
0.55
0.585
0.48
0.32
0.325
0.37
0.42
0.335
0.21
0.165
0.395
0.39
0.285
0.195
0.295
0.4
0.245
0.265
0.24
0.245
0.305
0.37
0.335
0.205
0.13
0.145
0.135
0.085
0.26
0.295
0.275
0.265
0.375
0.16
0.2
0.095
0.125
0.085
0.15
0.31
0.535
0.46
0.165
0.21
0.19
0.075
0.06
0.05
0.205
0.295
0.385
0.41
0.285
0.15
0.12
0.125
0.13
0.115
0.245
0.25
0.33
0.42
0.32
0.22
0.14
0.08
0.165
0.155
0.22
0.32
0.33
0.3
0.245
0.21
0.09
0.045
0.13
0.225
0.33
0.205
0.35
0.355
0.2
0.07
0.18
0.235
0.19
0.165
0.16
0.27
0.34
0.335
0.41
0.25
0.185
0.095
0.11
0.07
0.145
0.26
0.23
0.38
0.325
0.21
0.11
0.1
0.17
0.255
0.31
0.24
0.3
0.32
0.305
0.195
0.02
-0.035
0.245
0.29
0.36
0.41
0.39
0.34
0.19
0.185
0.195
-0.08
0.12
0.17
0.225
0.27
0.29
0.365
0.225
0.01
0.145
0.2
-0.01
0.06
0.125
0.255
0.34
0.1
0.06
0.06
0.04
-0.08
-0.125
0.05
0.215
0.165
0.18
0.02
-0.05
-0.04
0.04
-0.12
-0.24
-0.065
0.06
-0.135
0.045
0.06
-0.055
-0.19
-0.375
-0.355
-0.21
-0.195
-0.15
-0.22
-0.23
-0.225
-0.35
-0.445
-0.35
-0.425
-0.51
-0.405
-0.235
-0.305
-0.27
-0.305
-0.365
-0.445
-0.38
-0.34
-0.305
-0.09
-0.115
-0.03
-0.015
-0.125
-0.185
-0.245
-0.225
-0.115
-0.06
-0.09
-0.005
0.1
0.115
0.04
-0.07
-0.14
-0.32
-0.405
-0.15
0.0
0.1
0.15
0.08
-0.01
-0.09
-0.085
-0.03
-0.06
-0.055
0.025
0.12
0.18
0.02
-0.02
0.075
-0.005
-0.065
-0.205
-0.095
0.145
0.255
0.215
0.325
0.195
-0.01
-0.025
0.03
0.11
0.27
0.36
0.355
0.1
0.125
0.12
0.015
-0.12
-0.24
-0.245
-0.195
-0.055
-0.085
-0.22
-0.43
-0.425
-0.43
-0.54
-0.59
-0.495
-0.455
-0.09
0.135
0.13
0.145
0.075
0.03
0.22
0.025
-0.025
0.065
0.175
0.165
0.215
0.23
0.225
0.115
0.06
0.05
0.035
0.25
0.365
0.155
-0.08
0.15
0.155
0.15
0.055
0.085
0.105
0.285
0.345
0.32
0.26
0.15
0.115
0.11
0.195
0.09
0.06
0.155
0.325
0.245
0.4
0.44
0.36
0.155
0.05
0.015
0.18
0.175
0.25
0.255
0.39
0.385
0.36
0.225
0.095
0.125
0.18
0.205
0.34
0.485
0.495
0.365
0.285
0.215
0.175
-0.045
0.09
0.16
0.375
0.395
0.42
0.61
0.36
0.115
0.3
0.4
0.365
0.425
0.505
0.595
0.44
0.47
0.26
0.22
0.205
0.28
0.35
0.475
0.475
0.615
0.61
0.45
0.325
0.41
0.32
0.44
0.35
0.38
0.365
0.29
0.51
0.52
0.385
0.175
0.225
0.405
0.345
0.225
0.21
0.355
0.4
0.355
0.24
0.145
0.145
0.07
0.21
0.26
0.24
0.25
0.335
0.19
0.235
0.13
0.085
0.175
0.265
0.245
0.195
0.28
0.33
0.225
0.125
-0.03
-0.22
-0.05
0.125
0.26
0.225
0.35
0.3
0.215
0.145
0.04
-0.09
0.085
0.15
0.18
0.265
0.335
0.44
0.24
0.015
0.03
0.045
0.145
0.24
0.2
0.17
0.225
0.3
0.285
0.1
0.115
0.02
0.025
0.115
0.17
0.14
0.325
0.215
0.195
0.155
0.165
0.09
0.175
0.035
0.18
0.26
0.325
0.24
0.15
0.155
0.17
-0.16
-0.045
0.225
0.34
0.435
0.395
0.26
0.065
0.065
0.17
-0.13
0.07
0.295
0.455
0.545
0.28
0.115
-0.03
-0.005
0.005
-0.01
0.085
0.22
0.305
0.355
0.355
0.32
0.115
0.215
0.095
-0.18
0.0
0.145
0.195
0.295
0.42
0.33
0.215
0.135
0.065
-0.005
0.05
0.245
0.2
0.365
0.355
0.255
0.105
0.105
0.015
0.17
-0.03
0.23
0.405
0.39
0.285
0.21
0.15
0.055
0.07
0.01
0.04
0.165
0.265
0.22
0.235
0.28
0.315
0.125
-0.075
-0.03
0.095
0.14
0.185
0.255
0.385
0.38
0.105
0.03
0.045
0.085
0.25
0.31
0.09
0.17
0.2
0.165
0.245
0.33
0.035
-0.075
0.105
0.26
0.28
0.165
0.205
0.285
0.045
-0.015
0.08
0.135
0.13
0.275
0.315
0.405
0.245
0.16
0.155
0.175
0.05
0.07
0.145
0.265
0.21
0.4
0.46
0.36
0.205
0.13
0.125
0.15
0.17
0.155
0.185
0.3
0.33
0.21
-0.025
-0.05
-0.18
0.26
0.25
0.21
0.18
0.245
0.24
0.305
0.21
0.14
0.005
0.045
0.17
0.36
0.325
0.375
0.2
0.23
0.115
-0.01
-0.025
0.025
0.05
0.145
0.245
0.235
0.28
0.285
0.255
0.145
0.125
0.11
0.265
0.33
0.285
0.09
0.01
0.1
0.18
0.2
0.15
0.245
0.365
0.415
0.39
0.415
0.15
0.06
0.03
-0.095
-0.305
-0.315
-0.26
-0.315
-0.26
-0.2
-0.21
-0.25
-0.235
-0.275
-0.24
-0.15
0.06
0.095
0.2
0.265
0.25
0.22
0.11
-0.005
-0.12
0.035
0.22
0.18
0.23
0.31
0.295
0.195
0.14
0.105
0.205
0.19
0.215
0.32
0.4
0.55
0.39
0.155
0.02
0.105
0.12
0.09
0.27
0.35
0.525
0.45
0.43
0.19
0.09
0.065
0.11
0.09
0.28
0.34
0.265
0.445
0.4
0.27
0.205
0.135
0.18
0.2
0.34
0.425
0.46
0.38
0.295
0.175
0.085
0.11
0.22
0.255
0.285
0.455
0.515
0.365
0.355
0.285
0.4
0.255
0.205
0.28
0.45
0.54
0.535
0.465
0.36
0.23
0.295
0.19
0.265
0.325
0.52
0.515
0.6
0.62
0.535
0.345
0.3
0.3
0.375
0.53
0.555
0.485
0.515
0.535
0.475
0.375
0.29
0.185
0.31
0.34
0.48
0.575
0.525
0.6
0.44
0.37
0.285
0.19
0.41
0.285
0.22
0.38
0.39
0.23
0.205
0.17
0.225
0.155
0.22
0.205
0.19
0.25
0.335
0.285
0.105
0.125
0.125
0.07
0.085
0.25
0.2
0.395
0.525
0.315
0.05
0.06
0.015
-0.06
0.15
0.265
0.195
0.21
0.41
0.23
0.11
0.045
-0.035
0.09
0.075
0.27
0.225
0.24
0.17
0.21
0.16
0.075
0.115
-0.03
0.045
0.2
0.26
0.31
0.325
0.28
0.265
0.13
0.085
0.06
0.005
0.145
0.3
0.305
0.27
0.22
0.25
0.0
0.045
0.11
0.135
0.155
0.3
0.195
0.14
0.115
0.01
0.08
0.145
0.195
0.13
0.15
0.2
0.3
0.245
0.235
0.245
0.2
0.145
0.14
0.14
0.25
0.23
0.265
0.35
0.335
0.18
-0.005
-0.08
0.03
0.135
0.28
0.21
0.245
0.215
0.14
0.05
0.12
0.01
-0.055
-0.005
0.215
0.215
0.39
0.33
0.215
0.31
0.285
0.095
0.105
0.17
0.16
0.185
0.34
0.31
0.115
-0.02
0.03
0.025
0.1
0.225
0.225
0.28
0.315
0.245
0.15
0.11
-0.015
-0.045
0.07
0.12
0.215
0.34
0.405
0.335
0.275
0.025
-0.065
-0.01
0.095
0.185
0.155
0.245
0.43
0.325
0.205
0.09
0.15
0.165
0.085
0.11
0.235
0.285
0.335
0.305
0.24
0.035
0.025
-0.065
0.125
0.16
0.225
0.225
0.245
0.22
0.26
0.07
0.06
0.1
0.15
0.2
0.215
0.19
0.49
0.345
0.24
0.14
0.015
-0.005
0.25
0.27
0.255
0.285
0.335
0.395
0.265
0.08
0.15
0.16
0.06
0.09
0.19
0.25
0.275
0.275
0.215
-0.04
-0.02
0.055
0.145
0.25
0.295
0.26
0.335
0.19
0.14
0.035
0.015
-0.015
0.15
0.235
0.205
0.31
0.345
0.3
0.295
0.11
0.045
-0.035
-0.01
0.285
0.345
0.44
0.445
0.305
-0.09
-0.105
0.015
0.13
0.14
0.305
0.315
0.365
0.405
0.435
0.275
-0.005
0.035
-0.085
-0.18
-0.1
-0.04
-0.135
-0.155
-0.095
-0.265
-0.42
-0.47
-0.465
-0.335
-0.06
0.01
0.15
0.145
0.065
-0.125
-0.145
-0.085
0.11
0.175
0.22
0.295
0.28
0.255
0.11
0.19
0.15
0.02
0.09
0.24
0.315
0.24
0.36
0.34
0.3
0.175
0.045
0.085
0.195
0.245
0.375
0.33
0.38
0.35
0.23
0.245
0.22
0.04
0.04
0.21
0.37
0.4
0.365
0.295
0.24
0.12
0.1
0.055
0.17
0.28
0.345
0.41
0.375
0.34
0.27
0.125
0.21
0.135
0.26
0.245
0.335
0.365
0.475
0.41
0.355
0.335
0.28
0.185
0.225
0.365
0.49
0.44
0.45
0.435
0.35
0.345
0.255
0.23
0.185
0.195
0.34
0.45
0.575
0.485
0.325
0.375
0.545
0.365
0.245
0.33
0.615
0.585
0.585
0.495
0.395
0.29
0.17
0.205
0.325
0.42
0.59
0.675
0.605
0.38
0.3
0.28
0.245
0.245
0.19
0.405
0.535
0.475
0.345
0.34
0.24
0.105
0.155
0.085
0.16
0.215
0.29
0.345
0.395
0.335
0.215
0.075
-0.08
-0.01
0.2
0.16
0.265
0.39
0.31
0.24
0.16
-0.055
-0.085
0.075
0.205
0.26
0.32
0.39
0.295
0.21
0.09
0.015
-0.045
0.065
0.17
0.29
0.12
0.22
0.095
0.05
0.035
0.175
0.075
0.16
0.195
0.185
0.28
0.32
0.405
0.375
0.06
-0.01
-0.125
-0.045
0.045
0.29
0.245
0.355
0.345
0.21
0.125
0.035
-0.08
0.195
0.165
0.175
0.23
0.2
0.2
0.24
0.07
0.07
0.155
0.215
0.055
0.09
0.215
0.355
0.32
0.245
0.13
0.025
0.065
0.04
0.235
0.34
0.265
0.235
0.205
0.285
0.125
0.105
0.075
0.05
0.075
0.205
0.27
0.325
0.2
0.185
0.21
0.08
-0.01
0.04
0.155
0.24
0.27
0.385
0.255
0.09
0.02
0.03
0.01
0.205
0.225
0.285
0.285
0.385
0.29
0.235
0.195
-0.07
-0.015
-0.055
0.13
0.275
0.355
0.32
0.235
0.185
0.16
-0.065
-0.14
-0.01
0.14
0.32
0.39
0.2
0.155
0.14
0.21
0.09
0.02
0.15
0.075
0.335
0.345
0.315
0.25
0.145
0.06
0.085
-0.08
0.0
0.3
0.385
0.3
0.32
0.23
0.1
0.13
-0.025
0.065
0.095
0.205
0.24
0.35
0.28
0.105
0.07
0.03
0.01
-0.025
0.075
0.22
0.32
0.3
0.335
0.2
0.1
0.045
0.06
0.12
0.145
0.185
0.26
0.27
0.35
0.235
0.1
0.06
0.08
0.14
0.16
0.125
0.27
0.38
0.405
0.17
0.085
0.18
0.1
0.05
0.06
0.13
0.35
0.355
0.325
0.21
0.16
0.11
-0.005
0.08
0.125
0.19
0.22
0.325
0.27
0.18
0.1
0.095
0.025
0.035
0.15
0.27
0.305
0.28
0.17
0.22
-0.03
0.045
-0.01
0.02
0.08
0.235
0.205
0.155
0.2
0.175
0.155
0.11
0.04
-0.025
0.125
0.37
0.24
0.44
0.47
0.36
0.08
0.22
0.28
0.075
0.06
0.005
0.02
0.015
-0.05
-0.225
-0.33
-0.455
-0.52
-0.455
-0.28
-0.2
-0.075
-0.01
0.025
-0.04
-0.09
-0.145
-0.135
-0.14
-0.005
0.07
0.255
0.4
0.21
0.1
0.17
0.01
-0.095
0.075
0.085
0.28
0.35
0.405
0.3
0.225
0.085
0.095
0.02
0.145
0.22
0.27
0.4
0.455
0.38
0.15
0.095
0.015
0.11
0.14
0.185
0.365
0.345
0.335
0.355
0.23
0.27
0.215
0.085
0.22
0.15
0.23
0.235
0.215
0.21
0.13
0.175
0.145
0.115
0.165
0.255
0.305
0.435
0.48
0.39
0.25
0.205
0.26
0.145
0.12
0.35
0.47
0.535
0.435
0.24
0.17
0.315
0.28
0.285
0.28
0.36
0.405
0.445
0.52
0.47
0.3
0.34
0.39
0.35
0.3
0.245
0.25
0.475
0.4
0.405
0.295
0.24
0.325
0.38
0.29
0.405
0.54
0.585
0.565
0.53
0.38
0.275
0.25
0.265
0.27
0.49
0.49
0.5
0.425
0.295
0.185
0.22
0.105
0.1
0.14
0.24
0.255
0.315
0.36
0.125
-0.065
-0.06
-0.025
0.095
0.175
0.145
0.185
0.515
0.26
0.05
0.06
0.155
0.15
0.245
0.275
0.21
0.265
0.33
0.265
0.105
-0.025
0.025
0.075
0.105
0.22
0.095
0.185
0.25
0.21
0.18
0.03
-0.025
-0.04
-0.035
-0.115
-0.015
0.195
0.23
0.27
0.18
0.025
0.02
-0.09
0.07
0.15
0.195
0.25
0.49
0.46
0.285
0.125
0.11
-0.095
-0.005
0.22
0.25
0.27
0.2
0.23
0.13
0.085
0.165
0.115
0.045
0.245
0.195
0.285
0.31
0.31
0.095
0.05
-0.06
-0.035
-0.075
0.16
0.265
0.33
0.325
0.255
0.03
0.075
-0.03
0.06
0.025
0.135
0.225
0.32
0.32
0.22
0.095
0.005
-0.055
0.07
0.21
0.105
0.135
0.325
0.325
0.24
0.11
0.065
0.025
0.08
0.115
0.28
0.33
0.445
0.39
0.2
0.165
0.04
-0.195
-0.03
0.08
0.34
0.37
0.29
0.24
0.16
-0.015
0.055
0.0
-0.03
0.06
0.305
0.255
0.315
0.205
0.13
0.085
0.045
0.1
0.045
0.175
0.205
0.12
0.22
0.26
0.245
0.11
0.07
0.055
0.31
0.515
0.165
0.205
0.275
0.145
0.12
0.12
0.17
0.14
0.075
0.25
0.235
0.305
0.315
0.355
0.16
0.055
0.025
-0.045
0.035
0.025
0.075
0.13
0.38
0.28
0.075
0.04
0.105
0.03
0.055
0.225
0.225
0.26
0.28
0.225
0.08
0.07
0.01
-0.01
0.11
0.14
0.33
0.18
0.285
0.2
0.34
0.04
-0.135
-0.125
0.01
0.23
0.365
0.255
0.165
0.17
0.065
-0.035
0.04
0.11
0.25
0.21
0.215
0.425
0.39
0.355
0.295
0.125
0.09
0.12
-0.06
0.03
-0.015
0.055
0.07
-0.13
-0.47
-0.43
-0.325
-0.34
-0.245
-0.215
-0.175
-0.015
-0.12
-0.105
-0.15
-0.12
-0.195
-0.085
-0.075
0.075
0.16
0.205
0.28
0.22
0.175
0.06
-0.005
0.075
0.145
0.2
0.305
0.315
0.24
0.25
0.205
0.19
0.145
0.11
0.115
0.31
0.325
0.33
0.41
0.2
-0.035
0.145
0.045
0.03
0.015
0.42
0.38
0.335
0.245
0.27
0.12
0.075
0.09
0.165
0.315
0.27
0.255
0.285
0.3
0.35
0.26
0.22
0.09
0.155
0.16
0.325
0.36
0.51
0.515
0.26
0.225
0.2
0.16
0.115
0.23
0.275
0.445
0.5
0.395
0.325
0.13
0.03
0.09
0.45
0.465
0.39
0.47
0.52
0.515
0.4
0.22
0.38
0.205
0.21
0.435
0.54
0.62
0.565
0.51
0.425
0.295
0.385
0.44
0.285
0.385
0.495
0.44
0.51
0.365
0.42
0.315
0.18
0.255
0.195
0.395
0.535
0.4
0.38
0.33
0.285
0.215
0.095
-0.135
0.03
0.21
0.205
0.23
0.25
0.21
0.345
0.235
0.05
-0.1
-0.035
0.08
0.25
0.51
0.415
0.325
0.215
0.16
0.055
-0.025
0.015
0.05
0.29
0.065
0.3
0.2
0.115
0.015
-0.045
-0.18
0.01
0.03
0.26
0.19
0.1
0.11
-0.035
0.05
-0.06
-0.085
0.08
0.19
0.195
0.21
0.235
0.085
-0.02
-0.005
0.04
-0.11
-0.065
0.095
0.165
0.325
0.32
0.28
0.12
0.015
-0.065
0.005
0.0
-0.01
0.145
0.245
0.26
0.16
-0.05
-0.06
-0.035
-0.1
0.025
0.17
0.05
0.09
0.21
0.19
0.03
-0.165
-0.215
0.04
0.14
0.135
0.35
0.225
0.135
0.09
0.13
0.105
-0.065
-0.1
0.03
0.22
0.225
0.135
0.165
0.025
-0.04
0.045
-0.055
-0.045
0.045
0.22
0.18
0.29
0.115
0.02
-0.065
-0.245
-0.14
0.13
0.065
0.125
0.21
0.26
0.105
0.075
0.065
0.0
-0.02
-0.105
-0.025
0.22
0.365
0.27
0.25
0.11
0.01
-0.03
-0.02
0.015
0.045
0.1
0.0
0.235
0.22
0.055
0.085
0.015
-0.15
-0.06
0.105
0.16
0.055
0.135
0.115
0.12
0.005
-0.04
-0.01
-0.025
0.01
0.27
0.25
0.195
0.21
0.02
-0.005
0.095
0.035
0.065
0.045
0.14
0.205
0.25
0.16
0.065
0.075
0.03
-0.07
-0.065
0.115
0.3
0.4
0.37
0.17
0.055
-0.095
-0.175
-0.18
-0.095
0.025
0.105
0.175
0.11
0.13
0.095
0.065
-0.2
-0.23
-0.06
0.01
0.19
0.195
0.175
0.21
0.04
-0.045
-0.135
-0.11
-0.04
0.045
0.135
0.215
0.13
0.075
0.0
-0.02
-0.135
-0.07
0.065
0.06
0.01
0.145
0.235
0.08
-0.065
-0.015
-0.005
0.07
0.2
0.145
0.065
0.305
0.2
0.21
-0.085
-0.445
-0.49
-0.405
-0.43
-0.28
-0.305
-0.29
-0.395
-0.305
-0.425
-0.485
-0.425
-0.365
-0.255
-0.29
-0.125
0.015
0.085
-0.065
-0.2
-0.19
-0.21
-0.055
-0.02
0.08
0.09
0.175
0.135
0.035
-0.05
-0.05
-0.135
-0.04
0.06
0.12
0.11
0.13
-0.025
-0.035
-0.035
-0.225
-0.02
-0.09
-0.225
0.01
0.275
0.315
0.185
0.06
0.025
0.025
-0.005
-0.1
0.055
0.1
0.215
0.2
0.125
0.125
-0.005
-0.035
-0.13
-0.085
0.13
0.145
0.16
0.275
0.2
0.19
0.02
0.045
-0.135
-0.07
0.06
0.105
0.115
0.18
0.23
0.135
0.105
-0.01
-0.03
-0.03
0.115
0.24
0.27
0.285
0.16
0.085
0.11
0.09
-0.005
0.175
0.32
0.28
0.33
0.365
0.355
0.285
0.04
0.035
0.15
0.195
0.31
0.395
0.535
0.42
0.165
0.12
0.19
0.04
-0.09
0.09
0.285
0.255
0.235
0.295
0.275
0.125
0.14
0.045
0.02
0.12
0.1
0.26
0.32
0.275
0.125
0.015
-0.05
-0.155
-0.025
-0.03
0.085
0.175
0.25
0.145
0.14
-0.035
0.015
-0.15
-0.03
-0.06
0.04
-0.005
0.125
0.095
-0.04
-0.115
-0.12
-0.155
-0.095
0.04
0.0
0.0
0.075
-0.025
0.06
0.02
-0.065
-0.105
-0.025
-0.155
0.02
0.245
0.15
0.095
0.01
-0.005
-0.015
-0.14
-0.14
-0.06
-0.05
0.15
0.155
0.15
0.13
0.025
-0.23
-0.17
-0.075
-0.045
0.025
0.005
0.06
0.065
0.145
0.045
-0.035
-0.15
-0.125
-0.035
0.07
0.11
0.23
0.25
0.115
-0.22
-0.17
-0.255
-0.005
0.015
0.02
0.12
0.155
0.145
0.13
-0.015
0.015
-0.11
-0.18
-0.075
0.12
0.12
0.2
0.2
0.125
0.0
-0.075
-0.23
-0.11
0.105
0.155
0.155
0.285
0.17
-0.065
-0.06
-0.12
-0.1
-0.05
0.015
0.205
0.15
0.04
-0.045
-0.01
0.02
0.015
-0.085
-0.135
-0.015
0.09
0.15
0.265
0.14
-0.015
-0.145
-0.01
0.055
-0.13
-0.015
0.04
0.195
0.145
0.095
-0.07
-0.01
-0.06
-0.115
-0.07
0.05
0.165
0.265
0.27
0.075
-0.12
-0.09
-0.055
-0.025
0.115
0.03
0.145
0.195
0.08
-0.005
-0.005
-0.15
-0.195
-0.11
-0.04
0.065
0.13
0.095
0.175
0.21
-0.035
-0.095
-0.03
-0.03
0.035
0.115
0.14
0.28
0.185
0.055
0.075
0.065
0.0
-0.11
-0.005
0.16
0.135
0.1
0.125
0.005
0.005
0.045
-0.145
-0.185
-0.02
0.105
0.15
0.17
0.13
0.045
-0.115
-0.115
-0.11
0.005
-0.18
0.09
0.185
0.15
0.065
-0.015
0.01
0.0
0.035
-0.12
-0.125
-0.075
0.1
0.305
0.27
0.095
-0.075
-0.14
-0.185
0.0
0.01
0.225
0.315
0.21
0.145
0.15
0.075
-0.095
-0.235
-0.285
-0.22
-0.3
-0.28
-0.17
-0.075
-0.35
-0.545
-0.57
-0.55
-0.38
-0.445
-0.275
-0.305
-0.205
-0.035
-0.05
-0.175
-0.25
-0.095
-0.03
-0.095
-0.015
0.0
0.09
0.135
0.03
-0.055
-0.09
-0.14
-0.05
0.035
0.175
0.195
0.15
0.13
0.035
-0.02
-0.095
-0.15
-0.085
-0.045
0.12
0.21
0.125
0.23
0.165
-0.05
-0.12
-0.16
-0.01
0.155
0.175
0.125
0.145
0.12
0.115
0.005
-0.08
-0.005
0.01
0.07
0.26
0.105
0.21
0.2
0.085
0.03
-0.05
-0.085
0.07
0.095
0.2
0.29
0.36
0.33
0.225
0.035
-0.075
-0.1
-0.02
0.1
0.315
0.345
0.34
0.01
-0.075
0.1
0.085
-0.01
0.165
0.285
0.295
0.3
0.36
0.205
0.215
0.2
0.09
0.025
0.14
0.34
0.495
0.375
0.305
0.275
0.2
0.21
0.14
0.055
0.08
0.275
0.355
0.4
0.4
0.365
0.245
0.125
0.01
0.13
0.195
0.145
0.18
0.27
0.275
0.18
-0.07
-0.005
-0.02
0.005
0.1
0.12
0.055
0.145
0.055
0.075
0.0
-0.06
-0.23
-0.135
0.02
0.135
0.035
0.315
0.31
0.045
-0.12
-0.07
-0.095
0.0
-0.05
-0.055
0.07
0.22
0.12
0.06
-0.07
-0.13
-0.2
-0.135
-0.03
0.18
0.19
0.205
0.105
-0.015
-0.035
-0.125
-0.17
-0.145
0.03
0.145
0.0
-0.095
0.12
0.015
-0.035
0.05
-0.105
-0.07
0.155
0.225
0.17
0.07
0.05
0.005
-0.04
-0.055
-0.1
-0.095
0.12
0.15
0.07
0.105
0.07
0.13
-0.005
-0.065
-0.135
0.04
0.075
0.06
0.13
0.325
0.18
-0.045
-0.095
-0.1
-0.18
-0.105
0.25
0.31
0.175
0.235
0.17
-0.03
-0.12
-0.075
0.17
0.07
0.14
0.105
0.01
0.09
0.05
0.04
-0.04
-0.175
-0.135
-0.08
0.025
0.155
0.155
0.195
0.115
0.065
0.035
-0.055
-0.05
-0.015
-0.03
0.13
0.225
0.085
0.045
-0.025
0.0
0.145
0.15
-0.02
0.075
0.13
0.31
0.135
0.02
-0.075
-0.1
-0.06
-0.08
0.03
0.09
0.11
0.14
0.19
0.2
0.11
-0.025
-0.08
-0.15
-0.02
0.035
0.125
0.27
0.225
0.07
-0.005
-0.02
0.14
0.12
-0.01
0.05
0.13
0.19
0.17
0.165
0.015
-0.105
-0.01
-0.05
0.22
0.165
0.155
0.36
0.335
0.095
-0.14
-0.195
-0.125
0.07
-0.03
0.055
0.205
0.25
0.1
0.015
-0.055
-0.015
-0.005
0.03
0.065
-0.005
0.235
0.43
0.215
0.085
-0.045
-0.035
-0.085
-0.095
-0.03
-0.02
0.07
0.075
0.2
0.355
0.195
0.01
-0.11
0.02
0.085
0.21
0.165
0.23
0.22
-0.055
-0.12
-0.03
0.005
-0.035
0.035
0.215
0.215
0.305
0.34
0.25
-0.015
-0.035
-0.165
-0.24
-0.435
-0.98
-0.685
-0.6
-0.57
-0.725
-0.785
-0.695
-0.695
-0.66
-0.51
-0.195
-0.175
-0.015
0.025
-0.165
-0.125
-0.05
-0.13
-0.06
0.1
0.105
0.135
0.13
0.03
-0.02
-0.1
-0.135
-0.215
-0.12
0.085
0.165
0.16
0.24
0.245
0.035
-0.09
-0.05
-0.075
0.025
0.1
-0.065
0.135
0.14
0.19
0.005
0.0
-0.115
-0.09
-0.04
0.215
0.365
0.31
0.135
0.115
0.27
0.15
-0.02
0.12
0.11
0.12
0.225
0.23
0.185
0.05
0.14
0.245
0.025
-0.02
0.025
0.01
0.265
0.31
0.22
0.155
0.09
0.17
0.065
-0.08
0.055
0.24
0.215
0.36
0.35
0.3
0.11
0.07
0.27
0.23
0.19
0.145
0.285
0.395
0.33
0.14
0.14
0.235
0.18
0.26
0.265
0.385
0.395
0.48
0.305
0.345
0.285
0.195
0.205
0.245
0.175
0.23
0.38
0.5
0.415
0.265
0.1
0.015
-0.01
0.055
0.06
0.295
0.17
0.25
0.24
0.275
0.23
0.13
-0.16
-0.085
-0.1
0.08
0.29
0.31
0.185
0.115
0.01
-0.055
-0.135
0.015
0.115
0.19
0.23
0.33
0.195
0.04
-0.105
-0.125
-0.04
-0.135
0.01
0.125
0.085
0.08
0.165
0.18
-0.05
-0.155
-0.16
0.035
-0.05
0.095
0.055
0.215
0.135
-0.02
-0.095
-0.085
-0.045
0.045
0.09
0.125
0.165
0.255
0.15
0.055
-0.02
-0.05
-0.02
0.085
0.02
-0.04
0.16
0.195
0.075
0.045
-0.035
-0.13
-0.06
-0.19
0.015
0.135
0.19
0.205
0.035
-0.065
-0.195
-0.04
0.0
-0.035
0.07
0.07
0.08
-0.01
0.165
0.2
0.0
-0.265
-0.2
-0.035
0.185
0.16
0.21
0.28
0.215
-0.055
-0.065
-0.095
-0.035
0.035
0.165
0.215
0.12
0.105
0.17
-0.015
-0.09
-0.19
-0.16
-0.05
0.03
0.165
0.235
0.125
0.145
-0.005
-0.245
-0.155
-0.205
-0.22
-0.005
0.06
0.135
0.105
0.065
-0.1
-0.07
-0.125
-0.075
-0.055
0.06
0.12
0.205
0.15
0.075
0.035
0.05
-0.19
-0.275
-0.09
0.255
0.21
0.095
0.135
-0.02
0.03
-0.23
-0.275
-0.105
-0.075
0.055
0.13
0.045
0.095
0.095
0.05
0.055
-0.135
-0.22
-0.225
0.02
0.16
0.235
0.16
0.07
-0.01
-0.07
-0.095
-0.07
-0.05
0.15
0.16
0.22
0.22
0.155
0.185
0.105
-0.06
0.01
0.15
0.205
0.06
0.085
0.06
-0.01
0.0
-0.07
-0.06
-0.02
0.0
0.19
0.085
0.12
0.12
-0.015
-0.14
0.04
0.12
0.085
0.01
0.04
0.15
0.26
0.075
-0.1
-0.07
-0.095
-0.15
-0.065
0.105
0.145
0.155
0.13
0.12
0.1
0.14
0.09
0.115
-0.005
0.09
0.08
0.23
0.24
0.18
0.065
-0.05
0.015
0.035
0.015
0.03
-0.105
-0.13
-0.195
-0.285
-0.455
-0.6
-0.43
-0.595
-0.725
-0.415
-0.23
-0.035
-0.045
-0.13
-0.15
-0.115
-0.155
-0.16
-0.135
0.12
0.29
0.265
0.18
0.085
-0.015
-0.045
-0.16
-0.055
0.13
0.08
0.17
0.29
0.17
0.02
0.155
0.04
-0.005
0.105
0.025
0.13
0.165
0.265
0.19
0.125
0.1
0.045
0.03
0.035
-0.065
0.07
0.205
0.385
0.34
0.155
0.095
0.01
-0.04
0.045
0.185
0.245
0.27
0.245
0.265
0.3
0.08
0.125
-0.065
0.045
0.185
0.315
0.235
0.24
0.28
0.26
0.09
0.055
0.01
0.25
0.295
0.25
0.345
0.38
0.3
0.24
0.125
0.2
-0.005
0.03
0.16
0.305
0.42
0.43
0.465
0.255
0.185
0.23
0.225
0.22
0.305
0.505
0.545
0.565
0.365
0.315
0.32
0.19
0.145
0.245
0.315
0.465
0.445
0.44
0.405
0.3
0.285
0.28
0.25
0.22
0.315
0.38
0.47
0.445
0.25
0.09
-0.02
0.05
0.085
0.1
0.13
-0.035
0.135
0.29
0.27
0.15
0.1
-0.045
-0.135
0.085
0.175
0.195
0.245
0.33
0.205
0.005
-0.1
-0.095
0.04
0.105
0.095
0.21
0.295
0.14
0.2
0.14
0.015
-0.045
-0.095
0.045
0.3
0.33
0.305
0.255
0.01
-0.165
-0.2
-0.095
-0.07
0.01
0.07
0.11
0.165
0.07
-0.005
0.015
0.085
0.015
-0.05
0.015
0.21
0.285
0.22
0.27
0.08
0.02
-0.035
-0.1
0.02
0.045
0.05
0.165
0.32
0.31
0.18
-0.01
-0.005
-0.03
0.055
0.135
0.39
0.23
0.09
0.135
0.0
0.015
-0.035
-0.115
-0.065
0.0
0.22
0.165
0.08
0.16
0.25
0.1
0.06
-0.175
-0.115
0.18
0.235
0.11
0.175
0.16
0.055
0.09
-0.02
-0.11
-0.065
0.085
0.255
0.165
0.165
0.1
-0.11
-0.025
0.17
-0.035
0.025
0.055
0.22
0.14
0.275
0.25
0.05
-0.075
-0.06
-0.045
-0.045
0.08
0.25
0.175
0.325
0.185
-0.015
-0.04
0.005
-0.055
-0.03
0.025
0.255
0.25
0.25
0.11
-0.015
0.045
0.05
-0.105
-0.07
0.125
0.125
0.32
0.295
0.175
0.085
-0.14
-0.17
-0.07
-0.105
0.11
0.055
0.005
0.14
0.21
0.12
-0.015
-0.025
0.015
0.05
0.08
0.245
0.29
0.315
0.105
0.045
-0.11
0.045
0.07
0.065
0.14
0.26
0.335
0.23
0.11
0.14
0.12
0.14
0.08
0.12
0.175
0.205
0.09
0.055
0.09
0.02
-0.12
-0.28
-0.245
0.0
0.1
0.175
0.18
0.29
0.18
0.085
-0.04
0.005
0.03
0.09
0.135
0.195
0.215
0.155
0.1
0.11
0.01
-0.165
-0.03
0.115
0.365
0.26
0.215
0.245
0.1
-0.15
-0.065
-0.045
-0.08
-0.055
0.095
0.33
0.31
0.22
0.295
0.21
0.085
