# TIPE ECG 2021 - ECG-ID Database v1.0.0 par Physionet
# [N° de la personne, N° de l'enregistrement, Période d'échantillonnage, Prénom, Age, Sexe, Date de l'enregistrement]
[61, 2, 0.002, "Tess", 16, "F", "12.05.2005"]
-0.145
-0.13
-0.155
-0.18
-0.105
-0.12
-0.145
-0.145
-0.16
-0.165
-0.175
-0.205
-0.15
-0.165
-0.11
-0.13
-0.145
-0.145
-0.125
-0.165
-0.115
-0.17
-0.17
-0.14
-0.135
-0.135
-0.15
-0.165
-0.2
-0.17
-0.16
-0.175
-0.18
-0.12
-0.135
-0.15
-0.145
-0.1
-0.175
-0.16
-0.15
-0.145
-0.185
-0.13
-0.125
-0.155
-0.135
-0.11
-0.17
-0.195
-0.16
-0.19
-0.19
-0.095
-0.155
-0.165
-0.14
-0.13
-0.15
-0.155
-0.19
-0.16
-0.15
-0.13
-0.135
-0.16
-0.12
-0.175
-0.21
-0.175
-0.14
-0.19
-0.16
-0.115
-0.12
-0.155
-0.095
-0.165
-0.195
-0.195
-0.12
-0.07
-0.13
-0.135
-0.085
-0.12
-0.11
-0.11
-0.125
-0.11
-0.095
-0.11
-0.045
-0.055
-0.075
-0.09
-0.065
-0.06
-0.08
-0.08
-0.09
-0.105
-0.145
-0.18
-0.14
-0.105
-0.135
-0.155
-0.17
-0.155
-0.215
-0.185
-0.13
-0.1
-0.155
-0.17
-0.24
-0.2
-0.17
-0.18
-0.16
-0.19
-0.145
-0.16
-0.155
-0.175
-0.2
-0.195
-0.11
-0.185
-0.18
-0.155
-0.205
-0.135
-0.175
-0.19
-0.17
-0.17
-0.185
-0.18
-0.195
-0.15
-0.18
-0.21
-0.14
-0.17
-0.195
-0.275
-0.255
-0.245
-0.225
-0.22
-0.195
-0.06
-0.06
-0.005
0.0
0.11
0.255
0.325
0.4
0.415
0.48
0.42
0.295
0.225
0.1
0.0
-0.075
-0.175
-0.275
-0.395
-0.385
-0.35
-0.36
-0.32
-0.295
-0.3
-0.195
-0.14
-0.18
-0.16
-0.2
-0.165
-0.175
-0.15
-0.175
-0.215
-0.18
-0.16
-0.19
-0.16
-0.18
-0.17
-0.145
-0.115
-0.14
-0.18
-0.175
-0.165
-0.135
-0.185
-0.155
-0.175
-0.14
-0.14
-0.155
-0.16
-0.185
-0.09
-0.135
-0.145
-0.125
-0.115
-0.125
-0.125
-0.135
-0.19
-0.155
-0.125
-0.145
-0.11
-0.12
-0.095
-0.105
-0.12
-0.125
-0.145
-0.11
-0.115
-0.14
-0.125
-0.075
-0.095
-0.1
-0.125
-0.085
-0.095
-0.085
-0.06
-0.08
-0.09
-0.08
-0.105
-0.055
-0.005
-0.02
-0.045
-0.03
0.0
0.01
0.005
0.02
-0.05
-0.025
0.015
0.045
0.035
0.085
0.06
0.135
0.09
0.095
0.1
0.1
0.145
0.135
0.125
0.155
0.16
0.125
0.155
0.14
0.175
0.205
0.205
0.155
0.215
0.13
0.17
0.18
0.18
0.19
0.18
0.155
0.13
0.16
0.13
0.105
0.095
0.075
0.03
0.03
0.03
-0.005
0.0
-0.06
-0.07
-0.085
-0.07
-0.105
-0.08
-0.125
-0.15
-0.095
-0.105
-0.105
-0.11
-0.15
-0.155
-0.165
-0.1
-0.18
-0.185
-0.09
-0.115
-0.165
-0.115
-0.175
-0.185
-0.12
-0.155
-0.13
-0.185
-0.15
-0.15
-0.225
-0.175
-0.175
-0.175
-0.18
-0.17
-0.15
-0.14
-0.14
-0.17
-0.165
-0.115
-0.16
-0.21
-0.175
-0.125
-0.14
-0.16
-0.18
-0.19
-0.17
-0.185
-0.135
-0.145
-0.16
-0.13
-0.15
-0.14
-0.11
-0.155
-0.165
-0.205
-0.165
-0.175
-0.155
-0.165
-0.16
-0.15
-0.145
-0.105
-0.175
-0.155
-0.16
-0.19
-0.16
-0.13
-0.145
-0.155
-0.14
-0.12
-0.165
-0.165
-0.135
-0.14
-0.145
-0.17
-0.175
-0.175
-0.17
-0.145
-0.22
-0.15
-0.11
-0.13
-0.13
-0.14
-0.185
-0.175
-0.145
-0.115
-0.15
-0.135
-0.15
-0.15
-0.17
-0.155
-0.175
-0.16
-0.185
-0.13
-0.17
-0.19
-0.165
-0.1
-0.14
-0.12
-0.18
-0.14
-0.12
-0.125
-0.11
-0.125
-0.145
-0.145
-0.095
-0.105
-0.12
-0.135
-0.105
-0.095
-0.05
-0.075
-0.075
-0.05
-0.06
-0.105
-0.075
-0.1
-0.11
-0.115
-0.14
-0.1
-0.095
-0.155
-0.14
-0.12
-0.135
-0.17
-0.155
-0.18
-0.195
-0.185
-0.175
-0.19
-0.165
-0.17
-0.185
-0.22
-0.22
-0.175
-0.14
-0.19
-0.21
-0.125
-0.155
-0.12
-0.14
-0.17
-0.205
-0.22
-0.195
-0.185
-0.19
-0.165
-0.185
-0.15
-0.13
-0.16
-0.205
-0.235
-0.205
-0.115
-0.165
-0.185
-0.195
-0.2
-0.23
-0.2
-0.21
-0.255
-0.225
-0.14
-0.12
-0.095
0.05
0.105
0.195
0.23
0.345
0.415
0.46
0.47
0.355
0.305
0.165
0.07
-0.09
-0.115
-0.2
-0.35
-0.455
-0.42
-0.41
-0.355
-0.33
-0.295
-0.295
-0.245
-0.205
-0.21
-0.17
-0.165
-0.18
-0.18
-0.21
-0.195
-0.145
-0.17
-0.18
-0.205
-0.19
-0.155
-0.14
-0.19
-0.13
-0.145
-0.175
-0.17
-0.145
-0.145
-0.15
-0.155
-0.16
-0.12
-0.13
-0.1
-0.12
-0.21
-0.225
-0.155
-0.135
-0.13
-0.17
-0.11
-0.11
-0.095
-0.14
-0.08
-0.135
-0.18
-0.15
-0.135
-0.145
-0.14
-0.1
-0.105
-0.135
-0.085
-0.105
-0.07
-0.13
-0.145
-0.155
-0.105
-0.08
-0.07
-0.03
-0.09
-0.13
-0.155
-0.115
-0.03
-0.025
-0.04
-0.045
-0.04
-0.04
-0.05
-0.035
-0.035
-0.04
0.03
0.03
0.04
0.02
0.085
0.07
0.095
0.085
0.1
0.08
0.115
0.13
0.105
0.13
0.155
0.155
0.165
0.12
0.18
0.175
0.145
0.145
0.185
0.195
0.18
0.2
0.245
0.18
0.15
0.19
0.155
0.13
0.15
0.145
0.125
0.095
0.075
0.06
-0.005
0.05
0.01
-0.01
-0.05
-0.025
-0.01
-0.105
-0.065
-0.075
-0.09
-0.11
-0.125
-0.11
-0.155
-0.14
-0.105
-0.18
-0.19
-0.145
-0.155
-0.11
-0.17
-0.18
-0.14
-0.135
-0.185
-0.13
-0.14
-0.16
-0.17
-0.16
-0.16
-0.165
-0.155
-0.165
-0.16
-0.155
-0.155
-0.16
-0.17
-0.17
-0.185
-0.185
-0.11
-0.13
-0.16
-0.235
-0.155
-0.13
-0.14
-0.14
-0.2
-0.2
-0.175
-0.185
-0.21
-0.165
-0.14
-0.125
-0.18
-0.2
-0.2
-0.115
-0.105
-0.12
-0.185
-0.12
-0.13
-0.22
-0.14
-0.19
-0.18
-0.15
-0.165
-0.2
-0.165
-0.12
-0.16
-0.115
-0.155
-0.13
-0.135
-0.155
-0.115
-0.145
-0.165
-0.18
-0.14
-0.155
-0.185
-0.16
-0.13
-0.135
-0.17
-0.17
-0.215
-0.14
-0.165
-0.14
-0.17
-0.15
-0.21
-0.18
-0.15
-0.155
-0.225
-0.2
-0.215
-0.2
-0.165
-0.135
-0.145
-0.1
-0.13
-0.125
-0.165
-0.13
-0.145
-0.135
-0.2
-0.21
-0.18
-0.12
-0.15
-0.125
-0.15
-0.13
-0.14
-0.185
-0.16
-0.125
-0.15
-0.16
-0.145
-0.12
-0.145
-0.09
-0.065
-0.065
-0.07
-0.08
-0.085
-0.07
-0.1
-0.115
-0.07
-0.115
-0.1
-0.125
-0.195
-0.135
-0.145
-0.21
-0.265
-0.145
-0.14
-0.17
-0.24
-0.245
-0.2
-0.165
-0.17
-0.14
-0.22
-0.165
-0.165
-0.21
-0.16
-0.13
-0.165
-0.2
-0.165
-0.165
-0.175
-0.185
-0.18
-0.215
-0.205
-0.195
-0.22
-0.23
-0.165
-0.16
-0.165
-0.17
-0.18
-0.22
-0.22
-0.25
-0.215
-0.195
-0.17
-0.235
-0.245
-0.34
-0.205
-0.24
-0.275
-0.29
-0.245
-0.125
-0.115
-0.005
0.075
0.125
0.195
0.3
0.445
0.51
0.475
0.415
0.345
0.3
0.2
0.005
-0.095
-0.165
-0.255
-0.385
-0.38
-0.39
-0.345
-0.26
-0.245
-0.31
-0.215
-0.19
-0.175
-0.25
-0.25
-0.2
-0.215
-0.21
-0.255
-0.195
-0.2
-0.22
-0.28
-0.185
-0.24
-0.185
-0.205
-0.21
-0.125
-0.15
-0.155
-0.17
-0.19
-0.21
-0.16
-0.2
-0.215
-0.165
-0.175
-0.175
-0.185
-0.15
-0.165
-0.19
-0.29
-0.235
-0.14
-0.13
-0.145
-0.14
-0.22
-0.215
-0.155
-0.24
-0.11
-0.125
-0.13
-0.17
-0.245
-0.22
-0.14
-0.15
-0.075
-0.105
-0.135
-0.14
-0.1
-0.135
-0.15
-0.105
-0.14
-0.14
-0.105
-0.095
-0.09
-0.1
-0.08
-0.09
-0.06
-0.06
-0.025
-0.105
-0.06
-0.035
-0.06
-0.05
-0.045
-0.095
-0.055
0.015
0.015
0.04
0.1
0.09
0.075
-0.035
0.08
0.115
0.075
0.14
0.09
0.105
0.095
0.09
0.085
0.085
0.14
0.1
0.085
0.16
0.21
0.155
0.17
0.09
0.115
0.12
0.095
0.09
0.09
0.05
-0.025
0.05
-0.02
-0.01
0.015
-0.025
-0.025
-0.035
-0.045
-0.06
-0.14
-0.145
-0.075
-0.195
-0.135
-0.11
-0.14
-0.215
-0.265
-0.275
-0.22
-0.23
-0.135
-0.13
-0.225
-0.21
-0.07
-0.28
-0.24
-0.205
-0.195
-0.27
-0.245
-0.26
-0.29
-0.19
-0.15
-0.125
-0.285
-0.29
-0.215
-0.3
-0.27
-0.265
-0.25
-0.245
-0.24
-0.175
-0.175
-0.21
-0.235
-0.295
-0.3
-0.295
-0.19
-0.17
-0.145
-0.16
-0.26
-0.235
-0.195
-0.345
-0.3
-0.19
-0.195
-0.28
-0.245
-0.22
-0.19
-0.245
-0.235
-0.175
-0.25
-0.3
-0.24
-0.285
-0.25
-0.215
-0.18
-0.155
-0.2
-0.245
-0.27
-0.285
-0.365
-0.315
-0.215
-0.215
-0.155
-0.17
-0.29
-0.295
-0.235
-0.235
-0.165
-0.24
-0.235
-0.235
-0.25
-0.18
-0.235
-0.32
-0.255
-0.28
-0.305
-0.23
-0.185
-0.15
-0.24
-0.31
-0.305
-0.305
-0.345
-0.425
-0.24
-0.22
-0.26
-0.23
-0.22
-0.325
-0.28
-0.295
-0.28
-0.275
-0.295
-0.22
-0.275
-0.205
-0.335
-0.33
-0.235
-0.21
-0.22
-0.145
-0.225
-0.265
-0.165
-0.22
-0.23
-0.24
-0.2
-0.3
-0.32
-0.36
-0.375
-0.36
-0.45
-0.4
-0.395
-0.295
-0.25
-0.245
-0.315
-0.29
-0.29
-0.32
-0.42
-0.36
-0.45
-0.34
-0.3
-0.245
-0.315
-0.51
-0.46
-0.365
-0.365
-0.39
-0.3
-0.34
-0.285
-0.43
-0.345
-0.3
-0.315
-0.33
-0.445
-0.465
-0.425
-0.4
-0.32
-0.37
-0.375
-0.345
-0.485
-0.325
-0.24
-0.31
-0.315
-0.5
-0.64
-0.545
-0.355
-0.285
-0.335
-0.345
-0.27
-0.13
0.03
0.19
0.27
0.48
0.64
0.725
0.615
0.365
0.285
0.215
0.165
-0.115
-0.26
-0.435
-0.67
-0.65
-0.39
-0.405
-0.46
-0.425
-0.485
-0.48
-0.47
-0.245
-0.14
-0.155
-0.38
-0.43
-0.435
-0.33
-0.215
-0.33
-0.3
-0.22
-0.235
-0.47
-0.6
-0.445
-0.315
-0.3
-0.195
-0.39
-0.525
-0.445
-0.36
-0.365
-0.355
-0.41
-0.31
-0.215
-0.285
-0.29
-0.405
-0.41
-0.445
-0.325
-0.15
-0.2
-0.13
-0.255
-0.395
-0.48
-0.435
-0.39
-0.295
-0.045
-0.16
-0.255
-0.335
-0.185
-0.375
-0.325
-0.2
-0.15
-0.38
-0.725
-0.825
-0.15
0.155
-0.125
-0.28
-0.385
-0.185
-0.26
-0.11
0.04
0.16
-0.025
-0.4
-0.25
0.015
0.175
0.1
-0.18
-0.295
-0.275
-0.005
-0.14
-0.225
0.085
0.205
0.16
-0.16
-0.285
-0.08
0.05
0.12
0.075
-0.05
0.165
-0.03
-0.08
-0.03
-0.055
0.08
-0.005
0.23
0.145
0.125
0.205
0.25
0.33
0.235
0.08
0.23
0.3
0.215
-0.26
-0.055
0.135
0.295
0.36
0.27
0.01
-0.09
-0.31
-0.225
-0.005
-0.115
-0.165
-0.21
-0.105
-0.05
-0.17
-0.035
0.055
-0.265
-0.275
-0.275
-0.365
-0.33
-0.225
-0.21
-0.3
-0.185
-0.075
0.13
-0.025
-0.275
-0.31
-0.315
-0.265
-0.015
0.0
-0.29
-0.435
-0.445
-0.465
-0.4
-0.26
-0.305
-0.365
-0.355
-0.26
-0.16
-0.05
-0.245
-0.3
-0.195
-0.39
-0.455
-0.12
0.075
-0.165
-0.305
-0.475
-0.65
-0.565
-0.325
-0.17
0.05
-0.255
-0.325
-0.34
-0.52
-0.455
-0.46
-0.315
-0.265
-0.35
-0.425
-0.415
-0.39
-0.35
0.04
-0.05
-0.265
-0.19
-0.18
-0.16
-0.285
-0.385
-0.385
-0.32
-0.315
-0.26
-0.075
-0.245
-0.41
-0.17
-0.225
-0.24
-0.19
-0.065
-0.04
-0.245
-0.21
-0.4
-0.31
-0.3
-0.2
-0.21
-0.195
-0.34
-0.23
-0.02
-0.05
-0.105
-0.17
-0.345
-0.295
0.01
0.14
0.03
-0.02
-0.055
-0.195
-0.275
-0.255
-0.175
-0.125
-0.025
-0.145
-0.15
-0.245
-0.16
-0.075
-0.035
-0.15
-0.365
-0.27
-0.41
-0.305
-0.265
-0.26
-0.155
-0.2
-0.26
-0.26
-0.195
-0.115
-0.365
-0.425
-0.3
-0.02
-0.09
-0.205
-0.53
-0.45
-0.32
-0.44
-0.475
-0.37
-0.395
-0.22
-0.205
-0.205
-0.485
-0.435
-0.33
-0.305
-0.47
-0.495
-0.32
-0.22
-0.255
-0.395
-0.475
-0.49
-0.42
-0.37
-0.365
-0.48
-0.56
-0.43
-0.425
-0.39
-0.2
0.095
0.26
0.55
0.575
0.375
0.265
0.255
0.23
0.175
0.03
-0.12
-0.36
-0.355
-0.43
-0.565
-0.58
-0.59
-0.625
-0.79
-0.515
-0.33
-0.305
-0.41
-0.67
-0.65
-0.58
-0.52
-0.515
-0.52
-0.53
-0.46
-0.295
-0.27
-0.565
-0.57
-0.49
-0.515
-0.5
-0.585
-0.59
-0.44
-0.315
-0.38
-0.465
-0.505
-0.455
-0.49
-0.53
-0.42
-0.355
-0.16
-0.365
-0.465
-0.575
-0.62
-0.395
-0.19
-0.295
-0.505
-0.625
-0.49
-0.445
-0.465
-0.53
-0.575
-0.51
-0.425
-0.49
-0.625
-0.52
-0.455
-0.55
-0.52
-0.645
-0.63
-0.355
-0.225
-0.305
-0.295
-0.27
-0.485
-0.68
-0.645
-0.58
-0.52
-0.51
-0.38
-0.41
-0.38
-0.305
-0.515
-0.455
-0.455
-0.36
-0.385
-0.295
-0.255
-0.375
-0.48
-0.385
-0.375
-0.385
-0.38
-0.405
-0.295
-0.18
-0.095
-0.35
-0.33
-0.33
-0.385
-0.225
-0.3
-0.235
-0.29
-0.135
-0.175
-0.27
-0.29
-0.365
-0.255
-0.3
-0.355
-0.285
-0.32
-0.35
-0.365
-0.38
-0.235
-0.055
-0.145
-0.29
-0.36
-0.44
-0.44
-0.505
-0.565
-0.46
-0.52
-0.425
-0.465
-0.665
-0.79
-0.715
-0.58
-0.47
-0.36
-0.68
-0.735
-0.665
-0.6
-0.55
-0.65
-0.585
-0.635
-0.72
-0.79
-0.84
-0.765
-0.695
-0.605
-0.59
-0.67
-0.64
-0.595
-0.725
-0.79
-0.625
-0.6
-0.65
-0.655
-0.735
-0.655
-0.77
-0.755
-0.855
-0.885
-0.8
-0.695
-0.66
-0.66
-0.73
-0.705
-0.71
-0.74
-0.685
-0.695
-0.885
-0.73
-0.515
-0.52
-0.445
-0.635
-0.795
-0.885
-0.81
-0.805
-0.82
-0.665
-0.66
-0.605
-0.65
-0.6
-0.725
-0.805
-0.85
-0.83
-0.82
-0.815
-0.695
-0.675
-0.645
-0.66
-0.685
-0.79
-0.76
-0.765
-0.77
-0.68
-0.695
-0.71
-0.725
-0.79
-0.85
-0.77
-0.79
-0.71
-0.585
-0.565
-0.615
-0.69
-0.695
-0.65
-0.74
-0.735
-0.7
-0.715
-0.715
-0.73
-0.82
-0.73
-0.635
-0.63
-0.62
-0.7
-0.655
-0.675
-0.63
-0.655
-0.65
-0.635
-0.735
-0.74
-0.705
-0.68
-0.725
-0.685
-0.645
-0.625
-0.755
-0.955
-0.85
-0.795
-0.67
-0.735
-0.71
-0.735
-0.62
-0.575
-0.82
-0.85
-0.785
-0.85
-0.78
-0.69
-0.675
-0.67
-0.655
-0.69
-0.755
-0.82
-0.75
-0.695
-0.8
-0.8
-0.745
-0.77
-0.765
-0.665
-0.67
-0.68
-0.755
-0.77
-0.72
-0.675
-0.765
-0.77
-0.695
-0.7
-0.835
-0.845
-0.83
-0.835
-0.8
-0.805
-0.73
-0.635
-0.575
-0.375
-0.265
-0.145
0.035
0.09
0.19
0.265
0.255
0.19
0.18
-0.01
-0.175
-0.33
-0.555
-0.665
-0.755
-0.735
-0.82
-0.775
-0.68
-0.68
-0.785
-0.775
-0.755
-0.74
-0.63
-0.605
-0.695
-0.69
-0.785
-0.66
-0.71
-0.71
-0.64
-0.65
-0.665
-0.655
-0.685
-0.68
-0.69
-0.65
-0.715
-0.7
-0.715
-0.65
-0.68
-0.665
-0.665
-0.69
-0.64
-0.655
-0.64
-0.65
-0.675
-0.72
-0.75
-0.695
-0.695
-0.62
-0.67
-0.785
-0.8
-0.735
-0.69
-0.68
-0.68
-0.595
-0.66
-0.685
-0.565
-0.705
-0.69
-0.72
-0.71
-0.685
-0.655
-0.64
-0.635
-0.71
-0.67
-0.75
-0.74
-0.69
-0.615
-0.665
-0.645
-0.57
-0.615
-0.66
-0.625
-0.585
-0.67
-0.62
-0.6
-0.565
-0.48
-0.475
-0.545
-0.565
-0.485
-0.51
-0.5
-0.515
-0.47
-0.47
-0.465
-0.325
-0.49
-0.495
-0.425
-0.44
-0.435
-0.415
-0.405
-0.45
-0.445
-0.445
-0.375
-0.335
-0.355
-0.34
-0.37
-0.375
-0.42
-0.335
-0.33
-0.425
-0.335
-0.36
-0.42
-0.48
-0.45
-0.405
-0.45
-0.485
-0.495
-0.545
-0.58
-0.5
-0.535
-0.585
-0.53
-0.59
-0.61
-0.575
-0.535
-0.605
-0.595
-0.615
-0.66
-0.63
-0.62
-0.64
-0.635
-0.72
-0.71
-0.755
-0.68
-0.63
-0.66
-0.705
-0.69
-0.675
-0.67
-0.675
-0.735
-0.7
-0.69
-0.695
-0.71
-0.735
-0.63
-0.55
-0.655
-0.64
-0.665
-0.63
-0.69
-0.675
-0.725
-0.58
-0.525
-0.615
-0.675
-0.61
-0.625
-0.59
-0.605
-0.565
-0.62
-0.655
-0.63
-0.62
-0.6
-0.625
-0.61
-0.635
-0.555
-0.595
-0.6
-0.65
-0.63
-0.595
-0.615
-0.6
-0.58
-0.575
-0.545
-0.525
-0.545
-0.525
-0.555
-0.55
-0.605
-0.625
-0.605
-0.585
-0.545
-0.53
-0.545
-0.595
-0.545
-0.585
-0.585
-0.47
-0.525
-0.46
-0.505
-0.545
-0.59
-0.575
-0.57
-0.54
-0.5
-0.49
-0.43
-0.465
-0.525
-0.475
-0.475
-0.455
-0.46
-0.445
-0.435
-0.41
-0.44
-0.535
-0.425
-0.49
-0.52
-0.535
-0.62
-0.51
-0.49
-0.545
-0.51
-0.55
-0.44
-0.47
-0.51
-0.51
-0.52
-0.49
-0.465
-0.49
-0.535
-0.52
-0.46
-0.435
-0.5
-0.475
-0.46
-0.515
-0.57
-0.475
-0.445
-0.51
-0.505
-0.455
-0.47
-0.495
-0.465
-0.505
-0.49
-0.475
-0.545
-0.54
-0.51
-0.55
-0.53
-0.425
-0.425
-0.45
-0.44
-0.54
-0.505
-0.58
-0.615
-0.59
-0.615
-0.65
-0.615
-0.415
-0.36
-0.28
-0.17
-0.125
-0.055
0.035
0.065
0.245
0.16
0.145
0.06
0.045
-0.17
-0.24
-0.355
-0.495
-0.57
-0.61
-0.635
-0.67
-0.64
-0.55
-0.605
-0.52
-0.53
-0.5
-0.485
-0.455
-0.505
-0.5
-0.47
-0.52
-0.46
-0.405
-0.49
-0.465
-0.515
-0.49
-0.48
-0.53
-0.48
-0.545
-0.48
-0.465
-0.41
-0.395
-0.4
-0.435
-0.44
-0.45
-0.44
-0.48
-0.43
-0.485
-0.415
-0.46
-0.46
-0.425
-0.4
-0.435
-0.465
-0.41
-0.41
-0.425
-0.435
-0.485
-0.455
-0.435
-0.375
-0.42
-0.405
-0.415
-0.425
-0.41
-0.36
-0.43
-0.385
-0.38
-0.435
-0.39
-0.35
-0.38
-0.365
-0.35
-0.4
-0.405
-0.395
-0.33
-0.3
-0.315
-0.29
-0.36
-0.325
-0.295
-0.26
-0.28
-0.275
-0.295
-0.245
-0.315
-0.23
-0.26
-0.19
-0.205
-0.18
-0.255
-0.225
-0.225
-0.24
-0.22
-0.19
-0.17
-0.205
-0.135
-0.155
-0.15
-0.105
-0.165
-0.13
-0.085
-0.095
-0.065
-0.135
-0.11
-0.145
-0.12
-0.16
-0.14
-0.205
-0.14
-0.1
-0.145
-0.2
-0.195
-0.27
-0.23
-0.25
-0.275
-0.315
-0.3
-0.295
-0.3
-0.335
-0.355
-0.355
-0.315
-0.41
-0.365
-0.32
-0.325
-0.37
-0.46
-0.45
-0.345
-0.38
-0.42
-0.365
-0.395
-0.38
-0.4
-0.34
-0.45
-0.47
-0.395
-0.395
-0.395
-0.4
-0.385
-0.355
-0.35
-0.395
-0.375
-0.39
-0.365
-0.43
-0.4
-0.345
-0.37
-0.39
-0.405
-0.43
-0.38
-0.41
-0.405
-0.345
-0.365
-0.395
-0.38
-0.405
-0.355
-0.34
-0.345
-0.345
-0.34
-0.325
-0.42
-0.38
-0.355
-0.4
-0.315
-0.335
-0.34
-0.38
-0.36
-0.3
-0.385
-0.34
-0.365
-0.38
-0.34
-0.305
-0.37
-0.375
-0.36
-0.38
-0.335
-0.355
-0.35
-0.335
-0.305
-0.325
-0.355
-0.295
-0.35
-0.285
-0.24
-0.275
-0.29
-0.255
-0.165
-0.245
-0.275
-0.23
-0.215
-0.255
-0.265
-0.295
-0.245
-0.245
-0.215
-0.29
-0.285
-0.315
-0.36
-0.285
-0.32
-0.275
-0.27
-0.265
-0.25
-0.305
-0.315
-0.27
-0.29
-0.31
-0.3
-0.315
-0.345
-0.32
-0.33
-0.245
-0.245
-0.27
-0.23
-0.33
-0.335
-0.3
-0.295
-0.27
-0.265
-0.245
-0.295
-0.3
-0.245
-0.29
-0.28
-0.255
-0.275
-0.335
-0.25
-0.23
-0.27
-0.275
-0.255
-0.29
-0.315
-0.31
-0.31
-0.285
-0.325
-0.25
-0.28
-0.15
-0.185
-0.11
0.01
0.09
0.12
0.195
0.345
0.345
0.33
0.32
0.23
0.15
0.09
-0.025
-0.09
-0.225
-0.28
-0.355
-0.365
-0.42
-0.405
-0.33
-0.27
-0.285
-0.305
-0.2
-0.18
-0.24
-0.24
-0.23
-0.195
-0.22
-0.22
-0.245
-0.16
-0.14
-0.16
-0.16
-0.16
-0.185
-0.165
-0.165
-0.155
-0.21
-0.17
-0.12
-0.145
-0.16
-0.145
-0.09
-0.16
-0.18
-0.125
-0.14
-0.13
-0.125
-0.125
-0.12
-0.125
-0.11
-0.11
-0.1
-0.105
-0.11
-0.115
-0.03
-0.07
-0.105
-0.12
-0.085
-0.07
-0.115
-0.025
-0.075
-0.045
-0.06
-0.065
-0.07
0.025
0.0
-0.045
0.02
-0.04
-0.03
0.035
0.015
0.095
-0.005
0.07
0.105
0.04
0.03
-0.015
0.12
0.13
0.085
0.09
0.1
0.125
0.155
0.16
0.14
0.195
0.19
0.205
0.255
0.22
0.22
0.28
0.285
0.26
0.285
0.3
0.275
0.295
0.34
0.4
0.395
0.37
0.31
0.345
0.405
0.355
0.385
0.4
0.37
0.405
0.38
0.345
0.335
0.37
0.305
0.32
0.275
0.335
0.315
0.245
0.295
0.275
0.185
0.22
0.23
0.18
0.17
0.195
0.185
0.155
0.165
0.125
0.145
0.175
0.17
0.15
0.14
0.13
0.175
0.155
0.13
0.15
0.225
0.155
0.145
0.15
0.155
0.175
0.175
0.16
0.16
0.19
0.13
0.14
0.135
0.165
0.19
0.27
0.205
0.205
0.16
0.175
0.155
0.175
0.29
0.2
0.205
0.195
0.235
0.255
0.2
0.255
0.215
0.22
0.23
0.25
0.265
0.235
0.245
0.28
0.25
0.285
0.225
0.25
0.255
0.28
0.27
0.31
0.295
0.285
0.31
0.305
0.255
0.24
0.285
0.255
0.285
0.32
0.315
0.295
0.37
0.31
0.28
0.34
0.31
0.315
0.38
0.395
0.405
0.33
0.335
0.265
0.275
0.375
0.355
0.39
0.44
0.375
0.38
0.39
0.415
0.4
0.36
0.42
0.42
0.385
0.41
0.44
0.405
0.425
0.37
0.43
0.44
0.475
0.465
0.45
0.485
0.4
0.405
0.495
0.52
0.515
0.505
0.51
0.54
0.52
0.5
0.485
0.54
0.575
0.6
0.59
0.54
0.545
0.52
0.535
0.52
0.54
0.54
0.535
0.48
0.52
0.5
0.495
0.52
0.49
0.5
0.52
0.58
0.555
0.535
0.55
0.55
0.54
0.545
0.52
0.51
0.535
0.555
0.56
0.58
0.545
0.58
0.59
0.565
0.58
0.585
0.6
0.56
0.605
0.65
0.62
0.635
0.585
0.635
0.615
0.67
0.63
0.605
0.61
0.63
0.575
0.65
0.565
0.555
0.575
0.68
0.635
0.665
0.89
1.025
0.94
1.07
1.145
1.285
1.32
1.335
1.425
1.345
1.305
1.135
1.015
0.89
0.885
0.8
0.675
0.635
0.77
0.625
0.66
0.665
0.695
0.77
0.825
0.775
0.825
0.78
0.765
0.8
0.795
0.85
0.815
0.795
0.79
0.79
0.845
0.825
0.785
0.815
0.825
0.765
0.83
0.835
0.825
0.87
0.845
0.83
0.825
0.81
0.86
0.865
0.86
0.87
0.77
0.835
0.875
0.89
0.865
0.81
0.9
0.925
0.885
0.91
0.92
0.86
0.955
0.885
0.845
0.88
0.925
0.9
0.895
0.925
0.865
0.92
0.83
0.885
0.93
0.91
0.995
0.935
0.885
0.91
0.885
0.96
1.035
1.025
1.0
1.02
1.01
0.96
1.03
1.065
1.03
1.01
1.075
1.125
1.05
1.1
1.14
1.155
1.12
1.105
1.15
1.245
1.28
1.335
1.31
1.285
1.24
1.3
1.305
1.23
1.265
1.34
1.33
1.34
1.415
1.285
1.33
1.41
1.42
1.43
1.39
1.355
1.385
1.4
1.36
1.38
1.375
1.365
1.345
1.25
1.255
1.32
1.345
1.255
1.265
1.22
1.195
1.195
1.175
1.15
1.16
1.215
1.165
1.14
1.16
1.12
1.145
1.15
1.155
1.1
1.16
1.125
1.125
1.125
1.125
1.12
1.15
1.11
1.115
1.105
1.125
1.12
1.18
1.16
1.16
1.145
1.14
1.145
1.16
1.135
1.185
1.16
1.16
1.195
1.2
1.16
1.14
1.17
1.215
1.175
1.2
1.24
1.23
1.22
1.135
1.22
1.22
1.21
1.23
1.17
1.19
1.16
1.27
1.205
1.21
1.235
1.25
1.245
1.295
1.245
1.24
1.265
1.2
1.18
1.29
1.295
1.225
1.185
1.32
1.325
1.29
1.245
1.305
1.32
1.25
1.25
1.265
1.28
1.28
1.27
1.285
1.29
1.31
1.285
1.3
1.255
1.32
1.285
1.295
1.28
1.29
1.295
1.295
1.38
1.36
1.39
1.335
1.295
1.34
1.355
1.405
1.33
1.385
1.365
1.33
1.345
1.4
1.345
1.295
1.335
1.41
1.39
1.38
1.425
1.405
1.47
1.395
1.41
1.4
1.47
1.52
1.495
1.46
1.51
1.45
1.435
1.49
1.44
1.43
1.4
1.36
1.415
1.415
1.405
1.405
1.405
1.365
1.35
1.435
1.405
1.335
1.395
1.45
1.49
1.415
1.365
1.375
1.365
1.395
1.42
1.445
1.445
1.42
1.455
1.38
1.46
1.385
1.46
1.45
1.425
1.405
1.485
1.46
1.435
1.39
1.445
1.425
1.395
1.435
1.51
1.475
1.495
1.47
1.39
1.46
1.42
1.38
1.335
1.405
1.445
1.525
1.585
1.625
1.715
1.84
1.92
1.915
2.005
2.05
2.085
2.025
1.99
1.875
1.82
1.675
1.59
1.47
1.375
1.34
1.305
1.3
1.295
1.335
1.345
1.5
1.44
1.43
1.485
1.475
1.515
1.505
1.515
1.45
1.57
1.565
1.515
1.52
1.505
1.525
1.57
1.61
1.6
1.59
1.53
1.55
1.555
1.54
1.535
1.55
1.575
1.605
1.62
1.64
1.58
1.555
1.62
1.585
1.58
1.555
1.55
1.65
1.645
1.6
1.645
1.595
1.595
1.605
1.625
1.62
1.565
1.63
1.655
1.65
1.67
1.635
1.615
1.595
1.64
1.66
1.625
1.66
1.67
1.675
1.725
1.745
1.705
1.72
1.68
1.675
1.75
1.695
1.735
1.735
1.725
1.735
1.735
1.775
1.755
1.77
1.815
1.825
1.795
1.815
1.805
1.81
1.765
1.805
1.885
1.895
1.87
1.89
1.9
1.935
1.92
1.9
1.915
1.96
1.955
1.955
1.915
2.02
1.97
2.005
1.975
1.975
1.945
1.975
1.98
1.94
1.955
1.93
1.965
1.96
1.925
1.895
1.85
1.88
1.875
1.85
1.815
1.875
1.815
1.77
1.78
1.755
1.73
1.725
1.765
1.7
1.73
1.72
1.74
1.775
1.69
1.75
1.595
1.67
1.73
1.7
1.7
1.74
1.675
1.675
1.71
1.705
1.68
1.725
1.695
1.67
1.705
1.665
1.64
1.725
1.715
1.68
1.68
1.685
1.605
1.66
1.72
1.715
1.72
1.735
1.76
1.71
1.695
1.68
1.725
1.735
1.755
1.74
1.665
1.66
1.685
1.67
1.635
1.685
1.785
1.735
1.74
1.725
1.685
1.695
1.73
1.705
1.685
1.66
1.725
1.72
1.705
1.675
1.66
1.705
1.705
1.745
1.725
1.76
1.705
1.62
1.755
1.67
1.695
1.71
1.73
1.705
1.685
1.76
1.735
1.755
1.765
1.715
1.735
1.68
1.7
1.68
1.7
1.68
1.71
1.725
1.705
1.74
1.67
1.685
1.78
1.71
1.725
1.75
1.74
1.72
1.795
1.79
1.745
1.77
1.73
1.68
1.72
1.815
1.79
1.805
1.765
1.73
1.73
1.775
1.77
1.725
1.765
1.74
1.7
1.73
1.705
1.685
1.655
1.72
1.675
1.71
1.725
1.685
1.745
1.69
1.69
1.63
1.675
1.77
1.67
1.625
1.63
1.69
1.695
1.67
1.64
1.72
1.71
1.72
1.675
1.715
1.665
1.66
1.675
1.68
1.695
1.65
1.655
1.675
1.68
1.65
1.73
1.725
1.625
1.69
1.72
1.695
1.67
1.64
1.555
1.555
1.515
1.67
1.615
1.72
1.78
1.82
1.895
2.015
2.035
2.105
2.14
2.255
2.235
2.215
2.195
2.155
2.065
1.94
1.84
1.745
1.655
1.64
1.595
1.595
1.565
1.59
1.585
1.66
1.67
1.645
1.675
1.68
1.705
1.715
1.7
1.705
1.68
1.69
1.705
1.71
1.675
1.68
1.68
1.695
1.68
1.71
1.72
1.675
1.72
1.7
1.7
1.665
1.73
1.705
1.68
1.685
1.735
1.68
1.69
1.675
1.745
1.665
1.625
1.715
1.75
1.73
1.68
1.74
1.72
1.695
1.71
1.67
1.75
1.735
1.65
1.7
1.725
1.715
1.7
1.71
1.72
1.71
1.78
1.775
1.75
1.765
1.68
1.755
1.76
1.67
1.72
1.705
1.81
1.795
1.755
1.805
1.735
1.775
1.81
1.785
1.78
1.775
1.745
1.735
1.775
1.78
1.875
1.915
1.805
1.87
1.905
1.895
1.91
1.88
1.945
1.9
1.94
1.975
1.94
1.935
1.95
1.93
1.97
1.975
1.98
1.995
1.945
1.96
2.01
2.0
1.99
1.935
1.975
1.98
1.92
1.905
1.93
1.885
1.855
1.9
1.895
1.915
1.845
1.87
1.8
1.765
1.795
1.755
1.75
1.72
1.82
1.77
1.73
1.73
1.735
1.765
1.74
1.72
1.71
1.76
1.665
1.665
1.73
1.695
1.725
1.72
1.715
1.715
1.7
1.77
1.725
1.7
1.685
1.69
1.735
1.76
1.685
1.615
1.605
1.685
1.795
1.795
1.79
1.685
1.685
1.705
1.725
1.71
1.715
1.71
1.655
1.74
1.71
1.72
1.7
1.705
1.71
1.725
1.635
1.7
1.695
1.68
1.77
1.74
1.675
1.735
1.73
1.67
1.705
1.655
1.715
1.71
1.685
1.685
1.68
1.65
1.685
1.6
1.66
1.7
1.695
1.785
1.705
1.74
1.69
1.735
1.71
1.645
1.62
1.645
1.73
1.725
1.77
1.725
1.7
1.715
1.705
1.66
1.67
1.66
1.705
1.74
1.685
1.705
1.68
1.73
1.7
1.65
1.7
1.7
1.665
1.645
1.665
1.7
1.76
1.695
1.625
1.73
1.72
1.705
1.665
1.67
1.67
1.72
1.725
1.74
1.77
1.68
1.705
1.71
1.71
1.735
1.715
1.64
1.68
1.685
1.72
1.665
1.7
1.725
1.675
1.7
1.74
1.73
1.71
1.745
1.71
1.735
1.78
1.77
1.75
1.715
1.74
1.745
1.73
1.76
1.735
1.68
1.69
1.675
1.67
1.67
1.655
1.625
1.65
1.685
1.68
1.68
1.63
1.6
1.665
1.575
1.655
1.725
1.755
1.72
1.7
1.61
1.59
1.605
1.66
1.655
1.68
1.63
1.66
1.645
1.655
1.625
1.64
1.58
1.655
1.62
1.655
1.715
1.65
1.655
1.66
1.63
1.65
1.61
1.65
1.61
1.605
1.645
1.58
1.555
1.53
1.52
1.57
1.645
1.73
1.815
1.855
1.995
2.06
2.085
2.115
2.175
2.235
2.205
2.18
2.18
2.055
1.955
1.835
1.64
1.645
1.605
1.54
1.48
1.52
1.555
1.56
1.595
1.615
1.605
1.655
1.605
1.545
1.605
1.635
1.645
1.67
1.66
1.65
1.61
1.565
1.675
1.62
1.585
1.585
1.69
1.655
1.625
1.615
1.63
1.635
1.565
1.655
1.725
1.645
1.635
1.595
1.655
1.66
1.64
1.63
1.66
1.63
1.62
1.6
1.67
1.66
1.69
1.665
1.67
1.665
1.67
1.635
1.62
1.675
1.61
1.645
1.66
1.625
1.63
1.635
1.59
1.59
1.615
1.585
1.705
1.725
1.715
1.71
1.69
1.72
1.695
1.72
1.68
1.7
1.685
1.71
1.715
1.69
1.705
1.685
1.73
1.7
1.695
1.695
1.775
1.81
1.7
1.715
1.895
1.91
1.805
1.8
1.855
1.835
1.9
1.84
1.875
1.84
1.855
1.82
1.835
1.905
1.97
1.925
1.935
1.905
1.895
1.88
1.885
1.94
1.915
1.865
1.87
1.91
1.905
1.885
1.905
1.81
1.84
1.76
1.82
1.815
1.75
1.755
1.765
1.805
1.755
1.705
1.735
1.655
1.665
1.605
1.67
1.655
1.655
1.63
1.725
1.67
1.685
1.675
1.645
1.64
1.565
1.635
1.665
1.65
1.645
1.615
1.57
1.66
1.605
1.605
1.6
1.64
1.66
1.64
1.625
1.635
1.665
1.615
1.65
1.63
1.57
1.58
1.695
1.62
1.61
1.595
1.575
1.61
1.605
1.63
1.705
1.625
1.635
1.63
1.655
1.635
1.6
1.625
1.605
1.565
1.555
1.58
1.635
1.63
1.6
1.655
1.64
1.615
1.59
1.565
1.655
1.625
1.645
1.62
1.605
1.61
1.635
1.595
1.59
1.59
1.635
1.62
1.635
1.6
1.605
1.64
1.66
1.645
1.585
1.61
1.625
1.6
1.63
1.59
1.63
1.65
1.63
1.7
1.645
1.51
1.6
1.62
1.645
1.61
1.62
1.61
1.59
1.62
1.635
1.625
1.595
1.65
1.595
1.54
1.63
1.635
1.64
1.585
1.615
1.665
1.625
1.61
1.615
1.64
1.58
1.55
1.68
1.635
1.61
1.62
1.61
1.615
1.58
1.67
1.675
1.58
1.6
1.625
1.63
1.605
1.595
1.63
1.63
1.595
1.61
1.605
1.57
1.65
1.57
1.63
1.62
1.65
1.585
1.61
1.615
1.605
1.585
1.645
1.635
1.585
1.615
1.615
1.615
1.645
1.65
1.65
1.61
1.625
1.65
1.605
1.675
1.73
1.72
1.65
1.72
1.675
1.695
1.615
1.59
1.645
1.67
1.7
1.705
1.695
1.685
1.665
1.695
1.64
1.63
1.58
1.605
1.62
1.605
1.575
1.575
1.63
1.605
1.57
1.595
1.62
1.63
1.59
1.615
1.615
1.62
1.63
1.625
1.58
1.615
1.61
1.63
1.53
1.605
1.575
1.57
1.52
1.65
1.62
1.585
1.575
1.58
1.585
1.61
1.565
1.53
1.605
1.65
1.62
1.495
1.57
1.595
1.485
1.48
1.56
1.53
1.55
1.605
1.645
1.79
1.8
1.875
1.955
2.02
2.13
2.17
2.19
2.22
2.065
1.945
1.915
1.89
1.765
1.64
1.545
1.47
1.46
1.465
1.485
1.505
1.515
1.525
1.53
1.565
1.6
1.635
1.6
1.555
1.585
1.54
1.57
1.63
1.6
1.625
1.59
1.625
1.585
1.56
1.58
1.605
1.585
1.6
1.57
1.665
1.64
1.625
1.555
1.635
1.64
1.575
1.605
1.575
1.665
1.625
1.61
1.595
1.645
1.58
1.58
1.62
1.63
1.615
1.655
1.635
1.615
1.565
1.59
1.565
1.615
1.595
1.655
1.625
1.66
1.64
1.56
1.6
1.62
1.67
1.665
1.62
1.66
1.635
1.625
1.595
1.675
1.69
1.61
1.615
1.665
1.705
1.69
1.665
1.69
1.71
1.67
1.615
1.665
1.695
1.7
1.705
1.735
1.765
1.735
1.785
1.79
1.76
1.82
1.77
1.795
1.805
1.815
1.84
1.83
1.865
1.835
1.825
1.87
1.87
1.85
1.855
1.945
1.895
1.875
1.865
1.905
1.86
1.865
1.875
1.84
1.845
1.865
1.875
1.78
1.78
1.745
1.8
1.745
1.795
1.7
1.735
1.725
1.71
1.625
1.73
1.71
1.615
1.645
1.65
1.6
1.605
1.635
1.58
1.625
1.62
1.625
1.595
1.63
1.585
1.565
1.57
1.6
1.585
1.56
1.59
1.545
1.57
1.6
1.6
1.635
1.645
1.605
1.575
1.6
1.575
1.555
1.61
1.59
1.555
1.54
1.59
1.63
1.575
1.635
1.575
1.605
1.565
1.57
1.61
1.55
1.59
1.6
1.58
1.545
1.58
1.585
1.58
1.64
1.545
1.55
1.575
1.535
1.555
1.61
1.645
1.58
1.55
1.56
1.565
1.56
1.625
1.605
1.62
1.575
1.545
1.55
1.565
1.585
1.58
1.545
1.61
1.57
1.565
1.6
1.545
1.625
1.545
1.615
1.575
1.54
1.525
1.595
1.61
1.56
1.555
1.605
1.495
1.62
1.64
1.54
1.62
1.57
1.555
1.62
1.605
1.555
1.575
1.615
1.55
1.54
1.545
1.575
1.555
1.56
1.6
1.605
1.62
1.56
1.55
1.585
1.58
1.575
1.57
1.585
1.585
1.495
1.535
1.555
1.565
1.545
1.6
1.6
1.6
1.565
1.575
1.58
1.59
1.645
1.615
1.535
1.595
1.58
1.555
1.53
1.58
1.55
1.565
1.61
1.62
1.595
1.6
1.655
1.665
1.615
1.56
1.56
1.625
1.64
1.605
1.6
1.595
1.605
1.62
1.63
1.66
1.71
1.66
1.68
1.595
1.585
1.66
1.61
1.57
1.62
1.57
1.575
1.61
1.58
1.595
1.58
1.56
1.54
1.56
1.545
1.555
1.55
1.55
1.47
1.55
1.61
1.56
1.565
1.575
1.55
1.565
1.52
1.535
1.545
1.58
1.5
1.515
1.495
1.5
1.55
1.565
1.575
1.58
1.515
1.515
1.55
1.565
1.52
1.6
1.53
1.445
1.51
1.515
1.46
1.45
1.505
1.475
1.53
1.52
1.58
1.655
1.705
1.815
1.9
1.995
2.025
2.13
2.135
2.09
2.01
1.95
1.78
1.69
1.565
1.545
1.54
1.365
1.36
1.36
1.335
1.355
1.425
1.44
1.485
1.445
1.485
1.52
1.49
1.51
1.495
1.515
1.53
1.53
1.475
1.525
1.47
1.57
1.565
1.555
1.52
1.55
1.64
1.57
1.48
1.475
1.585
1.535
1.54
1.54
1.525
1.575
1.595
1.56
1.53
1.625
1.605
1.545
1.585
1.51
1.55
1.625
1.575
1.585
1.55
1.55
1.595
1.54
1.56
1.565
1.58
1.605
1.545
1.545
1.545
1.56
1.585
1.605
1.585
1.595
1.595
1.57
1.595
1.595
1.59
1.52
1.63
1.71
1.645
1.605
1.6
1.635
1.69
1.645
1.645
1.645
1.68
1.675
1.725
1.7
1.72
1.675
1.745
1.71
1.69
1.75
1.685
1.735
1.785
1.78
1.765
1.82
1.85
1.805
1.815
1.845
1.845
1.865
1.835
1.87
1.855
1.85
1.815
1.82
1.88
1.955
1.895
1.825
1.855
1.875
1.86
1.845
1.83
1.845
1.805
1.815
1.795
1.76
1.79
1.725
1.72
1.675
1.67
1.68
1.62
1.685
1.64
1.605
1.62
1.6
1.62
1.635
1.575
1.54
1.62
1.555
1.605
1.575
1.58
1.605
1.57
1.51
1.585
1.575
1.545
1.52
1.49
1.58
1.615
1.57
1.54
1.535
1.56
1.52
1.545
1.57
1.555
1.56
1.515
1.51
1.565
1.535
1.555
1.55
1.535
1.6
1.435
1.565
1.55
1.5
1.535
1.595
1.6
1.46
1.555
1.605
1.565
1.54
1.53
1.565
1.57
1.495
1.525
1.555
1.55
1.58
1.57
1.535
1.555
1.57
1.505
1.57
1.575
1.55
1.555
1.545
1.57
1.545
1.545
1.585
1.505
1.535
1.51
1.525
1.545
1.595
1.54
1.53
1.555
1.525
1.53
1.55
1.57
1.55
1.54
1.57
1.565
1.55
1.52
1.56
1.54
1.485
1.5
1.56
1.58
1.58
1.58
1.495
1.545
1.57
1.52
1.57
1.555
1.53
1.545
1.54
1.475
1.48
1.48
1.43
1.39
1.475
1.45
1.415
1.435
1.385
1.43
1.47
1.495
1.445
1.42
1.425
1.46
1.43
1.495
1.475
1.455
1.43
1.36
1.385
1.355
1.36
1.41
1.39
1.365
1.36
1.36
1.295
1.375
1.415
1.365
1.365
1.345
1.38
1.495
1.395
1.41
1.445
1.415
1.475
1.44
1.435
1.39
1.415
1.48
1.435
1.47
1.46
1.435
1.425
1.55
1.51
1.5
1.52
1.54
1.52
1.55
1.52
1.48
1.48
1.45
1.5
1.47
1.47
1.48
1.43
1.445
1.475
1.44
1.435
1.435
1.44
1.41
1.455
1.475
1.445
1.435
1.49
1.405
1.455
1.405
1.455
1.375
1.435
1.445
1.41
1.425
1.4
1.47
1.45
1.425
1.435
1.405
1.46
1.49
1.41
1.395
1.44
1.475
1.425
1.43
1.425
1.43
1.4
1.395
1.385
1.38
1.32
1.38
1.415
1.465
1.535
1.63
1.715
1.805
1.83
1.93
1.945
2.01
2.015
1.97
1.96
1.805
1.69
1.565
1.5
1.45
1.44
1.32
1.265
1.26
1.29
1.395
1.34
1.4
1.415
1.465
1.445
1.315
1.415
1.395
1.44
1.44
1.405
1.465
1.48
1.44
1.44
1.405
1.455
1.41
1.465
1.43
1.435
1.475
1.455
1.44
1.445
1.445
1.46
1.45
1.405
1.43
1.485
1.445
1.44
1.445
1.47
1.405
1.405
1.45
1.44
1.465
1.515
1.505
1.435
1.44
1.445
1.465
1.42
1.455
1.47
1.455
1.545
1.46
1.47
1.49
1.47
1.47
1.415
1.505
1.485
1.505
1.52
1.48
1.485
1.515
1.47
1.49
1.52
1.5
1.465
1.49
1.475
1.55
1.545
1.55
1.54
1.51
1.52
1.565
1.535
1.58
1.635
1.625
1.65
1.63
1.585
1.655
1.625
1.64
1.645
1.69
1.645
1.65
1.665
1.745
1.67
1.76
1.745
1.67
1.75
1.745
1.685
1.72
1.74
1.735
1.725
1.69
1.7
1.675
1.7
1.68
1.685
1.635
1.67
1.67
1.645
1.58
1.61
1.59
1.535
1.555
1.52
1.47
1.505
1.48
1.5
1.45
1.515
1.495
1.42
1.425
1.5
1.465
1.39
1.435
1.445
1.39
1.385
1.37
1.385
1.435
1.475
1.435
1.445
1.4
1.365
1.345
1.395
1.415
1.44
1.42
1.44
1.39
1.395
1.445
1.375
1.34
1.345
1.385
1.4
1.37
1.42
1.39
1.335
1.505
1.415
1.37
1.375
1.37
1.365
1.39
1.36
1.345
1.325
1.42
1.39
1.39
1.31
1.35
1.355
1.43
1.385
1.36
1.43
1.465
1.36
1.345
1.385
1.375
1.365
1.37
1.41
1.375
1.41
1.36
1.355
1.355
1.33
1.31
1.34
1.365
1.49
1.37
1.38
1.36
1.3
1.37
1.395
1.355
1.36
1.375
1.38
1.38
1.36
1.385
1.335
1.305
1.375
1.36
1.36
1.39
1.345
1.335
1.345
1.355
1.34
1.425
1.375
1.36
1.355
1.325
1.365
1.39
1.35
1.315
1.34
1.36
1.325
1.335
1.34
1.35
1.31
1.37
1.375
1.36
1.33
1.315
1.345
1.355
1.37
1.34
1.355
1.33
1.345
1.34
1.33
1.37
1.325
1.315
1.34
1.35
1.295
1.32
1.32
1.305
1.255
1.335
1.365
1.375
1.345
1.335
1.315
1.38
1.345
1.335
1.325
1.33
1.37
1.335
1.3
1.37
1.335
1.355
1.35
1.335
1.305
1.37
1.37
1.315
1.415
1.39
1.4
1.425
1.395
1.3
1.34
1.325
1.415
1.415
1.375
1.35
1.375
1.35
1.375
1.32
1.31
1.32
1.275
1.31
1.29
1.31
1.32
1.275
1.285
1.275
1.285
1.26
1.245
1.235
1.29
1.365
1.31
1.23
1.27
1.27
1.23
1.25
1.25
1.265
1.25
1.235
1.325
1.27
1.19
1.29
1.22
1.255
1.22
1.27
1.31
1.175
1.28
1.295
1.25
1.185
1.175
1.165
1.19
1.205
1.26
1.28
1.33
1.445
1.47
1.525
1.65
1.755
1.7
1.825
1.88
1.855
1.755
1.67
1.62
1.41
1.27
1.34
1.175
1.14
1.085
1.085
1.1
1.135
1.165
1.09
1.16
1.26
1.235
1.215
1.275
1.265
1.215
1.22
1.19
1.18
1.25
1.245
1.25
1.23
1.265
1.26
1.2
1.275
1.31
1.24
1.265
1.25
1.25
1.3
1.215
1.205
1.26
1.245
1.245
1.225
1.225
1.175
1.235
1.3
1.325
1.27
1.275
1.24
1.245
1.25
1.22
1.21
1.295
1.32
1.23
1.23
1.3
1.26
1.23
1.25
1.26
1.265
1.23
1.27
1.32
1.36
1.275
1.27
1.265
1.265
1.29
1.305
1.285
1.355
1.315
1.305
1.295
1.28
1.29
1.315
1.355
1.37
1.31
1.365
1.36
1.36
1.355
1.39
1.37
1.325
1.355
1.43
1.475
1.49
1.43
1.44
1.43
1.475
1.465
1.465
1.465
1.485
1.48
1.51
1.475
1.515
1.525
1.545
1.565
1.5
1.495
1.54
1.585
1.625
1.525
1.505
1.53
1.43
1.55
1.49
1.465
1.415
1.42
1.415
1.415
1.43
1.365
1.38
1.35
1.315
1.275
1.28
1.335
1.27
1.285
1.245
1.28
1.27
1.245
1.24
1.21
1.15
1.275
1.265
1.175
1.2
1.145
1.19
1.24
1.175
1.205
1.205
1.22
1.2
1.185
1.2
1.22
1.165
1.17
1.165
1.18
1.205
1.22
1.205
1.145
1.16
1.2
1.21
1.17
1.165
1.115
1.145
1.23
1.215
1.175
1.185
1.21
1.17
1.2
1.165
1.175
1.155
1.195
1.19
1.175
1.185
1.17
1.16
1.075
1.135
1.18
1.16
1.175
1.19
1.13
1.19
1.175
1.08
1.1
1.13
1.135
1.21
1.165
1.12
1.215
1.175
1.145
1.11
1.195
1.16
1.2
1.2
1.16
1.175
1.13
1.14
1.145
1.105
1.165
1.15
1.12
1.18
1.15
1.185
1.105
1.135
1.145
1.14
1.13
1.125
1.11
1.14
1.12
1.155
1.135
1.13
1.125
1.13
1.14
1.09
1.125
1.155
1.145
1.145
1.16
1.09
1.135
1.14
1.08
1.11
1.14
1.135
1.12
1.125
1.09
1.14
1.15
1.075
1.05
1.1
1.13
1.12
1.085
1.125
1.16
1.08
1.13
1.15
1.1
1.11
1.085
1.14
1.09
1.065
1.14
1.135
1.075
1.115
1.18
1.115
1.08
1.055
1.065
1.12
1.135
1.16
1.18
1.085
1.135
1.15
1.095
1.19
1.205
1.135
1.165
1.165
1.185
1.15
1.145
1.18
1.125
1.13
1.145
1.13
1.12
1.065
1.06
1.12
1.06
1.12
1.08
1.06
1.07
1.06
1.055
1.085
1.045
1.055
1.045
1.01
1.055
1.06
1.035
0.99
1.085
1.055
1.025
1.075
0.985
1.05
1.05
1.06
1.135
1.085
0.985
1.03
1.02
1.025
1.005
1.02
1.0
1.045
1.045
1.065
1.05
1.005
0.935
1.01
0.985
0.955
0.955
1.035
1.135
1.155
1.25
1.24
1.26
1.375
1.45
1.535
1.605
1.66
1.55
1.48
1.4
1.225
1.15
1.11
1.025
0.9
0.805
0.8
0.78
0.84
0.92
0.94
0.87
0.915
0.945
0.98
1.03
0.995
1.005
1.04
1.01
1.02
0.955
1.01
1.05
0.98
1.095
1.045
1.01
1.01
1.03
1.0
0.97
1.005
1.06
1.01
0.99
1.015
1.01
1.04
1.005
1.055
1.04
1.035
1.055
0.975
1.085
1.025
1.06
1.015
0.985
1.005
1.01
1.035
1.035
1.025
1.05
1.025
1.035
1.025
1.08
1.04
1.035
1.025
1.02
1.03
1.055
1.04
1.055
1.075
1.045
1.06
1.03
1.07
1.12
1.01
1.08
1.085
1.09
1.115
1.14
1.055
1.15
1.075
1.09
1.135
1.17
1.145
1.145
1.155
1.18
1.12
1.17
1.205
1.17
1.16
1.205
1.29
1.26
1.235
1.225
1.27
1.235
1.275
1.25
1.24
1.295
1.305
1.345
1.305
1.3
1.325
1.265
1.32
1.28
1.33
1.355
1.33
1.34
1.305
1.31
1.29
1.27
1.23
1.215
1.23
1.215
1.21
1.135
1.095
1.13
1.09
1.105
1.075
1.03
1.065
1.095
1.115
1.03
1.01
0.975
1.02
1.035
0.965
0.95
1.015
0.98
0.98
0.975
0.94
0.945
0.98
0.945
0.995
0.98
0.96
0.975
0.975
0.955
0.97
0.96
0.935
0.885
0.945
0.95
0.915
0.975
0.895
0.9
0.965
0.97
0.955
0.955
0.92
0.91
0.98
0.965
0.92
0.94
0.95
0.93
0.905
0.925
0.895
0.93
0.97
0.945
0.965
0.94
0.925
0.96
0.925
0.885
0.945
0.985
0.955
0.935
0.95
0.915
0.905
0.925
0.925
0.96
0.93
0.88
0.9
0.905
0.935
0.9
1.005
0.945
0.915
0.925
0.945
0.85
0.865
0.945
0.975
0.92
0.92
0.905
0.91
0.92
0.92
0.885
0.93
0.92
0.9
0.91
0.95
0.86
0.875
0.835
0.87
0.92
0.96
0.94
0.86
0.855
0.88
0.875
0.88
0.92
0.935
0.9
0.865
0.88
0.86
0.885
0.91
0.885
0.825
0.905
0.925
0.905
0.885
0.92
0.915
0.855
0.89
0.86
0.83
0.81
0.835
0.885
0.915
0.905
0.895
0.88
0.865
0.83
0.84
0.865
0.91
0.905
0.87
0.865
0.895
0.905
0.875
0.805
0.875
0.885
0.865
0.89
0.915
0.93
0.905
0.87
0.94
0.82
0.86
0.955
0.855
0.885
0.93
0.915
0.965
0.94
0.905
0.925
0.87
0.88
0.94
0.905
0.875
0.855
0.815
0.83
0.85
0.79
0.86
0.895
0.825
0.845
0.855
0.835
0.825
0.805
0.8
0.785
0.825
0.775
0.795
0.82
0.85
0.855
0.77
0.76
0.8
0.84
0.79
0.78
0.81
0.83
0.8
0.835
0.775
0.825
0.81
0.77
0.775
0.77
0.825
0.795
0.8
0.745
0.76
0.77
0.705
0.67
0.71
0.755
0.815
0.94
0.97
1.03
1.11
1.18
1.225
1.28
1.365
1.41
1.4
1.275
1.225
1.125
0.985
0.92
0.845
0.71
0.67
0.58
0.62
0.61
0.63
0.66
0.715
0.74
0.72
0.795
0.79
0.815
0.775
0.79
0.825
0.765
0.72
0.7
0.815
0.79
0.77
0.745
0.735
0.775
0.835
0.785
0.775
0.825
0.725
0.695
0.825
0.795
0.69
0.81
0.795
0.755
0.845
0.875
0.75
0.71
0.775
0.785
0.775
0.785
0.815
0.79
0.83
0.77
0.76
0.795
0.77
0.78
0.83
0.805
0.8
0.79
0.8
0.82
0.76
0.785
0.745
0.8
0.795
0.82
0.825
0.8
0.84
0.855
0.825
0.77
0.795
0.805
0.825
0.85
0.79
0.85
0.84
0.855
0.86
0.91
0.89
0.895
0.875
0.93
0.84
0.925
0.915
0.895
0.945
0.96
0.95
0.95
0.965
1.03
0.99
1.035
1.04
1.04
1.05
1.075
1.015
0.985
1.0
1.045
1.03
1.065
1.065
1.08
1.055
1.09
1.085
1.03
1.05
1.045
1.055
1.04
1.005
0.99
0.94
0.94
0.935
0.955
0.915
0.88
0.885
0.89
0.865
0.875
0.87
0.85
0.78
0.8
0.785
0.795
0.765
0.81
0.825
0.79
0.735
0.78
0.765
0.735
0.745
0.705
0.71
0.685
0.72
0.745
0.725
0.66
0.72
0.685
0.75
0.78
0.745
0.735
0.735
0.71
0.685
0.74
0.72
0.67
0.755
0.8
0.69
0.7
0.685
0.695
0.675
0.715
0.695
0.71
0.67
0.75
0.71
0.745
0.725
0.67
0.675
0.64
0.685
0.74
0.7
0.725
0.685
0.695
0.725
0.685
0.665
0.69
0.71
0.73
0.7
0.695
0.7
0.685
0.73
0.675
0.695
0.68
0.655
0.67
0.715
0.755
0.635
0.695
0.705
0.685
0.63
0.65
0.725
0.73
0.645
0.665
0.675
0.73
0.66
0.675
0.75
0.655
0.66
0.72
0.695
0.67
0.69
0.64
0.685
0.675
0.625
0.68
0.595
0.625
0.74
0.685
0.715
0.735
0.73
0.62
0.655
0.64
0.655
0.625
0.675
0.65
0.695
0.665
0.725
0.67
0.62
0.685
0.58
0.65
0.605
0.63
0.63
0.69
0.665
0.615
0.665
0.68
0.685
0.64
0.665
0.68
0.67
0.715
0.685
0.62
0.64
0.65
0.62
0.655
0.68
0.735
0.715
0.72
0.665
0.68
0.74
0.695
0.715
0.68
0.72
0.655
0.7
0.655
0.7
0.66
0.61
0.595
0.725
0.73
0.62
0.625
0.595
0.615
0.615
0.58
0.58
0.56
0.615
0.65
0.59
0.575
0.605
0.615
0.575
0.585
0.555
0.61
0.615
0.585
0.58
0.53
0.6
0.56
0.565
0.54
0.6
0.595
0.575
0.595
0.62
0.58
0.605
0.545
0.545
0.57
0.56
0.56
0.59
0.57
0.51
0.475
0.44
0.57
0.55
0.645
0.69
0.75
0.82
0.885
0.97
1.03
1.14
1.16
1.185
1.095
0.955
0.925
0.83
0.785
0.62
0.545
0.495
0.375
0.32
0.41
0.455
0.435
0.46
0.455
0.475
0.54
0.53
0.545
0.59
0.54
0.53
0.52
0.53
0.58
0.565
0.51
0.57
0.53
0.55
0.525
0.535
0.51
0.565
0.55
0.495
0.53
0.605
0.595
0.52
0.515
0.52
0.535
0.575
0.585
0.575
0.595
0.505
0.51
0.58
0.565
0.56
0.55
0.545
0.54
0.575
0.545
0.56
0.545
0.6
0.57
0.555
0.57
0.55
0.53
0.555
0.59
0.54
0.545
0.545
0.52
0.555
0.595
0.575
0.575
0.6
0.565
0.65
0.59
0.61
0.62
0.555
0.58
0.65
0.62
0.585
0.645
0.6
0.575
0.69
0.69
0.7
0.66
0.68
0.72
0.7
0.695
0.675
0.745
0.69
0.755
0.73
0.72
0.8
0.84
0.805
0.765
0.8
0.755
0.72
0.795
0.865
0.82
0.85
0.855
0.785
0.82
0.8
0.765
0.77
0.755
0.75
0.805
0.765
0.77
0.76
0.78
0.72
0.66
0.68
0.635
0.61
0.63
0.605
0.61
0.545
0.58
0.61
0.565
0.51
0.545
0.56
0.545
0.535
0.53
0.495
0.51
0.475
0.48
0.49
0.455
0.515
0.44
0.485
0.46
0.445
0.445
0.48
0.43
0.44
0.47
0.43
0.425
0.485
0.385
0.48
0.475
0.455
0.45
0.485
0.53
0.47
0.41
0.505
0.455
0.43
0.45
0.46
0.425
0.44
0.49
0.405
0.38
0.485
0.425
0.405
0.425
0.46
0.4
0.39
0.365
0.445
0.485
0.365
0.4
0.495
0.495
0.435
0.395
0.39
0.41
0.39
0.435
0.53
0.42
0.42
0.43
0.39
0.385
0.42
0.385
0.405
0.43
0.425
0.425
0.435
0.41
0.365
0.37
0.34
0.365
0.445
0.455
0.39
0.415
0.42
0.37
0.385
0.435
0.395
0.425
0.435
0.405
0.44
0.365
0.465
0.43
0.415
0.365
0.365
0.41
0.39
0.375
0.415
0.43
0.445
0.43
0.4
0.35
0.37
0.395
0.44
0.415
0.475
0.435
0.48
0.465
0.48
0.45
0.46
0.44
0.465
0.44
0.44
0.455
0.465
0.455
0.445
0.44
0.375
0.38
0.355
0.37
0.35
0.365
0.38
0.375
0.355
0.375
0.34
0.335
0.385
0.405
0.365
0.37
0.335
0.375
0.35
0.38
0.33
0.34
0.32
0.375
0.36
0.35
0.325
0.36
0.38
0.385
0.32
0.335
0.335
0.34
0.34
0.37
0.35
0.415
0.4
0.345
0.37
0.33
0.335
0.355
0.285
0.25
0.32
0.3
0.3
0.315
0.345
0.42
0.435
0.545
0.6
0.665
0.785
0.84
0.92
0.96
0.915
0.825
0.795
0.675
0.565
0.385
0.32
0.28
0.155
0.13
0.095
0.085
0.19
0.165
0.26
0.27
0.29
0.315
0.29
0.3
0.36
0.32
0.33
0.34
0.29
0.345
0.37
0.325
0.32
0.35
0.32
0.32
0.325
0.295
0.265
0.37
0.38
0.375
0.36
0.385
0.32
0.365
0.385
0.38
0.355
0.35
0.345
0.34
0.325
0.325
0.345
0.36
0.375
0.395
0.355
0.325
0.41
0.345
0.39
0.36
0.34
0.375
0.36
0.365
0.325
0.315
0.365
0.375
0.355
0.4
0.385
0.36
0.35
0.435
0.465
0.4
0.395
0.395
0.42
0.385
0.4
0.42
0.43
0.39
0.45
0.48
0.46
0.43
0.44
0.45
0.46
0.48
0.485
0.5
0.505
0.525
0.57
0.51
0.51
0.545
0.54
0.555
0.575
0.585
0.565
0.56
0.655
0.615
0.62
0.61
0.635
0.62
0.65
0.68
0.675
0.665
0.655
0.645
0.605
0.615
0.645
0.585
0.56
0.64
0.62
0.605
0.565
0.54
0.49
0.52
0.505
0.455
0.47
0.425
0.39
0.425
0.425
0.35
0.35
0.375
0.305
0.32
0.38
0.345
0.315
0.345
0.33
0.295
0.26
0.33
0.3
0.305
0.295
0.28
0.285
0.29
0.335
0.305
0.29
0.305
0.27
0.265
0.29
0.305
0.325
0.285
0.235
0.27
0.305
0.295
0.265
0.315
0.315
0.28
0.265
0.315
0.275
0.225
0.28
0.31
0.26
0.225
0.235
0.225
0.235
0.285
0.315
0.325
0.315
0.285
0.285
0.265
0.28
0.275
0.285
0.25
0.255
0.275
0.285
0.285
0.27
0.255
0.315
0.27
0.255
0.295
0.28
0.27
0.21
0.255
0.29
0.29
0.28
0.275
0.28
0.275
0.22
0.25
0.205
0.26
0.265
0.27
0.26
0.305
0.245
0.275
0.25
0.285
0.285
0.25
0.245
0.265
0.235
0.265
0.26
0.255
0.25
0.255
0.235
0.28
0.295
0.27
0.285
0.275
0.275
0.3
0.285
0.265
0.295
0.32
0.235
0.31
0.335
0.355
0.38
0.345
0.285
0.32
0.32
0.29
0.295
0.315
0.33
0.325
0.28
0.285
0.265
0.285
0.255
0.23
0.205
0.255
0.22
0.19
0.23
0.23
0.21
0.225
0.26
0.26
0.225
0.2
0.255
0.215
0.2
0.24
0.2
0.205
0.27
0.22
0.23
0.25
0.215
0.21
0.175
0.195
0.215
0.23
0.21
0.175
0.215
0.245
0.225
0.175
0.245
0.26
0.19
0.175
0.195
0.165
0.165
0.145
0.12
0.12
0.13
0.175
0.22
0.32
0.365
0.405
0.565
0.655
0.7
0.75
0.87
0.865
0.765
0.68
0.61
0.46
0.34
0.235
0.14
0.06
0.025
0.06
-0.015
0.015
0.055
0.105
0.14
0.165
0.185
0.18
0.23
0.205
0.195
0.225
0.17
0.16
0.2
0.18
0.17
0.15
0.2
0.245
0.175
0.17
0.165
0.18
0.195
0.205
0.18
0.205
0.195
0.17
0.15
0.24
0.235
0.195
0.195
0.235
0.18
0.215
0.19
0.205
0.195
0.18
0.195
0.185
0.22
0.265
0.205
0.2
0.225
0.225
0.28
0.23
0.205
0.19
0.205
0.21
0.215
0.195
0.22
0.185
0.205
0.205
0.22
0.24
0.26
0.165
0.195
0.225
0.32
0.315
0.27
0.24
0.25
0.21
0.255
0.255
0.22
0.335
0.34
0.3
0.36
0.34
0.295
0.31
0.395
0.37
0.375
0.36
0.39
0.37
0.35
0.415
0.395
0.385
0.44
0.45
0.49
0.47
0.465
0.42
0.48
0.46
0.44
0.415
0.45
0.505
0.47
0.45
0.445
0.455
0.465
0.425
0.42
0.415
0.44
0.365
0.375
0.39
0.315
0.28
0.285
0.25
0.27
0.295
0.275
0.265
0.23
0.19
0.205
0.19
0.18
0.155
0.145
0.175
0.2
0.185
0.21
0.195
0.15
0.095
0.125
0.105
0.12
0.15
0.215
0.14
0.15
0.185
0.13
0.155
0.145
0.105
0.105
0.14
0.14
0.045
0.205
0.155
0.105
0.14
0.12
0.135
0.12
0.115
0.12
0.125
0.11
0.065
0.155
0.13
0.165
0.145
0.16
0.125
0.15
0.095
0.065
0.12
0.075
0.13
0.15
0.165
0.095
0.085
0.1
0.135
0.145
0.115
0.085
0.085
0.14
0.12
0.115
0.13
0.145
0.16
0.14
0.145
0.085
0.085
0.15
0.14
0.115
0.075
0.125
0.11
0.095
0.085
0.08
0.08
0.13
0.095
0.15
0.175
0.145
0.075
0.11
0.095
0.075
0.1
0.14
0.105
0.11
0.12
0.1
0.135
0.13
0.125
0.115
0.14
0.17
0.105
0.11
0.15
0.11
0.13
0.175
0.185
0.165
0.15
0.175
0.18
0.2
0.205
0.18
0.16
0.205
0.16
0.075
0.06
0.1
0.085
0.04
0.085
0.135
0.075
0.11
0.055
0.04
0.07
0.085
0.13
0.13
0.15
0.07
0.125
0.05
0.015
0.09
0.155
0.065
0.06
0.06
0.115
0.09
0.075
0.07
0.025
0.075
0.045
0.065
0.06
0.065
0.07
0.06
0.08
0.06
0.005
0.035
0.1
0.125
0.095
0.045
0.09
0.04
0.05
-0.015
-0.01
-0.005
0.005
0.095
0.14
0.2
0.285
0.39
0.46
0.565
0.63
0.715
0.7
0.685
0.575
0.53
0.41
0.235
0.135
0.035
0.015
-0.07
-0.13
-0.155
-0.06
-0.015
-0.025
-0.01
-0.01
0.05
0.03
0.01
-0.005
0.1
0.09
0.095
0.085
0.05
0.045
0.065
0.035
0.07
0.06
0.025
0.015
0.075
0.095
0.065
0.06
0.01
0.05
0.065
0.06
0.095
0.095
0.025
0.075
0.105
0.12
0.115
0.05
0.06
0.045
0.035
0.07
0.095
0.075
0.065
0.07
0.07
0.075
0.075
0.08
0.085
0.055
0.03
0.13
0.145
0.165
0.055
0.095
0.1
0.095
0.115
0.15
0.115
0.1
0.075
0.16
0.17
0.135
0.04
0.095
0.115
0.125
0.19
0.165
0.135
0.115
0.145
0.22
0.18
0.16
0.165
0.23
0.235
0.3
0.245
0.2
0.215
0.22
0.285
0.295
0.27
0.32
0.315
0.3
0.315
0.305
0.31
0.37
0.355
0.365
0.315
0.355
0.385
0.365
0.305
0.35
0.35
0.375
0.375
0.35
0.285
0.325
0.32
0.29
0.31
0.31
0.29
0.275
0.23
0.205
0.185
0.205
0.205
0.12
0.145
0.155
0.095
0.115
0.13
0.105
0.12
0.09
0.08
0.055
0.095
0.015
0.005
0.055
0.035
0.055
0.025
0.1
0.065
0.02
0.015
0.045
0.0
0.02
0.06
0.055
0.005
-0.055
0.09
0.055
0.06
0.03
0.0
0.0
0.07
0.04
0.035
0.055
0.025
-0.03
0.055
0.06
0.01
0.03
0.0
-0.02
0.0
0.075
0.06
0.01
0.0
0.0
-0.03
-0.015
-0.01
-0.05
0.025
-0.015
0.015
-0.005
-0.005
-0.01
0.025
0.01
0.03
-0.04
0.01
0.015
0.015
-0.02
-0.05
-0.07
-0.005
0.015
-0.015
-0.01
0.0
0.005
0.015
-0.01
0.025
0.03
-0.035
-0.055
-0.04
-0.04
-0.02
0.015
-0.015
-0.035
-0.03
0.01
0.0
-0.02
-0.03
-0.02
-0.01
0.02
-0.005
-0.02
0.0
-0.025
-0.03
0.015
0.015
-0.015
0.005
-0.005
0.0
-0.02
-0.035
-0.045
0.005
0.025
0.005
0.01
0.07
0.09
0.025
0.025
0.06
0.07
0.02
0.07
0.05
0.03
0.02
-0.01
0.005
0.0
-0.02
-0.045
-0.07
-0.035
-0.06
-0.065
-0.045
-0.035
-0.025
-0.025
-0.045
-0.04
-0.095
-0.075
-0.055
-0.09
-0.04
-0.015
-0.03
-0.025
-0.08
-0.055
-0.025
-0.005
-0.06
-0.04
-0.08
-0.065
-0.025
-0.08
-0.05
-0.075
-0.05
-0.07
-0.08
-0.095
-0.08
-0.06
-0.05
-0.06
-0.055
-0.13
-0.155
-0.075
-0.14
-0.145
-0.1
-0.125
-0.085
-0.06
0.005
0.08
0.09
0.2
0.34
0.4
0.445
0.56
0.56
0.55
0.515
0.435
0.36
0.17
-0.015
-0.02
-0.1
-0.19
-0.21
-0.255
-0.275
-0.24
-0.185
-0.13
-0.165
-0.165
-0.14
-0.105
-0.025
-0.025
-0.035
-0.05
-0.075
-0.105
-0.09
-0.03
-0.06
-0.075
-0.09
-0.02
-0.03
-0.05
-0.115
-0.09
-0.055
-0.02
-0.07
-0.065
-0.035
-0.085
-0.065
-0.05
-0.055
-0.035
-0.02
-0.075
-0.055
0.01
0.0
-0.07
-0.03
-0.035
-0.05
-0.04
-0.03
-0.025
-0.01
0.0
-0.055
-0.035
-0.025
-0.08
-0.055
-0.01
-0.07
-0.03
0.005
-0.02
0.015
-0.005
-0.005
0.0
0.01
-0.065
-0.04
-0.005
-0.01
0.035
-0.01
0.02
0.025
0.045
0.035
0.04
0.06
0.11
0.11
0.11
0.04
0.03
0.095
0.09
0.085
0.095
0.19
0.15
0.125
0.17
0.125
0.155
0.14
0.195
0.145
0.18
0.195
0.28
0.245
0.255
0.215
0.195
0.18
0.245
0.255
0.23
0.25
0.24
0.25
0.19
0.255
0.255
0.215
0.245
0.19
0.15
0.16
0.15
0.15
0.115
0.15
0.085
0.05
0.06
0.045
0.06
0.035
0.06
0.02
-0.015
0.025
-0.025
-0.065
-0.085
-0.08
-0.03
-0.025
-0.055
-0.065
-0.045
-0.025
-0.105
-0.095
-0.095
-0.15
-0.13
-0.06
-0.085
-0.09
-0.025
-0.06
-0.075
-0.085
-0.075
-0.105
-0.1
-0.13
-0.14
-0.085
-0.06
-0.05
-0.115
-0.09
-0.125
-0.06
-0.105
-0.06
-0.105
-0.14
-0.105
-0.075
-0.095
-0.125
-0.11
-0.09
-0.13
-0.095
-0.025
-0.13
-0.14
-0.1
-0.07
-0.11
-0.155
-0.11
-0.08
-0.125
-0.08
-0.08
-0.07
-0.08
-0.105
-0.14
-0.07
-0.09
-0.13
-0.085
-0.1
-0.105
-0.095
-0.1
-0.095
-0.1
-0.04
-0.095
-0.09
-0.15
-0.135
-0.025
-0.105
-0.08
-0.09
-0.13
-0.115
-0.075
-0.085
-0.08
-0.1
-0.1
-0.095
-0.08
-0.13
-0.115
-0.155
-0.03
-0.06
-0.095
-0.055
-0.055
-0.08
-0.045
-0.04
-0.015
-0.015
0.0
-0.08
-0.11
-0.06
-0.08
-0.085
-0.095
-0.105
-0.14
-0.11
-0.125
-0.175
-0.045
-0.11
-0.135
-0.08
-0.135
-0.155
-0.15
-0.15
-0.22
-0.16
-0.105
-0.16
-0.16
-0.16
-0.165
-0.17
-0.15
-0.135
-0.155
-0.13
-0.09
-0.085
-0.11
-0.14
-0.09
-0.165
-0.2
-0.18
-0.145
-0.19
-0.155
-0.12
-0.13
-0.09
-0.155
-0.175
-0.185
-0.2
-0.21
-0.215
-0.095
-0.165
-0.145
-0.155
-0.115
-0.11
-0.3
-0.245
-0.085
-0.1
-0.035
0.075
0.185
0.255
0.305
0.375
0.455
0.48
0.405
0.345
0.28
0.195
0.015
-0.08
-0.125
-0.26
-0.38
-0.405
-0.41
-0.315
-0.275
-0.32
-0.22
-0.175
-0.175
-0.22
-0.185
-0.195
-0.2
-0.21
-0.18
-0.15
-0.195
-0.15
-0.17
-0.13
-0.18
-0.205
-0.15
-0.17
-0.14
-0.165
-0.155
-0.145
-0.15
-0.17
-0.165
-0.155
-0.17
-0.2
-0.17
-0.16
-0.195
-0.18
-0.17
-0.13
-0.13
-0.095
-0.145
-0.165
-0.125
-0.135
-0.185
-0.17
-0.17
-0.165
-0.11
-0.17
-0.105
-0.11
-0.13
-0.075
-0.13
-0.155
-0.125
-0.125
-0.12
-0.1
-0.095
-0.135
-0.12
-0.155
-0.12
-0.12
-0.06
-0.09
-0.075
-0.085
-0.075
-0.075
-0.105
-0.075
-0.085
0.02
-0.055
-0.085
-0.06
-0.01
-0.02
-0.045
0.0
0.02
-0.055
0.075
-0.01
0.03
0.055
0.12
0.115
0.09
0.105
0.09
0.115
0.165
0.13
0.12
0.1
0.13
0.125
0.17
0.13
0.15
0.145
0.185
0.105
0.085
0.075
0.14
0.13
0.11
0.085
0.105
0.12
0.08
0.065
-0.01
-0.02
0.0
-0.025
-0.03
-0.06
-0.105
-0.045
-0.05
-0.17
-0.125
-0.195
-0.125
-0.14
-0.075
-0.125
-0.165
-0.17
-0.165
-0.175
-0.245
-0.195
-0.165
-0.175
-0.22
-0.055
-0.15
-0.18
-0.255
-0.25
-0.175
-0.23
-0.165
-0.19
-0.22
-0.18
-0.225
-0.29
-0.17
-0.2
-0.225
-0.18
-0.16
-0.255
-0.25
-0.15
-0.19
-0.225
-0.135
-0.155
-0.17
-0.165
-0.17
-0.195
-0.17
-0.195
-0.22
-0.225
-0.175
-0.16
-0.175
-0.17
-0.2
-0.205
-0.15
-0.2
-0.12
-0.245
-0.21
-0.195
-0.19
-0.205
-0.215
-0.195
-0.17
-0.18
-0.2
-0.205
-0.21
-0.175
-0.205
-0.18
-0.155
-0.18
-0.21
-0.185
-0.23
-0.15
-0.205
-0.195
-0.18
-0.185
-0.2
-0.17
-0.17
-0.19
-0.205
-0.205
-0.195
-0.225
-0.205
-0.22
-0.17
-0.205
-0.19
-0.165
-0.185
-0.185
-0.16
-0.13
-0.215
-0.21
-0.185
-0.15
-0.21
-0.23
-0.2
-0.16
-0.19
-0.18
-0.155
-0.165
-0.19
-0.12
-0.145
-0.115
-0.155
-0.12
-0.155
-0.165
-0.17
-0.135
-0.09
-0.08
-0.09
-0.1
-0.2
-0.185
-0.285
-0.21
-0.175
-0.165
-0.21
-0.185
-0.22
-0.19
-0.17
-0.215
-0.295
-0.275
-0.205
-0.185
-0.2
-0.275
-0.24
-0.175
-0.215
-0.215
-0.225
-0.23
-0.245
-0.265
-0.27
-0.2
-0.21
-0.245
-0.175
-0.21
-0.24
-0.2
-0.26
-0.315
-0.28
-0.205
-0.28
-0.25
-0.12
-0.27
-0.245
-0.19
-0.215
-0.205
-0.28
-0.275
-0.325
-0.34
-0.34
-0.355
-0.31
-0.265
-0.205
-0.13
-0.045
0.045
0.125
0.22
0.24
0.345
0.355
0.41
0.35
0.195
0.175
0.035
-0.025
-0.135
-0.28
-0.36
-0.42
-0.455
-0.41
-0.295
-0.28
-0.28
-0.305
-0.36
-0.255
-0.24
-0.275
-0.175
-0.265
-0.25
-0.26
-0.275
-0.275
-0.26
-0.19
-0.27
-0.285
-0.24
-0.26
-0.195
-0.26
-0.225
-0.23
-0.235
-0.165
-0.22
-0.23
-0.235
-0.245
-0.24
-0.24
-0.16
-0.25
-0.23
-0.215
-0.195
-0.24
-0.205
-0.14
-0.235
-0.2
-0.21
-0.215
-0.245
-0.145
-0.13
-0.22
-0.18
-0.205
-0.235
-0.23
-0.175
-0.185
-0.16
-0.225
-0.165
-0.215
-0.205
-0.125
-0.195
-0.115
-0.13
-0.145
-0.175
-0.14
-0.195
-0.165
-0.12
-0.155
-0.13
-0.105
-0.155
-0.105
-0.09
-0.1
-0.08
-0.11
-0.07
-0.105
-0.1
-0.05
-0.01
0.0
-0.085
-0.055
0.01
-0.04
0.01
-0.015
0.05
0.035
0.01
0.015
0.175
0.01
-0.005
-0.01
0.12
0.095
0.065
0.08
0.07
0.085
0.07
0.115
0.08
0.175
0.06
0.005
-0.045
0.105
0.025
0.035
-0.015
-0.075
0.015
-0.075
-0.075
-0.075
-0.075
0.105
-0.25
-0.17
-0.12
-0.16
-0.095
-0.21
-0.14
-0.16
-0.26
-0.225
-0.205
-0.24
-0.215
-0.185
-0.175
-0.255
-0.18
-0.18
-0.395
-0.25
-0.21
-0.28
-0.225
-0.24
-0.29
-0.26
-0.25
-0.265
-0.24
-0.235
-0.27
-0.25
-0.205
-0.245
-0.36
-0.265
-0.21
-0.27
-0.295
-0.28
-0.3
-0.295
-0.235
-0.3
-0.345
-0.21
-0.21
-0.29
-0.275
-0.3
-0.265
-0.295
-0.275
-0.36
-0.34
-0.355
-0.3
-0.285
-0.285
-0.32
-0.285
-0.33
-0.355
-0.29
-0.355
-0.355
-0.31
-0.29
-0.36
-0.28
-0.305
-0.33
-0.35
-0.39
-0.42
-0.345
-0.365
-0.34
-0.355
-0.24
-0.385
-0.425
-0.33
-0.37
-0.385
-0.335
-0.32
-0.375
-0.315
-0.355
-0.345
-0.365
-0.385
-0.39
-0.375
-0.355
-0.315
-0.4
-0.39
-0.375
-0.34
-0.335
-0.39
-0.385
-0.37
-0.395
-0.33
-0.365
-0.365
-0.29
-0.355
-0.395
-0.4
-0.41
-0.46
-0.45
-0.37
-0.42
-0.34
-0.355
-0.335
-0.34
-0.39
-0.37
-0.325
-0.35
-0.3
-0.365
-0.355
-0.33
-0.36
-0.315
-0.365
-0.45
-0.405
-0.425
-0.435
-0.41
-0.395
-0.445
-0.52
-0.425
-0.455
-0.39
-0.52
-0.49
-0.47
-0.38
-0.42
-0.48
-0.425
-0.445
-0.51
-0.485
-0.45
-0.475
-0.415
-0.44
-0.47
-0.495
-0.44
-0.48
-0.53
-0.48
-0.45
-0.515
-0.495
-0.435
-0.495
-0.475
-0.495
-0.525
-0.445
-0.455
-0.505
-0.59
-0.485
-0.53
-0.605
-0.57
-0.585
-0.595
-0.55
-0.55
-0.435
-0.39
-0.37
-0.195
-0.22
-0.105
-0.045
0.065
0.11
0.135
0.12
0.1
-0.07
-0.205
-0.355
-0.435
-0.53
-0.64
-0.675
-0.71
-0.68
-0.62
-0.645
-0.59
-0.5
-0.525
-0.505
-0.495
-0.52
-0.6
-0.575
-0.51
-0.46
-0.5
-0.52
-0.515
-0.53
-0.53
-0.55
-0.59
-0.57
-0.505
-0.46
-0.475
-0.45
-0.5
-0.49
-0.56
-0.475
-0.495
-0.48
-0.505
-0.55
-0.51
-0.475
-0.515
-0.525
-0.5
-0.485
-0.495
-0.525
-0.52
-0.545
-0.505
-0.49
-0.515
-0.525
-0.415
-0.46
-0.465
-0.45
-0.56
-0.555
-0.535
-0.45
-0.435
-0.38
-0.565
-0.545
-0.435
-0.54
-0.515
-0.495
-0.49
-0.445
-0.425
-0.415
-0.47
-0.49
-0.46
-0.5
-0.37
-0.39
-0.43
-0.38
-0.38
-0.46
-0.435
-0.35
-0.395
-0.385
-0.365
-0.365
-0.335
-0.375
-0.375
-0.255
-0.26
-0.28
-0.235
-0.3
-0.315
-0.28
-0.26
-0.185
-0.23
-0.255
-0.255
-0.195
-0.285
-0.235
-0.23
-0.23
-0.195
-0.27
-0.255
-0.225
-0.235
-0.155
-0.23
-0.3
-0.3
-0.36
-0.27
-0.29
-0.325
-0.32
-0.3
-0.33
-0.35
-0.375
-0.38
-0.38
-0.405
-0.415
-0.405
-0.455
-0.44
-0.47
-0.485
-0.605
-0.46
-0.485
-0.445
-0.515
-0.535
-0.525
-0.545
-0.575
-0.52
-0.57
-0.505
-0.555
-0.51
-0.515
-0.595
-0.515
-0.53
-0.575
-0.515
-0.585
-0.5
-0.515
-0.46
-0.515
-0.54
-0.59
-0.545
-0.51
-0.495
-0.55
-0.525
-0.53
-0.57
-0.58
-0.5
-0.515
-0.585
-0.575
-0.53
-0.56
-0.56
-0.505
-0.5
-0.48
-0.57
-0.55
-0.525
-0.585
-0.55
-0.535
-0.53
-0.5
-0.51
-0.545
-0.495
-0.57
-0.57
-0.525
-0.55
-0.605
-0.63
-0.53
-0.55
-0.51
-0.505
-0.525
-0.56
-0.56
-0.525
-0.53
-0.535
-0.535
-0.615
-0.615
-0.545
-0.565
-0.565
-0.535
-0.56
-0.535
-0.55
-0.54
-0.525
-0.53
-0.51
-0.575
-0.545
-0.585
-0.585
-0.555
-0.505
-0.505
-0.64
-0.59
-0.545
-0.51
-0.52
-0.57
-0.545
-0.595
-0.615
-0.495
-0.535
-0.55
-0.525
-0.48
-0.435
-0.55
-0.525
-0.475
-0.5
-0.475
-0.465
-0.46
-0.485
-0.52
-0.57
-0.59
-0.54
-0.505
-0.465
-0.46
-0.57
-0.625
-0.57
-0.57
-0.615
-0.645
-0.56
-0.57
-0.655
-0.595
-0.535
-0.575
-0.49
-0.57
-0.6
-0.605
-0.54
-0.555
-0.525
-0.575
-0.535
-0.615
-0.62
-0.625
-0.61
-0.585
-0.64
-0.57
-0.56
-0.545
-0.57
-0.6
-0.55
-0.555
-0.575
-0.595
-0.585
-0.63
-0.57
-0.575
-0.605
-0.615
-0.575
-0.59
-0.655
-0.61
-0.63
-0.61
-0.57
-0.545
-0.52
-0.46
-0.515
-0.41
-0.325
-0.205
-0.115
-0.09
0.01
0.03
0.075
-0.005
-0.145
-0.26
-0.36
-0.49
-0.55
-0.6
-0.71
-0.815
-0.85
-0.79
-0.7
-0.665
-0.625
-0.685
-0.685
-0.6
-0.605
-0.645
-0.64
-0.59
-0.605
-0.61
-0.6
-0.58
-0.63
-0.595
-0.56
-0.55
-0.6
-0.59
-0.58
-0.545
-0.58
-0.54
-0.575
-0.55
-0.57
-0.565
-0.51
-0.55
-0.575
-0.625
-0.585
-0.59
-0.62
-0.575
-0.545
-0.535
-0.525
-0.495
-0.495
-0.635
-0.54
-0.53
-0.61
-0.57
-0.495
-0.54
-0.57
-0.53
-0.575
-0.47
-0.455
-0.57
-0.57
-0.495
-0.59
-0.52
-0.535
-0.525
-0.44
-0.555
-0.475
-0.45
-0.45
-0.51
-0.5
-0.5
-0.48
-0.495
-0.435
-0.45
-0.48
-0.49
-0.475
-0.45
-0.455
-0.37
-0.375
-0.35
-0.31
-0.46
-0.47
-0.385
-0.345
-0.365
-0.305
-0.25
-0.42
-0.225
-0.185
-0.315
-0.305
-0.31
-0.275
-0.285
-0.27
-0.29
-0.275
-0.26
-0.245
-0.27
-0.25
-0.205
-0.27
-0.245
-0.195
-0.26
-0.285
-0.305
-0.305
-0.275
-0.25
-0.33
-0.4
-0.35
-0.41
-0.325
-0.47
-0.415
-0.42
-0.485
-0.505
-0.495
-0.49
-0.475
-0.45
-0.47
-0.54
-0.54
-0.605
-0.59
-0.515
-0.515
-0.575
-0.575
-0.53
-0.565
-0.595
-0.56
-0.535
-0.59
-0.59
-0.585
-0.555
-0.535
-0.595
-0.605
-0.61
-0.69
-0.615
-0.565
-0.59
-0.64
-0.58
-0.58
-0.56
-0.55
-0.605
-0.64
-0.63
-0.605
-0.575
-0.57
-0.61
-0.55
-0.585
-0.59
-0.565
-0.565
-0.635
-0.61
-0.6
-0.64
-0.58
-0.55
-0.585
-0.62
-0.605
-0.6
-0.585
-0.63
-0.54
-0.64
-0.615
-0.605
-0.57
-0.64
-0.575
-0.59
-0.585
-0.64
-0.61
-0.6
-0.65
-0.585
-0.64
-0.63
-0.57
-0.595
-0.6
-0.655
-0.57
-0.645
-0.565
-0.58
-0.635
-0.63
-0.515
-0.57
-0.615
-0.615
-0.605
-0.56
-0.56
-0.585
-0.655
-0.64
-0.605
-0.66
-0.61
-0.57
-0.58
-0.605
-0.56
-0.605
-0.62
-0.655
-0.61
-0.59
-0.63
-0.6
-0.58
-0.64
-0.63
-0.605
-0.6
-0.63
-0.625
-0.585
-0.57
-0.59
-0.545
-0.595
-0.555
-0.57
-0.56
-0.625
-0.5
-0.58
-0.55
-0.535
-0.55
-0.57
-0.57
-0.565
-0.555
-0.605
-0.595
-0.585
-0.68
-0.66
-0.605
-0.68
-0.565
-0.665
-0.645
-0.59
-0.615
-0.7
-0.71
-0.655
-0.66
-0.655
-0.58
-0.655
-0.695
-0.67
-0.635
-0.585
-0.635
-0.69
-0.71
-0.645
-0.665
-0.61
-0.66
-0.615
-0.655
-0.645
-0.605
-0.655
-0.665
-0.565
-0.64
-0.675
-0.69
-0.59
-0.585
-0.685
-0.66
-0.645
-0.685
-0.74
-0.665
-0.705
-0.75
-0.68
-0.605
-0.605
-0.555
-0.47
-0.395
-0.335
-0.18
-0.125
-0.055
-0.05
-0.04
-0.115
-0.165
-0.265
-0.315
-0.545
-0.585
-0.655
-0.72
-0.75
-0.76
-0.79
-0.76
-0.84
-0.76
-0.725
-0.685
-0.6
-0.605
-0.66
-0.6
-0.6
-0.675
-0.63
-0.665
-0.64
-0.61
-0.62
-0.615
-0.665
-0.655
-0.675
-0.635
-0.645
-0.655
-0.645
-0.59
-0.63
-0.665
-0.655
-0.64
-0.64
-0.59
-0.6
-0.63
-0.645
-0.625
-0.655
-0.585
-0.615
-0.585
-0.6
-0.67
-0.595
-0.6
-0.59
-0.585
-0.565
-0.635
-0.595
-0.62
-0.615
-0.605
-0.555
-0.51
-0.64
-0.635
-0.585
-0.57
-0.61
-0.605
-0.62
-0.575
-0.62
-0.58
-0.595
-0.575
-0.575
-0.54
-0.52
-0.555
-0.55
-0.435
-0.5
-0.545
-0.56
-0.56
-0.51
-0.52
-0.485
-0.495
-0.465
-0.475
-0.435
-0.445
-0.37
-0.41
-0.46
-0.48
-0.425
-0.365
-0.375
-0.44
-0.4
-0.39
-0.37
-0.32
-0.305
-0.325
-0.385
-0.345
-0.35
-0.275
-0.385
-0.335
-0.325
-0.31
-0.32
-0.295
-0.285
-0.345
-0.375
-0.325
-0.345
-0.315
-0.3
-0.38
-0.43
-0.39
-0.445
-0.47
-0.515
-0.515
-0.46
-0.49
-0.495
-0.515
-0.525
-0.56
-0.555
-0.57
-0.565
-0.585
-0.605
-0.58
-0.58
-0.595
-0.635
-0.59
-0.615
-0.64
-0.6
-0.54
-0.655
-0.585
-0.61
-0.615
-0.59
-0.565
-0.66
-0.655
-0.695
-0.61
-0.625
-0.555
-0.56
-0.515
-0.6
-0.605
-0.655
-0.62
-0.55
-0.61
-0.625
-0.605
-0.63
-0.615
-0.61
-0.63
-0.63
-0.6
-0.58
-0.645
-0.59
-0.595
-0.61
-0.615
-0.65
-0.69
-0.615
-0.61
-0.63
-0.56
-0.545
-0.545
-0.58
-0.535
-0.625
-0.62
-0.6
-0.595
-0.635
-0.665
-0.635
-0.625
-0.645
-0.605
-0.59
-0.575
-0.59
-0.595
-0.61
-0.615
-0.6
-0.595
-0.555
-0.57
-0.58
-0.585
-0.64
-0.625
-0.58
-0.6
-0.62
-0.555
-0.575
-0.58
-0.675
-0.605
-0.65
-0.625
-0.595
-0.655
-0.615
-0.56
-0.62
-0.57
-0.515
-0.545
-0.6
-0.575
-0.61
-0.66
-0.62
-0.555
-0.625
-0.64
-0.575
-0.54
-0.6
-0.615
-0.63
-0.565
-0.575
-0.56
-0.55
-0.625
-0.575
-0.6
-0.545
-0.565
-0.6
-0.575
-0.44
-0.48
-0.51
-0.505
-0.51
-0.53
-0.56
-0.48
-0.515
-0.55
-0.61
-0.57
-0.565
-0.56
-0.55
-0.555
-0.66
-0.61
-0.59
-0.625
-0.56
-0.58
-0.61
-0.61
-0.575
-0.59
-0.615
-0.585
-0.605
-0.655
-0.615
-0.59
-0.565
-0.615
-0.6
-0.57
-0.575
-0.61
-0.575
-0.605
-0.64
-0.63
-0.63
-0.59
-0.575
-0.58
-0.575
-0.595
-0.655
-0.65
-0.67
-0.565
-0.615
-0.565
-0.58
-0.635
-0.66
-0.615
-0.59
-0.73
-0.675
-0.645
-0.68
-0.635
-0.57
-0.515
-0.44
-0.34
-0.25
-0.165
-0.055
-0.035
-0.025
0.02
0.02
-0.09
-0.165
-0.36
-0.46
-0.47
-0.605
-0.595
-0.69
-0.735
-0.76
-0.745
-0.75
-0.665
-0.635
-0.61
-0.58
-0.605
-0.615
-0.64
-0.625
-0.635
-0.575
-0.56
-0.6
-0.61
-0.555
-0.575
-0.53
-0.595
-0.6
-0.635
-0.625
-0.545
-0.56
-0.59
-0.59
-0.555
-0.585
-0.57
-0.615
-0.59
-0.57
-0.555
-0.555
-0.65
-0.595
-0.515
-0.55
-0.54
-0.54
-0.605
-0.605
-0.545
-0.555
-0.53
-0.555
-0.56
-0.595
-0.555
-0.535
-0.575
-0.565
-0.57
-0.57
-0.565
-0.535
-0.5
-0.555
-0.56
-0.505
-0.54
-0.53
-0.485
-0.53
-0.54
-0.49
-0.5
-0.48
-0.55
-0.46
-0.445
-0.465
-0.53
-0.535
-0.465
-0.485
-0.44
-0.43
-0.47
-0.44
-0.465
-0.41
-0.345
-0.395
-0.405
-0.315
-0.385
-0.36
-0.35
-0.37
-0.385
-0.32
-0.36
-0.305
-0.285
-0.285
-0.325
-0.32
-0.3
-0.26
-0.27
-0.275
-0.285
-0.26
-0.235
-0.245
-0.305
-0.26
-0.285
-0.325
-0.325
-0.345
-0.315
-0.335
-0.34
-0.295
-0.355
-0.43
-0.35
-0.41
-0.465
-0.45
-0.46
-0.52
-0.52
-0.475
-0.5
-0.51
-0.49
-0.55
-0.535
-0.51
-0.545
-0.59
-0.525
-0.53
-0.58
-0.625
-0.545
-0.525
-0.61
-0.6
-0.585
-0.59
-0.57
-0.55
-0.615
-0.53
-0.595
-0.59
-0.6
-0.525
-0.58
-0.59
-0.535
-0.56
-0.625
-0.59
-0.605
-0.555
-0.58
-0.595
-0.575
-0.575
-0.565
-0.535
-0.58
-0.585
-0.575
-0.605
-0.61
-0.58
-0.605
-0.555
-0.57
-0.605
-0.585
-0.57
-0.575
-0.595
-0.59
-0.585
-0.59
-0.575
-0.565
-0.51
-0.52
-0.585
-0.555
-0.565
-0.635
-0.56
-0.605
-0.57
-0.585
-0.545
-0.595
-0.54
-0.59
-0.58
-0.61
-0.565
-0.55
-0.59
-0.595
-0.62
-0.605
-0.575
-0.55
-0.58
-0.57
-0.565
-0.555
-0.54
-0.565
-0.555
-0.61
-0.56
-0.585
-0.615
-0.57
-0.6
-0.605
-0.585
-0.515
-0.6
-0.58
-0.56
-0.6
-0.615
-0.55
-0.59
-0.58
-0.57
-0.59
-0.59
-0.585
-0.57
-0.565
-0.58
-0.59
-0.58
-0.57
-0.52
-0.53
-0.56
-0.505
-0.555
-0.575
-0.625
-0.58
-0.555
-0.555
-0.525
-0.495
-0.535
-0.575
-0.52
-0.505
-0.51
-0.5
-0.535
-0.44
-0.495
-0.495
-0.505
-0.615
-0.56
-0.545
-0.625
-0.6
-0.575
-0.51
-0.545
-0.605
-0.61
-0.655
-0.575
-0.585
-0.62
-0.585
-0.585
-0.59
-0.605
-0.65
-0.57
-0.58
-0.55
-0.59
-0.615
-0.615
-0.62
-0.605
-0.595
-0.61
-0.56
-0.6
-0.57
-0.61
-0.63
-0.6
-0.64
-0.58
-0.59
-0.615
-0.57
-0.555
-0.56
-0.62
-0.63
-0.575
-0.6
-0.645
-0.615
-0.63
-0.62
-0.655
-0.68
-0.675
-0.69
-0.585
-0.555
-0.45
-0.385
-0.31
-0.195
-0.105
-0.03
-0.025
0.06
0.035
-0.075
-0.18
-0.265
-0.37
-0.475
-0.56
-0.615
-0.745
-0.78
-0.76
-0.72
-0.69
-0.625
-0.685
-0.725
-0.635
-0.64
-0.565
-0.565
-0.56
-0.62
-0.61
-0.61
-0.61
-0.605
-0.6
-0.575
-0.62
-0.61
-0.615
-0.545
-0.555
-0.6
-0.57
-0.555
-0.565
-0.56
-0.53
-0.54
-0.545
-0.56
-0.52
-0.545
-0.58
-0.555
-0.56
-0.585
-0.58
-0.555
-0.57
-0.62
-0.535
-0.565
-0.505
-0.545
-0.525
-0.525
-0.53
-0.55
-0.59
-0.56
-0.535
-0.495
-0.54
-0.53
-0.525
-0.545
-0.53
-0.525
-0.49
-0.51
-0.505
-0.485
-0.495
-0.515
-0.475
-0.48
-0.52
-0.495
-0.52
-0.5
-0.485
-0.52
-0.41
-0.46
-0.445
-0.435
-0.48
-0.4
-0.36
-0.395
-0.38
-0.365
-0.375
-0.4
-0.37
-0.385
-0.345
-0.335
-0.345
-0.34
-0.325
-0.285
-0.31
-0.29
-0.305
-0.3
-0.28
-0.26
-0.235
-0.225
-0.245
-0.22
-0.245
-0.24
-0.25
-0.23
-0.23
-0.26
-0.32
-0.235
-0.265
-0.315
-0.34
-0.34
-0.325
-0.34
-0.345
-0.425
-0.455
-0.375
-0.405
-0.37
-0.435
-0.425
-0.525
-0.5
-0.5
