# TIPE ECG 2021 - ECG-ID Database v1.0.0 par Physionet
# [Numéro de la personne, Période d'échantillonnage, Prénom, Age, Sexe, Date de l'enregistrement]
[23, 0.002, Howard, 25, H, 26.04.2005]
-0.395
-0.3
-0.17
-0.125
-0.13
-0.185
-0.305
-0.365
-0.28
-0.29
-0.29
-0.295
-0.195
-0.115
-0.03
-0.125
-0.2
-0.265
-0.33
-0.37
-0.34
-0.32
-0.255
-0.115
-0.06
-0.155
-0.19
-0.29
-0.27
-0.365
-0.42
-0.3
-0.245
-0.15
-0.095
-0.195
-0.175
-0.265
-0.345
-0.385
-0.305
-0.19
-0.205
-0.19
-0.085
-0.08
-0.2
-0.24
-0.37
-0.285
-0.255
-0.24
-0.2
-0.13
-0.1
-0.165
-0.24
-0.27
-0.37
-0.365
-0.315
-0.21
-0.225
-0.065
-0.025
-0.055
-0.21
-0.27
-0.375
-0.345
-0.235
-0.16
-0.155
-0.115
-0.07
-0.155
-0.245
-0.27
-0.3
-0.31
-0.25
-0.2
-0.155
-0.085
-0.075
-0.135
-0.19
-0.19
-0.37
-0.275
-0.245
-0.1
-0.065
-0.09
-0.075
-0.145
-0.245
-0.325
-0.435
-0.31
-0.2
-0.205
-0.17
-0.055
-0.035
-0.13
-0.145
-0.26
-0.355
-0.315
-0.305
-0.245
-0.17
-0.13
-0.075
-0.205
-0.235
-0.24
-0.31
-0.265
-0.245
-0.235
-0.165
-0.145
-0.15
-0.17
-0.23
-0.21
-0.315
-0.235
-0.16
-0.205
-0.155
-0.02
-0.11
-0.14
-0.27
-0.205
-0.3
-0.325
-0.185
-0.095
-0.035
0.025
-0.02
-0.03
-0.195
-0.275
-0.425
-0.385
-0.235
-0.145
-0.12
-0.025
-0.03
-0.11
-0.295
-0.285
-0.285
-0.215
-0.11
-0.125
-0.06
-0.175
-0.285
-0.26
-0.305
-0.25
-0.245
-0.215
-0.17
-0.175
-0.115
-0.225
-0.245
-0.31
-0.41
-0.315
-0.26
-0.225
-0.175
-0.12
-0.1
-0.215
-0.215
-0.33
-0.315
-0.27
-0.28
-0.28
-0.19
-0.045
-0.045
-0.18
-0.285
-0.275
-0.255
-0.32
-0.23
-0.195
-0.11
-0.05
-0.135
-0.2
-0.28
-0.32
-0.29
-0.32
-0.19
-0.155
-0.17
-0.1
-0.205
-0.26
-0.275
-0.435
-0.415
-0.33
-0.215
-0.215
-0.135
-0.115
-0.155
-0.24
-0.27
-0.375
-0.365
-0.275
-0.21
-0.205
-0.21
-0.23
-0.255
-0.285
-0.285
-0.455
-0.415
-0.27
-0.24
-0.255
-0.125
-0.195
-0.235
-0.31
-0.315
-0.35
-0.25
-0.285
-0.21
-0.21
-0.11
-0.185
-0.2
-0.21
-0.335
-0.39
-0.455
-0.255
-0.19
-0.135
-0.085
-0.145
-0.25
-0.22
-0.205
-0.32
-0.345
-0.36
-0.29
-0.24
-0.255
-0.195
-0.2
-0.3
-0.27
-0.37
-0.275
-0.215
-0.125
-0.1
-0.065
-0.11
-0.2
-0.29
-0.385
-0.37
-0.345
-0.345
-0.24
-0.145
-0.105
-0.165
-0.3
-0.295
-0.26
-0.35
-0.35
-0.3
-0.235
-0.12
-0.095
-0.125
-0.275
-0.265
-0.275
-0.35
-0.365
-0.24
-0.145
-0.16
-0.07
0.015
-0.07
-0.16
-0.245
-0.3
-0.26
-0.13
-0.11
-0.075
0.035
0.005
-0.09
-0.12
-0.2
-0.28
-0.295
-0.225
-0.1
-0.075
-0.04
-0.02
-0.105
-0.25
-0.31
-0.26
-0.21
-0.13
-0.105
-0.12
-0.03
-0.085
-0.165
-0.13
-0.26
-0.255
-0.135
-0.22
-0.19
-0.01
-0.045
-0.185
-0.325
-0.38
-0.48
-0.34
-0.285
-0.195
-0.125
-0.085
-0.2
-0.22
-0.255
-0.305
-0.375
-0.375
-0.285
-0.205
-0.15
-0.12
-0.155
-0.245
-0.285
-0.3
-0.37
-0.24
-0.17
-0.065
0.01
0.155
0.22
0.31
0.31
0.32
0.225
0.305
0.28
0.23
0.06
0.075
-0.02
-0.255
-0.465
-0.795
-1.15
-1.225
-1.19
-1.04
-0.975
-0.815
-0.72
-0.715
-0.79
-0.765
-0.765
-0.65
-0.62
-0.52
-0.48
-0.4
-0.335
-0.37
-0.415
-0.355
-0.48
-0.48
-0.29
-0.2
-0.245
-0.125
-0.07
-0.19
-0.26
-0.305
-0.37
-0.24
-0.165
-0.265
-0.165
-0.115
-0.085
-0.215
-0.18
-0.245
-0.39
-0.315
-0.255
-0.185
-0.045
-0.065
-0.07
-0.15
-0.25
-0.31
-0.3
-0.32
-0.23
-0.17
-0.135
-0.09
-0.075
-0.125
-0.12
-0.15
-0.3
-0.26
-0.195
-0.125
-0.045
-0.045
-0.02
-0.09
-0.18
-0.24
-0.325
-0.27
-0.19
-0.135
-0.04
0.065
0.02
-0.09
-0.13
-0.195
-0.19
-0.115
-0.06
-0.005
0.035
0.085
0.085
0.025
-0.125
-0.14
-0.165
-0.09
-0.03
-0.005
0.055
0.035
0.02
-0.01
-0.005
-0.09
-0.06
0.015
0.06
0.14
0.17
0.215
0.215
0.04
0.05
-0.08
-0.03
0.035
0.115
0.14
0.26
0.245
0.24
0.115
0.075
0.035
0.035
0.12
0.185
0.215
0.26
0.305
0.22
0.13
0.07
0.085
0.075
0.15
0.14
0.15
0.24
0.225
0.26
0.14
0.05
-0.04
0.0
-0.015
0.05
0.125
0.23
0.15
0.035
-0.01
-0.045
-0.13
-0.15
-0.04
-0.085
-0.06
0.055
-0.035
-0.03
-0.135
-0.265
-0.315
-0.29
-0.205
-0.175
-0.075
-0.02
-0.085
-0.08
-0.175
-0.205
-0.415
-0.33
-0.23
-0.105
-0.175
-0.075
-0.12
-0.175
-0.24
-0.385
-0.42
-0.345
-0.31
-0.235
-0.185
0.005
-0.035
-0.15
-0.21
-0.265
-0.32
-0.345
-0.29
-0.19
-0.195
-0.17
-0.145
-0.25
-0.245
-0.255
-0.4
-0.33
-0.325
-0.235
-0.09
-0.035
-0.085
-0.185
-0.245
-0.29
-0.375
-0.39
-0.29
-0.085
-0.115
-0.06
-0.1
-0.2
-0.265
-0.28
-0.33
-0.265
-0.245
-0.21
-0.165
-0.16
-0.165
-0.23
-0.225
-0.28
-0.29
-0.3
-0.265
-0.17
-0.165
-0.175
-0.2
-0.235
-0.265
-0.315
-0.325
-0.325
-0.235
-0.175
-0.095
-0.13
-0.18
-0.205
-0.29
-0.33
-0.205
-0.25
-0.205
-0.24
-0.155
-0.135
-0.185
-0.27
-0.31
-0.37
-0.37
-0.36
-0.27
-0.23
-0.135
-0.14
-0.24
-0.24
-0.26
-0.375
-0.36
-0.255
-0.235
-0.24
-0.25
-0.215
-0.19
-0.27
-0.34
-0.43
-0.405
-0.315
-0.215
-0.185
-0.095
-0.16
-0.185
-0.245
-0.275
-0.41
-0.385
-0.315
-0.245
-0.165
-0.08
-0.155
-0.145
-0.275
-0.33
-0.405
-0.395
-0.22
-0.305
-0.135
-0.155
-0.175
-0.205
-0.29
-0.32
-0.385
-0.42
-0.31
-0.27
-0.155
-0.085
-0.125
-0.15
-0.17
-0.38
-0.37
-0.415
-0.28
-0.26
-0.285
-0.12
-0.15
-0.175
-0.265
-0.335
-0.39
-0.405
-0.265
-0.195
-0.23
-0.19
-0.15
-0.19
-0.27
-0.32
-0.41
-0.365
-0.33
-0.29
-0.24
-0.165
-0.055
-0.16
-0.295
-0.24
-0.295
-0.3
-0.18
-0.23
-0.185
-0.115
-0.18
-0.255
-0.305
-0.36
-0.31
-0.32
-0.3
-0.215
-0.175
-0.07
-0.07
-0.19
-0.265
-0.315
-0.37
-0.34
-0.285
-0.185
-0.135
-0.12
-0.185
-0.25
-0.22
-0.31
-0.29
-0.38
-0.305
-0.23
-0.135
-0.105
-0.195
-0.22
-0.26
-0.375
-0.39
-0.335
-0.235
-0.19
-0.04
-0.085
-0.185
-0.245
-0.2
-0.26
-0.29
-0.31
-0.245
-0.195
-0.055
-0.145
-0.165
-0.2
-0.26
-0.3
-0.335
-0.36
-0.29
-0.165
-0.065
-0.07
-0.115
-0.235
-0.26
-0.345
-0.33
-0.305
-0.16
-0.2
-0.13
-0.145
-0.155
-0.205
-0.2
-0.33
-0.31
-0.285
-0.1
-0.035
0.03
-0.1
-0.22
-0.335
-0.275
-0.355
-0.39
-0.315
-0.25
-0.195
-0.075
-0.14
-0.19
-0.24
-0.235
-0.285
-0.31
-0.245
-0.165
-0.145
-0.055
-0.06
-0.15
-0.22
-0.245
-0.285
-0.29
-0.335
-0.185
-0.2
-0.18
-0.115
-0.175
-0.285
-0.215
-0.335
-0.37
-0.21
-0.165
-0.14
-0.085
-0.11
-0.195
-0.215
-0.25
-0.365
-0.335
-0.175
-0.115
-0.135
-0.06
-0.085
-0.175
-0.25
-0.325
-0.355
-0.265
-0.15
-0.08
-0.095
-0.065
-0.125
-0.085
-0.095
-0.2
-0.26
-0.215
-0.08
0.0
0.015
0.01
-0.015
-0.025
-0.095
-0.135
-0.24
-0.15
-0.005
0.045
0.025
0.01
-0.05
-0.065
-0.13
-0.19
-0.185
-0.125
-0.075
-0.05
-0.04
0.025
0.035
-0.065
-0.215
-0.215
-0.23
-0.23
-0.19
-0.145
0.005
-0.025
-0.07
-0.15
-0.2
-0.33
-0.3
-0.275
-0.245
-0.16
-0.085
-0.075
-0.12
-0.21
-0.305
-0.365
-0.3
-0.23
-0.185
-0.085
-0.045
-0.03
-0.085
-0.05
-0.01
-0.06
0.015
0.17
0.27
0.45
0.61
0.705
0.555
0.375
0.25
0.025
-0.005
-0.15
-0.36
-0.52
-0.535
-0.785
-0.92
-1.045
-1.04
-1.11
-1.035
-0.915
-0.69
-0.595
-0.425
-0.39
-0.395
-0.455
-0.535
-0.535
-0.4
-0.3
-0.11
-0.08
0.065
0.085
0.175
0.065
0.06
-0.05
0.085
0.155
0.2
0.2
0.335
0.31
0.23
0.12
0.06
0.025
-0.005
0.085
0.14
0.125
0.21
0.195
0.095
0.09
-0.01
-0.065
-0.055
-0.01
0.035
0.16
0.305
0.275
0.175
0.06
-0.025
-0.095
-0.06
0.04
0.12
0.12
0.145
0.16
0.125
0.065
0.025
0.03
0.045
0.04
0.19
0.175
0.27
0.285
0.155
0.03
0.025
-0.025
0.005
0.065
0.135
0.265
0.235
0.185
0.13
0.025
-0.01
0.04
0.095
0.125
0.225
0.31
0.315
0.305
0.155
0.125
0.05
0.09
0.165
0.205
0.275
0.29
0.38
0.26
0.22
0.245
0.185
0.265
0.19
0.26
0.325
0.275
0.345
0.395
0.28
0.31
0.25
0.255
0.155
0.27
0.315
0.395
0.485
0.43
0.325
0.26
0.25
0.175
0.22
0.32
0.315
0.42
0.445
0.36
0.245
0.24
0.155
0.225
0.295
0.355
0.285
0.415
0.415
0.405
0.25
0.26
0.165
0.02
0.105
0.085
0.265
0.31
0.245
0.08
0.065
0.005
0.025
0.005
-0.01
0.06
0.11
0.15
0.135
0.06
-0.055
-0.13
-0.14
-0.085
-0.05
-0.04
-0.01
0.12
0.065
-0.01
-0.075
-0.145
-0.305
-0.22
-0.09
-0.055
-0.075
0.015
-0.01
0.005
-0.1
-0.1
-0.21
-0.215
-0.125
-0.06
0.035
0.115
0.08
-0.06
-0.145
-0.105
-0.215
-0.195
-0.15
-0.05
-0.045
0.025
0.04
-0.03
-0.105
-0.22
-0.165
-0.155
-0.075
0.03
0.015
0.07
0.06
-0.02
-0.15
-0.135
-0.22
-0.275
-0.16
-0.06
-0.025
0.12
-0.035
-0.02
-0.09
-0.15
-0.15
-0.14
-0.06
-0.01
-0.01
0.045
-0.01
0.005
-0.13
-0.12
-0.18
-0.15
-0.105
-0.065
0.03
0.085
0.06
0.045
-0.115
-0.19
-0.3
-0.17
-0.04
-0.01
0.02
0.085
0.025
-0.065
-0.09
-0.15
-0.19
-0.13
-0.04
0.04
0.055
0.03
-0.015
-0.155
-0.08
-0.18
-0.17
-0.11
-0.11
-0.13
-0.025
0.06
0.045
-0.035
-0.11
-0.14
-0.16
-0.19
-0.09
-0.075
0.065
0.04
0.005
-0.09
-0.065
-0.165
-0.18
-0.14
-0.08
-0.025
0.095
0.075
0.0
-0.1
-0.095
-0.23
-0.2
-0.135
0.02
-0.045
0.025
0.01
-0.1
-0.05
-0.115
-0.25
-0.175
-0.13
-0.045
-0.04
0.02
0.06
0.045
-0.08
-0.13
-0.175
-0.14
-0.115
-0.055
-0.04
0.01
-0.015
-0.12
-0.17
-0.09
-0.16
-0.185
-0.125
-0.035
0.025
0.1
0.07
-0.03
-0.1
-0.105
-0.16
-0.135
-0.065
0.02
-0.065
0.045
0.05
-0.09
-0.16
-0.11
-0.135
-0.12
-0.095
0.0
0.02
0.03
0.01
-0.06
-0.135
-0.155
-0.205
-0.15
-0.085
0.005
0.03
0.045
-0.04
-0.05
-0.095
-0.09
-0.18
-0.16
-0.065
0.015
-0.01
0.125
0.11
-0.025
-0.08
-0.04
-0.16
-0.145
-0.015
0.005
0.035
0.14
0.035
-0.015
0.03
-0.135
-0.12
-0.095
-0.035
-0.065
-0.005
0.06
0.055
-0.045
-0.095
-0.245
-0.19
-0.125
-0.03
0.045
0.125
0.11
0.03
-0.015
-0.03
-0.075
-0.1
-0.1
-0.065
0.025
0.06
0.08
0.06
-0.015
-0.095
-0.095
-0.05
-0.105
-0.065
-0.03
0.08
0.105
0.135
0.05
0.03
-0.135
-0.13
-0.05
0.005
0.065
0.135
0.095
-0.03
-0.015
-0.035
-0.19
-0.165
-0.14
0.025
0.02
0.095
0.085
0.03
-0.075
-0.085
-0.245
-0.21
-0.05
0.0
0.05
0.145
0.075
0.045
-0.07
-0.115
-0.255
-0.16
-0.06
0.0
0.025
0.065
0.07
0.09
-0.06
-0.035
-0.16
-0.11
-0.065
-0.025
-0.045
0.14
0.145
0.055
-0.035
-0.045
-0.12
-0.055
-0.05
-0.025
0.11
0.18
0.155
0.125
0.045
0.0
-0.065
-0.08
0.03
0.21
0.12
0.18
0.12
0.045
-0.01
0.075
-0.06
-0.05
0.03
0.095
0.13
0.155
0.11
0.04
-0.02
-0.06
-0.1
-0.1
-0.07
-0.015
0.06
0.09
0.0
-0.065
-0.14
-0.17
-0.175
-0.145
-0.09
-0.015
-0.005
0.15
0.095
-0.035
-0.1
-0.125
-0.165
-0.205
-0.09
-0.03
0.0
0.025
0.045
-0.115
-0.115
-0.12
-0.08
-0.005
0.11
0.23
0.3
0.42
0.475
0.5
0.495
0.49
0.525
0.425
0.315
0.22
0.19
0.055
-0.1
-0.365
-0.62
-0.89
-0.945
-0.885
-0.785
-0.785
-0.605
-0.525
-0.535
-0.54
-0.545
-0.53
-0.43
-0.385
-0.405
-0.29
-0.165
-0.195
-0.17
-0.2
-0.3
-0.33
-0.215
-0.095
-0.02
-0.025
0.105
0.02
0.0
-0.095
-0.085
-0.15
-0.125
-0.115
-0.04
0.03
0.05
0.1
0.095
0.0
-0.055
-0.16
-0.215
-0.1
-0.015
0.035
0.145
0.125
0.05
-0.02
-0.08
-0.2
-0.155
-0.07
0.035
0.015
0.105
0.145
0.07
-0.01
-0.015
-0.055
-0.125
-0.055
0.075
0.095
0.2
0.22
0.07
-0.08
-0.01
-0.065
-0.045
0.02
0.08
0.105
0.225
0.17
0.105
0.075
0.01
-0.06
-0.005
0.075
0.15
0.135
0.34
0.225
0.18
0.115
0.065
0.005
0.05
0.12
0.2
0.275
0.305
0.26
0.26
0.23
0.195
0.12
0.18
0.185
0.18
0.28
0.28
0.25
0.255
0.205
0.135
0.155
0.2
0.285
0.32
0.35
0.42
0.415
0.33
0.255
0.24
0.15
0.25
0.415
0.475
0.445
0.5
0.435
0.355
0.34
0.3
0.15
0.335
0.385
0.34
0.415
0.41
0.38
0.36
0.275
0.24
0.165
0.105
0.26
0.32
0.29
0.31
0.21
0.165
0.125
0.075
0.1
0.15
0.145
0.04
0.22
0.16
0.065
0.04
0.0
-0.09
-0.105
-0.07
-0.01
0.065
0.175
0.1
0.055
-0.08
-0.035
-0.095
-0.09
-0.075
-0.045
-0.03
0.095
0.075
0.09
0.0
0.02
-0.145
-0.18
-0.1
-0.01
-0.005
0.04
-0.005
0.03
-0.04
-0.12
-0.21
-0.09
-0.04
0.055
0.055
0.105
0.1
0.08
0.02
-0.005
-0.105
-0.165
-0.07
0.06
0.055
0.08
0.175
0.05
0.01
-0.065
-0.145
-0.105
0.035
0.08
0.085
0.14
0.105
-0.025
-0.06
-0.015
0.005
-0.07
-0.055
0.065
0.05
0.145
0.14
0.1
0.0
-0.035
-0.12
-0.105
-0.055
0.075
0.16
0.2
0.125
-0.06
-0.03
-0.075
-0.115
-0.12
0.0
-0.015
0.05
0.185
0.165
0.065
0.02
-0.04
-0.115
-0.075
0.015
0.085
0.065
0.0
0.11
0.005
-0.01
-0.1
-0.1
-0.03
0.035
0.03
0.125
0.11
0.07
0.03
-0.09
-0.105
-0.105
-0.06
-0.005
-0.01
0.075
0.055
0.01
-0.085
-0.17
-0.145
-0.17
-0.09
-0.015
-0.005
0.055
0.105
0.06
0.04
-0.03
-0.2
-0.125
-0.105
-0.06
0.01
0.13
0.055
0.065
0.005
-0.075
-0.195
-0.145
-0.09
-0.03
0.055
0.075
0.085
0.1
-0.03
-0.005
-0.1
-0.09
-0.055
0.0
0.0
0.055
0.1
0.04
-0.105
-0.09
-0.175
-0.14
-0.115
-0.015
0.055
0.15
0.13
0.055
-0.04
-0.03
-0.245
-0.205
-0.235
0.005
0.19
0.22
0.11
0.09
0.085
0.0
-0.155
-0.15
-0.04
-0.01
0.04
0.07
0.105
0.005
-0.035
-0.005
-0.19
-0.185
-0.095
0.01
0.02
0.13
0.125
0.065
-0.025
-0.065
-0.145
-0.14
-0.08
0.04
-0.025
-0.005
0.045
0.065
-0.045
-0.145
-0.185
-0.165
-0.045
0.0
0.02
0.07
0.025
-0.025
-0.06
-0.115
-0.175
-0.16
-0.065
0.01
0.015
0.1
0.075
0.04
-0.035
-0.065
-0.2
-0.115
-0.065
-0.03
-0.06
0.01
-0.025
-0.055
-0.065
-0.065
-0.16
-0.2
-0.09
0.05
0.105
0.15
0.07
-0.025
-0.095
-0.115
-0.155
-0.105
-0.055
0.025
0.02
0.035
0.165
0.06
-0.095
-0.145
-0.105
-0.045
-0.03
0.055
0.155
0.15
0.2
0.065
-0.01
-0.055
-0.055
-0.01
0.05
0.105
0.24
0.34
0.215
0.105
0.15
0.11
-0.075
-0.08
-0.12
0.125
0.25
0.14
0.115
0.06
0.015
-0.065
-0.08
-0.055
0.045
0.11
0.18
0.09
0.07
0.025
-0.125
-0.27
-0.2
-0.125
-0.08
-0.03
0.01
0.045
0.015
-0.045
-0.095
-0.185
-0.15
-0.205
-0.13
-0.085
0.015
0.015
-0.025
-0.07
-0.06
-0.21
-0.22
-0.11
0.02
0.11
0.28
0.34
0.35
0.37
0.465
0.435
0.485
0.575
0.595
0.545
0.425
0.325
0.055
-0.135
-0.425
-0.645
-0.885
-0.98
-0.915
-0.855
-0.645
-0.525
-0.555
-0.665
-0.56
-0.615
-0.5
-0.475
-0.355
-0.28
-0.185
-0.12
-0.2
-0.225
-0.13
-0.245
-0.345
-0.15
0.005
0.07
0.11
0.055
0.045
0.01
-0.09
-0.115
-0.11
-0.08
0.01
0.09
0.115
0.07
0.07
0.035
-0.015
-0.125
-0.07
-0.025
0.135
0.215
0.17
0.05
0.01
-0.065
-0.09
-0.075
-0.035
0.055
0.045
0.045
0.075
0.115
0.11
0.035
0.045
-0.055
-0.015
-0.015
0.07
0.125
0.15
0.17
0.125
0.065
-0.02
-0.055
-0.015
0.075
0.075
0.205
0.25
0.175
0.09
0.06
0.085
0.06
0.06
0.045
0.06
0.13
0.25
0.22
0.06
0.07
0.115
0.13
0.14
0.16
0.245
0.34
0.29
0.25
0.165
0.1
0.105
0.035
0.115
0.265
0.3
0.395
0.385
0.285
0.31
0.275
0.19
0.195
0.24
0.29
0.32
0.37
0.395
0.365
0.315
0.28
0.23
0.275
0.345
0.335
0.485
0.58
0.5
0.4
0.35
0.295
0.23
0.13
0.28
0.33
0.37
0.46
0.425
0.47
0.29
0.285
0.225
0.205
0.215
0.31
0.345
0.375
0.395
0.335
0.175
0.14
-0.01
-0.06
0.07
0.16
0.125
0.225
0.2
0.145
-0.015
-0.015
-0.045
-0.135
-0.045
0.02
0.06
0.105
0.06
0.02
-0.075
-0.125
-0.17
-0.13
-0.11
-0.08
-0.03
0.1
0.13
0.0
-0.065
-0.17
-0.16
-0.105
-0.13
-0.115
-0.02
0.065
0.04
-0.035
-0.135
-0.115
-0.125
-0.12
-0.045
-0.03
0.03
0.075
-0.015
-0.015
-0.075
-0.165
-0.2
-0.18
-0.075
0.0
0.065
0.09
0.0
0.015
-0.07
-0.165
-0.135
-0.16
-0.08
0.05
0.145
0.09
0.025
0.02
0.045
-0.105
-0.195
-0.015
-0.03
-0.04
-0.09
0.065
-0.035
-0.195
-0.015
-0.095
-0.155
-0.06
-0.03
-0.01
0.025
0.125
0.075
-0.13
-0.13
-0.19
-0.13
-0.165
-0.01
0.005
0.08
0.025
-0.01
-0.07
-0.1
-0.115
-0.135
-0.055
0.005
-0.015
-0.005
-0.04
-0.045
-0.06
-0.075
-0.2
-0.165
-0.11
-0.06
-0.01
0.09
0.015
0.025
-0.07
-0.095
-0.22
-0.11
-0.065
-0.095
-0.085
0.005
0.07
-0.065
-0.175
-0.19
-0.3
-0.26
-0.19
-0.09
-0.06
-0.03
-0.02
-0.005
-0.13
-0.115
-0.2
-0.215
-0.155
-0.05
-0.04
-0.06
-0.05
-0.03
-0.12
-0.145
-0.245
-0.27
-0.12
-0.075
-0.1
-0.08
-0.01
-0.045
-0.18
-0.16
-0.21
-0.195
-0.155
-0.045
-0.04
0.07
-0.01
-0.1
-0.055
-0.18
-0.245
-0.155
-0.165
-0.095
-0.025
-0.025
0.015
-0.05
-0.19
-0.2
-0.235
-0.28
-0.16
-0.045
0.035
0.015
0.005
-0.1
-0.275
-0.215
-0.315
-0.19
-0.12
-0.065
-0.015
0.01
-0.005
-0.07
-0.06
-0.15
-0.17
-0.18
-0.185
-0.05
-0.04
0.005
-0.095
-0.1
-0.085
-0.175
-0.205
-0.215
-0.095
-0.05
0.015
0.03
0.0
-0.11
-0.125
-0.195
-0.23
-0.205
-0.18
-0.12
0.05
0.02
-0.065
-0.035
-0.16
-0.16
-0.155
-0.125
-0.075
-0.04
0.0
0.025
-0.125
-0.145
-0.145
-0.27
-0.16
-0.13
-0.095
-0.035
0.07
0.055
0.05
-0.08
-0.125
-0.235
-0.285
-0.205
-0.21
-0.165
-0.005
-0.01
-0.03
-0.155
-0.155
-0.22
-0.155
-0.1
-0.01
0.015
0.075
0.045
-0.05
-0.11
-0.055
-0.195
-0.17
-0.15
-0.12
-0.085
0.06
-0.025
0.02
-0.025
-0.055
-0.145
-0.145
-0.125
-0.005
-0.02
0.01
0.01
-0.015
-0.14
-0.12
-0.17
-0.13
-0.12
0.02
0.05
0.175
0.175
0.04
0.04
-0.005
-0.03
-0.125
-0.095
0.09
0.085
0.155
0.13
0.025
-0.035
0.0
-0.06
-0.06
-0.01
0.07
0.14
0.195
0.1
0.075
-0.03
-0.075
-0.11
-0.06
0.04
0.105
0.16
0.135
0.095
0.02
-0.16
-0.185
-0.27
-0.24
-0.095
-0.04
0.025
0.09
0.07
-0.08
-0.11
-0.16
-0.19
-0.175
-0.09
-0.045
0.015
0.035
-0.04
-0.045
-0.105
-0.225
-0.2
-0.195
-0.015
0.045
0.12
0.245
0.27
0.19
0.17
0.225
0.25
0.41
0.535
0.74
0.8
0.7
0.54
0.305
0.125
-0.12
-0.365
-0.475
-0.645
-0.845
-0.75
-0.72
-0.845
-0.89
-0.85
-0.785
-0.635
-0.495
-0.435
-0.415
-0.325
-0.415
-0.245
-0.33
-0.335
-0.395
-0.265
-0.25
-0.185
-0.095
-0.01
-0.035
-0.07
-0.075
-0.095
-0.135
-0.075
-0.035
0.035
0.025
0.015
0.085
-0.035
-0.075
-0.12
-0.13
-0.195
-0.07
0.015
0.005
0.14
0.135
0.075
-0.005
-0.05
-0.145
-0.12
-0.04
0.03
0.08
0.09
0.1
0.085
0.075
0.105
-0.015
-0.11
-0.03
-0.04
0.015
0.13
0.095
0.055
0.01
-0.04
-0.08
-0.05
0.125
0.115
0.13
0.26
0.285
0.135
0.07
0.06
0.015
0.04
0.03
0.115
0.16
0.235
0.255
0.235
0.17
0.095
0.135
0.17
0.245
0.25
0.17
0.32
0.31
0.245
0.17
0.08
-0.04
0.065
0.25
0.38
0.43
0.44
0.36
0.355
0.32
0.235
0.08
0.165
0.23
0.405
0.34
0.43
0.445
0.395
0.4
0.34
0.255
0.315
0.45
0.44
0.375
0.46
0.45
0.37
0.31
0.19
0.215
0.305
0.38
0.385
0.5
0.47
0.43
0.37
0.31
0.25
0.335
0.265
0.335
0.405
0.43
0.405
0.34
0.21
0.19
0.09
0.035
0.165
0.23
0.24
0.16
0.23
0.175
0.095
0.13
-0.04
-0.035
0.02
0.08
0.12
0.2
0.165
0.115
0.085
0.035
-0.075
-0.04
-0.04
0.055
0.02
0.165
0.175
0.07
-0.025
-0.07
-0.17
-0.13
-0.06
0.05
0.085
0.175
0.19
0.075
-0.015
-0.065
-0.18
-0.11
0.005
0.075
0.005
0.075
0.095
0.07
-0.01
-0.07
-0.12
-0.095
-0.03
0.045
0.075
0.13
0.195
0.055
-0.14
-0.11
-0.205
-0.165
-0.01
0.075
0.04
0.1
0.075
0.035
-0.05
-0.015
-0.08
-0.095
-0.075
0.05
0.14
0.12
0.075
0.02
-0.035
-0.025
-0.085
-0.12
-0.02
0.055
0.135
0.13
0.05
0.02
0.005
-0.05
-0.09
-0.115
-0.035
0.04
0.1
0.07
0.05
0.01
0.0
-0.04
-0.135
-0.045
0.04
0.03
0.005
0.07
0.09
0.07
-0.04
-0.09
-0.075
-0.07
-0.04
-0.015
0.075
0.155
0.085
-0.055
-0.07
-0.165
-0.125
-0.185
-0.085
0.085
0.1
0.12
0.05
-0.04
-0.065
-0.1
-0.12
-0.06
-0.07
0.005
0.21
0.225
0.11
0.02
-0.12
-0.185
-0.165
-0.19
-0.05
0.0
0.08
0.135
0.08
-0.02
-0.09
-0.215
-0.165
-0.085
0.045
-0.01
0.035
0.185
0.035
-0.02
-0.09
-0.18
-0.205
-0.005
0.0
0.075
0.125
0.125
0.06
-0.025
-0.045
-0.145
-0.15
-0.15
-0.085
0.005
0.13
0.05
0.055
-0.005
0.045
-0.19
-0.175
-0.09
-0.01
0.01
0.055
0.115
0.04
-0.055
-0.07
-0.175
-0.15
-0.01
0.025
0.065
0.205
0.085
-0.01
-0.085
-0.15
-0.21
-0.145
-0.04
-0.01
-0.015
0.085
0.11
0.065
-0.015
-0.115
-0.11
-0.085
-0.125
-0.025
0.015
0.08
0.175
0.025
-0.035
-0.135
-0.17
-0.15
-0.115
-0.03
0.015
0.1
0.105
-0.005
-0.07
-0.13
-0.16
-0.12
-0.05
0.02
0.025
0.03
0.045
0.025
-0.105
-0.105
-0.095
-0.085
-0.01
0.05
0.065
0.05
-0.015
-0.085
-0.095
-0.055
-0.105
-0.025
0.03
0.025
0.035
0.105
-0.005
-0.03
-0.025
-0.12
-0.145
-0.145
-0.03
0.095
0.135
0.21
0.165
0.055
0.01
-0.005
-0.05
0.015
0.085
0.24
0.17
0.24
0.21
0.13
0.085
-0.025
-0.025
0.05
0.13
0.135
0.25
0.23
0.15
0.185
0.105
0.005
0.03
0.05
0.115
0.155
0.225
0.26
0.19
0.14
0.09
-0.045
-0.035
-0.015
0.04
0.035
0.105
0.105
0.08
0.005
-0.055
-0.085
-0.09
-0.025
0.025
0.065
0.14
0.17
-0.005
-0.06
-0.035
-0.115
-0.125
-0.07
-0.03
0.12
0.195
0.15
0.11
0.075
0.095
0.07
0.045
0.145
0.33
0.45
0.595
0.715
0.79
0.715
0.59
0.385
0.25
0.175
0.16
0.035
-0.065
-0.34
-0.62
-0.79
-0.79
-0.86
-0.9
-0.815
-0.635
-0.57
-0.365
-0.31
-0.315
-0.345
-0.285
-0.32
-0.34
-0.365
-0.285
-0.22
-0.015
-0.06
-0.05
-0.19
-0.14
-0.195
-0.155
-0.065
0.025
0.05
0.165
0.105
0.04
-0.01
-0.045
-0.13
-0.08
-0.015
0.04
0.13
0.175
0.1
0.085
0.03
0.005
-0.055
-0.075
0.05
0.03
0.055
0.195
0.24
0.075
0.05
-0.025
-0.055
0.035
0.11
0.2
0.17
0.205
0.155
0.095
0.0
-0.025
-0.035
0.03
0.02
0.065
0.145
0.29
0.26
0.115
0.115
-0.005
-0.015
0.035
0.14
0.205
0.295
0.295
0.235
0.115
0.03
-0.075
0.04
0.115
0.17
0.245
0.3
0.325
0.24
0.15
0.11
0.1
0.12
0.12
0.22
0.285
0.39
0.385
0.31
0.205
0.175
0.08
0.12
0.22
0.245
0.265
0.435
0.505
0.46
0.35
0.275
0.21
0.235
0.305
0.38
0.35
0.35
0.425
0.335
0.4
0.38
0.26
0.28
0.32
0.43
0.485
0.495
0.52
0.4
0.415
0.35
0.175
0.245
0.295
0.375
0.415
0.41
0.43
0.4
0.31
0.205
0.16
0.15
0.17
0.235
0.27
0.305
0.27
0.25
0.165
0.085
0.025
0.005
0.1
0.18
0.19
0.215
0.175
0.155
0.09
0.035
-0.035
-0.02
-0.04
0.06
0.09
0.1
0.08
0.015
-0.07
-0.085
-0.09
-0.065
-0.01
-0.015
0.04
0.14
0.125
0.08
-0.015
-0.07
-0.085
-0.02
0.0
0.1
0.055
0.1
0.09
0.02
-0.11
-0.125
-0.105
-0.11
-0.085
0.015
0.04
0.03
0.09
0.04
-0.04
-0.055
-0.125
0.04
-0.055
0.02
0.015
0.06
0.005
0.0
-0.03
-0.045
-0.145
-0.06
-0.015
0.055
0.15
0.205
0.12
0.105
0.04
-0.02
0.015
-0.02
0.095
0.05
0.14
0.24
0.19
0.045
-0.05
-0.04
-0.12
-0.145
-0.125
0.01
0.1
0.16
0.17
0.105
0.075
-0.02
-0.135
-0.12
-0.09
-0.03
0.155
0.165
0.035
0.025
0.01
-0.08
-0.075
-0.005
0.025
0.06
0.09
0.095
0.15
-0.05
0.025
-0.12
-0.11
-0.055
-0.045
0.03
0.075
0.05
0.05
0.05
-0.03
-0.095
-0.095
-0.035
0.075
0.085
0.125
0.105
-0.03
-0.135
-0.125
-0.11
-0.025
-0.065
0.025
0.045
0.15
0.19
0.01
-0.08
-0.13
-0.2
-0.165
-0.105
-0.03
0.04
0.205
0.13
0.045
0.03
0.01
-0.045
-0.185
-0.165
-0.045
-0.005
0.055
0.05
0.01
-0.085
-0.09
-0.175
-0.19
-0.085
0.065
0.085
0.09
0.135
0.07
-0.03
-0.075
-0.16
-0.195
-0.105
0.03
0.12
0.16
0.2
0.07
-0.05
-0.03
-0.175
-0.165
-0.09
-0.015
0.03
0.13
0.03
0.03
-0.095
-0.13
-0.09
-0.065
0.03
0.125
0.095
0.18
0.095
-0.055
-0.12
-0.11
-0.125
-0.075
-0.08
0.06
0.035
0.09
0.125
0.035
-0.05
-0.105
-0.185
-0.09
-0.03
-0.01
0.095
0.17
0.035
-0.015
-0.025
-0.165
-0.16
-0.085
-0.01
0.01
0.06
0.125
0.065
0.015
-0.06
-0.16
-0.15
-0.075
0.0
0.09
0.17
0.11
0.14
0.055
-0.105
-0.2
-0.105
-0.07
0.04
0.1
0.14
0.105
0.075
-0.025
-0.015
-0.12
-0.125
-0.06
-0.005
0.015
0.105
0.075
0.01
-0.035
-0.005
-0.075
-0.06
-0.005
0.025
0.055
0.125
0.145
0.085
0.01
-0.115
-0.11
-0.06
-0.03
0.015
0.025
0.095
0.17
0.175
0.02
0.02
0.04
0.075
0.125
0.28
0.195
0.305
0.275
0.105
0.005
-0.055
0.01
0.0
0.105
0.125
0.205
0.285
0.27
0.21
0.095
0.09
0.055
0.03
0.065
0.145
0.175
0.305
0.18
0.07
0.04
0.08
-0.015
-0.055
0.05
0.135
0.19
0.21
0.17
0.03
-0.125
-0.185
-0.145
-0.16
-0.07
0.045
0.07
0.15
0.045
0.02
0.015
-0.04
-0.105
-0.08
-0.015
0.075
0.085
0.175
0.17
0.05
-0.075
0.03
0.045
0.145
0.165
0.265
0.495
0.685
0.735
0.745
0.69
0.575
0.465
0.295
0.355
0.22
0.165
-0.035
-0.265
-0.62
-0.78
-0.91
-0.92
-0.87
-0.7
-0.525
-0.36
-0.285
-0.315
-0.36
-0.33
-0.435
-0.36
-0.325
-0.185
-0.105
-0.03
0.045
-0.125
-0.11
-0.06
-0.15
-0.055
-0.06
0.01
0.03
0.09
0.07
0.065
0.05
-0.005
-0.05
-0.025
-0.03
0.07
0.14
0.32
0.24
0.105
0.01
0.04
-0.02
-0.02
-0.075
-0.03
0.135
0.24
0.28
0.225
0.15
0.13
-0.035
-0.025
0.04
0.025
0.085
0.155
0.245
0.21
0.165
0.125
0.02
0.07
0.07
0.07
0.15
0.27
0.29
0.18
0.125
0.155
0.095
0.09
0.13
0.24
0.265
0.33
0.26
0.185
0.15
0.145
0.06
0.06
0.185
0.185
0.225
0.355
0.38
0.27
0.17
0.195
0.145
0.145
0.16
0.315
0.38
0.43
0.455
0.375
0.31
0.18
0.135
0.17
0.31
0.41
0.335
0.445
0.44
0.375
0.315
0.265
0.26
0.23
0.335
0.375
0.445
0.555
0.585
0.545
0.445
0.38
0.27
0.24
0.37
0.45
0.46
0.53
0.53
0.52
0.45
0.325
0.285
0.3
0.325
0.37
0.46
0.465
0.4
0.36
0.33
0.275
0.175
0.245
0.21
0.355
0.43
0.405
0.345
0.305
0.2
0.16
0.08
0.155
0.205
0.26
0.23
0.3
0.225
0.14
-0.005
-0.05
0.005
0.03
0.105
0.115
0.16
0.21
0.145
0.11
0.035
-0.06
-0.025
0.0
0.015
0.06
0.18
0.105
0.115
0.09
0.065
-0.085
-0.075
0.0
0.06
0.095
0.165
0.265
0.16
0.045
0.14
0.04
-0.025
0.01
0.055
0.015
0.085
0.06
0.125
0.065
-0.06
-0.1
-0.1
-0.05
0.135
0.185
0.21
0.185
0.185
0.05
0.04
-0.055
-0.09
-0.095
0.01
0.075
0.24
0.16
0.095
0.03
0.02
-0.045
-0.035
0.015
0.11
0.185
0.255
0.2
0.01
-0.035
0.055
-0.075
-0.1
-0.02
0.06
0.1
0.17
0.21
0.145
0.095
0.005
-0.075
-0.025
-0.005
0.09
0.16
0.145
0.085
0.13
0.075
0.015
-0.11
-0.035
0.035
0.09
0.135
0.19
0.175
0.07
0.02
-0.07
-0.125
0.025
0.005
-0.01
0.075
0.13
0.16
0.1
-0.02
-0.015
-0.05
0.03
0.005
0.07
0.11
0.135
0.13
0.08
0.04
-0.08
-0.115
-0.085
0.045
0.095
0.09
0.085
0.035
0.065
0.03
-0.08
-0.075
-0.04
-0.015
0.065
0.115
0.15
0.12
0.055
0.08
0.025
-0.015
-0.035
0.025
0.07
0.13
0.13
0.05
-0.005
-0.03
-0.09
-0.11
-0.065
0.045
0.05
0.105
0.2
0.145
-0.035
0.0
-0.02
-0.11
-0.085
0.005
0.12
0.145
0.065
0.055
0.055
-0.025
-0.135
-0.085
-0.06
0.015
0.045
0.12
0.15
0.06
-0.06
0.005
-0.115
-0.075
0.0
0.025
0.025
0.14
0.15
0.115
-0.015
-0.075
-0.12
-0.1
-0.065
-0.035
0.035
0.17
0.225
0.16
0.045
-0.02
-0.075
-0.105
-0.04
-0.005
0.095
0.125
0.105
-0.02
-0.1
-0.08
-0.115
-0.105
0.0
0.1
0.08
0.14
0.155
0.085
-0.06
-0.075
-0.125
-0.095
-0.05
0.055
0.055
0.085
0.2
0.115
0.055
0.055
-0.125
-0.11
-0.02
0.1
0.18
0.205
0.22
0.17
0.07
0.02
-0.03
0.045
0.1
0.13
0.195
0.225
0.24
0.18
0.125
0.06
0.03
0.03
0.08
0.125
0.18
0.15
0.075
0.18
0.05
-0.005
-0.085
-0.025
-0.01
0.04
0.14
0.17
0.065
-0.09
-0.065
-0.085
-0.09
-0.105
-0.015
0.05
0.14
0.06
0.03
-0.04
-0.07
-0.145
-0.1
-0.155
-0.075
-0.035
0.005
0.03
0.05
0.05
0.03
-0.145
-0.03
0.04
0.165
0.265
0.375
0.405
0.41
0.485
0.565
0.51
0.55
0.555
0.55
0.425
0.405
0.3
0.065
-0.19
-0.505
-0.905
-0.955
-0.875
-0.8
-0.715
-0.61
-0.565
-0.41
-0.41
-0.495
-0.495
-0.405
-0.4
-0.295
-0.265
-0.15
-0.115
-0.195
-0.125
-0.195
-0.245
-0.255
-0.14
-0.07
0.0
0.12
0.14
0.07
0.035
-0.005
-0.1
-0.11
-0.05
0.055
0.105
0.185
0.185
0.115
0.01
-0.05
-0.06
-0.045
-0.04
-0.015
0.07
0.205
0.19
0.14
0.025
0.01
-0.045
-0.07
0.055
0.11
0.1
0.205
0.13
0.095
0.09
0.045
-0.03
-0.05
0.035
0.145
0.245
0.325
0.24
0.14
0.105
0.115
0.105
0.05
0.125
0.125
0.18
0.275
0.26
0.15
0.065
0.075
0.075
0.1
0.155
0.26
0.315
0.37
0.255
0.265
0.22
0.1
0.125
0.11
0.105
0.185
0.31
0.37
0.365
0.34
0.215
0.23
0.155
0.2
0.255
0.3
0.425
0.445
0.445
0.385
0.345
0.315
0.32
0.325
0.395
0.45
0.455
0.425
0.46
0.46
0.395
0.275
0.25
0.355
0.46
0.47
0.52
0.49
0.44
0.33
0.37
0.31
0.32
0.245
0.31
0.48
0.56
0.515
0.4
0.38
0.365
0.215
0.22
0.27
0.29
0.33
0.395
0.33
0.285
0.21
0.16
0.085
0.05
0.11
0.16
0.195
0.225
0.14
0.185
0.11
0.05
0.005
0.005
-0.035
0.12
0.14
0.165
0.14
0.13
0.07
0.035
-0.095
-0.04
0.015
0.15
0.02
0.1
0.205
0.12
0.045
-0.02
-0.14
-0.13
-0.035
0.045
0.05
0.145
0.16
0.035
-0.075
-0.065
-0.035
-0.02
-0.03
0.0
0.075
0.115
0.035
0.025
-0.045
-0.12
-0.15
-0.13
-0.095
0.03
0.12
0.18
0.145
0.07
-0.065
-0.005
-0.05
-0.02
0.005
0.07
0.115
0.12
0.13
0.095
-0.005
-0.095
-0.125
-0.115
0.0
0.02
0.08
0.165
0.13
0.05
0.035
-0.065
-0.1
-0.065
-0.055
0.03
0.135
0.155
0.105
0.05
0.01
-0.05
-0.045
-0.02
-0.065
-0.025
0.07
0.145
0.18
0.03
-0.07
-0.065
-0.135
-0.095
-0.065
-0.105
0.075
0.155
0.12
0.065
0.005
-0.07
-0.085
-0.025
0.075
0.085
0.055
0.04
0.08
0.035
-0.045
-0.13
-0.15
-0.03
0.02
0.07
0.105
0.095
0.065
-0.05
-0.105
-0.12
-0.07
-0.015
0.055
0.065
0.085
0.115
0.07
-0.02
-0.06
-0.175
-0.09
-0.07
-0.03
0.08
0.16
0.18
0.105
0.015
-0.05
-0.14
-0.06
-0.035
0.07
0.07
0.105
0.09
0.005
-0.1
-0.075
-0.105
-0.175
-0.16
0.005
0.03
0.115
0.105
0.055
-0.095
-0.09
-0.165
-0.08
0.035
0.09
0.135
0.185
0.14
0.045
-0.09
-0.135
-0.125
-0.16
-0.13
0.05
-0.02
0.135
0.2
0.08
-0.055
-0.06
-0.145
-0.17
-0.095
-0.015
0.07
0.085
0.085
0.04
-0.08
-0.18
-0.265
-0.205
-0.065
0.055
0.085
0.13
0.075
0.095
0.0
-0.095
-0.175
-0.175
-0.13
0.02
0.03
0.13
0.095
0.05
0.01
-0.02
-0.11
-0.15
-0.03
0.095
0.12
0.11
0.075
-0.02
-0.01
-0.1
-0.26
-0.12
-0.03
-0.02
-0.01
0.115
0.075
0.04
-0.025
-0.1
-0.1
-0.08
0.005
0.06
0.1
0.145
0.095
0.025
-0.105
-0.055
-0.095
-0.115
-0.02
0.005
0.04
0.065
0.03
-0.07
-0.05
-0.19
-0.21
-0.045
-0.07
0.07
0.115
0.115
0.11
0.02
-0.115
-0.185
-0.16
-0.085
0.135
0.115
0.1
0.185
0.135
0.03
-0.03
-0.09
-0.045
-0.025
0.035
0.12
0.235
0.21
0.1
0.04
0.08
-0.13
0.02
0.105
0.125
0.15
0.25
0.215
0.175
0.15
0.055
-0.055
0.01
0.075
0.11
0.08
0.165
0.115
0.06
0.03
-0.1
-0.16
-0.105
-0.105
0.04
-0.005
0.045
0.095
0.025
-0.055
-0.075
-0.17
-0.125
-0.145
-0.09
-0.085
-0.03
-0.03
0.005
-0.005
-0.1
-0.16
-0.14
-0.085
0.015
0.055
0.05
-0.035
-0.035
0.0
0.035
0.02
0.185
0.25
0.39
0.45
0.545
0.66
0.68
0.685
0.45
0.27
0.105
0.075
-0.06
-0.19
-0.33
-0.575
-0.905
-1.05
-1.04
-1.02
-0.87
-0.65
-0.5
-0.395
-0.27
-0.39
-0.46
-0.445
-0.39
-0.495
-0.345
-0.27
-0.265
-0.1
-0.015
0.005
-0.085
-0.12
-0.115
-0.125
-0.145
-0.075
0.04
0.07
0.1
0.06
0.005
-0.08
-0.075
-0.03
-0.025
0.02
0.005
0.095
0.12
0.05
0.055
-0.01
-0.115
-0.15
-0.05
0.1
0.02
0.075
0.12
0.06
-0.015
-0.08
-0.11
-0.095
-0.03
0.06
0.07
0.135
0.13
0.125
0.07
0.13
0.03
0.015
-0.08
0.085
0.145
0.175
0.13
0.09
0.045
0.005
-0.025
-0.085
-0.005
0.1
0.15
0.19
0.215
0.165
0.065
0.0
-0.065
0.03
0.12
0.2
0.22
0.24
0.255
0.255
0.135
0.075
0.005
0.055
0.08
0.21
0.24
0.32
0.315
0.21
0.2
0.24
0.125
0.11
0.14
0.295
0.33
0.48
0.43
0.395
0.285
0.26
0.155
0.155
0.185
0.285
0.315
0.475
0.41
0.335
0.165
0.2
0.145
0.175
0.255
0.375
0.4
0.485
0.485
0.35
0.245
0.19
0.15
0.16
0.235
0.325
0.29
0.355
0.355
0.285
0.28
0.205
0.17
0.12
0.075
0.22
0.245
0.265
0.215
0.145
0.045
-0.075
-0.035
-0.015
0.06
0.155
0.14
0.1
0.055
-0.025
-0.025
-0.085
-0.075
-0.08
0.005
0.01
-0.035
-0.03
-0.055
-0.11
-0.125
-0.165
-0.295
-0.25
-0.18
-0.09
-0.08
-0.08
-0.075
-0.135
-0.23
-0.22
-0.255
-0.245
-0.09
-0.035
-0.05
0.0
-0.08
-0.125
-0.155
-0.195
-0.295
-0.225
-0.16
-0.145
-0.015
0.03
0.07
-0.045
-0.07
-0.175
-0.21
-0.17
-0.125
-0.065
0.0
0.06
0.0
-0.025
-0.095
-0.135
-0.155
-0.08
0.01
-0.005
0.015
-0.03
-0.08
-0.13
-0.16
-0.19
-0.29
-0.34
-0.3
-0.24
-0.195
-0.19
-0.235
-0.3
-0.3
-0.38
-0.325
-0.205
-0.165
-0.175
-0.125
-0.115
-0.14
-0.235
-0.295
-0.4
-0.39
-0.34
-0.3
-0.235
-0.17
-0.15
-0.19
-0.215
-0.3
-0.26
-0.275
-0.295
-0.095
-0.13
-0.04
-0.08
-0.13
-0.22
-0.195
-0.275
-0.315
-0.235
-0.14
-0.08
-0.02
-0.145
-0.26
-0.36
-0.26
-0.34
-0.345
-0.275
-0.21
-0.185
-0.13
-0.085
-0.14
-0.14
-0.215
-0.27
-0.27
-0.255
-0.12
-0.065
0.05
-0.04
-0.045
-0.115
-0.235
-0.36
-0.41
-0.31
-0.26
-0.14
-0.03
-0.1
-0.14
-0.235
-0.245
-0.335
-0.29
-0.185
-0.135
-0.11
-0.12
-0.06
-0.13
-0.215
-0.225
-0.23
-0.255
-0.255
-0.215
-0.14
-0.07
-0.12
-0.205
-0.25
-0.31
-0.375
-0.34
-0.24
-0.21
-0.085
-0.085
-0.095
-0.165
-0.22
-0.245
-0.335
-0.37
-0.185
-0.145
-0.155
-0.06
-0.005
-0.095
-0.175
-0.305
-0.3
-0.265
-0.075
-0.075
-0.05
-0.02
-0.09
-0.225
-0.3
-0.435
-0.4
-0.35
-0.185
-0.195
-0.07
-0.17
-0.21
-0.25
-0.3
-0.355
-0.385
-0.33
-0.175
-0.22
-0.105
-0.135
-0.16
-0.225
-0.285
-0.345
-0.3
-0.28
-0.225
-0.175
-0.1
-0.09
-0.16
-0.215
-0.24
-0.37
-0.335
-0.305
-0.24
-0.21
-0.11
-0.11
-0.175
-0.32
-0.345
-0.44
-0.485
-0.28
-0.215
-0.27
-0.145
-0.145
-0.21
-0.235
-0.25
-0.305
-0.455
-0.36
-0.315
-0.36
-0.22
-0.13
-0.31
-0.335
-0.3
-0.435
-0.435
-0.335
-0.235
-0.21
-0.14
-0.095
-0.16
-0.245
-0.3
-0.335
-0.315
-0.275
-0.195
-0.155
-0.055
-0.05
-0.11
-0.21
-0.205
-0.25
-0.185
-0.16
-0.135
-0.065
-0.06
0.01
-0.02
-0.09
-0.125
-0.165
-0.225
-0.12
-0.09
0.015
0.085
0.045
0.01
-0.125
-0.195
-0.19
-0.14
-0.08
-0.05
0.02
0.045
-0.075
-0.125
-0.19
-0.18
-0.205
-0.225
-0.205
-0.095
-0.055
0.015
-0.04
-0.07
-0.14
-0.16
-0.195
-0.175
-0.135
-0.115
-0.09
-0.09
-0.15
-0.2
-0.14
-0.2
-0.145
-0.135
-0.055
0.03
0.125
0.155
0.205
0.21
0.265
0.385
0.415
0.495
0.55
0.54
0.52
0.375
0.25
0.02
-0.185
-0.435
-0.69
-0.965
-0.95
-0.825
-0.76
-0.75
-0.675
-0.77
-0.765
-0.665
-0.58
-0.495
-0.415
-0.36
-0.21
-0.185
-0.075
-0.2
-0.305
-0.435
-0.325
-0.2
-0.12
-0.08
0.055
0.01
-0.03
-0.055
-0.05
-0.165
-0.19
-0.12
-0.02
-0.03
0.085
0.05
0.045
0.05
-0.08
-0.12
-0.145
-0.085
0.035
0.01
0.075
0.15
0.07
0.0
-0.02
-0.055
-0.055
0.04
0.14
0.12
0.2
0.205
0.12
-0.005
-0.11
-0.085
-0.04
-0.035
-0.005
0.085
0.185
0.175
0.14
0.105
0.08
-0.01
0.02
0.02
0.13
0.18
0.245
0.26
0.155
0.015
0.085
0.015
0.055
0.13
0.105
0.18
0.27
0.275
0.225
0.09
0.025
0.135
0.125
0.18
0.185
0.19
0.295
0.305
0.345
0.215
0.14
0.04
0.15
0.275
0.375
0.355
0.39
0.415
0.375
0.24
0.19
0.165
0.22
0.31
0.39
0.47
0.515
0.525
0.39
0.275
0.24
0.185
0.22
0.32
0.37
0.455
0.455
0.47
0.4
0.34
0.255
0.215
0.33
0.35
0.37
0.42
0.415
0.4
0.275
0.285
0.235
0.185
0.235
0.245
0.255
0.395
0.36
0.38
0.25
0.115
0.03
0.065
0.08
0.13
0.135
0.26
0.29
0.185
0.135
0.06
-0.085
0.025
0.115
0.185
0.165
0.11
0.06
0.06
0.05
-0.03
-0.165
-0.195
-0.09
0.08
0.09
0.24
0.21
0.025
-0.07
-0.175
-0.18
-0.11
-0.13
-0.025
-0.045
0.065
0.175
0.035
-0.1
-0.085
-0.155
-0.095
-0.065
0.015
-0.005
0.135
0.135
0.04
-0.04
-0.04
-0.12
-0.16
-0.05
0.025
0.095
0.18
0.15
0.11
-0.005
-0.055
-0.175
-0.23
-0.055
0.01
0.1
0.22
0.105
0.075
-0.12
-0.05
-0.13
-0.155
-0.09
-0.005
0.065
0.09
0.07
0.045
-0.02
-0.115
-0.045
-0.1
-0.02
0.045
0.18
0.19
0.075
-0.005
-0.035
-0.15
-0.13
-0.155
-0.04
0.095
0.11
0.14
0.115
0.01
-0.07
-0.12
-0.155
-0.115
-0.07
0.035
0.025
0.105
-0.025
-0.025
-0.065
-0.12
-0.17
-0.095
-0.025
-0.035
0.025
0.05
0.035
-0.015
-0.07
-0.11
-0.17
-0.1
-0.015
0.015
0.075
0.085
0.115
-0.015
-0.085
-0.135
-0.16
-0.105
-0.025
-0.005
0.01
0.07
0.005
-0.06
-0.065
-0.17
-0.18
-0.105
-0.03
0.09
0.18
0.14
0.0
-0.155
-0.135
-0.19
-0.145
-0.15
-0.105
-0.02
0.115
0.02
0.09
0.035
0.0
-0.165
-0.115
-0.085
-0.035
0.01
0.065
-0.02
-0.12
-0.14
-0.12
-0.185
-0.195
-0.175
-0.045
-0.025
0.085
0.07
0.0
-0.035
-0.065
-0.12
-0.17
-0.135
-0.07
0.025
0.11
0.1
0.05
-0.02
-0.13
-0.26
-0.2
-0.16
-0.005
-0.085
0.065
-0.04
-0.01
-0.04
-0.095
-0.195
-0.15
-0.06
-0.005
-0.01
0.005
-0.02
-0.08
-0.07
-0.17
-0.115
-0.165
-0.23
-0.055
0.005
0.06
0.055
-0.045
-0.105
-0.11
-0.205
-0.2
-0.075
0.0
-0.005
0.02
0.025
0.045
-0.07
-0.115
-0.17
-0.13
-0.065
-0.05
0.095
0.165
0.185
0.09
0.04
0.025
-0.035
0.035
0.0
-0.005
0.0
0.16
0.085
-0.035
-0.04
0.065
-0.035
-0.095
-0.045
-0.035
0.06
0.18
0.13
0.03
0.0
0.01
-0.03
-0.105
0.01
0.045
0.015
0.06
0.06
0.06
-0.085
-0.1
-0.215
-0.135
-0.05
-0.13
-0.095
0.065
0.05
-0.065
-0.095
-0.125
-0.125
-0.215
-0.17
-0.065
0.08
0.11
-0.035
-0.125
-0.12
-0.175
-0.085
-0.075
-0.06
-0.01
0.055
-0.04
0.045
0.09
0.125
0.135
0.245
0.35
0.515
0.61
0.775
0.695
0.495
0.385
0.165
-0.06
-0.185
-0.3
-0.52
-0.805
-0.755
-0.78
-0.865
-1.005
-0.965
-0.88
-0.76
-0.705
-0.56
-0.42
-0.185
-0.315
-0.36
-0.375
-0.325
-0.385
-0.31
-0.21
-0.1
-0.055
0.075
-0.02
-0.18
-0.19
-0.095
-0.11
-0.21
-0.185
-0.095
0.04
0.135
0.095
0.015
-0.07
-0.11
-0.2
-0.14
-0.125
-0.04
0.09
0.075
0.035
0.055
-0.05
-0.095
-0.06
-0.125
0.01
0.03
0.095
0.215
0.085
0.145
0.0
-0.065
-0.105
-0.08
-0.06
0.025
0.165
0.16
0.185
0.07
0.015
-0.055
-0.02
0.02
0.035
0.115
0.07
0.22
0.255
0.075
0.08
0.03
0.025
0.015
0.035
0.145
0.19
0.23
0.21
0.095
0.115
0.055
0.035
0.095
0.175
0.13
0.26
0.285
0.23
0.15
0.155
0.1
0.065
0.065
0.135
0.26
0.365
0.315
0.31
0.26
0.235
0.12
0.105
0.17
0.295
0.27
0.355
0.335
0.34
0.325
0.34
0.18
0.23
0.26
0.375
0.39
0.42
0.385
0.365
0.345
0.315
0.25
0.205
0.28
0.285
0.385
0.44
0.44
0.36
0.27
0.185
0.125
0.195
0.125
0.29
0.385
0.36
0.34
0.35
0.21
0.215
0.085
0.01
0.035
0.145
0.195
0.195
0.205
0.095
0.07
0.07
-0.095
-0.17
-0.135
0.025
0.035
0.075
0.105
0.08
-0.01
-0.09
-0.225
-0.145
-0.095
-0.115
-0.065
0.07
0.065
-0.025
-0.11
-0.08
-0.2
-0.14
-0.105
-0.06
-0.04
0.06
0.065
0.015
-0.04
-0.015
-0.275
-0.26
-0.165
-0.04
0.03
0.065
0.04
-0.085
-0.16
-0.125
-0.225
-0.285
-0.1
-0.035
-0.03
0.01
0.12
-0.07
-0.125
-0.17
-0.18
-0.175
-0.155
-0.11
0.005
0.06
-0.05
-0.04
-0.145
-0.085
-0.15
-0.2
-0.15
-0.075
-0.035
0.09
-0.02
-0.045
-0.055
-0.155
-0.34
-0.255
-0.16
-0.08
0.07
0.05
0.035
-0.045
-0.095
-0.135
-0.21
-0.19
-0.085
-0.11
0.025
0.035
0.05
-0.09
-0.165
-0.205
-0.17
-0.175
-0.135
-0.11
0.005
0.025
-0.045
-0.14
-0.145
-0.215
-0.25
-0.135
-0.11
-0.125
0.02
0.06
0.0
-0.115
-0.135
-0.265
-0.23
-0.165
-0.07
-0.055
0.05
0.045
-0.025
-0.05
-0.22
-0.265
-0.21
-0.18
-0.075
0.02
0.02
-0.03
0.015
-0.13
-0.09
-0.26
-0.185
-0.13
-0.055
-0.055
-0.045
-0.125
-0.025
-0.2
-0.185
-0.17
-0.14
-0.135
-0.065
-0.02
0.055
0.0
-0.025
-0.09
-0.03
-0.19
-0.265
-0.245
-0.095
0.02
0.05
0.075
-0.03
-0.06
-0.15
-0.305
-0.295
-0.24
-0.14
-0.1
0.0
-0.045
-0.12
-0.135
-0.18
-0.23
-0.22
-0.19
-0.06
-0.035
0.07
-0.025
-0.12
-0.175
-0.225
-0.255
-0.29
-0.255
-0.095
-0.07
-0.005
-0.035
-0.055
-0.105
-0.14
-0.245
-0.22
-0.09
-0.01
-0.01
0.065
0.035
-0.05
-0.165
-0.25
-0.255
-0.19
-0.185
-0.165
-0.1
-0.03
-0.06
-0.13
-0.16
-0.13
-0.225
-0.195
-0.21
-0.115
-0.085
-0.005
-0.07
-0.12
-0.2
-0.255
-0.225
-0.27
-0.155
-0.1
-0.055
-0.005
0.015
-0.075
-0.08
-0.195
-0.195
-0.295
-0.315
-0.175
0.015
0.03
-0.01
-0.01
-0.095
-0.18
-0.165
-0.23
-0.11
-0.01
-0.005
0.04
-0.06
-0.02
-0.09
-0.14
-0.125
-0.085
-0.015
0.0
0.045
0.12
0.015
-0.07
-0.04
-0.095
-0.125
-0.1
0.02
0.025
0.11
0.09
0.07
-0.04
-0.035
-0.145
-0.25
-0.15
-0.05
-0.02
0.135
0.075
0.045
0.05
-0.07
-0.27
-0.26
-0.24
-0.115
-0.175
-0.065
0.005
-0.05
-0.13
-0.13
-0.29
-0.32
-0.26
-0.205
-0.075
-0.075
-0.035
-0.05
-0.16
-0.18
-0.295
-0.31
-0.235
-0.15
-0.1
-0.01
0.03
-0.035
-0.01
-0.015
-0.005
0.06
0.195
0.295
0.455
0.65
0.685
0.535
0.435
0.225
0.0
-0.04
-0.11
-0.25
-0.38
-0.6
-0.765
-0.81
-0.82
-0.89
-0.87
-0.865
-0.695
-0.6
-0.58
-0.45
-0.29
-0.31
-0.395
-0.505
-0.455
-0.385
-0.335
-0.32
-0.26
-0.19
-0.185
-0.14
-0.235
-0.295
-0.33
-0.16
-0.1
-0.04
-0.02
0.085
0.08
-0.045
-0.11
-0.19
-0.33
-0.285
-0.2
-0.17
-0.025
0.06
-0.085
-0.105
-0.1
-0.13
-0.185
-0.175
-0.065
-0.025
0.005
-0.005
-0.025
-0.08
-0.125
-0.115
-0.16
-0.19
-0.03
-0.045
0.07
0.115
0.005
-0.06
-0.08
-0.26
-0.135
-0.08
-0.085
0.005
0.035
0.06
0.085
-0.065
-0.165
-0.135
-0.105
-0.06
-0.01
0.025
0.105
0.075
0.105
-0.02
-0.09
-0.175
-0.075
0.0
0.055
0.015
0.065
0.135
0.105
0.035
-0.005
-0.095
-0.05
-0.02
0.05
0.035
0.16
0.165
0.14
0.07
0.075
-0.065
-0.09
0.1
0.07
0.18
0.33
0.29
0.165
0.09
0.08
-0.02
-0.01
0.055
0.11
0.175
0.345
0.295
0.205
0.09
0.11
0.075
0.025
0.1
0.195
0.21
0.28
0.265
0.15
0.14
0.1
-0.025
0.015
0.085
0.18
0.24
0.165
0.22
0.16
0.025
-0.035
-0.13
-0.105
-0.11
0.055
0.02
0.005
0.01
-0.035
-0.075
-0.15
-0.15
-0.19
-0.16
-0.055
-0.065
-0.015
-0.025
-0.175
-0.25
-0.205
-0.395
-0.305
-0.225
-0.205
-0.08
-0.04
-0.085
-0.105
-0.22
-0.295
-0.3
-0.31
-0.33
-0.28
-0.23
-0.12
-0.175
-0.22
-0.255
-0.33
-0.41
-0.355
-0.24
-0.175
-0.195
-0.155
-0.14
-0.195
-0.23
-0.35
-0.4
-0.38
-0.325
-0.2
-0.15
-0.09
-0.095
-0.245
-0.305
-0.26
-0.315
-0.335
-0.265
-0.215
-0.05
-0.065
-0.15
-0.175
-0.27
-0.34
-0.355
-0.28
-0.22
-0.215
-0.085
-0.105
-0.18
-0.205
-0.3
-0.26
-0.31
-0.31
-0.245
-0.23
-0.165
-0.18
-0.18
-0.2
-0.295
-0.395
-0.34
-0.365
-0.255
-0.165
-0.035
-0.13
-0.13
-0.25
-0.26
-0.395
-0.37
-0.315
-0.17
-0.18
-0.165
-0.11
-0.11
-0.23
-0.31
-0.39
-0.365
-0.335
-0.245
-0.205
-0.15
-0.075
-0.09
-0.22
-0.32
-0.41
-0.37
-0.335
-0.315
-0.21
-0.135
-0.21
-0.155
-0.25
-0.295
-0.43
-0.35
-0.375
-0.335
-0.185
-0.155
-0.23
-0.265
-0.255
-0.315
-0.405
-0.36
-0.31
-0.24
-0.165
-0.145
-0.17
-0.27
-0.275
-0.39
-0.435
-0.395
-0.37
-0.355
-0.26
-0.175
-0.195
-0.255
-0.315
-0.415
-0.425
-0.415
-0.32
-0.25
-0.175
-0.07
-0.16
-0.245
-0.3
-0.355
-0.435
-0.415
-0.37
-0.295
-0.265
-0.17
-0.25
-0.31
-0.285
-0.315
-0.27
-0.375
-0.255
-0.24
-0.28
-0.275
-0.275
-0.315
-0.295
-0.41
-0.5
-0.38
-0.315
-0.26
-0.155
-0.16
-0.245
-0.27
-0.32
-0.39
-0.42
-0.44
-0.4
-0.325
-0.21
-0.215
-0.205
-0.275
-0.29
-0.355
-0.38
-0.38
-0.38
-0.3
-0.195
-0.15
-0.245
-0.32
-0.305
-0.345
-0.355
-0.37
-0.195
-0.25
-0.185
-0.08
-0.05
-0.215
-0.22
-0.355
-0.335
-0.285
-0.215
-0.15
-0.1
-0.09
-0.175
-0.225
-0.245
-0.325
-0.345
-0.27
-0.19
-0.14
-0.1
-0.135
-0.185
-0.22
-0.25
-0.385
-0.355
-0.32
-0.295
-0.28
-0.2
-0.205
-0.28
-0.36
-0.315
-0.44
-0.35
-0.34
-0.305
-0.4
-0.24
-0.235
-0.285
-0.33
-0.505
-0.545
-0.48
-0.37
-0.295
-0.33
-0.265
-0.215
-0.23
-0.325
-0.385
-0.49
-0.4
-0.34
-0.21
-0.125
-0.005
0.045
0.1
0.165
0.19
0.19
0.22
0.255
0.16
0.06
0.0
-0.095
-0.26
-0.55
-0.86
-1.18
-1.185
-1.155
-1.105
-1.105
-0.925
-0.82
-0.795
-0.92
-0.875
-0.83
-0.815
-0.65
-0.6
-0.565
-0.52
-0.475
-0.5
-0.54
-0.58
-0.62
-0.51
-0.375
-0.3
-0.235
-0.225
-0.23
-0.34
-0.455
-0.47
-0.415
-0.345
-0.36
-0.315
-0.235
-0.175
-0.18
-0.24
-0.335
-0.435
-0.39
-0.335
-0.31
-0.3
-0.21
-0.2
-0.185
-0.255
-0.33
-0.39
-0.335
-0.25
-0.275
-0.205
-0.235
-0.17
-0.16
-0.275
-0.235
-0.425
-0.385
-0.335
-0.245
-0.25
-0.16
-0.13
-0.175
-0.25
-0.24
-0.34
-0.38
-0.28
-0.175
-0.15
-0.125
-0.105
-0.14
-0.18
-0.21
-0.295
-0.325
-0.24
-0.18
-0.18
-0.07
0.0
-0.03
-0.095
-0.17
-0.21
-0.255
-0.205
-0.155
-0.145
-0.005
-0.02
-0.01
-0.09
-0.145
-0.21
-0.16
-0.085
-0.01
-0.025
0.07
0.08
0.005
-0.01
-0.065
-0.27
-0.215
-0.12
0.025
0.085
0.145
0.13
0.06
0.01
0.0
-0.085
-0.09
-0.035
0.085
0.07
0.135
0.14
0.11
0.015
-0.065
-0.12
-0.03
0.04
0.025
0.08
0.12
0.09
0.035
-0.05
-0.135
-0.165
-0.145
-0.115
-0.045
0.025
0.035
-0.045
-0.11
-0.17
-0.275
-0.28
-0.225
-0.235
-0.16
-0.14
-0.09
-0.14
-0.245
-0.31
-0.305
-0.44
-0.425
-0.28
-0.23
-0.21
-0.165
-0.205
-0.34
-0.385
-0.405
-0.43
-0.455
-0.43
-0.3
-0.28
-0.23
-0.285
-0.345
-0.37
-0.415
-0.47
-0.445
-0.27
-0.21
-0.275
-0.32
-0.295
-0.34
-0.41
-0.455
-0.455
-0.42
-0.3
-0.295
-0.27
-0.165
-0.23
-0.29
-0.435
-0.535
-0.475
-0.47
-0.365
-0.24
-0.24
-0.255
-0.28
-0.33
-0.34
-0.46
-0.465
-0.39
-0.32
-0.35
-0.25
-0.27
-0.285
-0.36
-0.42
-0.51
-0.52
-0.465
-0.34
-0.285
-0.18
-0.25
-0.26
-0.29
-0.375
-0.525
-0.365
-0.34
-0.32
-0.295
-0.225
-0.255
-0.295
-0.355
-0.36
-0.48
-0.54
-0.47
-0.37
-0.285
-0.24
-0.19
-0.245
-0.35
-0.505
-0.53
-0.48
-0.41
-0.315
-0.28
-0.22
-0.24
-0.325
-0.42
-0.435
-0.535
-0.5
-0.425
-0.36
-0.305
-0.225
-0.23
-0.35
-0.44
-0.445
-0.575
-0.5
-0.42
-0.34
-0.305
-0.27
-0.22
-0.28
-0.375
-0.385
-0.465
-0.45
-0.405
-0.34
-0.295
-0.275
-0.285
-0.265
-0.32
-0.54
-0.53
-0.475
-0.43
-0.345
-0.27
-0.215
-0.26
-0.28
-0.33
-0.405
-0.45
-0.545
-0.57
-0.47
-0.3
-0.26
-0.3
-0.375
-0.44
-0.435
-0.495
-0.515
-0.475
-0.345
-0.265
-0.18
-0.285
-0.325
-0.34
-0.5
-0.54
-0.45
-0.485
-0.375
-0.365
-0.27
-0.29
-0.375
-0.395
-0.49
-0.505
-0.425
-0.345
-0.265
-0.29
-0.21
-0.225
-0.345
-0.425
-0.46
-0.395
-0.44
-0.38
-0.34
-0.28
-0.28
-0.34
-0.38
-0.43
-0.5
-0.475
-0.52
-0.46
-0.345
-0.28
-0.295
-0.285
-0.37
-0.395
-0.485
-0.47
-0.44
-0.365
-0.355
-0.245
-0.295
-0.295
-0.405
-0.455
-0.555
-0.405
-0.415
-0.37
-0.335
-0.245
-0.285
-0.265
-0.365
-0.375
-0.575
-0.52
-0.44
-0.415
-0.41
-0.195
-0.25
-0.34
-0.43
-0.45
-0.49
-0.465
-0.38
-0.315
-0.245
-0.215
-0.195
-0.295
-0.375
-0.395
-0.455
-0.415
-0.365
-0.265
-0.2
-0.14
-0.175
-0.22
-0.235
-0.3
-0.425
-0.495
-0.39
-0.23
-0.13
-0.105
-0.08
-0.18
-0.21
-0.36
-0.425
-0.43
-0.315
-0.285
-0.205
-0.135
-0.115
-0.195
-0.3
-0.385
-0.495
-0.47
-0.365
-0.3
-0.27
-0.215
-0.29
-0.45
-0.395
-0.545
-0.505
-0.48
-0.475
-0.36
-0.335
-0.3
-0.27
-0.375
-0.44
-0.475
-0.535
-0.505
-0.415
-0.385
-0.355
-0.23
-0.215
-0.355
-0.405
-0.44
-0.44
-0.43
-0.29
-0.16
-0.115
-0.025
0.09
0.145
0.185
0.24
0.275
0.265
0.165
0.05
-0.065
-0.1
-0.295
-0.56
-0.825
-1.055
-1.2
-1.205
-1.215
-1.115
-0.975
-0.865
-0.895
-0.865
-0.815
-0.82
-0.835
-0.735
-0.705
-0.69
-0.54
-0.43
-0.475
-0.585
-0.57
-0.6
-0.5
-0.495
-0.4
-0.345
-0.25
-0.265
-0.315
-0.41
-0.425
-0.45
-0.405
-0.445
-0.395
-0.305
-0.21
-0.18
-0.27
-0.325
-0.365
-0.45
-0.415
-0.385
-0.355
-0.275
-0.17
-0.14
-0.205
-0.28
-0.33
-0.48
-0.51
-0.445
-0.26
-0.22
-0.08
-0.165
-0.245
-0.32
-0.335
-0.385
-0.385
-0.32
-0.26
-0.185
-0.135
-0.145
-0.205
-0.275
-0.32
-0.415
-0.39
-0.305
-0.11
-0.115
-0.045
-0.125
-0.08
-0.085
-0.15
-0.355
-0.36
-0.3
-0.165
-0.135
-0.05
-0.1
-0.18
-0.265
-0.28
-0.3
-0.245
-0.19
-0.09
-0.04
0.03
0.04
-0.015
-0.15
-0.27
-0.295
-0.19
-0.085
0.015
-0.035
0.07
-0.045
-0.015
-0.045
-0.06
-0.15
-0.075
-0.03
0.015
0.045
0.145
0.115
0.05
-0.045
-0.065
-0.14
-0.07
-0.05
0.055
0.08
0.09
0.135
0.065
0.09
-0.115
-0.18
-0.12
-0.015
0.11
0.05
0.085
0.13
0.095
-0.03
-0.17
-0.215
-0.165
-0.105
-0.03
-0.04
-0.005
0.02
-0.105
-0.26
-0.24
-0.235
-0.255
-0.21
-0.19
-0.27
-0.185
-0.225
-0.255
-0.32
-0.435
-0.32
-0.41
-0.335
-0.225
-0.165
-0.235
-0.235
-0.315
-0.4
-0.42
-0.45
-0.45
-0.335
-0.285
-0.215
-0.2
-0.22
-0.32
-0.32
-0.475
-0.42
-0.4
-0.355
-0.285
-0.24
-0.3
-0.365
-0.355
-0.375
-0.475
-0.47
-0.425
-0.35
-0.245
-0.14
-0.205
-0.245
-0.325
-0.385
-0.51
-0.475
-0.48
-0.465
-0.285
-0.23
-0.24
-0.325
-0.42
-0.405
-0.425
-0.44
-0.39
-0.36
-0.305
-0.21
-0.215
-0.3
-0.405
-0.44
-0.47
-0.425
-0.355
-0.33
-0.345
-0.2
-0.205
-0.3
-0.345
-0.405
-0.455
-0.37
-0.37
-0.34
-0.255
-0.135
-0.215
-0.29
-0.37
-0.41
-0.465
-0.445
-0.41
-0.36
-0.4
-0.205
-0.205
-0.35
-0.37
-0.43
-0.525
-0.44
-0.405
-0.36
-0.235
-0.235
-0.31
-0.315
-0.375
-0.435
-0.475
-0.45
-0.465
-0.36
-0.285
-0.29
-0.28
-0.38
-0.405
-0.455
-0.495
-0.47
-0.4
-0.31
-0.3
-0.245
-0.275
-0.275
-0.325
-0.44
-0.47
-0.45
-0.4
-0.33
-0.255
-0.265
-0.295
-0.375
-0.295
-0.415
-0.455
-0.41
-0.365
-0.38
-0.275
-0.285
-0.305
-0.33
-0.405
-0.42
-0.46
-0.45
-0.44
-0.385
-0.35
-0.28
-0.285
-0.41
-0.38
-0.475
-0.51
-0.47
-0.38
-0.355
-0.295
-0.28
-0.32
-0.42
-0.39
-0.495
-0.525
-0.41
-0.285
-0.295
-0.255
-0.275
-0.35
-0.45
-0.41
-0.52
-0.485
-0.485
-0.31
-0.275
-0.25
-0.25
-0.255
-0.36
-0.38
-0.49
-0.41
-0.405
-0.325
-0.32
-0.31
-0.31
-0.315
-0.385
-0.45
-0.465
-0.44
-0.45
-0.32
-0.34
-0.315
-0.285
-0.34
-0.39
-0.38
-0.49
-0.53
-0.475
-0.36
-0.26
-0.265
-0.245
-0.265
-0.385
-0.395
-0.52
-0.575
-0.455
-0.405
-0.365
-0.255
-0.26
-0.295
-0.4
-0.44
-0.475
-0.475
-0.47
-0.295
-0.28
-0.22
-0.225
-0.315
-0.38
-0.465
-0.57
-0.535
-0.47
-0.335
-0.29
-0.24
-0.285
-0.355
-0.365
-0.405
-0.42
-0.355
-0.41
-0.365
-0.3
-0.35
-0.31
-0.41
-0.465
-0.43
-0.51
-0.47
-0.38
-0.305
-0.26
-0.175
-0.15
-0.26
-0.315
-0.45
-0.42
-0.445
-0.425
-0.315
-0.25
-0.17
-0.19
-0.205
-0.24
-0.37
-0.45
-0.395
-0.19
-0.165
-0.13
-0.05
-0.135
-0.21
-0.34
-0.42
-0.385
-0.425
-0.26
-0.23
-0.15
-0.135
-0.205
-0.3
-0.375
-0.42
-0.485
-0.44
-0.395
-0.37
-0.255
-0.25
-0.35
-0.39
-0.375
-0.45
-0.445
-0.425
-0.435
-0.33
-0.21
-0.36
-0.355
-0.485
-0.485
-0.515
-0.465
-0.47
-0.355
-0.365
-0.28
-0.295
-0.28
-0.375
-0.425
-0.54
-0.38
-0.335
-0.14
-0.04
0.015
0.055
0.15
0.21
0.335
0.315
0.245
0.11
0.02
-0.15
-0.135
-0.26
-0.515
-0.83
-1.105
-1.335
-1.355
-1.31
-1.2
-1.1
-0.905
-0.855
-0.87
-0.87
-0.8
-0.845
-0.81
-0.79
-0.685
-0.59
-0.43
-0.33
-0.415
-0.54
-0.455
-0.495
-0.49
-0.495
-0.35
-0.325
-0.24
-0.25
-0.275
-0.415
-0.41
-0.475
-0.5
-0.48
-0.36
-0.23
-0.15
-0.2
-0.275
-0.29
-0.325
-0.415
-0.455
-0.41
-0.295
-0.255
-0.195
-0.21
-0.28
-0.365
-0.445
-0.41
-0.335
-0.37
-0.285
-0.205
-0.14
-0.18
-0.23
-0.295
-0.35
-0.42
-0.38
-0.27
-0.22
-0.225
-0.13
-0.125
-0.18
-0.24
-0.31
-0.375
-0.3
-0.265
-0.225
-0.07
-0.06
-0.145
-0.275
-0.25
-0.25
-0.29
-0.285
-0.175
-0.125
-0.05
0.005
-0.11
-0.15
-0.205
-0.27
-0.245
-0.32
-0.185
-0.115
-0.03
0.005
-0.04
-0.05
-0.105
-0.21
-0.215
-0.105
-0.025
0.04
0.14
0.095
-0.015
-0.12
-0.175
-0.115
-0.155
-0.065
-0.025
0.05
0.195
0.145
0.07
-0.01
-0.055
-0.085
-0.135
0.0
0.115
0.135
0.165
0.105
0.075
-0.01
0.035
-0.02
-0.09
-0.055
0.065
0.135
0.195
0.205
0.145
0.04
-0.045
-0.19
-0.175
-0.175
-0.085
-0.06
-0.03
-0.05
-0.02
-0.11
-0.165
-0.265
-0.3
-0.205
-0.16
-0.12
0.0
-0.125
-0.28
-0.415
-0.315
-0.265
-0.375
-0.255
-0.2
-0.165
-0.03
-0.045
-0.255
-0.355
-0.305
-0.435
-0.4
-0.41
-0.305
-0.215
-0.175
-0.15
-0.205
-0.31
-0.405
-0.45
-0.395
-0.34
-0.25
-0.235
-0.16
-0.185
-0.24
-0.31
-0.36
-0.44
-0.38
-0.28
-0.27
-0.19
-0.17
-0.245
-0.2
-0.19
-0.26
-0.45
-0.405
-0.335
-0.25
-0.195
-0.2
-0.155
-0.28
-0.29
-0.4
-0.5
-0.42
-0.35
-0.255
-0.175
-0.145
-0.23
-0.2
-0.26
-0.35
-0.4
-0.35
-0.275
-0.275
-0.215
-0.125
-0.12
-0.125
-0.2
-0.315
-0.45
-0.4
-0.355
-0.355
-0.28
-0.19
-0.165
-0.205
-0.295
-0.35
-0.355
-0.26
-0.31
-0.25
-0.215
-0.105
-0.28
-0.285
-0.335
-0.43
-0.37
-0.33
-0.33
-0.235
-0.21
-0.19
-0.165
-0.265
-0.305
-0.41
-0.405
-0.345
-0.335
-0.29
-0.235
-0.13
-0.15
-0.285
-0.33
-0.395
-0.365
-0.31
-0.28
-0.215
-0.09
-0.2
-0.245
-0.25
-0.285
-0.39
-0.405
-0.245
-0.17
-0.205
-0.105
-0.13
-0.215
-0.425
-0.43
-0.41
-0.425
-0.4
-0.29
-0.22
-0.1
-0.115
-0.215
-0.31
-0.24
-0.375
-0.34
-0.275
-0.31
-0.34
-0.28
-0.27
-0.175
-0.27
-0.335
-0.445
-0.405
-0.275
-0.25
-0.255
-0.195
-0.12
-0.265
-0.3
-0.295
-0.405
-0.39
-0.325
-0.255
-0.24
-0.17
-0.2
-0.18
-0.23
-0.28
-0.39
-0.365
-0.3
-0.245
-0.14
-0.09
-0.145
-0.235
-0.36
-0.33
-0.405
-0.435
-0.24
-0.16
-0.16
-0.125
-0.22
-0.265
-0.285
-0.4
-0.46
-0.39
-0.35
-0.25
-0.145
-0.115
-0.2
-0.225
-0.265
-0.3
-0.415
-0.36
-0.37
-0.335
-0.23
-0.14
-0.16
-0.265
-0.33
-0.365
-0.36
-0.355
-0.25
-0.25
-0.2
-0.155
-0.205
-0.245
-0.295
-0.39
-0.385
-0.34
-0.28
-0.19
-0.1
-0.11
-0.185
-0.295
-0.26
-0.305
-0.32
-0.28
-0.27
-0.18
-0.07
-0.065
-0.135
-0.255
-0.305
-0.435
-0.375
-0.35
-0.305
-0.22
-0.13
-0.19
-0.075
-0.23
-0.275
-0.345
-0.3
-0.26
-0.135
-0.06
-0.035
-0.105
-0.105
-0.235
-0.27
-0.35
-0.235
-0.275
-0.11
-0.085
-0.02
0.005
-0.07
-0.16
-0.21
-0.28
-0.275
-0.175
-0.105
-0.03
0.05
-0.015
-0.04
-0.085
-0.165
-0.36
-0.315
-0.18
-0.14
-0.09
0.01
-0.04
-0.08
-0.21
-0.19
-0.375
-0.35
-0.29
-0.22
-0.155
-0.08
-0.15
-0.195
-0.235
-0.305
-0.405
-0.325
-0.315
-0.23
-0.28
-0.24
-0.21
-0.26
-0.29
-0.34
-0.395
-0.335
-0.27
-0.215
-0.185
-0.09
-0.075
-0.055
-0.035
-0.04
-0.09
0.035
0.18
0.345
0.475
0.565
0.545
0.43
0.195
-0.045
-0.16
-0.245
-0.39
-0.535
-0.74
-0.825
-0.935
-1.055
-1.095
-1.09
-1.055
-0.93
-0.755
-0.645
-0.6
-0.49
-0.495
-0.51
-0.54
-0.55
-0.44
-0.365
-0.225
-0.335
-0.24
-0.21
-0.265
-0.315
-0.39
-0.405
-0.305
-0.35
-0.18
-0.115
-0.02
-0.055
-0.115
-0.17
-0.29
-0.335
-0.31
-0.23
-0.185
-0.105
-0.06
-0.065
-0.045
-0.225
-0.2
-0.32
-0.24
-0.23
-0.135
-0.065
-0.065
-0.03
-0.03
-0.105
-0.085
-0.155
-0.155
-0.14
-0.095
-0.07
0.08
0.005
0.0
-0.055
-0.19
-0.305
-0.24
-0.22
-0.08
0.005
0.055
-0.005
-0.03
-0.095
-0.095
-0.15
-0.085
-0.13
-0.085
0.035
0.13
0.125
0.015
0.0
-0.06
-0.175
-0.115
-0.065
0.01
0.01
0.195
0.155
0.055
-0.005
-0.085
-0.045
0.035
0.045
0.14
0.235
0.315
0.29
0.235
0.115
0.05
-0.1
-0.08
-0.005
0.12
0.23
0.225
0.215
0.175
0.165
0.07
0.14
0.03
0.1
0.175
0.165
0.275
0.3
0.23
0.17
0.16
0.08
0.085
0.1
0.225
0.285
0.335
0.31
0.305
0.19
0.19
0.075
0.09
0.135
0.155
0.235
0.345
0.195
0.1
0.09
0.03
-0.06
-0.085
-0.015
0.015
0.1
0.095
0.025
-0.005
0.01
-0.13
-0.165
-0.095
-0.05
-0.005
-0.005
-0.005
-0.005
-0.05
-0.115
-0.17
-0.225
-0.24
-0.17
-0.215
-0.095
-0.025
-0.085
-0.15
-0.14
-0.27
-0.23
-0.255
-0.025
-0.04
-0.015
-0.045
-0.06
-0.09
-0.16
-0.28
-0.375
-0.27
-0.14
-0.04
0.005
0.015
0.0
-0.105
-0.14
-0.3
-0.275
-0.22
-0.09
-0.11
-0.015
-0.035
-0.095
-0.175
-0.19
-0.345
-0.3
-0.205
-0.09
-0.065
0.035
-0.015
-0.07
-0.19
-0.225
-0.265
-0.24
-0.235
-0.115
-0.065
-0.005
-0.065
0.035
-0.07
-0.07
-0.22
-0.245
-0.225
-0.145
-0.105
-0.065
0.0
-0.005
-0.095
-0.18
-0.225
-0.235
-0.24
-0.145
-0.095
-0.01
-0.05
-0.1
-0.105
-0.135
-0.275
-0.235
-0.255
-0.135
-0.15
0.07
0.02
-0.055
-0.135
-0.195
-0.22
-0.255
-0.19
-0.115
0.0
0.0
-0.06
-0.175
-0.185
-0.115
-0.205
-0.22
-0.105
0.01
-0.075
-0.04
-0.05
-0.135
-0.215
-0.235
-0.305
-0.275
-0.165
-0.135
-0.11
0.0
0.05
-0.06
-0.08
-0.145
-0.205
-0.12
-0.13
-0.115
-0.175
-0.125
-0.09
-0.095
-0.115
-0.145
-0.26
-0.23
-0.125
-0.075
-0.02
-0.03
-0.075
-0.155
-0.18
-0.185
-0.25
-0.28
-0.18
-0.17
-0.06
0.025
0.08
0.035
-0.1
-0.265
-0.18
-0.145
-0.135
-0.16
-0.05
-0.015
-0.07
-0.13
-0.16
-0.215
-0.24
-0.125
-0.12
-0.1
-0.025
0.08
0.0
-0.105
-0.145
-0.27
-0.24
-0.21
-0.09
-0.075
0.01
0.03
-0.025
-0.105
-0.16
-0.22
-0.15
-0.125
-0.125
-0.15
-0.1
-0.04
-0.13
-0.12
-0.075
-0.215
-0.245
-0.155
-0.105
-0.1
0.0
-0.04
-0.045
-0.005
-0.03
-0.175
-0.235
-0.175
-0.12
-0.075
0.035
0.01
-0.045
-0.09
-0.145
-0.31
-0.34
-0.205
-0.09
-0.045
0.01
-0.01
0.025
-0.065
-0.11
-0.18
-0.125
-0.035
0.015
-0.015
0.04
0.095
-0.005
-0.075
-0.05
-0.12
-0.1
-0.005
0.02
0.06
0.165
0.045
0.095
0.025
0.01
-0.07
-0.08
-0.02
0.005
0.08
0.135
0.1
0.09
0.04
-0.07
-0.12
-0.13
-0.125
-0.04
0.04
0.05
0.0
-0.09
-0.085
-0.15
-0.19
-0.23
-0.165
-0.11
-0.06
0.02
0.01
-0.085
-0.12
-0.2
-0.3
-0.195
-0.145
-0.02
0.02
0.09
0.065
-0.025
-0.15
-0.16
-0.26
-0.215
-0.18
-0.045
0.045
0.155
0.135
0.11
0.125
0.14
0.215
0.305
0.51
0.65
0.685
0.6
0.495
0.26
0.155
-0.085
-0.265
-0.48
-0.585
-0.83
-0.73
-0.75
-0.69
-0.795
-0.765
-0.69
-0.69
-0.575
-0.525
-0.35
-0.27
-0.255
-0.255
-0.295
-0.325
-0.45
-0.405
-0.295
-0.215
-0.195
0.01
0.005
-0.065
-0.08
-0.08
-0.155
-0.095
-0.025
-0.055
-0.045
0.065
0.005
-0.055
-0.075
-0.055
-0.17
-0.165
-0.08
0.02
0.105
0.15
0.115
0.065
0.065
-0.01
-0.15
-0.145
-0.09
0.005
0.06
0.1
0.125
0.1
-0.005
-0.045
-0.075
-0.06
0.0
0.105
0.105
0.095
0.225
0.115
0.02
-0.015
-0.045
-0.035
0.0
0.03
0.18
0.205
0.14
0.115
0.05
0.085
0.005
0.025
0.125
0.155
0.18
0.275
0.235
0.155
0.18
0.155
0.035
0.06
0.22
0.265
0.275
0.325
0.285
0.25
0.19
0.1
0.105
0.13
0.165
0.265
0.4
0.33
0.4
0.33
0.265
0.215
0.115
0.235
0.3
0.31
0.33
0.435
0.415
0.395
0.34
0.29
0.285
0.315
0.3
0.37
0.415
0.49
0.54
0.355
0.315
0.32
0.295
0.325
0.36
0.485
0.525
0.55
0.51
0.37
0.36
0.285
0.22
0.285
0.34
0.39
0.39
0.375
0.365
0.26
0.235
0.14
0.185
0.145
0.205
0.265
0.295
0.335
0.235
0.205
0.14
0.02
0.015
0.0
0.125
0.195
0.135
0.085
0.125
0.12
0.07
-0.015
-0.04
-0.035
0.015
0.075
0.165
0.165
0.115
-0.03
0.025
-0.07
-0.035
0.06
0.09
0.08
0.19
0.18
0.12
-0.015
-0.005
-0.075
-0.06
-0.06
0.11
0.14
0.245
0.24
0.11
-0.055
-0.01
-0.02
-0.06
-0.045
0.02
0.04
0.135
0.19
0.165
-0.025
0.04
0.0
-0.035
-0.045
0.05
0.08
0.17
0.19
0.11
-0.01
-0.06
-0.165
-0.06
-0.03
0.11
0.205
0.265
0.155
0.17
0.06
0.075
-0.05
-0.065
0.01
0.075
0.125
0.19
0.165
0.13
0.005
-0.005
-0.105
-0.04
-0.02
0.085
0.09
0.175
0.14
0.065
0.07
0.02
-0.05
-0.06
0.03
0.1
0.135
0.185
0.125
0.115
-0.035
-0.065
-0.07
0.07
0.095
0.125
0.165
0.205
0.18
0.09
0.005
-0.02
-0.105
-0.13
-0.07
0.015
0.115
0.195
0.16
0.12
0.0
-0.075
-0.15
-0.045
-0.01
0.07
0.14
0.165
0.12
0.09
0.03
-0.075
-0.05
-0.165
-0.055
0.125
0.26
0.245
0.165
0.0
-0.025
-0.115
-0.08
0.025
0.065
0.02
0.19
0.19
0.15
0.045
0.005
-0.07
-0.09
0.005
0.11
0.03
0.04
0.135
0.17
0.07
0.09
-0.045
-0.045
0.05
0.135
0.13
0.175
0.185
0.155
0.06
-0.06
-0.08
-0.105
-0.06
-0.015
0.07
0.185
0.16
0.045
0.025
-0.04
-0.06
-0.04
0.035
0.08
0.06
0.195
0.185
0.14
0.02
-0.005
-0.07
-0.065
-0.04
0.135
0.115
0.215
0.195
0.11
0.075
0.125
-0.005
-0.015
0.03
0.125
0.125
0.21
0.2
0.2
0.195
0.12
0.04
0.045
0.1
0.185
0.215
0.285
0.26
0.22
0.175
0.08
0.025
0.06
0.1
0.165
0.195
0.275
0.245
0.235
0.09
0.065
0.035
0.01
0.08
0.12
0.19
0.235
0.205
0.095
0.015
-0.075
-0.075
-0.09
0.02
0.18
0.145
0.195
0.16
0.08
0.025
-0.055
-0.125
-0.045
-0.05
0.0
0.075
0.175
0.19
0.165
0.095
-0.01
-0.105
-0.185
-0.06
0.08
0.035
0.245
0.245
0.335
0.265
0.28
0.39
0.495
0.625
0.75
0.79
0.775
0.64
0.365
0.19
-0.065
-0.155
-0.29
-0.485
-0.685
-0.62
-0.615
-0.67
-0.74
-0.72
-0.675
-0.585
-0.49
-0.35
-0.265
-0.155
-0.15
-0.165
-0.24
-0.23
-0.325
-0.22
-0.16
-0.155
-0.1
0.01
-0.02
0.125
0.095
0.08
-0.06
-0.04
-0.03
0.06
0.11
0.145
0.14
0.13
0.07
0.055
-0.065
-0.015
0.02
0.095
0.17
0.26
0.23
0.22
0.2
0.125
-0.005
-0.085
-0.005
0.11
0.095
0.215
0.255
0.165
0.14
0.11
0.015
0.04
0.135
0.175
0.155
0.24
0.205
0.18
0.14
0.11
-0.03
0.04
0.095
0.13
0.125
0.335
0.255
0.21
0.14
0.185
0.135
0.13
0.22
0.265
0.225
0.28
0.335
0.22
0.195
0.215
0.125
0.105
0.22
0.28
0.37
0.385
0.4
0.325
0.27
0.235
0.2
0.2
0.27
0.39
0.51
0.475
0.405
0.37
0.355
0.235
0.205
0.24
0.36
0.44
0.415
0.44
0.455
0.42
0.34
0.3
0.245
0.3
0.37
0.455
0.495
0.62
0.565
0.44
0.39
0.415
0.31
0.37
0.405
0.46
0.55
0.515
0.455
0.435
0.355
0.315
0.325
0.33
0.315
0.415
0.475
0.47
0.395
0.3
0.225
0.165
0.2
0.195
0.275
0.25
0.31
0.33
0.32
0.23
0.155
0.01
0.05
0.065
0.025
0.105
0.205
0.115
0.12
0.115
0.065
0.025
0.0
0.0
0.03
0.125
0.205
0.205
0.105
-0.005
-0.025
-0.035
-0.005
-0.05
0.005
0.1
0.2
0.215
0.12
0.08
-0.03
-0.12
-0.055
-0.015
0.075
0.095
0.13
0.195
0.095
-0.035
-0.035
-0.13
-0.09
0.02
0.02
0.135
0.185
0.165
0.19
0.005
-0.05
-0.085
-0.015
-0.095
0.07
0.1
0.19
0.205
0.11
0.08
0.015
-0.115
-0.045
-0.005
0.09
0.1
0.1
0.165
0.065
-0.045
0.01
-0.055
-0.115
0.01
0.095
0.115
0.19
0.155
0.065
-0.005
0.01
-0.085
-0.06
0.005
0.13
0.175
0.23
0.23
0.115
0.02
-0.03
-0.085
-0.11
-0.045
0.045
0.075
0.185
0.135
0.085
-0.015
-0.06
-0.075
-0.14
0.005
0.095
0.105
0.035
0.1
0.0
-0.065
-0.07
-0.08
-0.06
0.0
0.06
0.155
0.2
0.12
0.11
0.09
0.015
0.01
0.005
-0.06
0.03
0.05
0.075
0.05
-0.005
-0.005
-0.045
-0.105
-0.02
0.04
0.075
0.14
0.115
0.075
-0.01
-0.025
-0.07
0.015
-0.03
-0.13
0.04
0.19
0.14
0.15
0.01
-0.03
-0.09
-0.095
-0.09
0.0
0.05
0.145
0.125
0.03
0.02
0.0
-0.095
-0.055
-0.115
-0.01
0.005
0.13
0.08
0.02
0.05
0.035
0.01
-0.055
-0.095
-0.03
0.0
0.135
0.13
0.075
0.035
0.01
-0.08
-0.09
-0.08
0.045
0.04
0.105
0.065
0.1
-0.02
0.005
-0.185
-0.09
-0.035
-0.03
0.045
0.195
0.12
0.05
-0.015
-0.08
-0.185
-0.12
-0.08
0.005
0.135
0.225
0.175
0.02
-0.05
-0.11
-0.185
-0.13
-0.08
0.02
0.055
0.155
0.16
0.07
-0.045
-0.075
-0.135
-0.07
0.015
0.08
0.125
0.14
0.1
0.015
-0.04
-0.095
-0.13
-0.145
-0.06
0.03
0.08
0.135
0.13
0.135
0.07
-0.04
-0.135
-0.085
0.05
0.12
0.095
0.18
0.25
0.18
0.12
0.06
-0.03
-0.03
0.085
0.15
0.215
0.22
0.185
0.21
0.145
0.02
-0.045
0.035
0.075
0.135
0.16
0.165
0.145
0.14
0.095
0.0
0.03
0.03
0.045
0.045
0.15
0.21
0.13
0.045
-0.095
-0.175
-0.16
-0.08
-0.025
0.005
0.04
0.1
0.055
-0.045
-0.04
-0.05
-0.1
-0.09
-0.005
0.025
0.08
0.125
0.015
-0.02
-0.11
-0.13
-0.045
-0.03
0.045
0.18
0.365
0.405
0.42
0.475
0.615
0.485
0.545
0.575
0.6
0.54
0.47
0.35
0.23
-0.105
-0.355
-0.54
-0.82
-0.985
-0.89
-0.76
-0.61
-0.565
-0.57
-0.595
-0.55
-0.5
-0.455
-0.35
-0.24
-0.23
-0.12
-0.05
-0.155
-0.19
-0.2
-0.215
-0.17
-0.11
-0.03
0.055
0.07
0.145
-0.005
-0.01
-0.005
-0.05
-0.115
0.015
0.06
0.115
0.195
0.15
0.09
0.02
-0.005
-0.05
-0.085
0.0
0.055
0.04
0.26
0.215
0.105
0.03
-0.025
-0.06
-0.07
0.035
0.11
0.2
0.275
0.2
0.09
0.08
0.02
-0.045
-0.015
0.04
0.12
0.175
0.225
0.26
0.21
0.15
0.085
0.01
0.005
0.035
0.195
0.265
0.275
0.295
0.225
0.21
0.24
0.125
0.035
0.105
0.2
0.2
0.28
0.225
0.2
0.205
0.17
0.085
0.19
0.225
0.31
0.315
0.3
0.28
0.285
0.215
0.125
0.16
0.22
0.25
0.365
0.455
0.38
0.405
0.36
0.265
0.225
0.225
0.31
0.37
0.39
0.48
0.465
0.385
0.34
0.31
0.23
0.265
0.3
0.395
0.465
0.565
0.515
0.485
0.465
0.325
0.14
0.22
0.35
0.405
0.46
0.495
0.445
0.405
0.345
0.255
0.1
0.21
0.285
0.365
0.375
0.405
0.35
0.35
0.225
0.145
0.02
0.03
0.065
0.105
0.205
0.215
0.26
0.275
0.085
0.06
0.02
0.02
0.04
0.065
0.06
0.14
0.15
0.095
0.095
0.015
-0.085
-0.035
-0.04
0.055
0.11
0.095
0.075
0.05
-0.02
-0.015
-0.07
-0.075
-0.045
0.02
0.055
0.13
0.12
0.075
-0.085
-0.075
-0.09
-0.055
-0.015
0.085
0.12
0.155
0.08
0.045
-0.045
-0.12
-0.035
-0.06
0.005
0.035
0.115
0.15
0.1
0.0
-0.115
-0.065
-0.07
-0.04
0.035
0.095
0.145
0.18
0.11
0.06
0.03
-0.05
-0.12
-0.105
0.0
0.045
0.08
0.17
0.175
0.07
0.0
-0.045
-0.105
-0.055
0.03
0.045
0.08
0.12
0.065
-0.035
-0.08
-0.1
-0.13
-0.105
-0.055
0.035
0.13
0.155
0.115
0.07
-0.03
-0.125
-0.04
-0.04
0.005
0.045
0.12
0.13
0.08
0.015
-0.085
-0.115
-0.13
-0.125
0.025
0.05
0.14
0.145
0.16
0.06
-0.015
-0.145
-0.085
-0.04
0.025
0.06
0.185
0.105
0.08
0.005
0.0
-0.055
-0.11
-0.02
-0.035
-0.015
0.095
0.105
0.05
-0.075
-0.08
-0.155
-0.04
-0.1
0.01
0.03
0.16
0.19
-0.01
-0.07
0.005
-0.115
-0.085
-0.055
-0.015
0.025
0.075
0.035
0.07
0.07
-0.01
-0.14
-0.195
-0.06
0.025
0.015
0.11
0.075
0.0
-0.02
-0.01
-0.13
-0.15
-0.09
0.04
0.06
0.115
0.13
0.11
0.025
-0.045
-0.12
-0.075
-0.055
-0.01
-0.01
0.095
0.06
0.03
0.06
-0.035
-0.095
-0.1
-0.04
-0.005
-0.03
0.005
0.035
0.07
-0.025
-0.12
-0.115
-0.12
-0.045
0.09
0.105
0.185
0.13
0.07
0.005
-0.18
-0.205
-0.19
-0.135
0.01
0.05
0.04
0.06
-0.005
-0.055
-0.085
-0.125
-0.08
-0.005
0.105
0.12
0.11
0.11
-0.035
-0.1
-0.135
-0.14
-0.13
-0.085
0.075
0.125
0.135
0.11
0.015
-0.03
-0.06
-0.13
-0.17
-0.045
-0.07
-0.025
0.12
0.095
-0.005
-0.055
-0.04
-0.115
-0.075
-0.015
0.025
0.04
0.07
0.075
-0.01
-0.12
-0.155
-0.1
-0.04
-0.01
-0.035
0.105
0.11
0.055
-0.065
-0.045
-0.17
-0.175
-0.135
-0.06
-0.03
0.095
0.105
0.06
-0.015
-0.04
-0.11
-0.09
-0.085
-0.035
0.055
0.215
0.095
0.045
-0.05
0.015
-0.04
0.04
0.115
0.12
0.135
0.225
0.26
0.185
-0.02
-0.065
-0.235
-0.045
0.005
0.03
0.205
0.3
0.22
0.135
0.115
0.045
-0.115
-0.045
0.07
0.165
0.145
0.195
0.225
0.29
0.16
0.1
-0.045
-0.025
0.01
0.04
0.08
0.23
0.15
0.09
0.06
-0.06
-0.085
-0.065
-0.105
-0.03
0.055
0.13
0.145
-0.015
-0.095
-0.085
-0.11
-0.11
-0.11
-0.01
0.045
0.135
0.045
-0.025
-0.12
-0.185
-0.18
-0.065
-0.035
0.02
0.115
0.145
0.085
-0.005
0.03
0.08
0.085
0.16
0.195
0.33
0.49
0.67
0.685
0.665
0.635
0.52
0.33
0.235
0.235
0.06
-0.17
-0.275
-0.565
-0.845
-0.93
-0.99
-1.04
-0.885
-0.68
-0.56
-0.395
-0.34
-0.275
-0.33
-0.345
-0.44
-0.435
-0.335
-0.235
-0.185
-0.1
0.045
-0.025
-0.08
-0.075
-0.17
-0.225
-0.135
0.0
0.04
0.13
0.115
0.11
0.015
-0.04
-0.135
-0.035
-0.07
0.08
0.06
0.12
0.11
0.125
0.06
-0.03
-0.025
0.0
0.04
0.06
0.06
0.185
0.195
0.125
0.09
0.035
-0.125
-0.01
0.03
0.145
0.19
0.275
0.22
0.17
0.045
0.06
-0.08
-0.11
-0.065
0.095
0.195
0.235
0.285
0.225
0.08
0.075
-0.025
-0.055
0.045
0.08
0.23
0.24
0.365
0.21
0.18
0.11
0.01
0.03
0.125
0.18
0.215
0.33
0.3
0.265
0.21
0.17
0.065
0.045
0.135
0.22
0.31
0.335
0.405
0.3
0.235
0.2
0.115
0.175
0.265
0.32
0.36
0.395
0.39
0.315
0.27
0.24
0.235
0.32
0.35
0.355
0.37
0.44
0.475
0.43
0.395
0.29
0.25
0.295
0.28
0.335
0.39
0.575
0.515
0.395
0.335
0.305
0.265
0.305
0.325
0.38
0.385
0.405
0.35
0.305
0.22
0.16
0.11
0.08
0.2
0.33
0.305
0.28
0.24
0.245
0.1
-0.005
0.0
0.05
0.11
0.145
0.24
0.265
0.165
0.065
0.02
0.01
-0.08
-0.115
-0.03
0.02
0.07
0.16
0.145
0.02
0.075
-0.105
-0.125
-0.05
0.035
0.05
0.12
0.075
0.045
0.005
0.01
-0.12
-0.105
-0.05
0.055
0.025
0.075
0.045
0.025
-0.025
-0.09
-0.125
-0.05
-0.115
-0.015
0.115
0.16
0.12
0.075
0.035
-0.04
-0.095
-0.065
-0.05
-0.015
0.02
0.095
0.105
0.0
-0.06
-0.02
-0.11
-0.1
-0.075
0.0
0.07
0.16
0.15
-0.025
-0.035
-0.005
-0.115
-0.085
-0.105
-0.035
0.015
0.095
0.12
0.09
0.06
-0.045
-0.095
-0.13
0.0
-0.015
0.12
0.085
0.02
0.03
-0.005
-0.085
-0.125
-0.09
-0.025
0.025
0.06
0.14
0.13
0.06
-0.045
-0.135
-0.12
-0.145
