# TIPE ECG 2021 - ECG-ID Database v1.0.0 par Physionet
# [N° de la personne, N° de l'enregistrement, Période d'échantillonnage, Prénom, Age, Sexe, Date de l'enregistrement]
[64, 3, 0.002, "Marc", 68, "H", "12.05.2005"]
-0.115
-0.12
-0.125
-0.105
-0.125
-0.14
-0.12
-0.135
-0.165
-0.145
-0.13
-0.14
-0.13
-0.13
-0.145
-0.17
-0.18
-0.185
-0.15
-0.08
-0.14
-0.11
-0.15
-0.165
-0.205
-0.165
-0.12
-0.14
-0.16
-0.155
-0.185
-0.14
-0.165
-0.11
-0.125
-0.12
-0.125
-0.14
-0.135
-0.12
-0.12
-0.135
-0.15
-0.135
-0.115
-0.125
-0.105
-0.135
-0.165
-0.155
-0.155
-0.135
-0.11
-0.115
-0.13
-0.13
-0.135
-0.14
-0.125
-0.135
-0.155
-0.13
-0.125
-0.13
-0.105
-0.08
-0.135
-0.115
-0.1
-0.12
-0.155
-0.17
-0.155
-0.13
-0.105
-0.115
-0.07
-0.115
-0.15
-0.145
-0.115
-0.105
-0.185
-0.14
-0.145
-0.12
-0.125
-0.125
-0.125
-0.135
-0.105
-0.135
-0.125
-0.14
-0.115
-0.075
-0.095
-0.105
-0.135
-0.155
-0.17
-0.175
-0.13
-0.17
-0.165
-0.115
-0.105
-0.125
-0.11
-0.14
-0.135
-0.135
-0.16
-0.165
-0.165
-0.145
-0.115
-0.085
-0.11
-0.125
-0.155
-0.115
-0.11
-0.11
-0.1
-0.065
-0.075
-0.06
-0.15
-0.19
-0.175
-0.155
-0.095
-0.105
-0.095
-0.11
-0.125
-0.15
-0.115
-0.06
-0.105
-0.105
-0.135
-0.145
-0.145
-0.125
-0.165
-0.12
-0.075
-0.1
-0.125
-0.11
-0.135
-0.155
-0.055
-0.045
-0.085
-0.095
-0.105
-0.07
-0.045
-0.06
-0.065
-0.02
0.0
-0.005
-0.035
-0.045
-0.065
-0.015
-0.03
0.0
0.035
0.03
0.02
-0.025
-0.08
-0.055
-0.03
-0.055
-0.03
-0.02
-0.075
-0.055
-0.06
-0.07
-0.1
-0.155
-0.13
-0.12
-0.125
-0.065
-0.12
-0.11
-0.105
-0.11
-0.125
-0.105
-0.11
-0.115
-0.12
-0.125
-0.125
-0.155
-0.15
-0.115
-0.15
-0.175
-0.12
-0.13
-0.145
-0.155
-0.12
-0.14
-0.15
-0.15
-0.165
-0.13
-0.125
-0.16
-0.17
-0.205
-0.21
-0.215
-0.16
-0.14
-0.07
-0.055
-0.005
0.07
0.195
0.345
0.455
0.57
0.78
0.915
0.995
1.11
1.025
0.845
0.635
0.41
0.02
-0.16
-0.125
-0.22
-0.25
-0.245
-0.205
-0.18
-0.125
-0.125
-0.14
-0.12
-0.14
-0.115
-0.085
-0.075
-0.17
-0.17
-0.13
-0.105
-0.135
-0.14
-0.11
-0.11
-0.15
-0.17
-0.13
-0.075
-0.1
-0.095
-0.075
-0.05
-0.07
-0.1
-0.14
-0.125
-0.13
-0.15
-0.17
-0.105
-0.11
-0.08
-0.085
-0.105
-0.125
-0.165
-0.18
-0.13
-0.11
-0.07
-0.08
-0.055
-0.08
-0.105
-0.1
-0.12
-0.135
-0.125
-0.085
-0.065
-0.075
-0.095
-0.055
-0.08
-0.095
-0.055
-0.09
-0.12
-0.115
-0.1
-0.065
-0.07
-0.065
-0.125
-0.07
-0.055
-0.065
-0.07
-0.05
-0.065
-0.035
-0.005
-0.05
-0.09
-0.065
-0.055
-0.055
0.03
0.005
0.055
0.0
-0.015
-0.015
0.01
0.005
-0.03
0.005
0.015
0.02
0.065
0.055
0.075
0.08
0.12
0.11
0.085
0.065
0.105
0.125
0.095
0.155
0.17
0.16
0.16
0.195
0.185
0.185
0.18
0.19
0.225
0.165
0.19
0.235
0.205
0.2
0.18
0.18
0.175
0.19
0.165
0.19
0.155
0.155
0.105
0.09
0.085
0.125
0.105
0.1
0.11
0.005
-0.03
-0.015
0.02
0.0
-0.075
-0.05
-0.035
-0.02
-0.035
-0.06
-0.05
-0.055
-0.095
-0.105
-0.075
-0.04
-0.075
-0.115
-0.105
-0.125
-0.09
-0.135
-0.09
-0.045
-0.07
-0.095
-0.085
-0.1
-0.1
-0.105
-0.11
-0.135
-0.13
-0.105
-0.05
-0.085
-0.095
-0.12
-0.155
-0.125
-0.075
-0.135
-0.11
-0.1
-0.085
-0.085
-0.11
-0.08
-0.095
-0.1
-0.205
-0.145
-0.11
-0.095
-0.135
-0.125
-0.13
-0.11
-0.11
-0.125
-0.1
-0.095
-0.095
-0.12
-0.125
-0.145
-0.125
-0.13
-0.185
-0.135
-0.145
-0.125
-0.115
-0.04
-0.09
-0.095
-0.115
-0.08
-0.085
-0.07
-0.085
-0.1
-0.12
-0.115
-0.11
-0.11
-0.09
-0.095
-0.125
-0.15
-0.075
-0.075
-0.07
-0.205
-0.16
-0.12
-0.06
-0.065
-0.1
-0.075
-0.07
-0.095
-0.1
-0.1
-0.09
-0.1
-0.09
-0.095
-0.13
-0.11
-0.075
-0.105
-0.125
-0.125
-0.095
-0.07
-0.055
-0.115
-0.16
-0.12
-0.055
-0.12
-0.115
-0.105
-0.11
-0.14
-0.14
-0.095
-0.09
-0.1
-0.105
-0.075
-0.1
-0.115
-0.145
-0.135
-0.115
-0.08
-0.09
-0.125
-0.12
-0.075
-0.05
-0.095
-0.11
-0.135
-0.11
-0.1
-0.07
-0.055
-0.115
-0.135
-0.125
-0.16
-0.15
-0.16
-0.13
-0.125
-0.11
-0.08
-0.085
-0.1
-0.11
-0.11
-0.115
-0.105
-0.105
-0.11
-0.11
-0.085
-0.1
-0.115
-0.135
-0.165
-0.165
-0.12
-0.11
-0.065
-0.06
-0.09
-0.115
-0.135
-0.125
-0.09
-0.065
-0.065
-0.06
-0.1
-0.13
-0.095
-0.065
-0.08
-0.075
-0.055
-0.055
-0.04
-0.015
-0.01
-0.01
-0.03
-0.05
-0.015
0.025
0.02
0.045
0.085
0.085
-0.02
-0.025
0.03
0.05
0.03
0.005
-0.05
-0.095
-0.09
-0.055
-0.025
-0.035
-0.085
-0.06
-0.09
-0.11
-0.14
-0.08
-0.105
-0.1
-0.095
-0.085
-0.105
-0.12
-0.125
-0.155
-0.14
-0.125
-0.04
-0.045
-0.125
-0.09
-0.07
-0.12
-0.125
-0.105
-0.13
-0.135
-0.12
-0.125
-0.11
-0.13
-0.1
-0.13
-0.105
-0.08
-0.055
-0.145
-0.195
-0.19
-0.17
-0.12
-0.085
-0.06
-0.015
0.065
0.205
0.32
0.44
0.57
0.7
0.9
1.03
1.135
1.16
1.04
0.81
0.575
0.225
-0.05
-0.115
-0.165
-0.21
-0.19
-0.205
-0.16
-0.105
-0.105
-0.105
-0.08
-0.085
-0.075
-0.075
-0.09
-0.1
-0.095
-0.125
-0.12
-0.105
-0.045
-0.1
-0.125
-0.125
-0.09
-0.105
-0.09
-0.105
-0.035
-0.08
-0.13
-0.105
-0.14
-0.14
-0.045
-0.07
-0.08
-0.08
-0.095
-0.105
-0.135
-0.17
-0.08
-0.015
-0.005
-0.05
-0.07
-0.07
-0.075
-0.055
-0.065
-0.085
-0.095
-0.105
-0.12
-0.095
-0.04
-0.055
-0.05
-0.09
-0.09
-0.09
-0.085
-0.1
-0.06
-0.025
-0.04
-0.045
-0.05
-0.05
-0.055
-0.055
-0.04
-0.06
-0.08
-0.09
-0.115
-0.09
-0.02
-0.005
0.07
0.02
-0.04
-0.045
0.0
-0.005
0.02
0.015
0.04
0.05
0.03
0.02
0.055
0.055
0.05
0.065
0.075
0.085
0.07
0.075
0.075
0.09
0.085
0.1
0.11
0.125
0.165
0.175
0.185
0.19
0.165
0.195
0.215
0.21
0.21
0.21
0.215
0.21
0.195
0.21
0.245
0.245
0.185
0.2
0.235
0.235
0.225
0.23
0.295
0.225
0.15
0.19
0.16
0.145
0.13
0.125
0.13
0.1
0.08
0.07
0.085
0.06
0.065
0.015
0.01
0.055
0.055
-0.025
-0.005
0.0
0.005
-0.01
-0.01
-0.01
-0.025
-0.035
-0.08
-0.035
-0.01
-0.045
-0.035
-0.025
-0.04
-0.055
-0.06
-0.09
-0.115
-0.115
-0.085
-0.07
-0.04
-0.005
-0.015
-0.04
-0.045
-0.16
-0.15
-0.1
-0.01
-0.015
-0.01
-0.02
-0.04
-0.075
-0.085
-0.055
-0.03
-0.065
-0.1
-0.09
-0.055
-0.03
-0.055
-0.06
-0.06
-0.085
-0.09
-0.105
-0.105
-0.08
-0.08
-0.085
-0.085
-0.115
-0.03
-0.055
-0.09
-0.085
-0.06
-0.055
-0.07
-0.085
-0.1
-0.085
-0.105
-0.08
-0.08
-0.045
-0.04
-0.045
-0.035
-0.05
-0.05
-0.09
-0.1
-0.12
-0.085
-0.04
-0.015
-0.025
-0.06
-0.045
-0.06
-0.05
-0.08
-0.075
-0.06
-0.04
-0.04
-0.035
-0.06
-0.025
-0.01
0.0
-0.025
-0.08
-0.095
-0.05
-0.045
-0.055
-0.035
-0.07
-0.045
-0.09
-0.085
-0.07
-0.08
-0.085
-0.055
-0.09
-0.05
-0.065
-0.105
-0.105
-0.035
-0.02
-0.045
-0.05
-0.05
-0.07
-0.04
-0.09
-0.09
-0.03
-0.025
-0.03
-0.11
-0.045
-0.045
-0.115
-0.095
-0.04
-0.05
-0.035
-0.02
-0.075
-0.055
-0.045
-0.06
-0.05
-0.05
-0.045
-0.055
-0.085
-0.065
-0.085
-0.055
-0.03
-0.06
-0.04
-0.035
-0.035
-0.055
-0.04
-0.075
-0.115
-0.105
-0.09
-0.045
-0.01
-0.015
-0.03
-0.035
-0.035
-0.07
-0.055
-0.04
-0.035
-0.045
-0.055
-0.045
-0.045
-0.085
-0.02
-0.005
-0.08
-0.055
-0.06
-0.03
-0.02
-0.03
-0.035
-0.035
-0.01
-0.025
-0.055
-0.06
-0.03
-0.025
-0.04
-0.02
0.005
-0.045
-0.065
-0.01
-0.01
-0.035
-0.045
-0.03
-0.015
0.065
0.04
0.015
0.01
0.045
0.065
0.065
0.12
0.065
0.04
0.035
0.085
0.065
0.105
0.125
0.075
0.075
0.075
0.06
0.09
0.09
0.085
0.095
0.075
0.0
-0.045
-0.08
-0.065
-0.015
0.015
-0.025
-0.035
-0.075
-0.05
-0.03
-0.055
-0.055
-0.045
-0.05
-0.03
-0.015
-0.055
-0.07
-0.065
-0.04
-0.04
-0.05
-0.065
-0.075
-0.045
-0.075
-0.055
-0.095
-0.09
-0.035
-0.015
-0.025
-0.045
-0.035
-0.025
-0.035
-0.09
-0.095
-0.105
-0.15
-0.115
-0.095
-0.045
0.0
0.075
0.185
0.28
0.47
0.58
0.75
0.85
0.965
1.055
1.185
1.165
0.99
0.72
0.49
0.145
-0.06
-0.105
-0.155
-0.2
-0.2
-0.135
-0.085
-0.035
-0.035
-0.08
-0.05
-0.05
-0.035
-0.015
-0.025
-0.02
-0.035
-0.03
-0.025
-0.035
-0.1
-0.045
-0.05
0.01
-0.015
-0.015
-0.015
-0.015
-0.01
0.035
0.035
-0.005
-0.05
-0.065
-0.055
-0.03
-0.025
-0.06
-0.06
-0.04
0.02
0.025
0.01
0.0
0.0
0.035
0.005
-0.065
-0.05
-0.04
-0.06
-0.025
-0.025
-0.01
-0.01
-0.01
-0.01
-0.02
-0.015
-0.015
-0.05
-0.075
-0.02
0.015
0.05
0.04
0.035
0.025
0.005
0.0
0.01
0.005
-0.01
0.025
0.04
0.03
0.05
0.055
0.055
0.045
0.045
0.055
0.09
0.085
0.09
0.075
0.06
0.08
0.105
0.12
0.085
0.155
0.125
0.15
0.155
0.17
0.135
0.145
0.13
0.145
0.17
0.175
0.185
0.155
0.195
0.23
0.22
0.255
0.23
0.21
0.235
0.27
0.27
0.29
0.285
0.28
0.285
0.285
0.29
0.285
0.305
0.33
0.305
0.3
0.31
0.32
0.32
0.295
0.305
0.295
0.24
0.265
0.245
0.215
0.205
0.205
0.135
0.155
0.14
0.135
0.115
0.21
0.155
0.14
0.115
0.08
0.03
0.04
0.035
0.04
0.06
0.055
0.06
0.07
0.085
0.06
-0.02
-0.04
0.025
0.03
0.0
0.065
0.03
0.02
0.035
0.0
0.0
0.02
0.035
0.04
0.035
0.045
0.04
0.025
0.01
0.005
-0.055
-0.02
0.01
0.005
0.01
0.02
0.035
0.0
0.02
0.02
0.035
0.03
0.0
-0.02
-0.04
0.07
0.02
-0.03
0.02
-0.005
-0.07
0.035
0.085
0.03
0.01
0.02
0.01
0.03
0.035
0.01
0.035
0.045
0.025
0.025
0.04
0.01
-0.02
-0.02
0.03
0.05
0.0
-0.03
0.015
0.065
0.075
0.04
0.01
0.01
0.0
0.03
0.07
0.06
0.09
-0.03
-0.075
-0.005
0.025
0.075
0.07
0.05
0.05
0.065
0.06
0.05
0.025
0.065
0.04
0.08
0.06
0.045
0.015
-0.01
0.065
0.03
0.025
0.025
0.03
0.045
0.045
0.03
0.01
0.02
0.025
0.035
0.02
0.055
0.04
0.015
0.02
0.03
0.045
0.05
0.055
0.04
0.015
0.0
-0.005
-0.02
0.04
0.02
0.085
0.07
0.035
0.055
0.025
-0.01
-0.03
0.035
0.02
-0.005
0.055
0.045
0.045
0.05
0.075
0.08
0.035
-0.01
0.045
0.03
0.015
0.015
0.03
0.03
0.07
0.07
0.025
0.045
0.035
0.03
0.005
0.025
0.035
0.025
0.04
0.04
0.025
0.07
0.055
0.01
0.0
0.015
0.01
0.015
0.045
0.02
0.085
0.11
0.08
0.05
0.05
0.055
0.015
0.01
0.01
0.015
0.02
0.07
0.055
0.05
0.08
0.085
0.07
0.025
0.025
0.01
0.095
0.125
0.085
0.045
0.06
0.065
0.08
0.105
0.095
0.085
0.105
0.135
0.185
0.1
0.11
0.095
0.105
0.17
0.14
0.165
0.16
0.195
0.165
0.145
0.125
0.19
0.2
0.16
0.11
0.13
0.14
0.11
0.115
0.1
0.09
0.06
0.04
0.05
0.08
0.09
0.105
0.07
0.075
0.04
0.045
-0.005
0.02
0.09
0.08
0.095
0.085
0.065
0.055
0.045
0.065
0.04
0.04
0.035
0.05
0.025
0.015
0.06
0.065
0.075
0.085
0.06
0.01
0.045
0.055
-0.01
0.01
0.0
-0.02
0.005
0.04
0.145
0.135
0.2
0.225
0.225
0.39
0.535
0.665
0.79
0.925
1.035
1.105
1.07
0.975
0.82
0.615
0.435
0.095
-0.055
-0.03
-0.08
-0.1
-0.105
-0.06
-0.055
-0.02
0.005
0.045
0.075
0.065
0.085
0.09
0.055
0.085
0.075
0.11
0.09
0.08
0.085
0.08
0.06
0.05
0.095
0.115
0.065
0.085
0.095
0.045
0.1
0.095
0.11
0.07
0.09
0.11
0.11
0.11
0.09
0.07
0.07
0.085
0.095
0.1
0.07
0.135
0.08
0.06
0.065
0.095
0.12
0.085
0.05
0.09
0.135
0.145
0.12
0.12
0.125
0.11
0.095
0.11
0.085
0.12
0.125
0.155
0.145
0.145
0.085
0.125
0.135
0.165
0.125
0.155
0.185
0.175
0.15
0.14
0.155
0.15
0.165
0.165
0.165
0.185
0.185
0.18
0.195
0.205
0.21
0.205
0.205
0.185
0.22
0.23
0.235
0.235
0.255
0.265
0.215
0.225
0.27
0.295
0.33
0.355
0.335
0.35
0.355
0.3
0.335
0.345
0.385
0.365
0.36
0.345
0.365
0.44
0.375
0.385
0.405
0.45
0.43
0.395
0.395
0.4
0.4
0.365
0.345
0.38
0.375
0.365
0.385
0.34
0.315
0.31
0.28
0.285
0.275
0.28
0.26
0.25
0.235
0.195
0.155
0.13
0.125
0.15
0.18
0.15
0.14
0.145
0.145
0.13
0.155
0.14
0.145
0.095
0.11
0.095
0.07
0.105
0.115
0.095
0.075
0.085
0.105
0.105
0.09
0.08
0.11
0.145
0.09
0.02
0.05
0.11
0.175
0.125
0.07
0.07
0.065
0.085
0.09
0.06
0.1
0.11
0.085
0.095
0.095
0.105
0.09
0.08
0.055
0.01
0.1
0.145
0.085
0.11
0.105
0.085
0.08
0.04
0.05
0.11
0.115
0.07
0.065
0.09
0.095
0.07
0.05
0.08
0.095
0.125
0.1
0.09
0.11
0.12
0.085
0.09
0.1
0.065
0.02
0.085
0.13
0.135
0.14
0.105
0.095
0.075
0.06
0.12
0.16
0.18
0.095
0.11
0.125
0.045
0.095
0.1
0.105
0.095
0.08
0.07
0.12
0.115
0.085
0.07
0.065
0.09
0.075
0.05
0.045
0.065
0.07
0.09
0.045
0.075
0.09
0.085
0.025
0.03
0.03
0.045
0.04
0.035
0.05
0.1
0.06
0.05
0.075
0.11
0.04
0.015
0.035
0.08
0.05
0.025
0.025
0.025
0.045
0.06
0.045
0.025
0.01
0.025
0.095
0.115
0.13
0.1
0.045
0.08
0.05
0.045
0.035
0.055
0.065
0.125
0.03
0.025
0.055
0.055
0.035
0.045
0.035
0.07
0.06
0.055
0.06
0.085
0.04
0.06
0.035
0.015
0.005
0.055
0.14
0.105
0.06
0.035
0.055
0.05
0.06
0.07
0.08
0.04
0.02
0.04
0.03
0.05
0.045
0.045
0.045
0.01
0.08
0.115
0.14
0.12
0.08
0.025
0.03
0.04
0.02
0.0
0.02
0.065
0.04
0.05
0.06
0.07
0.08
0.125
0.135
0.125
0.15
0.09
0.115
0.16
0.13
0.135
0.17
0.18
0.155
0.165
0.195
0.17
0.135
0.14
0.155
0.145
0.135
0.11
0.11
0.08
0.105
0.09
0.07
0.09
0.12
0.11
0.065
0.085
0.075
0.05
-0.005
-0.035
0.035
0.07
0.11
0.08
0.06
0.055
0.04
0.005
0.015
0.005
0.05
0.09
0.045
0.04
0.045
0.045
0.02
0.07
0.04
0.005
0.05
0.035
0.01
0.005
0.06
0.06
0.03
0.01
0.02
0.005
0.015
0.06
0.11
0.105
0.16
0.23
0.34
0.495
0.61
0.7
0.86
0.975
1.04
1.09
1.1
0.98
0.73
0.6
0.28
0.08
0.015
-0.04
-0.125
-0.14
-0.065
-0.035
-0.03
0.0
0.095
0.075
0.075
0.08
0.06
0.05
0.035
0.055
0.08
0.07
0.065
0.045
0.07
0.08
0.065
0.045
0.105
0.11
0.085
0.075
0.045
0.05
0.05
0.055
0.05
0.055
0.07
0.065
0.06
0.06
0.035
0.05
0.08
0.105
0.06
0.045
0.075
0.06
0.095
0.115
0.11
0.08
0.08
0.07
0.04
0.1
0.125
0.125
0.105
0.055
0.055
0.065
0.07
0.075
0.08
0.08
0.1
0.125
0.135
0.115
0.065
0.08
0.095
0.12
0.13
0.095
0.115
0.09
0.095
0.175
0.16
0.13
0.19
0.17
0.185
0.14
0.115
0.175
0.23
0.155
0.19
0.19
0.19
0.19
0.185
0.195
0.17
0.175
0.205
0.24
0.265
0.25
0.265
0.28
0.275
0.265
0.3
0.28
0.3
0.295
0.315
0.34
0.325
0.305
0.32
0.37
0.365
0.375
0.325
0.405
0.415
0.41
0.365
0.35
0.34
0.325
0.325
0.28
0.365
0.4
0.315
0.345
0.32
0.275
0.31
0.285
0.245
0.255
0.205
0.26
0.29
0.21
0.165
0.16
0.145
0.16
0.14
0.14
0.14
0.15
0.11
0.08
0.105
0.085
0.095
0.105
0.065
0.08
0.1
0.12
0.075
0.07
0.07
0.08
0.08
0.09
0.085
0.065
0.085
0.075
0.05
0.07
0.045
0.06
0.055
0.075
0.065
0.035
0.025
0.06
0.065
0.085
0.045
0.055
0.075
0.09
0.06
0.055
0.04
0.055
0.015
0.03
0.065
0.045
0.04
0.045
0.02
0.105
0.075
0.08
0.06
0.145
0.04
0.005
0.06
0.065
0.06
0.085
0.075
0.05
0.08
0.065
0.075
0.055
0.065
0.075
0.05
0.045
0.05
0.03
0.0
0.035
0.13
0.1
0.075
0.09
0.02
0.075
0.095
0.085
0.075
0.065
0.065
0.055
0.075
0.085
-0.01
0.01
0.04
0.05
0.115
0.12
0.1
0.1
0.085
0.08
0.06
0.065
0.055
0.01
0.025
0.07
0.105
0.035
0.04
0.06
0.075
0.07
0.055
0.065
0.065
0.085
0.06
0.04
0.025
0.1
0.07
0.055
0.045
0.05
0.075
0.08
0.07
0.045
0.05
0.035
0.06
0.02
0.05
0.01
0.025
0.055
0.065
0.05
0.0
-0.02
0.015
0.115
0.085
0.055
0.05
0.045
0.07
0.1
0.06
0.01
-0.025
0.07
0.09
0.035
0.05
0.04
0.045
0.06
0.02
0.03
0.05
0.045
0.065
0.035
0.02
0.04
0.055
0.035
0.04
0.02
0.05
0.085
-0.02
-0.03
-0.005
0.04
0.05
0.055
0.06
0.06
0.025
-0.01
0.01
0.01
0.045
0.035
0.015
0.045
0.045
0.05
0.075
0.06
0.04
0.03
-0.005
0.01
0.045
0.06
0.075
0.05
0.01
0.035
0.04
0.015
0.05
0.065
0.03
0.025
0.05
0.05
0.05
0.055
0.09
0.05
-0.025
0.045
0.06
0.095
0.13
0.115
0.13
0.14
0.13
0.115
0.085
0.085
0.1
0.125
0.115
0.125
0.13
0.145
0.14
0.14
0.09
0.115
0.11
0.115
0.08
0.095
0.13
0.065
0.02
-0.01
-0.005
0.065
0.085
0.05
0.0
0.02
0.03
0.025
0.015
0.05
0.01
0.02
0.04
0.05
0.04
0.005
-0.03
0.005
0.045
0.03
0.01
0.015
0.04
0.015
-0.03
-0.03
-0.005
0.025
0.01
0.035
0.025
-0.025
-0.015
0.005
-0.04
-0.015
-0.08
-0.1
-0.045
-0.045
0.03
0.16
0.19
0.275
0.4
0.52
0.635
0.755
0.905
1.055
1.135
1.24
1.195
1.015
0.775
0.55
0.245
0.04
-0.02
-0.095
-0.15
-0.1
-0.065
-0.005
0.01
-0.015
0.0
0.015
0.04
0.06
0.04
0.035
0.0
0.0
0.005
0.02
0.045
0.005
-0.03
-0.005
-0.005
-0.035
-0.01
0.01
0.015
0.04
-0.01
0.0
0.03
0.05
0.035
-0.015
0.0
0.0
-0.005
0.0
-0.005
-0.01
-0.005
-0.035
0.01
-0.02
0.02
0.04
0.035
0.035
0.02
0.005
0.01
-0.02
0.0
0.01
0.01
0.015
0.03
0.025
0.025
0.03
0.045
0.045
-0.005
0.05
0.045
0.04
0.01
0.03
0.02
0.02
0.035
0.02
0.04
0.025
0.065
0.04
0.035
0.07
0.09
0.105
0.07
0.02
0.025
0.05
0.08
0.08
0.06
0.075
0.145
0.115
0.11
0.16
0.16
0.095
0.1
0.135
0.16
0.165
0.15
0.16
0.17
0.16
0.135
0.185
0.195
0.195
0.235
0.255
0.255
0.245
0.215
0.25
0.285
0.285
0.29
0.31
0.32
0.3
0.28
0.3
0.28
0.25
0.285
0.3
0.27
0.305
0.34
0.305
0.28
0.22
0.2
0.245
0.275
0.235
0.155
0.165
0.14
0.14
0.125
0.095
0.115
0.07
0.1
0.125
0.09
0.08
0.07
0.065
0.02
0.04
0.065
0.045
0.02
0.02
0.03
0.015
0.005
0.03
-0.015
0.0
0.015
0.015
0.025
0.02
0.0
-0.03
-0.07
-0.005
-0.02
-0.01
0.03
0.02
-0.025
0.035
0.03
-0.03
-0.005
-0.015
-0.05
-0.005
0.0
-0.01
-0.01
0.005
0.005
-0.035
-0.045
-0.03
-0.02
-0.01
0.0
-0.03
-0.04
0.0
0.015
-0.02
-0.015
-0.035
-0.055
-0.08
-0.035
-0.015
0.015
0.025
0.015
-0.015
-0.015
-0.025
-0.03
-0.04
-0.035
-0.045
-0.04
-0.05
-0.045
-0.035
-0.005
0.015
-0.05
-0.06
-0.005
-0.025
-0.05
-0.02
0.0
-0.005
0.015
0.01
-0.02
-0.005
-0.01
-0.03
-0.045
-0.055
-0.03
0.0
-0.01
-0.05
-0.02
0.005
-0.015
-0.025
-0.015
0.015
-0.08
-0.105
-0.05
-0.01
0.005
0.005
0.0
-0.02
-0.04
-0.05
-0.05
-0.03
-0.045
-0.03
-0.04
-0.015
-0.02
-0.015
-0.015
0.005
-0.025
-0.12
-0.09
-0.015
-0.01
-0.035
0.0
0.0
-0.01
-0.005
-0.065
-0.085
-0.045
-0.045
-0.035
-0.005
-0.005
-0.04
-0.04
-0.035
-0.045
-0.045
-0.045
-0.06
-0.06
-0.025
-0.015
-0.085
-0.095
-0.085
-0.125
-0.055
-0.03
-0.08
-0.035
-0.065
-0.06
-0.03
-0.07
-0.09
-0.09
-0.03
-0.025
-0.025
-0.03
-0.045
-0.085
-0.035
-0.05
-0.06
-0.055
-0.02
-0.05
-0.105
-0.125
-0.09
-0.07
-0.04
-0.03
-0.07
-0.06
-0.06
-0.045
-0.03
-0.025
-0.015
-0.06
-0.08
-0.09
-0.06
-0.05
-0.05
-0.05
-0.07
-0.085
-0.09
-0.045
-0.045
-0.095
-0.085
-0.025
-0.105
-0.09
-0.07
-0.05
-0.045
-0.065
-0.09
-0.07
-0.055
-0.045
-0.06
-0.055
-0.05
-0.06
-0.04
-0.065
-0.09
-0.075
-0.09
-0.04
0.005
-0.06
-0.08
-0.045
-0.055
-0.065
-0.06
-0.055
-0.06
-0.035
-0.035
-0.07
-0.11
-0.095
-0.065
-0.08
-0.005
0.015
-0.015
-0.02
0.005
0.03
0.03
0.0
0.06
0.045
0.015
0.02
0.035
0.04
0.045
0.075
0.06
0.06
0.025
0.05
0.055
0.01
0.005
0.045
0.02
0.015
0.0
-0.025
-0.03
-0.025
-0.04
-0.06
-0.05
-0.055
-0.045
-0.04
-0.085
-0.08
-0.07
-0.125
-0.095
-0.06
-0.065
-0.07
-0.065
-0.06
-0.08
-0.1
-0.045
-0.03
-0.035
-0.04
-0.07
-0.065
-0.065
-0.095
-0.055
-0.085
-0.085
-0.05
-0.045
-0.09
-0.105
-0.155
-0.15
-0.115
-0.135
-0.145
-0.165
-0.12
-0.06
0.025
0.085
0.08
0.155
0.34
0.435
0.6
0.8
0.925
1.035
1.16
1.23
1.105
0.885
0.645
0.375
0.075
-0.07
-0.085
-0.18
-0.205
-0.215
-0.165
-0.12
-0.095
-0.1
-0.08
-0.1
-0.045
-0.06
-0.04
-0.065
-0.1
-0.06
-0.06
-0.065
-0.03
-0.07
-0.06
-0.105
-0.11
-0.14
-0.14
-0.035
-0.055
-0.06
-0.05
-0.035
-0.045
-0.03
-0.055
-0.05
-0.05
-0.05
-0.04
-0.05
-0.045
-0.04
-0.09
-0.09
-0.085
-0.13
-0.145
-0.095
-0.025
-0.025
-0.055
-0.05
-0.045
-0.055
-0.075
-0.03
0.0
-0.05
-0.055
-0.06
-0.04
-0.065
-0.1
-0.125
-0.115
-0.05
-0.02
0.025
0.005
0.0
-0.04
-0.065
-0.03
-0.035
-0.05
-0.05
-0.02
0.02
-0.005
-0.025
-0.02
-0.02
-0.005
0.005
-0.01
-0.02
-0.01
0.01
0.03
0.035
0.04
0.015
0.025
0.045
0.015
0.065
0.12
0.1
0.085
0.095
0.11
0.11
0.13
0.155
0.13
0.105
0.11
0.13
0.12
0.18
0.22
0.23
0.205
0.175
0.165
0.19
0.23
0.215
0.26
0.27
0.205
0.195
0.21
0.235
0.23
0.245
0.25
0.22
0.18
0.18
0.195
0.215
0.22
0.19
0.13
0.15
0.18
0.14
0.105
0.085
0.065
0.065
0.075
0.05
0.04
0.015
0.04
0.025
0.0
-0.015
0.015
-0.035
-0.055
0.01
-0.01
-0.005
-0.01
-0.04
-0.05
-0.08
-0.04
-0.02
-0.015
-0.065
-0.105
-0.12
-0.065
-0.045
-0.03
-0.06
-0.065
-0.055
-0.025
-0.015
-0.045
-0.08
-0.09
-0.09
-0.05
-0.06
-0.085
-0.125
-0.04
-0.04
-0.1
-0.025
-0.035
-0.04
-0.065
-0.11
-0.085
-0.085
-0.055
-0.04
-0.07
-0.07
-0.05
-0.045
-0.07
-0.125
-0.16
-0.115
-0.07
0.005
-0.045
-0.085
-0.08
-0.025
-0.02
-0.085
-0.115
-0.135
-0.125
-0.135
-0.12
-0.055
-0.005
-0.015
-0.045
-0.065
-0.095
-0.11
-0.095
-0.09
-0.07
-0.09
-0.095
-0.095
-0.07
-0.1
-0.055
-0.005
0.0
-0.025
-0.06
-0.07
-0.1
-0.07
-0.065
-0.045
-0.055
-0.09
-0.09
-0.075
-0.08
-0.05
-0.065
-0.1
-0.065
-0.035
-0.075
-0.055
-0.06
-0.065
-0.05
-0.075
-0.09
-0.105
-0.095
-0.065
-0.085
-0.08
-0.095
-0.11
-0.06
-0.015
-0.01
-0.08
-0.135
-0.065
-0.04
-0.04
-0.035
-0.05
-0.06
-0.09
-0.09
-0.065
-0.07
-0.08
-0.105
-0.11
-0.075
-0.115
-0.125
-0.125
-0.105
-0.035
-0.02
-0.065
-0.09
-0.07
-0.065
-0.075
-0.055
-0.085
-0.125
-0.12
-0.075
-0.095
-0.075
-0.075
-0.065
-0.125
-0.06
-0.07
-0.095
-0.12
-0.045
-0.07
-0.115
-0.055
-0.105
-0.09
-0.04
-0.055
-0.095
-0.09
-0.045
-0.045
-0.06
-0.035
-0.12
-0.08
-0.085
-0.095
-0.13
-0.11
-0.16
-0.06
-0.06
-0.05
-0.065
-0.065
-0.075
-0.1
-0.12
-0.13
-0.08
-0.06
-0.05
-0.05
-0.075
-0.1
-0.08
-0.06
-0.065
-0.085
-0.1
-0.105
-0.11
-0.06
-0.065
-0.05
-0.02
-0.07
-0.09
-0.065
-0.07
-0.095
-0.13
-0.06
-0.07
-0.075
-0.065
-0.085
-0.11
-0.09
-0.05
-0.07
-0.035
-0.105
-0.11
-0.115
-0.085
-0.1
-0.115
-0.04
-0.065
-0.105
-0.06
-0.055
-0.04
-0.055
-0.07
-0.085
-0.05
-0.06
-0.075
-0.13
-0.08
-0.045
-0.035
0.0
-0.02
-0.015
-0.015
-0.01
0.02
0.01
0.01
0.01
0.01
-0.005
-0.02
0.005
0.05
0.05
0.07
0.025
0.025
0.01
0.03
0.07
0.08
0.045
0.025
0.01
-0.04
-0.045
-0.02
-0.03
-0.045
-0.08
-0.075
-0.085
-0.09
-0.035
-0.045
-0.095
-0.08
-0.055
-0.055
-0.015
-0.085
-0.095
-0.1
-0.085
-0.09
-0.09
-0.09
-0.105
-0.1
-0.1
-0.075
-0.075
-0.055
-0.065
-0.095
-0.12
-0.1
-0.055
-0.055
-0.09
-0.125
-0.12
-0.11
-0.165
-0.175
-0.2
-0.155
-0.13
-0.085
0.015
0.075
0.15
0.31
0.43
0.54
0.71
0.9
0.97
1.105
1.24
1.165
0.96
0.7
0.365
0.055
-0.075
-0.125
-0.19
-0.23
-0.175
-0.155
-0.14
-0.095
-0.045
-0.03
-0.05
-0.095
-0.105
-0.11
-0.07
-0.08
-0.065
-0.065
-0.08
-0.08
-0.095
-0.115
-0.12
-0.09
-0.075
-0.005
-0.055
-0.115
-0.105
-0.13
-0.125
-0.095
-0.06
-0.065
-0.055
-0.025
-0.04
-0.05
-0.05
-0.08
-0.07
-0.035
-0.075
-0.035
-0.04
-0.045
-0.08
-0.085
-0.055
-0.045
-0.07
-0.08
-0.075
-0.03
-0.045
-0.04
-0.055
-0.035
-0.035
-0.045
-0.08
-0.055
-0.06
-0.025
-0.03
-0.025
-0.075
-0.02
0.04
-0.02
-0.06
-0.045
-0.075
-0.05
-0.02
0.015
-0.01
0.0
0.01
-0.005
-0.01
0.015
-0.005
0.0
0.005
0.01
0.04
0.035
0.015
0.005
0.045
0.015
0.035
0.085
0.11
0.085
0.1
0.08
0.09
0.095
0.14
0.085
0.09
0.175
0.205
0.165
0.195
0.2
0.17
0.175
0.185
0.225
0.16
0.235
0.26
0.23
0.235
0.19
0.205
0.21
0.265
0.285
0.275
0.28
0.275
0.245
0.22
0.23
0.205
0.21
0.205
0.21
0.185
0.145
0.14
0.14
0.17
0.15
0.1
0.045
0.03
0.115
0.095
0.095
0.08
0.08
0.035
0.015
0.0
-0.04
0.0
-0.01
0.05
0.015
-0.005
-0.025
-0.015
-0.02
-0.025
-0.035
-0.05
-0.01
-0.045
-0.05
-0.045
-0.07
-0.08
-0.04
-0.075
-0.045
-0.035
-0.08
-0.075
-0.015
-0.03
-0.035
-0.06
-0.045
-0.04
-0.025
-0.035
-0.05
-0.08
-0.125
-0.105
0.005
-0.015
-0.04
-0.065
-0.075
-0.06
-0.06
-0.075
-0.085
-0.08
-0.025
-0.06
-0.075
-0.03
-0.025
-0.075
-0.09
-0.07
-0.035
-0.02
-0.025
-0.045
-0.055
-0.065
-0.06
-0.045
-0.08
-0.1
-0.06
-0.05
-0.055
-0.05
-0.03
-0.035
-0.07
-0.01
0.035
-0.04
-0.01
-0.025
-0.045
-0.05
-0.075
-0.055
-0.025
-0.03
-0.045
-0.03
-0.02
-0.05
-0.09
-0.05
-0.04
-0.075
-0.08
-0.04
-0.035
-0.04
-0.055
0.0
-0.005
-0.025
-0.065
-0.065
-0.045
0.0
-0.07
-0.035
-0.01
-0.015
-0.03
-0.05
-0.06
-0.105
0.0
-0.015
-0.03
-0.02
-0.01
-0.025
-0.015
-0.02
-0.05
-0.02
-0.01
-0.05
-0.06
-0.025
-0.045
-0.045
-0.065
-0.04
-0.03
-0.015
-0.075
-0.06
-0.055
-0.03
-0.055
-0.02
-0.055
-0.04
-0.03
-0.015
-0.025
-0.025
-0.02
-0.03
-0.07
-0.06
-0.075
0.015
-0.045
-0.075
-0.005
-0.005
-0.015
-0.05
-0.045
-0.04
-0.02
-0.015
-0.04
-0.04
-0.03
-0.025
-0.04
-0.04
-0.055
-0.065
-0.04
-0.065
-0.045
-0.045
-0.05
-0.03
-0.045
-0.025
-0.05
-0.04
-0.045
-0.045
0.0
-0.04
-0.04
-0.025
-0.005
0.035
0.01
-0.05
-0.04
-0.03
-0.09
-0.05
-0.04
-0.06
-0.03
-0.01
0.01
-0.035
-0.05
-0.055
-0.04
-0.02
0.01
-0.03
-0.025
-0.05
-0.055
-0.055
-0.03
-0.015
-0.065
-0.02
-0.015
-0.03
-0.01
-0.01
0.005
-0.01
-0.005
-0.025
-0.02
-0.04
-0.005
-0.005
-0.01
0.025
-0.005
-0.05
-0.01
0.025
0.02
0.03
0.03
0.06
0.045
0.08
0.09
0.04
0.03
0.035
0.055
0.085
0.08
0.1
0.13
0.135
0.16
0.07
0.055
0.04
0.05
0.04
0.055
0.015
0.04
0.0
0.04
0.03
0.025
-0.015
0.02
0.0
-0.02
-0.03
-0.045
-0.035
-0.035
0.0
-0.03
-0.015
0.005
0.02
0.005
-0.06
-0.02
0.02
0.005
-0.035
-0.03
-0.06
-0.045
-0.05
0.0
-0.015
-0.025
0.02
0.0
-0.005
-0.015
-0.04
-0.055
-0.035
-0.035
-0.04
-0.025
-0.06
-0.055
-0.04
-0.02
0.02
0.05
0.095
0.205
0.335
0.48
0.505
0.65
0.795
0.93
1.02
1.055
0.975
0.785
0.58
0.36
0.015
-0.09
-0.13
-0.165
-0.185
-0.19
-0.185
-0.11
-0.07
-0.015
0.0
-0.02
-0.01
0.025
0.025
-0.02
-0.03
-0.025
-0.005
-0.025
-0.025
-0.01
-0.02
-0.025
-0.02
-0.03
-0.02
-0.015
-0.03
0.04
0.005
-0.02
-0.025
-0.005
-0.08
-0.055
0.025
0.0
0.035
0.075
0.06
0.025
0.015
0.01
-0.05
-0.02
-0.005
0.005
0.1
0.065
0.01
-0.005
0.02
0.01
0.015
0.015
-0.015
-0.005
0.01
0.05
0.05
0.03
0.03
0.045
0.035
0.06
0.045
0.035
0.065
0.05
0.045
0.06
0.035
0.045
0.03
0.04
0.085
0.065
0.065
0.065
0.07
0.04
0.035
0.11
0.09
0.12
0.135
0.11
0.105
0.1
0.13
0.165
0.19
0.155
0.135
0.15
0.14
0.15
0.165
0.19
0.19
0.16
0.17
0.225
0.275
0.24
0.225
0.205
0.275
0.295
0.25
0.275
0.275
0.285
0.28
0.295
0.33
0.305
0.275
0.29
0.35
0.36
0.365
0.345
0.335
0.34
0.335
0.31
0.27
0.29
0.275
0.26
0.25
0.22
0.215
0.205
0.235
0.26
0.21
0.175
0.21
0.16
0.11
0.1
0.11
0.13
0.145
0.115
0.095
0.06
0.05
0.05
0.065
0.04
0.0
0.025
0.0
0.045
0.05
0.05
0.0
-0.005
0.025
0.045
0.055
0.03
0.0
0.03
0.05
0.015
0.005
-0.005
-0.025
-0.015
0.015
0.035
0.025
0.025
0.025
0.01
0.01
0.005
0.025
0.005
-0.005
-0.005
-0.03
-0.02
0.01
0.005
0.045
-0.015
-0.035
0.005
0.03
0.035
0.015
0.0
0.04
0.03
-0.015
-0.015
0.015
0.015
0.05
0.02
0.015
-0.005
0.005
0.005
0.01
0.015
0.025
0.04
0.05
0.045
0.025
0.0
0.065
0.06
0.05
0.06
-0.02
-0.025
0.0
0.0
0.045
0.07
0.06
-0.025
-0.045
-0.01
0.005
0.06
0.025
0.035
0.005
-0.025
0.02
0.035
0.045
0.015
0.04
0.045
-0.005
0.03
0.01
0.055
0.065
0.045
0.02
0.025
0.01
-0.01
0.005
0.04
-0.005
0.035
0.035
0.01
0.005
-0.01
0.0
0.035
0.005
-0.01
-0.005
0.015
0.02
-0.005
-0.015
0.005
-0.02
-0.01
0.03
0.04
0.03
0.06
0.025
-0.02
-0.04
-0.015
-0.025
-0.03
0.02
0.0
0.015
0.03
0.025
-0.015
-0.025
-0.01
0.01
0.005
-0.015
0.0
0.04
0.04
-0.005
-0.025
0.0
0.005
-0.01
0.035
0.02
-0.035
0.01
0.02
0.025
0.04
0.03
0.035
0.015
-0.005
0.045
0.03
0.005
0.01
0.02
-0.025
-0.005
0.0
0.015
0.025
-0.025
-0.06
-0.025
0.0
0.02
0.01
-0.01
-0.02
0.0
-0.005
-0.015
-0.015
0.01
0.045
0.01
0.015
0.05
0.04
-0.03
-0.02
0.0
-0.01
0.015
0.04
0.025
0.005
0.01
0.02
-0.005
-0.01
-0.02
-0.025
-0.015
0.035
0.03
0.01
0.015
0.025
0.04
0.025
0.01
0.01
0.0
0.005
0.015
0.04
0.035
-0.025
-0.015
-0.015
0.005
0.07
0.08
0.095
0.095
-0.005
-0.06
0.04
0.085
0.08
0.11
0.085
0.075
0.085
0.105
0.08
0.07
0.105
0.13
0.165
0.115
0.09
0.1
0.09
0.1
0.06
0.065
0.1
0.085
0.05
0.025
0.045
0.015
-0.005
0.015
0.055
0.065
0.03
0.0
-0.05
-0.06
0.0
-0.01
0.01
0.025
0.01
0.015
-0.01
0.005
0.01
0.015
-0.02
-0.075
-0.05
-0.02
0.005
0.03
-0.02
0.035
0.015
-0.01
0.015
0.0
0.035
-0.035
-0.05
-0.02
-0.095
-0.085
-0.015
-0.04
-0.03
-0.01
0.0
0.065
0.115
0.18
0.32
0.485
0.61
0.69
0.78
0.9
0.965
1.03
0.955
0.84
0.64
0.44
0.11
-0.065
-0.12
-0.155
-0.155
-0.205
-0.175
-0.11
-0.06
-0.055
-0.03
-0.02
0.03
0.02
0.005
-0.04
-0.07
0.01
0.03
0.01
0.0
-0.02
-0.025
0.015
0.005
-0.075
-0.02
0.03
-0.035
-0.015
0.01
0.005
0.01
0.01
0.0
-0.025
-0.03
0.015
-0.005
-0.03
0.0
-0.02
0.005
0.0
-0.015
-0.02
-0.025
0.0
-0.035
0.02
0.035
0.035
0.015
0.005
0.005
-0.02
-0.01
0.01
0.015
0.005
0.02
0.01
-0.035
0.035
0.06
0.035
0.06
0.035
0.015
0.02
0.015
0.02
0.02
0.045
0.015
0.05
0.09
0.055
0.03
0.04
0.045
0.015
0.035
0.065
0.035
0.05
0.085
0.065
0.055
0.07
0.095
0.08
0.085
0.115
0.12
0.125
0.105
0.14
0.14
0.135
0.145
0.125
0.145
0.305
0.195
0.14
0.215
0.22
0.195
0.245
0.265
0.245
0.26
0.26
0.275
0.295
0.3
0.26
0.26
0.275
0.315
0.3
0.245
0.235
0.23
0.24
0.255
0.285
0.295
0.32
0.23
0.24
0.2
0.18
0.23
0.2
0.2
0.15
0.125
0.165
0.13
0.09
0.09
0.075
0.055
0.065
0.045
0.035
0.0
0.06
0.045
0.05
0.03
0.03
-0.01
-0.015
-0.025
-0.04
-0.045
-0.02
0.005
-0.01
-0.05
-0.035
-0.065
-0.03
-0.005
-0.005
-0.035
-0.06
-0.025
-0.03
-0.04
-0.01
-0.03
-0.025
-0.025
-0.03
-0.08
-0.04
-0.07
-0.075
-0.055
-0.065
-0.075
-0.105
-0.085
-0.065
-0.08
-0.02
-0.065
-0.08
-0.03
-0.035
-0.015
-0.02
-0.05
-0.08
-0.085
-0.085
-0.08
-0.095
-0.015
-0.005
-0.015
-0.015
-0.035
-0.06
-0.09
-0.04
-0.04
-0.03
-0.03
-0.015
-0.025
-0.045
-0.035
-0.065
-0.055
-0.04
-0.03
-0.085
-0.07
-0.02
0.01
0.0
-0.04
-0.065
-0.01
-0.01
0.015
-0.01
-0.02
-0.035
-0.04
-0.05
-0.03
-0.085
-0.035
0.005
0.015
-0.065
-0.065
-0.035
-0.025
-0.03
-0.04
-0.045
-0.045
-0.035
-0.055
-0.02
-0.025
-0.025
-0.055
-0.07
-0.105
-0.075
-0.03
0.025
-0.02
-0.04
-0.015
-0.075
-0.105
-0.115
-0.08
-0.03
-0.02
0.02
-0.015
-0.035
-0.03
-0.035
-0.055
-0.08
-0.085
-0.045
-0.01
-0.05
-0.025
-0.045
-0.03
-0.04
-0.03
-0.03
-0.04
-0.055
-0.045
-0.065
-0.08
-0.035
-0.015
-0.035
-0.045
-0.085
-0.055
-0.045
-0.07
-0.035
-0.055
-0.07
-0.06
-0.035
-0.05
-0.035
-0.045
-0.065
-0.045
-0.01
-0.06
-0.09
-0.055
-0.035
-0.005
-0.085
-0.045
-0.015
-0.045
-0.04
-0.04
-0.025
-0.05
-0.07
-0.025
-0.035
-0.085
-0.06
-0.06
-0.045
-0.01
-0.04
-0.08
-0.06
-0.08
-0.065
-0.075
-0.075
-0.065
-0.035
-0.04
-0.085
-0.08
-0.095
-0.075
0.0
-0.035
-0.02
0.015
-0.025
-0.035
-0.025
-0.07
-0.075
-0.055
-0.065
-0.01
-0.005
-0.02
-0.03
-0.045
-0.035
-0.055
-0.055
-0.025
-0.015
-0.015
-0.03
-0.02
0.01
-0.04
0.0
0.02
0.045
0.035
0.035
0.02
0.0
0.02
0.015
0.025
0.025
0.065
0.1
0.09
0.055
0.05
0.055
0.06
0.075
0.045
0.02
0.0
-0.04
-0.04
-0.035
-0.01
0.02
0.005
0.005
-0.05
-0.07
-0.04
0.0
0.01
-0.06
-0.1
-0.08
-0.04
-0.05
-0.07
-0.09
-0.085
-0.06
-0.06
-0.085
-0.11
-0.09
-0.045
-0.025
-0.04
-0.025
-0.04
-0.07
-0.065
-0.07
-0.065
-0.045
-0.07
-0.07
-0.065
-0.085
-0.105
-0.16
-0.14
-0.135
-0.105
-0.065
-0.005
0.05
0.095
0.2
0.355
0.51
0.55
0.67
0.805
0.98
1.11
1.19
1.12
0.93
0.63
0.425
0.12
-0.075
-0.075
-0.135
-0.165
-0.185
-0.17
-0.085
-0.03
-0.095
-0.105
-0.075
-0.07
-0.09
-0.09
-0.1
-0.07
-0.06
-0.06
-0.025
-0.03
-0.02
-0.055
-0.06
-0.07
-0.04
-0.055
-0.09
-0.085
-0.06
-0.08
-0.115
-0.075
-0.08
-0.095
-0.065
-0.04
-0.04
-0.06
-0.03
-0.07
-0.09
-0.06
-0.05
-0.055
-0.055
-0.025
-0.02
-0.085
-0.11
-0.11
-0.06
-0.06
-0.04
-0.01
-0.02
-0.015
-0.05
-0.045
-0.1
-0.09
-0.055
-0.07
-0.045
-0.03
-0.06
-0.06
-0.085
-0.095
-0.07
-0.055
-0.015
-0.045
-0.055
-0.03
-0.02
0.0
-0.02
-0.035
-0.02
-0.04
0.02
-0.005
-0.015
-0.035
0.01
0.01
0.02
0.01
0.005
-0.035
0.015
0.045
0.03
0.035
0.05
0.04
-0.005
0.055
0.07
0.1
0.115
0.125
0.115
0.11
0.11
0.145
0.145
0.155
0.135
0.145
0.125
0.195
0.22
0.155
0.19
0.205
0.18
0.18
0.235
0.225
0.21
0.22
0.215
0.215
0.195
0.175
0.22
0.22
0.235
0.18
0.145
0.185
0.19
0.155
0.145
0.095
0.11
0.1
0.11
0.075
0.05
0.045
0.03
-0.01
0.02
0.025
0.0
-0.045
-0.01
-0.015
-0.03
-0.065
-0.09
-0.045
-0.08
-0.07
-0.065
-0.035
-0.055
-0.04
-0.08
-0.045
-0.065
-0.09
-0.09
0.0
-0.12
-0.15
-0.115
-0.06
-0.105
-0.035
-0.04
-0.04
-0.04
-0.06
-0.145
-0.155
-0.105
-0.07
-0.08
-0.105
-0.12
-0.085
-0.09
-0.095
-0.08
-0.07
-0.055
-0.105
-0.1
-0.125
-0.08
-0.07
-0.065
-0.09
-0.13
-0.145
-0.16
-0.135
-0.11
-0.085
-0.12
-0.09
-0.08
-0.055
-0.085
-0.08
-0.095
-0.12
-0.14
-0.115
-0.09
-0.09
-0.095
-0.09
-0.09
-0.09
-0.105
-0.135
-0.13
-0.12
-0.11
-0.13
-0.05
-0.07
-0.115
-0.08
-0.12
-0.095
-0.065
-0.095
-0.105
-0.09
-0.065
-0.08
-0.1
-0.09
-0.095
-0.085
-0.07
-0.105
-0.12
-0.13
-0.135
-0.14
-0.095
-0.105
-0.045
-0.06
-0.07
-0.07
-0.075
-0.08
-0.075
-0.08
-0.07
-0.085
-0.105
-0.13
-0.115
-0.1
-0.12
-0.105
-0.085
-0.095
-0.135
-0.12
-0.085
-0.095
-0.11
-0.085
-0.105
-0.12
-0.1
-0.105
-0.14
-0.05
-0.175
-0.165
-0.12
-0.1
-0.105
-0.115
-0.055
-0.06
-0.115
-0.115
-0.13
-0.13
-0.095
-0.06
-0.075
-0.11
-0.1
-0.14
-0.17
-0.17
-0.1
-0.07
-0.075
-0.07
-0.095
-0.105
-0.115
-0.14
-0.105
-0.115
-0.065
-0.1
-0.095
-0.075
-0.125
-0.145
-0.1
-0.15
-0.135
-0.125
-0.115
-0.14
-0.135
-0.095
-0.095
-0.1
-0.1
-0.05
-0.105
-0.14
-0.13
-0.115
-0.115
-0.105
-0.11
-0.1
-0.105
-0.125
-0.12
-0.105
-0.14
-0.15
-0.16
-0.135
-0.135
-0.06
-0.065
-0.1
-0.115
-0.175
-0.185
-0.125
-0.1
-0.055
-0.07
-0.05
-0.075
-0.105
-0.135
-0.115
-0.1
-0.12
-0.14
-0.115
-0.11
-0.125
-0.12
-0.145
-0.11
-0.12
-0.065
-0.085
-0.09
-0.085
-0.095
-0.09
-0.1
-0.1
-0.09
-0.08
-0.155
-0.13
-0.08
-0.1
-0.085
-0.02
-0.045
-0.08
-0.03
-0.045
-0.015
0.01
-0.03
-0.06
-0.05
0.03
0.075
0.05
-0.01
-0.01
-0.02
-0.02
-0.025
-0.045
-0.05
-0.01
-0.05
-0.105
-0.115
-0.065
-0.075
-0.1
-0.095
-0.08
-0.085
-0.125
-0.145
-0.12
-0.11
-0.125
-0.115
-0.13
-0.15
-0.14
-0.105
-0.115
-0.13
-0.185
-0.165
-0.085
-0.17
-0.135
-0.09
-0.1
-0.06
-0.135
-0.19
-0.18
-0.145
-0.15
-0.16
-0.135
-0.13
-0.13
-0.115
-0.175
-0.22
-0.22
-0.21
-0.17
-0.135
-0.095
-0.05
0.025
0.145
0.29
0.405
0.51
0.675
0.825
0.905
1.045
1.15
1.065
0.86
0.59
0.265
-0.035
-0.11
-0.155
-0.205
-0.235
-0.24
-0.18
-0.135
-0.12
-0.125
-0.125
-0.125
-0.145
-0.14
-0.09
-0.14
-0.16
-0.135
-0.14
-0.125
-0.09
-0.1
-0.125
-0.135
-0.1
-0.13
-0.155
-0.125
-0.125
-0.165
-0.17
-0.155
-0.17
-0.21
-0.125
-0.16
-0.1
-0.1
-0.125
-0.125
-0.09
-0.055
-0.115
-0.125
-0.15
-0.125
-0.135
-0.15
-0.145
-0.12
-0.075
-0.12
-0.135
-0.105
-0.105
-0.1
-0.08
-0.105
-0.11
-0.11
-0.085
-0.13
-0.135
-0.115
-0.1
-0.09
-0.07
-0.08
-0.115
-0.125
-0.06
-0.05
-0.06
-0.14
-0.095
-0.095
-0.06
-0.095
-0.11
-0.09
-0.065
-0.05
-0.065
-0.04
-0.065
-0.05
-0.02
-0.045
-0.045
-0.035
-0.02
-0.045
-0.075
-0.05
-0.01
-0.01
0.01
0.0
0.015
0.055
0.07
0.03
0.05
0.07
0.1
0.09
0.09
0.045
0.055
0.115
0.145
0.125
0.165
0.165
0.14
0.14
0.14
0.155
0.16
0.175
0.185
0.19
0.17
0.155
0.165
0.145
0.15
0.165
0.155
0.16
0.21
0.175
0.165
0.15
0.105
0.03
0.03
0.075
0.035
0.015
-0.005
0.0
-0.005
0.015
-0.04
-0.065
-0.035
-0.015
-0.02
-0.04
-0.05
-0.125
-0.13
-0.07
-0.045
-0.075
-0.08
-0.095
-0.145
-0.125
-0.135
-0.13
-0.095
-0.08
-0.09
-0.125
-0.095
-0.11
-0.145
-0.175
-0.15
-0.125
-0.12
-0.11
-0.145
-0.105
-0.13
-0.155
-0.18
-0.155
-0.125
-0.145
-0.115
-0.095
-0.105
-0.14
-0.12
-0.155
-0.16
-0.135
-0.115
-0.11
-0.175
-0.14
-0.09
-0.12
-0.14
-0.165
-0.155
-0.175
-0.135
-0.15
-0.16
-0.16
-0.14
-0.15
-0.125
-0.14
-0.16
-0.115
-0.07
-0.12
-0.17
-0.175
-0.165
-0.22
-0.17
-0.14
-0.12
-0.095
-0.11
-0.13
-0.145
-0.14
-0.155
-0.135
-0.135
-0.11
-0.115
-0.16
-0.15
-0.125
-0.125
-0.11
-0.125
-0.16
-0.13
-0.095
-0.145
-0.155
-0.155
-0.155
-0.105
-0.1
-0.14
-0.17
-0.135
-0.135
-0.14
-0.14
-0.18
-0.12
-0.11
-0.16
-0.185
-0.15
-0.05
-0.085
-0.125
-0.13
-0.18
-0.135
-0.14
-0.14
-0.125
-0.125
-0.085
-0.11
-0.155
-0.135
-0.155
-0.15
-0.145
-0.145
-0.16
-0.16
-0.16
-0.145
-0.15
-0.13
-0.145
-0.17
-0.155
-0.13
-0.155
-0.155
-0.15
-0.15
-0.125
-0.1
-0.12
-0.105
-0.12
-0.185
-0.18
-0.175
-0.145
-0.1
-0.235
-0.205
-0.135
-0.085
-0.075
-0.105
-0.14
-0.115
-0.13
-0.14
-0.145
-0.12
-0.085
-0.12
-0.135
-0.115
-0.135
-0.145
-0.155
-0.14
-0.125
-0.115
-0.13
-0.14
-0.105
-0.115
-0.15
-0.14
-0.115
-0.15
-0.14
-0.075
-0.105
-0.155
-0.16
-0.12
-0.075
-0.055
-0.11
-0.125
-0.145
-0.075
-0.12
-0.15
-0.12
-0.07
-0.16
-0.15
-0.17
-0.195
-0.12
-0.1
-0.115
-0.115
-0.05
-0.14
-0.17
-0.125
-0.145
-0.115
-0.1
-0.12
-0.13
-0.115
-0.09
-0.125
-0.12
-0.12
-0.075
-0.095
-0.115
-0.085
-0.05
-0.04
-0.015
-0.07
-0.08
-0.06
-0.07
-0.02
-0.03
-0.075
-0.07
-0.06
-0.045
-0.035
0.035
0.035
0.03
0.005
-0.01
-0.07
-0.055
-0.005
0.02
-0.005
-0.015
-0.07
-0.115
-0.17
-0.135
-0.11
-0.11
-0.07
-0.08
-0.13
-0.07
-0.055
-0.07
-0.09
-0.135
-0.14
-0.14
-0.14
-0.145
-0.145
-0.1
-0.12
-0.15
-0.165
-0.145
-0.15
-0.14
-0.125
-0.15
-0.135
-0.125
-0.125
-0.15
-0.18
-0.22
-0.24
-0.13
-0.12
-0.135
-0.185
-0.225
-0.24
-0.205
-0.155
-0.145
-0.1
-0.025
0.035
0.09
0.205
0.335
0.455
0.615
0.815
0.895
0.98
1.105
1.105
0.89
0.62
0.415
0.095
-0.1
-0.155
-0.21
-0.25
-0.275
-0.21
-0.155
-0.125
-0.18
-0.13
-0.135
-0.145
-0.09
-0.115
-0.13
-0.155
-0.155
-0.115
-0.105
-0.115
-0.105
-0.135
-0.15
-0.155
-0.13
-0.125
-0.14
-0.14
-0.125
-0.105
-0.135
-0.11
-0.095
-0.105
-0.13
-0.08
-0.095
-0.105
-0.095
-0.125
-0.125
-0.135
-0.155
-0.165
-0.12
-0.1
-0.07
-0.055
-0.065
-0.06
-0.115
-0.105
-0.11
-0.12
-0.14
-0.11
-0.1
-0.08
-0.075
-0.105
-0.16
-0.06
-0.01
-0.08
-0.085
-0.05
-0.08
-0.075
-0.06
-0.08
-0.08
-0.055
-0.075
-0.1
-0.095
-0.1
-0.05
-0.01
0.01
-0.02
-0.02
-0.02
-0.015
-0.025
-0.025
0.005
-0.02
-0.025
-0.02
0.005
-0.005
0.025
0.02
0.025
0.05
0.045
0.04
0.06
0.105
0.06
0.045
0.08
0.105
0.12
0.14
0.16
0.145
0.14
0.13
0.165
0.19
0.215
0.18
0.17
0.14
0.155
0.14
0.185
0.21
0.205
0.23
0.2
0.19
0.21
0.24
0.245
0.22
0.2
0.215
0.215
0.185
0.125
0.135
0.14
0.13
0.135
0.105
0.085
0.09
0.06
0.035
0.05
0.025
-0.005
-0.025
-0.045
-0.02
0.015
0.01
-0.015
-0.015
-0.025
-0.02
-0.05
-0.06
-0.09
-0.07
-0.04
-0.06
-0.09
-0.08
-0.095
-0.085
-0.14
-0.045
-0.05
-0.045
-0.045
-0.04
-0.065
-0.115
-0.14
-0.075
-0.06
-0.065
-0.065
-0.09
-0.095
-0.08
-0.1
-0.1
-0.1
-0.12
-0.13
-0.075
-0.075
-0.07
-0.06
-0.06
-0.075
-0.09
-0.11
-0.085
-0.09
-0.08
-0.1
-0.1
-0.105
-0.115
-0.085
-0.105
-0.09
-0.07
-0.085
-0.095
-0.13
-0.11
-0.055
-0.075
-0.09
-0.085
-0.1
-0.14
-0.105
-0.115
-0.105
-0.075
-0.07
-0.015
-0.02
-0.06
-0.1
-0.055
-0.065
-0.055
-0.08
-0.095
-0.095
-0.095
-0.09
-0.085
-0.06
-0.105
-0.1
-0.08
-0.07
-0.065
-0.065
-0.11
-0.09
-0.06
-0.065
-0.1
-0.105
-0.105
-0.09
-0.06
0.015
-0.03
-0.07
-0.06
-0.065
-0.07
-0.065
-0.07
-0.1
-0.08
-0.135
-0.075
-0.065
-0.055
-0.06
-0.065
-0.09
-0.11
-0.135
-0.13
-0.12
-0.07
-0.04
-0.095
-0.075
-0.105
-0.07
-0.09
-0.105
-0.07
-0.06
-0.075
-0.105
-0.11
-0.1
-0.07
-0.075
-0.06
-0.07
-0.08
-0.08
-0.115
-0.1
-0.07
-0.11
-0.09
-0.125
-0.09
-0.09
-0.005
-0.04
-0.065
-0.075
-0.095
-0.08
-0.115
-0.08
-0.055
-0.06
-0.07
-0.085
-0.1
-0.1
-0.095
-0.125
-0.1
-0.06
-0.085
-0.065
-0.085
-0.085
-0.095
-0.11
-0.08
-0.125
-0.12
-0.05
-0.03
-0.055
-0.175
-0.075
-0.06
-0.08
-0.115
-0.105
-0.105
-0.105
-0.045
-0.045
-0.03
-0.025
-0.1
-0.13
-0.035
-0.09
-0.075
-0.065
-0.08
-0.09
-0.055
-0.04
-0.025
-0.05
-0.05
-0.115
-0.08
-0.02
-0.03
-0.08
-0.05
-0.03
-0.02
-0.01
0.02
-0.035
-0.035
0.01
0.07
0.015
0.005
0.06
0.06
0.065
0.06
0.035
0.025
0.05
0.01
0.015
0.0
-0.025
-0.03
-0.075
-0.015
-0.02
-0.015
-0.02
-0.11
-0.08
-0.06
-0.07
-0.075
-0.055
-0.045
-0.055
-0.08
-0.095
-0.125
-0.11
-0.095
-0.065
-0.06
-0.055
-0.08
-0.09
-0.145
-0.12
-0.085
-0.065
-0.07
-0.08
-0.095
-0.065
-0.075
-0.095
-0.095
-0.08
-0.045
-0.085
-0.115
-0.135
-0.145
-0.125
-0.115
-0.125
-0.07
-0.05
0.02
0.115
0.25
0.345
0.47
0.6
0.74
0.84
0.91
1.01
1.0
0.89
0.65
0.43
0.1
-0.13
-0.17
-0.21
-0.205
-0.195
-0.165
-0.2
-0.135
-0.1
-0.08
-0.06
-0.07
-0.09
-0.095
-0.07
-0.08
-0.085
-0.075
-0.065
-0.055
-0.04
-0.065
-0.09
-0.09
-0.09
-0.085
-0.02
-0.04
-0.06
-0.05
-0.045
-0.075
-0.085
-0.055
-0.09
-0.1
-0.045
-0.03
-0.025
-0.02
-0.015
-0.03
-0.005
-0.015
-0.015
-0.02
-0.005
0.0
-0.025
-0.025
-0.04
-0.07
-0.07
-0.055
-0.055
-0.025
-0.005
-0.015
-0.025
-0.02
-0.01
-0.01
-0.02
-0.015
0.015
0.03
0.005
-0.02
-0.015
-0.015
0.005
-0.01
-0.05
-0.03
-0.05
0.03
0.085
0.065
0.02
0.025
0.03
0.0
0.01
0.05
0.035
0.05
0.06
0.07
0.085
0.085
0.075
0.04
0.075
0.095
0.09
0.12
0.155
0.145
0.095
0.14
0.16
0.14
0.155
0.16
0.155
0.18
0.235
0.27
0.205
0.215
0.25
0.23
0.255
0.265
0.245
0.28
0.32
0.285
0.255
0.27
0.295
0.315
0.295
0.305
0.285
0.27
0.355
0.205
0.245
0.295
0.265
0.225
0.205
0.185
0.185
0.205
0.19
0.125
0.085
0.11
0.13
0.09
0.055
0.085
0.125
0.1
0.04
-0.01
-0.005
0.07
0.045
0.03
0.03
0.005
0.01
-0.02
-0.045
-0.01
-0.005
0.02
-0.005
-0.005
-0.005
-0.015
-0.015
0.0
-0.01
-0.03
-0.035
-0.015
-0.035
-0.045
-0.04
-0.025
-0.01
-0.015
-0.03
-0.05
-0.02
-0.045
-0.035
-0.08
-0.08
-0.035
-0.015
-0.025
0.0
-0.025
-0.045
-0.005
-0.01
-0.035
-0.045
-0.055
-0.09
-0.065
-0.05
-0.05
-0.05
-0.03
0.03
-0.005
-0.05
-0.035
-0.01
0.025
0.005
-0.045
-0.045
-0.04
-0.015
-0.02
-0.055
-0.025
-0.015
-0.025
0.005
-0.015
-0.025
-0.02
-0.005
0.0
-0.04
-0.065
-0.035
0.03
0.025
-0.01
-0.02
-0.015
-0.01
-0.02
-0.035
0.025
-0.03
-0.05
-0.045
-0.04
-0.01
0.01
0.02
0.0
-0.02
-0.005
-0.015
0.0
-0.025
-0.04
-0.025
-0.015
-0.03
-0.03
-0.065
-0.055
-0.005
0.025
-0.01
-0.095
0.005
-0.02
-0.04
0.015
0.01
-0.015
0.015
0.025
0.005
-0.01
-0.025
-0.055
-0.06
-0.07
0.015
-0.005
-0.03
-0.03
-0.035
-0.035
-0.03
-0.04
-0.035
-0.02
0.005
0.0
-0.045
-0.02
-0.03
-0.005
-0.03
-0.02
-0.035
0.0
-0.02
-0.035
0.01
-0.005
0.03
0.01
-0.035
-0.045
-0.02
-0.045
-0.035
-0.025
-0.02
0.02
-0.035
-0.025
-0.005
-0.02
-0.04
-0.03
0.025
0.01
-0.025
-0.05
-0.035
-0.035
-0.1
-0.06
-0.025
-0.015
0.035
-0.005
-0.01
-0.01
-0.04
0.0
0.0
-0.025
-0.05
-0.075
-0.095
-0.055
0.025
0.0
-0.045
-0.04
-0.02
-0.01
0.0
0.005
-0.045
-0.065
-0.03
-0.025
-0.045
-0.025
0.0
-0.03
-0.015
-0.02
-0.045
-0.075
-0.035
-0.025
0.04
0.06
0.03
0.01
0.025
0.03
0.015
0.055
0.07
0.065
0.04
0.045
0.045
0.07
0.04
0.05
0.095
0.11
0.12
0.09
0.09
0.115
0.1
0.05
0.02
0.0
0.085
0.03
-0.02
-0.03
-0.005
0.005
0.02
0.025
-0.01
-0.02
0.005
-0.025
-0.04
-0.065
-0.09
-0.05
0.01
-0.025
-0.04
-0.02
-0.03
-0.01
-0.02
-0.015
-0.025
-0.045
-0.05
-0.045
-0.035
0.0
-0.03
-0.03
-0.005
-0.01
0.0
0.005
-0.015
-0.05
-0.06
-0.065
-0.07
-0.065
-0.065
-0.04
-0.01
0.05
0.09
0.13
0.24
0.39
0.495
0.615
0.725
0.805
0.895
0.96
0.98
0.87
0.66
0.555
0.25
-0.025
-0.095
-0.155
-0.16
-0.19
-0.195
-0.165
-0.12
-0.07
-0.02
-0.025
0.005
0.025
0.01
0.0
-0.02
0.0
-0.01
0.005
0.015
-0.005
-0.005
-0.02
-0.02
-0.005
0.005
-0.01
0.04
0.005
0.04
-0.01
0.0
-0.05
-0.025
0.0
0.0
0.04
0.045
0.05
0.015
0.02
-0.025
-0.04
0.015
0.015
0.045
0.055
0.045
0.025
0.02
0.02
0.04
0.025
0.025
-0.08
-0.07
-0.025
0.11
0.045
0.08
0.1
0.06
0.015
0.025
0.065
0.045
0.04
0.03
0.025
0.035
0.06
0.085
0.08
0.025
0.05
0.015
0.0
0.06
0.08
0.065
0.075
0.09
0.1
0.115
0.125
0.105
0.135
0.14
0.11
0.125
0.125
0.12
0.13
0.15
0.14
0.145
0.15
0.16
0.165
0.18
0.215
0.21
0.22
0.265
0.255
0.22
0.22
0.25
0.2
0.215
0.325
0.275
0.29
0.32
0.295
0.28
0.31
0.33
0.335
0.335
0.35
0.335
0.335
0.325
0.335
0.315
0.315
0.305
0.265
0.265
0.29
0.315
0.285
0.265
0.265
0.25
0.215
0.195
0.185
0.16
0.135
0.07
0.085
0.08
0.125
0.13
0.12
0.105
0.065
0.02
0.035
0.065
0.075
0.095
0.055
0.04
0.035
0.055
0.065
0.035
0.01
0.025
-0.05
-0.03
0.035
0.06
0.05
0.03
0.005
0.005
0.005
0.04
0.035
0.0
-0.005
0.03
-0.005
-0.01
0.02
0.055
0.025
-0.025
-0.055
-0.05
-0.005
0.015
0.045
0.045
0.02
0.025
0.025
0.02
-0.035
0.015
0.03
-0.025
-0.02
0.005
0.0
0.01
0.01
0.0
-0.035
-0.03
-0.01
-0.015
-0.025
-0.01
0.01
0.02
0.01
0.05
0.03
-0.015
-0.01
-0.01
-0.035
-0.045
-0.01
0.015
0.025
0.02
0.02
0.005
-0.005
0.01
0.005
0.025
0.02
0.035
0.035
0.025
0.005
-0.005
-0.02
0.035
0.03
-0.01
-0.03
-0.015
-0.01
0.015
0.015
-0.01
0.0
0.0
0.045
0.015
-0.005
0.0
0.06
0.02
0.015
-0.005
0.01
0.025
0.015
-0.02
-0.025
-0.005
-0.02
-0.005
-0.015
0.01
0.04
0.07
-0.015
-0.03
0.01
-0.01
-0.01
-0.015
-0.05
-0.05
-0.06
-0.01
0.05
0.005
0.005
0.01
-0.045
-0.03
-0.045
-0.065
-0.015
0.025
0.04
0.005
0.01
0.005
-0.005
-0.04
-0.03
-0.005
0.01
0.025
0.0
-0.045
-0.025
0.005
-0.005
-0.05
-0.04
-0.02
-0.025
-0.005
0.015
-0.03
0.02
0.01
-0.015
-0.01
-0.03
-0.02
-0.015
0.01
0.01
-0.01
-0.03
-0.04
-0.05
-0.08
-0.04
-0.015
-0.015
-0.015
0.01
0.01
0.0
-0.025
-0.035
-0.03
-0.005
-0.025
-0.035
-0.015
-0.01
0.015
-0.015
-0.015
-0.015
-0.07
-0.03
0.01
-0.025
0.01
0.025
0.02
0.02
0.01
-0.025
-0.005
0.005
-0.005
-0.045
0.0
0.025
0.05
0.02
0.105
0.12
0.075
0.045
0.005
0.035
0.07
0.065
0.055
0.06
0.07
0.105
0.105
0.085
0.075
0.075
0.085
0.085
0.075
0.05
0.04
0.025
0.005
-0.035
-0.04
-0.06
-0.085
-0.08
-0.02
0.05
0.03
0.015
-0.01
-0.03
0.005
0.0
-0.035
-0.06
-0.015
-0.01
-0.025
-0.02
-0.03
-0.07
-0.07
-0.015
-0.01
-0.055
-0.02
-0.01
-0.06
-0.075
-0.065
-0.03
-0.02
0.01
-0.06
-0.1
-0.095
-0.11
-0.11
-0.125
-0.13
-0.07
-0.03
0.065
0.14
0.19
0.33
0.465
0.57
0.705
0.795
0.94
1.06
1.13
1.05
0.86
0.66
0.525
0.175
-0.03
-0.11
-0.185
-0.18
-0.145
-0.13
-0.09
-0.065
-0.03
-0.02
0.0
0.0
-0.07
-0.1
-0.005
-0.005
0.01
0.0
-0.015
-0.045
-0.02
-0.04
0.0
-0.03
-0.03
0.0
-0.01
-0.025
-0.025
-0.08
-0.075
-0.025
-0.065
-0.025
0.035
0.0
-0.015
-0.005
-0.005
-0.02
-0.035
-0.02
-0.005
-0.01
-0.015
0.045
-0.005
-0.085
-0.03
-0.04
-0.025
0.015
0.035
-0.02
-0.015
-0.015
0.02
0.005
0.01
0.015
-0.01
-0.01
-0.005
0.025
0.04
0.03
0.005
0.0
-0.005
0.015
-0.01
-0.005
-0.005
0.035
0.065
0.035
0.01
0.085
0.08
0.025
0.05
0.06
0.055
0.05
0.06
0.05
0.065
0.06
0.07
0.085
0.095
0.095
0.085
0.125
0.12
0.105
0.125
0.125
0.13
0.145
0.195
0.17
0.18
0.175
0.175
0.19
0.24
0.24
0.24
0.245
0.24
0.245
0.22
0.23
0.31
0.31
0.31
0.35
0.265
0.3
0.315
0.29
0.29
0.28
0.25
0.225
0.26
0.285
0.28
0.255
0.27
0.235
0.225
0.225
0.245
0.21
0.175
0.15
0.125
0.105
0.095
0.115
0.08
0.08
0.095
0.08
0.065
0.035
0.0
0.035
0.03
-0.02
-0.015
-0.015
-0.01
0.055
0.07
0.01
-0.02
-0.005
0.0
0.005
-0.015
-0.025
-0.02
-0.005
-0.015
-0.02
-0.015
-0.02
-0.04
-0.04
-0.005
-0.005
-0.04
-0.035
-0.05
-0.04
-0.085
-0.095
-0.045
-0.005
-0.04
-0.03
0.02
0.01
0.005
-0.015
-0.025
0.01
-0.02
-0.035
-0.05
-0.065
-0.075
-0.06
-0.02
-0.015
0.01
-0.015
-0.06
-0.07
-0.06
-0.035
-0.04
-0.035
-0.025
-0.025
-0.03
0.01
0.01
-0.045
-0.06
-0.04
-0.035
-0.03
-0.08
-0.045
-0.04
-0.035
-0.07
-0.04
-0.04
-0.03
-0.05
-0.06
-0.07
-0.035
-0.01
0.0
-0.04
-0.02
-0.045
-0.03
-0.02
-0.025
-0.01
-0.03
-0.08
-0.07
-0.035
-0.035
-0.08
-0.065
-0.03
0.025
-0.01
-0.02
-0.025
-0.01
-0.05
-0.075
-0.065
-0.045
-0.045
-0.065
-0.06
-0.065
-0.03
0.005
-0.03
-0.065
-0.07
-0.065
-0.04
-0.01
-0.005
-0.03
-0.065
-0.04
-0.035
-0.05
-0.01
-0.035
-0.085
-0.095
-0.1
-0.035
-0.015
-0.045
-0.05
-0.095
-0.065
-0.055
-0.04
-0.04
-0.02
-0.045
-0.07
0.03
-0.08
-0.085
-0.065
-0.07
-0.075
-0.065
-0.07
-0.105
-0.05
-0.04
-0.05
-0.07
-0.055
-0.04
-0.07
-0.065
-0.045
-0.05
-0.055
-0.075
-0.095
-0.095
-0.065
-0.055
-0.08
-0.04
-0.045
-0.04
-0.03
-0.05
-0.105
-0.09
-0.065
-0.045
-0.04
-0.05
-0.01
-0.05
-0.045
-0.095
-0.085
-0.06
-0.085
-0.08
-0.105
-0.015
-0.02
-0.075
-0.085
-0.07
-0.045
-0.005
-0.065
-0.09
-0.045
-0.035
-0.055
-0.065
-0.055
-0.095
-0.06
-0.07
-0.09
-0.075
-0.045
0.005
-0.04
-0.025
-0.02
-0.03
0.0
0.0
0.02
0.01
0.005
0.02
-0.025
0.0
0.015
0.04
0.055
0.055
0.07
0.03
0.025
0.01
0.015
0.035
0.035
0.065
0.04
0.03
-0.055
-0.105
-0.04
-0.06
-0.075
-0.06
-0.05
-0.055
-0.13
-0.08
-0.09
-0.1
-0.07
-0.03
-0.04
-0.025
-0.115
-0.105
-0.1
-0.105
-0.12
-0.16
-0.13
-0.11
-0.085
-0.095
-0.125
-0.07
-0.08
-0.09
-0.095
-0.1
-0.12
-0.095
-0.095
-0.09
-0.125
-0.18
-0.18
-0.15
-0.165
-0.16
-0.15
-0.09
-0.05
-0.06
0.04
0.155
0.295
0.405
0.52
0.645
0.85
0.95
1.055
1.14
1.105
0.96
0.76
0.49
0.165
-0.055
-0.145
-0.195
-0.245
-0.215
-0.175
-0.145
-0.14
-0.11
-0.12
-0.16
-0.09
-0.015
-0.035
-0.1
-0.12
-0.1
-0.12
-0.08
-0.105
-0.12
-0.075
-0.07
-0.08
-0.105
-0.125
-0.12
-0.1
-0.08
-0.095
-0.115
-0.135
-0.115
-0.11
-0.055
-0.09
-0.085
-0.08
-0.08
-0.075
-0.12
-0.105
-0.125
-0.08
-0.095
-0.085
-0.1
-0.13
-0.11
-0.1
-0.115
-0.105
-0.075
-0.05
-0.05
0.0
-0.025
-0.09
-0.145
-0.125
-0.08
-0.09
-0.095
-0.095
-0.06
-0.085
-0.105
-0.1
-0.04
-0.04
-0.07
-0.03
-0.06
-0.055
-0.095
-0.015
-0.035
-0.035
-0.025
-0.01
0.03
-0.02
-0.05
-0.055
-0.06
-0.05
-0.025
-0.01
-0.01
-0.02
0.02
0.02
0.02
0.05
0.05
0.005
0.06
0.06
0.09
0.08
0.075
0.065
0.08
0.04
0.12
0.14
0.155
0.165
0.175
0.175
0.185
0.175
0.17
0.185
0.185
0.175
0.2
0.19
0.215
0.205
0.21
0.24
0.235
0.24
0.255
0.185
0.21
0.22
0.185
0.145
0.15
0.22
0.14
0.1
0.075
0.075
0.085
0.09
0.09
0.065
0.06
0.03
0.005
0.005
-0.01
-0.025
0.01
-0.005
0.0
-0.025
-0.015
-0.025
-0.06
-0.06
-0.045
-0.04
-0.075
-0.09
-0.09
-0.1
-0.075
-0.12
-0.09
-0.055
-0.06
-0.095
-0.15
-0.095
-0.06
-0.09
-0.095
-0.07
-0.06
-0.085
-0.08
-0.12
-0.11
-0.1
-0.1
-0.085
-0.085
-0.05
-0.09
-0.105
-0.155
-0.125
-0.09
-0.065
-0.06
-0.125
-0.11
-0.09
-0.095
-0.09
-0.065
-0.09
-0.09
-0.075
-0.13
-0.115
-0.115
-0.13
-0.125
-0.11
-0.115
-0.13
-0.105
-0.095
-0.125
-0.08
-0.08
-0.095
-0.105
-0.09
-0.1
-0.1
-0.13
-0.135
-0.12
-0.095
-0.12
-0.1
-0.08
-0.105
-0.13
-0.16
-0.15
-0.1
-0.085
-0.08
-0.085
-0.08
-0.08
-0.165
-0.13
-0.095
-0.085
-0.095
-0.085
-0.105
-0.115
-0.12
-0.11
-0.085
-0.085
-0.105
-0.115
-0.085
-0.06
-0.16
-0.155
-0.14
-0.13
-0.105
-0.12
-0.105
-0.05
-0.075
-0.09
-0.095
-0.085
-0.065
-0.065
-0.125
-0.13
-0.065
-0.115
-0.115
-0.115
-0.12
-0.06
-0.12
-0.12
-0.11
-0.1
-0.14
-0.135
-0.125
-0.115
-0.1
-0.085
-0.115
-0.12
-0.11
-0.105
-0.1
-0.135
-0.13
-0.145
-0.11
-0.11
-0.12
-0.105
-0.095
-0.11
-0.15
-0.13
-0.13
-0.1
-0.12
-0.085
-0.085
-0.055
-0.205
-0.175
-0.115
-0.06
-0.085
-0.125
-0.095
-0.105
-0.135
-0.145
-0.1
-0.1
-0.12
-0.085
-0.105
-0.125
-0.115
-0.09
-0.095
-0.085
-0.115
-0.14
-0.125
-0.13
-0.08
-0.115
-0.14
-0.12
-0.135
-0.12
-0.06
-0.1
-0.13
-0.09
-0.085
-0.085
-0.09
-0.11
-0.12
-0.135
-0.115
-0.125
-0.12
-0.105
-0.1
-0.095
-0.115
-0.115
-0.13
-0.125
-0.115
-0.105
-0.085
-0.08
-0.115
-0.065
-0.12
-0.125
-0.11
-0.115
-0.115
-0.13
-0.145
-0.115
-0.13
-0.105
-0.045
-0.025
-0.05
-0.075
-0.055
-0.095
-0.055
-0.03
-0.04
-0.045
-0.005
-0.01
-0.01
-0.015
-0.015
-0.02
-0.01
0.02
0.035
-0.005
0.02
0.005
0.03
0.015
-0.02
-0.1
-0.06
-0.075
-0.055
-0.07
-0.085
-0.055
-0.085
-0.12
-0.105
-0.115
-0.065
-0.095
-0.12
-0.14
-0.105
-0.125
-0.13
-0.04
-0.125
-0.16
-0.135
-0.13
-0.13
-0.11
-0.14
-0.15
-0.075
-0.09
-0.125
-0.14
-0.15
-0.065
-0.11
-0.12
-0.13
-0.135
-0.095
-0.065
-0.11
-0.14
-0.145
-0.145
-0.205
-0.21
-0.225
-0.205
-0.185
-0.06
0.03
0.085
0.21
0.34
0.44
0.595
0.755
0.88
1.005
1.13
1.19
1.07
0.845
0.61
0.335
0.01
-0.175
-0.22
-0.255
-0.21
-0.225
-0.2
-0.1
-0.065
-0.1
-0.115
-0.085
-0.11
-0.135
-0.145
-0.1
-0.135
-0.135
-0.15
-0.13
-0.12
-0.125
-0.14
-0.175
-0.13
-0.115
-0.12
-0.11
-0.115
-0.11
-0.13
-0.115
-0.135
-0.065
-0.085
-0.1
-0.1
-0.105
-0.13
-0.14
-0.115
-0.1
-0.085
-0.1
-0.115
-0.145
-0.115
-0.1
-0.11
-0.15
-0.125
-0.085
-0.13
-0.045
-0.07
-0.09
-0.075
-0.08
-0.095
-0.12
-0.105
-0.1
-0.075
-0.005
-0.08
-0.11
-0.1
-0.085
-0.09
-0.085
-0.095
-0.105
-0.08
-0.08
-0.085
-0.075
-0.065
-0.05
-0.045
-0.035
-0.05
-0.07
-0.065
-0.05
-0.005
0.0
-0.03
-0.03
-0.025
0.0
0.015
0.01
0.015
0.01
0.015
-0.015
0.01
0.01
0.025
0.11
0.135
0.11
0.105
0.085
0.1
0.1
0.1
0.115
0.105
0.13
0.14
0.165
0.17
0.18
0.18
0.21
0.24
0.17
0.195
0.195
0.195
0.205
0.23
0.225
0.205
0.215
0.195
0.155
0.11
0.165
0.18
0.175
0.155
0.15
0.125
0.125
0.145
0.13
0.085
0.045
0.05
0.025
0.0
-0.005
-0.01
-0.02
-0.015
0.0
-0.035
-0.055
-0.06
-0.115
-0.04
-0.02
-0.03
-0.07
-0.06
-0.065
-0.095
-0.09
-0.1
-0.09
-0.09
-0.095
-0.105
-0.07
-0.06
-0.095
-0.1
-0.17
-0.115
-0.085
-0.08
-0.105
-0.125
-0.12
-0.11
-0.11
-0.105
-0.105
-0.07
-0.09
-0.09
-0.085
-0.135
-0.115
-0.105
-0.11
-0.105
-0.075
-0.1
-0.1
-0.095
-0.1
-0.105
-0.14
-0.13
-0.145
-0.135
-0.115
-0.105
-0.12
-0.14
-0.08
-0.09
-0.125
-0.12
-0.11
-0.115
-0.16
-0.125
-0.09
-0.095
-0.1
-0.095
-0.145
-0.165
-0.155
-0.175
-0.12
-0.04
-0.05
-0.05
-0.11
-0.125
-0.115
-0.125
-0.115
-0.13
-0.125
-0.12
-0.095
-0.11
-0.1
-0.095
-0.08
-0.11
-0.105
-0.095
-0.095
-0.095
-0.145
-0.14
-0.1
-0.15
-0.115
-0.08
-0.08
-0.09
-0.065
-0.08
-0.095
-0.075
-0.095
-0.12
-0.12
-0.11
-0.125
-0.105
-0.1
-0.11
-0.09
-0.115
-0.13
-0.11
-0.12
-0.1
-0.1
-0.065
-0.07
-0.065
-0.05
-0.105
-0.105
-0.12
-0.095
-0.1
-0.095
-0.12
-0.08
-0.105
-0.125
-0.105
-0.12
-0.13
-0.11
-0.12
-0.115
-0.06
-0.08
-0.12
-0.12
-0.12
-0.095
-0.1
-0.065
-0.08
-0.115
-0.13
-0.13
-0.13
-0.1
-0.095
-0.105
-0.075
-0.08
-0.07
-0.09
-0.105
-0.115
-0.115
-0.115
-0.125
-0.105
-0.07
-0.095
-0.15
-0.17
-0.13
-0.04
-0.08
-0.075
-0.08
-0.12
-0.105
-0.085
-0.09
-0.07
-0.075
-0.09
-0.1
-0.105
-0.12
-0.12
-0.1
-0.115
-0.12
-0.155
-0.125
-0.075
-0.11
-0.08
-0.075
-0.12
-0.13
-0.12
-0.09
-0.12
-0.125
-0.13
-0.105
-0.08
-0.125
-0.115
-0.115
-0.075
-0.065
-0.085
-0.095
-0.075
-0.11
-0.095
-0.085
-0.115
-0.1
-0.085
-0.065
-0.06
-0.06
-0.075
-0.055
-0.01
-0.015
-0.03
-0.02
0.005
-0.035
-0.04
-0.045
-0.005
0.005
0.0
0.06
0.045
0.025
0.0
-0.01
0.01
0.0
-0.015
-0.01
-0.035
-0.04
-0.03
-0.065
-0.065
-0.06
-0.075
-0.08
-0.11
-0.085
-0.125
-0.145
-0.12
-0.095
-0.105
-0.125
-0.14
-0.11
-0.095
-0.07
-0.115
-0.11
-0.105
-0.125
-0.095
-0.125
-0.135
-0.105
-0.11
-0.14
-0.125
-0.14
-0.14
-0.085
-0.075
-0.085
-0.115
-0.115
-0.11
-0.115
-0.13
-0.18
-0.2
-0.165
-0.095
-0.165
-0.16
-0.07
-0.02
0.025
0.125
0.275
0.435
0.515
0.69
0.85
0.96
1.125
1.17
1.08
0.855
0.575
0.3
0.015
-0.12
-0.15
-0.22
-0.225
-0.22
-0.205
-0.155
-0.215
-0.18
-0.11
-0.05
-0.055
-0.055
-0.06
-0.08
-0.08
-0.125
-0.155
-0.13
-0.12
-0.115
-0.1
-0.105
-0.105
-0.105
-0.1
-0.11
-0.12
-0.1
-0.08
-0.08
-0.1
-0.075
-0.13
-0.115
-0.14
-0.085
-0.11
-0.1
-0.11
-0.115
-0.05
-0.045
-0.1
-0.075
-0.105
-0.105
-0.105
-0.095
-0.105
-0.085
-0.075
-0.085
-0.07
-0.05
-0.09
-0.105
-0.11
-0.05
-0.04
-0.045
-0.08
-0.07
-0.08
-0.05
-0.03
-0.04
-0.06
-0.07
-0.1
-0.06
-0.04
0.0
-0.035
-0.045
-0.05
-0.04
-0.045
-0.015
-0.01
0.01
-0.015
0.05
-0.03
-0.075
-0.02
0.005
0.02
0.025
0.045
0.015
0.03
0.035
0.035
0.05
0.06
0.065
0.075
0.085
0.1
0.085
0.045
0.095
0.13
0.155
0.19
0.145
0.155
0.165
0.215
0.22
0.215
0.235
0.225
0.21
0.22
0.215
0.22
0.26
0.25
0.23
0.26
0.255
0.25
0.24
0.26
0.25
0.22
0.21
0.245
0.2
0.17
0.15
0.11
0.12
0.11
0.11
0.105
0.09
0.1
0.015
0.035
0.055
0.015
0.025
0.02
-0.005
-0.01
0.0
0.02
0.01
-0.025
-0.06
-0.025
-0.02
-0.005
-0.045
-0.04
-0.035
-0.04
-0.055
-0.06
-0.075
-0.095
-0.065
-0.03
-0.045
-0.05
-0.065
-0.055
-0.04
-0.065
-0.035
-0.05
-0.115
-0.08
-0.1
-0.105
-0.06
-0.055
-0.04
-0.045
-0.05
-0.07
-0.1
-0.09
-0.075
-0.11
-0.09
-0.07
-0.035
-0.045
-0.04
-0.145
-0.125
-0.07
-0.07
-0.055
-0.105
-0.095
-0.08
-0.06
-0.075
-0.065
-0.055
-0.065
-0.095
-0.075
-0.075
-0.13
-0.115
-0.03
-0.005
-0.04
-0.07
-0.07
-0.09
-0.065
-0.06
-0.06
-0.03
-0.055
-0.08
-0.065
-0.07
-0.05
-0.095
-0.07
-0.05
-0.055
-0.07
-0.045
-0.05
-0.1
-0.075
-0.04
-0.03
-0.025
-0.02
-0.075
-0.08
-0.055
-0.045
-0.065
-0.055
-0.08
-0.045
-0.075
-0.16
-0.12
-0.065
-0.015
-0.025
-0.04
-0.065
-0.07
-0.105
-0.085
-0.06
-0.105
-0.03
-0.04
-0.08
-0.055
-0.04
-0.02
-0.045
-0.035
-0.04
-0.06
-0.05
-0.055
-0.05
-0.06
-0.055
-0.09
-0.105
-0.08
-0.05
-0.055
-0.08
-0.055
-0.05
-0.04
-0.04
-0.045
-0.055
-0.05
-0.055
-0.095
-0.055
-0.04
-0.045
-0.06
-0.07
-0.115
-0.095
-0.03
-0.01
-0.03
-0.05
-0.125
-0.125
-0.105
-0.02
-0.035
-0.04
-0.07
-0.085
-0.065
-0.065
-0.04
-0.11
-0.1
-0.06
-0.045
-0.08
-0.005
0.01
-0.045
-0.08
-0.025
-0.045
-0.06
-0.085
-0.11
-0.08
-0.065
-0.025
0.01
-0.045
-0.05
-0.035
-0.06
-0.045
-0.065
-0.055
-0.065
-0.025
-0.045
0.005
-0.05
-0.09
-0.055
-0.03
-0.06
-0.09
-0.065
-0.085
-0.065
-0.05
-0.05
-0.07
-0.1
-0.075
-0.045
-0.035
-0.025
-0.015
-0.03
-0.04
-0.035
-0.03
0.015
0.035
0.035
0.015
0.005
-0.035
0.0
0.025
0.02
0.025
0.07
0.075
0.01
0.01
0.075
0.07
0.09
0.095
0.105
0.09
0.115
0.105
0.04
0.03
0.03
0.02
0.0
0.0
-0.03
-0.045
-0.025
-0.01
-0.045
-0.025
-0.03
-0.015
0.025
-0.035
-0.02
-0.045
-0.095
-0.04
-0.06
-0.005
-0.01
-0.04
-0.065
-0.08
-0.085
-0.09
-0.025
-0.035
-0.02
-0.055
-0.025
-0.025
-0.02
-0.05
-0.055
-0.025
-0.03
-0.045
-0.065
-0.055
-0.03
-0.055
-0.065
-0.04
-0.08
-0.09
-0.055
0.005
0.015
0.1
0.185
0.305
0.445
0.555
0.68
0.82
0.93
1.02
1.055
1.0
0.8
0.585
0.33
0.05
-0.075
-0.155
-0.165
-0.19
-0.225
-0.195
-0.145
-0.06
-0.035
-0.02
-0.02
0.015
-0.01
-0.03
-0.055
-0.085
-0.07
-0.01
0.005
-0.01
-0.02
0.005
0.015
0.015
-0.02
0.03
0.01
-0.015
-0.025
-0.04
0.0
-0.035
-0.005
-0.03
-0.045
-0.035
-0.035
-0.025
-0.025
-0.005
-0.015
0.025
0.015
-0.01
-0.02
0.01
0.01
-0.005
-0.01
0.01
0.025
0.035
0.005
-0.005
-0.015
-0.02
-0.03
-0.02
0.015
0.015
0.015
0.015
-0.025
0.025
0.05
0.06
0.055
0.035
0.04
0.055
0.04
0.04
0.055
0.03
-0.005
0.0
0.01
0.055
0.095
0.115
0.11
0.1
0.08
0.055
0.045
0.115
0.125
0.1
0.125
0.14
0.125
0.095
0.055
0.1
0.18
0.185
0.125
0.145
0.175
0.215
0.235
0.21
0.215
0.22
0.2
0.235
0.245
0.275
0.26
0.27
0.3
0.3
0.32
0.315
0.32
0.305
0.315
0.315
0.335
0.36
0.365
0.34
0.375
0.365
0.425
0.34
0.265
0.265
0.255
0.27
0.29
0.305
0.25
0.22
0.235
0.23
0.19
0.18
0.17
0.19
0.145
0.125
0.115
0.075
0.115
0.1
0.09
0.055
0.07
0.085
0.095
0.095
0.085
0.06
0.06
0.01
0.035
0.06
0.055
0.0
0.02
0.025
0.045
0.055
0.085
0.045
0.03
0.04
0.035
-0.005
0.015
0.025
-0.005
0.0
0.03
-0.01
-0.04
0.03
0.035
0.045
0.025
-0.01
-0.02
-0.02
0.01
0.01
-0.005
0.005
0.02
-0.05
-0.03
-0.02
0.045
0.015
-0.025
-0.035
0.03
0.09
0.04
0.01
0.025
0.015
0.03
0.0
0.03
0.015
0.035
0.045
0.035
0.035
0.02
0.03
-0.025
0.01
0.06
0.035
0.03
0.06
0.07
0.04
0.0
0.01
0.015
0.02
-0.025
0.02
0.065
0.045
0.025
0.045
0.01
0.045
0.08
0.045
0.02
0.01
0.015
0.075
0.055
0.025
0.02
0.005
0.015
0.005
0.005
0.005
0.045
0.055
0.05
0.005
0.02
0.005
0.025
0.095
0.105
0.035
-0.015
0.005
0.01
0.03
0.02
0.025
0.005
0.03
0.025
0.02
0.025
0.005
0.025
-0.01
0.015
0.02
0.07
0.055
0.03
-0.01
0.015
0.05
0.015
0.025
0.005
0.02
0.035
0.05
0.02
-0.04
0.0
-0.03
0.02
0.04
-0.005
0.005
0.015
0.015
0.015
-0.02
0.02
0.045
0.035
0.055
0.055
0.005
-0.01
0.04
0.005
-0.015
0.0
-0.005
0.0
0.045
0.03
0.0
0.01
0.01
0.02
0.02
0.03
0.025
0.02
0.0
0.005
-0.02
0.005
0.035
-0.015
0.015
-0.005
0.015
-0.02
0.03
0.045
0.02
0.025
0.025
0.02
0.03
0.035
0.03
-0.005
-0.025
-0.035
-0.025
0.005
0.035
0.01
0.045
0.03
0.02
0.005
0.005
0.005
-0.01
-0.005
-0.005
-0.02
-0.01
0.065
0.05
-0.015
-0.02
0.045
0.005
-0.035
0.03
0.05
0.055
0.075
0.045
0.02
0.045
0.06
0.08
0.09
0.075
0.06
0.085
0.075
0.085
0.06
0.055
0.06
0.06
0.075
0.05
0.04
0.09
0.155
0.12
0.14
0.15
0.135
0.105
0.085
0.105
0.1
0.015
0.04
0.065
0.07
0.06
0.005
-0.01
0.0
-0.03
0.025
0.03
0.0
0.005
-0.02
0.035
0.05
0.02
-0.015
-0.02
0.0
0.02
-0.04
-0.04
-0.005
0.01
0.005
-0.015
-0.03
-0.015
0.015
0.02
0.0
-0.05
-0.035
-0.02
-0.025
0.0
0.02
-0.02
-0.055
-0.1
-0.11
-0.04
0.02
0.06
0.095
0.14
0.215
0.375
0.47
0.6
0.755
0.84
0.94
1.045
1.105
0.98
0.8
0.6
0.375
0.095
-0.045
-0.07
-0.19
-0.165
-0.165
-0.18
-0.165
-0.095
-0.065
-0.015
0.005
0.005
0.01
-0.015
0.0
0.0
-0.05
-0.04
-0.02
0.0
0.005
-0.025
-0.045
0.0
-0.01
-0.055
-0.08
-0.06
-0.015
0.01
0.045
0.005
-0.04
0.02
-0.005
-0.025
-0.005
0.01
-0.015
-0.005
0.02
-0.01
-0.015
0.025
0.0
-0.015
-0.005
0.04
0.025
-0.015
-0.045
-0.035
0.015
-0.02
-0.025
-0.02
0.025
0.06
-0.01
0.02
0.015
0.005
0.005
0.02
-0.01
-0.035
-0.05
0.005
0.005
0.055
0.05
0.05
0.055
0.015
-0.015
0.04
0.085
0.065
0.05
0.06
0.03
0.025
0.035
0.045
0.055
0.035
0.07
0.07
0.045
0.13
0.13
0.105
0.11
0.13
0.135
0.14
0.16
0.155
0.16
0.175
0.16
0.145
0.11
0.165
0.185
0.175
0.215
0.21
0.24
0.24
0.215
0.25
0.315
0.25
0.255
0.25
0.265
0.315
0.3
0.3
0.265
0.215
0.27
0.29
0.32
0.33
0.295
0.29
0.27
0.25
0.23
0.205
0.21
0.195
0.17
0.135
0.145
0.145
0.175
0.145
0.095
0.05
0.05
0.085
0.08
0.065
0.09
0.03
0.005
0.035
-0.01
0.005
0.005
0.005
0.02
0.005
-0.03
-0.01
0.02
0.005
-0.035
-0.02
-0.03
-0.025
-0.075
-0.055
0.005
-0.05
-0.05
-0.03
-0.025
-0.025
-0.04
-0.045
-0.065
-0.055
-0.04
-0.05
-0.025
-0.045
-0.03
-0.035
-0.07
-0.08
-0.105
-0.04
-0.055
-0.075
-0.015
-0.055
-0.055
-0.075
-0.05
-0.045
-0.03
-0.075
-0.1
-0.08
-0.075
-0.07
-0.085
-0.07
-0.005
0.005
-0.025
0.02
-0.03
-0.04
-0.025
-0.06
-0.045
-0.025
-0.03
-0.045
-0.035
-0.035
0.01
-0.01
-0.07
-0.035
-0.03
-0.02
-0.025
-0.06
-0.04
-0.075
-0.09
-0.085
-0.01
-0.02
-0.045
-0.02
-0.015
-0.01
-0.015
-0.025
-0.04
-0.01
0.005
-0.015
-0.055
-0.06
-0.055
-0.05
-0.015
-0.01
-0.03
-0.02
-0.03
-0.055
-0.045
-0.045
-0.015
-0.03
-0.035
-0.035
-0.07
-0.065
-0.02
-0.05
-0.07
-0.05
-0.05
-0.07
-0.105
-0.035
-0.005
0.01
-0.02
-0.04
-0.055
-0.04
-0.055
-0.08
-0.065
-0.02
-0.05
-0.025
0.03
-0.035
-0.105
-0.07
-0.05
-0.03
-0.04
-0.03
-0.035
-0.045
-0.07
-0.07
-0.05
0.01
0.025
-0.03
-0.03
-0.035
0.0
0.015
0.02
-0.035
-0.065
-0.055
-0.065
-0.055
-0.05
-0.04
-0.055
0.015
-0.015
-0.015
-0.005
-0.01
-0.015
-0.045
-0.005
0.0
-0.02
-0.075
-0.035
-0.065
-0.045
-0.03
-0.01
-0.02
-0.025
-0.02
-0.025
-0.01
-0.005
-0.03
-0.015
-0.065
-0.045
-0.055
-0.01
0.03
-0.025
0.0
-0.025
-0.015
-0.04
-0.07
-0.03
-0.03
-0.03
-0.025
-0.045
-0.03
-0.015
-0.055
-0.05
-0.045
-0.03
-0.045
0.01
0.045
0.005
0.015
0.0
-0.015
-0.045
-0.01
0.02
-0.005
-0.005
-0.005
0.015
0.055
0.02
0.045
0.09
0.09
0.05
0.04
0.035
0.035
0.065
0.11
0.05
0.045
0.105
0.125
0.095
0.1
0.055
0.045
0.095
0.115
0.055
0.035
0.03
-0.005
-0.04
-0.04
0.01
-0.02
-0.075
-0.085
-0.07
-0.015
-0.02
0.01
0.01
0.025
-0.005
-0.045
-0.015
-0.01
-0.055
-0.09
-0.035
-0.045
-0.04
-0.045
-0.04
-0.06
-0.045
-0.01
-0.005
-0.045
-0.055
-0.06
0.005
0.005
-0.04
-0.07
-0.08
-0.07
-0.11
-0.13
-0.095
-0.055
-0.05
-0.07
-0.025
0.03
0.115
0.24
0.325
0.49
0.625
0.75
0.88
0.99
1.115
1.24
1.16
0.96
0.705
0.505
0.18
-0.015
-0.07
-0.145
-0.145
-0.12
-0.07
-0.09
-0.1
-0.06
-0.015
0.01
-0.025
-0.05
-0.03
0.0
-0.03
-0.04
-0.095
-0.05
-0.025
-0.055
-0.1
-0.07
-0.05
-0.01
-0.03
-0.03
-0.005
0.005
-0.01
-0.085
-0.08
-0.055
0.01
-0.02
-0.03
-0.01
-0.05
-0.09
-0.08
-0.06
-0.02
0.025
0.015
-0.02
0.015
-0.015
-0.015
-0.02
-0.055
-0.065
-0.095
-0.06
0.0
0.015
0.015
-0.005
-0.03
-0.01
-0.015
-0.02
0.015
-0.005
0.005
-0.03
-0.005
0.03
0.005
0.01
0.02
-0.015
-0.055
-0.055
-0.03
0.0
0.03
0.005
0.0
0.0
-0.045
-0.045
0.025
0.055
0.055
0.085
0.085
0.025
0.035
0.1
0.09
0.12
0.065
0.065
0.07
0.055
0.085
0.1
0.13
0.1
0.115
0.11
0.135
0.175
0.165
0.18
0.18
0.175
0.21
0.215
0.245
0.24
0.23
0.22
0.225
0.22
0.235
0.29
0.27
0.27
0.265
0.27
0.275
0.26
0.245
0.26
0.26
0.255
0.285
0.23
0.2
0.2
0.195
0.245
0.235
0.2
0.195
0.165
0.125
0.105
0.055
0.09
0.08
0.07
0.055
0.085
0.06
0.045
0.035
0.04
0.035
0.045
0.02
0.005
-0.02
-0.035
-0.025
0.025
-0.005
-0.055
-0.025
-0.035
-0.045
-0.045
-0.03
-0.05
-0.065
-0.06
0.015
-0.005
-0.015
-0.025
-0.045
-0.03
-0.035
-0.06
-0.055
-0.055
-0.015
-0.05
-0.03
0.005
-0.02
-0.025
-0.055
-0.035
0.02
-0.065
-0.08
-0.05
-0.105
-0.095
-0.065
-0.035
-0.03
0.0
0.025
-0.08
-0.075
-0.055
-0.095
-0.065
-0.035
-0.08
-0.09
-0.025
-0.015
-0.035
-0.055
-0.045
-0.035
-0.055
-0.075
-0.07
-0.08
-0.06
-0.035
-0.02
-0.04
-0.075
-0.13
-0.075
-0.05
-0.02
-0.005
-0.015
-0.025
-0.03
-0.04
-0.035
-0.065
-0.045
-0.035
-0.035
-0.04
-0.065
-0.085
-0.075
-0.055
-0.035
-0.035
-0.03
-0.025
-0.035
-0.055
-0.03
0.015
-0.055
-0.06
-0.02
-0.035
-0.07
-0.035
-0.02
-0.075
-0.06
-0.065
-0.075
-0.075
-0.065
-0.09
-0.035
-0.005
-0.04
-0.035
-0.02
-0.02
-0.05
-0.07
-0.07
-0.045
-0.04
-0.02
-0.07
-0.08
-0.065
-0.045
-0.06
-0.03
-0.055
-0.075
-0.06
-0.06
-0.065
-0.035
-0.005
-0.05
-0.055
-0.08
-0.06
-0.045
-0.08
-0.035
-0.025
-0.04
-0.05
-0.085
-0.075
-0.08
-0.04
-0.01
-0.025
0.005
-0.005
-0.105
-0.075
-0.105
-0.06
-0.025
