# TIPE ECG 2021 - ECG-ID Database v1.0.0 par Physionet
# [N° de la personne, N° de l'enregistrement, Période d'échantillonnage, Prénom, Age, Sexe, Date de l'enregistrement]
[67, 2, 0.002, "Jacques", 39, "H", "12.05.2005"]
-0.09
-0.1
-0.085
-0.085
-0.085
-0.09
-0.1
-0.09
-0.085
-0.095
-0.1
-0.08
-0.08
-0.085
-0.1
-0.1
-0.085
-0.085
-0.085
-0.08
-0.075
-0.065
-0.075
-0.09
-0.095
-0.075
-0.095
-0.07
-0.07
-0.09
-0.11
-0.125
-0.075
-0.075
-0.09
-0.125
-0.12
-0.1
-0.065
-0.075
-0.11
-0.085
-0.065
-0.075
-0.115
-0.12
-0.105
-0.12
-0.11
-0.1
-0.095
-0.08
-0.085
-0.065
-0.08
-0.105
-0.095
-0.08
-0.095
-0.1
-0.105
-0.085
-0.075
-0.07
-0.065
-0.14
-0.125
-0.15
-0.165
-0.135
-0.115
-0.08
-0.085
-0.095
-0.105
-0.135
-0.15
-0.11
-0.105
-0.1
-0.085
-0.12
-0.1
-0.115
-0.11
-0.12
-0.125
-0.1
-0.125
-0.12
-0.115
-0.115
-0.1
-0.12
-0.105
-0.12
-0.14
-0.11
-0.115
-0.095
-0.15
-0.115
-0.05
-0.105
-0.125
-0.135
-0.14
-0.145
-0.145
-0.13
-0.12
-0.15
-0.125
-0.1
-0.1
-0.085
-0.145
-0.155
-0.14
-0.105
-0.125
-0.13
-0.105
-0.105
-0.12
-0.125
-0.19
-0.16
-0.125
-0.135
-0.13
-0.135
-0.12
-0.09
-0.11
-0.125
-0.14
-0.145
-0.14
-0.16
-0.175
-0.14
-0.09
-0.095
-0.13
-0.15
-0.14
-0.14
-0.155
-0.115
-0.08
-0.12
-0.125
-0.1
-0.12
-0.1
-0.12
-0.14
-0.105
-0.08
-0.085
-0.1
-0.085
-0.09
-0.115
-0.05
-0.045
-0.065
-0.065
-0.045
-0.04
-0.035
-0.005
-0.015
0.01
0.04
-0.01
-0.045
0.005
-0.025
-0.005
-0.045
-0.01
0.01
-0.035
-0.04
-0.03
-0.03
-0.07
-0.04
-0.085
-0.105
-0.085
-0.095
-0.115
-0.15
-0.14
-0.125
-0.155
-0.135
-0.125
-0.14
-0.145
-0.125
-0.145
-0.125
-0.125
-0.155
-0.165
-0.145
-0.14
-0.11
-0.15
-0.165
-0.17
-0.16
-0.145
-0.17
-0.17
-0.17
-0.2
-0.19
-0.17
-0.175
-0.17
-0.19
-0.175
-0.155
-0.13
-0.065
0.025
0.16
0.285
0.445
0.595
0.8
0.925
0.96
0.98
0.93
0.795
0.61
0.355
0.135
-0.075
-0.28
-0.385
-0.475
-0.455
-0.425
-0.46
-0.475
-0.445
-0.405
-0.36
-0.355
-0.32
-0.275
-0.235
-0.22
-0.175
-0.175
-0.155
-0.155
-0.145
-0.16
-0.155
-0.12
-0.13
-0.13
-0.12
-0.115
-0.125
-0.15
-0.155
-0.09
-0.105
-0.135
-0.12
-0.115
-0.1
-0.09
-0.05
-0.065
-0.085
-0.08
-0.085
-0.12
-0.125
-0.085
-0.08
-0.08
-0.07
-0.1
-0.075
-0.075
-0.055
-0.075
-0.085
-0.065
-0.06
-0.035
-0.055
-0.05
-0.035
-0.04
-0.075
-0.045
-0.03
-0.04
-0.075
-0.035
-0.065
-0.065
0.01
-0.01
-0.015
-0.015
0.0
-0.005
0.005
-0.02
0.02
0.025
0.035
0.015
-0.01
0.03
0.015
0.055
0.055
0.06
0.08
0.06
0.035
0.065
0.07
0.075
0.095
0.145
0.12
0.11
0.11
0.105
0.13
0.14
0.145
0.145
0.14
0.16
0.18
0.185
0.19
0.17
0.155
0.185
0.185
0.18
0.21
0.24
0.26
0.22
0.205
0.165
0.2
0.18
0.185
0.19
0.2
0.155
0.16
0.14
0.14
0.125
0.1
0.085
0.075
0.075
0.085
0.065
0.085
0.085
0.07
0.015
0.015
0.015
-0.01
-0.005
0.02
0.01
-0.025
0.015
-0.01
-0.07
-0.045
-0.035
-0.005
-0.04
-0.05
-0.08
-0.05
-0.03
-0.03
-0.035
-0.045
-0.07
-0.095
-0.075
-0.035
0.015
-0.01
-0.025
-0.04
-0.05
-0.045
-0.06
-0.06
-0.05
-0.035
-0.03
-0.035
-0.055
-0.05
-0.04
-0.045
-0.06
-0.04
-0.03
-0.02
-0.03
0.0
0.005
-0.04
-0.025
-0.03
-0.04
-0.035
0.0
0.015
0.02
-0.02
-0.015
-0.05
-0.045
-0.01
-0.02
-0.015
-0.025
-0.03
-0.03
-0.005
-0.045
0.0
-0.025
-0.03
-0.015
0.005
0.01
0.0
-0.01
-0.015
-0.02
-0.02
-0.02
-0.035
-0.005
-0.015
0.005
0.02
0.02
-0.015
-0.03
0.0
-0.025
-0.045
-0.015
0.03
-0.005
-0.005
-0.02
-0.02
0.015
0.0
-0.015
-0.02
-0.015
-0.02
-0.02
-0.01
-0.01
-0.01
0.035
-0.015
-0.01
0.0
0.0
-0.03
-0.025
0.005
0.0
0.005
-0.03
-0.04
-0.025
-0.01
-0.045
-0.025
-0.015
-0.01
-0.01
0.015
-0.005
-0.015
-0.005
-0.02
-0.04
-0.005
0.005
-0.01
-0.01
0.0
-0.085
-0.03
-0.005
-0.02
-0.02
0.005
-0.05
-0.02
-0.005
0.02
0.015
-0.02
-0.025
-0.02
-0.025
-0.03
0.0
-0.005
-0.015
0.005
-0.02
-0.015
-0.01
-0.055
-0.04
-0.05
-0.015
-0.02
-0.01
-0.01
0.0
-0.01
-0.03
-0.01
-0.02
-0.025
0.0
0.0
-0.01
0.0
-0.015
-0.01
-0.035
-0.02
-0.03
-0.025
-0.02
-0.01
-0.01
0.01
-0.02
0.0
-0.005
-0.02
-0.05
0.005
0.065
0.01
-0.02
0.015
0.015
0.0
0.035
0.02
0.02
0.02
0.03
0.075
0.11
0.095
0.095
0.12
0.085
0.075
0.07
0.065
0.075
0.105
0.11
0.065
0.065
0.08
0.12
0.095
0.045
0.035
0.035
0.02
0.045
0.045
0.02
-0.005
0.025
0.0
0.03
-0.005
-0.015
-0.02
-0.01
0.0
-0.035
-0.045
-0.01
-0.015
-0.025
-0.05
-0.055
-0.025
-0.025
-0.025
-0.01
-0.025
-0.04
-0.07
-0.055
0.005
-0.055
-0.055
-0.06
-0.045
-0.065
-0.065
-0.085
-0.085
-0.065
-0.02
0.03
0.085
0.26
0.365
0.43
0.555
0.775
0.925
1.04
1.03
0.995
0.9
0.75
0.53
0.265
0.04
-0.155
-0.26
-0.345
-0.345
-0.325
-0.31
-0.29
-0.3
-0.255
-0.255
-0.235
-0.225
-0.19
-0.16
-0.135
-0.09
-0.04
-0.045
-0.065
-0.06
-0.055
-0.045
-0.01
-0.01
-0.015
0.035
-0.02
-0.04
-0.02
-0.015
-0.015
-0.03
-0.035
-0.025
0.0
0.03
0.0
-0.04
-0.005
0.015
0.0
-0.01
0.005
0.025
0.025
0.035
0.025
-0.01
-0.02
0.02
0.005
-0.015
0.0
0.02
0.015
0.065
0.03
0.025
0.02
0.025
0.005
0.005
0.025
0.025
0.035
0.135
0.09
0.01
0.01
0.065
0.06
0.06
0.065
0.08
0.06
0.085
0.095
0.1
0.08
0.08
0.1
0.095
0.125
0.11
0.1
0.125
0.135
0.11
0.14
0.165
0.15
0.135
0.13
0.2
0.2
0.18
0.155
0.165
0.22
0.225
0.215
0.18
0.25
0.25
0.235
0.27
0.275
0.26
0.24
0.265
0.26
0.26
0.28
0.26
0.26
0.33
0.275
0.27
0.245
0.255
0.26
0.265
0.25
0.245
0.28
0.25
0.23
0.21
0.19
0.24
0.205
0.185
0.16
0.14
0.12
0.165
0.16
0.115
0.085
0.08
0.06
0.085
0.075
0.06
0.04
0.07
0.075
0.045
0.04
0.045
0.03
0.02
0.035
0.05
0.03
0.05
0.05
0.035
0.025
0.01
0.025
0.025
0.025
0.04
0.08
0.04
0.055
0.01
0.035
0.04
0.0
0.03
0.045
0.07
0.035
0.055
0.065
-0.03
0.025
0.045
0.045
0.015
0.025
0.035
0.04
0.03
0.02
0.025
0.055
0.035
0.025
0.03
0.05
0.035
0.035
0.07
0.05
0.025
0.06
0.07
0.01
0.03
0.04
0.03
0.06
0.07
0.06
0.05
0.06
0.05
0.055
0.08
0.035
0.05
0.075
0.07
0.07
0.05
0.085
0.04
0.055
0.09
0.09
0.05
0.065
0.11
0.075
0.035
0.015
0.01
0.025
0.045
0.075
0.04
0.03
0.045
0.03
0.075
0.045
0.02
0.04
0.05
0.06
0.06
0.055
0.065
0.04
0.025
0.045
0.07
0.02
0.02
0.015
0.02
0.07
0.095
0.0
0.04
0.06
0.04
0.01
0.035
0.05
0.035
0.045
0.08
0.03
0.015
0.04
-0.02
-0.005
0.015
0.065
0.04
0.05
0.03
0.04
0.0
-0.005
-0.005
0.015
0.05
0.03
0.04
0.05
0.015
0.03
-0.01
0.01
0.025
0.025
0.035
0.045
0.045
0.045
0.035
0.07
0.02
0.05
0.015
0.03
0.045
0.045
0.045
0.055
0.05
0.025
0.035
0.03
0.03
0.03
0.0
-0.005
0.03
0.045
0.035
0.04
0.0
-0.005
0.015
0.015
0.01
0.025
0.04
0.025
0.005
0.05
0.035
0.015
0.0
0.055
0.04
0.045
0.055
0.065
0.04
0.065
0.03
0.025
0.065
0.1
0.07
0.08
0.09
0.065
0.095
0.09
0.1
0.105
0.105
0.135
0.16
0.17
0.125
0.125
0.095
0.095
0.095
0.1
0.13
0.145
0.14
0.105
0.1
0.115
0.065
0.065
0.045
0.05
0.035
0.05
0.06
0.025
0.015
0.02
0.0
0.015
0.025
0.005
0.01
0.015
-0.01
0.0
-0.01
0.015
-0.01
-0.015
-0.01
-0.015
-0.005
0.02
-0.005
0.0
-0.055
-0.06
-0.045
-0.025
-0.045
-0.055
-0.05
-0.06
-0.07
-0.02
-0.045
-0.03
-0.01
0.03
0.145
0.22
0.35
0.535
0.67
0.86
0.97
1.06
1.065
0.985
0.89
0.68
0.44
0.295
0.11
-0.095
-0.2
-0.28
-0.295
-0.335
-0.305
-0.305
-0.27
-0.235
-0.185
-0.135
-0.165
-0.12
-0.07
-0.06
-0.045
-0.055
-0.09
-0.03
0.025
0.0
0.005
0.0
-0.035
-0.02
-0.015
-0.05
-0.02
-0.02
0.01
-0.005
0.06
0.045
0.025
0.02
0.005
-0.015
-0.01
-0.01
-0.03
-0.025
0.0
0.045
0.025
0.04
0.02
-0.005
-0.015
0.04
0.08
0.04
0.02
0.01
0.0
0.04
0.055
0.04
0.03
0.045
0.02
0.03
0.055
0.05
0.05
0.06
0.05
0.055
0.1
0.1
0.045
0.045
0.055
0.065
0.075
0.095
0.065
0.075
0.09
0.115
0.095
0.115
0.12
0.105
0.095
0.1
0.09
0.105
0.135
0.17
0.125
0.165
0.16
0.175
0.165
0.185
0.17
0.145
0.17
0.205
0.185
0.215
0.2
0.195
0.185
0.24
0.255
0.23
0.25
0.27
0.255
0.255
0.26
0.23
0.245
0.255
0.255
0.23
0.22
0.23
0.245
0.255
0.24
0.215
0.215
0.185
0.18
0.2
0.195
0.195
0.185
0.2
0.11
0.115
0.1
0.12
0.115
0.115
0.09
0.075
0.03
0.085
0.07
0.035
0.04
0.0
0.015
0.01
0.005
0.025
0.015
0.01
0.0
-0.005
0.01
0.02
0.0
-0.02
0.01
0.005
0.01
0.025
0.01
-0.035
-0.04
-0.01
0.01
0.02
-0.01
-0.025
-0.025
-0.025
-0.035
-0.035
-0.035
0.005
0.0
-0.025
-0.035
-0.015
0.01
0.02
-0.005
-0.035
-0.045
-0.02
0.02
-0.015
-0.025
0.0
0.01
0.005
-0.01
-0.005
0.02
-0.015
-0.01
-0.035
0.03
0.03
-0.035
-0.02
0.02
-0.01
-0.02
0.015
0.02
0.0
-0.01
0.0
0.015
0.02
-0.005
-0.035
-0.005
-0.01
-0.01
-0.01
0.01
0.01
0.01
-0.005
0.015
-0.005
0.005
0.005
-0.04
-0.03
0.025
0.005
-0.005
0.015
-0.025
-0.025
-0.005
-0.005
0.005
-0.045
-0.04
-0.005
0.005
0.005
0.02
0.005
-0.005
-0.01
-0.02
-0.01
-0.015
-0.025
-0.015
0.035
-0.03
-0.03
-0.01
0.01
-0.04
-0.04
-0.015
-0.005
0.015
-0.015
-0.025
-0.015
-0.04
-0.01
0.005
-0.025
-0.015
-0.03
-0.005
0.02
0.005
-0.025
-0.02
-0.045
-0.01
0.0
-0.01
-0.03
-0.015
0.035
-0.025
-0.045
-0.045
-0.015
-0.005
-0.03
-0.015
0.005
-0.03
-0.025
-0.005
-0.015
-0.025
-0.02
-0.03
-0.01
-0.005
-0.04
-0.005
-0.025
-0.015
-0.025
-0.055
-0.015
-0.05
0.02
0.02
0.03
0.02
0.04
0.02
0.02
-0.01
-0.005
0.045
0.02
-0.005
0.04
0.02
0.0
-0.01
-0.005
0.005
-0.015
-0.005
0.025
0.02
0.035
0.015
0.015
0.01
-0.015
-0.005
0.005
-0.01
0.035
0.02
0.01
0.015
0.05
0.04
0.01
0.04
0.06
0.075
0.075
0.045
0.045
0.095
0.08
0.08
0.09
0.07
0.065
0.14
0.15
0.155
0.19
0.165
0.145
0.09
0.07
0.095
0.115
0.115
0.14
0.085
0.105
0.1
0.095
0.055
0.055
0.035
0.05
0.025
0.02
0.01
0.03
0.025
-0.01
0.01
0.02
0.01
-0.01
0.005
0.035
-0.005
-0.015
-0.05
-0.025
-0.03
-0.015
-0.04
-0.055
0.01
0.0
-0.005
-0.01
-0.02
-0.035
-0.02
-0.04
-0.04
-0.045
-0.08
-0.06
-0.085
-0.025
0.0
0.01
0.025
0.05
0.16
0.3
0.44
0.585
0.71
0.865
0.985
1.0
1.0
0.895
0.745
0.475
0.23
0.035
-0.14
-0.275
-0.33
-0.355
-0.375
-0.375
-0.365
-0.355
-0.33
-0.285
-0.245
-0.22
-0.19
-0.18
-0.135
-0.08
-0.115
-0.1
-0.08
-0.065
-0.035
-0.04
-0.035
-0.005
-0.05
-0.03
-0.025
-0.04
-0.025
-0.03
-0.015
-0.005
0.005
-0.015
-0.01
-0.035
-0.035
-0.03
-0.05
0.0
-0.005
0.0
0.005
-0.05
-0.03
-0.04
-0.025
-0.02
-0.005
0.005
0.035
-0.05
-0.015
-0.01
-0.015
0.0
0.0
0.025
0.03
0.005
0.025
0.05
0.03
0.02
0.03
0.025
0.015
0.015
0.05
0.035
0.035
0.015
0.02
0.03
0.02
0.06
0.03
0.035
0.11
0.095
0.065
0.08
0.075
0.085
0.1
0.085
0.095
0.105
0.1
0.145
0.16
0.14
0.105
0.12
0.13
0.135
0.165
0.16
0.185
0.195
0.21
0.225
0.23
0.175
0.155
0.19
0.21
0.22
0.245
0.23
0.19
0.25
0.255
0.21
0.245
0.245
0.235
0.24
0.225
0.25
0.24
0.265
0.235
0.21
0.195
0.21
0.195
0.2
0.19
0.155
0.185
0.155
0.12
0.085
0.085
0.08
0.07
0.085
0.085
0.09
0.09
0.05
0.025
0.04
0.04
0.0
-0.02
0.045
0.065
0.035
0.035
0.015
-0.01
-0.01
-0.01
-0.03
-0.015
-0.005
0.015
-0.005
-0.03
-0.005
0.0
-0.015
-0.01
-0.005
-0.025
-0.03
0.0
0.015
0.0
-0.04
-0.03
-0.01
0.0
-0.02
0.005
-0.02
0.01
0.02
0.035
0.0
-0.01
-0.015
-0.05
-0.045
-0.04
-0.01
-0.025
-0.015
0.0
0.0
0.01
0.01
0.0
-0.005
-0.02
-0.015
-0.015
-0.005
0.015
-0.005
-0.01
0.02
-0.035
-0.025
-0.015
0.0
-0.02
0.045
0.035
0.015
-0.04
-0.03
-0.055
-0.05
-0.015
-0.02
0.0
0.0
-0.01
-0.03
-0.025
-0.025
-0.025
-0.04
-0.02
0.0
-0.01
-0.05
-0.04
-0.03
-0.02
-0.01
0.005
-0.015
-0.06
-0.045
-0.055
-0.06
-0.04
-0.055
-0.045
-0.04
-0.035
-0.05
-0.03
-0.025
0.01
-0.03
-0.01
-0.05
-0.04
-0.07
-0.06
-0.075
-0.075
-0.04
-0.035
-0.035
-0.035
-0.05
-0.01
-0.045
-0.08
-0.065
-0.035
-0.01
-0.025
-0.025
-0.04
-0.05
-0.045
-0.04
-0.055
-0.075
-0.055
-0.06
-0.06
-0.045
-0.03
-0.035
-0.02
-0.07
-0.08
-0.07
-0.04
-0.03
-0.055
-0.055
-0.045
-0.085
-0.075
-0.005
-0.06
-0.075
-0.065
-0.07
-0.055
-0.06
-0.05
-0.055
-0.05
-0.04
-0.04
-0.08
-0.045
-0.055
-0.06
-0.045
-0.05
-0.035
-0.025
-0.065
-0.055
-0.015
-0.045
-0.05
-0.065
-0.055
-0.025
-0.05
-0.055
-0.055
-0.065
-0.07
-0.035
-0.055
-0.06
-0.025
-0.03
-0.065
-0.08
-0.09
-0.08
-0.065
-0.06
-0.045
-0.04
-0.015
-0.02
-0.09
-0.085
-0.075
-0.085
-0.065
-0.04
-0.065
-0.045
-0.045
-0.08
-0.07
-0.06
-0.06
-0.085
-0.075
-0.055
-0.045
-0.045
-0.035
-0.05
-0.07
-0.055
-0.05
-0.1
-0.09
-0.05
-0.065
-0.005
-0.02
-0.05
-0.06
-0.05
-0.055
-0.085
-0.05
-0.01
-0.04
0.005
0.01
0.005
-0.015
0.01
0.01
-0.005
0.025
0.025
0.065
0.075
0.065
0.11
0.08
0.08
0.01
-0.01
0.035
0.065
0.025
0.035
0.04
-0.01
-0.05
-0.035
-0.025
-0.03
-0.035
-0.02
-0.06
-0.005
-0.025
-0.045
-0.08
-0.08
-0.085
-0.09
-0.06
-0.02
-0.07
-0.075
-0.105
-0.075
-0.06
-0.105
-0.12
-0.09
-0.07
-0.06
-0.05
-0.085
-0.085
-0.1
-0.07
-0.07
-0.14
-0.14
-0.125
-0.13
-0.115
-0.125
-0.1
-0.045
-0.08
-0.025
0.025
0.135
0.245
0.415
0.595
0.74
0.895
0.955
0.99
1.0
0.905
0.675
0.48
0.22
0.035
-0.11
-0.23
-0.36
-0.365
-0.36
-0.38
-0.36
-0.335
-0.315
-0.265
-0.225
-0.215
-0.2
-0.165
-0.135
-0.105
-0.135
-0.125
-0.085
-0.08
-0.06
-0.07
-0.08
-0.09
-0.085
-0.1
-0.08
-0.075
-0.1
-0.055
-0.085
-0.115
-0.045
-0.065
-0.1
-0.09
-0.085
-0.035
-0.055
-0.045
-0.055
-0.06
-0.025
-0.07
-0.065
-0.07
-0.09
-0.075
-0.055
-0.01
-0.04
-0.045
-0.05
-0.015
-0.055
-0.04
-0.06
-0.035
-0.055
-0.025
-0.005
-0.035
-0.04
-0.01
-0.025
-0.01
0.02
-0.02
0.015
-0.035
-0.03
-0.025
0.015
0.005
-0.02
0.005
0.02
-0.015
0.005
0.02
0.02
0.005
0.02
0.045
0.02
0.045
0.065
0.055
0.07
0.07
0.09
0.07
0.08
0.085
0.085
0.075
0.115
0.125
0.15
0.13
0.16
0.13
0.12
0.13
0.12
0.175
0.19
0.165
0.185
0.2
0.185
0.175
0.16
0.145
0.21
0.205
0.19
0.22
0.185
0.17
0.195
0.17
0.2
0.17
0.175
0.17
0.15
0.115
0.115
0.14
0.105
0.075
0.085
0.065
0.04
0.04
0.045
0.03
0.025
0.015
0.005
0.015
0.02
-0.015
-0.035
-0.04
-0.03
-0.03
0.005
-0.015
-0.05
-0.05
-0.025
-0.06
-0.08
-0.065
-0.045
-0.06
-0.065
-0.065
-0.06
-0.05
-0.025
-0.065
-0.08
-0.08
-0.07
-0.075
-0.075
-0.05
-0.055
-0.055
-0.03
-0.065
-0.095
-0.095
-0.09
-0.09
-0.05
-0.035
-0.045
-0.07
-0.065
-0.055
-0.06
-0.085
-0.035
-0.065
-0.055
-0.025
-0.045
-0.05
-0.075
-0.075
-0.06
-0.035
-0.05
-0.06
-0.07
-0.04
-0.045
-0.06
-0.05
-0.06
-0.055
-0.055
-0.075
-0.075
-0.06
-0.05
-0.035
-0.05
-0.05
-0.06
-0.07
-0.09
-0.09
-0.02
-0.025
-0.015
-0.055
-0.045
-0.065
-0.065
-0.04
-0.04
-0.04
-0.05
-0.02
0.01
-0.045
-0.085
-0.115
-0.11
-0.065
-0.045
-0.065
-0.06
-0.035
-0.045
-0.075
-0.085
-0.085
-0.09
-0.07
-0.05
-0.035
-0.08
-0.065
-0.06
-0.07
-0.07
-0.07
-0.03
-0.1
-0.095
-0.045
-0.065
-0.055
-0.05
-0.08
-0.08
-0.075
-0.08
-0.08
-0.085
-0.09
-0.1
-0.085
-0.055
-0.07
-0.115
-0.1
-0.115
-0.1
-0.085
-0.105
-0.09
-0.11
-0.055
-0.065
-0.085
-0.095
-0.125
-0.11
-0.105
-0.11
-0.095
-0.075
-0.065
-0.08
-0.09
-0.11
-0.1
-0.085
-0.125
-0.095
-0.09
-0.075
-0.1
-0.095
-0.08
-0.1
-0.11
-0.105
-0.095
-0.09
-0.095
-0.07
-0.05
-0.07
-0.105
-0.14
-0.1
-0.085
-0.11
-0.085
-0.09
-0.085
-0.095
-0.12
-0.1
-0.105
-0.11
-0.115
-0.115
-0.085
-0.08
-0.08
-0.115
-0.1
-0.09
-0.085
-0.13
-0.105
-0.105
-0.115
-0.1
-0.09
-0.08
-0.105
-0.125
-0.14
-0.11
-0.11
-0.105
-0.11
-0.125
-0.09
-0.045
-0.115
-0.08
-0.12
-0.115
-0.11
-0.09
-0.09
-0.08
-0.11
-0.1
-0.08
-0.075
-0.135
-0.135
-0.09
-0.1
-0.095
-0.08
-0.085
-0.1
-0.09
-0.11
-0.125
-0.11
-0.105
-0.12
-0.06
-0.095
-0.085
-0.07
-0.09
-0.06
-0.07
-0.07
-0.105
-0.1
-0.05
-0.025
-0.055
-0.04
-0.02
-0.02
-0.035
-0.025
-0.035
-0.03
-0.035
-0.02
0.0
-0.005
0.02
-0.005
0.025
0.02
0.01
0.005
0.045
0.01
0.005
0.0
0.01
-0.005
0.015
0.03
-0.02
-0.065
-0.04
-0.05
-0.075
-0.025
-0.02
-0.065
-0.08
-0.1
-0.15
-0.13
-0.1
-0.085
-0.08
-0.07
-0.12
-0.145
-0.11
-0.14
-0.175
-0.115
-0.095
-0.115
-0.095
-0.075
-0.075
-0.11
-0.12
-0.14
-0.11
-0.11
-0.095
-0.145
-0.155
-0.13
-0.17
-0.18
-0.17
-0.1
-0.1
-0.09
-0.02
0.09
0.19
0.335
0.51
0.665
0.85
0.94
0.98
0.985
0.93
0.815
0.58
0.32
0.095
-0.09
-0.28
-0.375
-0.43
-0.4
-0.405
-0.42
-0.39
-0.37
-0.355
-0.32
-0.285
-0.27
-0.235
-0.195
-0.14
-0.08
-0.095
-0.16
-0.145
-0.135
-0.135
-0.095
-0.105
-0.095
-0.085
-0.095
-0.07
-0.105
-0.12
-0.105
-0.135
-0.1
-0.115
-0.125
-0.1
-0.09
-0.1
-0.045
-0.075
-0.115
-0.115
-0.075
-0.105
-0.09
-0.065
-0.09
-0.095
-0.055
-0.055
-0.105
-0.1
-0.075
-0.085
-0.07
-0.05
-0.015
-0.035
-0.075
-0.075
-0.085
-0.06
-0.045
-0.025
-0.04
-0.04
-0.045
-0.01
-0.05
-0.035
-0.01
0.015
-0.045
-0.01
-0.015
-0.015
-0.025
0.0
0.0
-0.03
-0.03
-0.005
-0.005
0.03
0.015
0.005
0.035
0.025
0.015
0.03
0.035
0.025
0.05
0.07
0.075
0.055
0.075
0.095
0.1
0.09
0.095
0.095
0.08
0.145
0.16
0.12
0.125
0.14
0.14
0.13
0.11
0.095
0.15
0.175
0.15
0.165
0.165
0.17
0.155
0.165
0.13
0.13
0.1
0.095
0.135
0.145
0.08
0.09
0.095
0.08
0.09
0.05
0.055
0.05
0.05
0.025
0.035
0.02
-0.02
-0.005
-0.01
-0.035
-0.035
-0.05
-0.055
-0.055
-0.05
-0.065
-0.055
-0.07
-0.075
-0.04
-0.04
-0.075
-0.095
-0.12
-0.105
-0.11
-0.13
-0.11
-0.095
-0.11
-0.105
-0.115
-0.115
-0.125
-0.08
-0.07
-0.07
-0.06
-0.12
-0.105
-0.11
-0.11
-0.105
-0.1
-0.1
-0.105
-0.105
-0.095
-0.095
-0.105
-0.11
-0.085
-0.125
-0.11
-0.075
-0.08
-0.06
-0.06
-0.095
-0.175
-0.135
-0.125
-0.08
-0.11
-0.085
-0.105
-0.125
-0.115
-0.09
-0.11
-0.115
-0.125
-0.11
-0.055
-0.08
-0.055
-0.09
-0.115
-0.14
-0.095
-0.095
-0.075
-0.065
-0.08
-0.09
-0.1
-0.125
-0.105
-0.11
-0.12
-0.09
-0.095
-0.075
-0.08
-0.1
-0.09
-0.095
-0.075
-0.14
-0.13
-0.1
-0.06
-0.085
-0.08
-0.07
-0.09
-0.135
-0.06
-0.08
-0.135
-0.13
-0.11
-0.13
-0.13
-0.1
-0.095
-0.11
-0.095
-0.07
-0.085
-0.12
-0.115
-0.1
-0.085
-0.04
-0.085
-0.12
-0.095
-0.08
-0.085
-0.14
-0.09
-0.095
-0.11
-0.085
-0.095
-0.125
-0.12
-0.11
-0.15
-0.12
-0.085
-0.1
-0.1
-0.105
-0.105
-0.08
-0.105
-0.1
-0.115
-0.12
-0.12
-0.12
-0.11
-0.1
-0.1
-0.125
-0.105
-0.14
-0.09
-0.075
-0.095
-0.095
-0.135
-0.1
-0.085
-0.09
-0.095
-0.125
-0.105
-0.135
-0.105
-0.105
-0.095
-0.12
-0.095
-0.11
-0.125
-0.12
-0.11
-0.115
-0.105
-0.105
-0.075
-0.1
-0.11
-0.115
-0.105
-0.115
-0.125
-0.11
-0.1
-0.11
-0.095
-0.075
-0.09
-0.115
-0.11
-0.095
-0.105
-0.13
-0.115
-0.115
-0.095
-0.07
-0.095
-0.1
-0.105
-0.13
-0.115
-0.135
-0.095
-0.08
-0.15
-0.16
-0.155
-0.165
-0.22
-0.235
-0.24
-0.235
-0.215
-0.21
-0.22
-0.24
-0.265
-0.275
-0.25
-0.285
-0.28
-0.3
-0.3
-0.28
-0.27
-0.26
-0.31
-0.295
-0.315
-0.32
-0.32
-0.32
-0.335
-0.325
-0.335
-0.34
-0.305
-0.305
-0.33
-0.305
-0.345
-0.31
-0.335
-0.32
-0.32
-0.32
-0.345
-0.34
-0.34
-0.345
-0.355
-0.375
-0.35
-0.36
-0.34
-0.325
-0.33
-0.34
-0.355
-0.33
-0.32
-0.335
-0.35
-0.305
-0.34
-0.35
-0.35
-0.33
-0.325
-0.325
-0.325
-0.335
-0.345
-0.285
-0.275
-0.285
-0.3
-0.315
-0.3
-0.285
-0.26
-0.28
-0.275
-0.245
-0.245
-0.23
-0.205
-0.22
-0.215
-0.215
-0.22
-0.25
-0.23
-0.24
-0.21
-0.245
-0.275
-0.275
-0.27
-0.27
-0.26
-0.26
-0.3
-0.305
-0.27
-0.335
-0.315
-0.31
-0.33
-0.35
-0.33
-0.31
-0.32
-0.315
-0.305
-0.385
-0.34
-0.34
-0.35
-0.37
-0.375
-0.335
-0.32
-0.35
-0.325
-0.355
-0.345
-0.355
-0.355
-0.35
-0.325
-0.35
-0.365
-0.375
-0.35
-0.38
-0.38
-0.38
-0.345
-0.33
-0.335
-0.25
-0.125
0.055
0.185
0.33
0.485
0.635
0.745
0.78
0.775
0.745
0.565
0.335
0.075
-0.165
-0.335
-0.5
-0.595
-0.655
-0.655
-0.61
-0.59
-0.61
-0.575
-0.56
-0.52
-0.515
-0.53
-0.47
-0.37
-0.38
-0.375
-0.335
-0.3
-0.305
-0.27
-0.29
-0.325
-0.34
-0.3
-0.24
-0.33
-0.295
-0.275
-0.28
-0.29
-0.29
-0.295
-0.265
-0.265
-0.24
-0.28
-0.285
-0.24
-0.25
-0.29
-0.3
-0.28
-0.25
-0.255
-0.26
-0.26
-0.255
-0.21
-0.205
-0.24
-0.26
-0.27
-0.24
-0.22
-0.22
-0.22
-0.225
-0.225
-0.22
-0.215
-0.21
-0.195
-0.21
-0.205
-0.225
-0.19
-0.15
-0.185
-0.19
-0.2
-0.19
-0.215
-0.17
-0.125
-0.11
-0.155
-0.18
-0.175
-0.15
-0.16
-0.155
-0.12
-0.125
-0.11
-0.1
-0.135
-0.075
-0.04
-0.085
-0.11
-0.115
-0.11
-0.055
-0.05
-0.045
0.0
-0.005
-0.08
-0.06
-0.06
-0.025
-0.02
0.015
0.015
0.005
0.005
0.035
0.005
-0.01
-0.01
0.03
0.03
0.02
0.06
0.04
0.07
0.025
0.01
0.03
0.03
0.025
0.025
0.03
0.02
0.045
0.035
-0.005
-0.005
-0.015
-0.04
-0.04
-0.035
-0.045
-0.065
-0.07
-0.045
-0.1
-0.11
-0.085
-0.11
-0.125
-0.16
-0.175
-0.155
-0.13
-0.115
-0.165
-0.185
-0.18
-0.195
-0.215
-0.165
-0.14
-0.19
-0.205
-0.17
-0.155
-0.185
-0.205
-0.215
-0.215
-0.18
-0.215
-0.23
-0.2
-0.22
-0.225
-0.2
-0.195
-0.2
-0.2
-0.18
-0.17
-0.21
-0.17
-0.2
-0.19
-0.195
-0.205
-0.185
-0.15
-0.17
-0.195
-0.22
-0.17
-0.185
-0.19
-0.19
-0.17
-0.165
-0.23
-0.21
-0.19
-0.165
-0.13
-0.155
-0.185
-0.215
-0.18
-0.21
-0.19
-0.165
-0.16
-0.195
-0.205
-0.195
-0.175
-0.2
-0.16
-0.155
-0.15
-0.135
-0.135
-0.175
-0.18
-0.185
-0.185
-0.185
-0.225
-0.145
-0.155
-0.2
-0.185
-0.16
-0.17
-0.155
-0.17
-0.21
-0.19
-0.205
-0.185
-0.16
-0.18
-0.17
-0.145
-0.16
-0.17
-0.16
-0.18
-0.19
-0.21
-0.19
-0.17
-0.195
-0.19
-0.16
-0.165
-0.175
-0.17
-0.205
-0.195
-0.185
-0.165
-0.18
-0.17
-0.165
-0.165
-0.18
-0.22
-0.22
-0.235
-0.185
-0.18
-0.175
-0.17
-0.175
-0.165
-0.215
-0.165
-0.165
-0.185
-0.2
-0.215
-0.195
-0.155
-0.14
-0.18
-0.185
-0.19
-0.175
-0.19
-0.215
-0.205
-0.175
-0.17
-0.185
-0.195
-0.195
-0.18
-0.245
-0.205
-0.2
-0.195
-0.18
-0.18
-0.175
-0.15
-0.185
-0.2
-0.205
-0.205
-0.18
-0.18
-0.185
-0.16
-0.165
-0.17
-0.145
-0.18
-0.21
-0.2
-0.18
-0.185
-0.19
-0.155
-0.155
-0.195
-0.18
-0.17
-0.2
-0.185
-0.145
-0.185
-0.185
-0.19
-0.155
-0.16
-0.185
-0.175
-0.165
-0.215
-0.185
-0.19
-0.16
-0.17
-0.195
-0.185
-0.18
-0.145
-0.15
-0.175
-0.18
-0.145
-0.15
-0.14
-0.18
-0.175
-0.185
-0.185
-0.185
-0.16
-0.165
-0.16
-0.155
-0.15
-0.165
-0.18
-0.16
-0.18
-0.18
-0.155
-0.165
-0.165
-0.19
-0.17
-0.18
-0.16
-0.195
-0.175
-0.17
-0.145
-0.18
-0.16
-0.165
-0.165
-0.165
-0.14
-0.165
-0.155
-0.16
-0.17
-0.19
-0.14
-0.15
-0.145
-0.175
-0.12
-0.145
-0.185
-0.18
-0.155
-0.12
-0.14
-0.11
-0.145
-0.155
-0.145
-0.165
-0.14
-0.135
-0.165
-0.15
-0.12
-0.11
-0.095
-0.125
-0.12
-0.155
-0.155
-0.135
-0.115
-0.11
-0.1
-0.075
-0.105
-0.105
-0.095
-0.085
-0.075
-0.055
-0.03
-0.01
-0.01
-0.015
-0.025
-0.02
-0.04
-0.02
-0.035
-0.065
-0.09
-0.01
-0.045
-0.03
-0.07
-0.05
-0.065
-0.09
-0.095
-0.08
-0.09
-0.095
-0.085
-0.125
-0.17
-0.125
-0.13
-0.165
-0.175
-0.185
-0.16
-0.145
-0.15
-0.14
-0.145
-0.2
-0.165
-0.17
-0.185
-0.175
-0.18
-0.15
-0.165
-0.165
-0.18
-0.155
-0.175
-0.18
-0.145
-0.165
-0.175
-0.21
-0.235
-0.22
-0.165
-0.135
-0.11
-0.05
0.005
0.105
0.285
0.415
0.585
0.755
0.89
0.96
0.955
0.905
0.795
0.64
0.38
0.115
-0.115
-0.285
-0.425
-0.505
-0.485
-0.45
-0.435
-0.445
-0.435
-0.43
-0.375
-0.355
-0.33
-0.285
-0.29
-0.26
-0.23
-0.2
-0.165
-0.155
-0.12
-0.125
-0.165
-0.14
-0.11
-0.105
-0.135
-0.155
-0.14
-0.115
-0.12
-0.1
-0.09
-0.15
-0.13
-0.135
-0.15
-0.115
-0.11
-0.095
-0.085
-0.095
-0.115
-0.095
-0.095
-0.1
-0.105
-0.055
-0.08
-0.11
-0.07
-0.09
-0.09
-0.08
-0.085
-0.105
-0.085
-0.065
-0.05
-0.07
-0.04
-0.015
-0.075
-0.08
-0.065
-0.07
-0.05
-0.015
-0.06
-0.055
-0.025
-0.055
-0.02
0.0
-0.04
-0.025
0.0
-0.01
-0.035
-0.025
-0.015
0.005
-0.005
0.01
0.005
0.03
0.04
-0.01
0.05
0.08
0.085
0.065
0.055
0.055
0.045
0.045
0.04
0.11
0.135
0.135
0.12
0.105
0.11
0.135
0.12
0.135
0.135
0.145
0.155
0.16
0.175
0.17
0.175
0.155
0.135
0.185
0.16
0.17
0.18
0.215
0.195
0.18
0.135
0.18
0.15
0.155
0.16
0.15
0.145
0.145
0.105
0.09
0.08
0.055
0.05
0.105
0.12
0.03
0.035
0.06
0.02
0.005
0.01
-0.005
-0.05
-0.035
-0.035
-0.025
-0.03
-0.055
-0.045
-0.03
-0.07
-0.085
-0.095
-0.1
-0.07
-0.08
-0.07
-0.055
-0.065
-0.07
-0.09
-0.1
-0.065
-0.055
-0.06
-0.06
-0.075
-0.08
-0.08
-0.065
-0.09
-0.105
-0.05
-0.07
-0.1
-0.06
-0.065
-0.065
-0.08
-0.09
-0.04
0.0
-0.09
-0.08
-0.05
-0.09
-0.07
-0.04
-0.055
-0.015
-0.06
-0.07
-0.065
-0.07
-0.065
-0.06
-0.055
-0.03
-0.06
-0.055
-0.045
-0.065
-0.07
-0.045
-0.06
-0.075
-0.065
-0.05
-0.04
-0.025
-0.05
-0.065
-0.065
-0.045
-0.065
-0.045
-0.015
-0.01
-0.035
-0.065
-0.07
-0.045
-0.07
-0.045
-0.05
-0.075
-0.03
0.015
-0.005
-0.025
-0.05
-0.045
-0.07
-0.07
-0.035
-0.045
-0.045
-0.04
-0.055
-0.05
-0.045
-0.075
-0.11
-0.06
-0.025
-0.06
-0.045
-0.02
-0.03
-0.08
-0.09
-0.095
-0.065
-0.055
-0.04
-0.055
-0.07
-0.04
-0.065
-0.075
-0.06
-0.05
-0.045
-0.09
-0.08
-0.075
-0.055
-0.05
-0.035
-0.04
-0.065
-0.055
-0.065
-0.07
-0.04
-0.055
-0.04
-0.025
-0.06
-0.1
-0.075
-0.075
-0.055
-0.04
-0.075
-0.035
-0.055
-0.08
-0.07
-0.08
-0.095
-0.08
-0.075
-0.08
-0.065
-0.055
-0.055
-0.035
-0.095
-0.06
-0.035
-0.07
-0.08
-0.065
-0.015
-0.065
-0.055
-0.055
-0.09
-0.085
-0.095
-0.085
-0.045
-0.05
-0.065
-0.035
-0.055
-0.03
-0.05
-0.065
-0.085
-0.085
-0.1
-0.06
-0.05
-0.06
-0.04
-0.03
-0.03
-0.06
-0.065
-0.03
-0.055
-0.06
-0.075
-0.06
-0.055
-0.03
-0.06
-0.075
-0.055
-0.065
-0.05
-0.035
-0.055
-0.035
-0.03
-0.065
-0.055
-0.04
-0.065
-0.08
-0.075
-0.05
-0.065
-0.085
-0.09
-0.1
-0.025
-0.025
-0.095
-0.06
-0.045
-0.06
-0.05
-0.04
-0.055
-0.085
-0.07
-0.02
-0.04
-0.085
-0.06
-0.05
-0.055
-0.025
0.015
-0.05
-0.075
-0.06
-0.07
-0.015
-0.04
-0.07
-0.045
-0.01
0.03
-0.01
-0.02
-0.005
-0.005
-0.01
-0.005
-0.03
0.005
0.03
0.02
0.035
0.035
0.055
0.055
0.065
0.07
0.055
0.06
0.075
0.06
0.085
0.06
0.05
0.055
0.045
0.045
0.05
0.05
0.04
0.015
-0.005
-0.015
-0.015
-0.01
-0.03
-0.065
-0.04
-0.03
-0.03
-0.025
-0.07
-0.095
-0.07
-0.065
-0.075
-0.03
-0.04
-0.06
-0.015
-0.045
-0.045
-0.05
-0.02
-0.095
-0.08
-0.09
-0.065
-0.03
-0.085
-0.065
-0.065
-0.105
-0.095
-0.12
-0.13
-0.115
-0.085
-0.05
-0.015
0.015
0.105
0.235
0.355
0.515
0.645
0.81
0.95
1.05
1.055
1.065
0.925
0.63
0.37
0.105
-0.08
-0.25
-0.34
-0.39
-0.365
-0.36
-0.4
-0.37
-0.31
-0.335
-0.32
-0.265
-0.22
-0.195
-0.17
-0.14
-0.15
-0.14
-0.105
-0.095
-0.105
-0.05
-0.04
-0.03
-0.035
-0.075
-0.065
-0.07
-0.04
-0.055
-0.06
-0.035
-0.035
-0.02
-0.02
-0.03
-0.03
-0.03
-0.08
-0.02
-0.04
-0.02
-0.01
-0.025
-0.02
-0.015
-0.03
-0.005
-0.01
-0.02
-0.04
-0.015
-0.03
0.0
0.0
0.005
-0.005
0.015
0.005
-0.005
-0.005
0.01
-0.025
0.01
0.025
0.035
0.025
0.045
0.075
0.04
0.025
0.04
0.03
0.055
0.06
0.06
0.025
0.05
0.07
0.045
0.06
0.095
0.08
0.085
0.085
0.1
0.08
0.07
0.11
0.12
0.145
0.14
0.105
0.145
0.16
0.165
0.13
0.165
0.165
0.14
0.13
0.155
0.19
0.22
0.245
0.225
0.23
0.22
0.23
0.2
0.225
0.21
0.22
0.21
0.21
0.23
0.245
0.22
0.195
0.21
0.23
0.215
0.235
0.27
0.255
0.175
0.165
0.165
0.2
0.17
0.155
0.14
0.175
0.135
0.105
0.095
0.12
0.08
0.075
0.09
0.06
0.05
0.05
0.035
0.05
0.03
0.015
0.035
-0.005
0.02
0.0
0.0
-0.025
-0.015
-0.03
-0.035
-0.025
-0.055
-0.07
-0.01
0.0
-0.02
-0.025
-0.01
-0.005
-0.03
-0.005
-0.02
-0.055
-0.06
-0.05
-0.015
0.0
-0.005
-0.015
-0.045
-0.065
-0.05
-0.01
-0.005
-0.025
-0.035
-0.03
-0.015
-0.07
-0.065
-0.05
-0.06
-0.005
-0.02
-0.01
-0.015
0.005
-0.01
-0.01
-0.01
-0.015
-0.035
-0.055
0.005
-0.04
-0.025
-0.025
-0.015
-0.005
-0.035
-0.02
-0.03
-0.02
-0.005
-0.02
0.0
-0.015
-0.015
0.0
0.0
-0.03
-0.055
-0.045
-0.015
-0.025
-0.035
-0.03
-0.035
-0.045
-0.04
0.005
-0.05
-0.03
-0.025
0.015
-0.005
-0.015
0.01
-0.025
-0.065
-0.055
-0.05
-0.035
-0.025
-0.005
0.015
0.0
-0.03
-0.035
-0.05
-0.025
-0.025
-0.025
-0.045
-0.055
-0.07
-0.045
-0.03
-0.04
-0.045
-0.02
-0.055
-0.05
-0.045
-0.035
-0.045
-0.05
-0.06
-0.075
-0.08
-0.065
-0.075
-0.07
-0.05
-0.055
-0.06
-0.035
-0.025
-0.05
-0.07
-0.065
-0.045
-0.07
-0.05
-0.03
-0.06
-0.04
-0.045
-0.07
-0.085
-0.03
-0.045
-0.06
-0.08
-0.045
-0.03
-0.02
-0.05
-0.085
-0.07
-0.055
-0.07
-0.08
-0.04
-0.06
-0.06
-0.04
-0.03
-0.05
-0.035
-0.09
-0.085
-0.08
-0.06
-0.065
-0.055
-0.04
-0.03
-0.045
-0.07
-0.1
-0.09
-0.07
-0.035
-0.055
-0.04
-0.025
-0.065
-0.07
-0.065
-0.045
-0.08
-0.07
-0.055
-0.06
-0.06
-0.055
-0.07
-0.065
-0.065
-0.09
-0.065
-0.03
-0.025
-0.07
-0.03
-0.05
-0.08
-0.04
-0.06
-0.085
-0.055
-0.05
-0.005
-0.07
-0.085
-0.065
-0.05
-0.035
-0.07
-0.065
-0.08
-0.08
-0.04
-0.04
-0.06
-0.055
-0.045
-0.055
-0.08
-0.065
-0.085
-0.055
-0.045
-0.04
-0.03
-0.03
-0.075
-0.07
-0.03
-0.035
-0.055
-0.04
-0.045
-0.03
-0.02
0.01
0.005
-0.005
0.0
-0.005
0.02
0.035
0.02
0.015
0.06
0.035
0.025
0.045
0.055
0.06
0.06
0.055
0.035
0.045
0.065
0.08
0.01
-0.005
0.02
0.02
0.015
0.03
0.005
-0.02
0.01
-0.045
-0.06
-0.01
-0.04
-0.08
-0.095
-0.045
-0.06
-0.06
-0.02
-0.075
-0.08
-0.085
-0.08
-0.085
-0.08
-0.085
-0.055
-0.065
-0.075
-0.07
-0.065
-0.085
-0.08
-0.095
-0.08
-0.095
-0.095
-0.095
-0.08
-0.09
-0.085
-0.165
-0.12
-0.09
-0.07
-0.035
0.035
0.18
0.305
0.46
0.605
0.73
0.885
0.98
1.015
1.005
0.92
0.735
0.52
0.27
0.07
-0.14
-0.32
-0.4
-0.395
-0.38
-0.385
-0.41
-0.395
-0.345
-0.355
-0.295
-0.245
-0.22
-0.18
-0.155
-0.155
-0.1
-0.1
-0.11
-0.1
-0.105
-0.09
-0.08
-0.075
-0.065
-0.06
-0.045
-0.07
-0.065
-0.08
-0.07
-0.05
-0.06
-0.065
-0.055
-0.05
0.005
-0.04
-0.095
-0.08
-0.065
-0.075
-0.095
-0.08
-0.06
-0.07
-0.065
-0.005
-0.035
-0.075
-0.04
-0.05
-0.055
-0.03
-0.01
-0.025
-0.02
-0.005
-0.04
-0.065
-0.005
-0.005
-0.02
0.005
0.005
-0.015
0.0
0.015
0.02
-0.02
0.005
0.015
-0.005
0.0
0.025
0.055
0.045
0.03
0.055
0.01
0.03
0.01
0.025
0.045
0.035
0.085
0.09
0.075
0.08
0.075
0.07
0.06
0.05
0.085
0.09
0.1
0.11
0.12
0.115
0.115
0.145
0.155
0.195
0.18
0.16
0.165
0.17
0.195
0.185
0.165
0.145
0.175
0.195
0.21
0.22
0.2
0.2
0.22
0.235
0.17
0.21
0.195
0.17
0.175
0.19
0.21
0.195
0.18
0.18
0.12
0.07
0.04
0.1
0.095
0.055
0.035
0.0
0.03
0.005
0.025
0.01
-0.015
-0.015
0.0
-0.005
-0.03
0.03
-0.025
-0.025
-0.04
-0.045
-0.05
-0.07
-0.045
-0.055
-0.055
-0.06
-0.05
-0.05
-0.05
-0.06
-0.02
-0.015
-0.04
-0.075
-0.065
-0.085
-0.105
-0.085
-0.045
-0.055
-0.09
-0.105
-0.095
-0.075
-0.04
-0.065
-0.055
-0.115
-0.035
-0.115
-0.065
-0.075
-0.105
-0.075
-0.055
-0.045
-0.06
-0.05
-0.045
-0.08
-0.11
-0.05
-0.025
-0.03
-0.04
-0.035
-0.07
-0.07
-0.06
-0.075
-0.065
-0.04
-0.025
-0.03
-0.06
-0.09
-0.05
-0.08
-0.085
-0.085
-0.085
-0.08
-0.07
-0.08
-0.045
-0.025
-0.045
-0.05
-0.085
-0.1
-0.065
-0.055
-0.06
-0.03
-0.045
-0.05
-0.085
-0.08
-0.09
-0.11
-0.09
-0.045
-0.075
-0.065
-0.05
-0.055
-0.055
-0.07
-0.085
-0.11
-0.08
-0.08
-0.065
-0.05
-0.085
-0.07
-0.09
-0.105
-0.085
-0.105
-0.115
-0.055
-0.04
-0.055
-0.1
-0.115
-0.095
-0.09
-0.09
-0.12
-0.13
-0.09
-0.08
-0.08
-0.105
-0.07
-0.15
-0.15
-0.1
-0.12
-0.095
-0.095
-0.06
-0.085
-0.11
-0.1
-0.09
-0.125
-0.1
-0.13
-0.12
-0.08
-0.1
-0.09
-0.045
-0.105
-0.09
-0.08
-0.09
-0.12
-0.125
-0.1
-0.115
-0.095
-0.06
-0.05
-0.12
-0.135
-0.105
-0.11
-0.135
-0.08
-0.07
-0.11
-0.115
-0.14
-0.105
-0.13
-0.1
-0.095
-0.11
-0.095
-0.11
-0.085
-0.095
-0.065
-0.125
-0.115
-0.11
-0.1
-0.105
-0.12
-0.085
-0.08
-0.08
-0.045
-0.125
-0.105
-0.095
-0.13
-0.105
-0.105
-0.12
-0.075
-0.075
-0.08
-0.1
-0.095
-0.105
-0.095
-0.075
-0.085
-0.14
-0.1
-0.09
-0.105
-0.11
-0.11
-0.12
-0.125
-0.08
-0.065
-0.07
-0.065
-0.08
-0.125
-0.115
-0.085
-0.105
-0.14
-0.07
-0.09
-0.085
-0.08
-0.085
-0.095
-0.11
-0.09
-0.095
-0.06
-0.08
-0.065
-0.08
-0.055
-0.04
-0.055
-0.065
-0.11
-0.09
-0.065
-0.03
-0.04
-0.04
-0.02
-0.02
0.015
-0.01
-0.02
-0.02
0.0
0.025
0.035
0.04
0.05
0.015
0.015
0.0
0.01
0.0
-0.01
0.03
0.025
0.005
-0.015
-0.025
0.025
-0.04
-0.095
-0.04
-0.045
-0.035
-0.1
-0.105
-0.11
-0.08
-0.125
-0.095
-0.13
-0.125
-0.125
-0.11
-0.1
-0.11
-0.105
-0.13
-0.1
-0.125
-0.12
-0.13
-0.125
-0.085
-0.15
-0.12
-0.105
-0.12
-0.15
-0.175
-0.145
-0.16
-0.19
-0.195
-0.185
-0.17
-0.095
-0.12
-0.09
0.015
0.1
0.225
0.39
0.525
0.68
0.86
0.97
0.98
0.96
0.895
0.7
0.47
0.22
-0.025
-0.185
-0.315
-0.42
-0.475
-0.465
-0.44
-0.475
-0.44
-0.405
-0.37
-0.37
-0.33
-0.3
-0.25
-0.235
-0.235
-0.18
-0.165
-0.14
-0.14
-0.15
-0.14
-0.155
-0.155
-0.145
-0.14
-0.16
-0.13
-0.085
-0.115
-0.115
-0.125
-0.135
-0.145
-0.12
-0.135
-0.115
-0.105
-0.115
-0.135
-0.16
-0.08
-0.065
-0.085
-0.065
-0.08
-0.13
-0.145
-0.13
-0.12
-0.095
-0.085
-0.095
-0.125
-0.11
-0.1
-0.06
-0.065
-0.06
-0.105
-0.115
-0.09
-0.08
-0.07
-0.075
-0.09
-0.09
-0.07
-0.08
-0.075
-0.055
-0.015
-0.065
-0.05
-0.01
-0.045
-0.045
-0.015
-0.03
-0.04
-0.015
0.005
0.01
-0.035
-0.01
-0.025
0.01
0.005
-0.035
0.005
0.03
0.045
0.03
0.04
0.03
0.035
0.075
0.065
0.07
0.045
0.075
0.095
0.065
0.055
0.085
0.11
0.115
0.145
0.145
0.115
0.11
0.135
0.14
0.115
0.145
0.15
0.115
0.125
0.155
0.12
0.125
0.175
0.125
0.105
0.115
0.1
0.09
0.085
0.09
0.075
0.065
0.07
0.05
0.005
0.015
0.055
-0.005
-0.025
0.005
0.005
-0.01
-0.055
-0.055
-0.04
-0.07
-0.115
-0.13
-0.1
-0.04
-0.08
-0.125
-0.13
-0.095
-0.115
-0.105
-0.12
-0.12
-0.13
-0.135
-0.11
-0.105
-0.11
-0.145
-0.12
-0.155
-0.135
-0.105
-0.12
-0.12
-0.125
-0.09
-0.105
-0.145
-0.135
-0.13
-0.145
-0.165
-0.11
-0.095
-0.12
-0.105
-0.12
-0.105
-0.13
-0.14
-0.15
-0.14
-0.12
-0.125
-0.135
-0.09
-0.095
-0.105
-0.15
-0.135
-0.105
-0.135
-0.13
-0.12
-0.105
-0.13
-0.115
-0.12
-0.125
-0.105
-0.125
-0.085
-0.11
-0.11
-0.095
-0.11
-0.1
-0.13
-0.11
-0.06
-0.135
-0.14
-0.1
-0.12
-0.085
-0.115
-0.135
-0.125
-0.095
-0.12
-0.13
-0.13
-0.13
-0.13
-0.125
-0.1
-0.13
-0.105
-0.1
-0.11
-0.13
-0.145
-0.12
-0.135
-0.11
-0.11
-0.13
-0.145
-0.12
-0.12
-0.125
-0.12
-0.115
-0.105
-0.09
-0.1
-0.165
-0.165
-0.13
-0.11
-0.14
-0.12
-0.105
-0.11
-0.115
-0.1
-0.14
-0.155
-0.12
-0.155
-0.185
-0.155
-0.135
-0.145
-0.135
-0.13
-0.11
-0.135
-0.14
-0.145
-0.16
-0.155
-0.16
-0.135
-0.105
-0.07
-0.13
-0.145
-0.095
-0.16
-0.175
-0.14
-0.115
-0.115
-0.14
-0.16
-0.145
-0.1
-0.115
-0.17
-0.155
-0.135
-0.16
-0.155
-0.145
-0.13
-0.14
-0.13
-0.15
-0.145
-0.15
-0.145
-0.16
-0.16
-0.13
-0.115
-0.145
-0.135
-0.12
-0.11
-0.14
-0.145
-0.13
-0.16
-0.135
-0.13
-0.11
-0.125
-0.16
-0.17
-0.16
-0.145
-0.16
-0.155
-0.145
-0.145
-0.145
-0.145
-0.17
-0.205
-0.13
-0.08
-0.12
-0.145
-0.14
-0.135
-0.18
-0.15
-0.13
-0.175
-0.19
-0.145
-0.15
-0.115
-0.11
-0.155
-0.15
-0.115
-0.145
-0.18
-0.17
-0.13
-0.125
-0.125
-0.145
-0.135
-0.135
-0.135
-0.115
-0.155
-0.15
-0.145
-0.12
-0.135
-0.135
-0.075
-0.09
-0.115
-0.165
-0.135
-0.105
-0.07
-0.08
-0.1
-0.08
-0.07
-0.05
-0.045
-0.045
-0.05
-0.045
-0.015
-0.03
-0.03
-0.02
-0.045
-0.06
-0.01
-0.07
-0.1
-0.08
0.0
-0.05
-0.035
-0.07
-0.07
-0.095
-0.095
-0.12
-0.12
-0.11
-0.11
-0.135
-0.125
-0.14
-0.14
-0.13
-0.155
-0.175
-0.19
-0.135
-0.175
-0.205
-0.175
-0.18
-0.2
-0.21
-0.205
-0.195
-0.18
-0.17
-0.2
-0.195
-0.165
-0.16
-0.185
-0.235
-0.215
-0.2
-0.175
-0.215
-0.2
-0.21
-0.195
-0.155
-0.135
-0.075
0.025
0.145
0.305
0.45
0.585
0.79
0.95
0.94
0.925
0.86
0.695
0.495
0.24
0.005
-0.21
-0.355
-0.44
-0.505
-0.52
-0.51
-0.49
-0.48
-0.47
-0.45
-0.385
-0.39
-0.34
-0.29
-0.285
-0.26
-0.245
-0.22
-0.2
-0.185
-0.195
-0.185
-0.15
-0.15
-0.17
-0.205
-0.235
-0.215
-0.175
-0.16
-0.185
-0.15
-0.145
-0.145
-0.155
-0.17
-0.155
-0.165
-0.16
-0.15
-0.15
-0.07
-0.155
-0.155
-0.14
-0.135
-0.155
-0.195
-0.17
-0.13
-0.135
-0.125
-0.11
-0.115
-0.16
-0.125
-0.11
-0.145
-0.145
-0.075
-0.11
-0.085
-0.09
-0.095
-0.105
-0.105
-0.11
-0.135
-0.1
-0.05
-0.085
-0.08
-0.075
-0.065
-0.07
-0.08
-0.085
-0.095
-0.085
-0.065
-0.085
-0.04
-0.04
-0.045
-0.05
-0.035
-0.015
-0.015
-0.035
-0.03
0.0
0.005
0.025
0.025
0.02
0.01
-0.025
-0.02
-0.005
0.045
0.075
0.09
0.115
0.15
0.12
0.045
0.04
0.06
0.07
0.09
0.085
0.085
0.13
0.105
0.075
0.085
0.075
0.085
0.105
0.105
0.12
0.1
0.105
0.1
0.07
0.045
0.02
0.035
0.035
0.03
0.015
0.03
0.035
-0.005
0.015
-0.005
-0.07
-0.065
-0.095
-0.095
-0.06
-0.065
-0.09
-0.12
-0.13
-0.1
-0.095
-0.15
-0.115
-0.125
-0.125
-0.115
-0.12
-0.145
-0.135
-0.175
-0.22
-0.21
-0.15
-0.145
-0.165
-0.16
-0.18
-0.145
-0.16
-0.14
-0.18
-0.19
-0.17
-0.17
-0.16
-0.15
-0.175
-0.14
-0.1
-0.18
-0.195
-0.2
-0.175
-0.15
-0.15
-0.155
-0.165
-0.165
-0.16
-0.16
-0.19
-0.18
-0.14
-0.175
-0.165
-0.16
-0.155
-0.145
-0.145
-0.145
-0.15
-0.16
-0.16
-0.185
-0.17
-0.16
-0.17
-0.215
-0.11
-0.085
-0.165
-0.15
-0.16
-0.155
-0.15
-0.155
-0.15
-0.17
-0.135
-0.17
-0.185
-0.135
-0.125
-0.15
-0.095
-0.17
-0.17
-0.16
-0.155
-0.16
-0.155
-0.19
-0.185
-0.17
-0.15
-0.155
-0.135
-0.15
-0.17
-0.17
-0.195
-0.175
-0.17
-0.15
-0.18
-0.17
-0.15
-0.135
-0.16
-0.145
-0.17
-0.2
-0.175
-0.155
-0.165
-0.14
-0.165
-0.175
-0.17
-0.16
-0.18
-0.165
-0.155
-0.195
-0.175
-0.175
-0.12
-0.14
-0.18
-0.19
-0.19
-0.18
-0.155
-0.2
-0.19
-0.22
-0.23
-0.135
-0.17
-0.185
-0.17
-0.195
-0.185
-0.18
-0.17
-0.135
-0.21
-0.155
-0.2
-0.215
-0.215
-0.195
-0.175
-0.175
-0.165
-0.155
-0.17
-0.17
-0.18
-0.195
-0.185
-0.18
-0.185
-0.155
-0.145
-0.175
-0.195
-0.175
-0.195
-0.225
-0.19
-0.16
-0.175
-0.195
-0.19
-0.18
-0.21
-0.2
-0.16
-0.13
-0.2
-0.215
-0.205
-0.18
-0.155
-0.16
-0.185
-0.195
-0.185
-0.175
-0.185
-0.225
-0.185
-0.185
-0.13
-0.16
-0.215
-0.18
-0.21
-0.23
-0.22
-0.2
-0.18
-0.18
-0.165
-0.17
-0.205
-0.19
-0.175
-0.2
-0.18
-0.16
-0.19
-0.165
-0.13
-0.18
-0.19
-0.215
-0.21
-0.195
-0.155
-0.155
-0.18
-0.165
-0.165
-0.14
-0.15
-0.16
-0.16
-0.12
-0.16
-0.185
-0.18
-0.18
-0.135
-0.12
-0.1
-0.13
-0.155
-0.16
-0.15
-0.125
-0.09
-0.09
-0.07
-0.04
-0.075
-0.05
-0.11
-0.085
-0.095
-0.085
-0.115
-0.095
-0.085
-0.12
-0.1
-0.07
-0.085
-0.13
-0.16
-0.135
-0.105
-0.105
-0.135
-0.155
-0.19
-0.17
-0.2
-0.195
-0.215
-0.22
-0.19
-0.135
-0.195
-0.205
-0.235
-0.23
-0.22
-0.23
-0.255
-0.2
-0.23
-0.2
-0.175
-0.21
-0.225
-0.24
-0.24
-0.25
-0.245
-0.25
-0.235
-0.23
-0.26
-0.26
-0.22
-0.18
-0.245
-0.165
-0.095
-0.025
0.055
0.21
0.37
0.545
0.685
0.81
0.885
0.865
0.855
0.7
0.485
0.24
0.045
-0.22
-0.435
-0.535
-0.555
-0.535
-0.55
-0.515
-0.52
-0.5
-0.48
-0.48
-0.46
-0.43
-0.405
-0.365
-0.33
-0.295
-0.265
-0.255
-0.275
-0.255
-0.245
-0.22
-0.225
-0.225
-0.23
-0.235
-0.215
-0.175
-0.245
-0.225
-0.2
-0.18
-0.16
-0.23
-0.205
-0.19
-0.215
-0.195
-0.17
-0.175
-0.205
-0.205
-0.205
-0.185
-0.16
-0.155
-0.19
-0.19
-0.19
-0.195
-0.195
-0.195
-0.2
-0.185
-0.17
-0.205
-0.175
-0.155
-0.155
-0.17
-0.17
-0.185
-0.17
-0.11
-0.145
-0.175
-0.165
-0.135
-0.125
-0.115
-0.12
-0.15
-0.155
-0.145
-0.135
-0.1
-0.095
-0.095
-0.09
-0.105
-0.055
-0.105
-0.12
-0.09
-0.115
-0.07
-0.04
-0.045
-0.06
-0.06
-0.06
-0.075
-0.085
-0.03
0.02
0.0
0.01
0.035
0.025
-0.025
-0.025
-0.035
-0.06
0.025
0.04
0.05
0.03
0.035
0.04
0.02
0.01
0.06
0.06
0.025
0.095
0.08
0.07
0.07
0.065
0.055
0.03
0.045
0.055
0.035
0.025
0.03
0.025
0.02
0.04
-0.025
-0.015
-0.05
-0.055
-0.055
-0.055
-0.055
-0.065
-0.075
-0.11
-0.115
-0.105
-0.155
-0.17
-0.165
-0.17
-0.17
-0.135
-0.195
-0.19
-0.22
-0.2
-0.205
-0.225
-0.215
-0.175
-0.185
-0.18
-0.19
-0.215
-0.235
-0.245
-0.22
-0.2
-0.205
-0.19
-0.22
-0.235
-0.23
-0.205
-0.195
-0.195
-0.21
-0.24
-0.215
-0.2
-0.21
-0.22
-0.22
-0.205
-0.21
-0.225
-0.22
-0.21
-0.205
-0.235
-0.23
-0.21
-0.24
-0.2
-0.215
-0.195
-0.19
-0.195
-0.185
-0.22
-0.18
-0.195
-0.215
-0.205
-0.215
-0.185
-0.18
-0.245
-0.205
-0.2
-0.195
-0.2
-0.19
-0.205
-0.215
-0.18
-0.18
-0.2
-0.195
-0.205
-0.24
-0.205
-0.195
-0.24
-0.21
-0.21
-0.21
-0.215
-0.19
-0.195
-0.18
-0.195
-0.205
-0.195
-0.205
-0.225
-0.225
-0.185
-0.165
-0.175
-0.16
-0.225
-0.195
-0.225
-0.22
-0.215
-0.2
-0.155
-0.205
-0.255
-0.19
-0.17
-0.255
-0.22
-0.195
-0.225
-0.235
-0.21
-0.19
-0.25
-0.235
-0.175
-0.235
-0.23
-0.245
-0.255
-0.25
-0.24
-0.23
-0.255
-0.23
-0.19
-0.17
-0.255
-0.21
-0.225
-0.235
-0.21
-0.22
-0.21
-0.175
-0.2
-0.235
-0.24
-0.24
-0.205
-0.215
-0.225
-0.235
-0.235
-0.23
-0.255
-0.22
-0.205
-0.24
-0.205
-0.235
-0.24
-0.2
-0.165
-0.21
-0.22
-0.225
-0.24
-0.245
-0.225
-0.225
-0.2
-0.215
-0.235
-0.195
-0.18
-0.195
-0.185
-0.225
-0.28
-0.265
-0.24
-0.225
-0.23
-0.235
-0.255
-0.175
-0.225
-0.24
-0.185
-0.195
-0.19
-0.23
-0.215
-0.24
-0.23
-0.245
-0.26
-0.245
-0.205
-0.23
-0.24
-0.235
-0.215
-0.195
-0.205
-0.19
-0.18
-0.235
-0.205
-0.22
-0.21
-0.2
-0.205
-0.215
-0.215
-0.2
-0.205
-0.24
-0.23
-0.2
-0.205
-0.235
-0.195
-0.18
-0.215
-0.24
-0.215
-0.225
-0.26
-0.2
-0.175
-0.165
-0.145
-0.185
-0.2
-0.19
-0.19
-0.175
-0.135
-0.145
-0.16
-0.13
-0.08
-0.12
-0.12
-0.11
-0.145
-0.125
-0.09
-0.085
-0.1
-0.065
-0.07
-0.09
-0.09
-0.12
-0.125
-0.13
-0.13
-0.115
-0.145
-0.14
-0.1
-0.125
-0.145
-0.155
-0.16
-0.18
-0.175
-0.17
-0.165
-0.195
-0.205
-0.17
-0.2
-0.27
-0.23
-0.22
-0.205
-0.2
-0.18
-0.21
-0.22
-0.23
-0.235
-0.24
-0.255
-0.23
-0.225
-0.23
-0.22
-0.21
-0.2
-0.215
-0.26
-0.28
-0.245
-0.245
-0.295
-0.315
-0.275
-0.25
-0.2
-0.175
-0.13
-0.075
0.025
0.165
0.32
0.49
0.655
0.765
0.86
0.92
0.87
0.765
0.57
0.28
0.065
-0.065
-0.27
-0.43
-0.485
-0.545
-0.545
-0.55
-0.54
-0.515
-0.48
-0.445
-0.425
-0.39
-0.37
-0.325
-0.315
-0.265
-0.3
-0.27
-0.205
-0.215
-0.275
-0.22
-0.245
-0.225
-0.235
-0.24
-0.22
-0.255
-0.25
-0.21
-0.24
-0.225
-0.225
-0.2
-0.2
-0.165
-0.185
-0.18
-0.205
-0.215
-0.21
-0.185
-0.185
-0.22
-0.235
-0.22
-0.21
-0.195
-0.17
-0.195
-0.205
-0.19
-0.195
-0.195
-0.205
-0.185
-0.16
-0.205
-0.155
-0.17
-0.175
-0.14
-0.155
-0.165
-0.19
-0.185
-0.16
-0.165
-0.155
-0.125
-0.11
-0.145
-0.135
-0.145
-0.135
-0.115
-0.14
-0.14
-0.13
-0.12
-0.105
-0.095
-0.1
-0.095
-0.085
-0.075
-0.105
-0.1
-0.065
-0.065
-0.05
0.005
-0.02
-0.05
-0.03
-0.055
-0.065
-0.04
-0.02
0.0
0.015
0.015
0.04
0.07
0.05
0.01
0.0
0.005
0.03
0.04
0.08
0.07
0.055
0.05
0.07
0.05
0.03
0.05
0.065
0.065
0.055
0.095
0.08
0.005
-0.005
0.015
-0.01
0.0
-0.015
-0.03
-0.035
-0.035
-0.04
-0.085
-0.06
-0.09
-0.12
-0.12
-0.115
-0.11
-0.13
-0.14
-0.14
-0.145
-0.17
-0.17
-0.175
-0.195
-0.19
-0.195
-0.185
-0.185
-0.155
-0.215
-0.21
-0.185
-0.195
-0.21
-0.23
-0.26
-0.245
-0.24
-0.21
-0.21
-0.23
-0.225
-0.23
-0.23
-0.2
-0.19
-0.22
-0.255
-0.24
-0.23
-0.225
-0.245
-0.24
-0.22
-0.21
-0.215
-0.2
-0.215
-0.215
-0.245
-0.23
-0.23
-0.235
-0.225
-0.215
-0.245
-0.195
-0.19
-0.21
-0.235
-0.205
-0.2
-0.18
-0.22
-0.235
-0.225
-0.235
-0.255
-0.27
-0.245
-0.2
-0.2
-0.195
-0.2
-0.21
-0.215
-0.205
-0.195
-0.235
-0.245
-0.24
-0.225
-0.225
-0.2
-0.185
-0.195
-0.195
-0.21
-0.19
-0.215
-0.2
-0.225
-0.245
-0.22
-0.18
-0.225
-0.19
-0.21
-0.21
-0.195
-0.225
-0.225
-0.22
-0.22
-0.22
-0.215
-0.2
-0.215
-0.195
-0.22
-0.225
-0.245
-0.225
-0.215
-0.205
-0.195
-0.205
-0.23
-0.23
-0.245
-0.235
-0.235
-0.225
-0.215
-0.22
-0.245
-0.235
-0.17
-0.155
-0.255
-0.285
-0.225
-0.195
-0.23
-0.245
-0.245
-0.225
-0.185
-0.215
-0.235
-0.245
-0.265
-0.235
-0.205
-0.195
-0.23
-0.205
-0.23
-0.255
-0.25
-0.215
-0.25
-0.25
-0.24
-0.255
-0.245
-0.22
-0.205
-0.215
-0.23
-0.245
-0.245
-0.25
-0.24
-0.225
-0.23
-0.225
-0.225
-0.24
-0.225
-0.235
-0.215
-0.185
-0.19
-0.24
-0.225
-0.235
-0.24
-0.205
-0.23
-0.245
-0.25
-0.26
-0.25
-0.235
-0.205
-0.225
-0.21
-0.235
-0.26
-0.245
-0.265
-0.23
-0.195
-0.22
-0.205
-0.2
-0.245
-0.225
-0.23
-0.215
-0.215
-0.245
-0.205
-0.245
-0.245
-0.18
-0.235
-0.275
-0.235
-0.23
-0.235
-0.215
-0.22
-0.215
-0.21
-0.225
-0.205
-0.255
-0.235
-0.235
-0.235
-0.22
-0.225
-0.24
-0.225
-0.245
-0.225
-0.17
-0.255
-0.265
-0.25
-0.235
-0.205
-0.21
-0.205
-0.21
-0.2
-0.21
-0.2
-0.2
-0.205
-0.185
-0.205
-0.185
-0.145
-0.135
-0.165
-0.175
-0.195
-0.16
-0.18
-0.165
-0.165
-0.16
-0.11
-0.135
-0.135
-0.085
-0.085
-0.125
-0.09
-0.105
-0.12
-0.11
-0.09
-0.115
-0.15
-0.165
-0.14
-0.1
-0.125
-0.145
-0.14
-0.155
-0.19
-0.135
-0.165
-0.205
-0.205
-0.245
-0.225
-0.165
-0.17
-0.21
-0.22
-0.21
-0.26
-0.24
-0.24
-0.255
-0.225
-0.24
-0.265
-0.25
-0.225
-0.22
-0.245
-0.265
-0.26
-0.25
-0.23
-0.22
-0.24
-0.21
-0.225
-0.24
-0.275
-0.285
-0.31
-0.345
-0.325
-0.245
-0.185
-0.165
-0.13
-0.055
0.095
0.19
0.355
0.535
0.73
0.86
0.885
0.89
0.815
0.675
0.45
0.215
-0.025
-0.215
-0.39
-0.465
-0.565
-0.55
-0.53
-0.57
-0.535
-0.535
-0.505
-0.435
-0.415
-0.36
-0.35
-0.315
-0.27
-0.29
-0.28
-0.265
-0.245
-0.265
-0.26
-0.245
-0.22
-0.225
-0.215
-0.22
-0.26
-0.23
-0.195
-0.22
-0.22
-0.215
-0.235
-0.22
-0.195
-0.18
-0.24
-0.235
-0.235
-0.22
-0.21
-0.19
-0.19
-0.15
-0.165
-0.23
-0.23
-0.22
-0.215
-0.18
-0.165
-0.185
-0.17
-0.175
-0.18
-0.195
-0.165
-0.17
-0.205
-0.195
-0.165
-0.16
-0.135
-0.14
-0.155
-0.145
-0.165
-0.14
-0.17
-0.155
-0.1
-0.135
-0.125
-0.145
-0.115
-0.125
-0.085
-0.095
-0.12
-0.095
-0.085
-0.14
-0.085
-0.075
-0.055
-0.06
-0.045
-0.075
-0.09
-0.07
-0.005
-0.015
-0.065
-0.04
-0.01
0.01
-0.01
-0.04
-0.01
0.0
0.03
0.035
0.025
0.06
0.085
0.06
0.075
0.05
0.005
0.03
0.055
0.08
0.095
0.045
0.04
0.065
0.05
0.04
0.085
0.14
0.115
0.03
0.025
0.035
0.015
0.015
0.015
0.0
-0.065
-0.025
-0.01
-0.02
-0.05
-0.045
-0.08
-0.11
-0.16
-0.135
-0.095
-0.07
-0.09
-0.115
-0.08
-0.095
-0.1
-0.115
-0.16
-0.16
-0.155
-0.17
-0.155
-0.175
-0.18
-0.16
-0.165
-0.195
-0.19
-0.185
-0.185
-0.17
-0.185
-0.19
-0.16
-0.18
-0.21
-0.225
-0.195
-0.21
-0.22
-0.215
-0.19
-0.13
-0.125
-0.13
-0.15
-0.135
-0.215
-0.215
-0.185
-0.17
-0.13
-0.16
-0.17
-0.19
-0.2
-0.225
-0.195
-0.16
-0.165
-0.175
-0.175
-0.17
-0.15
-0.175
-0.205
-0.165
-0.175
-0.185
-0.185
-0.165
-0.135
-0.145
-0.165
-0.18
-0.15
-0.135
-0.23
-0.215
-0.16
-0.18
-0.165
-0.155
-0.145
-0.145
-0.155
-0.16
-0.17
-0.18
-0.14
-0.19
-0.195
-0.185
-0.13
-0.165
-0.165
-0.155
-0.15
-0.175
-0.175
-0.15
-0.17
-0.18
-0.165
-0.155
-0.16
-0.185
-0.195
-0.165
-0.16
-0.155
-0.17
-0.145
-0.14
-0.155
-0.175
-0.205
-0.21
-0.18
-0.145
-0.16
-0.185
-0.18
-0.155
-0.16
-0.2
-0.18
-0.185
-0.21
-0.175
-0.155
-0.18
-0.2
-0.17
-0.21
-0.2
-0.19
-0.15
-0.23
-0.19
-0.185
-0.18
-0.16
-0.16
-0.17
-0.21
-0.2
-0.17
-0.17
-0.155
-0.19
-0.18
-0.155
-0.17
-0.18
-0.22
-0.245
-0.19
-0.18
-0.15
-0.18
-0.18
-0.15
-0.14
-0.15
-0.17
-0.205
-0.225
-0.175
-0.185
-0.215
-0.195
-0.17
-0.13
-0.195
-0.215
-0.195
-0.155
-0.15
-0.135
-0.17
-0.185
-0.17
-0.165
-0.195
-0.18
-0.215
-0.19
-0.19
-0.21
-0.21
-0.16
-0.18
-0.185
-0.155
-0.15
-0.155
-0.185
-0.22
-0.215
-0.185
-0.175
-0.19
-0.2
-0.17
-0.155
-0.175
-0.185
-0.195
-0.175
-0.175
-0.17
-0.15
-0.145
-0.18
-0.19
-0.185
-0.155
-0.185
-0.19
-0.17
-0.17
-0.155
-0.18
-0.19
-0.18
-0.21
-0.19
-0.15
-0.175
-0.22
-0.21
-0.155
-0.155
-0.16
-0.195
-0.21
-0.18
-0.195
-0.19
-0.165
-0.125
-0.13
-0.16
-0.175
-0.145
-0.165
-0.185
-0.185
-0.18
-0.155
-0.145
-0.19
-0.165
-0.155
-0.17
-0.17
-0.195
-0.195
-0.14
-0.135
-0.14
-0.11
-0.155
-0.16
-0.115
-0.115
-0.105
-0.125
-0.14
-0.115
-0.1
-0.085
-0.075
-0.12
-0.09
-0.105
-0.1
-0.025
-0.075
-0.075
-0.04
-0.05
-0.075
-0.11
-0.11
-0.14
-0.095
-0.085
-0.03
-0.075
-0.075
-0.085
-0.11
-0.1
-0.145
-0.135
-0.1
-0.13
-0.16
-0.14
-0.145
-0.17
-0.16
-0.17
-0.18
-0.17
-0.195
-0.175
-0.185
-0.185
-0.13
-0.19
-0.215
-0.185
-0.215
-0.205
-0.19
-0.195
-0.18
-0.145
-0.15
-0.17
-0.215
-0.19
-0.225
-0.2
-0.205
-0.245
-0.23
-0.17
-0.175
-0.125
-0.105
-0.04
0.035
0.195
0.36
0.505
0.67
0.845
0.935
0.96
0.92
0.765
0.605
0.39
0.11
-0.13
-0.295
-0.42
-0.46
-0.48
-0.53
-0.5
-0.455
-0.445
-0.46
-0.44
-0.41
-0.33
-0.315
-0.315
-0.285
-0.295
-0.29
-0.26
-0.235
-0.21
-0.185
-0.155
-0.175
-0.17
-0.175
-0.2
-0.185
-0.175
-0.195
-0.155
-0.14
-0.14
-0.165
-0.185
-0.21
-0.17
-0.17
-0.155
-0.15
-0.125
-0.165
-0.12
-0.15
-0.14
-0.15
-0.14
-0.13
-0.155
-0.17
-0.215
-0.155
-0.075
-0.085
-0.12
-0.135
-0.11
-0.135
-0.165
-0.15
-0.16
-0.12
-0.08
-0.085
-0.12
-0.09
-0.055
-0.125
-0.11
-0.1
-0.09
-0.1
-0.055
-0.065
-0.11
-0.09
-0.075
-0.07
-0.07
-0.055
-0.03
-0.02
-0.03
-0.025
-0.05
-0.05
-0.05
-0.065
-0.03
0.0
-0.02
-0.02
0.0
-0.005
0.015
0.005
0.02
0.02
0.005
0.045
0.105
0.065
0.05
0.075
0.08
0.065
0.095
0.055
0.085
0.095
0.075
0.125
0.115
0.14
0.11
0.085
0.11
0.105
0.09
0.125
0.13
0.11
0.11
0.115
0.09
0.08
0.065
0.05
0.065
0.015
0.035
0.055
0.005
-0.005
-0.01
0.005
-0.02
-0.085
-0.1
-0.09
-0.025
0.01
-0.05
-0.085
-0.085
-0.09
-0.135
-0.11
-0.135
-0.145
-0.1
-0.12
-0.155
-0.14
-0.15
-0.17
-0.165
-0.17
-0.185
-0.16
-0.165
-0.2
-0.15
-0.125
-0.15
-0.175
-0.175
-0.17
-0.185
-0.175
-0.15
-0.14
-0.145
-0.16
-0.18
-0.165
-0.17
-0.175
-0.205
-0.15
-0.16
-0.195
-0.15
-0.135
-0.14
-0.165
-0.175
-0.165
-0.22
-0.16
-0.14
-0.125
-0.145
-0.14
-0.14
-0.13
-0.155
-0.17
-0.155
-0.15
-0.16
-0.15
-0.13
-0.145
-0.175
-0.18
-0.155
-0.18
-0.18
-0.175
-0.16
-0.12
-0.135
-0.155
-0.145
-0.165
-0.15
-0.17
-0.175
-0.135
-0.17
-0.175
-0.16
-0.16
-0.165
-0.19
-0.175
-0.16
-0.135
-0.13
-0.165
-0.16
-0.15
-0.155
-0.15
-0.15
-0.185
-0.2
-0.165
-0.175
-0.155
-0.16
-0.135
-0.115
-0.16
-0.17
-0.2
-0.2
-0.135
-0.16
-0.17
-0.17
-0.18
-0.175
-0.195
-0.2
-0.205
-0.21
-0.215
-0.225
-0.205
-0.195
-0.22
-0.2
-0.185
-0.21
-0.185
-0.155
-0.14
-0.205
-0.21
-0.195
-0.185
-0.175
-0.17
-0.205
-0.2
-0.21
-0.2
-0.185
-0.165
-0.145
-0.19
-0.205
-0.21
-0.2
-0.21
-0.205
-0.215
-0.165
-0.165
-0.155
-0.185
-0.195
-0.225
-0.21
-0.22
-0.195
-0.15
-0.18
-0.21
-0.1
-0.18
-0.21
-0.185
-0.21
-0.23
-0.225
-0.235
-0.23
-0.185
-0.135
-0.18
-0.21
-0.185
-0.195
-0.21
-0.195
-0.185
-0.195
-0.17
-0.175
-0.17
-0.16
-0.19
-0.2
-0.21
-0.205
-0.19
-0.185
-0.175
-0.18
-0.15
-0.15
-0.175
-0.2
-0.215
-0.18
-0.18
-0.215
-0.205
-0.215
-0.235
-0.22
-0.2
-0.215
-0.195
-0.205
-0.17
-0.18
-0.175
-0.175
-0.19
-0.185
-0.18
-0.205
-0.205
-0.215
-0.215
-0.205
-0.215
-0.2
-0.22
-0.21
-0.195
-0.18
-0.185
-0.165
-0.185
-0.215
-0.175
-0.155
-0.15
-0.21
-0.21
-0.2
-0.2
-0.22
-0.21
-0.215
-0.17
-0.18
-0.19
-0.17
-0.15
-0.145
-0.22
-0.22
-0.15
-0.145
-0.16
-0.165
-0.13
-0.15
-0.145
-0.15
-0.155
-0.115
-0.16
-0.145
-0.12
-0.1
-0.095
-0.085
-0.115
-0.08
-0.09
-0.1
-0.07
-0.035
-0.08
-0.08
-0.08
-0.07
-0.11
-0.105
-0.085
-0.13
-0.125
-0.085
-0.075
-0.09
-0.105
-0.14
-0.135
-0.165
-0.165
-0.16
-0.165
-0.175
-0.165
-0.21
-0.2
-0.205
-0.21
-0.22
-0.205
-0.19
-0.225
-0.21
-0.22
-0.19
-0.225
-0.195
-0.2
-0.225
-0.24
-0.23
-0.215
-0.19
-0.17
-0.21
-0.22
-0.24
-0.23
-0.235
-0.26
-0.265
-0.275
-0.225
-0.215
-0.2
-0.145
-0.075
0.01
0.15
0.32
0.485
0.64
0.805
0.905
0.935
0.895
0.815
0.63
0.41
0.215
-0.02
-0.23
-0.395
-0.45
-0.49
-0.52
-0.53
-0.525
-0.49
-0.475
-0.465
-0.405
-0.355
-0.32
-0.285
-0.305
-0.275
-0.24
-0.24
-0.215
-0.215
-0.195
-0.185
-0.21
-0.225
-0.22
-0.18
-0.195
-0.215
-0.22
-0.195
-0.195
-0.2
-0.205
-0.2
-0.21
-0.18
-0.17
-0.205
-0.16
-0.16
-0.21
-0.195
-0.11
-0.18
-0.195
-0.185
-0.24
-0.2
-0.175
-0.18
-0.15
-0.165
-0.14
-0.17
-0.17
-0.155
-0.175
-0.17
-0.165
-0.16
-0.15
-0.125
-0.11
-0.13
-0.175
-0.15
-0.15
-0.155
-0.135
-0.125
-0.125
-0.085
-0.09
-0.14
-0.17
-0.11
-0.07
-0.105
-0.1
-0.055
-0.085
-0.055
-0.115
-0.08
-0.085
-0.045
-0.06
-0.07
-0.055
-0.06
-0.05
-0.035
-0.03
-0.06
-0.015
0.015
-0.04
-0.015
0.035
0.04
0.02
0.03
0.035
0.04
0.06
0.045
0.03
0.025
0.06
0.05
0.065
0.115
0.14
0.08
0.05
0.095
0.085
0.105
0.08
0.05
0.07
0.08
0.08
0.075
0.05
0.06
0.05
0.055
0.035
0.01
-0.03
-0.03
-0.04
-0.04
-0.04
-0.065
-0.11
-0.085
-0.075
-0.105
-0.13
-0.1
-0.125
-0.12
-0.115
-0.145
-0.125
-0.185
-0.155
-0.16
-0.165
-0.165
-0.17
-0.17
-0.17
-0.17
-0.185
-0.19
-0.19
-0.19
-0.18
-0.185
-0.185
-0.145
-0.18
-0.165
-0.2
-0.195
-0.23
-0.225
-0.185
-0.19
-0.205
-0.2
-0.185
-0.19
-0.205
-0.185
-0.205
-0.225
-0.2
-0.2
-0.205
-0.21
-0.195
-0.15
-0.21
-0.21
-0.2
-0.19
-0.18
-0.18
-0.2
-0.215
-0.175
-0.19
-0.175
-0.18
-0.205
-0.17
-0.165
-0.205
-0.235
-0.22
-0.22
-0.22
-0.205
-0.205
-0.22
-0.215
-0.175
-0.185
-0.195
-0.18
-0.205
-0.235
-0.2
-0.18
-0.205
-0.205
-0.195
-0.17
-0.24
-0.21
-0.195
-0.225
-0.23
-0.24
-0.185
-0.18
-0.195
-0.19
-0.22
-0.215
-0.23
-0.175
-0.225
-0.24
-0.2
-0.205
-0.195
-0.19
-0.215
-0.21
-0.22
-0.26
-0.235
-0.235
-0.22
-0.235
-0.23
-0.235
-0.195
-0.23
-0.235
-0.275
-0.235
-0.2
-0.225
-0.23
-0.235
-0.245
-0.24
-0.24
-0.24
-0.24
-0.24
-0.195
-0.205
-0.26
-0.24
-0.24
-0.25
-0.25
-0.24
-0.265
-0.265
-0.25
-0.245
-0.235
-0.225
-0.2
-0.23
-0.235
-0.265
-0.285
-0.24
-0.195
-0.2
-0.24
-0.24
-0.23
-0.245
-0.255
-0.23
-0.225
-0.25
-0.24
-0.22
-0.265
-0.25
-0.235
-0.265
-0.275
-0.25
-0.21
-0.255
-0.23
-0.25
-0.235
-0.255
-0.25
-0.245
-0.255
-0.22
-0.235
-0.225
-0.23
-0.235
-0.25
-0.23
-0.24
-0.245
-0.245
-0.25
-0.24
-0.205
-0.215
-0.225
-0.22
-0.195
-0.235
-0.265
-0.235
-0.22
-0.245
-0.195
-0.25
-0.255
-0.22
-0.215
-0.21
-0.235
-0.19
-0.215
-0.25
-0.27
-0.205
-0.19
-0.23
-0.225
-0.23
-0.225
-0.26
-0.255
-0.24
-0.21
-0.2
-0.18
-0.225
-0.23
-0.235
-0.245
-0.22
-0.195
-0.24
-0.27
-0.225
-0.18
-0.18
-0.235
-0.225
-0.235
-0.23
-0.24
-0.205
-0.22
-0.2
-0.19
-0.19
-0.21
-0.22
-0.22
-0.235
-0.195
-0.23
-0.21
-0.185
-0.2
-0.175
-0.165
-0.17
-0.185
-0.19
-0.205
-0.2
-0.19
-0.185
-0.205
-0.135
-0.145
-0.18
-0.17
-0.145
-0.155
-0.17
-0.115
-0.14
-0.12
-0.115
-0.125
-0.115
-0.08
-0.075
-0.08
-0.08
-0.055
-0.085
-0.105
-0.12
-0.135
-0.135
-0.115
-0.125
-0.145
-0.11
-0.115
-0.16
-0.135
-0.105
-0.165
-0.19
-0.185
-0.18
-0.23
-0.21
-0.165
-0.2
-0.19
-0.23
-0.22
-0.215
-0.22
-0.255
-0.21
-0.21
-0.215
-0.22
-0.215
-0.21
-0.225
-0.205
-0.215
-0.235
-0.26
-0.195
-0.21
-0.22
-0.19
-0.23
-0.265
-0.31
-0.28
-0.265
-0.22
-0.15
-0.135
-0.07
0.025
0.115
0.235
0.405
0.55
0.71
0.875
0.925
0.945
0.885
0.735
0.535
0.275
0.045
-0.15
-0.365
-0.46
-0.465
-0.46
-0.51
-0.505
-0.48
-0.45
-0.44
-0.385
-0.4
-0.365
-0.355
-0.29
-0.275
-0.245
-0.225
-0.19
-0.225
-0.235
-0.235
-0.24
-0.225
-0.185
-0.19
-0.175
-0.195
-0.175
-0.215
-0.21
-0.21
-0.205
-0.215
-0.165
-0.16
-0.155
-0.16
-0.19
-0.175
-0.21
-0.22
-0.21
-0.185
-0.145
-0.16
-0.1
-0.13
-0.18
-0.17
-0.175
-0.165
-0.165
-0.155
-0.17
-0.15
-0.135
-0.145
-0.155
-0.115
-0.13
-0.14
-0.165
-0.15
-0.12
-0.085
-0.105
-0.095
-0.115
-0.135
-0.125
-0.11
-0.13
-0.095
-0.1
-0.08
-0.115
-0.105
-0.09
-0.08
-0.075
-0.07
-0.06
-0.035
-0.085
-0.07
-0.07
-0.075
-0.03
-0.015
-0.04
-0.03
-0.04
-0.03
-0.005
0.055
0.045
0.025
0.04
0.03
-0.005
0.04
0.06
0.055
0.045
0.075
0.065
0.075
0.085
0.085
0.07
0.1
0.115
0.095
0.1
0.115
0.11
0.065
0.09
0.1
0.07
0.08
0.1
0.06
0.075
0.05
0.085
0.07
0.06
0.025
0.02
-0.015
0.01
-0.02
-0.03
0.005
-0.02
-0.045
-0.015
-0.07
-0.095
-0.11
-0.125
-0.11
-0.125
-0.115
-0.105
-0.12
-0.145
-0.17
-0.165
-0.17
-0.16
-0.155
-0.14
-0.16
-0.18
-0.2
-0.16
-0.155
-0.18
-0.175
-0.19
-0.175
-0.215
-0.19
-0.16
-0.165
-0.2
-0.21
-0.225
-0.205
-0.18
-0.12
-0.205
-0.18
-0.17
-0.16
-0.195
-0.175
-0.185
-0.23
-0.215
-0.145
-0.17
-0.145
-0.21
-0.21
-0.225
-0.21
-0.2
-0.18
-0.175
-0.21
-0.19
-0.175
-0.17
-0.175
-0.19
-0.16
-0.18
-0.14
-0.195
-0.19
-0.195
-0.145
-0.185
-0.195
-0.18
-0.195
-0.19
-0.215
-0.21
-0.19
-0.17
-0.165
-0.18
-0.16
-0.16
-0.22
-0.19
-0.185
-0.2
-0.16
-0.155
-0.175
-0.185
-0.18
-0.195
-0.21
-0.22
-0.19
-0.19
-0.165
-0.18
-0.235
-0.18
-0.19
-0.195
-0.2
-0.21
-0.22
-0.195
-0.185
-0.21
-0.19
-0.17
-0.18
-0.19
-0.215
-0.215
-0.205
-0.2
-0.2
-0.205
-0.12
-0.185
-0.19
-0.205
-0.225
-0.245
-0.245
-0.225
-0.195
-0.23
-0.2
-0.21
-0.185
-0.21
-0.205
-0.2
-0.2
-0.215
-0.23
-0.205
-0.23
-0.22
-0.235
-0.245
-0.22
-0.205
-0.2
-0.2
-0.225
-0.24
-0.225
-0.205
-0.235
-0.225
-0.25
-0.245
-0.225
-0.24
-0.225
-0.2
-0.215
-0.25
-0.23
-0.215
-0.225
-0.25
-0.26
-0.255
-0.22
-0.22
-0.21
-0.23
-0.24
-0.26
-0.27
-0.265
-0.23
-0.22
-0.26
-0.235
-0.245
-0.265
-0.225
-0.255
-0.25
-0.225
-0.225
-0.235
-0.265
-0.24
-0.27
-0.24
-0.25
-0.28
-0.255
-0.245
-0.25
-0.29
-0.275
-0.235
-0.245
-0.27
-0.27
-0.265
-0.275
-0.29
-0.27
-0.235
-0.245
-0.245
-0.255
-0.27
-0.28
-0.26
-0.285
-0.26
-0.27
-0.29
-0.255
-0.23
-0.285
-0.275
-0.275
-0.28
-0.305
-0.26
-0.225
-0.245
-0.265
-0.27
-0.305
-0.27
-0.24
-0.29
-0.29
-0.285
-0.305
-0.29
-0.27
-0.25
-0.28
-0.265
-0.24
-0.29
-0.29
-0.3
-0.26
-0.28
-0.31
-0.245
-0.23
-0.295
-0.29
-0.28
-0.245
-0.25
-0.26
-0.285
-0.24
-0.27
-0.22
-0.26
-0.22
-0.22
-0.215
-0.21
-0.215
-0.22
-0.17
-0.165
-0.2
-0.2
-0.165
-0.175
-0.17
-0.185
-0.185
-0.17
-0.18
-0.18
-0.21
-0.21
-0.215
-0.19
-0.2
-0.205
-0.19
-0.18
-0.225
-0.23
-0.235
-0.255
-0.24
-0.3
-0.275
-0.275
-0.28
-0.27
-0.27
-0.295
-0.28
-0.33
-0.315
-0.32
-0.33
-0.305
-0.295
-0.27
-0.28
-0.325
-0.33
-0.305
-0.29
-0.315
-0.335
-0.32
-0.275
-0.265
-0.26
-0.33
-0.345
-0.295
-0.36
-0.415
-0.375
-0.325
-0.31
-0.27
-0.19
-0.08
-0.025
0.115
0.29
0.455
0.63
0.745
0.815
0.785
0.75
0.625
0.405
0.155
-0.05
-0.255
-0.445
-0.53
-0.6
-0.6
-0.57
-0.57
-0.595
-0.575
-0.57
-0.54
-0.475
-0.43
-0.455
-0.415
-0.32
-0.3
-0.36
-0.335
-0.335
-0.32
-0.31
-0.31
-0.295
-0.305
-0.29
-0.255
-0.28
-0.295
-0.285
-0.29
-0.305
-0.29
-0.275
-0.275
-0.255
-0.265
-0.265
-0.27
-0.295
-0.305
-0.295
-0.28
-0.245
-0.265
-0.26
-0.26
-0.24
-0.23
-0.255
-0.265
-0.25
-0.25
-0.255
-0.23
-0.23
-0.195
-0.19
-0.22
-0.245
-0.24
-0.25
-0.235
-0.19
-0.205
-0.195
-0.205
-0.195
-0.19
-0.205
-0.2
-0.18
-0.19
-0.21
-0.185
-0.18
-0.15
-0.175
-0.175
-0.145
-0.185
-0.175
-0.16
-0.135
-0.125
-0.125
-0.125
-0.125
-0.125
-0.145
-0.125
-0.085
-0.1
-0.095
-0.065
-0.075
-0.035
-0.065
-0.09
-0.095
-0.06
-0.035
-0.03
-0.015
0.035
0.05
0.035
0.03
0.01
-0.02
-0.015
0.0
0.015
0.04
0.05
0.02
-0.01
0.06
0.05
0.035
0.04
0.035
0.045
0.04
0.035
-0.005
-0.03
-0.05
-0.005
-0.045
-0.04
-0.06
-0.055
-0.07
-0.065
-0.105
-0.1
-0.1
-0.115
-0.13
-0.15
-0.14
-0.155
-0.16
-0.155
-0.17
-0.14
-0.145
-0.215
-0.215
-0.21
-0.205
-0.21
-0.19
-0.22
-0.205
-0.19
-0.175
-0.255
-0.24
-0.24
-0.24
-0.25
-0.2
-0.195
-0.24
-0.24
-0.195
-0.255
-0.29
-0.215
-0.2
-0.225
-0.185
-0.225
-0.25
-0.225
-0.215
-0.26
-0.245
-0.21
-0.185
-0.2
-0.235
-0.18
-0.195
-0.275
-0.255
-0.225
-0.245
-0.235
-0.24
-0.205
-0.2
-0.185
-0.21
-0.225
-0.235
-0.225
-0.235
-0.225
-0.225
-0.195
-0.185
-0.19
-0.21
-0.22
-0.22
-0.24
-0.26
-0.195
-0.23
-0.245
-0.19
-0.135
-0.19
-0.21
-0.215
-0.205
-0.225
-0.205
-0.17
-0.18
-0.18
-0.195
-0.195
-0.22
-0.22
-0.22
-0.245
-0.22
-0.2
-0.195
-0.18
-0.21
-0.2
-0.2
-0.21
-0.205
-0.215
-0.185
-0.175
-0.225
-0.2
-0.19
-0.21
-0.205
-0.215
-0.225
-0.23
-0.215
-0.19
-0.195
-0.16
-0.175
-0.225
-0.24
-0.255
-0.22
-0.2
-0.23
-0.205
-0.215
-0.205
-0.215
-0.21
-0.2
-0.215
-0.245
-0.22
-0.21
-0.25
-0.245
-0.175
-0.195
-0.205
-0.195
-0.2
-0.195
-0.235
-0.235
-0.22
-0.225
-0.215
-0.24
-0.245
-0.22
-0.18
-0.235
-0.255
-0.215
-0.195
-0.21
-0.22
-0.22
-0.215
-0.265
-0.22
-0.22
-0.195
-0.21
-0.225
-0.22
-0.19
-0.205
-0.19
-0.2
-0.25
-0.245
-0.24
-0.215
-0.23
-0.2
-0.225
-0.245
-0.21
-0.195
-0.215
-0.245
-0.235
-0.21
-0.215
-0.22
-0.21
-0.24
-0.255
-0.225
-0.225
-0.2
-0.18
-0.185
-0.2
-0.205
-0.2
-0.265
-0.245
-0.19
-0.215
-0.215
-0.22
-0.21
-0.235
-0.195
-0.185
-0.195
-0.215
-0.22
-0.215
-0.225
-0.245
-0.225
-0.24
-0.225
-0.21
-0.195
-0.245
-0.255
-0.23
-0.195
-0.2
-0.19
-0.2
-0.19
-0.225
-0.245
-0.22
-0.235
-0.245
-0.275
-0.19
-0.2
-0.205
-0.205
-0.23
-0.225
-0.23
-0.22
-0.235
-0.205
-0.2
-0.2
-0.215
-0.155
-0.19
-0.2
-0.21
-0.2
-0.19
-0.17
-0.185
-0.195
-0.17
-0.18
-0.165
-0.145
-0.17
-0.16
-0.165
-0.14
-0.12
-0.12
-0.085
-0.1
-0.12
-0.115
-0.11
-0.085
-0.08
-0.08
-0.1
-0.09
-0.08
-0.07
-0.09
-0.115
-0.105
-0.105
-0.105
-0.095
-0.095
-0.115
-0.12
-0.115
-0.15
-0.13
-0.13
-0.165
-0.175
-0.18
-0.16
-0.2
-0.22
-0.23
-0.195
-0.185
-0.2
-0.22
-0.23
-0.21
-0.175
-0.205
-0.22
-0.195
-0.2
-0.22
-0.215
-0.175
-0.22
-0.22
-0.165
-0.16
-0.205
-0.175
-0.2
-0.24
-0.235
-0.27
-0.255
-0.245
-0.24
-0.21
-0.175
-0.165
-0.095
0.01
0.145
0.31
0.445
0.62
0.805
0.88
0.935
0.945
0.86
0.655
0.43
0.195
0.0
-0.225
-0.365
-0.425
-0.45
-0.48
-0.53
-0.51
-0.49
-0.475
-0.425
-0.385
-0.36
-0.35
-0.315
-0.25
-0.22
-0.23
-0.21
-0.24
-0.22
-0.19
-0.205
-0.215
-0.21
-0.205
-0.195
-0.195
-0.185
-0.21
-0.195
-0.145
-0.165
-0.225
-0.185
-0.14
-0.18
-0.17
-0.17
-0.21
-0.19
-0.185
-0.195
-0.14
-0.11
-0.12
-0.165
-0.16
-0.175
-0.14
-0.115
-0.17
-0.17
-0.17
-0.13
-0.14
-0.125
-0.14
-0.155
-0.145
-0.09
-0.115
-0.115
-0.145
-0.12
-0.08
-0.09
-0.125
-0.105
-0.1
-0.125
-0.115
-0.1
-0.075
-0.07
-0.06
-0.1
-0.075
-0.06
-0.1
-0.13
-0.12
-0.09
-0.08
-0.03
-0.045
-0.07
-0.035
-0.015
-0.015
-0.025
0.02
0.0
-0.005
0.015
0.015
0.0
0.04
0.0
0.03
0.065
0.095
0.085
0.08
0.08
0.095
0.075
0.065
0.08
0.085
0.1
0.11
0.11
0.14
0.13
0.085
0.125
0.105
0.1
0.125
0.13
0.175
0.135
0.1
0.14
0.105
0.07
0.055
0.1
0.055
0.025
0.055
0.05
0.055
0.015
-0.055
-0.035
0.02
-0.05
-0.03
-0.055
-0.07
-0.065
-0.065
-0.05
-0.065
-0.075
-0.11
-0.145
-0.135
-0.12
-0.095
-0.12
-0.12
-0.095
-0.125
-0.13
-0.13
-0.135
-0.125
-0.115
-0.13
-0.12
-0.105
-0.135
-0.115
-0.14
-0.16
-0.18
-0.15
-0.125
-0.115
-0.11
-0.14
-0.155
-0.14
-0.15
-0.16
-0.115
-0.13
-0.11
-0.135
-0.12
-0.15
-0.16
-0.145
-0.14
-0.145
-0.12
-0.13
-0.115
-0.115
-0.135
-0.12
-0.08
-0.125
-0.13
-0.15
-0.16
-0.14
-0.125
-0.12
-0.1
-0.09
-0.1
-0.125
-0.105
-0.14
-0.135
-0.12
-0.105
-0.11
-0.135
-0.12
-0.075
-0.11
-0.125
-0.105
-0.125
-0.115
-0.1
-0.105
-0.11
-0.11
-0.115
-0.06
-0.12
-0.135
-0.125
-0.115
-0.12
-0.1
-0.105
-0.105
-0.12
-0.115
-0.085
-0.105
-0.12
-0.11
-0.09
-0.13
-0.125
-0.11
-0.12
-0.145
-0.115
-0.115
-0.12
-0.125
-0.095
-0.135
-0.135
-0.13
-0.125
-0.135
-0.13
-0.105
-0.13
-0.125
-0.13
-0.14
-0.15
-0.115
-0.135
-0.155
-0.115
-0.1
-0.15
-0.175
-0.135
-0.105
-0.11
-0.11
-0.12
-0.14
-0.14
-0.155
-0.15
-0.135
-0.125
-0.105
-0.105
-0.12
-0.125
-0.165
-0.155
-0.16
-0.12
-0.11
-0.105
-0.125
-0.145
-0.175
-0.125
-0.135
-0.14
-0.16
-0.16
-0.145
-0.13
-0.145
-0.135
-0.09
-0.125
-0.14
-0.11
-0.16
-0.17
-0.145
-0.12
-0.085
-0.11
-0.135
-0.13
-0.12
-0.135
-0.14
-0.145
-0.145
-0.125
-0.1
-0.12
-0.14
-0.16
-0.145
-0.175
-0.13
-0.12
-0.145
-0.13
-0.135
-0.1
-0.13
-0.15
-0.125
-0.155
-0.14
-0.145
-0.145
-0.125
-0.14
-0.105
-0.105
-0.125
-0.125
-0.135
-0.155
-0.18
-0.165
-0.145
-0.08
-0.105
-0.145
-0.175
-0.115
-0.125
-0.155
-0.16
-0.165
-0.145
-0.105
-0.115
-0.16
-0.12
-0.09
-0.13
-0.135
-0.14
-0.155
-0.165
-0.125
-0.125
-0.1
-0.09
-0.105
-0.13
-0.13
-0.13
-0.11
-0.115
-0.115
-0.12
-0.085
-0.095
-0.095
-0.085
-0.11
-0.11
-0.075
-0.04
-0.09
-0.09
-0.085
-0.065
-0.055
-0.075
-0.075
-0.07
-0.02
-0.005
0.005
0.0
-0.005
0.035
0.005
-0.025
-0.035
-0.02
-0.01
-0.04
-0.005
-0.03
-0.025
0.015
-0.035
-0.04
-0.025
-0.08
-0.065
-0.07
-0.065
-0.095
-0.095
-0.125
-0.11
-0.14
-0.135
-0.145
-0.125
-0.125
-0.125
-0.105
-0.155
-0.135
-0.09
-0.095
-0.135
-0.135
-0.14
-0.13
-0.105
-0.115
-0.165
-0.185
-0.15
-0.145
-0.155
-0.145
-0.09
-0.13
-0.165
-0.135
-0.175
-0.18
-0.175
-0.145
-0.1
-0.025
0.1
0.21
0.34
0.46
0.615
0.785
0.925
1.005
1.0
0.955
0.8
0.615
0.39
0.165
-0.075
-0.245
-0.285
-0.435
-0.455
-0.46
-0.42
-0.445
-0.4
-0.38
-0.345
-0.3
-0.27
-0.245
-0.23
-0.175
-0.16
-0.135
-0.16
-0.14
-0.165
-0.15
-0.145
-0.135
-0.11
-0.095
-0.13
-0.14
-0.095
-0.07
-0.11
-0.115
-0.12
-0.13
-0.14
-0.095
-0.075
-0.075
-0.065
-0.08
-0.11
-0.08
-0.08
-0.075
-0.095
-0.07
-0.045
-0.07
-0.095
-0.065
-0.06
-0.09
-0.09
-0.065
-0.06
-0.055
-0.07
-0.045
-0.05
-0.03
-0.05
-0.09
-0.06
-0.035
-0.06
-0.05
-0.04
-0.065
-0.055
-0.025
-0.035
-0.015
-0.01
-0.015
-0.01
-0.03
-0.01
0.02
0.005
0.0
0.02
-0.015
-0.005
0.06
0.07
0.025
0.01
0.045
0.045
0.03
0.08
0.06
0.065
0.08
0.065
0.12
0.135
0.105
0.105
0.135
0.12
0.115
0.115
0.125
0.115
0.13
0.165
0.17
0.185
0.195
0.18
0.18
0.175
0.175
0.185
0.185
0.18
0.2
0.22
0.2
0.18
0.185
0.185
0.175
0.155
0.205
0.15
0.165
0.125
0.12
0.165
0.15
0.1
0.07
0.095
0.07
0.03
0.06
0.05
0.025
0.0
0.0
-0.005
-0.01
-0.035
0.005
0.015
-0.015
-0.045
-0.025
-0.09
-0.06
-0.095
-0.06
-0.075
-0.085
-0.04
-0.055
-0.06
-0.095
-0.09
-0.095
-0.08
-0.08
-0.04
-0.02
-0.095
-0.075
-0.075
-0.08
-0.095
-0.085
-0.065
-0.095
-0.09
-0.06
-0.085
-0.06
-0.085
-0.09
-0.075
-0.075
-0.08
-0.085
-0.085
-0.095
-0.09
-0.085
-0.075
-0.08
-0.075
-0.05
-0.1
-0.115
-0.075
-0.055
-0.055
-0.06
-0.07
-0.1
-0.055
-0.08
-0.08
-0.075
-0.07
-0.05
-0.075
-0.07
-0.075
-0.07
-0.035
-0.07
-0.07
-0.05
-0.115
-0.08
-0.05
-0.065
-0.08
-0.065
-0.07
-0.105
-0.08
-0.055
-0.055
-0.06
-0.06
-0.08
-0.09
-0.08
-0.08
-0.06
-0.075
-0.06
-0.07
-0.075
-0.055
-0.055
-0.065
-0.08
-0.095
-0.08
-0.09
-0.03
-0.055
-0.085
-0.075
-0.105
-0.095
-0.07
-0.065
-0.09
-0.105
-0.06
-0.09
-0.075
-0.065
-0.06
-0.075
-0.065
-0.06
-0.075
-0.055
-0.095
-0.09
-0.075
-0.07
-0.07
-0.11
-0.13
-0.095
-0.07
-0.055
-0.07
-0.07
-0.11
-0.08
-0.075
-0.095
-0.065
-0.07
-0.12
-0.125
-0.085
-0.095
-0.085
-0.06
-0.05
-0.105
-0.065
-0.06
-0.095
-0.12
-0.04
-0.06
-0.045
-0.065
-0.07
-0.09
-0.08
-0.115
-0.08
-0.06
-0.055
-0.07
-0.055
-0.055
-0.075
-0.115
-0.105
-0.105
-0.085
-0.01
-0.015
-0.055
-0.02
-0.07
-0.12
-0.1
-0.08
-0.09
-0.08
-0.065
-0.045
-0.07
-0.085
-0.055
-0.05
-0.04
-0.03
-0.065
-0.07
-0.095
-0.055
-0.04
-0.065
-0.06
-0.06
-0.065
-0.045
-0.07
-0.06
0.01
-0.06
-0.08
-0.04
-0.04
-0.05
-0.07
-0.065
-0.05
-0.055
-0.02
-0.08
-0.1
-0.025
-0.04
-0.095
-0.05
-0.05
-0.05
-0.045
-0.035
-0.06
-0.065
-0.03
-0.04
-0.05
-0.04
-0.035
-0.025
-0.03
-0.005
-0.02
-0.01
-0.005
-0.01
-0.04
-0.015
0.04
0.01
-0.005
0.05
0.09
0.015
0.035
0.09
0.05
0.045
0.085
0.075
0.055
0.08
0.035
0.065
0.065
0.04
0.02
0.01
0.06
0.035
0.015
-0.005
0.0
0.005
0.005
-0.03
-0.025
-0.035
-0.02
-0.045
-0.045
-0.06
-0.04
-0.02
-0.025
-0.035
-0.02
-0.055
-0.065
-0.085
-0.07
-0.06
-0.07
-0.06
-0.03
-0.03
-0.045
-0.065
-0.04
-0.06
-0.075
-0.08
-0.045
-0.06
-0.07
-0.105
-0.125
-0.105
-0.095
-0.125
-0.04
0.0
0.065
0.175
0.265
0.4
0.54
0.715
0.855
0.94
1.01
1.0
0.92
0.725
0.51
0.22
-0.01
-0.17
-0.305
-0.405
-0.415
-0.365
-0.375
-0.325
-0.335
-0.315
-0.31
-0.28
-0.275
-0.285
-0.22
-0.155
-0.17
-0.14
-0.115
-0.12
-0.095
-0.075
-0.065
