# TIPE ECG 2021 - ECG-ID Database v1.0.0 par Physionet
# [Numéro de la personne, Période d'échantillonnage, Prénom, Age, Sexe, Date de l'enregistrement]
[25, 0.002, Marcus, 48, H, 12.05.2005]
0.535
0.255
0.435
0.47
0.51
0.61
0.64
0.765
0.765
0.61
0.445
0.32
0.445
0.49
0.515
0.61
0.615
0.765
0.75
0.63
0.49
0.36
0.43
0.465
0.56
0.6
0.625
0.78
0.745
0.57
0.445
0.29
0.455
0.46
0.55
0.615
0.63
0.775
0.725
0.635
0.425
0.275
0.43
0.41
0.445
0.595
0.635
0.785
0.705
0.605
0.465
0.285
0.47
0.42
0.54
0.52
0.575
0.78
0.71
0.58
0.405
0.325
0.45
0.465
0.53
0.6
0.57
0.775
0.66
0.57
0.37
0.35
0.475
0.43
0.485
0.55
0.605
0.77
0.67
0.56
0.345
0.35
0.47
0.44
0.48
0.565
0.58
0.79
0.7
0.57
0.36
0.35
0.425
0.45
0.545
0.58
0.66
0.75
0.65
0.58
0.335
0.325
0.475
0.47
0.555
0.595
0.68
0.775
0.645
0.56
0.31
0.435
0.51
0.525
0.5
0.6
0.715
0.725
0.565
0.515
0.32
0.435
0.44
0.455
0.5
0.61
0.7
0.745
0.575
0.53
0.32
0.395
0.475
0.5
0.555
0.57
0.69
0.73
0.595
0.48
0.28
0.405
0.4
0.485
0.55
0.585
0.735
0.705
0.6
0.49
0.25
0.425
0.455
0.47
0.61
0.595
0.775
0.785
0.625
0.475
0.315
0.49
0.505
0.55
0.655
0.655
0.795
0.765
0.67
0.495
0.365
0.535
0.555
0.6
0.705
0.71
0.835
0.835
0.685
0.515
0.38
0.53
0.55
0.605
0.645
0.67
0.83
0.775
0.655
0.495
0.33
0.5
0.52
0.59
0.615
0.625
0.77
0.755
0.625
0.41
0.25
0.445
0.47
0.55
0.595
0.605
0.77
0.675
0.515
0.445
0.365
0.47
0.41
0.47
0.55
0.55
0.725
0.65
0.53
0.36
0.3
0.42
0.38
0.46
0.495
0.47
0.64
0.52
0.41
0.165
0.24
0.35
0.365
0.53
0.745
0.845
1.125
1.21
1.27
1.16
1.33
1.41
1.37
1.375
1.425
1.37
1.35
1.155
0.915
0.625
0.585
0.515
0.405
0.52
0.505
0.555
0.655
0.445
0.425
0.135
0.21
0.265
0.315
0.38
0.45
0.555
0.665
0.485
0.445
0.185
0.31
0.39
0.39
0.49
0.5
0.595
0.65
0.535
0.425
0.23
0.355
0.405
0.43
0.49
0.505
0.605
0.65
0.545
0.425
0.205
0.39
0.44
0.455
0.54
0.53
0.69
0.66
0.53
0.395
0.215
0.39
0.44
0.415
0.535
0.53
0.685
0.71
0.59
0.415
0.195
0.445
0.505
0.45
0.615
0.6
0.7
0.67
0.575
0.435
0.24
0.43
0.45
0.46
0.555
0.61
0.72
0.665
0.58
0.44
0.3
0.485
0.485
0.51
0.635
0.665
0.815
0.775
0.615
0.505
0.35
0.525
0.51
0.605
0.705
0.685
0.845
0.785
0.695
0.58
0.435
0.6
0.595
0.675
0.73
0.755
0.965
0.83
0.81
0.525
0.505
0.69
0.66
0.7
0.775
0.785
0.995
0.93
0.81
0.535
0.555
0.64
0.615
0.685
0.79
0.76
0.89
0.785
0.705
0.48
0.42
0.495
0.485
0.51
0.635
0.67
0.74
0.63
0.565
0.315
0.35
0.42
0.425
0.42
0.515
0.565
0.65
0.545
0.46
0.23
0.33
0.325
0.34
0.4
0.545
0.575
0.575
0.44
0.41
0.135
0.275
0.28
0.3
0.325
0.405
0.525
0.57
0.45
0.36
0.085
0.2
0.3
0.285
0.355
0.345
0.495
0.54
0.45
0.36
0.12
0.235
0.27
0.31
0.36
0.43
0.505
0.48
0.335
0.21
0.08
0.2
0.255
0.275
0.375
0.405
0.505
0.5
0.37
0.285
0.065
0.215
0.26
0.31
0.41
0.41
0.59
0.505
0.38
0.275
0.145
0.27
0.29
0.345
0.435
0.455
0.565
0.54
0.43
0.24
0.1
0.305
0.3
0.31
0.42
0.505
0.575
0.5
0.42
0.265
0.13
0.3
0.31
0.355
0.42
0.42
0.615
0.555
0.445
0.29
0.14
0.26
0.31
0.43
0.435
0.505
0.645
0.565
0.425
0.265
0.185
0.305
0.285
0.405
0.475
0.43
0.62
0.55
0.465
0.25
0.185
0.325
0.3
0.4
0.465
0.465
0.635
0.54
0.445
0.265
0.255
0.35
0.33
0.375
0.475
0.525
0.665
0.54
0.475
0.235
0.23
0.355
0.37
0.39
0.49
0.535
0.59
0.58
0.455
0.275
0.27
0.32
0.38
0.43
0.445
0.49
0.59
0.525
0.45
0.195
0.27
0.345
0.37
0.425
0.505
0.535
0.61
0.52
0.445
0.18
0.285
0.345
0.375
0.445
0.505
0.635
0.64
0.565
0.465
0.2
0.34
0.415
0.425
0.51
0.56
0.63
0.635
0.52
0.37
0.175
0.33
0.35
0.37
0.49
0.5
0.595
0.58
0.425
0.31
0.115
0.245
0.28
0.295
0.355
0.385
0.52
0.5
0.375
0.24
0.05
0.19
0.215
0.26
0.35
0.335
0.525
0.505
0.375
0.26
0.08
0.265
0.28
0.29
0.375
0.405
0.555
0.53
0.37
0.195
0.03
0.275
0.195
0.195
0.27
0.315
0.42
0.45
0.31
0.16
0.12
0.38
0.46
0.625
0.885
1.08
1.31
1.355
1.37
1.14
0.975
1.15
1.07
0.985
0.98
0.925
0.935
0.725
0.49
0.225
0.075
0.185
0.13
0.22
0.24
0.25
0.325
0.28
0.18
0.01
0.01
0.15
0.12
0.165
0.26
0.285
0.43
0.35
0.27
0.085
0.055
0.165
0.21
0.245
0.31
0.34
0.465
0.31
0.295
0.065
0.075
0.135
0.19
0.225
0.33
0.405
0.495
0.335
0.245
0.07
0.155
0.185
0.205
0.235
0.31
0.395
0.465
0.38
0.315
0.015
0.12
0.18
0.14
0.195
0.35
0.43
0.48
0.35
0.27
-0.005
0.11
0.11
0.225
0.29
0.35
0.445
0.46
0.325
0.265
0.01
0.165
0.2
0.225
0.26
0.345
0.48
0.51
0.355
0.2
0.015
0.175
0.25
0.185
0.365
0.41
0.5
0.53
0.335
0.275
0.13
0.265
0.25
0.33
0.4
0.43
0.585
0.57
0.435
0.33
0.155
0.32
0.33
0.4
0.44
0.465
0.655
0.615
0.5
0.365
0.21
0.355
0.355
0.39
0.465
0.445
0.645
0.62
0.425
0.285
0.195
0.33
0.28
0.29
0.34
0.44
0.58
0.53
0.355
0.15
-0.015
0.14
0.175
0.225
0.3
0.375
0.465
0.38
0.24
0.065
-0.04
0.125
0.11
0.205
0.235
0.2
0.415
0.305
0.205
-0.005
-0.05
0.06
0.05
0.095
0.215
0.2
0.335
0.26
0.19
-0.02
-0.025
0.095
0.065
0.07
0.215
0.265
0.36
0.23
0.165
-0.045
0.005
0.075
0.03
0.09
0.185
0.265
0.365
0.3
0.18
-0.05
-0.035
0.06
0.12
0.145
0.195
0.235
0.355
0.245
0.215
-0.05
-0.005
0.06
0.11
0.09
0.17
0.275
0.275
0.22
0.165
-0.06
0.02
0.085
0.09
0.15
0.22
0.275
0.345
0.21
0.135
-0.115
0.0
0.045
0.055
0.125
0.195
0.345
0.34
0.205
0.08
-0.155
0.035
0.075
0.105
0.185
0.185
0.315
0.31
0.205
0.045
-0.17
0.0
0.02
0.065
0.175
0.205
0.35
0.335
0.175
0.03
-0.145
0.04
0.015
0.07
0.19
0.175
0.31
0.32
0.17
0.025
-0.155
0.01
0.04
0.07
0.15
0.185
0.33
0.315
0.15
-0.025
-0.165
0.005
0.03
0.03
0.09
0.18
0.285
0.285
0.15
-0.05
-0.16
0.01
-0.045
0.07
0.135
0.13
0.325
0.25
0.185
-0.06
-0.215
-0.05
-0.05
0.04
0.115
0.135
0.305
0.235
0.105
-0.07
-0.165
-0.02
-0.025
-0.015
0.105
0.145
0.275
0.195
0.135
-0.025
-0.19
-0.06
-0.06
0.07
0.115
0.215
0.29
0.165
0.075
-0.11
-0.155
-0.045
-0.035
0.01
0.1
0.13
0.29
0.135
0.04
-0.12
-0.06
-0.01
-0.005
0.06
0.16
0.185
0.275
0.135
0.105
-0.17
-0.11
0.0
-0.015
-0.02
0.155
0.25
0.305
0.185
0.09
-0.135
-0.03
0.02
0.07
0.065
0.145
0.22
0.335
0.21
0.16
-0.09
-0.01
0.08
0.07
0.19
0.285
0.36
0.425
0.26
0.185
-0.06
0.085
0.185
0.15
0.22
0.205
0.355
0.335
0.245
0.07
-0.11
0.06
0.08
0.125
0.195
0.225
0.305
0.285
0.17
0.03
-0.165
-0.035
0.0
0.025
0.17
0.14
0.24
0.245
0.11
-0.025
-0.15
-0.03
-0.03
0.01
0.115
0.14
0.275
0.285
0.15
-0.06
-0.2
-0.055
-0.02
0.015
0.115
0.11
0.285
0.145
0.0
-0.16
-0.275
-0.09
-0.065
-0.025
0.145
0.235
0.47
0.6
0.645
0.595
0.62
0.9
0.965
1.19
1.21
1.21
1.275
1.135
0.94
0.69
0.415
0.465
0.33
0.265
0.21
0.18
0.29
0.23
0.12
-0.12
-0.185
-0.07
-0.045
-0.01
0.13
0.165
0.235
0.105
0.07
-0.09
-0.065
0.02
0.005
0.05
0.09
0.11
0.305
0.235
0.12
-0.115
-0.18
-0.005
0.0
0.025
0.125
0.16
0.285
0.175
0.09
-0.135
-0.065
-0.05
-0.015
0.06
0.13
0.145
0.265
0.2
0.12
-0.06
-0.025
-0.005
0.02
0.06
0.155
0.255
0.3
0.215
0.165
-0.1
-0.03
0.025
0.02
0.115
0.205
0.28
0.375
0.255
0.14
-0.06
0.01
0.065
0.075
0.17
0.235
0.325
0.34
0.23
0.19
-0.11
0.06
0.12
0.145
0.27
0.3
0.41
0.43
0.29
0.18
-0.015
0.155
0.18
0.215
0.345
0.38
0.515
0.52
0.405
0.26
0.06
0.195
0.27
0.33
0.46
0.435
0.555
0.52
0.47
0.315
0.14
0.305
0.36
0.38
0.445
0.495
0.595
0.59
0.47
0.33
0.17
0.315
0.28
0.38
0.44
0.43
0.58
0.475
0.44
0.265
0.125
0.265
0.24
0.335
0.345
0.355
0.525
0.485
0.385
0.18
0.015
0.195
0.18
0.24
0.32
0.335
0.475
0.41
0.28
0.095
0.005
0.18
0.095
0.19
0.29
0.315
0.475
0.34
0.3
0.08
0.025
0.16
0.185
0.195
0.29
0.355
0.51
0.34
0.245
0.105
0.09
0.18
0.14
0.26
0.31
0.3
0.46
0.36
0.31
0.07
0.075
0.175
0.23
0.27
0.315
0.33
0.44
0.335
0.32
0.065
0.12
0.175
0.195
0.255
0.345
0.37
0.46
0.36
0.335
0.08
0.14
0.21
0.195
0.255
0.335
0.405
0.475
0.315
0.345
0.06
0.175
0.205
0.23
0.305
0.385
0.445
0.47
0.365
0.305
0.05
0.185
0.21
0.22
0.31
0.35
0.425
0.485
0.39
0.255
0.03
0.18
0.22
0.24
0.335
0.385
0.46
0.5
0.31
0.205
-0.03
0.2
0.19
0.22
0.305
0.31
0.47
0.41
0.245
0.175
0.03
0.145
0.19
0.25
0.345
0.295
0.44
0.395
0.29
0.16
-0.025
0.135
0.175
0.2
0.285
0.335
0.465
0.435
0.3
0.11
-0.035
0.14
0.16
0.18
0.245
0.285
0.46
0.405
0.285
0.13
-0.055
0.14
0.14
0.2
0.285
0.31
0.405
0.395
0.275
0.11
-0.04
0.16
0.135
0.19
0.315
0.3
0.41
0.39
0.3
0.08
-0.03
0.115
0.17
0.19
0.29
0.29
0.475
0.365
0.275
0.105
0.02
0.155
0.165
0.195
0.27
0.29
0.44
0.35
0.25
0.06
0.015
0.185
0.18
0.205
0.225
0.265
0.425
0.33
0.26
0.08
0.05
0.15
0.16
0.185
0.245
0.35
0.45
0.345
0.26
0.035
0.1
0.2
0.185
0.27
0.33
0.385
0.515
0.41
0.31
0.105
0.16
0.24
0.27
0.33
0.425
0.525
0.55
0.425
0.385
0.1
0.215
0.25
0.265
0.39
0.385
0.49
0.48
0.37
0.275
0.035
0.175
0.225
0.26
0.26
0.31
0.425
0.445
0.325
0.185
-0.015
0.135
0.15
0.15
0.24
0.24
0.405
0.395
0.26
0.12
-0.015
0.11
0.16
0.15
0.205
0.24
0.415
0.405
0.255
0.08
-0.095
0.08
0.11
0.095
0.16
0.18
0.295
0.25
0.115
-0.025
-0.235
0.02
0.105
0.11
0.355
0.46
0.725
0.905
0.945
0.94
0.9
1.16
1.165
1.2
1.28
1.25
1.245
1.115
0.91
0.675
0.355
0.325
0.22
0.18
0.2
0.28
0.43
0.33
0.195
-0.005
-0.15
0.025
0.0
0.115
0.21
0.165
0.36
0.315
0.215
0.055
-0.04
0.075
0.07
0.12
0.195
0.19
0.41
0.315
0.19
-0.055
0.035
0.155
0.08
0.17
0.265
0.215
0.355
0.315
0.225
-0.01
-0.01
0.185
0.2
0.155
0.245
0.295
0.405
0.285
0.22
0.055
-0.01
0.155
0.1
0.16
0.26
0.335
0.42
0.27
0.22
-0.025
0.095
0.14
0.12
0.165
0.3
0.36
0.445
0.34
0.255
0.035
0.115
0.18
0.19
0.245
0.365
0.455
0.485
0.26
0.235
0.055
0.14
0.24
0.24
0.315
0.37
0.45
0.5
0.335
0.295
0.03
0.175
0.28
0.325
0.33
0.43
0.57
0.58
0.46
0.36
0.135
0.31
0.35
0.415
0.53
0.485
0.63
0.655
0.565
0.385
0.19
0.385
0.43
0.45
0.54
0.565
0.685
0.675
0.595
0.425
0.24
0.375
0.4
0.385
0.52
0.53
0.665
0.645
0.51
0.335
0.135
0.275
0.325
0.365
0.41
0.415
0.53
0.505
0.395
0.205
0.055
0.21
0.225
0.235
0.305
0.38
0.505
0.45
0.35
0.175
0.03
0.205
0.21
0.2
0.305
0.365
0.5
0.46
0.345
0.135
0.025
0.15
0.125
0.235
0.21
0.36
0.49
0.43
0.325
0.13
0.025
0.165
0.145
0.205
0.305
0.355
0.52
0.405
0.355
0.17
0.02
0.155
0.17
0.26
0.32
0.315
0.48
0.38
0.31
0.085
0.13
0.19
0.13
0.26
0.315
0.34
0.455
0.37
0.27
0.09
0.12
0.19
0.185
0.235
0.26
0.395
0.475
0.375
0.31
0.06
0.085
0.06
0.19
0.255
0.275
0.385
0.45
0.32
0.285
0.05
0.135
0.19
0.17
0.23
0.315
0.425
0.44
0.255
0.22
-0.01
0.12
0.155
0.16
0.235
0.31
0.41
0.395
0.27
0.18
-0.015
0.075
0.16
0.155
0.25
0.3
0.44
0.42
0.31
0.14
-0.05
0.14
0.13
0.135
0.225
0.255
0.44
0.385
0.29
0.16
-0.005
0.13
0.13
0.165
0.265
0.285
0.4
0.375
0.215
0.11
-0.05
0.14
0.17
0.245
0.235
0.23
0.405
0.385
0.25
0.08
-0.015
0.11
0.11
0.165
0.225
0.25
0.435
0.36
0.27
0.095
0.0
0.07
0.085
0.13
0.225
0.27
0.395
0.4
0.305
0.095
-0.055
0.1
0.09
0.15
0.225
0.225
0.385
0.33
0.215
0.07
-0.03
0.11
0.135
0.195
0.275
0.285
0.4
0.38
0.265
0.1
-0.04
0.12
0.115
0.205
0.28
0.295
0.405
0.345
0.235
0.075
0.055
0.12
0.15
0.255
0.305
0.32
0.51
0.36
0.325
0.12
0.115
0.25
0.26
0.285
0.395
0.43
0.535
0.42
0.39
0.135
0.14
0.255
0.3
0.415
0.465
0.54
0.625
0.49
0.47
0.22
0.305
0.345
0.37
0.39
0.475
0.57
0.635
0.475
0.42
0.15
0.275
0.32
0.32
0.425
0.47
0.56
0.57
0.4
0.36
0.085
0.21
0.22
0.255
0.355
0.435
0.47
0.51
0.32
0.285
0.02
0.145
0.255
0.245
0.315
0.325
0.445
0.43
0.355
0.22
0.03
0.21
0.2
0.21
0.315
0.375
0.435
0.4
0.31
0.14
-0.065
0.09
0.08
0.1
0.22
0.28
0.46
0.475
0.45
0.45
0.44
0.775
0.915
1.09
1.315
1.44
1.54
1.505
1.42
1.15
0.885
0.935
0.815
0.775
0.725
0.54
0.585
0.485
0.39
0.18
0.02
0.115
0.105
0.13
0.245
0.175
0.36
0.35
0.22
0.095
-0.08
0.12
0.18
0.225
0.24
0.32
0.445
0.375
0.33
0.08
0.0
0.16
0.14
0.18
0.355
0.335
0.43
0.395
0.295
0.1
0.045
0.16
0.155
0.21
0.265
0.305
0.475
0.375
0.265
0.055
0.045
0.16
0.17
0.23
0.31
0.33
0.505
0.385
0.305
0.08
0.09
0.17
0.175
0.265
0.325
0.325
0.505
0.365
0.31
0.08
0.11
0.195
0.225
0.27
0.39
0.495
0.57
0.4
0.315
0.085
0.18
0.23
0.285
0.355
0.39
0.47
0.56
0.435
0.345
0.12
0.2
0.27
0.315
0.35
0.455
0.525
0.59
0.48
0.435
0.205
0.3
0.38
0.325
0.46
0.53
0.665
0.64
0.535
0.425
0.2
0.36
0.41
0.415
0.52
0.565
0.685
0.69
0.565
0.475
0.26
0.4
0.44
0.48
0.565
0.56
0.66
0.7
0.585
0.425
0.24
0.39
0.37
0.4
0.515
0.505
0.65
0.58
0.475
0.305
0.09
0.32
0.315
0.33
0.445
0.46
0.555
0.515
0.34
0.27
0.1
0.22
0.225
0.26
0.285
0.295
0.445
0.435
0.33
0.175
0.04
0.185
0.22
0.27
0.345
0.335
0.505
0.47
0.33
0.11
0.06
0.205
0.21
0.27
0.35
0.37
0.53
0.45
0.31
0.13
0.04
0.19
0.245
0.285
0.365
0.34
0.5
0.435
0.345
0.165
0.135
0.185
0.205
0.31
0.35
0.35
0.53
0.445
0.32
0.085
0.13
0.205
0.245
0.275
0.37
0.37
0.55
0.445
0.34
0.13
0.22
0.245
0.225
0.32
0.385
0.385
0.515
0.39
0.37
0.095
0.125
0.19
0.24
0.27
0.34
0.39
0.445
0.355
0.385
0.08
0.165
0.25
0.245
0.3
0.385
0.44
0.51
0.37
0.31
0.07
0.18
0.205
0.26
0.325
0.325
0.435
0.49
0.35
0.27
0.09
0.195
0.255
0.29
0.385
0.4
0.48
0.435
0.36
0.285
0.055
0.185
0.23
0.245
0.31
0.365
0.5
0.475
0.285
0.225
0.035
0.22
0.27
0.255
0.305
0.35
0.495
0.475
0.38
0.21
0.035
0.175
0.275
0.245
0.365
0.345
0.545
0.51
0.355
0.21
0.03
0.21
0.24
0.27
0.355
0.38
0.515
0.505
0.365
0.175
0.055
0.25
0.195
0.27
0.32
0.365
0.485
0.43
0.325
0.135
0.01
0.175
0.16
0.265
0.34
0.35
0.485
0.44
0.36
0.21
0.055
0.225
0.18
0.265
0.365
0.34
0.45
0.505
0.31
0.205
0.085
0.215
0.215
0.25
0.33
0.355
0.515
0.43
0.36
0.135
0.11
0.19
0.26
0.325
0.385
0.395
0.545
0.42
0.42
0.205
0.195
0.305
0.345
0.41
0.485
0.505
0.635
0.515
0.435
0.2
0.245
0.35
0.335
0.375
0.4
0.515
0.595
0.435
0.41
0.175
0.215
0.305
0.335
0.395
0.43
0.485
0.56
0.43
0.35
0.11
0.205
0.225
0.28
0.305
0.395
0.46
0.475
0.42
0.345
0.065
0.2
0.275
0.24
0.315
0.39
0.48
0.5
0.395
0.265
0.05
0.2
0.215
0.245
0.275
0.29
0.46
0.47
0.305
0.15
-0.035
0.09
0.04
0.09
0.29
0.34
0.47
0.56
0.53
0.57
0.47
0.81
0.975
1.155
1.37
1.455
1.545
1.475
1.31
1.105
0.82
0.855
0.765
0.675
0.61
0.515
0.57
0.485
0.35
0.145
0.015
0.16
0.13
0.175
0.24
0.285
0.48
0.38
0.33
0.185
0.07
0.235
0.23
0.285
0.4
0.38
0.54
0.5
0.36
0.16
0.075
0.25
0.235
0.255
0.38
0.42
0.545
0.49
0.355
0.195
0.11
0.275
0.225
0.29
0.425
0.415
0.59
0.55
0.445
0.215
0.13
0.315
0.31
0.34
0.45
0.47
0.61
0.505
0.425
0.23
0.195
0.345
0.315
0.355
0.465
0.475
0.615
0.52
0.455
0.245
0.23
0.37
0.345
0.39
0.445
0.515
0.645
0.525
0.47
0.255
0.255
0.385
0.395
0.44
0.635
0.57
0.7
0.625
0.5
0.315
0.32
0.425
0.455
0.535
0.63
0.71
0.815
0.645
0.56
0.325
0.46
0.525
0.55
0.555
0.69
0.75
0.78
0.675
0.615
0.375
0.49
0.565
0.565
0.65
0.73
0.815
0.84
0.745
0.66
0.395
0.57
0.565
0.595
0.745
0.73
0.895
0.805
0.71
0.6
0.385
0.51
0.525
0.51
0.66
0.65
0.71
0.735
0.585
0.445
0.24
0.395
0.425
0.43
0.485
0.565
0.675
0.63
0.51
0.355
0.21
0.365
0.35
0.375
0.47
0.455
0.575
0.565
0.505
0.35
0.18
0.325
0.3
0.425
0.47
0.465
0.63
0.585
0.495
0.285
0.195
0.36
0.35
0.425
0.51
0.495
0.645
0.575
0.48
0.32
0.16
0.325
0.325
0.37
0.46
0.435
0.615
0.59
0.47
0.28
0.185
0.305
0.3
0.385
0.465
0.45
0.62
0.57
0.445
0.275
0.225
0.34
0.33
0.42
0.485
0.495
0.645
0.575
0.465
0.3
0.26
0.325
0.33
0.41
0.525
0.525
0.65
0.57
0.485
0.285
0.265
0.365
0.4
0.445
0.5
0.535
0.665
0.56
0.49
0.245
0.295
0.34
0.37
0.435
0.48
0.585
0.655
0.535
0.465
0.225
0.29
0.395
0.365
0.43
0.54
0.585
0.64
0.46
0.505
0.28
0.32
0.36
0.4
0.445
0.515
0.62
0.66
0.52
0.425
0.21
0.38
0.385
0.4
0.475
0.575
0.605
0.61
0.565
0.445
0.195
0.33
0.385
0.4
0.47
0.515
0.66
0.64
0.575
0.43
0.215
0.365
0.42
0.425
0.52
0.52
0.675
0.685
0.56
0.47
0.255
0.41
0.405
0.43
0.505
0.51
0.74
0.685
0.55
0.4
0.275
0.435
0.445
0.49
0.545
0.545
0.72
0.7
0.55
0.41
0.255
0.455
0.435
0.465
0.525
0.505
0.715
0.71
0.56
0.41
0.28
0.425
0.46
0.45
0.57
0.57
0.74
0.7
0.6
0.425
0.29
0.44
0.45
0.55
0.595
0.64
0.78
0.695
0.58
0.41
0.34
0.525
0.465
0.54
0.615
0.63
0.775
0.67
0.685
0.485
0.36
0.515
0.54
0.59
0.695
0.745
0.86
0.795
0.695
0.48
0.45
0.57
0.56
0.66
0.75
0.735
0.87
0.78
0.695
0.475
0.47
0.54
0.565
0.6
0.775
0.73
0.765
0.65
0.625
0.39
0.4
0.485
0.48
0.525
0.615
0.64
0.795
0.71
0.55
0.28
0.46
0.465
0.5
0.565
0.65
0.695
0.735
0.65
0.555
0.36
0.485
0.535
0.485
0.585
0.65
0.7
0.71
0.555
0.515
0.265
0.37
0.395
0.445
0.51
0.575
0.815
0.975
0.98
1.005
0.96
1.245
1.435
1.56
1.7
1.705
1.78
1.78
1.51
1.22
1.015
1.045
0.9
0.765
0.75
0.705
0.825
0.77
0.6
0.515
0.235
0.41
0.43
0.435
0.53
0.565
0.73
0.68
0.615
0.42
0.27
0.455
0.48
0.51
0.545
0.645
0.8
0.74
0.615
0.445
0.28
0.49
0.505
0.55
0.615
0.665
0.77
0.755
0.63
0.45
0.295
0.52
0.415
0.55
0.58
0.625
0.785
0.755
0.665
0.445
0.37
0.48
0.495
0.555
0.65
0.655
0.81
0.78
0.65
0.35
0.32
0.53
0.51
0.595
0.685
0.675
0.86
0.72
0.635
0.43
0.44
0.56
0.53
0.61
0.695
0.665
0.82
0.715
0.68
0.5
0.485
0.585
0.6
0.635
0.74
0.745
0.865
0.8
0.73
0.5
0.58
0.625
0.63
0.67
0.755
0.825
0.93
0.855
0.8
0.54
0.595
0.68
0.73
0.705
0.845
0.965
1.035
0.895
0.86
0.65
0.695
0.775
0.775
0.805
0.87
0.955
1.02
0.915
0.845
0.555
0.745
0.76
0.815
0.855
0.9
1.0
1.035
0.88
0.815
0.575
0.725
0.71
0.68
0.75
0.795
0.945
0.955
0.76
0.69
0.455
0.595
0.59
0.585
0.725
0.74
0.89
0.83
0.68
0.565
0.37
0.545
0.565
0.585
0.67
0.695
0.845
0.795
0.675
0.535
0.355
0.52
0.51
0.54
0.645
0.665
0.845
0.81
0.575
0.53
0.385
0.515
0.51
0.53
0.615
0.7
0.785
0.755
0.64
0.475
0.36
0.555
0.54
0.585
0.64
0.665
0.835
0.8
0.73
0.46
0.33
0.555
0.575
0.575
0.685
0.725
0.815
0.81
0.7
0.535
0.42
0.54
0.56
0.62
0.705
0.715
0.82
0.785
0.665
0.49
0.42
0.5
0.56
0.62
0.68
0.715
0.85
0.77
0.68
0.495
0.435
0.55
0.615
0.63
0.645
0.675
0.835
0.755
0.685
0.46
0.425
0.555
0.58
0.585
0.67
0.715
0.84
0.74
0.685
0.455
0.45
0.55
0.61
0.64
0.68
0.765
0.87
0.75
0.635
0.395
0.44
0.555
0.55
0.61
0.655
0.77
0.81
0.715
0.675
0.43
0.535
0.545
0.61
0.625
0.72
0.755
0.855
0.775
0.685
0.43
0.49
0.57
0.62
0.715
0.705
0.8
0.84
0.715
0.62
0.39
0.555
0.625
0.635
0.745
0.74
0.82
0.875
0.74
0.625
0.41
0.62
0.63
0.595
0.685
0.765
0.875
0.89
0.755
0.595
0.405
0.57
0.585
0.635
0.745
0.745
0.93
0.875
0.67
0.575
0.465
0.61
0.64
0.695
0.72
0.74
0.94
0.86
0.72
0.575
0.41
0.585
0.575
0.66
0.735
0.745
0.95
0.89
0.76
0.605
0.49
0.675
0.69
0.7
0.77
0.805
0.97
0.955
0.825
0.645
0.56
0.71
0.7
0.68
0.74
0.765
0.99
0.885
0.795
0.625
0.5
0.63
0.615
0.685
0.74
0.705
0.905
0.845
0.705
0.5
0.47
0.62
0.585
0.61
0.695
0.69
0.855
0.765
0.705
0.465
0.455
0.575
0.615
0.625
0.67
0.745
0.8
0.74
0.725
0.47
0.465
0.455
0.49
0.55
0.6
0.69
0.78
0.615
0.545
0.36
0.385
0.365
0.445
0.5
0.61
0.74
0.965
0.95
0.985
0.94
1.195
1.345
1.435
1.61
1.71
1.785
1.865
1.645
1.46
1.07
1.05
1.05
0.885
0.785
0.75
0.79
0.825
0.7
0.62
0.3
0.42
0.49
0.465
0.56
0.61
0.745
0.765
0.635
0.53
0.31
0.495
0.48
0.6
0.7
0.685
0.81
0.815
0.68
0.56
0.355
0.505
0.58
0.61
0.66
0.66
0.805
0.825
0.69
0.585
0.39
0.565
0.55
0.575
0.64
0.685
0.795
0.805
0.685
0.57
0.365
0.505
0.58
0.57
0.675
0.695
0.85
0.86
0.69
0.525
0.365
0.54
0.565
0.58
0.675
0.695
0.875
0.8
0.74
0.6
0.34
0.6
0.525
0.615
0.75
0.805
0.95
0.855
0.735
0.545
0.41
0.615
0.61
0.68
0.76
0.69
0.915
0.915
0.8
0.565
0.5
0.66
0.66
0.71
0.81
0.865
1.02
0.935
0.83
0.6
0.585
0.745
0.76
0.83
0.875
0.885
1.065
1.01
0.875
0.665
0.675
0.8
0.79
0.84
0.945
0.985
1.14
1.025
0.92
0.73
0.775
0.87
0.83
0.86
0.87
0.905
1.06
0.925
0.865
0.64
0.71
0.725
0.715
0.8
0.855
0.895
0.92
0.775
0.735
0.51
0.605
0.63
0.685
0.72
0.775
0.82
0.86
0.765
0.725
0.44
0.535
0.58
0.61
0.71
0.72
0.88
0.875
0.73
0.635
0.415
0.55
0.605
0.62
0.645
0.71
0.75
0.85
0.715
0.61
0.385
0.535
0.605
0.62
0.635
0.685
0.855
0.815
0.715
0.59
0.41
0.535
0.575
0.565
0.67
0.665
0.815
0.795
0.66
0.585
0.39
0.51
0.575
0.645
0.68
0.705
0.785
0.815
0.695
0.525
0.405
0.53
0.575
0.575
0.645
0.75
0.87
0.835
0.655
0.445
0.39
0.58
0.56
0.595
0.69
0.695
0.86
0.83
0.67
0.495
0.395
0.58
0.56
0.56
0.655
0.72
0.91
0.795
0.665
0.51
0.445
0.595
0.59
0.615
0.69
0.675
0.835
0.8
0.775
0.505
0.41
0.545
0.53
0.58
0.67
0.675
0.87
0.78
0.665
0.475
0.39
0.58
0.595
0.58
0.665
0.685
0.83
0.705
0.635
0.49
0.46
0.54
0.57
0.57
0.67
0.73
0.825
0.735
0.635
0.415
0.455
0.6
0.545
0.61
0.64
0.685
0.825
0.71
0.64
0.37
0.475
0.535
0.565
0.565
0.68
0.845
0.8
0.69
0.62
0.405
0.51
0.59
0.615
0.595
0.67
0.765
0.78
0.67
0.63
0.395
0.51
0.545
0.57
0.57
0.705
0.805
0.83
0.695
0.62
0.37
0.49
0.56
0.555
0.675
0.67
0.805
0.805
0.655
0.54
0.38
0.545
0.58
0.63
0.74
0.675
0.83
0.805
0.695
0.575
0.455
0.575
0.605
0.6
0.715
0.715
0.88
0.85
0.74
0.545
0.42
0.52
0.56
0.585
0.62
0.66
0.845
0.79
0.66
0.495
0.365
0.48
0.515
0.525
0.625
0.64
0.77
0.73
0.595
0.465
0.28
0.4
0.415
0.475
0.57
0.585
0.74
0.675
0.54
0.375
0.22
0.345
0.475
0.495
0.565
0.57
0.705
0.645
0.52
0.315
0.23
0.385
0.37
0.425
0.455
0.43
0.585
0.515
0.365
0.21
0.15
0.34
0.355
0.465
0.65
0.745
1.055
1.12
1.19
1.105
1.195
1.36
1.385
1.41
1.435
1.38
1.39
1.2
1.035
0.695
0.555
0.465
0.455
0.47
0.47
0.495
0.62
0.425
0.33
0.135
0.13
0.27
0.22
0.29
0.425
0.505
0.605
0.47
0.415
0.19
0.27
0.35
0.375
0.47
0.54
0.605
0.63
0.525
0.48
0.23
0.34
0.415
0.43
0.475
0.5
0.61
0.63
0.545
0.455
0.265
0.415
0.49
0.44
0.485
0.56
0.705
0.655
0.52
0.475
0.24
0.38
0.425
0.465
0.54
0.585
0.7
0.71
0.57
0.43
0.265
0.42
0.415
0.46
0.545
0.58
0.69
0.705
0.54
0.44
0.24
0.47
0.495
0.435
0.55
0.655
0.77
0.71
0.62
0.46
0.27
0.49
0.515
0.53
0.625
0.655
0.785
0.755
0.675
0.525
0.38
0.54
0.57
0.65
0.695
0.75
0.885
0.855
0.715
0.62
0.475
0.55
0.615
0.68
0.79
0.83
0.99
0.93
0.825
0.67
0.535
0.685
0.72
0.82
0.8
0.86
1.01
0.96
0.85
0.67
0.565
0.725
0.7
0.755
0.83
0.815
0.975
0.87
0.74
0.51
0.54
0.615
0.575
0.61
0.69
0.685
0.84
0.74
0.59
0.415
0.365
0.51
0.535
0.535
0.595
0.635
0.735
0.595
0.56
0.35
0.41
0.475
0.44
0.495
0.615
0.595
0.755
0.65
0.585
0.29
0.375
0.45
0.465
0.51
0.62
0.6
0.7
0.655
0.565
0.28
0.37
0.445
0.455
0.505
0.555
0.645
0.695
0.615
0.525
0.215
0.405
0.435
0.46
0.53
0.64
0.71
0.74
0.63
0.485
0.23
0.43
0.45
0.435
0.555
0.535
0.69
0.695
0.555
0.455
0.24
0.425
0.435
0.435
0.56
0.565
0.685
0.67
0.595
0.48
0.285
0.37
0.43
0.46
0.555
0.575
0.675
0.75
0.605
0.43
0.245
0.395
0.455
0.465
0.56
0.64
0.735
0.7
0.59
0.43
0.295
0.4
0.45
0.445
0.585
0.615
0.72
0.685
0.555
0.37
0.17
0.42
0.42
0.465
0.595
0.56
0.665
0.62
0.52
0.38
0.24
0.36
0.39
0.4
0.47
0.525
0.665
0.66
0.56
0.32
0.2
0.345
0.375
0.43
0.51
0.53
0.65
0.585
0.455
0.24
0.15
0.265
0.265
0.37
0.46
0.405
0.625
0.48
0.385
0.17
0.145
0.16
0.25
0.3
0.375
0.44
0.525
0.435
0.385
0.135
0.16
0.25
0.27
0.345
0.295
0.425
0.53
0.425
0.41
0.13
0.19
0.285
0.315
0.31
0.365
0.49
0.495
0.405
0.405
0.11
0.23
0.275
0.33
0.38
0.51
0.545
0.615
0.545
0.445
0.21
0.31
0.35
0.405
0.395
0.505
0.585
0.59
0.48
0.415
0.155
0.315
0.355
0.38
0.445
0.47
0.58
0.595
0.45
0.35
0.135
0.245
0.285
0.3
0.355
0.395
0.56
0.51
0.36
0.225
0.05
0.195
0.24
0.245
0.355
0.36
0.5
0.46
0.335
0.24
-0.015
0.2
0.205
0.21
0.365
0.35
0.475
0.49
0.375
0.19
-0.065
0.135
0.205
0.19
0.26
0.24
0.395
0.385
0.24
0.07
-0.065
0.175
0.325
0.485
0.635
0.81
1.11
1.2
1.195
1.145
0.995
1.18
1.17
1.155
1.16
1.095
1.14
0.96
0.735
0.48
0.2
0.295
0.295
0.285
0.32
0.33
0.445
0.37
0.275
0.155
0.035
0.13
0.205
0.27
0.4
0.375
0.505
0.445
0.355
0.2
0.165
0.26
0.31
0.335
0.39
0.435
0.545
0.485
0.35
0.205
0.135
0.225
0.285
0.27
0.455
0.485
0.61
0.435
0.41
0.18
0.2
0.315
0.345
0.39
0.425
0.475
0.6
0.48
0.44
0.225
0.26
0.33
0.36
0.35
0.495
0.555
0.64
0.525
0.425
0.185
0.345
0.375
0.395
0.465
0.51
0.58
0.635
0.5
0.48
0.23
0.34
0.4
0.42
0.495
0.585
0.635
0.67
0.535
0.48
0.24
0.4
0.38
0.445
0.545
0.55
0.67
0.71
0.575
0.51
0.275
0.41
0.51
0.495
0.59
0.64
0.72
0.73
0.665
0.555
0.285
0.43
0.515
0.625
0.65
0.62
0.795
0.775
0.695
0.53
0.33
0.495
0.505
0.565
0.66
0.69
0.81
0.745
0.625
0.48
0.32
0.44
0.49
0.485
0.56
0.585
0.73
0.735
0.51
0.42
0.235
0.34
0.39
0.405
0.46
0.52
0.705
0.595
0.45
0.38
0.15
0.34
0.315
0.345
0.45
0.465
0.615
0.56
0.455
0.235
0.165
0.23
0.28
0.32
0.405
0.35
0.61
0.535
0.34
0.18
0.075
0.215
0.245
0.275
0.365
0.345
0.495
0.44
0.345
0.14
0.11
0.24
0.22
0.275
0.32
0.405
0.535
0.4
0.305
0.135
0.14
0.22
0.18
0.265
0.325
0.39
0.55
0.415
0.28
0.13
0.115
0.225
0.235
0.265
0.35
0.37
0.49
0.345
0.32
0.1
0.13
0.21
0.255
0.28
0.385
0.455
0.485
0.395
0.33
0.065
0.11
0.23
0.255
0.305
0.33
0.44
0.49
0.375
0.305
0.075
0.215
0.29
0.245
0.34
0.35
0.53
0.51
0.385
0.29
0.06
0.21
0.22
0.255
0.41
0.4
0.51
0.53
0.38
0.295
0.095
0.235
0.29
0.315
0.4
0.375
0.51
0.515
0.39
0.265
0.085
0.19
0.3
0.32
0.415
0.445
0.6
0.595
0.43
0.26
0.085
0.255
0.295
0.325
0.4
0.445
0.595
0.515
0.425
0.29
0.12
0.27
0.33
0.3
0.43
0.44
0.575
0.535
0.45
0.22
0.055
0.275
0.24
0.26
0.395
0.385
0.56
0.54
0.335
0.155
0.055
0.24
0.225
0.295
0.38
0.38
0.555
0.47
0.37
0.16
0.045
0.24
0.22
0.295
0.41
0.36
0.5
0.51
0.375
0.17
0.195
0.285
0.24
0.32
0.385
0.36
0.515
0.47
0.37
0.185
0.14
0.31
0.305
0.34
0.355
0.44
0.535
0.495
0.415
0.145
0.215
0.285
0.22
0.29
0.42
0.465
0.595
0.47
0.365
0.13
0.18
0.23
0.3
0.25
0.315
0.4
0.48
0.335
0.27
0.055
0.135
0.18
0.195
0.295
0.345
0.425
0.515
0.375
0.28
0.05
0.13
0.215
0.2
0.29
0.32
0.39
0.455
0.345
0.225
0.02
0.115
0.14
0.11
0.275
0.165
0.27
0.335
0.205
0.16
-0.02
0.14
0.21
0.365
0.655
0.785
1.005
1.155
1.135
1.115
0.975
1.07
1.06
0.995
1.005
0.93
0.95
0.815
0.6
0.34
0.03
0.08
0.115
0.135
0.175
0.135
0.275
0.235
0.09
-0.075
-0.19
-0.025
-0.01
0.08
0.095
0.145
0.38
0.325
0.225
0.075
-0.095
0.08
0.075
0.13
0.2
0.26
0.395
0.345
0.23
0.055
-0.09
0.095
0.14
0.245
0.225
0.19
0.38
0.345
0.245
0.065
-0.07
0.15
0.125
0.21
0.275
0.29
0.48
0.445
0.29
0.1
0.045
0.15
0.2
0.225
0.3
0.325
0.48
0.405
0.295
0.115
0.12
0.245
0.185
0.285
0.41
0.365
0.52
0.425
0.355
0.185
0.095
0.25
0.235
0.275
0.35
0.355
0.51
0.43
0.36
0.195
0.21
0.26
0.34
0.355
0.4
0.43
0.555
0.465
0.385
0.155
0.22
0.305
0.37
0.4
0.475
0.515
0.645
0.53
0.475
0.205
0.28
0.315
0.4
0.43
0.545
0.59
0.76
0.62
0.525
0.3
0.39
0.485
0.47
0.51
0.57
0.68
0.66
0.565
0.45
0.2
0.36
0.395
0.42
0.47
0.485
0.625
0.58
0.475
0.315
0.11
0.315
0.285
0.29
0.435
0.435
0.49
0.48
0.37
0.225
0.01
0.125
0.15
0.175
0.285
0.37
0.5
0.44
0.305
0.14
-0.075
0.185
0.175
0.21
0.285
0.325
0.435
0.405
0.265
0.105
-0.035
0.185
0.17
0.205
0.265
0.325
0.41
0.375
0.25
0.105
-0.115
0.13
0.175
0.225
0.25
0.275
0.405
0.36
0.24
0.09
-0.08
0.09
0.11
0.195
0.285
0.31
0.485
0.385
0.28
0.13
0.03
0.155
0.13
0.18
0.265
0.315
0.475
0.43
0.335
0.155
0.06
0.21
0.21
0.24
0.335
0.38
0.47
0.355
0.285
0.11
0.085
0.22
0.25
0.27
0.37
0.335
0.485
0.455
0.34
0.125
0.18
0.32
0.245
0.29
0.36
0.42
0.545
0.445
0.3
0.13
0.17
0.215
0.235
0.29
0.335
0.355
0.485
0.41
0.37
0.13
0.175
0.235
0.28
0.325
0.38
0.445
0.44
0.375
0.33
0.095
0.2
0.25
0.225
0.285
0.34
0.455
0.545
0.395
0.265
0.09
0.225
0.245
0.27
0.35
0.37
0.49
0.49
0.365
0.245
0.025
0.16
0.19
0.2
0.33
0.39
0.515
0.475
0.32
0.28
0.1
0.215
0.235
0.255
0.385
0.38
0.535
0.54
0.455
0.245
0.085
0.215
0.275
0.25
0.35
0.375
0.51
0.5
0.365
0.265
0.08
0.2
0.23
0.31
0.32
0.335
0.49
0.535
0.385
0.25
0.06
0.26
0.3
0.31
0.395
0.42
0.6
0.56
0.415
0.31
0.155
0.305
0.345
0.39
0.455
0.49
0.605
0.525
0.4
0.235
0.05
0.23
0.19
0.305
0.365
0.395
0.545
0.48
0.3
0.105
0.01
0.215
0.105
0.16
0.265
0.295
0.42
0.325
0.245
0.035
-0.035
0.07
0.075
0.04
0.145
0.245
0.425
0.295
0.2
-0.01
-0.015
0.045
0.06
0.17
0.265
0.245
0.38
0.24
0.155
-0.08
-0.105
0.03
0.03
0.045
0.075
0.135
0.23
0.105
0.09
-0.13
-0.02
0.17
0.32
0.525
0.765
0.955
1.125
1.145
1.18
0.985
1.075
1.065
1.085
1.04
0.98
0.95
0.925
0.675
0.405
0.03
0.04
0.1
0.105
0.115
0.215
0.31
0.305
0.16
0.02
-0.225
-0.045
-0.005
0.0
0.13
0.185
0.26
0.275
0.125
-0.005
-0.23
-0.075
-0.045
-0.005
0.095
0.13
0.25
0.29
0.15
-0.04
-0.18
-0.065
-0.075
-0.045
0.105
0.18
0.235
0.225
0.125
-0.04
-0.225
-0.045
-0.02
-0.06
0.055
0.09
0.265
0.22
0.11
-0.075
-0.245
-0.075
-0.015
-0.005
-0.015
0.12
0.25
0.18
0.055
-0.05
-0.25
-0.085
-0.06
-0.035
0.06
0.105
0.28
0.26
0.1
-0.09
-0.19
-0.095
-0.08
0.05
0.09
0.13
0.265
0.26
0.12
-0.06
-0.22
-0.025
-0.04
0.025
0.105
0.125
0.295
0.195
0.125
-0.08
-0.095
0.02
0.055
0.16
0.24
0.22
0.385
0.29
0.235
0.055
0.01
0.13
0.065
0.17
0.25
0.265
0.44
0.3
0.275
0.03
0.075
0.155
0.14
0.165
0.26
0.31
0.365
0.25
0.225
0.035
0.06
0.145
0.125
0.2
0.235
0.29
0.4
0.27
0.19
-0.065
-0.065
0.0
0.07
0.085
0.175
0.2
0.25
0.155
0.075
-0.205
-0.115
-0.04
0.05
0.1
0.145
0.275
0.305
0.22
0.145
-0.145
-0.005
0.005
0.04
0.08
0.165
0.23
0.185
0.185
0.12
-0.12
0.045
0.11
0.115
0.175
0.245
0.355
0.34
0.245
0.12
-0.14
0.0
0.1
0.115
0.185
0.255
0.325
0.295
0.205
0.105
-0.14
0.07
0.085
0.105
0.215
0.2
0.29
0.335
0.21
0.125
-0.055
0.11
0.14
0.165
0.26
0.29
0.4
0.36
0.255
0.13
-0.015
0.135
0.155
0.165
0.235
0.34
0.45
0.37
0.3
0.15
-0.005
0.18
0.215
0.165
0.295
0.29
0.405
0.38
0.285
0.08
-0.045
0.11
0.11
0.165
0.22
0.235
0.38
0.31
0.165
0.02
-0.135
0.065
0.04
0.1
0.205
0.24
0.365
0.31
0.24
0.015
-0.025
0.14
0.145
0.17
0.27
0.28
0.44
0.36
0.215
-0.035
0.115
0.17
0.155
0.205
0.23
0.285
0.455
0.355
0.215
0.05
0.02
0.16
0.175
0.185
0.265
0.33
0.43
0.32
0.255
0.035
0.095
0.145
0.075
0.15
0.29
0.315
0.43
0.27
0.21
-0.065
-0.015
0.055
0.08
0.115
0.255
0.36
0.4
0.335
0.27
-0.015
0.08
0.13
0.135
0.15
0.255
0.33
0.4
0.265
0.2
-0.125
0.04
0.12
0.195
0.175
0.2
0.34
0.375
0.22
0.135
-0.07
0.11
0.165
0.155
0.24
0.315
0.4
0.43
0.33
0.2
0.025
0.185
0.2
0.21
0.3
0.32
0.45
0.425
0.33
0.13
-0.025
0.095
0.14
0.205
0.315
0.355
0.51
0.42
0.305
0.155
-0.035
0.155
0.155
0.195
0.19
0.25
0.395
0.34
0.23
0.1
-0.09
0.08
0.08
0.155
0.235
0.275
0.5
0.415
0.26
0.115
-0.04
0.11
0.145
0.205
0.26
0.3
0.47
0.365
0.24
0.08
-0.06
0.11
0.08
0.06
0.165
0.175
0.355
0.235
0.095
-0.13
-0.16
0.05
0.095
0.24
0.47
0.615
0.88
0.965
1.06
0.985
1.035
1.235
1.22
1.26
1.32
1.22
1.255
1.05
0.805
0.46
0.305
0.27
0.19
0.255
0.29
0.28
0.365
0.21
0.11
-0.12
-0.085
0.04
0.08
0.08
0.25
0.29
0.44
0.3
0.19
0.04
0.065
0.125
0.14
0.21
0.27
0.325
0.445
0.31
0.22
-0.035
0.04
0.12
0.145
0.18
0.215
0.295
0.425
0.31
0.27
0.01
0.14
0.145
0.14
0.24
0.33
0.405
0.47
0.325
0.225
-0.005
0.11
0.135
0.17
0.26
0.285
0.38
0.39
0.3
0.175
-0.03
0.16
0.145
0.145
0.27
0.34
0.435
0.4
0.3
0.155
0.0
0.145
0.2
0.18
0.28
0.295
0.49
0.46
0.345
0.2
0.04
0.205
0.215
0.25
0.32
0.34
0.525
0.46
0.35
0.235
0.025
0.185
0.24
0.31
0.38
0.39
0.555
0.545
0.4
0.245
0.115
0.26
0.275
0.33
0.42
0.465
0.55
0.51
0.37
0.26
0.17
0.28
0.325
0.36
0.38
0.435
0.57
0.54
0.415
0.255
0.085
0.245
0.27
0.36
0.405
0.415
0.545
0.465
0.335
0.19
0.11
0.215
0.19
0.225
0.305
0.285
0.445
0.375
0.225
0.025
0.0
0.12
0.1
0.175
0.22
0.19
0.39
0.275
0.19
-0.04
-0.045
0.015
0.075
0.07
0.125
0.17
0.345
0.26
0.21
-0.06
-0.005
0.07
0.095
0.085
0.18
0.29
0.365
0.245
0.2
-0.03
0.035
0.075
0.065
0.16
0.2
0.255
0.4
0.23
0.19
-0.085
0.005
0.065
0.04
0.12
0.2
0.3
0.33
0.24
0.12
-0.185
-0.03
0.015
0.04
0.105
0.145
0.3
0.325
0.235
0.115
-0.125
0.01
0.055
0.11
0.18
0.165
0.335
0.34
0.22
0.095
-0.1
0.045
0.085
0.145
0.205
0.21
0.375
0.325
0.21
0.07
-0.13
0.055
0.075
0.07
0.18
0.17
0.31
0.26
0.13
-0.025
-0.175
-0.035
0.02
0.03
0.055
0.135
0.295
0.25
0.13
0.015
-0.145
-0.01
0.055
0.095
0.15
0.175
0.235
0.29
0.16
0.01
-0.15
0.01
0.01
0.055
0.16
0.22
0.315
0.31
0.165
-0.04
-0.16
0.015
-0.02
0.085
0.135
0.19
0.39
0.3
0.18
-0.065
-0.165
0.03
0.005
0.05
0.18
0.18
0.335
0.26
0.1
-0.06
-0.11
-0.005
-0.09
0.005
0.145
0.14
0.285
0.19
0.14
-0.01
-0.135
0.005
0.025
0.075
0.18
0.15
0.345
0.205
0.135
-0.06
-0.02
0.055
0.01
0.09
0.17
0.18
0.305
0.195
0.115
-0.12
-0.095
0.015
0.015
0.07
0.165
0.235
0.32
0.16
0.1
-0.095
-0.07
-0.045
0.025
0.095
0.15
0.19
0.265
0.215
0.12
-0.09
-0.005
0.035
0.075
0.1
0.175
0.315
0.375
0.305
0.15
-0.065
0.095
0.135
0.16
0.245
0.325
0.405
0.375
0.28
0.19
-0.055
0.015
0.09
0.14
0.195
0.245
0.355
0.33
0.21
0.095
-0.1
0.055
0.105
0.08
0.1
0.19
0.32
0.29
0.16
0.0
-0.175
-0.01
0.02
0.0
0.13
0.135
0.28
0.265
0.15
-0.015
-0.21
-0.03
-0.04
0.0
0.085
0.04
0.245
0.2
0.065
-0.14
-0.28
-0.12
-0.105
-0.1
-0.045
-0.085
0.045
-0.005
-0.135
-0.33
-0.42
-0.18
-0.14
-0.015
0.2
0.295
0.625
0.775
0.78
0.71
0.7
0.885
0.885
0.925
0.965
0.915
0.89
0.67
0.545
0.21
-0.04
-0.025
-0.075
-0.015
0.055
0.05
0.14
0.04
-0.135
-0.285
-0.35
-0.225
-0.145
-0.17
-0.095
-0.06
0.12
0.015
-0.145
-0.29
-0.25
-0.205
-0.175
-0.13
-0.2
-0.1
0.09
0.015
-0.075
-0.31
-0.265
-0.22
-0.19
-0.17
-0.09
-0.04
0.09
-0.05
-0.08
-0.29
-0.23
-0.23
-0.155
-0.085
-0.025
0.03
0.12
0.0
-0.135
-0.335
-0.265
-0.23
-0.19
-0.16
-0.12
0.0
0.065
-0.06
-0.175
-0.41
-0.28
-0.255
-0.23
-0.16
-0.125
-0.025
0.055
-0.065
-0.17
-0.375
-0.235
-0.17
-0.175
-0.08
-0.08
0.06
0.1
-0.05
-0.1
-0.335
-0.245
-0.14
-0.09
0.045
0.035
0.2
0.23
0.09
-0.025
-0.255
-0.085
-0.02
0.005
0.1
0.115
0.27
0.21
0.12
-0.045
-0.215
0.025
0.0
0.03
0.09
0.15
0.26
0.275
0.19
0.06
-0.125
0.05
0.065
0.13
0.22
0.235
0.355
0.32
0.21
0.07
-0.17
-0.025
0.06
0.095
0.14
0.15
0.31
0.24
0.105
-0.075
-0.23
-0.025
-0.075
-0.005
0.095
0.15
0.25
0.165
0.075
-0.115
-0.245
-0.07
-0.145
-0.085
0.04
0.06
0.14
0.14
0.0
-0.21
-0.27
-0.055
-0.08
-0.095
-0.005
0.055
0.195
0.125
0.015
-0.165
-0.19
-0.125
-0.14
-0.065
0.02
0.04
0.085
0.11
0.06
-0.23
-0.25
-0.135
-0.14
-0.105
-0.025
0.05
0.19
0.05
-0.01
-0.185
-0.175
-0.095
-0.07
-0.035
0.055
0.085
0.185
0.115
-0.04
-0.23
-0.18
-0.075
-0.105
-0.01
0.065
0.14
0.19
0.115
0.025
-0.24
-0.12
-0.085
-0.055
0.01
0.08
0.19
0.225
0.06
0.01
-0.24
-0.055
-0.01
-0.03
0.045
0.06
0.18
0.23
0.05
-0.03
-0.255
-0.06
-0.07
-0.055
0.07
0.17
0.16
0.18
0.11
-0.09
-0.265
-0.055
-0.005
-0.01
0.06
0.045
0.155
0.165
0.05
-0.075
-0.245
-0.075
-0.065
-0.04
0.045
0.1
0.23
0.165
0.075
-0.11
-0.24
-0.11
-0.075
-0.02
0.075
0.075
0.21
0.165
0.045
-0.085
-0.245
-0.105
-0.04
0.06
0.1
0.085
0.235
0.205
0.07
-0.03
-0.245
-0.035
-0.02
-0.005
0.05
0.08
0.28
0.21
0.08
-0.095
-0.235
-0.065
-0.07
0.015
0.075
0.11
0.18
0.24
0.105
-0.11
-0.26
-0.04
-0.035
0.115
0.135
0.17
0.325
0.26
0.125
-0.115
-0.14
0.075
0.03
0.095
0.225
0.215
0.39
0.33
0.21
0.07
0.0
0.135
0.115
0.18
0.22
0.24
0.385
0.275
0.195
-0.01
0.015
0.095
0.075
0.12
0.21
0.29
0.385
0.2
0.21
-0.055
-0.065
0.06
0.03
0.07
0.155
0.225
0.265
0.175
0.12
-0.16
-0.07
-0.03
0.04
0.08
0.105
0.215
0.33
0.14
0.085
-0.14
-0.03
-0.04
0.035
0.06
0.145
0.24
0.3
0.17
0.03
-0.25
-0.09
-0.035
-0.065
-0.025
0.055
0.115
0.12
0.06
-0.08
-0.18
0.03
0.2
0.395
0.67
0.82
1.08
1.165
1.16
1.12
0.855
0.97
0.995
0.89
0.805
0.715
0.775
0.645
0.36
0.125
-0.175
-0.015
0.05
0.035
0.045
0.105
0.255
0.135
0.045
-0.1
-0.3
-0.05
0.015
0.005
0.075
0.15
0.32
0.29
0.18
0.0
-0.18
-0.02
0.055
0.02
0.13
0.155
0.31
0.25
0.14
0.04
-0.14
-0.005
0.045
0.09
0.18
0.23
0.38
0.32
0.185
0.005
-0.07
0.07
-0.01
0.105
0.185
0.2
0.325
0.3
0.14
-0.005
-0.12
0.075
0.1
0.14
0.19
0.19
0.33
0.315
0.235
0.005
-0.055
0.12
0.065
0.15
0.27
0.28
0.44
0.385
0.18
0.015
-0.04
0.045
0.085
0.17
0.24
0.245
0.365
0.29
0.22
0.01
0.07
0.115
0.175
0.185
0.285
0.325
0.41
0.34
0.32
0.115
0.125
0.18
0.225
0.3
0.34
0.415
0.54
0.435
0.34
0.145
0.24
0.23
0.3
0.375
0.455
0.56
0.615
0.485
0.425
0.155
0.295
0.31
0.335
0.48
0.52
0.62
0.635
0.475
0.405
0.17
0.295
0.325
0.37
0.425
0.45
0.52
0.495
0.365
0.235
0.02
0.145
0.21
0.2
0.26
0.255
0.41
0.395
0.24
0.09
-0.125
0.05
0.1
0.12
0.195
0.19
0.405
0.39
0.255
0.1
-0.13
0.08
0.105
0.14
0.235
0.22
0.335
0.345
0.22
0.07
-0.12
0.015
0.03
0.095
0.155
0.24
0.35
0.305
0.215
0.05
-0.195
-0.03
0.085
0.105
0.15
0.16
0.33
0.305
0.165
-0.025
-0.135
0.015
0.035
0.155
0.19
0.19
0.34
0.265
0.115
-0.025
-0.185
-0.01
0.02
0.08
0.115
0.18
0.355
0.265
0.155
-0.01
-0.055
-0.005
0.005
0.1
0.135
0.165
0.34
0.255
0.15
0.0
-0.05
0.05
0.035
0.105
0.16
0.195
0.325
0.245
0.14
-0.1
-0.055
0.03
0.035
0.08
0.22
0.205
0.305
0.205
0.095
-0.12
-0.045
0.055
0.065
0.07
0.165
0.23
0.345
0.19
0.13
-0.13
-0.03
0.09
0.06
0.08
0.145
0.225
0.225
0.13
0.04
-0.17
-0.03
-0.04
-0.015
0.095
0.125
0.245
0.255
0.14
0.085
-0.17
-0.075
-0.015
-0.02
0.095
0.125
0.26
0.3
0.125
0.095
-0.13
-0.025
0.11
0.095
0.155
0.135
0.335
0.325
0.195
0.085
-0.125
0.09
0.115
0.04
0.15
0.21
0.375
0.3
0.18
0.025
-0.115
0.02
0.095
0.105
0.105
0.23
0.37
0.29
0.155
0.06
-0.13
0.055
0.125
0.155
0.195
0.21
0.39
0.395
0.295
0.125
-0.105
0.12
0.195
0.195
0.3
0.255
0.435
0.355
0.255
0.135
-0.03
0.155
0.14
0.18
0.26
0.31
0.515
0.42
0.31
0.15
0.02
0.19
0.24
0.29
0.355
0.485
0.58
0.49
0.375
0.26
0.175
0.3
0.245
0.425
0.41
0.425
0.57
0.455
0.42
0.19
0.16
0.29
0.24
0.28
0.38
0.37
0.515
0.43
0.375
0.105
0.1
0.18
0.185
0.235
0.31
0.32
0.47
0.4
0.34
0.095
0.13
0.185
0.155
0.34
0.34
0.385
0.485
0.38
0.32
0.095
0.195
0.195
0.215
0.27
0.325
0.32
0.44
0.33
0.24
0.025
0.075
0.05
0.14
0.215
0.345
0.505
0.645
0.63
0.715
0.6
0.905
1.05
1.145
1.3
1.32
1.335
1.36
1.18
1.0
0.69
0.68
0.62
0.545
0.46
0.385
0.505
0.545
0.375
0.195
-0.035
0.11
0.12
0.155
0.265
0.295
0.365
0.39
0.285
0.225
0.055
0.22
0.24
0.2
0.385
0.385
0.57
0.485
0.37
0.235
0.01
0.215
0.265
0.255
0.385
0.445
0.555
0.525
0.41
0.31
0.155
0.265
0.285
0.315
0.415
0.45
0.615
0.595
0.435
0.265
0.165
0.31
0.285
0.345
0.43
0.485
0.555
0.57
0.455
0.27
0.105
0.285
0.31
0.345
0.445
0.405
0.6
0.565
0.415
0.22
0.19
0.345
0.345
0.38
0.51
0.495
0.66
0.59
0.51
0.305
0.23
0.405
0.43
0.485
0.525
0.53
0.72
0.625
0.505
0.325
0.3
0.41
0.335
0.405
0.54
0.55
0.745
0.62
0.56
0.35
0.39
0.465
0.415
0.475
0.605
0.67
0.795
0.715
0.675
0.425
0.435
0.58
0.565
0.645
0.745
0.765
0.875
0.78
0.76
0.545
0.54
0.6
0.61
0.66
0.74
0.78
0.86
0.73
0.62
0.395
0.44
0.5
0.515
0.535
0.635
0.655
0.705
0.53
0.48
0.185
0.305
0.4
0.4
0.45
0.595
0.62
0.64
0.53
0.395
0.15
0.31
0.345
0.415
0.47
0.49
0.61
0.63
0.52
0.395
0.22
0.37
0.37
0.405
0.51
0.55
0.66
0.63
0.555
0.405
0.19
0.425
0.495
0.44
0.57
0.56
0.73
0.71
0.575
0.45
0.28
0.41
0.44
0.515
0.565
0.625
0.81
0.72
0.625
0.46
0.275
0.47
0.515
0.545
0.635
0.695
0.855
0.825
0.665
0.495
0.36
0.47
0.495
0.595
0.745
0.755
0.885
0.765
0.695
0.545
0.36
0.55
0.57
0.655
0.695
0.71
0.86
0.825
0.67
0.515
0.39
0.49
0.57
0.675
0.755
0.74
0.85
0.79
0.68
0.525
0.39
0.58
0.565
0.6
0.68
0.73
0.85
0.81
0.73
0.495
0.45
0.565
0.605
0.64
0.675
0.715
0.85
0.73
0.66
0.49
0.46
0.565
0.575
0.625
0.715
0.735
0.88
0.765
0.68
0.5
0.505
0.59
0.595
0.665
0.725
0.81
0.965
0.815
0.685
0.505
0.565
0.615
0.61
0.675
0.77
0.89
0.9
0.77
0.705
0.505
0.59
0.61
0.655
0.74
0.815
0.875
0.9
0.86
0.775
0.47
0.575
0.66
0.69
0.755
0.79
0.905
0.925
0.835
0.76
0.53
0.645
0.695
0.71
0.865
0.88
0.97
1.015
0.86
0.785
0.62
0.735
0.765
0.78
0.88
0.895
1.03
1.065
0.91
0.76
0.565
0.7
0.775
0.81
0.885
0.865
1.045
0.955
0.845
0.74
0.55
0.705
0.74
0.77
0.93
0.83
1.02
0.985
0.875
0.715
0.48
0.625
0.725
0.735
0.82
0.85
1.015
0.94
0.81
0.64
0.48
0.68
0.68
0.745
0.815
0.825
1.0
0.945
0.775
0.625
0.515
0.65
0.645
0.73
0.795
0.81
0.95
0.875
0.66
0.54
0.49
0.645
0.685
0.805
1.0
1.13
1.395
1.52
1.56
1.47
1.52
1.625
1.57
1.655
1.61
1.54
1.58
1.47
1.25
0.92
0.75
0.745
0.665
0.715
0.77
0.79
0.845
0.73
0.66
0.395
0.455
0.54
0.535
0.645
0.73
0.78
0.88
0.77
0.74
0.52
0.52
0.58
0.6
0.65
0.72
0.78
0.89
0.76
0.73
0.46
0.56
0.65
0.655
0.76
0.82
0.86
0.915
0.77
0.76
0.53
0.6
0.685
0.695
0.755
0.83
0.94
0.97
0.825
0.75
0.455
0.59
0.735
0.73
0.775
0.84
0.955
0.985
0.86
0.665
0.51
0.72
0.715
0.78
0.85
0.835
1.01
1.005
0.87
0.74
0.62
0.725
0.73
0.73
0.86
0.885
1.01
1.005
0.865
0.755
0.57
0.74
0.795
0.82
0.88
0.885
1.07
1.0
0.935
0.765
0.625
0.825
0.81
0.79
0.97
1.06
1.18
1.145
1.025
0.865
0.685
0.875
0.935
1.01
1.075
1.085
1.275
1.2
1.08
0.895
0.79
0.95
0.96
1.015
1.1
1.185
1.28
1.235
1.11
0.95
0.795
0.96
0.98
1.03
1.06
1.045
1.24
1.17
1.025
0.805
0.705
0.92
0.92
0.925
1.04
1.05
1.22
1.115
0.99
0.82
0.69
0.86
0.895
0.93
0.96
0.99
1.175
1.11
1.025
0.775
0.79
0.865
0.88
0.955
1.045
1.045
1.145
1.085
1.04
0.895
0.855
0.865
0.955
0.995
1.05
1.125
1.245
1.12
1.02
0.81
0.885
0.905
1.0
1.06
1.075
1.135
1.245
1.09
0.98
0.71
0.795
0.885
0.89
0.93
0.96
1.035
1.1
0.985
0.865
0.675
0.73
0.79
0.755
0.785
0.835
0.92
0.985
0.875
0.73
0.58
0.735
0.73
0.76
0.85
0.835
0.955
0.94
0.895
0.76
0.575
0.665
0.72
0.725
0.82
0.86
0.98
0.95
0.82
0.695
0.52
0.65
0.665
0.605
0.865
0.87
0.955
0.935
0.835
0.67
0.52
0.675
0.645
0.635
0.76
0.785
0.885
0.86
0.81
0.665
0.42
0.555
0.585
0.615
0.645
0.73
0.85
0.805
0.7
0.515
0.37
0.54
0.565
0.58
0.665
0.675
0.89
0.785
0.63
0.48
0.345
0.54
0.575
0.565
0.62
0.625
0.81
0.755
0.645
0.48
0.315
0.5
0.545
0.57
0.635
0.67
0.835
0.735
0.62
0.425
0.36
0.525
0.495
0.51
0.66
0.61
0.775
0.715
0.64
0.38
0.385
0.53
0.51
0.495
0.61
0.58
0.755
0.71
0.6
0.36
0.39
0.475
0.455
0.525
0.595
0.615
0.74
0.645
0.615
0.375
0.425
0.525
0.535
0.54
0.63
0.675
0.76
0.645
0.58
0.4
0.43
0.51
0.455
0.6
0.66
0.76
0.825
0.72
0.615
0.43
0.54
0.595
0.585
0.585
0.67
0.775
0.875
0.765
0.685
0.385
0.53
0.62
0.67
0.71
0.775
0.86
0.91
0.78
0.705
0.44
0.605
0.665
0.71
0.745
0.765
0.885
0.87
0.78
0.705
0.465
0.555
0.61
0.625
0.8
0.77
0.83
0.865
0.705
0.605
0.41
0.52
0.515
0.625
0.715
0.68
0.8
0.8
0.65
0.56
0.335
0.495
0.505
0.555
0.695
0.72
0.825
0.775
0.685
0.53
0.315
0.49
0.565
0.605
0.58
0.57
0.75
0.75
0.645
0.46
0.275
0.43
0.47
0.555
0.64
0.77
1.085
1.135
1.155
1.165
1.145
1.405
1.53
1.62
1.575
1.58
1.645
1.445
1.285
1.015
0.765
0.8
0.67
0.605
0.615
0.635
0.74
0.65
0.435
0.215
0.11
0.325
0.34
0.365
0.475
0.48
0.585
0.605
0.48
0.31
0.255
0.36
0.415
0.455
0.47
0.505
0.6
0.57
0.535
0.32
0.285
0.42
0.42
0.48
0.57
0.59
0.735
0.605
0.495
0.335
0.3
0.42
0.405
0.49
0.555
0.6
0.665
0.555
0.5
0.245
0.345
0.415
0.45
0.51
0.52
0.625
0.7
0.58
0.495
0.285
0.395
0.415
0.435
0.48
0.605
0.66
0.725
0.63
0.53
0.32
0.35
0.49
0.465
0.535
0.615
0.68
0.7
0.545
0.475
0.255
0.39
0.455
0.52
0.58
0.61
0.83
0.75
0.61
0.545
0.345
0.545
0.625
0.605
0.71
0.73
0.855
0.84
0.725
0.61
0.425
0.565
0.655
0.705
0.74
0.765
0.9
0.875
0.81
0.59
0.39
0.585
0.605
0.63
0.715
0.775
0.86
0.875
0.815
0.635
0.39
0.605
0.63
0.635
0.7
0.75
0.89
0.855
0.685
0.52
0.345
0.56
0.585
0.625
0.685
0.66
0.845
0.79
0.63
0.47
0.32
0.485
0.49
0.545
0.63
0.61
0.765
0.74
0.615
0.37
0.275
0.405
0.38
0.425
0.49
0.42
0.63
0.585
0.455
0.26
0.26
0.35
0.39
0.395
0.445
0.465
0.625
0.49
0.46
0.255
0.265
0.385
0.395
0.445
0.48
0.505
0.69
0.55
0.455
0.3
0.325
0.395
0.405
0.47
0.55
0.535
0.705
0.575
0.475
0.26
0.29
0.36
0.315
0.415
0.49
0.52
0.59
0.545
0.47
0.25
0.295
0.33
0.4
0.43
0.51
0.615
0.69
0.53
0.47
0.23
0.31
0.355
0.38
0.465
0.53
0.6
0.65
0.545
0.425
0.165
0.335
0.395
0.39
0.43
0.475
0.62
0.675
0.45
0.385
0.205
0.265
0.34
0.36
0.445
0.415
0.54
0.525
0.47
0.34
0.15
0.25
0.29
0.31
0.4
0.38
0.53
0.57
0.4
0.17
0.135
0.265
0.285
0.315
0.435
0.4
0.47
0.465
0.355
0.255
0.055
0.22
0.28
0.3
0.35
0.38
0.515
0.49
0.36
0.175
0.085
0.26
0.28
0.32
0.37
0.445
0.525
0.49
0.4
0.225
0.14
0.265
0.275
0.345
0.38
0.445
0.555
0.535
0.405
0.215
0.115
0.275
0.26
0.335
0.395
0.365
0.485
0.47
0.315
0.195
0.02
0.205
0.195
0.22
0.365
0.38
0.485
0.43
0.305
0.145
0.065
0.155
0.165
0.265
0.325
0.34
0.495
0.36
0.24
0.08
0.015
0.13
0.155
0.26
0.33
0.38
0.51
0.435
0.31
0.16
0.125
0.175
0.225
0.265
0.355
0.39
0.54
0.415
0.42
0.25
0.245
0.325
0.38
0.46
0.505
0.565
0.69
0.555
0.485
0.24
0.26
0.33
0.355
0.38
0.465
0.605
0.595
0.48
0.405
0.185
0.255
0.27
0.295
0.325
0.405
0.425
0.455
0.33
0.26
-0.015
0.1
0.155
0.205
0.26
0.3
0.36
0.41
0.285
0.19
-0.065
0.105
0.12
0.2
0.295
0.25
0.305
0.37
0.285
0.165
-0.02
0.08
0.07
0.15
0.18
0.165
0.26
0.26
0.125
-0.005
-0.195
-0.02
0.035
0.16
0.35
0.51
0.88
1.005
1.04
1.085
1.02
1.225
1.225
1.185
1.335
1.27
1.21
1.035
0.88
0.62
0.335
0.335
0.27
0.225
0.37
0.325
0.475
0.39
0.23
0.08
-0.05
0.09
0.135
0.16
0.205
0.295
0.405
0.375
0.285
0.155
0.015
0.185
0.155
0.235
0.325
0.31
0.515
0.425
0.29
0.095
-0.025
0.22
0.195
0.235
0.29
0.355
0.555
0.44
0.23
0.11
0.12
0.205
0.21
0.31
0.365
0.365
0.56
0.495
0.355
0.18
0.115
0.215
0.25
0.3
0.445
0.43
0.57
0.485
0.345
0.15
0.18
0.24
0.24
0.29
0.4
0.425
0.54
0.46
0.37
0.16
0.21
0.28
0.295
0.36
0.455
0.515
0.555
0.43
0.38
0.2
0.225
0.295
0.345
0.34
0.435
0.515
0.625
0.51
0.475
0.225
0.285
0.365
0.38
0.47
0.515
0.63
0.7
0.585
0.5
0.28
0.36
0.44
0.48
0.46
0.52
0.64
0.725
0.56
0.49
0.315
0.43
0.425
0.5
0.605
0.655
0.7
0.745
0.6
0.415
0.24
0.43
0.46
0.485
0.56
0.585
0.73
0.725
0.63
0.415
0.22
0.365
0.445
0.465
0.435
0.53
0.625
0.605
0.435
0.35
0.115
0.285
0.315
0.395
0.445
0.47
0.61
0.595
0.46
0.245
0.08
0.29
0.34
0.36
0.445
0.52
0.63
0.56
0.465
0.33
0.215
0.375
0.37
0.395
0.525
0.575
0.705
0.67
0.46
0.35
0.285
0.425
0.44
0.455
0.545
0.61
0.755
0.75
0.61
0.415
0.33
0.395
0.47
0.525
0.59
0.595
0.745
0.715
0.65
0.39
0.305
0.48
0.47
0.545
0.6
0.64
0.795
0.7
0.585
0.39
0.38
0.515
0.515
0.575
0.675
0.665
0.795
0.695
0.59
0.405
0.42
0.505
0.555
0.6
0.645
0.68
0.81
0.69
0.665
0.41
0.455
0.565
0.58
0.6
0.695
0.69
0.865
0.75
0.675
0.435
0.525
0.615
0.65
0.625
0.69
0.775
0.93
0.725
0.64
0.395
0.515
0.62
0.61
0.65
0.705
0.795
0.84
0.7
0.655
0.425
0.56
0.57
0.6
0.655
0.745
0.78
0.9
0.77
0.635
0.405
0.555
0.555
0.585
0.685
0.735
0.825
0.835
0.71
0.63
0.415
0.525
0.575
0.59
0.685
0.705
0.84
0.795
0.755
0.615
0.325
0.575
0.6
0.645
0.72
0.71
0.825
0.84
0.69
0.595
0.37
0.56
0.565
0.595
0.74
0.735
0.84
0.87
0.75
0.6
0.445
0.575
0.515
0.605
0.725
0.665
0.91
0.875
0.71
0.565
0.425
0.57
0.585
0.61
0.755
0.74
0.865
0.825
0.72
0.535
0.445
0.595
0.585
0.605
0.705
0.735
0.885
0.82
0.705
0.585
0.465
0.62
0.56
0.69
0.78
0.77
0.95
0.83
0.75
0.595
0.485
0.67
0.61
0.72
0.815
0.805
0.95
0.925
0.855
0.63
0.615
0.715
0.69
0.785
0.81
0.84
1.05
0.93
0.835
0.595
0.555
0.685
0.715
0.665
0.815
0.84
0.94
0.87
0.765
0.5
0.56
0.605
0.625
0.665
0.755
0.745
0.87
0.735
0.675
0.46
0.56
0.61
0.565
0.61
0.695
0.685
0.78
0.7
0.63
0.395
0.475
0.545
0.59
0.615
0.645
0.735
0.845
0.725
0.595
0.335
0.465
0.475
0.505
0.545
0.635
0.695
0.645
0.54
0.475
0.27
0.45
0.6
0.755
0.975
1.15
1.47
1.65
1.585
1.565
1.405
1.565
1.49
1.51
1.555
1.465
1.475
1.365
1.105
0.83
0.46
0.565
0.59
0.61
0.64
0.595
0.705
0.66
0.505
0.38
0.275
0.37
0.475
0.495
0.585
0.62
0.745
0.74
0.625
0.46
0.325
0.475
0.505
0.57
0.62
0.65
0.765
0.76
0.615
0.485
0.29
0.53
0.56
0.56
0.68
0.66
0.805
0.745
0.63
0.46
0.325
0.535
0.53
0.595
0.715
0.675
0.835
0.75
0.575
0.495
0.43
0.56
0.585
0.65
0.71
0.735
0.89
0.805
0.735
0.56
0.445
0.565
0.56
0.67
0.755
0.745
0.945
0.875
0.695
0.53
0.49
0.585
0.59
0.7
0.79
0.765
0.925
0.895
0.84
0.57
0.56
0.69
0.74
0.735
0.81
0.86
0.955
0.885
0.82
0.56
0.66
0.735
0.75
0.825
0.885
0.945
1.04
0.94
0.865
0.575
0.64
0.785
0.825
0.81
0.88
0.96
1.085
0.925
0.905
0.65
0.695
0.785
0.805
0.835
0.935
0.98
0.97
0.935
0.865
0.6
0.7
0.76
0.69
0.84
0.86
0.905
0.945
0.85
0.76
0.49
0.605
0.665
0.7
0.755
0.7
0.855
0.845
0.715
0.595
0.405
0.5
0.555
0.6
0.665
0.67
0.805
0.84
0.71
0.53
0.335
0.52
0.555
0.53
0.61
0.64
0.79
0.755
0.625
0.53
0.33
0.455
0.555
0.54
0.625
0.63
0.815
0.8
0.63
0.48
0.325
0.485
0.54
0.535
0.625
0.605
0.805
0.74
0.625
0.44
0.335
0.49
0.535
0.54
0.575
0.675
0.765
0.75
0.605
0.455
0.28
0.455
0.485
0.535
0.6
0.595
0.69
0.75
0.6
0.4
0.31
0.455
0.45
0.515
0.575
0.58
0.695
0.665
0.6
0.38
0.295
0.375
0.42
0.49
0.57
0.57
0.675
0.56
0.53
0.305
0.27
0.38
0.4
0.465
0.515
0.48
0.675
0.57
0.455
0.195
0.205
0.35
0.32
0.34
0.43
0.49
0.585
0.455
0.39
0.13
0.18
0.355
0.21
0.31
0.425
0.49
0.55
0.41
0.345
0.14
0.18
0.275
0.26
0.29
0.355
0.46
0.495
0.405
0.32
0.05
0.195
0.25
0.25
0.235
0.425
0.46
0.455
0.31
0.27
0.03
0.165
0.225
0.255
0.295
0.41
0.47
0.45
0.375
0.275
0.01
0.14
0.2
0.23
0.285
0.305
0.315
0.445
0.31
0.27
0.05
0.125
0.245
0.25
0.29
0.28
0.4
0.505
0.33
0.185
-0.025
0.155
0.195
0.23
0.3
0.325
0.44
0.45
0.325
0.075
-0.02
0.135
0.155
0.265
0.305
0.25
0.41
0.385
0.32
0.18
-0.015
0.14
0.19
0.2
0.255
0.29
0.455
0.41
0.24
0.095
-0.015
0.165
0.22
0.265
0.315
0.315
0.495
0.39
0.305
0.165
0.04
0.175
0.16
0.22
0.31
0.275
0.46
0.42
0.22
0.14
0.045
0.155
0.2
0.27
0.315
0.37
0.505
0.36
0.28
0.085
-0.01
0.14
0.185
0.21
0.295
0.285
0.395
0.31
0.315
0.06
0.04
0.13
0.125
0.135
0.245
0.225
0.355
0.245
0.13
-0.035
-0.065
0.02
0.06
0.04
0.175
0.185
0.3
0.165
0.05
-0.115
-0.035
0.02
0.01
0.0
0.09
0.155
0.31
0.135
0.095
-0.165
-0.085
-0.04
-0.025
-0.03
0.06
0.065
0.135
0.0
-0.085
-0.27
-0.155
-0.02
0.075
0.265
0.435
0.68
0.855
0.9
0.96
0.805
1.03
1.035
1.075
1.09
1.035
1.025
0.9
0.665
0.405
0.025
0.07
-0.01
0.0
0.115
0.115
0.165
0.125
-0.04
-0.2
-0.365
-0.2
-0.155
-0.11
0.015
0.01
0.125
0.105
0.065
-0.115
-0.255
-0.125
-0.05
-0.08
0.015
0.02
0.135
0.185
0.05
-0.085
-0.285
-0.14
-0.035
0.015
0.075
0.025
0.215
0.175
0.075
-0.125
-0.225
-0.065
-0.08
-0.01
0.04
0.085
0.28
0.2
0.04
-0.08
-0.25
-0.055
-0.045
-0.025
0.06
0.095
0.27
0.24
0.115
-0.07
-0.165
-0.03
-0.01
0.04
0.055
0.14
0.305
0.26
0.165
-0.09
-0.125
0.025
0.005
0.075
0.105
0.16
0.35
0.245
0.09
-0.1
-0.115
0.04
-0.02
0.04
0.095
0.15
0.335
0.16
0.11
-0.065
-0.105
-0.025
-0.035
0.065
0.195
0.185
0.37
0.23
0.155
-0.03
-0.015
0.075
0.045
0.14
0.24
0.25
0.38
0.28
0.225
-0.035
0.02
0.11
0.125
0.155
0.215
0.34
0.44
0.345
0.17
-0.06
0.035
0.07
0.12
0.12
0.265
0.305
0.355
0.2
0.15
-0.1
-0.02
0.005
0.03
0.035
0.13
0.24
0.265
0.125
0.015
-0.265
-0.14
-0.045
0.0
0.06
0.11
0.125
0.175
0.05
0.025
-0.275
-0.085
-0.045
0.0
0.08
0.07
0.16
0.165
0.06
-0.035
-0.25
-0.115
-0.05
-0.045
0.06
0.085
0.195
0.185
0.08
-0.025
-0.215
-0.075
-0.035
-0.045
0.06
0.075
0.2
0.21
0.14
-0.05
-0.205
-0.06
-0.015
0.01
0.115
0.155
0.32
0.235
0.14
0.03
-0.125
-0.035
0.005
0.08
0.175
0.21
0.31
0.295
0.14
-0.005
-0.165
-0.02
-0.01
0.075
0.155
0.165
0.295
0.22
0.11
-0.065
-0.215
-0.04
0.005
0.025
0.15
0.09
0.275
0.165
0.075
-0.095
-0.22
-0.06
-0.08
0.045
0.065
0.09
0.27
0.15
0.06
-0.135
-0.18
-0.075
-0.13
-0.04
0.035
0.035
0.185
0.135
0.07
-0.225
-0.225
-0.155
-0.145
-0.05
0.05
0.04
0.205
0.095
0.015
-0.15
-0.19
-0.12
-0.09
-0.065
0.0
0.08
0.19
0.07
0.015
-0.205
-0.165
-0.11
-0.095
-0.025
0.015
-0.005
0.125
0.03
0.0
-0.195
-0.17
-0.155
-0.115
-0.08
0.03
0.08
0.105
0.015
-0.03
-0.275
-0.175
-0.12
-0.14
-0.07
-0.02
0.055
0.11
0.0
-0.08
-0.31
-0.28
-0.175
-0.09
-0.045
-0.02
0.1
0.06
-0.03
-0.09
-0.31
-0.2
-0.18
-0.105
-0.015
0.03
0.1
0.085
0.03
-0.07
-0.345
-0.195
-0.14
-0.145
-0.095
-0.06
0.09
0.125
-0.045
-0.22
-0.355
-0.16
-0.17
-0.16
-0.1
-0.06
0.075
0.025
-0.075
-0.18
-0.345
-0.22
-0.245
-0.195
-0.135
-0.015
0.075
0.065
-0.06
-0.23
-0.395
-0.22
-0.155
-0.165
-0.08
0.015
0.11
0.055
-0.015
-0.235
-0.395
-0.23
-0.2
-0.09
-0.04
-0.09
0.085
0.055
-0.105
-0.31
-0.415
-0.255
-0.245
-0.235
-0.14
-0.12
0.065
0.0
-0.135
-0.325
-0.455
-0.31
-0.315
-0.3
-0.215
-0.145
-0.07
-0.165
-0.2
-0.45
-0.52
-0.39
-0.335
-0.305
-0.23
-0.19
-0.11
-0.215
-0.295
-0.52
-0.525
-0.4
-0.445
-0.39
-0.3
-0.26
-0.12
-0.225
-0.315
-0.56
-0.52
-0.465
-0.535
-0.485
-0.4
-0.39
-0.255
-0.345
-0.365
-0.565
-0.34
-0.185
-0.05
0.17
0.45
0.61
0.825
0.765
0.665
0.405
0.465
0.415
0.31
0.245
0.25
0.19
0.135
-0.1
-0.275
-0.645
-0.48
-0.455
-0.465
-0.45
-0.42
-0.36
-0.32
-0.535
-0.53
-0.675
-0.54
-0.535
-0.52
-0.435
-0.36
-0.26
-0.215
-0.305
-0.48
-0.7
-0.5
-0.48
-0.525
-0.45
-0.4
-0.265
-0.235
-0.38
-0.51
-0.665
-0.53
-0.505
-0.485
-0.375
-0.365
-0.26
-0.28
-0.39
-0.51
-0.715
-0.535
-0.49
-0.49
-0.385
-0.36
-0.24
-0.3
-0.4
-0.46
-0.62
-0.535
-0.51
-0.5
-0.455
-0.4
-0.215
-0.25
-0.44
-0.525
-0.665
-0.535
-0.515
-0.48
-0.405
-0.365
-0.19
-0.245
-0.355
-0.495
-0.665
-0.495
-0.46
-0.435
-0.365
-0.365
-0.235
-0.215
-0.365
-0.485
-0.62
-0.495
-0.52
-0.425
-0.34
-0.34
-0.11
-0.21
-0.33
-0.45
-0.585
-0.46
-0.405
-0.37
-0.265
-0.265
-0.16
-0.17
-0.255
-0.435
-0.505
-0.35
-0.335
-0.29
-0.17
-0.255
-0.045
-0.105
-0.17
-0.415
-0.445
-0.35
-0.35
-0.26
-0.195
-0.13
-0.015
-0.12
-0.215
-0.47
-0.465
-0.385
-0.39
-0.32
-0.26
-0.215
-0.1
-0.25
-0.36
-0.595
-0.525
-0.48
-0.47
-0.47
-0.36
-0.375
-0.21
-0.335
-0.375
-0.655
-0.555
-0.525
-0.485
-0.55
-0.445
-0.375
-0.3
-0.365
-0.375
-0.7
-0.595
-0.515
-0.57
-0.505
-0.395
-0.35
-0.34
-0.505
-0.54
-0.785
-0.665
-0.625
-0.57
-0.485
-0.435
-0.365
-0.31
-0.44
-0.49
-0.75
-0.635
-0.58
-0.54
-0.48
-0.48
-0.335
-0.35
-0.47
-0.605
-0.825
-0.665
-0.625
-0.56
-0.475
-0.475
-0.38
-0.35
-0.485
-0.635
-0.8
-0.59
-0.56
-0.625
-0.425
-0.465
-0.275
-0.35
-0.515
-0.655
-0.775
-0.62
-0.625
-0.555
-0.45
-0.475
-0.31
-0.31
-0.465
-0.605
-0.75
-0.61
-0.605
-0.59
-0.475
-0.455
-0.255
-0.34
-0.5
-0.655
-0.735
-0.575
-0.635
-0.605
-0.52
-0.44
-0.275
-0.36
-0.515
-0.685
-0.795
-0.61
-0.58
-0.535
-0.46
-0.45
-0.315
-0.38
-0.515
-0.705
-0.815
-0.63
-0.62
-0.59
-0.495
-0.48
-0.315
-0.405
-0.485
-0.68
-0.76
-0.62
-0.61
-0.55
-0.495
-0.47
-0.34
-0.41
-0.475
-0.695
-0.715
-0.645
-0.64
-0.57
-0.455
-0.5
-0.37
-0.405
-0.49
-0.745
-0.685
-0.62
-0.67
-0.58
-0.495
-0.53
-0.4
-0.495
-0.52
-0.805
-0.69
-0.66
-0.675
-0.635
-0.57
-0.47
-0.385
-0.435
-0.58
-0.775
-0.695
-0.66
-0.675
-0.59
-0.545
-0.485
-0.345
-0.47
-0.565
-0.84
-0.755
-0.645
-0.625
-0.61
-0.54
-0.495
-0.43
-0.52
-0.605
-0.84
-0.735
-0.675
-0.635
-0.545
-0.52
-0.425
-0.35
-0.55
-0.655
-0.82
-0.685
-0.64
-0.58
-0.45
-0.43
-0.34
-0.37
-0.465
-0.53
-0.76
-0.655
-0.595
-0.61
-0.44
-0.48
-0.35
-0.38
-0.48
-0.58
-0.795
-0.635
-0.59
-0.56
-0.54
-0.495
-0.345
-0.355
-0.555
-0.675
-0.845
-0.72
-0.68
-0.675
-0.505
-0.57
-0.355
-0.43
-0.585
-0.7
-0.85
-0.665
-0.705
-0.635
-0.555
-0.565
-0.385
-0.43
-0.54
-0.705
-0.885
-0.75
-0.71
-0.655
-0.565
-0.555
-0.4
-0.515
-0.61
-0.77
-0.94
-0.8
-0.84
-0.78
-0.705
-0.64
-0.4
-0.395
-0.395
-0.52
-0.475
-0.16
-0.035
0.18
0.36
0.485
0.61
0.48
0.36
0.105
-0.07
-0.04
-0.145
-0.26
-0.19
-0.305
-0.3
-0.415
-0.48
-0.75
-0.81
-0.745
-0.745
-0.715
-0.63
-0.66
-0.435
-0.49
-0.525
-0.75
-0.815
-0.665
-0.685
-0.625
-0.57
-0.425
-0.3
-0.45
-0.51
-0.765
-0.745
-0.635
-0.615
-0.505
-0.45
-0.455
-0.295
-0.44
-0.5
-0.755
-0.67
-0.605
-0.69
-0.505
-0.46
-0.38
-0.32
-0.405
-0.475
-0.74
-0.645
-0.59
-0.53
-0.52
-0.49
-0.37
-0.325
-0.435
-0.545
-0.745
-0.66
-0.63
-0.58
-0.53
-0.425
-0.315
-0.29
-0.425
-0.545
-0.74
-0.595
-0.56
-0.555
-0.51
-0.445
-0.36
-0.33
-0.37
-0.53
-0.735
-0.6
-0.535
-0.53
-0.435
-0.45
-0.315
-0.31
-0.43
-0.54
-0.76
-0.545
-0.56
-0.435
-0.385
-0.38
-0.22
-0.185
-0.32
-0.465
-0.64
-0.45
-0.43
-0.4
-0.335
-0.285
-0.14
-0.15
-0.245
-0.48
-0.59
-0.43
-0.44
-0.355
-0.27
-0.265
-0.105
-0.175
-0.315
-0.44
-0.56
-0.415
-0.33
-0.375
-0.275
-0.25
-0.155
-0.22
-0.325
-0.49
-0.645
-0.505
-0.515
-0.485
-0.41
-0.4
-0.245
-0.315
-0.44
-0.625
-0.75
-0.62
-0.66
-0.605
-0.56
-0.495
-0.36
-0.4
-0.55
-0.76
-0.805
-0.71
-0.735
-0.665
-0.525
-0.59
-0.455
-0.515
-0.54
-0.865
-0.85
-0.71
-0.75
-0.68
-0.645
-0.57
-0.43
-0.52
-0.595
-0.855
-0.87
-0.745
-0.745
-0.68
-0.58
-0.575
-0.495
-0.615
-0.695
-0.865
-0.84
-0.795
-0.78
-0.73
-0.705
-0.655
-0.495
-0.58
-0.7
-0.95
-0.855
-0.83
-0.785
-0.7
-0.635
-0.55
-0.485
-0.605
-0.7
-0.945
-0.87
-0.785
-0.735
-0.7
-0.665
-0.585
-0.49
-0.655
-0.74
-0.945
-0.875
-0.745
-0.76
-0.73
-0.645
-0.55
-0.54
-0.595
-0.69
-0.965
-0.865
-0.785
-0.785
-0.68
-0.695
-0.545
-0.515
-0.66
-0.74
-0.96
-0.835
-0.77
-0.755
-0.67
-0.62
-0.49
-0.505
-0.71
-0.815
-0.9
-0.775
-0.765
-0.765
-0.575
-0.635
-0.555
-0.555
-0.63
-0.77
-0.975
-0.795
-0.785
-0.82
-0.685
-0.62
-0.49
-0.525
-0.67
-0.865
-1.03
-0.855
-0.85
-0.82
-0.76
-0.69
-0.58
-0.595
-0.725
-0.87
-0.99
-0.87
-0.88
-0.83
-0.725
-0.73
-0.565
-0.62
-0.74
-0.905
-1.045
-0.895
-0.85
-0.795
-0.76
-0.755
-0.55
-0.62
-0.775
-0.925
-0.98
-0.855
-0.895
-0.835
-0.83
-0.72
-0.56
-0.635
-0.715
-0.915
-1.025
-0.95
-0.905
-0.81
-0.71
-0.73
-0.595
-0.665
-0.76
-0.945
-0.97
-0.86
-0.865
-0.815
-0.75
-0.7
-0.555
-0.7
-0.71
-0.92
-0.965
-0.87
-0.845
-0.755
-0.685
-0.665
-0.57
-0.685
-0.765
-0.985
-0.975
-0.825
-0.84
-0.78
-0.735
-0.695
-0.53
-0.67
-0.66
-0.905
-0.88
-0.845
-0.795
-0.765
-0.655
-0.615
-0.595
-0.655
-0.79
-1.035
-0.88
-0.865
-0.845
-0.765
-0.745
-0.65
-0.63
-0.78
-0.87
-1.105
-0.98
-0.965
-0.87
-0.85
-0.83
-0.73
-0.715
-0.83
-0.95
-1.145
-1.01
-0.98
-0.965
-0.87
-0.86
-0.76
-0.755
-0.855
-0.97
-1.165
-1.015
-0.96
-0.995
-0.885
-0.9
-0.74
-0.695
-0.82
-0.965
-1.255
-1.1
-1.04
-1.04
-0.95
-0.955
-0.765
-0.74
-0.875
-0.9
-0.92
-0.665
-0.55
-0.33
-0.105
0.06
0.235
0.225
0.07
-0.11
-0.31
-0.165
-0.215
-0.305
-0.36
-0.515
-0.455
-0.62
-0.815
-1.045
-1.14
-0.955
-1.055
-1.045
-0.98
-0.95
-0.785
-0.79
-0.91
-1.1
-1.235
-1.03
-1.0
-0.9
-0.9
-0.83
-0.64
-0.73
-0.86
-1.05
-1.16
-1.0
-0.995
-0.97
-0.885
-0.815
-0.67
-0.82
-0.88
-1.12
-1.12
-0.91
-0.985
-0.91
-0.835
-0.77
-0.635
-0.73
-0.81
-1.05
-1.03
-0.955
-0.92
-0.92
-0.825
-0.755
-0.575
-0.715
-0.835
-1.04
-1.055
-0.925
-0.925
-0.865
-0.8
-0.735
-0.655
-0.725
-0.805
-1.055
-1.005
-0.885
-0.88
-0.835
-0.735
-0.665
-0.56
-0.695
-0.795
-1.05
-0.945
-0.84
-0.805
-0.805
-0.72
-0.635
-0.53
-0.645
-0.73
-0.98
-0.88
-0.855
-0.825
-0.765
-0.64
-0.605
-0.48
-0.565
-0.7
-0.95
-0.74
-0.725
-0.71
-0.625
-0.615
-0.455
-0.425
-0.545
-0.665
-0.895
-0.755
-0.72
-0.685
-0.53
-0.45
-0.395
-0.425
-0.545
-0.605
-0.83
-0.655
-0.625
-0.62
-0.53
-0.465
-0.445
-0.37
-0.495
-0.68
-0.885
-0.735
-0.73
-0.67
-0.62
-0.61
-0.5
-0.5
-0.63
-0.765
-0.965
-0.805
-0.785
-0.755
-0.7
-0.685
-0.52
-0.565
-0.7
-0.92
-1.01
-0.88
-0.865
-0.87
-0.765
-0.72
-0.56
-0.595
-0.735
-0.915
-1.025
-0.89
-0.945
-0.845
-0.785
-0.77
-0.57
-0.625
-0.755
-0.9
-1.055
-0.925
-0.9
-0.78
-0.7
-0.76
-0.61
-0.64
-0.76
-0.93
-1.04
-0.87
-0.905
-0.85
-0.765
-0.76
-0.615
-0.655
-0.79
-0.99
-0.97
-0.835
-0.92
-0.865
-0.715
-0.68
-0.59
-0.67
-0.755
-0.95
-0.98
-0.865
-0.89
-0.825
-0.73
-0.735
-0.565
-0.62
-0.75
-0.99
-0.965
-0.88
-0.88
-0.83
-0.725
-0.755
-0.54
-0.66
-0.765
-1.02
-0.95
-0.87
-0.85
-0.84
-0.76
-0.7
-0.62
-0.695
-0.795
-1.05
-0.96
-0.86
-0.835
-0.82
-0.845
-0.695
-0.61
-0.75
-0.87
-1.035
-0.885
-0.92
-0.85
-0.825
-0.76
-0.635
-0.62
-0.76
-0.76
-1.07
-0.975
-0.89
-0.88
-0.83
-0.8
-0.665
-0.655
-0.83
-0.84
-1.03
-0.925
-0.89
-0.875
-0.81
-0.73
-0.665
-0.715
-0.78
-0.87
-1.09
-0.935
-0.9
-0.915
-0.82
-0.755
-0.59
-0.65
-0.78
-0.88
-1.085
-0.935
-0.91
-0.89
-0.775
-0.78
-0.65
-0.64
-0.79
-0.9
-1.1
-0.93
-0.865
-0.865
-0.78
-0.74
-0.605
