# TIPE ECG 2021 - ECG-ID Database v1.0.0 par Physionet
# [Numéro de la personne, Période d'échantillonnage, Prénom, Age, Sexe, Date de l'enregistrement]
[25, 0.002, Marcus, 48, H, 12.05.2005]
0.04
-0.12
-0.29
-0.185
-0.12
-0.115
0.0
-0.015
0.14
0.095
0.02
-0.115
-0.305
-0.17
-0.14
-0.045
0.015
0.025
0.145
0.115
0.025
-0.12
-0.3
-0.12
-0.1
-0.015
0.005
0.04
0.19
0.15
0.035
-0.165
-0.32
-0.17
-0.1
-0.12
0.065
0.035
0.19
0.15
-0.02
-0.2
-0.275
-0.1
-0.145
-0.07
-0.005
0.03
0.18
0.095
0.025
-0.225
-0.33
-0.11
-0.11
-0.085
-0.01
0.025
0.195
0.115
0.0
-0.195
-0.28
-0.115
-0.1
-0.085
-0.01
-0.005
0.1
0.115
0.03
-0.18
-0.21
-0.185
-0.15
-0.09
-0.025
0.07
0.2
0.06
-0.045
-0.26
-0.22
-0.19
-0.105
-0.01
-0.005
0.025
0.155
0.09
0.01
-0.295
-0.22
-0.21
-0.125
-0.09
0.0
0.04
0.2
0.085
-0.01
-0.26
-0.175
-0.1
-0.095
-0.075
0.01
0.1
0.16
0.03
-0.105
-0.295
-0.105
-0.085
-0.125
0.045
0.03
0.105
0.13
0.08
-0.01
-0.255
-0.145
-0.085
-0.04
0.04
0.01
0.175
0.205
0.075
-0.09
-0.265
-0.125
-0.125
-0.115
0.0
0.08
0.17
0.135
0.055
-0.085
-0.31
-0.115
-0.065
-0.03
0.04
0.055
0.205
0.175
0.06
-0.095
-0.29
-0.115
-0.115
0.0
0.035
0.125
0.265
0.195
0.045
-0.06
-0.19
0.0
-0.015
0.0
0.07
0.125
0.235
0.2
0.09
-0.085
-0.24
-0.03
0.06
0.045
0.075
0.165
0.35
0.265
0.115
-0.025
-0.165
0.03
0.025
0.07
0.195
0.17
0.31
0.225
0.12
-0.05
-0.19
0.015
0.02
0.03
0.095
0.145
0.345
0.205
0.085
-0.14
-0.165
-0.07
-0.125
0.01
0.1
0.065
0.23
0.115
0.03
-0.15
-0.165
-0.11
-0.12
-0.1
0.04
0.06
0.175
0.145
0.06
-0.195
-0.18
-0.125
-0.05
-0.01
0.025
0.05
0.195
0.025
-0.095
-0.325
-0.27
-0.21
-0.195
-0.19
-0.065
0.045
0.165
0.125
0.155
0.055
0.27
0.52
0.66
0.87
1.02
1.14
1.23
1.065
0.97
0.65
0.635
0.54
0.43
0.375
0.34
0.275
0.245
0.09
-0.065
-0.295
-0.215
-0.215
-0.225
-0.155
-0.095
0.02
0.075
-0.03
-0.175
-0.345
-0.18
-0.115
-0.055
-0.02
0.015
0.12
0.15
0.05
-0.105
-0.305
-0.125
-0.115
-0.135
0.03
0.07
0.085
0.155
0.01
-0.13
-0.305
-0.145
-0.075
-0.085
-0.015
0.035
0.18
0.145
0.035
-0.105
-0.28
-0.11
-0.075
-0.04
0.07
0.04
0.145
0.135
0.075
-0.115
-0.22
-0.07
-0.075
-0.035
0.065
0.11
0.265
0.18
0.065
-0.09
-0.235
-0.035
-0.085
-0.015
0.08
0.165
0.255
0.19
0.115
-0.045
-0.225
-0.075
-0.015
0.05
0.14
0.155
0.285
0.24
0.12
-0.035
-0.13
0.005
0.06
0.12
0.16
0.195
0.33
0.325
0.195
-0.02
-0.04
0.13
0.09
0.15
0.24
0.22
0.445
0.34
0.265
0.035
0.015
0.125
0.195
0.215
0.255
0.32
0.495
0.37
0.265
0.095
0.125
0.21
0.215
0.25
0.315
0.335
0.455
0.35
0.265
0.015
0.06
0.165
0.13
0.12
0.21
0.285
0.36
0.225
0.17
-0.045
-0.04
-0.01
-0.02
0.105
0.145
0.215
0.295
0.175
0.1
-0.15
-0.08
-0.05
-0.02
0.08
0.115
0.14
0.215
0.145
0.04
-0.23
-0.095
-0.03
-0.06
0.015
0.06
0.14
0.21
0.035
0.075
-0.15
-0.085
-0.065
-0.015
0.04
0.065
0.23
0.21
0.09
-0.065
-0.25
-0.145
-0.07
-0.075
0.045
0.07
0.215
0.24
0.105
-0.06
-0.25
-0.065
-0.03
-0.005
0.09
0.11
0.24
0.205
0.09
-0.09
-0.205
-0.08
0.0
0.02
0.09
0.13
0.225
0.23
0.085
-0.135
-0.15
0.02
-0.03
0.03
0.095
0.135
0.215
0.175
0.025
-0.05
-0.155
-0.04
-0.045
0.07
0.11
0.06
0.22
0.16
0.075
-0.105
-0.235
-0.07
-0.025
0.04
0.08
0.08
0.265
0.185
0.05
-0.08
-0.195
-0.03
-0.02
0.05
0.07
0.075
0.22
0.155
0.035
-0.14
-0.18
-0.11
-0.085
-0.02
0.04
0.04
0.175
0.13
0.04
-0.155
-0.17
-0.04
-0.105
-0.04
0.045
0.035
0.19
0.1
-0.025
-0.19
-0.165
-0.1
-0.095
-0.04
0.005
0.055
0.325
0.15
0.025
-0.17
-0.1
-0.105
-0.13
-0.14
0.07
0.085
0.15
0.14
0.05
-0.17
-0.115
-0.115
-0.025
0.015
0.055
0.125
0.25
0.12
0.015
-0.245
-0.14
-0.075
-0.03
0.025
0.095
0.19
0.22
0.09
-0.01
-0.265
-0.095
-0.075
-0.07
0.045
0.055
0.17
0.19
0.035
-0.055
-0.255
-0.09
-0.05
-0.06
0.06
0.075
0.19
0.195
0.065
0.0
-0.215
-0.095
-0.01
0.02
0.1
0.11
0.21
0.185
0.095
-0.03
-0.19
-0.01
-0.025
0.07
0.12
0.14
0.23
0.22
0.11
-0.04
-0.16
0.02
0.13
0.11
0.155
0.17
0.33
0.295
0.24
0.045
-0.15
0.005
0.06
0.14
0.195
0.21
0.315
0.28
0.16
-0.02
-0.165
0.005
-0.01
0.025
0.12
0.14
0.295
0.25
0.14
-0.08
-0.22
-0.08
-0.045
0.005
0.045
0.07
0.185
0.155
0.055
-0.135
-0.255
-0.095
-0.1
0.01
0.05
0.065
0.19
0.155
0.085
-0.105
-0.21
-0.085
-0.045
-0.005
0.0
-0.01
0.16
0.065
-0.095
-0.34
-0.365
-0.17
-0.12
-0.02
0.115
0.23
0.54
0.585
0.555
0.54
0.635
0.81
0.895
0.88
1.04
0.995
1.055
0.815
0.645
0.31
0.19
0.14
0.015
-0.05
0.085
0.13
0.145
0.05
-0.075
-0.26
-0.285
-0.225
-0.23
-0.115
-0.05
0.02
0.115
0.04
0.03
-0.19
-0.11
-0.08
-0.03
0.04
0.075
0.115
0.225
0.08
0.045
-0.17
-0.055
0.01
0.015
-0.02
0.12
0.205
0.215
0.13
0.04
-0.16
-0.02
0.02
0.045
0.085
0.16
0.265
0.23
0.13
0.045
-0.2
-0.025
0.045
0.07
0.14
0.19
0.325
0.28
0.155
0.09
-0.045
0.07
0.035
0.065
0.24
0.27
0.39
0.335
0.18
0.065
-0.105
0.07
0.135
0.135
0.19
0.27
0.42
0.385
0.25
0.095
-0.065
0.105
0.175
0.24
0.285
0.265
0.425
0.44
0.375
0.205
0.025
0.145
0.205
0.275
0.3
0.4
0.54
0.51
0.365
0.205
0.175
0.235
0.27
0.305
0.41
0.465
0.59
0.51
0.4
0.275
0.155
0.295
0.295
0.39
0.455
0.445
0.6
0.55
0.425
0.24
0.2
0.315
0.27
0.335
0.415
0.415
0.56
0.455
0.38
0.13
0.105
0.195
0.2
0.215
0.29
0.31
0.445
0.355
0.24
0.0
0.03
0.105
0.095
0.13
0.185
0.22
0.29
0.245
0.185
-0.015
-0.06
-0.04
0.01
0.045
0.195
0.19
0.29
0.195
0.095
-0.1
-0.065
-0.035
0.0
0.04
0.185
0.175
0.26
0.135
0.09
-0.19
-0.085
0.0
0.005
0.115
0.155
0.27
0.315
0.16
0.075
-0.155
-0.03
-0.045
-0.005
0.065
0.17
0.285
0.26
0.135
0.035
-0.175
-0.085
-0.015
0.0
0.115
0.12
0.21
0.225
0.14
-0.015
-0.22
-0.035
0.04
-0.035
0.06
0.115
0.235
0.22
0.11
0.015
-0.22
-0.06
0.005
0.03
0.06
0.08
0.23
0.185
0.115
-0.045
-0.26
-0.05
-0.05
-0.07
0.03
0.085
0.265
0.22
0.095
-0.095
-0.255
-0.115
-0.065
0.035
0.105
0.065
0.19
0.175
0.07
-0.095
-0.23
-0.07
-0.02
-0.035
0.095
0.12
0.225
0.245
0.035
-0.11
-0.18
-0.035
-0.06
-0.005
0.075
0.09
0.265
0.195
0.09
-0.155
-0.24
-0.05
0.015
0.015
0.085
0.105
0.25
0.225
0.12
-0.115
-0.165
-0.065
-0.005
0.03
0.11
0.13
0.29
0.21
0.06
-0.165
-0.115
-0.005
-0.03
0.035
0.085
0.135
0.29
0.17
0.085
-0.145
-0.105
0.005
-0.04
0.06
0.165
0.16
0.305
0.16
0.085
-0.07
-0.065
0.005
0.03
0.05
0.19
0.22
0.295
0.205
0.18
-0.08
-0.085
0.02
0.075
0.115
0.2
0.26
0.4
0.26
0.22
-0.035
0.025
0.1
0.105
0.155
0.23
0.34
0.35
0.21
0.145
-0.105
0.02
0.08
0.085
0.165
0.2
0.27
0.335
0.24
0.105
-0.085
0.01
0.03
0.07
0.145
0.1
0.24
0.25
0.13
0.02
-0.16
-0.075
-0.025
0.07
0.165
0.17
0.26
0.185
0.085
-0.015
-0.175
-0.09
-0.04
-0.025
0.12
0.14
0.27
0.24
0.125
-0.02
-0.16
-0.025
-0.04
-0.04
0.08
0.055
0.205
0.155
-0.005
-0.175
-0.385
-0.17
-0.095
-0.055
0.11
0.245
0.49
0.6
0.655
0.625
0.59
0.905
0.98
1.02
1.02
0.995
1.115
0.995
0.735
0.455
0.2
0.22
0.15
0.075
0.13
0.14
0.235
0.145
0.025
-0.14
-0.29
-0.155
-0.14
-0.04
0.065
0.065
0.18
0.125
0.04
-0.125
-0.18
-0.055
-0.02
0.02
0.135
0.105
0.325
0.22
0.06
-0.09
-0.15
0.01
0.07
0.05
0.135
0.16
0.195
0.22
0.145
-0.065
-0.05
0.03
0.045
0.085
0.16
0.19
0.375
0.24
0.17
0.005
0.005
0.085
0.115
0.17
0.26
0.29
0.405
0.305
0.23
0.005
0.085
0.14
0.17
0.235
0.275
0.265
0.44
0.3
0.25
0.06
0.12
0.175
0.155
0.265
0.32
0.405
0.465
0.365
0.36
0.09
0.205
0.235
0.27
0.32
0.38
0.455
0.535
0.435
0.315
0.155
0.255
0.315
0.355
0.475
0.44
0.515
0.58
0.47
0.35
0.205
0.295
0.38
0.415
0.465
0.52
0.65
0.665
0.595
0.43
0.245
0.345
0.405
0.415
0.52
0.595
0.745
0.705
0.6
0.44
0.265
0.4
0.445
0.47
0.51
0.53
0.685
0.645
0.51
0.325
0.15
0.375
0.385
0.41
0.465
0.435
0.6
0.52
0.39
0.245
0.135
0.275
0.315
0.285
0.295
0.37
0.56
0.5
0.365
0.195
0.06
0.27
0.25
0.29
0.36
0.39
0.555
0.455
0.325
0.115
0.075
0.255
0.22
0.32
0.365
0.385
0.55
0.485
0.37
0.13
0.125
0.275
0.265
0.345
0.42
0.375
0.56
0.455
0.395
0.135
0.135
0.255
0.23
0.265
0.39
0.39
0.525
0.39
0.34
0.165
0.165
0.26
0.27
0.31
0.38
0.37
0.51
0.37
0.27
0.105
0.135
0.155
0.19
0.225
0.34
0.335
0.455
0.335
0.255
-0.01
0.055
0.145
0.15
0.205
0.25
0.275
0.365
0.28
0.195
-0.03
0.005
0.08
0.145
0.165
0.265
0.27
0.335
0.265
0.165
-0.03
0.08
0.1
0.09
0.185
0.26
0.345
0.31
0.245
0.155
-0.09
0.04
0.1
0.11
0.205
0.26
0.41
0.305
0.24
0.13
-0.12
0.045
0.085
0.13
0.22
0.17
0.305
0.37
0.23
0.065
-0.12
0.04
0.075
0.135
0.19
0.195
0.35
0.38
0.18
0.05
-0.12
0.05
0.09
0.11
0.19
0.215
0.36
0.365
0.195
0.02
-0.105
0.055
0.115
0.1
0.175
0.215
0.37
0.32
0.22
0.02
-0.125
0.025
0.05
0.11
0.17
0.13
0.345
0.285
0.2
0.03
-0.165
0.04
0.015
0.105
0.205
0.185
0.355
0.3
0.185
0.055
-0.04
0.065
-0.01
0.06
0.165
0.18
0.285
0.29
0.23
-0.065
-0.145
0.085
0.075
0.09
0.21
0.175
0.37
0.305
0.2
0.005
-0.015
0.09
0.12
0.165
0.25
0.245
0.425
0.36
0.24
0.05
0.075
0.17
0.14
0.18
0.235
0.22
0.4
0.285
0.245
0.01
0.055
0.12
0.12
0.145
0.21
0.25
0.34
0.16
0.11
-0.12
-0.055
0.06
0.01
0.015
0.145
0.195
0.295
0.14
0.095
-0.17
-0.035
0.0
0.015
0.085
0.17
0.24
0.28
0.14
0.035
-0.135
0.03
-0.005
0.0
0.115
0.15
0.185
0.2
0.075
-0.005
-0.2
-0.105
-0.03
-0.05
0.04
0.06
0.185
0.295
0.29
0.22
0.21
0.45
0.655
0.84
1.02
1.12
1.25
1.2
1.09
0.875
0.595
0.71
0.585
0.48
0.465
0.38
0.375
0.32
0.105
-0.015
-0.165
-0.12
-0.06
-0.055
0.03
0.07
0.215
0.205
0.095
-0.055
-0.255
0.025
-0.005
0.05
0.15
0.18
0.33
0.285
0.185
-0.01
-0.16
0.06
0.075
0.05
0.125
0.12
0.275
0.295
0.14
-0.005
-0.135
0.01
-0.04
0.13
0.19
0.215
0.36
0.265
0.18
0.025
-0.055
0.065
0.04
0.11
0.215
0.225
0.365
0.275
0.185
0.01
-0.08
0.055
0.055
0.115
0.205
0.2
0.38
0.25
0.16
0.0
-0.025
0.075
0.085
0.19
0.255
0.245
0.395
0.275
0.17
0.03
0.07
0.07
0.055
0.125
0.23
0.31
0.44
0.29
0.23
0.015
0.08
0.14
0.17
0.17
0.35
0.37
0.45
0.355
0.295
0.055
0.12
0.225
0.275
0.255
0.425
0.42
0.51
0.35
0.315
0.11
0.205
0.24
0.305
0.35
0.405
0.515
0.56
0.445
0.365
0.125
0.24
0.31
0.33
0.43
0.45
0.53
0.52
0.41
0.3
0.075
0.175
0.225
0.225
0.35
0.345
0.405
0.42
0.29
0.205
-0.005
0.045
0.125
0.115
0.185
0.3
0.335
0.325
0.26
0.11
-0.075
0.04
0.055
0.085
0.185
0.215
0.42
0.285
0.195
0.06
-0.105
0.07
0.1
0.13
0.21
0.195
0.35
0.35
0.21
0.06
-0.095
0.1
0.07
0.13
0.17
0.27
0.415
0.385
0.205
0.015
-0.12
0.01
0.085
0.135
0.135
0.165
0.3
0.275
0.18
0.03
-0.095
0.07
0.05
0.08
0.15
0.18
0.35
0.305
0.195
0.01
-0.07
0.055
0.06
0.145
0.2
0.24
0.39
0.275
0.19
-0.01
-0.08
0.045
0.055
0.08
0.18
0.165
0.345
0.32
0.18
-0.01
-0.015
0.08
0.085
0.15
0.15
0.235
0.38
0.24
0.155
-0.085
-0.02
0.07
0.115
0.065
0.16
0.215
0.39
0.245
0.185
-0.095
-0.02
0.075
0.08
0.1
0.185
0.21
0.35
0.225
0.145
-0.095
0.01
0.075
0.09
0.11
0.195
0.27
0.325
0.26
0.175
-0.055
0.04
0.04
0.065
0.15
0.23
0.27
0.32
0.205
0.185
-0.135
-0.06
0.09
0.11
0.135
0.19
0.26
0.34
0.25
0.08
-0.095
0.025
0.115
0.135
0.145
0.2
0.335
0.355
0.22
0.065
-0.115
0.055
0.105
0.03
0.195
0.17
0.225
0.295
0.22
0.04
-0.165
0.06
0.1
0.08
0.14
0.15
0.26
0.28
0.185
0.025
-0.14
0.035
0.04
0.02
0.135
0.14
0.295
0.31
0.195
-0.03
-0.14
0.045
0.035
0.125
0.245
0.23
0.345
0.32
0.19
0.045
-0.13
0.07
0.105
0.125
0.19
0.175
0.275
0.32
0.245
0.03
-0.1
0.09
0.045
0.125
0.23
0.23
0.405
0.335
0.275
0.07
0.005
0.14
0.095
0.135
0.28
0.34
0.495
0.41
0.3
0.11
0.05
0.21
0.17
0.19
0.27
0.295
0.505
0.425
0.305
0.07
0.045
0.125
0.115
0.2
0.26
0.315
0.445
0.335
0.205
-0.01
-0.035
0.045
0.085
0.105
0.185
0.205
0.395
0.235
0.16
-0.13
-0.025
0.035
0.075
0.06
0.14
0.185
0.275
0.17
0.14
-0.095
-0.065
-0.015
-0.01
0.065
0.175
0.135
0.295
0.115
0.055
-0.245
-0.1
-0.035
-0.035
-0.07
0.05
0.195
0.3
0.265
0.27
0.21
0.465
0.69
0.81
0.995
1.135
1.335
1.365
1.205
1.015
0.745
0.775
0.75
0.645
0.63
0.46
0.43
0.37
0.23
0.11
-0.105
-0.015
0.005
-0.02
0.09
0.125
0.235
0.24
0.12
-0.02
-0.15
0.0
0.06
0.1
0.115
0.235
0.35
0.265
0.15
0.0
-0.09
0.06
0.105
0.135
0.16
0.195
0.325
0.325
0.15
0.05
-0.12
0.045
0.1
0.1
0.14
0.195
0.35
0.29
0.165
0.045
-0.11
0.125
0.125
0.16
0.195
0.265
0.4
0.335
0.215
0.07
-0.08
0.095
0.065
0.105
0.2
0.285
0.41
0.31
0.225
0.045
-0.045
0.125
0.155
0.2
0.24
0.26
0.39
0.28
0.235
0.085
0.05
0.165
0.14
0.205
0.38
0.365
0.455
0.41
0.375
0.16
0.125
0.205
0.28
0.315
0.375
0.39
0.57
0.495
0.45
0.16
0.235
0.32
0.29
0.435
0.51
0.49
0.61
0.505
0.47
0.28
0.27
0.375
0.335
0.37
0.47
0.525
0.64
0.49
0.445
0.215
0.325
0.375
0.355
0.375
0.43
0.51
0.575
0.485
0.4
0.125
0.215
0.265
0.245
0.315
0.375
0.395
0.555
0.38
0.255
0.06
0.155
0.215
0.22
0.24
0.295
0.365
0.4
0.3
0.13
-0.02
0.07
0.11
0.175
0.255
0.285
0.355
0.41
0.25
0.085
-0.025
0.1
0.085
0.1
0.215
0.275
0.4
0.4
0.24
0.075
-0.05
0.13
0.15
0.17
0.28
0.33
0.395
0.355
0.24
0.085
-0.025
0.12
0.18
0.245
0.265
0.295
0.46
0.385
0.295
0.11
-0.015
0.125
0.15
0.195
0.28
0.33
0.415
0.37
0.25
0.135
0.04
0.18
0.17
0.23
0.275
0.3
0.45
0.4
0.29
0.095
-0.02
0.14
0.11
0.17
0.25
0.265
0.43
0.38
0.285
0.115
0.075
0.19
0.16
0.225
0.245
0.355
0.455
0.385
0.305
0.12
0.055
0.185
0.2
0.265
0.33
0.315
0.49
0.43
0.305
0.115
0.13
0.17
0.195
0.28
0.345
0.315
0.51
0.415
0.325
0.055
0.13
0.155
0.21
0.22
0.33
0.365
0.49
0.43
0.295
0.11
0.17
0.22
0.24
0.275
0.345
0.415
0.51
0.385
0.305
0.065
0.145
0.165
0.225
0.265
0.34
0.405
0.47
0.355
0.295
0.07
0.135
0.2
0.19
0.31
0.335
0.465
0.475
0.35
0.23
0.005
0.15
0.175
0.205
0.33
0.38
0.45
0.465
0.43
0.255
0.07
0.2
0.235
0.255
0.35
0.36
0.46
0.49
0.38
0.225
0.105
0.225
0.25
0.275
0.38
0.43
0.515
0.54
0.405
0.315
0.125
0.26
0.29
0.345
0.455
0.485
0.63
0.56
0.435
0.375
0.185
0.34
0.37
0.4
0.485
0.495
0.625
0.595
0.48
0.315
0.115
0.315
0.345
0.43
0.455
0.375
0.54
0.515
0.385
0.255
0.095
0.295
0.305
0.305
0.39
0.39
0.535
0.485
0.355
0.165
0.065
0.245
0.2
0.285
0.34
0.38
0.52
0.46
0.325
0.15
0.08
0.21
0.18
0.245
0.385
0.38
0.52
0.415
0.285
0.115
0.07
0.08
0.09
0.13
0.205
0.31
0.46
0.39
0.43
0.33
0.505
0.73
0.88
0.135
0.165
0.165
0.155
0.19
0.265
0.31
0.425
0.295
0.23
0.04
0.15
0.175
0.205
0.25
0.35
0.4
0.475
0.355
0.25
0.08
0.22
0.22
0.23
0.3
0.355
0.46
0.515
0.365
0.31
0.12
0.165
0.25
0.3
0.3
0.375
0.5
0.505
0.345
0.24
0.02
0.205
0.25
0.28
0.35
0.405
0.555
0.545
0.44
0.215
0.05
0.19
0.265
0.25
0.38
0.405
0.545
0.51
0.445
0.285
0.125
0.27
0.27
0.335
0.39
0.46
0.54
0.555
0.445
0.33
0.145
0.305
0.345
0.345
0.435
0.445
0.58
0.555
0.485
0.31
0.19
0.33
0.415
0.45
0.505
0.53
0.685
0.615
0.495
0.335
0.23
0.435
0.455
0.51
0.605
0.56
0.75
0.725
0.615
0.43
0.325
0.475
0.5
0.535
0.57
0.645
0.825
0.73
0.595
0.47
0.435
0.525
0.53
0.585
0.66
0.675
0.815
0.73
0.635
0.405
0.41
0.46
0.44
0.51
0.54
0.53
0.7
0.58
0.515
0.26
0.255
0.36
0.335
0.39
0.465
0.46
0.55
0.465
0.385
0.17
0.205
0.295
0.3
0.375
0.43
0.45
0.555
0.375
0.325
0.17
0.165
0.23
0.24
0.255
0.38
0.405
0.525
0.42
0.34
0.145
0.23
0.295
0.275
0.27
0.4
0.45
0.515
0.42
0.325
0.115
0.225
0.29
0.265
0.37
0.415
0.505
0.585
0.37
0.25
0.065
0.195
0.27
0.24
0.315
0.34
0.465
0.495
0.455
0.28
0.065
0.205
0.23
0.245
0.33
0.39
0.535
0.445
0.37
0.225
0.05
0.175
0.185
0.265
0.33
0.38
0.475
0.455
0.305
0.17
0.03
0.175
0.23
0.25
0.32
0.365
0.475
0.475
0.345
0.175
0.055
0.19
0.175
0.28
0.395
0.355
0.525
0.445
0.4
0.21
0.025
0.24
0.235
0.2
0.305
0.33
0.495
0.425
0.33
0.17
0.035
0.16
0.165
0.235
0.35
0.345
0.45
0.445
0.28
0.105
0.0
0.19
0.2
0.225
0.355
0.32
0.485
0.44
0.335
0.175
0.05
0.155
0.125
0.25
0.34
0.25
0.435
0.4
0.31
0.09
0.075
0.145
0.14
0.21
0.29
0.285
0.415
0.35
0.265
0.06
0.105
0.135
0.165
0.275
0.315
0.265
0.4
0.355
0.25
0.05
0.055
0.16
0.16
0.145
0.24
0.3
0.385
0.255
0.3
0.025
0.05
0.09
0.085
0.195
0.245
0.315
0.395
0.27
0.195
-0.065
0.07
0.105
0.115
0.2
0.27
0.31
0.375
0.25
0.195
-0.015
0.045
0.0
0.08
0.2
0.245
0.365
0.345
0.31
0.16
-0.05
0.05
0.09
0.105
0.23
0.255
0.335
0.39
0.285
0.13
-0.035
0.135
0.185
0.165
0.265
0.31
0.45
0.41
0.385
0.175
0.015
0.175
0.21
0.19
0.25
0.33
0.475
0.425
0.32
0.195
0.03
0.12
0.195
0.22
0.33
0.315
0.445
0.395
0.305
0.145
-0.115
0.11
0.1
0.105
0.2
0.22
0.36
0.29
0.205
0.06
-0.105
0.03
0.035
0.09
0.155
0.15
0.335
0.29
0.205
-0.02
-0.11
0.04
0.015
0.085
0.17
0.13
0.34
0.27
0.15
-0.08
-0.175
-0.055
-0.115
-0.06
0.01
0.06
0.24
0.24
0.16
0.085
0.14
0.38
0.585
0.82
1.03
1.155
1.405
1.345
1.205
1.015
0.9
0.87
0.75
0.66
0.615
0.46
0.495
0.295
0.155
-0.045
-0.045
-0.01
-0.075
0.0
0.06
0.08
0.21
0.105
0.04
-0.16
-0.12
-0.005
0.035
0.085
0.125
0.095
0.27
0.235
0.145
-0.13
-0.03
-0.005
0.03
0.075
0.175
0.215
0.3
0.135
0.125
-0.125
-0.01
-0.005
0.05
0.07
0.13
0.22
0.275
0.175
0.145
-0.09
-0.015
0.055
0.05
0.115
0.235
0.285
0.255
0.095
0.05
-0.09
0.025
0.05
0.11
0.21
0.225
0.325
0.315
0.17
0.05
-0.075
0.045
0.105
0.09
0.225
0.245
0.39
0.335
0.2
0.05
-0.1
0.07
0.085
0.175
0.27
0.25
0.39
0.36
0.27
0.11
-0.01
0.115
0.155
0.115
0.265
0.3
0.375
0.38
0.235
0.105
-0.03
0.09
0.135
0.21
0.275
0.305
0.46
0.405
0.295
0.15
0.04
0.2
0.185
0.235
0.28
0.355
0.51
0.48
0.34
0.215
0.095
0.235
0.25
0.305
0.355
0.39
0.535
0.47
0.345
0.155
-0.005
0.16
0.195
0.26
0.355
0.345
0.405
0.33
0.235
0.06
-0.045
0.085
0.085
0.08
0.185
0.175
0.355
0.25
0.135
-0.08
-0.1
-0.02
0.025
0.095
0.185
0.16
0.3
0.18
0.125
-0.1
-0.125
-0.045
0.015
0.07
0.115
0.185
0.235
0.175
0.135
-0.085
-0.095
0.0
0.045
0.015
0.11
0.16
0.265
0.2
0.125
-0.1
-0.045
0.025
0.01
0.045
0.175
0.2
0.275
0.16
0.115
-0.085
-0.08
-0.01
-0.005
0.075
0.185
0.205
0.255
0.165
0.13
-0.13
-0.015
0.03
0.065
0.09
0.16
0.255
0.345
0.215
0.135
-0.07
0.03
0.055
0.085
0.13
0.195
0.305
0.315
0.19
0.095
-0.05
0.03
0.03
0.06
0.245
0.24
0.32
0.305
0.23
0.125
-0.025
0.075
0.09
0.085
0.2
0.265
0.34
0.32
0.205
0.06
-0.075
0.075
0.06
0.095
0.19
0.2
0.385
0.355
0.21
0.085
-0.165
0.045
0.035
0.09
0.16
0.195
0.365
0.325
0.205
0.055
-0.09
0.055
0.01
0.185
0.15
0.17
0.345
0.315
0.215
0.035
-0.065
0.07
0.06
0.125
0.195
0.18
0.36
0.31
0.2
0.02
-0.09
0.095
0.04
0.13
0.21
0.175
0.385
0.275
0.18
0.02
-0.08
0.065
0.095
0.165
0.205
0.225
0.395
0.325
0.22
0.045
-0.02
0.11
0.125
0.14
0.285
0.26
0.39
0.335
0.26
0.085
0.04
0.18
0.155
0.155
0.285
0.32
0.475
0.365
0.325
0.125
0.105
0.205
0.245
0.255
0.305
0.43
0.53
0.435
0.41
0.08
0.13
0.165
0.185
0.27
0.355
0.4
0.51
0.4
0.27
0.055
0.12
0.165
0.125
0.22
0.235
0.315
0.33
0.235
0.17
-0.07
0.065
0.08
0.07
0.115
0.215
0.29
0.29
0.285
0.155
-0.04
0.015
0.075
0.115
0.2
0.23
0.32
0.355
0.215
0.1
-0.075
0.04
0.06
0.08
0.155
0.165
0.255
0.265
0.055
-0.065
-0.24
-0.06
-0.005
0.035
0.265
0.37
0.675
0.795
0.84
0.825
0.84
1.095
1.15
1.15
1.23
1.19
1.235
1.02
0.845
0.55
0.3
0.275
0.14
0.125
0.195
0.25
0.38
0.24
0.105
-0.085
-0.24
-0.075
-0.035
0.03
0.165
0.17
0.36
0.275
0.205
0.02
-0.115
0.055
0.1
0.125
0.195
0.235
0.4
0.34
0.21
0.045
-0.07
0.085
0.07
0.145
0.265
0.255
0.41
0.34
0.26
0.01
0.01
0.1
0.175
0.13
0.285
0.29
0.445
0.385
0.295
0.11
0.045
0.19
0.17
0.23
0.245
0.27
0.47
0.395
0.31
0.12
0.145
0.21
0.19
0.28
0.39
0.38
0.505
0.355
0.365
0.12
0.165
0.235
0.195
0.32
0.39
0.465
0.535
0.39
0.32
0.075
0.125
0.24
0.275
0.36
0.455
0.485
0.595
0.475
0.405
0.145
0.225
0.295
0.35
0.405
0.515
0.63
0.655
0.5
0.46
0.3
0.42
0.425
0.495
0.52
0.53
0.63
0.735
0.59
0.49
0.285
0.41
0.47
0.52
0.56
0.6
0.765
0.865
0.61
0.495
0.33
0.38
0.49
0.455
0.575
0.515
0.71
0.67
0.535
0.355
0.205
0.315
0.285
0.295
0.405
0.47
0.56
0.485
0.415
0.24
0.04
0.195
0.2
0.27
0.36
0.35
0.495
0.445
0.33
0.185
0.015
0.175
0.175
0.215
0.285
0.31
0.47
0.44
0.315
0.155
-0.02
0.175
0.15
0.21
0.325
0.35
0.49
0.43
0.35
0.14
-0.01
0.12
0.185
0.185
0.28
0.31
0.475
0.435
0.29
0.145
0.0
0.135
0.085
0.325
0.33
0.375
0.525
0.41
0.31
0.115
0.015
0.195
0.215
0.23
0.3
0.375
0.565
0.405
0.34
0.165
0.15
0.225
0.21
0.28
0.37
0.355
0.535
0.45
0.335
0.095
0.175
0.25
0.255
0.33
0.39
0.415
0.575
0.495
0.355
0.175
0.16
0.23
0.305
0.33
0.39
0.465
0.605
0.49
0.39
0.13
0.22
0.245
0.26
0.375
0.56
0.535
0.6
0.39
0.465
0.195
0.26
0.32
0.355
0.4
0.505
0.625
0.635
0.45
0.375
0.175
0.29
0.335
0.385
0.42
0.475
0.58
0.61
0.465
0.37
0.175
0.255
0.33
0.355
0.46
0.49
0.61
0.615
0.47
0.37
0.18
0.305
0.315
0.365
0.475
0.46
0.585
0.575
0.455
0.32
0.15
0.315
0.33
0.395
0.47
0.485
0.6
0.59
0.465
0.265
0.105
0.32
0.365
0.395
0.49
0.555
0.63
0.605
0.455
0.325
0.195
0.32
0.33
0.415
0.465
0.475
0.63
0.555
0.52
0.335
0.16
0.375
0.32
0.425
0.47
0.445
0.635
0.63
0.51
0.3
0.185
0.315
0.325
0.405
0.485
0.455
0.69
0.62
0.5
0.275
0.185
0.4
0.375
0.41
0.525
0.54
0.745
0.65
0.545
0.325
0.345
0.465
0.44
0.465
0.545
0.55
0.735
0.67
0.595
0.34
0.345
0.48
0.455
0.52
0.595
0.62
0.765
0.585
0.52
0.33
0.33
0.45
0.47
0.485
0.555
0.575
0.675
0.635
0.495
0.285
0.285
0.44
0.395
0.39
0.56
0.6
0.665
0.57
0.53
0.28
0.32
0.405
0.405
0.445
0.51
0.515
0.61
0.505
0.475
0.2
0.26
0.305
0.345
0.43
0.47
0.55
0.55
0.41
0.29
0.075
0.21
0.24
0.365
0.51
0.655
0.915
1.07
1.11
1.115
1.015
1.285
1.355
1.345
1.43
1.335
1.4
1.31
1.09
0.805
0.51
0.53
0.47
0.47
0.47
0.495
0.545
0.545
0.4
0.285
0.06
0.145
0.23
0.29
0.425
0.465
0.595
0.555
0.46
0.315
0.19
0.32
0.36
0.37
0.47
0.5
0.635
0.545
0.535
0.37
0.17
0.34
0.325
0.4
0.465
0.515
0.615
0.64
0.51
0.29
0.175
0.395
0.35
0.435
0.51
0.55
0.65
0.57
0.46
0.29
0.18
0.395
0.4
0.415
0.54
0.545
0.69
0.635
0.495
0.34
0.235
0.41
0.435
0.475
0.55
0.57
0.74
0.68
0.615
0.355
0.33
0.465
0.47
0.515
0.58
0.6
0.805
0.72
0.625
0.385
0.42
0.51
0.525
0.61
0.67
0.73
0.78
0.72
0.66
0.505
0.505
0.6
0.605
0.63
0.77
0.825
0.97
0.805
0.78
0.535
0.655
0.67
0.71
0.765
0.815
0.88
1.005
0.875
0.815
0.67
0.71
0.735
0.79
0.815
0.875
0.94
1.03
0.905
0.805
0.56
0.675
0.705
0.76
0.76
0.815
0.885
0.925
0.795
0.7
0.45
0.52
0.595
0.615
0.68
0.735
0.755
0.845
0.68
0.555
0.395
0.48
0.505
0.47
0.54
0.63
0.77
0.74
0.6
0.48
0.275
0.45
0.48
0.55
0.63
0.635
0.77
0.725
0.575
0.455
0.3
0.475
0.48
0.505
0.615
0.605
0.725
0.76
0.695
0.535
0.285
0.45
0.505
0.505
0.61
0.63
0.795
0.745
0.635
0.49
0.365
0.475
0.49
0.55
0.655
0.665
0.82
0.755
0.64
0.475
0.3
0.5
0.53
0.57
0.62
0.645
0.855
0.715
0.615
0.47
0.33
0.48
0.505
0.595
0.59
0.62
0.785
0.76
0.605
0.425
0.38
0.53
0.495
0.52
0.645
0.6
0.9
0.745
0.625
0.44
0.405
0.57
0.565
0.59
0.65
0.68
0.865
0.755
0.695
0.48
0.52
0.57
0.5
0.6
0.71
0.71
0.885
0.72
0.665
0.445
0.46
0.58
0.57
0.61
0.675
0.71
0.825
0.74
0.69
0.415
0.43
0.535
0.58
0.64
0.7
0.715
0.855
0.76
0.675
0.43
0.525
0.545
0.56
0.56
0.735
0.82
0.87
0.76
0.725
0.46
0.555
0.56
0.615
0.705
0.74
0.795
0.87
0.71
0.665
0.485
0.565
0.64
0.63
0.725
0.78
0.825
0.89
0.775
0.68
0.505
0.59
0.58
0.67
0.79
0.785
0.89
0.895
0.82
0.655
0.435
0.615
0.675
0.76
0.82
0.83
0.91
0.945
0.84
0.71
0.56
0.69
0.715
0.74
0.83
0.88
1.0
1.0
0.88
0.715
0.555
0.72
0.745
0.765
0.845
0.84
1.0
0.95
0.85
0.67
0.5
0.675
0.68
0.74
0.775
0.77
0.94
0.895
0.76
0.58
0.47
0.64
0.64
0.72
0.72
0.795
0.955
0.91
0.77
0.605
0.44
0.62
0.61
0.66
0.825
0.75
0.965
0.86
0.735
0.545
0.47
0.59
0.62
0.625
0.695
0.68
0.87
0.83
0.655
0.365
0.455
0.505
0.6
0.745
0.83
0.95
1.29
1.375
1.43
1.385
1.45
1.61
1.575
1.635
1.655
1.665
1.655
1.48
1.25
0.95
0.86
0.775
0.655
0.685
0.78
0.77
0.9
0.71
0.625
0.435
0.45
0.545
0.54
0.56
0.69
0.725
0.84
0.74
0.73
0.49
0.54
0.645
0.655
0.71
0.78
0.865
0.935
0.77
0.675
0.545
0.59
0.65
0.64
0.68
0.775
0.93
0.905
0.785
0.71
0.515
0.61
0.645
0.715
0.735
0.78
0.91
0.97
0.845
0.685
0.545
0.635
0.695
0.685
0.795
0.81
0.935
0.91
0.82
0.74
0.575
0.68
0.715
0.695
0.785
0.82
0.975
0.99
0.88
0.705
0.605
0.74
0.69
0.73
0.87
0.835
1.015
1.025
0.84
0.675
0.565
0.73
0.75
0.76
0.905
0.89
1.0
1.005
0.895
0.745
0.61
0.76
0.805
0.88
0.86
0.87
1.085
1.05
0.92
0.825
0.675
0.825
0.81
0.875
0.965
0.995
1.16
1.11
0.97
0.795
0.68
0.875
0.86
0.915
1.015
1.005
1.195
1.11
0.985
0.805
0.69
0.855
0.835
0.91
0.97
0.895
1.07
1.015
0.905
0.64
0.615
0.73
0.735
0.695
0.825
0.795
0.935
0.835
0.75
0.54
0.505
0.565
0.61
0.655
0.695
0.715
0.86
0.795
0.715
0.46
0.495
0.575
0.545
0.61
0.69
0.675
0.87
0.73
0.64
0.43
0.42
0.545
0.545
0.635
0.7
0.765
0.84
0.75
0.655
0.4
0.43
0.52
0.545
0.535
0.645
0.715
0.83
0.7
0.67
0.425
0.48
0.555
0.53
0.61
0.665
0.77
0.805
0.64
0.63
0.45
0.495
0.53
0.555
0.645
0.75
0.84
0.795
0.715
0.59
0.47
0.6
0.6
0.615
0.685
0.68
0.83
0.835
0.73
0.615
0.41
0.535
0.6
0.625
0.74
0.73
0.89
0.845
0.695
0.58
0.42
0.545
0.61
0.595
0.705
0.75
0.89
0.865
0.76
0.63
0.45
0.61
0.64
0.63
0.74
0.74
0.93
0.865
0.745
0.595
0.48
0.6
0.575
0.635
0.73
0.755
0.915
0.88
0.72
0.56
0.395
0.62
0.57
0.605
0.66
0.725
0.92
0.85
0.695
0.505
0.415
0.58
0.565
0.62
0.67
0.7
0.9
0.83
0.73
0.53
0.43
0.565
0.575
0.615
0.72
0.78
0.92
0.83
0.76
0.525
0.45
0.555
0.565
0.63
0.71
0.695
0.89
0.825
0.705
0.48
0.47
0.59
0.55
0.64
0.705
0.73
0.9
0.765
0.72
0.49
0.5
0.56
0.625
0.635
0.72
0.75
0.85
0.75
0.695
0.435
0.495
0.56
0.635
0.655
0.69
0.755
0.87
0.795
0.695
0.385
0.465
0.615
0.595
0.615
0.725
0.815
0.85
0.67
0.645
0.42
0.52
0.56
0.605
0.67
0.745
0.81
0.87
0.725
0.675
0.44
0.54
0.64
0.65
0.74
0.8
0.905
0.93
0.83
0.725
0.5
0.685
0.72
0.7
0.82
0.84
0.94
0.98
0.85
0.685
0.52
0.67
0.705
0.715
0.755
0.78
0.92
0.925
0.775
0.69
0.52
0.65
0.665
0.7
0.74
0.77
0.89
0.845
0.7
0.555
0.45
0.585
0.555
0.615
0.71
0.735
0.85
0.83
0.67
0.55
0.41
0.565
0.59
0.59
0.675
0.705
0.835
0.795
0.685
0.55
0.425
0.56
0.525
0.54
0.63
0.61
0.725
0.725
0.525
0.355
0.25
0.45
0.505
0.6
0.77
0.895
1.245
1.355
1.405
1.295
1.35
1.6
1.625
1.675
1.765
1.685
1.725
1.63
1.29
1.03
0.845
0.785
0.68
0.7
0.7
0.68
0.83
0.71
0.595
0.375
0.32
0.44
0.51
0.51
0.6
0.625
0.855
0.76
0.64
0.415
0.405
0.485
0.49
0.54
0.63
0.655
0.79
0.725
0.615
0.375
0.44
0.515
0.495
0.535
0.625
0.675
0.78
0.69
0.625
0.345
0.405
0.465
0.525
0.56
0.695
0.69
0.795
0.665
0.565
0.35
0.43
0.58
0.54
0.595
0.625
0.755
0.805
0.665
0.495
0.345
0.52
0.585
0.565
0.61
0.71
0.8
0.82
0.73
0.65
0.345
0.475
0.485
0.535
0.62
0.7
0.795
0.83
0.7
0.595
0.39
0.51
0.575
0.605
0.675
0.645
0.82
0.835
0.735
0.56
0.4
0.545
0.61
0.625
0.705
0.74
0.895
0.87
0.75
0.625
0.435
0.615
0.65
0.67
0.81
0.81
0.94
0.845
0.81
0.635
0.49
0.64
0.685
0.71
0.76
0.795
0.945
0.935
0.775
0.625
0.445
0.6
0.605
0.58
0.67
0.59
0.815
0.77
0.645
0.465
0.285
0.38
0.42
0.44
0.49
0.475
0.71
0.675
0.455
0.265
0.155
0.29
0.28
0.345
0.4
0.38
0.595
0.49
0.395
0.21
0.135
0.21
0.285
0.305
0.36
0.34
0.545
0.445
0.34
0.15
0.115
0.225
0.19
0.265
0.38
0.38
0.47
0.38
0.33
0.08
0.12
0.21
0.205
0.255
0.375
0.405
0.475
0.395
0.33
0.155
0.195
0.24
0.205
0.27
0.37
0.39
0.475
0.395
0.37
0.09
0.185
0.235
0.24
0.285
0.405
0.45
0.53
0.4
0.32
0.11
0.195
0.24
0.225
0.235
0.4
0.485
0.485
0.44
0.315
0.015
0.14
0.2
0.245
0.28
0.315
0.42
0.475
0.405
0.27
0.01
0.18
0.18
0.23
0.35
0.325
0.43
0.46
0.355
0.2
-0.02
0.15
0.195
0.195
0.24
0.295
0.415
0.41
0.355
0.155
-0.04
0.085
0.125
0.18
0.3
0.31
0.455
0.405
0.31
0.145
-0.025
0.13
0.165
0.24
0.32
0.285
0.465
0.42
0.295
0.165
-0.02
0.17
0.185
0.205
0.255
0.285
0.425
0.455
0.305
0.115
-0.015
0.165
0.13
0.195
0.295
0.32
0.465
0.4
0.28
0.14
-0.02
0.16
0.125
0.145
0.255
0.265
0.46
0.375
0.315
0.07
-0.03
0.17
0.12
0.165
0.22
0.26
0.425
0.325
0.26
0.09
0.01
0.1
0.11
0.16
0.27
0.27
0.425
0.33
0.205
-0.01
-0.065
0.11
0.09
0.13
0.255
0.225
0.41
0.325
0.225
-0.02
0.02
0.11
0.1
0.18
0.255
0.315
0.435
0.27
0.225
0.035
0.055
0.135
0.14
0.185
0.27
0.29
0.445
0.295
0.25
0.045
0.09
0.14
0.13
0.21
0.295
0.315
0.385
0.325
0.32
0.06
0.14
0.205
0.22
0.28
0.38
0.38
0.505
0.385
0.34
0.09
0.2
0.235
0.265
0.34
0.425
0.5
0.5
0.375
0.295
0.045
0.195
0.21
0.21
0.31
0.31
0.455
0.49
0.325
0.205
0.045
0.145
0.18
0.2
0.265
0.265
0.375
0.39
0.285
0.125
-0.065
0.115
0.13
0.14
0.26
0.245
0.395
0.34
0.22
0.1
-0.075
0.115
0.13
0.155
0.24
0.25
0.39
0.37
0.28
0.015
-0.145
0.01
0.025
0.055
0.125
0.115
0.255
0.2
0.115
-0.005
-0.08
0.175
0.32
0.51
0.75
0.9
1.285
1.36
1.275
1.2
1.02
1.17
1.08
1.05
0.995
0.87
0.935
0.71
0.4
0.15
-0.04
0.065
0.045
0.1
0.185
0.17
0.305
0.205
0.125
-0.095
-0.155
0.02
0.02
0.085
0.175
0.21
0.365
0.305
0.195
-0.01
-0.055
0.08
0.08
0.175
0.26
0.22
0.4
0.345
0.18
-0.005
-0.02
0.06
0.09
0.155
0.215
0.255
0.395
0.315
0.235
0.04
0.065
0.09
0.15
0.185
0.245
0.285
0.37
0.295
0.245
0.015
0.07
0.14
0.17
0.205
0.255
0.32
0.39
0.3
0.25
0.005
0.095
0.15
0.125
0.22
0.3
0.385
0.435
0.285
0.215
-0.01
0.08
0.155
0.17
0.205
0.29
0.4
0.41
0.365
0.265
0.035
0.145
0.245
0.21
0.3
0.355
0.475
0.5
0.365
0.315
0.135
0.215
0.26
0.255
0.41
0.48
0.555
0.585
0.435
0.32
0.165
0.315
0.29
0.285
0.415
0.465
0.63
0.595
0.46
0.325
0.17
0.29
0.35
0.325
0.43
0.465
0.63
0.585
0.45
0.31
0.205
0.335
0.415
0.355
0.465
0.44
0.55
0.49
0.37
0.25
0.06
0.2
0.2
0.23
0.325
0.26
0.44
0.36
0.245
0.08
-0.055
0.105
0.125
0.16
0.21
0.235
0.395
0.33
0.19
0.08
-0.08
0.06
0.09
0.12
0.17
0.215
0.395
0.33
0.205
0.015
-0.09
0.075
0.055
0.12
0.215
0.19
0.38
0.295
0.215
0.0
-0.06
0.06
0.025
0.1
0.19
0.19
0.37
0.255
0.19
-0.045
-0.065
0.005
0.035
0.08
0.175
0.22
0.39
0.27
0.215
-0.02
-0.115
0.085
0.06
0.1
0.195
0.22
0.36
0.25
0.185
-0.045
0.005
0.075
0.095
0.09
0.17
0.295
0.37
0.215
0.13
-0.06
0.025
0.04
0.045
0.055
0.14
0.21
0.275
0.235
0.095
-0.14
-0.05
0.035
0.045
0.1
0.195
0.165
0.27
0.17
0.12
-0.105
-0.04
0.015
0.055
0.155
0.11
0.23
0.255
0.165
0.06
-0.15
-0.055
-0.02
0.035
0.125
0.17
0.275
0.265
0.13
0.01
-0.21
-0.045
-0.015
-0.03
0.095
0.0
0.13
0.175
0.075
-0.065
-0.2
-0.07
-0.1
-0.035
-0.01
0.085
0.245
0.2
0.125
-0.075
-0.25
-0.135
-0.04
-0.005
0.015
0.08
0.25
0.195
0.075
-0.11
-0.265
-0.065
-0.03
-0.045
0.1
0.075
0.245
0.215
0.065
-0.125
-0.185
-0.06
-0.08
-0.025
0.07
0.05
0.205
0.17
0.075
-0.11
-0.215
-0.045
-0.07
0.005
0.07
0.095
0.285
0.185
0.075
-0.14
-0.295
-0.06
-0.04
-0.005
0.075
0.095
0.23
0.165
0.06
-0.125
-0.23
-0.06
-0.045
-0.01
0.095
0.11
0.235
0.19
0.07
-0.075
-0.11
-0.02
-0.045
0.035
0.13
0.155
0.28
0.2
0.155
-0.125
-0.115
0.005
-0.02
0.12
0.17
0.21
0.325
0.245
0.18
-0.075
-0.005
0.07
0.035
0.13
0.19
0.24
0.345
0.28
0.215
-0.005
0.03
0.1
0.175
0.225
0.29
0.335
0.405
0.28
0.23
0.01
0.14
0.185
0.16
0.15
0.275
0.345
0.405
0.28
0.225
-0.02
0.09
0.14
0.135
0.24
0.215
0.29
0.315
0.175
0.06
-0.145
-0.015
0.04
0.045
0.105
0.12
0.26
0.25
0.14
0.02
-0.195
-0.01
-0.02
-0.02
0.09
0.09
0.23
0.225
0.09
-0.03
-0.22
-0.075
-0.05
-0.05
0.04
0.025
0.165
0.08
-0.04
-0.125
-0.385
-0.26
-0.18
-0.15
0.045
0.125
0.395
0.545
0.525
0.49
0.545
0.885
1.02
1.125
1.195
1.175
1.295
1.115
0.885
0.585
0.345
0.44
0.255
0.11
0.075
0.17
0.305
0.205
0.05
-0.19
-0.33
-0.155
-0.175
-0.145
-0.04
-0.005
0.17
0.11
-0.005
-0.165
-0.25
-0.075
-0.1
-0.035
0.03
0.035
0.22
0.185
0.05
-0.155
-0.215
-0.065
-0.105
-0.03
0.07
0.045
0.265
0.145
0.025
-0.105
-0.2
-0.055
-0.03
0.0
0.14
0.15
0.25
0.135
0.115
-0.14
-0.145
-0.03
0.0
-0.01
0.145
0.155
0.25
0.17
0.125
-0.155
-0.125
0.015
0.055
0.08
0.155
0.195
0.3
0.23
0.1
-0.135
0.01
0.075
0.04
0.07
0.195
0.215
0.325
0.21
0.18
-0.045
0.02
0.1
0.135
0.17
0.245
0.35
0.395
0.265
0.205
0.005
0.07
0.14
0.2
0.245
0.245
0.435
0.465
0.365
0.255
0.065
0.145
0.195
0.265
0.355
0.385
0.505
0.505
0.425
0.315
0.15
0.26
0.29
0.35
0.47
0.43
0.54
0.48
0.435
0.3
0.15
0.23
0.265
0.35
0.415
0.43
0.535
0.475
0.405
0.2
0.015
0.155
0.23
0.27
0.255
0.265
0.4
0.37
0.3
0.12
-0.085
0.085
0.15
0.15
0.205
0.235
0.355
0.3
0.195
0.03
-0.11
0.015
0.02
0.085
0.17
0.16
0.325
0.325
0.21
0.0
-0.125
0.03
0.01
0.095
0.13
0.175
0.36
0.3
0.205
-0.01
-0.12
0.04
-0.05
0.06
0.145
0.165
0.36
0.25
0.22
-0.005
-0.105
0.02
0.055
0.125
0.195
0.185
0.305
0.245
0.155
-0.025
-0.1
0.015
0.025
0.075
0.13
0.19
0.34
0.165
0.09
-0.12
-0.095
-0.02
0.015
0.12
0.15
0.19
0.25
0.14
0.06
-0.15
-0.115
-0.035
-0.03
0.01
0.095
0.19
0.305
0.19
0.075
-0.13
-0.055
-0.015
-0.03
0.055
0.115
0.155
0.235
0.13
0.03
-0.2
-0.12
-0.065
-0.035
0.03
0.09
0.22
0.25
0.105
0.08
-0.185
-0.09
-0.03
-0.01
0.035
0.09
0.25
0.27
0.115
0.025
-0.195
-0.02
-0.05
-0.015
0.085
0.1
0.21
0.245
0.105
-0.015
-0.16
-0.015
-0.05
0.03
0.125
0.105
0.225
0.23
0.08
0.005
-0.26
-0.105
-0.045
-0.03
0.025
0.07
0.22
0.21
0.09
-0.055
-0.255
-0.115
-0.01
-0.015
0.06
0.06
0.215
0.175
0.09
-0.11
-0.29
-0.11
-0.04
-0.03
0.05
0.025
0.16
0.115
0.12
-0.08
-0.28
-0.07
-0.06
0.01
0.06
0.07
0.21
0.18
0.05
-0.08
-0.26
-0.095
-0.095
-0.035
0.025
0.08
0.245
0.185
0.045
-0.155
-0.215
-0.08
-0.125
-0.02
0.05
0.07
0.27
0.13
0.025
-0.165
-0.215
-0.075
-0.08
-0.035
0.03
0.055
0.25
0.14
0.07
-0.145
-0.21
-0.09
-0.065
0.005
0.125
0.09
0.21
0.13
0.065
-0.14
-0.1
-0.04
-0.055
0.03
0.1
0.1
0.225
0.145
0.095
-0.14
-0.095
0.015
-0.04
0.06
0.13
0.22
0.345
0.255
0.14
-0.06
0.005
0.07
0.11
0.13
0.225
0.295
0.345
0.17
0.12
-0.135
-0.02
0.045
0.055
0.065
0.165
0.25
0.315
0.21
0.1
-0.12
-0.005
-0.05
-0.04
0.025
0.1
0.23
0.185
0.13
0.005
-0.23
-0.08
-0.02
-0.065
0.055
0.035
0.265
0.26
0.085
-0.04
-0.215
-0.105
-0.065
-0.045
0.105
0.035
0.26
0.19
0.075
-0.085
-0.29
-0.14
-0.11
-0.135
-0.05
-0.005
0.1
0.12
0.015
-0.13
-0.25
0.005
0.135
0.31
0.565
0.735
1.08
1.18
1.2
1.055
0.84
0.95
0.88
0.84
0.81
0.66
0.77
0.655
0.33
-0.01
-0.08
0.035
0.005
-0.015
0.03
0.025
0.185
0.125
-0.045
-0.215
-0.225
-0.065
-0.085
0.03
0.13
0.085
0.27
0.24
0.135
-0.06
-0.19
0.0
-0.01
0.065
0.155
0.175
0.32
0.255
0.155
-0.075
-0.115
0.015
-0.025
0.03
0.105
0.12
0.32
0.23
0.16
-0.045
-0.115
0.015
0.02
0.14
0.16
0.15
0.335
0.255
0.16
-0.075
-0.075
0.03
0.065
0.1
0.19
0.18
0.335
0.24
0.165
-0.02
-0.065
0.075
0.12
0.11
0.18
0.245
0.38
0.23
0.24
-0.015
0.03
0.115
0.085
0.125
0.245
0.3
0.36
0.285
0.27
-0.02
0.07
0.17
0.165
0.235
0.295
0.425
0.465
0.34
0.26
0.06
0.13
0.175
0.235
0.35
0.375
0.47
0.525
0.41
0.35
0.105
0.195
0.27
0.36
0.415
0.435
0.57
0.595
0.5
0.355
0.135
0.33
0.415
0.35
0.44
0.475
0.635
0.595
0.47
0.39
0.165
0.265
0.305
0.31
0.425
0.415
0.51
0.475
0.37
0.165
-0.01
0.14
0.155
0.21
0.24
0.3
0.435
0.365
0.24
0.09
-0.035
0.125
0.12
0.165
0.245
0.26
0.41
0.395
0.225
0.05
-0.11
0.1
0.085
0.12
0.2
0.21
0.385
0.32
0.215
0.085
-0.115
0.035
0.04
0.085
0.16
0.19
0.39
0.335
0.175
-0.005
-0.11
-0.005
0.02
0.04
0.2
0.185
0.325
0.28
0.215
-0.005
-0.13
0.025
0.025
0.11
0.18
0.21
0.355
0.27
0.17
-0.045
-0.105
0.04
0.045
0.1
0.2
0.18
0.345
0.24
0.13
-0.005
-0.055
0.045
0.105
0.08
0.15
0.175
0.33
0.25
0.13
-0.06
0.005
0.045
0.045
0.16
0.175
0.18
0.375
0.23
0.15
-0.085
-0.03
0.055
0.085
0.11
0.175
0.28
0.3
0.235
0.145
-0.14
-0.005
0.075
0.085
0.095
0.155
0.25
0.315
0.16
0.15
-0.11
0.03
0.07
0.025
0.11
0.2
0.28
0.33
0.185
0.14
-0.115
0.02
0.035
0.07
0.14
0.2
0.29
0.35
0.175
0.085
-0.11
0.03
0.055
0.085
0.18
0.155
0.285
0.335
0.21
0.035
-0.175
0.005
0.055
0.075
0.175
0.21
0.34
0.305
0.18
0.04
-0.17
0.03
0.095
0.045
0.185
0.18
0.37
0.33
0.18
0.04
-0.125
0.065
0.065
0.095
0.23
0.21
0.325
0.265
0.17
0.03
-0.085
0.05
0.035
0.135
0.145
0.2
0.31
0.31
0.205
0.055
-0.075
0.065
0.05
0.1
0.205
0.195
0.39
0.305
0.175
0.02
-0.12
0.02
0.03
0.145
0.21
0.22
0.37
0.305
0.24
0.02
-0.025
0.075
0.09
0.17
0.185
0.235
0.4
0.335
0.24
0.03
-0.03
0.085
0.08
0.18
0.235
0.275
0.425
0.35
0.295
0.08
0.055
0.16
0.185
0.325
0.34
0.365
0.525
0.41
0.29
0.095
0.12
0.175
0.15
0.215
0.33
0.385
0.505
0.415
0.26
0.035
0.13
0.195
0.14
0.205
0.265
0.36
0.49
0.305
0.235
0.005
0.06
0.07
0.12
0.19
0.215
0.34
0.385
0.265
0.17
-0.065
0.04
0.105
0.095
0.14
0.225
0.33
0.375
0.255
0.14
-0.095
0.005
0.065
0.105
0.17
0.15
0.28
0.315
0.19
0.045
-0.22
-0.06
0.025
0.035
0.135
0.19
0.425
0.55
0.525
0.5
0.495
0.825
0.935
1.045
1.185
1.18
1.28
1.215
1.08
0.75
0.52
0.53
0.51
0.355
0.29
0.27
0.415
0.325
0.19
0.005
-0.16
0.0
0.005
0.025
0.11
0.135
0.325
0.305
0.14
0.025
-0.135
0.02
0.105
0.105
0.19
0.215
0.35
0.335
0.175
0.04
-0.09
0.11
0.075
0.135
0.16
0.24
0.39
0.33
0.21
0.005
-0.095
0.095
0.08
0.145
0.22
0.27
0.43
0.325
0.195
0.07
-0.025
0.06
0.1
0.165
0.195
0.255
0.385
0.305
0.26
0.015
-0.015
0.115
0.11
0.17
0.24
0.28
0.44
0.315
0.27
0.02
0.035
0.16
0.115
0.15
0.26
0.29
0.475
0.415
0.295
0.07
0.065
0.16
0.135
0.22
0.28
0.33
0.465
0.36
0.265
0.16
0.185
0.24
0.21
0.29
0.38
0.43
0.58
0.4
0.355
0.16
0.23
0.24
0.285
0.315
0.405
0.515
0.62
0.46
0.385
0.145
0.245
0.335
0.345
0.415
0.445
0.55
0.645
0.495
0.44
0.215
0.315
0.315
0.33
0.445
0.405
0.58
0.605
0.455
0.31
0.03
0.195
0.25
0.27
0.315
0.32
0.45
0.435
0.34
0.235
0.0
0.125
0.18
0.175
0.24
0.265
0.4
0.37
0.255
0.115
-0.06
0.025
0.075
0.14
0.21
0.205
0.42
0.38
0.23
0.065
-0.11
0.06
0.085
0.14
0.22
0.215
0.375
0.335
0.205
0.065
-0.055
0.03
0.03
0.07
0.165
0.17
0.385
0.39
0.23
0.01
-0.145
0.075
0.09
0.125
0.195
0.21
0.36
0.275
0.155
0.005
-0.14
0.03
0.02
0.14
0.175
0.155
0.345
0.28
0.17
-0.015
-0.125
0.01
-0.015
0.04
0.17
0.16
0.33
0.26
0.2
-0.015
-0.11
0.03
0.05
0.05
0.135
0.195
0.325
0.25
0.205
-0.105
-0.08
0.01
0.02
0.065
0.16
0.2
0.37
0.28
0.185
-0.025
-0.035
0.02
0.045
0.14
0.205
0.24
0.37
0.21
0.15
-0.03
-0.01
0.06
0.075
0.13
0.245
0.27
0.32
0.24
0.14
-0.075
0.0
0.075
0.045
0.08
0.175
0.28
0.34
0.23
0.15
-0.12
0.01
0.04
0.085
0.115
0.165
0.3
0.34
0.21
0.13
-0.08
-0.015
0.125
0.08
0.125
0.175
0.305
0.345
0.22
0.115
-0.12
-0.015
0.06
0.055
0.17
0.205
0.305
0.275
0.16
0.045
-0.12
0.02
0.06
0.05
0.14
0.185
0.32
0.32
0.225
0.055
-0.13
0.01
0.1
0.13
0.195
0.165
0.315
0.305
0.185
0.065
-0.08
0.06
0.055
0.095
0.195
0.2
0.36
0.31
0.19
0.03
-0.125
0.02
0.07
0.09
0.14
0.19
0.35
0.315
0.21
0.015
-0.12
0.04
0.085
0.075
0.215
0.195
0.395
0.355
0.2
0.04
-0.075
0.11
0.075
0.135
0.235
0.275
0.445
0.365
0.27
0.06
-0.04
0.145
0.13
0.165
0.29
0.33
0.49
0.445
0.34
0.04
0.075
0.24
0.18
0.225
0.31
0.35
0.495
0.425
0.255
0.085
0.095
0.14
0.15
0.19
0.285
0.34
0.465
0.375
0.28
0.02
0.02
0.105
0.2
0.175
0.19
0.28
0.355
0.24
0.215
0.03
0.025
0.11
0.07
0.11
0.235
0.245
0.415
0.24
0.195
0.065
0.01
0.02
0.06
0.105
0.165
0.245
0.32
0.18
0.105
-0.15
-0.075
-0.06
-0.035
0.025
0.11
0.28
0.365
0.345
0.37
0.29
0.55
0.755
0.895
1.07
1.185
1.26
1.245
1.11
0.935
0.605
0.625
0.59
0.55
0.47
0.34
0.395
0.28
0.12
0.06
-0.165
-0.04
0.015
0.03
0.105
0.1
0.27
0.17
0.09
-0.025
-0.165
0.01
0.06
0.115
0.165
0.145
0.31
0.29
0.18
0.02
-0.145
0.01
0.045
0.045
0.145
0.185
0.345
0.3
0.215
0.055
-0.13
0.015
0.09
0.1
0.16
0.22
0.34
0.275
0.17
0.03
-0.125
0.05
0.075
0.095
0.165
0.21
0.39
0.335
0.17
-0.01
-0.07
0.125
0.025
0.09
0.19
0.24
0.345
0.315
0.2
0.035
-0.035
0.16
0.09
0.125
0.19
0.235
0.43
0.34
0.23
0.045
0.005
0.06
0.16
0.175
0.205
0.265
0.465
0.325
0.265
0.1
0.11
0.22
0.175
0.245
0.37
0.37
0.465
0.39
0.345
0.13
0.115
0.205
0.25
0.325
0.435
0.475
0.6
0.42
0.37
0.19
0.25
0.305
0.335
0.36
0.43
0.555
0.605
0.54
0.455
0.195
0.3
0.335
0.345
0.355
0.465
0.535
0.61
0.485
0.42
0.145
0.255
0.265
0.285
0.265
0.36
0.53
0.475
0.355
0.28
0.06
0.155
0.135
0.17
0.22
0.255
0.385
0.42
0.27
0.18
0.01
0.075
0.135
0.14
0.18
0.195
0.37
0.36
0.25
0.11
-0.06
0.095
0.08
0.165
0.235
0.225
0.36
0.385
0.235
0.065
-0.065
0.085
0.14
0.2
0.2
0.22
0.37
0.365
0.22
0.11
-0.08
0.06
0.1
0.125
0.23
0.26
0.365
0.325
0.21
0.095
-0.08
0.045
0.06
0.14
0.245
0.23
0.385
0.335
0.185
0.065
-0.06
0.085
0.095
0.15
0.24
0.27
0.355
0.325
0.225
0.03
-0.13
0.07
0.1
0.135
0.225
0.29
0.335
0.31
0.21
0.02
-0.1
0.1
0.095
0.13
0.21
0.175
0.365
0.31
0.17
-0.01
-0.025
0.115
0.09
0.14
0.2
0.215
0.325
0.245
0.2
-0.01
-0.04
0.08
0.095
0.1
0.18
0.225
0.36
0.25
0.16
-0.055
-0.045
0.07
0.105
0.08
0.165
0.225
0.35
0.195
0.14
-0.04
-0.015
0.055
0.075
0.08
0.14
0.225
0.355
0.23
0.155
-0.05
0.005
0.025
0.04
0.075
0.13
0.23
0.32
0.225
0.165
-0.12
-0.03
0.03
0.025
0.095
0.16
0.25
0.295
0.165
0.145
-0.155
-0.065
0.01
0.0
0.095
0.13
0.2
0.25
0.165
0.03
-0.135
-0.055
0.03
-0.01
0.075
0.045
0.225
0.245
0.13
0.0
-0.2
-0.07
-0.05
0.01
0.115
0.12
0.215
0.215
0.125
-0.025
-0.21
-0.075
-0.005
0.005
0.085
0.115
0.255
0.29
0.105
-0.045
-0.185
-0.04
0.01
0.02
0.065
0.09
0.22
0.2
0.09
-0.025
-0.175
-0.05
0.02
0.03
0.095
0.085
0.245
0.21
0.095
-0.04
-0.205
-0.045
0.035
0.055
0.145
0.14
0.345
0.29
0.165
-0.025
-0.14
0.04
0.035
0.07
0.155
0.13
0.31
0.255
0.175
-0.08
-0.2
-0.005
-0.075
0.045
0.125
0.13
0.28
0.205
0.065
-0.13
-0.19
-0.01
-0.12
-0.015
0.095
0.05
0.235
0.1
0.055
-0.205
-0.235
-0.035
-0.1
-0.055
0.035
-0.065
0.22
0.12
-0.005
-0.185
-0.19
-0.2
-0.06
-0.07
0.03
0.075
0.18
0.04
-0.03
-0.27
-0.27
-0.195
-0.21
-0.13
-0.125
-0.04
0.095
0.025
0.045
-0.055
0.11
0.32
0.515
0.71
0.895
1.075
1.24
1.085
0.975
0.73
0.755
0.695
0.615
0.575
0.55
0.515
0.36
0.15
0.005
-0.21
-0.155
-0.13
-0.21
-0.14
-0.09
0.045
0.065
-0.065
-0.115
-0.33
-0.175
-0.1
-0.05
-0.02
-0.025
0.165
0.17
0.025
-0.09
-0.275
-0.155
-0.115
-0.09
-0.03
0.05
0.225
0.21
0.05
-0.1
-0.3
-0.14
-0.115
-0.11
0.015
-0.025
0.1
0.15
0.035
-0.12
-0.245
-0.1
-0.11
-0.06
0.01
0.03
0.165
0.125
0.04
-0.105
-0.26
-0.135
-0.125
-0.06
0.025
0.05
0.165
0.14
0.03
-0.09
-0.265
-0.09
-0.065
-0.015
0.04
0.03
0.21
0.185
0.065
-0.115
-0.22
-0.115
-0.105
-0.04
0.07
0.045
0.245
0.19
0.02
-0.105
-0.165
-0.1
-0.04
-0.02
0.125
0.095
0.3
0.25
0.11
-0.045
-0.13
0.025
0.06
0.09
0.165
0.205
0.31
0.3
0.17
-0.085
-0.075
0.025
0.065
0.115
0.255
0.235
0.355
0.28
0.21
0.015
0.055
0.09
0.13
0.175
0.225
0.265
0.4
0.26
0.185
-0.05
-0.015
0.035
0.04
0.075
0.15
0.165
0.29
0.175
0.07
-0.145
-0.115
-0.015
-0.055
-0.02
0.035
0.125
0.185
0.05
-0.035
-0.265
-0.18
-0.17
-0.14
-0.05
-0.04
0.04
0.125
0.04
-0.065
-0.335
-0.26
-0.145
-0.1
-0.05
-0.03
0.09
0.1
-0.015
-0.085
-0.315
-0.23
-0.155
-0.115
-0.065
-0.105
0.085
0.105
-0.02
-0.13
-0.265
-0.195
-0.215
-0.18
-0.02
-0.015
0.095
0.095
-0.02
-0.115
-0.3
-0.145
-0.15
-0.21
0.03
0.0
0.1
0.08
-0.025
-0.155
-0.32
-0.13
-0.16
-0.155
-0.045
-0.055
0.09
0.08
-0.015
-0.21
-0.345
-0.165
-0.11
-0.095
-0.065
-0.035
0.155
0.1
-0.005
-0.175
-0.35
-0.165
-0.255
-0.16
-0.025
-0.03
0.115
-0.01
0.01
-0.135
-0.315
-0.175
-0.17
-0.185
-0.085
-0.045
0.11
0.075
-0.045
-0.225
-0.28
-0.175
-0.22
-0.145
-0.09
-0.05
0.115
0.03
-0.055
-0.315
-0.36
-0.18
-0.21
-0.16
-0.08
-0.07
0.065
0.0
-0.11
-0.28
-0.365
-0.24
-0.2
-0.165
-0.09
-0.1
0.06
-0.08
-0.105
-0.32
-0.3
-0.225
-0.245
-0.15
-0.105
-0.11
0.06
-0.04
-0.14
-0.345
-0.31
-0.255
-0.24
-0.2
-0.135
-0.06
0.06
-0.085
-0.15
-0.405
-0.33
-0.25
-0.22
-0.19
-0.125
-0.075
-0.015
-0.14
-0.195
-0.395
-0.32
-0.26
-0.245
-0.205
-0.145
0.0
-0.005
-0.17
-0.2
-0.38
-0.32
-0.275
-0.31
-0.21
-0.145
0.02
-0.06
-0.155
-0.235
-0.435
-0.35
-0.215
-0.23
-0.09
-0.19
-0.04
0.02
-0.16
-0.27
-0.4
-0.33
-0.265
-0.335
-0.16
-0.15
-0.035
-0.03
-0.18
-0.28
-0.465
-0.31
-0.25
-0.22
-0.17
-0.115
0.045
0.03
-0.115
-0.235
-0.425
-0.295
-0.215
-0.17
-0.11
-0.065
0.06
0.115
-0.025
-0.22
-0.35
-0.195
-0.155
-0.125
-0.025
-0.025
0.125
0.095
-0.095
-0.28
-0.32
-0.185
-0.21
-0.12
-0.075
-0.045
0.115
0.015
-0.055
-0.175
-0.36
-0.235
-0.225
-0.185
-0.17
-0.115
0.025
-0.055
-0.185
-0.39
-0.48
-0.26
-0.265
-0.2
-0.185
-0.215
-0.08
-0.05
-0.195
-0.385
-0.46
-0.295
-0.325
-0.25
-0.205
-0.205
-0.03
-0.09
-0.265
-0.42
-0.46
-0.35
-0.38
-0.355
-0.325
-0.24
-0.12
-0.245
-0.36
-0.6
-0.565
-0.41
-0.38
-0.27
-0.095
0.15
0.39
0.455
0.52
0.495
0.59
0.74
0.765
0.75
0.79
0.77
0.735
0.515
0.355
-0.01
-0.1
-0.195
-0.315
-0.31
-0.215
-0.165
-0.115
-0.295
-0.355
-0.645
-0.59
-0.5
-0.42
-0.39
-0.295
-0.24
-0.08
-0.245
-0.28
-0.555
-0.41
-0.355
-0.365
-0.31
-0.285
-0.17
-0.14
-0.235
-0.355
-0.545
-0.41
-0.39
-0.395
-0.295
-0.28
-0.14
-0.16
-0.28
-0.385
-0.53
-0.43
-0.395
-0.365
-0.245
-0.275
-0.105
-0.09
-0.25
-0.39
-0.575
-0.41
-0.27
-0.305
-0.28
-0.185
-0.03
-0.12
-0.24
-0.37
-0.56
-0.405
-0.345
-0.305
-0.225
-0.205
-0.035
-0.065
-0.21
-0.325
-0.49
-0.32
-0.28
-0.27
-0.24
-0.16
-0.05
-0.065
-0.17
-0.365
-0.445
-0.305
-0.305
-0.22
-0.17
-0.15
0.055
-0.02
-0.16
-0.3
-0.425
-0.255
-0.29
-0.14
-0.12
-0.13
0.11
0.075
-0.045
-0.25
-0.385
-0.18
-0.115
-0.1
-0.045
-0.015
0.12
0.055
-0.055
-0.205
-0.265
-0.12
-0.145
0.015
0.015
-0.015
0.2
0.115
0.015
-0.23
-0.225
-0.095
-0.1
-0.08
0.0
0.03
0.155
-0.01
-0.11
-0.245
-0.32
-0.21
-0.16
-0.18
-0.115
-0.065
0.035
-0.05
-0.15
-0.405
-0.38
-0.295
-0.27
-0.285
-0.21
-0.145
-0.03
-0.105
-0.18
-0.445
-0.39
-0.34
-0.315
-0.29
-0.21
-0.14
-0.09
-0.195
-0.225
-0.48
-0.425
-0.37
-0.335
-0.245
-0.22
-0.105
-0.06
-0.185
-0.265
-0.515
-0.325
-0.34
-0.3
-0.23
-0.225
-0.1
-0.085
-0.19
-0.26
-0.47
-0.42
-0.385
-0.295
-0.195
-0.205
-0.07
-0.07
-0.19
-0.29
-0.495
-0.33
-0.36
-0.35
-0.205
-0.195
-0.07
-0.11
-0.185
-0.355
-0.52
-0.38
-0.335
-0.3
-0.22
-0.195
-0.045
-0.055
-0.165
-0.36
-0.485
-0.38
-0.35
-0.305
-0.22
-0.19
-0.07
-0.115
-0.2
-0.355
-0.54
-0.395
-0.33
-0.295
-0.2
-0.18
-0.05
-0.125
-0.22
-0.405
-0.565
-0.345
-0.35
-0.275
-0.245
-0.23
-0.105
-0.19
-0.25
-0.39
-0.525
-0.385
-0.365
-0.345
-0.25
-0.195
-0.065
-0.19
-0.29
-0.445
-0.545
-0.375
-0.355
-0.335
-0.25
-0.255
-0.09
-0.175
-0.24
-0.44
-0.495
-0.375
-0.405
-0.34
-0.285
-0.24
-0.09
-0.165
-0.255
-0.485
-0.49
-0.34
-0.36
-0.36
-0.29
-0.23
-0.1
-0.23
-0.3
-0.475
-0.48
-0.415
-0.4
-0.33
-0.26
-0.205
-0.085
-0.185
-0.245
-0.465
-0.49
-0.325
-0.375
-0.35
-0.275
-0.18
-0.085
-0.265
-0.3
-0.475
-0.44
-0.35
-0.32
-0.285
-0.23
-0.155
-0.09
-0.215
-0.275
-0.43
-0.36
-0.355
-0.37
-0.275
-0.25
-0.13
-0.075
-0.195
-0.275
-0.49
-0.43
-0.335
-0.325
-0.335
-0.265
-0.135
-0.135
-0.205
-0.315
-0.525
-0.41
-0.345
-0.31
-0.255
-0.23
-0.08
-0.065
-0.205
-0.335
-0.505
-0.345
-0.335
-0.31
-0.225
-0.175
-0.11
-0.06
-0.22
-0.32
-0.5
-0.365
-0.335
-0.22
-0.115
-0.125
0.01
0.01
-0.1
-0.235
-0.4
-0.32
-0.31
-0.225
-0.17
-0.135
0.015
-0.03
-0.17
-0.27
-0.45
-0.34
-0.275
-0.21
-0.125
-0.125
0.025
-0.08
-0.235
-0.365
-0.455
-0.31
-0.33
-0.32
-0.2
-0.24
-0.075
-0.115
-0.245
-0.415
-0.56
-0.4
-0.4
-0.345
-0.26
-0.185
-0.035
-0.075
-0.235
-0.43
-0.525
-0.42
-0.415
-0.355
-0.245
-0.245
-0.085
-0.19
-0.295
-0.475
-0.575
-0.435
-0.48
-0.45
-0.435
-0.32
-0.1
-0.185
-0.135
-0.24
-0.175
0.105
0.26
0.48
0.68
0.83
1.03
0.905
0.82
0.605
0.495
0.44
0.365
0.185
0.255
0.115
0.045
-0.17
-0.24
-0.42
-0.42
-0.38
-0.425
-0.4
-0.41
-0.305
-0.2
-0.31
-0.34
-0.6
-0.54
-0.42
-0.38
-0.4
-0.29
-0.185
-0.145
-0.26
-0.295
-0.53
-0.485
-0.35
-0.375
-0.345
-0.225
-0.14
-0.12
-0.255
-0.305
-0.53
-0.42
-0.375
-0.425
-0.295
-0.215
-0.15
-0.125
-0.19
-0.295
-0.56
-0.44
-0.34
-0.355
-0.27
-0.21
-0.08
-0.075
-0.255
-0.35
-0.53
-0.415
-0.335
-0.29
-0.16
-0.23
-0.115
-0.065
-0.185
-0.32
-0.485
-0.34
-0.325
-0.325
-0.19
-0.14
-0.025
-0.06
-0.145
-0.28
-0.41
-0.32
-0.295
-0.235
-0.15
-0.155
-0.005
-0.05
-0.175
-0.285
-0.385
-0.235
-0.25
-0.215
-0.075
-0.08
0.1
0.115
-0.125
-0.255
-0.365
-0.165
-0.145
-0.08
-0.085
-0.005
0.2
0.18
0.05
-0.15
-0.275
-0.13
-0.1
-0.05
0.035
0.07
0.205
0.165
0.085
-0.155
-0.285
-0.095
-0.075
-0.045
-0.005
0.06
0.225
0.165
0.035
-0.19
-0.235
-0.16
-0.2
-0.12
-0.055
-0.065
0.095
0.005
-0.06
-0.32
-0.345
-0.245
-0.23
-0.175
-0.185
-0.16
-0.01
-0.105
-0.165
-0.405
-0.405
-0.325
-0.34
-0.265
-0.19
-0.17
-0.02
-0.14
-0.235
-0.46
-0.45
-0.375
-0.38
-0.295
-0.265
-0.2
-0.125
-0.16
-0.26
-0.465
-0.46
-0.385
-0.335
-0.32
-0.205
-0.125
-0.04
-0.165
-0.22
-0.46
-0.44
-0.35
-0.29
-0.245
-0.225
-0.12
-0.04
-0.155
-0.245
-0.475
-0.36
-0.31
-0.305
-0.235
-0.19
-0.145
-0.1
-0.145
-0.205
-0.49
-0.38
-0.34
-0.32
-0.205
-0.22
-0.075
-0.03
-0.15
-0.3
-0.445
-0.355
-0.32
-0.295
-0.22
-0.235
-0.06
-0.07
-0.1
-0.285
-0.455
-0.315
-0.295
-0.235
-0.205
-0.19
-0.035
-0.045
-0.175
-0.325
-0.465
-0.32
-0.295
-0.26
-0.185
-0.17
-0.05
-0.05
-0.175
-0.325
-0.43
-0.37
-0.315
-0.27
-0.23
-0.175
0.025
-0.04
-0.23
-0.385
-0.515
-0.365
-0.315
-0.23
-0.23
-0.23
-0.035
-0.05
-0.2
-0.365
-0.505
-0.34
-0.355
-0.325
-0.215
-0.21
-0.035
-0.085
-0.17
-0.33
-0.525
-0.345
-0.345
-0.23
-0.195
-0.175
-0.02
-0.1
-0.195
-0.41
-0.5
-0.315
-0.32
-0.305
-0.225
-0.215
-0.08
-0.125
-0.19
-0.42
-0.455
-0.315
-0.35
-0.305
-0.21
-0.14
-0.07
-0.13
-0.23
-0.42
-0.445
-0.295
-0.34
-0.315
-0.22
-0.13
-0.005
-0.195
-0.26
-0.39
-0.37
-0.32
-0.335
-0.295
-0.23
-0.15
0.0
-0.135
-0.205
-0.435
-0.465
-0.31
-0.305
-0.285
-0.23
-0.065
-0.055
-0.19
-0.22
-0.465
-0.37
-0.33
-0.365
-0.32
-0.22
-0.135
-0.08
-0.16
-0.23
-0.455
-0.36
-0.33
-0.295
-0.225
-0.155
-0.045
-0.02
-0.175
-0.21
-0.45
-0.34
-0.3
-0.28
-0.18
-0.165
0.005
0.015
-0.105
-0.185
-0.385
-0.285
-0.22
-0.195
-0.11
-0.055
0.145
0.035
-0.075
-0.29
-0.405
-0.245
-0.27
-0.22
-0.115
-0.095
0.02
0.0
-0.135
-0.27
-0.38
-0.3
-0.3
-0.285
-0.2
-0.17
-0.01
-0.02
-0.165
-0.34
-0.51
-0.38
-0.365
-0.285
-0.2
-0.155
-0.055
-0.11
-0.205
-0.425
-0.515
-0.375
-0.39
-0.295
-0.275
-0.235
-0.065
-0.125
-0.265
-0.42
-0.6
-0.405
-0.445
-0.41
-0.37
-0.29
-0.18
-0.265
-0.315
-0.44
-0.55
-0.345
-0.22
-0.055
0.185
0.37
0.68
0.74
0.78
0.71
0.61
0.695
0.7
0.675
0.66
0.6
0.56
0.315
0.055
-0.26
-0.39
-0.35
-0.255
-0.26
-0.26
-0.22
-0.085
-0.225
-0.32
-0.525
-0.54
-0.41
-0.39
-0.34
-0.235
-0.18
-0.03
-0.12
-0.2
-0.42
-0.425
-0.31
-0.345
-0.25
-0.205
-0.15
0.025
-0.1
-0.2
-0.41
-0.375
-0.32
-0.3
-0.23
-0.17
-0.125
0.025
-0.105
-0.205
-0.37
-0.31
-0.335
-0.295
-0.255
-0.15
-0.04
0.05
-0.13
-0.2
-0.405
-0.285
-0.255
-0.245
-0.185
-0.125
-0.025
0.03
-0.09
-0.17
-0.41
-0.29
-0.275
-0.22
-0.115
-0.06
0.025
0.04
-0.055
-0.2
-0.37
-0.26
-0.235
-0.195
-0.095
-0.05
0.07
0.105
-0.025
-0.14
-0.325
-0.24
-0.14
-0.145
-0.04
-0.005
0.145
0.145
0.025
-0.09
-0.365
-0.15
-0.055
-0.05
0.05
0.085
0.225
0.19
0.07
-0.01
-0.15
-0.07
-0.015
-0.025
0.095
0.175
0.335
0.26
0.125
0.01
-0.16
0.045
0.025
0.09
0.15
0.165
0.35
0.3
0.16
-0.015
-0.18
-0.01
-0.01
0.04
0.055
0.085
0.27
0.165
0.06
-0.125
-0.24
-0.07
-0.12
-0.06
-0.015
0.005
0.135
0.075
-0.04
-0.225
-0.34
-0.225
-0.185
-0.17
-0.115
-0.09
0.095
-0.025
-0.12
-0.25
-0.315
-0.23
-0.21
-0.175
-0.14
-0.065
0.1
-0.115
-0.085
-0.305
-0.28
-0.22
-0.235
-0.17
-0.09
-0.04
0.09
-0.045
-0.125
-0.32
-0.29
-0.26
-0.27
-0.15
-0.12
-0.045
0.05
-0.04
-0.125
-0.315
-0.32
-0.185
-0.2
-0.185
-0.075
-0.03
0.055
-0.06
-0.13
-0.345
-0.29
-0.225
-0.17
-0.15
-0.08
-0.005
0.055
-0.07
-0.175
-0.36
-0.26
-0.215
-0.175
-0.135
-0.08
0.025
0.12
-0.015
-0.125
-0.345
-0.285
-0.245
-0.18
-0.115
-0.055
0.025
0.045
-0.055
-0.19
-0.305
-0.28
-0.205
-0.165
-0.085
-0.055
0.075
0.05
-0.025
-0.145
-0.38
-0.275
-0.215
-0.205
-0.15
-0.065
0.13
0.015
-0.105
-0.23
-0.395
-0.23
-0.185
-0.185
-0.095
-0.095
0.03
0.04
-0.115
-0.225
-0.335
-0.245
-0.21
-0.17
-0.11
-0.045
0.065
0.03
-0.06
-0.2
-0.375
-0.26
-0.22
-0.175
-0.11
-0.065
0.085
0.07
-0.09
-0.25
-0.4
-0.27
-0.24
-0.18
-0.095
-0.05
0.06
0.005
-0.08
-0.29
-0.39
-0.245
-0.23
-0.15
-0.135
-0.1
0.09
-0.005
-0.145
-0.28
-0.37
-0.225
-0.225
-0.185
-0.17
-0.05
0.095
0.045
-0.045
-0.35
-0.37
-0.26
-0.245
-0.13
-0.115
-0.075
0.075
0.005
-0.105
-0.315
-0.31
-0.2
-0.195
-0.16
-0.05
-0.04
0.11
-0.03
-0.11
-0.3
-0.3
-0.21
-0.2
-0.135
-0.07
-0.045
0.12
0.025
-0.03
-0.265
-0.185
-0.12
-0.155
-0.115
-0.05
0.055
0.17
0.01
-0.015
-0.19
-0.11
-0.115
-0.1
-0.015
0.045
0.135
0.25
0.14
0.05
-0.24
-0.16
-0.09
-0.08
-0.045
0.025
0.145
0.115
-0.005
-0.07
-0.275
-0.205
-0.17
-0.1
-0.05
0.025
0.045
0.09
-0.03
-0.16
-0.385
-0.285
-0.22
-0.195
-0.09
-0.125
0.01
0.035
-0.095
-0.17
-0.375
-0.275
-0.245
-0.215
-0.115
-0.1
0.03
0.065
-0.08
-0.22
-0.395
-0.25
-0.215
-0.21
-0.155
-0.165
-0.03
-0.04
-0.2
-0.37
-0.535
-0.4
-0.34
-0.305
-0.17
-0.07
0.165
0.245
0.265
0.27
0.335
0.625
0.73
0.845
1.005
0.955
1.105
0.955
0.7
0.455
0.205
0.28
0.175
-0.035
-0.08
-0.035
0.175
0.09
-0.085
-0.33
-0.47
-0.33
-0.325
-0.3
-0.185
-0.1
0.07
0.0
-0.08
-0.245
-0.34
-0.225
-0.195
-0.13
-0.095
-0.045
0.12
0.065
-0.035
-0.235
-0.27
-0.14
-0.105
-0.06
-0.01
-0.01
0.155
0.09
-0.035
-0.235
-0.27
-0.135
-0.155
-0.125
-0.01
-0.025
0.135
0.05
-0.03
-0.26
-0.26
-0.145
-0.15
-0.065
-0.015
0.005
0.145
0.045
-0.015
-0.22
-0.165
-0.12
-0.115
-0.085
0.035
0.135
0.2
0.065
-0.03
-0.24
-0.185
-0.035
-0.02
0.005
0.04
0.125
0.27
0.09
0.03
-0.205
-0.105
0.005
-0.035
0.085
0.11
0.2
0.29
0.155
0.125
-0.11
0.02
0.04
0.05
0.11
0.215
0.335
0.345
0.24
0.145
-0.03
0.095
0.14
0.14
0.25
0.325
0.4
0.38
0.335
0.18
0.05
0.145
0.185
0.265
0.33
0.35
0.51
0.42
0.305
0.195
0.045
0.185
0.185
0.205
0.28
0.31
0.395
0.395
0.28
0.11
-0.025
0.105
0.095
0.125
0.2
0.225
0.345
0.305
0.185
0.045
-0.09
0.01
0.03
0.035
0.08
0.165
0.3
0.255
0.08
-0.04
-0.155
0.025
0.015
0.115
0.1
0.13
0.28
0.245
0.105
-0.045
-0.18
-0.03
-0.005
0.05
0.085
0.095
0.29
0.19
0.09
-0.035
-0.125
-0.025
0.015
0.04
0.105
0.14
0.285
0.275
0.13
-0.065
-0.13
-0.005
0.005
0.09
0.14
0.07
0.325
0.245
0.18
-0.01
-0.05
0.045
-0.015
0.075
0.165
0.225
0.365
0.26
0.155
-0.04
-0.05
0.075
0.05
0.11
0.2
0.225
0.38
0.28
0.17
-0.06
-0.01
0.025
0.18
0.085
0.17
0.23
0.295
0.23
0.155
-0.09
-0.03
0.07
0.075
0.145
0.11
0.205
0.3
0.225
0.125
-0.1
-0.01
0.045
0.09
0.11
0.15
0.3
0.345
0.19
0.15
-0.1
-0.01
0.05
0.105
0.14
0.15
0.255
0.315
0.195
0.11
-0.1
-0.005
0.04
0.055
0.15
0.14
0.245
0.305
0.235
0.045
-0.135
-0.03
0.04
0.095
0.14
0.2
0.345
0.305
0.15
0.04
-0.145
0.045
0.105
0.08
0.16
0.19
0.34
0.305
0.165
0.005
-0.105
0.055
0.06
0.07
0.145
0.17
0.33
0.295
0.185
0.03
-0.11
0.05
0.065
0.06
0.155
0.185
0.345
0.26
0.195
0.09
-0.09
0.07
0.06
0.085
0.145
0.22
0.355
0.34
0.22
0.02
-0.07
0.1
0.14
0.185
0.195
0.2
0.42
0.35
0.235
0.03
-0.025
0.125
0.135
0.235
0.25
0.33
0.52
0.415
0.265
0.095
0.05
0.27
0.165
0.235
0.335
0.34
0.475
0.37
0.34
0.11
0.1
0.215
0.205
0.205
0.205
0.32
0.455
0.34
0.245
0.04
0.02
0.11
0.105
0.15
0.23
0.26
0.38
0.34
0.19
-0.015
0.025
0.105
0.085
0.145
0.205
0.31
0.375
0.26
0.17
0.015
0.085
0.08
0.085
0.14
0.215
0.28
0.36
0.255
0.195
-0.115
-0.01
0.05
0.005
0.03
0.12
0.255
0.345
0.215
0.23
0.165
0.37
0.545
0.705
0.925
1.145
1.325
1.375
1.245
1.145
0.865
0.905
0.74
0.745
0.715
0.61
0.63
0.505
0.29
0.14
-0.04
0.06
0.06
-0.015
0.13
0.125
0.27
0.245
0.15
0.06
-0.11
0.005
0.05
0.125
0.235
0.225
0.335
0.395
0.23
0.1
-0.095
0.09
0.115
0.165
0.185
0.28
0.46
0.42
0.28
0.095
-0.035
0.135
0.175
0.215
0.265
0.275
0.385
0.41
0.275
0.105
-0.005
0.14
0.15
0.22
0.255
0.33
0.505
0.445
0.315
0.125
0.0
0.16
0.175
0.235
0.31
0.325
0.475
0.42
0.305
0.145
0.085
0.21
0.2
0.245
0.31
0.315
0.47
0.415
0.32
0.19
0.14
0.25
0.23
0.27
0.425
0.385
0.495
0.445
0.355
0.185
0.175
0.295
0.305
0.37
0.43
0.46
0.59
0.51
0.445
0.255
0.24
0.36
0.405
0.455
0.51
0.515
0.66
0.59
0.58
0.365
0.34
0.455
0.47
0.55
0.565
0.62
0.71
0.685
0.595
0.35
0.41
0.47
0.485
0.535
0.595
0.67
0.755
0.595
0.525
0.27
0.34
0.385
0.42
0.415
0.42
0.53
0.605
0.5
0.41
0.11
0.22
0.27
0.26
0.305
0.35
0.43
0.46
0.305
0.3
0.065
0.13
0.18
0.2
0.265
0.205
0.42
0.375
0.23
0.115
-0.025
0.08
0.09
0.125
0.225
0.255
0.345
0.35
0.22
0.135
-0.095
0.045
0.075
0.115
0.185
0.19
0.325
0.325
0.19
0.055
-0.11
0.05
0.09
0.06
0.125
0.205
0.345
0.32
0.215
0.055
-0.13
0.065
0.095
0.095
0.185
0.23
0.35
0.365
0.155
0.045
-0.125
0.05
0.08
0.14
0.165
0.155
0.305
0.345
0.205
0.04
-0.12
0.02
0.055
0.105
0.155
0.165
0.36
0.265
0.2
0.03
-0.05
0.02
0.01
0.125
0.215
0.22
0.39
0.29
0.14
-0.055
-0.105
0.02
0.025
0.105
0.14
0.165
0.31
0.295
0.185
-0.05
-0.07
0.015
-0.02
0.065
0.15
0.195
0.33
0.2
0.11
-0.12
-0.17
-0.03
-0.02
0.04
0.11
0.185
0.3
0.175
0.115
-0.145
-0.135
-0.05
-0.04
0.03
0.14
0.165
0.27
0.14
0.055
-0.155
-0.08
0.005
0.05
0.005
0.085
0.155
0.255
0.175
0.105
-0.145
-0.09
-0.035
-0.015
0.055
0.11
0.165
0.19
0.135
0.06
-0.19
-0.085
-0.045
-0.04
0.035
0.09
0.19
0.21
0.09
0.01
-0.22
-0.095
-0.045
-0.035
0.01
0.075
0.205
0.165
0.1
0.02
-0.16
-0.015
-0.065
-0.04
0.005
0.115
0.22
0.15
0.11
-0.045
-0.25
-0.09
-0.105
-0.055
0.025
0.12
0.295
0.22
0.07
-0.035
-0.19
-0.05
-0.005
-0.02
0.11
0.17
0.285
0.245
0.165
-0.02
-0.155
-0.01
0.015
0.035
0.1
0.13
0.275
0.24
0.1
-0.06
-0.195
-0.015
-0.055
-0.015
0.05
0.075
0.225
0.16
0.035
-0.12
-0.285
-0.135
-0.14
-0.09
-0.06
0.035
0.13
0.11
-0.01
-0.275
-0.33
-0.125
-0.115
-0.135
-0.1
-0.04
0.09
0.025
-0.11
-0.235
-0.365
-0.205
-0.19
-0.125
-0.07
0.01
0.115
-0.025
-0.17
-0.35
-0.38
-0.31
-0.285
-0.235
-0.195
-0.12
0.015
0.0
-0.03
-0.12
0.035
0.285
0.4
0.61
0.855
0.99
1.14
0.995
0.9
0.64
0.62
0.61
0.445
0.385
0.36
0.3
0.255
0.065
0.035
-0.285
-0.245
-0.225
-0.21
-0.19
-0.11
-0.075
0.005
-0.045
-0.2
-0.335
-0.175
-0.19
-0.16
-0.13
-0.055
0.045
0.11
-0.02
-0.085
-0.34
-0.24
-0.195
-0.2
-0.125
-0.085
0.065
0.1
-0.025
-0.16
-0.35
-0.195
-0.14
-0.19
-0.095
0.005
0.095
0.075
-0.04
-0.17
-0.38
-0.21
-0.145
-0.125
-0.04
0.015
0.115
0.105
-0.01
-0.17
-0.375
-0.18
-0.125
-0.14
-0.07
-0.01
0.11
0.095
-0.04
-0.145
-0.3
-0.165
-0.155
-0.12
-0.055
-0.01
0.095
0.045
-0.025
-0.175
-0.26
-0.135
-0.105
-0.075
0.005
0.01
0.165
0.12
-0.01
-0.15
-0.265
-0.155
-0.02
-0.035
0.035
0.105
0.245
0.21
0.065
-0.06
-0.205
-0.06
0.0
0.155
0.105
0.14
0.305
0.225
0.11
-0.035
-0.135
0.02
0.045
0.075
0.165
0.235
0.325
0.315
0.205
-0.02
-0.1
0.065
0.09
0.14
0.19
0.19
0.38
0.27
0.15
-0.025
-0.095
0.025
0.01
0.045
0.09
0.08
0.25
0.095
0.09
-0.155
-0.16
-0.07
-0.07
-0.055
-0.005
0.025
0.165
0.055
-0.025
-0.26
-0.265
-0.205
-0.135
-0.1
-0.025
0.055
0.11
-0.005
-0.03
-0.26
-0.25
-0.245
-0.16
-0.095
-0.04
0.05
0.085
0.0
-0.04
-0.295
-0.18
-0.175
-0.23
-0.135
-0.055
0.07
0.105
-0.05
-0.125
-0.35
-0.245
-0.205
-0.16
-0.07
-0.06
0.05
0.095
-0.045
-0.155
-0.355
-0.25
-0.245
-0.195
-0.12
-0.08
0.045
0.075
-0.075
-0.175
-0.355
-0.265
-0.255
-0.15
-0.115
-0.11
0.01
0.04
-0.055
-0.23
-0.28
-0.215
-0.27
-0.17
-0.12
-0.09
0.06
-0.005
-0.07
-0.22
-0.38
-0.21
-0.195
-0.18
-0.1
-0.08
0.065
0.045
-0.08
-0.265
-0.35
-0.22
-0.22
-0.22
-0.165
-0.08
0.08
0.035
-0.095
-0.23
-0.385
-0.175
-0.215
-0.16
-0.05
-0.06
0.12
0.075
-0.045
-0.245
-0.37
-0.21
-0.22
-0.13
-0.065
-0.03
0.155
0.035
-0.05
-0.225
-0.315
-0.16
-0.17
-0.085
-0.055
-0.035
0.115
0.025
-0.055
-0.26
-0.32
-0.17
-0.155
-0.15
-0.085
-0.035
0.145
0.065
-0.06
-0.27
-0.32
-0.265
-0.22
-0.125
-0.035
-0.07
0.035
0.03
-0.06
-0.3
-0.295
-0.21
-0.185
-0.145
0.0
0.02
0.085
-0.01
-0.07
-0.31
-0.28
-0.22
-0.19
-0.13
-0.06
0.0
0.09
-0.055
-0.135
-0.28
-0.23
-0.12
-0.145
-0.13
-0.03
0.03
0.08
-0.04
-0.125
-0.29
-0.225
-0.205
-0.18
-0.15
-0.05
0.035
0.1
0.01
-0.09
-0.355
-0.25
-0.2
-0.18
-0.105
-0.01
0.06
0.125
0.01
-0.1
-0.275
-0.18
-0.155
-0.1
-0.045
0.015
0.08
0.155
0.055
-0.04
-0.205
-0.08
-0.08
-0.02
0.075
0.07
0.215
0.165
0.015
-0.09
-0.26
-0.12
-0.085
-0.055
-0.01
0.04
0.165
0.115
0.005
-0.145
-0.275
-0.175
-0.11
-0.11
0.025
0.01
0.085
0.05
-0.035
-0.185
-0.335
-0.195
-0.19
-0.14
-0.13
-0.035
0.08
0.06
-0.055
-0.21
-0.325
-0.185
-0.22
-0.14
-0.075
-0.03
0.13
0.06
-0.04
-0.25
-0.375
-0.235
-0.255
-0.2
-0.14
-0.145
0.01
-0.055
-0.13
-0.285
-0.385
-0.135
-0.095
0.095
0.345
0.52
0.795
0.875
0.87
0.835
0.73
0.805
0.87
0.81
0.765
0.68
0.735
0.55
0.345
-0.025
-0.175
-0.11
-0.14
-0.125
-0.08
-0.105
0.045
-0.015
-0.14
-0.34
-0.32
-0.265
-0.25
-0.18
-0.085
-0.005
0.145
0.03
-0.065
-0.305
-0.26
-0.185
-0.155
-0.13
-0.04
0.0
0.11
0.025
-0.105
-0.33
-0.215
-0.17
-0.105
-0.07
-0.065
0.005
0.11
-0.01
-0.055
-0.32
-0.2
-0.125
-0.095
-0.115
-0.065
0.045
0.1
-0.015
-0.05
-0.295
-0.21
-0.18
-0.15
-0.035
-0.03
0.13
0.195
0.105
-0.055
-0.285
-0.1
-0.08
-0.08
0.0
0.065
0.16
0.195
0.075
-0.095
-0.265
-0.09
-0.055
-0.055
-0.005
0.095
0.2
0.2
0.085
-0.095
-0.26
-0.09
-0.1
-0.05
0.04
0.09
0.235
0.2
0.1
-0.015
-0.2
-0.025
-0.015
0.015
0.095
0.175
0.31
0.25
0.125
0.015
-0.16
