# TIPE ECG 2021 - ECG-ID Database v1.0.0 par Physionet
# [Numéro de la personne, Période d'échantillonnage, Prénom, Age, Sexe, Date de l'enregistrement]
[26, 0.002, Edith, 31, F, 12.05.2005]
-0.005
0.025
0.025
0.0
0.005
0.02
0.005
-0.02
-0.02
-0.01
-0.01
0.005
0.03
-0.005
-0.005
0.01
-0.02
-0.025
-0.01
-0.01
-0.015
-0.005
0.015
0.025
0.02
0.02
-0.01
-0.02
0.0
0.005
-0.01
0.03
0.04
0.025
0.025
0.025
0.005
0.025
0.02
0.01
0.0
0.04
0.03
0.015
0.02
0.005
-0.02
-0.01
-0.01
0.005
0.015
0.05
0.04
0.045
0.04
0.05
0.0
0.0
0.01
0.01
0.01
0.03
0.015
0.0
0.005
0.025
0.005
0.01
-0.005
0.02
0.015
0.025
0.02
0.025
0.015
0.03
-0.01
-0.01
0.005
0.005
0.015
0.04
0.035
0.025
0.0
0.015
0.005
0.005
0.005
-0.005
-0.01
0.01
-0.005
0.005
0.015
0.02
0.005
0.01
0.01
0.0
-0.005
0.03
0.035
0.025
0.02
0.03
0.02
0.025
0.01
0.015
0.03
0.05
-0.005
-0.02
-0.025
0.0
-0.015
0.005
-0.005
-0.015
0.005
0.025
0.03
0.015
0.01
0.005
0.0
0.005
0.01
0.005
0.03
0.06
0.045
0.045
0.065
0.07
0.065
0.06
0.06
0.035
0.075
0.11
0.08
0.07
0.06
0.055
0.065
0.07
0.085
0.085
0.095
0.115
0.105
0.115
0.12
0.065
0.045
0.055
0.055
0.045
0.08
0.07
0.05
0.045
0.07
0.055
0.035
0.01
0.0
-0.01
-0.005
0.015
0.03
0.02
0.015
-0.04
-0.01
-0.02
-0.025
-0.025
0.02
0.02
-0.025
-0.025
-0.015
-0.005
-0.005
0.005
0.0
-0.035
0.005
0.02
0.03
0.01
-0.005
-0.03
-0.01
-0.005
0.0
-0.025
0.005
0.0
-0.01
-0.005
-0.005
-0.015
0.035
0.045
0.11
0.165
0.27
0.4
0.5
0.55
0.61
0.615
0.68
0.73
0.715
0.62
0.56
0.49
0.41
0.3
0.145
0.025
-0.02
-0.04
-0.03
-0.035
0.005
0.015
-0.005
-0.005
0.015
-0.01
-0.005
-0.03
-0.02
0.0
0.005
-0.005
-0.005
-0.015
-0.005
-0.02
-0.01
-0.01
-0.025
-0.005
0.015
0.01
0.005
0.015
-0.005
-0.03
0.0
0.0
-0.025
0.005
0.02
-0.005
-0.015
0.0
0.035
0.0
0.0
0.01
-0.01
0.005
0.035
0.035
0.03
0.03
0.005
-0.02
0.01
0.015
0.0
0.025
0.05
0.025
0.025
0.035
0.01
0.005
-0.005
-0.01
-0.005
0.025
0.05
0.045
0.035
0.04
0.015
0.01
0.025
0.035
0.015
0.06
0.065
0.045
0.055
0.05
0.025
0.035
0.05
0.05
0.04
0.075
0.095
0.09
0.1
0.12
0.075
0.05
0.065
0.09
0.1
0.125
0.13
0.125
0.12
0.135
0.105
0.11
0.135
0.135
0.12
0.16
0.175
0.165
0.16
0.175
0.145
0.135
0.135
0.145
0.15
0.15
0.17
0.18
0.15
0.155
0.14
0.13
0.14
0.13
0.11
0.13
0.12
0.13
0.09
0.07
0.055
0.075
0.065
0.06
0.045
0.065
0.06
0.045
0.045
0.05
0.005
0.025
0.02
0.015
0.005
0.02
0.015
0.015
-0.005
0.015
-0.025
-0.005
-0.005
0.0
0.005
0.025
0.005
0.0
0.015
0.035
-0.005
0.0
-0.02
-0.03
-0.01
0.02
0.0
-0.01
-0.02
-0.01
-0.03
-0.015
-0.015
-0.02
-0.015
-0.005
-0.01
-0.01
-0.01
-0.005
-0.05
-0.045
-0.005
-0.005
0.005
0.02
0.005
-0.01
-0.005
-0.02
-0.035
-0.02
-0.015
-0.035
-0.005
0.015
-0.015
-0.01
0.005
-0.01
-0.03
-0.025
-0.02
-0.01
0.02
0.03
0.02
0.015
0.01
-0.01
-0.03
-0.025
0.005
0.0
0.01
0.025
0.005
-0.015
0.005
0.015
0.005
0.015
0.0
-0.005
0.03
0.025
-0.005
0.0
0.015
-0.01
-0.02
0.0
0.01
-0.02
0.02
0.02
0.005
0.005
0.005
-0.01
-0.005
-0.015
-0.005
-0.01
0.025
0.03
0.02
0.01
0.015
-0.04
-0.03
-0.015
0.0
-0.01
0.015
0.015
0.015
0.01
0.015
-0.025
-0.04
-0.02
0.005
-0.01
0.03
0.01
0.0
-0.01
0.015
-0.01
-0.02
-0.015
-0.01
-0.02
0.005
0.005
0.005
-0.025
-0.02
-0.045
-0.02
-0.015
-0.015
-0.025
0.005
0.015
0.01
0.01
0.01
-0.025
-0.02
-0.025
-0.01
-0.02
0.01
-0.01
-0.02
-0.005
0.01
-0.03
-0.01
-0.025
-0.03
-0.01
0.035
0.03
0.025
0.015
0.035
0.015
0.025
0.05
0.055
0.045
0.09
0.08
0.085
0.075
0.04
0.02
0.025
0.035
0.03
0.05
0.09
0.085
0.09
0.095
0.07
0.06
0.075
0.065
0.035
0.045
0.06
0.055
0.03
0.03
0.035
0.02
-0.005
-0.02
-0.03
-0.02
-0.01
-0.035
-0.035
-0.01
-0.03
-0.05
-0.045
-0.035
-0.045
-0.025
-0.02
-0.015
-0.01
-0.025
-0.03
-0.045
-0.035
-0.04
-0.055
-0.025
0.0
-0.02
-0.045
-0.03
-0.055
-0.04
-0.015
-0.025
-0.045
-0.025
-0.025
-0.05
-0.045
-0.03
-0.04
-0.02
0.025
0.075
0.125
0.23
0.32
0.4
0.47
0.575
0.605
0.665
0.71
0.73
0.63
0.565
0.485
0.395
0.305
0.16
-0.035
-0.07
-0.035
-0.055
-0.085
-0.025
-0.015
-0.01
-0.025
-0.015
-0.03
-0.015
-0.035
-0.035
-0.03
-0.005
-0.025
-0.04
-0.045
-0.035
-0.065
-0.055
-0.03
-0.035
-0.04
-0.015
-0.02
-0.03
-0.03
-0.01
-0.025
-0.025
-0.035
-0.035
-0.02
0.015
0.01
0.005
-0.015
-0.02
-0.04
-0.035
-0.025
-0.04
-0.055
-0.015
-0.01
-0.015
-0.015
0.0
-0.035
-0.02
-0.015
-0.03
-0.01
0.025
0.015
0.0
0.005
0.005
-0.01
-0.01
-0.015
-0.005
0.0
0.035
0.01
0.02
0.01
-0.005
-0.025
-0.01
0.01
0.005
0.015
0.05
0.055
0.05
0.055
0.055
0.015
0.03
0.01
0.0
0.035
0.075
0.06
0.065
0.065
0.025
0.035
0.075
0.06
0.065
0.11
0.12
0.08
0.105
0.13
0.125
0.1
0.115
0.115
0.105
0.135
0.145
0.135
0.16
0.16
0.135
0.125
0.135
0.145
0.135
0.15
0.17
0.15
0.15
0.145
0.12
0.115
0.135
0.105
0.08
0.11
0.115
0.105
0.11
0.1
0.08
0.05
0.045
0.045
0.04
0.06
0.065
0.055
0.025
0.025
0.02
-0.01
0.01
0.015
-0.005
0.03
0.03
0.02
-0.01
-0.015
-0.025
-0.02
-0.02
-0.04
-0.03
-0.01
-0.005
-0.025
-0.025
0.005
-0.005
-0.035
-0.05
-0.02
-0.035
-0.01
-0.01
-0.01
-0.025
-0.01
-0.025
-0.04
-0.04
-0.03
-0.03
-0.015
-0.03
-0.03
-0.045
-0.045
-0.035
-0.035
-0.03
-0.01
-0.03
-0.01
-0.005
-0.01
-0.03
-0.025
-0.05
-0.025
-0.015
-0.02
-0.025
0.02
0.01
-0.005
-0.01
-0.02
-0.045
-0.025
-0.025
-0.035
-0.02
0.015
-0.005
0.0
-0.015
-0.005
-0.025
-0.01
-0.01
0.005
0.005
0.025
-0.005
0.01
0.005
0.01
-0.02
-0.025
-0.015
-0.005
-0.015
0.0
0.0
0.01
0.0
-0.01
-0.02
-0.01
-0.005
0.0
0.01
0.045
0.01
-0.015
0.0
0.005
-0.015
0.0
-0.02
-0.025
-0.005
0.02
-0.01
0.0
0.015
-0.01
-0.035
-0.02
-0.035
-0.04
-0.005
0.02
-0.01
-0.01
0.005
-0.005
-0.02
0.0
0.005
-0.015
0.005
0.0
-0.015
-0.01
-0.015
-0.03
-0.025
-0.005
0.005
-0.03
-0.005
0.01
-0.025
-0.015
0.01
-0.03
-0.03
-0.03
-0.03
-0.035
-0.005
0.015
-0.005
-0.005
0.0
-0.025
-0.03
-0.01
-0.01
-0.025
-0.005
-0.005
0.005
-0.01
0.005
-0.015
-0.025
-0.015
-0.02
-0.01
0.06
0.07
0.06
0.06
0.085
0.07
0.065
0.045
0.03
0.025
0.09
0.075
0.065
0.035
0.05
0.035
0.045
0.055
0.08
0.095
0.105
0.095
0.065
0.045
0.07
0.05
0.035
0.015
0.015
0.045
0.07
0.05
0.025
-0.04
-0.02
-0.04
-0.04
-0.025
-0.03
-0.03
-0.005
-0.01
-0.015
-0.01
-0.015
-0.045
-0.05
-0.03
-0.025
-0.025
-0.01
0.0
-0.005
-0.03
-0.035
-0.065
-0.05
-0.04
-0.04
-0.02
0.005
-0.01
-0.005
-0.02
-0.02
-0.045
-0.04
-0.05
-0.045
-0.02
0.01
0.005
0.03
0.065
0.105
0.135
0.21
0.32
0.41
0.5
0.59
0.615
0.665
0.7
0.665
0.56
0.485
0.425
0.34
0.245
0.125
0.005
-0.025
-0.055
-0.09
-0.095
-0.06
-0.025
-0.04
-0.02
0.005
-0.015
-0.03
-0.015
-0.025
-0.025
-0.02
-0.025
-0.035
-0.005
0.005
-0.025
-0.03
-0.01
-0.035
-0.04
-0.04
-0.03
-0.035
0.01
0.02
0.0
0.005
-0.01
-0.035
-0.015
0.005
-0.01
0.01
0.01
-0.01
-0.02
-0.01
0.015
-0.005
-0.025
-0.02
-0.015
-0.01
0.01
0.02
0.01
0.0
0.0
-0.015
-0.01
-0.005
-0.005
0.0
0.015
0.015
0.03
0.025
0.015
-0.015
-0.015
-0.02
-0.015
0.01
0.04
0.02
0.03
0.02
0.025
0.035
0.04
0.02
0.03
0.035
0.075
0.06
0.045
0.025
0.03
0.0
0.03
0.07
0.07
0.08
0.11
0.09
0.09
0.085
0.09
0.065
0.09
0.095
0.09
0.115
0.16
0.15
0.14
0.12
0.13
0.12
0.145
0.145
0.12
0.12
0.16
0.15
0.155
0.145
0.16
0.13
0.14
0.14
0.135
0.145
0.155
0.135
0.12
0.11
0.135
0.11
0.11
0.1
0.1
0.09
0.12
0.105
0.08
0.06
0.085
0.05
0.03
0.02
0.005
0.035
0.055
0.035
0.03
0.01
-0.005
-0.01
0.01
-0.02
-0.04
-0.02
0.015
0.02
0.01
0.005
-0.025
-0.035
-0.025
-0.035
-0.045
0.0
0.005
-0.02
-0.01
-0.005
-0.03
-0.03
-0.025
-0.04
-0.05
-0.015
-0.015
-0.005
-0.005
-0.015
-0.07
-0.055
-0.03
-0.03
-0.045
-0.02
-0.01
-0.025
-0.02
-0.015
-0.045
-0.045
-0.04
-0.025
-0.03
-0.005
0.02
0.015
-0.015
0.0
-0.04
-0.04
-0.015
-0.035
-0.035
0.01
0.0
0.0
0.005
0.01
-0.04
-0.015
-0.005
-0.005
-0.015
0.02
0.02
0.005
0.0
0.015
-0.015
-0.005
0.005
0.01
0.015
0.04
0.03
0.015
-0.015
-0.01
-0.025
-0.005
0.0
-0.02
-0.02
0.025
0.02
0.015
0.0
0.005
-0.015
-0.02
-0.015
-0.01
-0.025
0.015
0.01
0.005
-0.015
-0.005
-0.015
-0.005
-0.005
-0.005
0.0
0.005
-0.01
0.0
-0.005
-0.005
-0.03
-0.04
-0.015
-0.015
-0.02
0.01
0.0
0.01
0.0
-0.01
-0.03
-0.015
-0.01
-0.025
0.005
0.025
0.0
0.0
-0.005
-0.03
-0.05
-0.035
-0.03
-0.03
-0.015
0.015
0.005
-0.01
-0.01
-0.005
-0.04
-0.035
0.0
0.0
-0.01
-0.01
-0.01
-0.015
0.0
-0.015
-0.015
-0.025
-0.025
-0.035
-0.005
0.005
-0.015
-0.02
-0.03
-0.03
-0.015
-0.01
-0.005
-0.025
0.01
0.03
0.0
-0.025
0.0
-0.015
-0.025
-0.015
-0.015
-0.02
0.005
0.01
-0.005
-0.01
0.02
0.01
0.015
0.02
0.04
0.025
0.05
0.065
0.055
0.07
0.07
0.04
0.03
0.05
0.07
0.045
0.02
0.04
0.045
0.05
0.085
0.06
0.055
0.05
0.06
0.055
0.08
0.075
0.05
0.03
0.025
0.015
0.035
0.065
0.075
0.025
-0.005
-0.01
-0.03
-0.04
-0.035
-0.06
-0.06
-0.06
-0.05
-0.045
-0.01
-0.01
-0.02
-0.02
-0.015
-0.045
-0.025
-0.02
-0.025
-0.03
-0.015
-0.02
-0.045
-0.005
-0.01
-0.04
-0.015
-0.03
-0.035
-0.01
-0.015
-0.03
-0.035
-0.05
-0.045
-0.065
-0.055
-0.045
0.0
0.025
0.085
0.145
0.21
0.3
0.405
0.465
0.565
0.615
0.65
0.69
0.735
0.68
0.575
0.5
0.405
0.295
0.16
0.025
-0.015
-0.015
-0.01
-0.04
-0.04
-0.015
-0.025
-0.045
-0.035
-0.045
-0.05
-0.03
0.01
0.0
-0.02
-0.02
-0.045
-0.035
-0.02
-0.04
-0.035
0.0
-0.005
-0.015
-0.005
-0.01
-0.015
-0.05
-0.055
-0.045
-0.045
-0.005
0.03
0.015
0.01
0.005
-0.03
-0.035
-0.03
-0.015
-0.03
-0.01
0.005
-0.01
-0.01
0.005
-0.02
-0.03
-0.015
0.005
-0.01
0.0
0.0
0.015
0.03
0.035
-0.01
-0.015
0.0
0.01
-0.01
0.01
0.03
0.025
0.025
0.025
-0.02
-0.03
-0.015
0.02
0.02
0.03
0.03
0.04
0.04
0.055
0.04
0.035
0.04
0.03
0.0
0.035
0.055
0.04
0.02
0.04
0.045
0.055
0.08
0.08
0.08
0.12
0.125
0.09
0.09
0.105
0.1
0.1
0.12
0.11
0.105
0.15
0.145
0.145
0.125
0.14
0.125
0.135
0.145
0.135
0.14
0.17
0.17
0.18
0.15
0.14
0.12
0.145
0.16
0.145
0.105
0.14
0.155
0.145
0.11
0.085
0.065
0.095
0.07
0.065
0.07
0.085
0.085
0.08
0.035
0.04
0.005
0.03
0.03
0.015
0.01
0.045
0.025
0.025
-0.005
0.0
-0.02
-0.025
-0.01
-0.005
-0.005
0.025
-0.005
0.005
0.005
-0.015
-0.03
-0.005
-0.015
-0.02
-0.01
0.015
0.005
0.005
0.005
-0.025
-0.035
-0.01
-0.015
-0.035
-0.015
0.005
-0.015
-0.015
-0.02
-0.035
-0.055
-0.035
-0.02
-0.015
-0.015
0.0
-0.035
-0.03
-0.005
-0.015
-0.02
-0.025
-0.03
-0.045
-0.01
0.01
0.005
-0.01
-0.015
-0.03
-0.035
-0.015
-0.02
-0.035
-0.005
-0.005
0.025
0.055
0.045
0.0
-0.005
-0.005
-0.005
-0.015
0.015
0.025
0.005
0.0
0.0
-0.025
-0.02
0.01
0.015
-0.005
0.015
0.03
0.015
0.01
0.015
-0.005
-0.015
-0.005
0.02
0.005
0.025
0.02
0.0
-0.005
0.02
-0.005
0.005
0.005
0.01
0.005
0.02
0.02
0.005
-0.01
0.01
-0.005
0.0
-0.005
-0.005
-0.005
0.015
0.02
0.015
0.005
0.005
-0.01
-0.005
-0.01
-0.005
-0.025
0.0
0.025
0.015
0.005
0.02
-0.01
0.005
0.015
0.02
0.02
0.03
0.015
-0.01
-0.01
0.02
-0.01
-0.01
-0.015
-0.015
-0.005
0.03
0.01
0.0
0.0
0.0
-0.01
-0.01
-0.01
-0.01
0.0
0.04
0.025
0.02
0.005
0.01
-0.02
-0.005
0.005
-0.015
0.005
0.03
0.015
0.01
0.005
-0.005
-0.01
0.01
0.01
0.0
0.01
0.02
0.0
0.005
0.015
0.005
-0.02
0.01
0.01
-0.015
0.03
0.06
0.035
0.03
0.045
0.035
0.045
0.09
0.065
0.07
0.1
0.11
0.095
0.075
0.055
0.055
0.055
0.065
0.055
0.045
0.095
0.105
0.1
0.09
0.115
0.11
0.08
0.075
0.07
0.05
0.07
0.095
0.09
0.08
0.065
0.035
0.035
0.02
0.005
-0.015
0.01
0.0
0.025
0.025
0.005
-0.025
-0.025
-0.005
-0.02
-0.015
0.02
0.02
0.015
0.005
0.005
-0.01
-0.005
-0.015
-0.015
-0.015
0.005
0.005
0.005
0.01
0.015
-0.005
-0.01
0.01
0.005
-0.02
0.005
-0.01
-0.005
-0.01
0.0
-0.01
0.02
0.06
0.135
0.205
0.31
0.39
0.455
0.535
0.605
0.63
0.68
0.73
0.725
0.68
0.625
0.535
0.44
0.325
0.19
0.055
0.015
0.005
-0.015
-0.05
0.01
0.04
0.025
0.02
0.03
0.005
0.015
-0.005
0.0
0.01
0.025
0.015
0.0
-0.02
-0.005
-0.02
-0.025
-0.005
0.005
0.01
0.03
0.03
0.025
0.005
-0.005
-0.025
0.01
0.04
0.025
0.04
0.06
0.045
0.02
0.015
-0.01
-0.035
-0.005
-0.005
-0.005
0.025
0.06
0.045
0.03
0.035
0.025
0.005
0.025
0.02
0.02
0.04
0.05
0.04
0.045
0.045
0.025
0.015
0.02
0.045
0.04
0.045
0.04
0.02
0.045
0.055
0.015
0.02
0.04
0.05
0.055
0.085
0.09
0.08
0.08
0.08
0.06
0.055
0.055
0.05
0.065
0.11
0.11
0.08
0.085
0.105
0.09
0.07
0.09
0.115
0.11
0.15
0.155
0.145
0.135
0.16
0.13
0.135
0.15
0.17
0.155
0.185
0.2
0.205
0.18
0.195
0.16
0.155
0.185
0.18
0.17
0.19
0.17
0.155
0.19
0.205
0.18
0.17
0.155
0.17
0.16
0.18
0.195
0.16
0.145
0.13
0.115
0.115
0.09
0.085
0.09
0.115
0.12
0.09
0.06
0.055
0.035
0.04
0.04
0.045
0.03
0.065
0.045
0.035
0.035
0.03
0.025
0.015
0.02
0.035
0.04
0.085
0.06
0.025
0.02
0.025
0.005
0.025
0.04
0.015
0.005
0.035
0.025
0.005
0.01
0.025
0.01
0.01
0.01
-0.01
0.0
0.05
0.04
0.045
0.03
0.01
-0.02
0.005
0.035
0.01
0.005
0.035
0.025
-0.005
0.015
0.015
0.005
0.025
0.015
0.025
0.04
0.025
0.005
-0.01
0.015
0.04
0.025
0.025
0.03
0.015
0.045
0.06
0.05
0.045
0.06
0.05
0.025
0.04
0.03
0.01
0.045
0.065
0.045
0.04
0.05
0.015
-0.005
0.02
0.04
0.02
0.045
0.075
0.05
0.05
0.06
0.04
0.03
0.04
0.035
0.02
0.055
0.075
0.065
0.05
0.05
0.035
0.02
0.03
0.035
0.045
0.07
0.065
0.055
0.03
0.055
0.025
0.03
0.03
0.035
0.02
0.035
0.05
0.05
0.04
0.055
0.025
0.02
0.04
0.045
0.05
0.075
0.08
0.06
0.02
0.02
0.01
0.005
-0.005
-0.01
0.015
0.075
0.07
0.05
0.03
0.035
0.01
0.01
0.015
0.04
0.02
0.03
0.05
0.045
0.015
0.025
0.02
0.045
0.03
0.025
0.045
0.06
0.06
0.055
0.05
0.04
0.015
0.03
0.015
-0.01
0.025
0.055
0.05
0.04
0.04
0.03
0.015
0.03
0.035
0.01
0.035
0.055
0.045
0.055
0.05
0.03
0.025
0.025
0.03
0.045
0.03
0.07
0.04
0.02
0.02
0.04
0.025
0.035
0.05
0.045
0.09
0.13
0.125
0.125
0.125
0.105
0.095
0.1
0.105
0.085
0.09
0.125
0.11
0.115
0.105
0.105
0.095
0.12
0.13
0.11
0.14
0.14
0.115
0.095
0.09
0.065
0.06
0.09
0.09
0.08
0.065
0.06
0.03
0.04
0.04
0.035
0.025
0.02
0.025
0.01
0.025
0.02
0.035
0.045
0.035
-0.005
-0.005
0.0
0.0
-0.005
0.01
0.03
0.035
0.04
0.04
0.01
0.01
0.035
0.03
0.025
0.045
0.045
0.045
0.02
0.01
-0.005
-0.02
-0.015
0.015
0.025
0.075
0.095
0.14
0.195
0.305
0.385
0.465
0.55
0.635
0.675
0.75
0.81
0.79
0.685
0.62
0.505
0.46
0.36
0.22
0.06
0.025
0.035
0.015
-0.01
0.015
0.015
0.015
0.01
-0.005
0.02
0.05
0.045
0.025
0.045
0.055
0.005
0.005
0.0
0.0
0.015
0.04
0.03
0.02
0.015
0.03
-0.005
0.025
0.025
0.035
0.025
0.03
0.015
0.015
0.01
0.065
0.045
0.04
0.055
0.03
0.005
0.015
0.025
0.015
0.045
0.075
0.06
0.04
0.04
0.04
0.02
0.03
0.045
0.045
0.06
0.06
0.055
0.055
0.03
0.025
0.04
0.055
0.05
0.045
0.075
0.09
0.075
0.065
0.065
0.05
0.05
0.075
0.085
0.07
0.075
0.11
0.1
0.075
0.08
0.065
0.075
0.11
0.095
0.075
0.13
0.14
0.135
0.13
0.145
0.13
0.135
0.16
0.135
0.15
0.2
0.195
0.18
0.175
0.185
0.175
0.185
0.2
0.17
0.17
0.2
0.22
0.205
0.185
0.2
0.19
0.19
0.19
0.2
0.175
0.185
0.185
0.18
0.16
0.17
0.15
0.155
0.145
0.12
0.09
0.13
0.145
0.14
0.125
0.13
0.11
0.085
0.065
0.06
0.055
0.085
0.065
0.05
0.04
0.05
0.035
0.035
0.04
0.045
0.03
0.07
0.065
0.05
0.04
0.03
0.02
0.035
0.02
0.005
0.01
0.045
0.04
0.03
0.035
0.035
0.01
0.025
0.02
0.01
0.015
0.045
0.03
0.035
0.03
0.005
-0.005
0.025
0.045
0.015
0.025
0.075
0.025
0.025
0.03
0.02
-0.025
0.0
0.01
0.01
0.01
0.04
0.03
0.035
0.02
0.01
0.005
0.025
0.025
0.045
0.055
0.065
0.04
0.03
0.015
0.02
-0.01
0.005
0.015
0.03
0.05
0.09
0.07
0.065
0.06
0.02
0.01
0.02
0.01
0.02
0.045
0.03
0.03
0.065
0.055
0.04
0.025
0.055
0.07
0.045
0.05
0.05
0.04
0.04
0.055
0.035
0.015
0.04
0.04
0.04
0.06
0.06
0.07
0.065
0.055
0.025
0.015
0.01
0.04
0.05
0.075
0.035
0.04
0.07
0.075
0.04
0.01
0.02
0.01
0.01
0.045
0.04
0.03
0.015
0.035
0.045
0.025
0.02
0.035
0.03
0.05
0.03
0.045
0.01
0.05
0.015
0.03
0.045
0.04
0.025
0.03
0.03
0.025
0.015
0.03
0.01
0.03
0.035
0.03
0.03
0.055
0.04
0.07
0.08
0.1
0.045
0.025
0.015
0.015
0.005
0.04
0.04
0.04
0.01
0.02
0.015
0.005
0.025
-0.005
-0.005
0.01
0.055
0.045
0.005
0.01
0.035
0.03
0.02
0.035
0.05
0.105
0.09
0.09
0.085
0.105
0.075
0.09
0.11
0.08
0.05
0.115
0.11
0.11
0.11
0.115
0.11
0.09
0.09
0.095
0.115
0.14
0.13
0.105
0.095
0.1
0.06
0.07
0.075
0.06
0.09
0.13
0.075
0.055
0.04
0.005
0.0
0.0
0.05
0.03
0.05
0.075
0.06
0.05
0.035
0.02
0.005
0.025
0.0
0.0
0.02
0.04
0.055
0.055
0.06
0.04
0.02
0.04
0.02
-0.005
0.025
0.045
0.03
0.015
0.015
0.01
0.01
0.015
0.01
-0.015
0.04
0.06
0.045
0.04
0.095
0.11
0.16
0.255
0.355
0.435
0.525
0.6
0.64
0.68
0.7
0.68
0.64
0.57
0.49
0.4
0.345
0.23
0.095
0.02
0.02
-0.025
-0.05
-0.035
-0.01
0.005
0.035
0.045
0.055
0.055
0.065
0.02
0.04
0.025
0.005
0.005
0.055
0.035
0.035
0.03
0.025
0.025
0.01
0.015
0.03
0.045
0.08
0.055
0.025
0.02
0.035
0.0
0.02
0.045
0.075
0.06
0.085
0.055
0.075
0.055
0.055
0.025
0.04
0.03
0.025
0.035
0.065
0.065
0.07
0.05
0.075
0.055
0.06
0.035
0.045
0.04
0.085
0.075
0.055
0.06
0.055
0.045
0.075
0.09
0.065
0.065
0.095
0.06
0.08
0.105
0.11
0.07
0.06
0.08
0.065
0.08
0.105
0.095
0.09
0.095
0.1
0.085
0.115
0.115
0.1
0.145
0.175
0.14
0.15
0.145
0.155
0.14
0.135
0.15
0.155
0.18
0.22
0.205
0.21
0.205
0.19
0.18
0.185
0.2
0.17
0.21
0.235
0.255
0.235
0.22
0.205
0.2
0.225
0.23
0.21
0.245
0.235
0.215
0.195
0.21
0.185
0.18
0.195
0.18
0.145
0.19
0.185
0.175
0.155
0.15
0.1
0.085
0.105
0.135
0.09
0.115
0.105
0.095
0.105
0.08
0.05
0.05
0.055
0.045
0.03
0.065
0.07
0.07
0.05
0.06
0.025
0.025
0.04
0.04
0.035
0.085
0.07
0.055
0.02
0.035
0.015
0.025
0.015
0.015
-0.005
0.02
0.06
0.065
0.04
0.03
0.02
0.03
0.04
0.015
0.015
0.055
0.05
0.04
0.02
0.03
0.01
0.035
0.03
0.015
0.015
0.05
0.03
0.055
0.05
0.03
0.04
0.05
0.04
0.04
0.04
0.08
0.07
0.065
0.055
0.06
0.04
0.05
0.055
0.045
0.065
0.09
0.08
0.075
0.065
0.065
0.025
0.025
0.075
0.065
0.06
0.09
0.08
0.065
0.07
0.06
0.045
0.06
0.05
0.04
0.07
0.11
0.08
0.065
0.08
0.075
0.055
0.06
0.065
0.04
0.075
0.115
0.08
0.055
0.07
0.05
0.005
0.015
0.05
0.05
0.06
0.09
0.065
0.045
0.06
0.06
0.05
0.055
0.04
0.03
0.065
0.075
0.065
0.065
0.06
0.045
0.035
0.05
0.06
0.05
0.075
0.08
0.055
0.04
0.05
0.045
0.045
0.035
0.04
0.035
0.065
0.075
0.06
0.07
0.075
0.05
0.045
0.035
0.04
0.02
0.06
0.07
0.065
0.065
0.065
0.025
0.03
0.03
0.03
0.025
0.075
0.075
0.07
0.06
0.06
0.035
0.045
0.04
0.04
0.035
0.045
0.055
0.055
0.07
0.08
0.025
0.04
0.05
0.055
0.065
0.1
0.105
0.105
0.09
0.105
0.09
0.105
0.115
0.095
0.105
0.145
0.145
0.12
0.095
0.1
0.085
0.115
0.135
0.125
0.12
0.15
0.145
0.14
0.135
0.15
0.095
0.1
0.125
0.105
0.1
0.13
0.12
0.11
0.105
0.1
0.045
0.03
0.015
0.005
0.03
0.055
0.035
0.05
0.075
0.065
0.02
0.03
0.03
0.045
0.05
0.07
0.05
0.05
0.045
0.03
0.01
0.025
0.045
0.03
0.045
0.07
0.045
0.04
0.045
0.04
0.015
0.04
0.05
0.045
0.04
0.05
0.03
0.02
0.02
0.06
0.075
0.13
0.215
0.285
0.375
0.47
0.535
0.62
0.69
0.7
0.73
0.765
0.745
0.655
0.59
0.495
0.405
0.32
0.165
0.075
0.02
0.03
0.005
0.0
0.06
0.07
0.065
0.06
0.065
0.035
0.02
0.04
0.04
0.02
0.05
0.055
0.04
0.025
0.03
0.01
0.015
0.035
0.03
0.015
0.045
0.065
0.055
0.04
0.04
0.015
0.01
0.035
0.04
0.045
0.08
0.065
0.05
0.06
0.065
0.045
0.055
0.045
0.04
0.02
0.05
0.06
0.05
0.04
0.055
0.045
0.055
0.045
0.03
0.045
0.09
0.08
0.075
0.085
0.085
0.065
0.045
0.04
0.045
0.065
0.075
0.075
0.08
0.07
0.07
0.055
0.07
0.07
0.07
0.075
0.085
0.075
0.085
0.095
0.1
0.08
0.08
0.11
0.11
0.1
0.135
0.135
0.115
0.11
0.11
0.105
0.13
0.14
0.135
0.12
0.16
0.16
0.18
0.165
0.175
0.145
0.175
0.195
0.185
0.205
0.225
0.225
0.205
0.195
0.195
0.18
0.2
0.205
0.205
0.2
0.185
0.195
0.205
0.205
0.19
0.175
0.195
0.18
0.17
0.18
0.2
0.175
0.15
0.145
0.14
0.135
0.135
0.11
0.105
0.135
0.135
0.105
0.095
0.09
0.08
0.055
0.045
0.075
0.085
0.065
0.075
0.085
0.085
0.09
0.03
0.01
0.04
0.015
0.01
0.055
0.065
0.055
0.06
0.06
0.025
0.02
0.035
0.055
0.045
0.065
0.08
0.065
0.055
0.055
0.035
0.035
0.025
0.03
0.02
0.05
0.06
0.05
0.055
0.06
0.015
0.01
0.01
0.02
0.015
0.045
0.065
0.04
0.045
0.055
0.03
0.055
0.07
0.06
0.045
0.065
0.055
0.045
0.035
0.03
0.015
0.015
0.03
0.04
0.035
0.065
0.065
0.04
0.045
0.05
0.025
0.035
0.06
0.055
0.05
0.085
0.07
0.065
0.065
0.06
0.015
0.025
0.045
0.065
0.06
0.08
0.075
0.075
0.075
0.09
0.055
0.06
0.04
0.045
0.045
0.085
0.08
0.075
0.065
0.065
0.04
0.05
0.045
0.04
0.06
0.09
0.085
0.075
0.045
0.065
0.05
0.05
0.04
0.07
0.095
0.085
0.06
0.065
0.06
0.05
0.035
0.06
0.065
0.045
0.06
0.075
0.06
0.065
0.07
0.065
0.035
0.05
0.05
0.035
0.045
0.09
0.085
0.045
0.06
0.055
0.025
0.04
0.055
0.04
0.065
0.06
0.055
0.065
0.07
0.05
0.04
0.055
0.05
0.045
0.07
0.095
0.08
0.07
0.075
0.035
0.05
0.06
0.065
0.045
0.085
0.08
0.035
0.05
0.045
0.035
0.04
0.05
0.045
0.02
0.04
0.07
0.085
0.075
0.07
0.045
0.04
0.055
0.07
0.055
0.07
0.085
0.07
0.065
0.08
0.035
0.04
0.065
0.065
0.075
0.115
0.14
0.14
0.13
0.145
0.115
0.11
0.125
0.125
0.12
0.155
0.165
0.13
0.125
0.13
0.13
0.13
0.135
0.14
0.145
0.19
0.17
0.125
0.105
0.11
0.085
0.085
0.09
0.1
0.095
0.125
0.115
0.08
0.05
0.05
0.04
0.03
0.035
0.03
0.03
0.07
0.06
0.045
0.03
0.05
0.05
0.035
0.045
0.035
0.04
0.065
0.05
0.055
0.055
0.05
0.03
0.035
0.03
0.03
0.035
0.08
0.065
0.055
0.065
0.06
0.015
0.025
0.03
0.01
0.03
0.07
0.09
0.1
0.12
0.15
0.2
0.305
0.41
0.48
0.585
0.695
0.725
0.785
0.84
0.81
0.72
0.61
0.515
0.435
0.37
0.255
0.135
0.08
0.04
0.015
0.01
0.03
0.03
0.035
0.06
0.07
0.065
0.06
0.06
0.0
0.0
0.015
0.04
0.04
0.05
0.06
0.04
0.045
0.045
0.02
0.015
0.03
0.035
0.025
0.035
0.045
0.04
0.045
0.045
0.03
0.03
0.035
0.04
0.04
0.075
0.09
0.055
0.055
0.065
0.03
0.015
0.015
0.03
0.035
0.075
0.08
0.06
0.06
0.055
0.035
0.045
0.045
0.055
0.05
0.075
0.07
0.07
0.065
0.075
0.065
0.055
0.045
0.06
0.05
0.085
0.085
0.06
0.06
0.08
0.055
0.06
0.07
0.085
0.075
0.1
0.115
0.1
0.085
0.085
0.09
0.105
0.1
0.08
0.095
0.145
0.145
0.14
0.12
0.135
0.12
0.11
0.14
0.15
0.155
0.2
0.2
0.185
0.17
0.195
0.195
0.19
0.19
0.18
0.17
0.205
0.21
0.235
0.23
0.205
0.165
0.19
0.195
0.195
0.21
0.235
0.215
0.2
0.195
0.2
0.17
0.185
0.175
0.155
0.155
0.17
0.155
0.17
0.145
0.13
0.105
0.125
0.12
0.095
0.1
0.115
0.09
0.08
0.08
0.07
0.04
0.05
0.04
0.05
0.08
0.105
0.05
0.035
0.065
0.06
0.035
0.04
0.04
0.025
0.045
0.07
0.06
0.045
0.035
0.02
0.02
0.03
0.02
0.035
0.08
0.07
0.065
0.075
0.06
0.025
0.02
0.045
0.05
0.035
0.055
0.065
0.03
0.035
0.01
0.0
0.02
0.02
0.04
0.02
0.05
0.055
0.055
0.035
0.02
0.02
0.04
0.04
0.035
0.03
0.035
0.04
0.035
0.02
0.025
0.015
0.025
0.035
0.04
0.04
0.06
0.055
0.045
0.04
0.04
0.025
0.04
0.05
0.04
0.04
0.07
0.06
0.06
0.045
0.04
0.015
0.03
0.065
0.055
0.055
0.07
0.075
0.06
0.05
0.065
0.035
0.045
0.06
0.055
0.05
0.095
0.07
0.05
0.045
0.04
0.03
0.04
0.045
0.05
0.05
0.05
0.05
0.06
0.05
0.055
0.045
0.04
0.02
0.045
0.045
0.07
0.05
0.035
0.035
0.06
0.045
0.05
0.065
0.065
0.055
0.07
0.055
0.045
0.03
0.03
0.02
0.04
0.05
0.035
0.045
0.08
0.075
0.05
0.06
0.04
0.0
0.03
0.065
0.055
0.05
0.05
0.035
0.04
0.045
0.025
0.02
0.04
0.05
0.04
0.04
0.06
0.055
0.045
0.05
0.05
0.04
0.025
0.025
0.02
0.06
0.085
0.075
0.045
0.045
0.04
0.01
0.015
0.05
0.02
0.04
0.09
0.09
0.07
0.06
0.04
0.025
0.035
0.045
0.04
0.065
0.085
0.06
0.055
0.04
0.035
0.04
0.04
0.045
0.005
0.05
0.08
0.06
0.05
0.06
0.03
0.045
0.075
0.075
0.065
0.1
0.11
0.12
0.125
0.1
0.115
0.105
0.125
0.11
0.11
0.145
0.125
0.115
0.105
0.11
0.08
0.1
0.135
0.14
0.135
0.165
0.145
0.135
0.13
0.135
0.1
0.11
0.095
0.09
0.07
0.105
0.105
0.07
0.035
0.04
0.02
0.025
0.03
0.03
0.03
0.06
0.055
0.055
0.05
0.055
0.03
0.02
0.02
0.03
0.03
0.065
0.05
0.03
0.03
0.045
0.03
0.035
0.02
0.005
0.02
0.08
0.06
0.04
0.03
0.045
0.025
0.035
0.025
0.025
0.02
0.045
0.025
0.04
0.075
0.11
0.175
0.24
0.325
0.435
0.53
0.64
0.705
0.725
0.77
0.795
0.745
0.67
0.605
0.54
0.455
0.375
0.215
0.095
0.06
0.035
-0.005
0.015
0.035
0.025
0.045
0.065
0.065
0.05
0.05
0.015
0.005
0.015
0.015
0.025
0.05
0.055
0.045
0.045
0.055
0.015
0.01
0.02
0.035
0.02
0.055
0.055
0.04
0.045
0.055
0.03
0.02
0.01
0.02
0.04
0.07
0.09
0.075
0.05
0.055
0.035
0.04
0.045
0.05
0.025
0.075
0.08
0.05
0.06
0.065
0.04
0.03
0.05
0.05
0.045
0.08
0.085
0.07
0.06
0.065
0.035
0.035
0.05
0.065
0.05
0.07
0.085
0.12
0.115
0.065
0.05
0.065
0.065
0.08
0.065
0.095
0.11
0.1
0.095
0.09
0.08
0.1
0.1
0.1
0.125
0.14
0.145
0.135
0.115
0.135
0.105
0.105
0.12
0.13
0.14
0.19
0.185
0.18
0.185
0.17
0.14
0.185
0.19
0.195
0.215
0.255
0.235
0.225
0.21
0.22
0.19
0.205
0.205
0.2
0.19
0.205
0.215
0.22
0.2
0.195
0.15
0.175
0.205
0.19
0.185
0.19
0.18
0.16
0.145
0.14
0.12
0.14
0.11
0.085
0.115
0.135
0.11
0.11
0.085
0.07
0.045
0.04
0.075
0.07
0.075
0.105
0.06
0.06
0.065
0.055
0.04
0.06
0.06
0.055
0.085
0.095
0.05
0.035
0.04
0.015
0.01
0.035
0.05
0.015
0.05
0.075
0.05
0.05
0.06
0.035
0.035
0.05
0.055
0.03
0.04
0.05
0.05
0.055
0.06
0.035
0.015
0.01
0.055
0.03
0.04
0.065
0.07
0.055
0.06
0.04
0.01
0.025
0.035
0.025
0.045
0.045
0.045
0.06
0.07
0.035
0.025
0.035
0.04
0.03
0.07
0.065
0.06
0.055
0.065
0.06
0.055
0.05
0.07
0.055
0.06
0.045
0.06
0.05
0.06
0.06
0.05
0.055
0.055
0.05
0.07
0.085
0.08
0.08
0.095
0.07
0.055
0.085
0.09
0.09
0.1
0.06
0.045
0.0
0.03
0.035
0.07
0.065
0.055
0.05
0.065
0.065
0.08
0.08
0.065
0.035
0.055
0.07
0.07
0.07
0.085
0.08
0.075
0.06
0.04
0.02
0.03
0.04
0.025
0.06
0.085
0.07
0.065
0.065
0.065
0.04
0.05
0.07
0.05
0.055
0.085
0.07
0.07
0.07
0.05
0.025
0.025
0.04
0.045
0.06
0.05
0.07
0.07
0.065
0.04
0.025
0.04
0.055
0.05
0.085
0.09
0.06
0.07
0.07
0.025
0.015
0.055
0.05
0.03
0.05
0.07
0.06
0.055
0.06
0.05
0.04
0.04
0.035
0.04
0.075
0.09
0.06
0.045
0.07
0.055
0.045
0.025
0.035
0.035
0.065
0.085
0.06
0.035
0.04
0.03
0.025
0.045
0.065
0.045
0.065
0.07
0.06
0.05
0.06
0.045
0.04
0.045
0.04
0.045
0.07
0.095
0.09
0.075
0.08
0.08
0.08
0.095
0.12
0.115
0.13
0.145
0.145
0.12
0.135
0.09
0.075
0.09
0.115
0.105
0.145
0.155
0.155
0.14
0.14
0.125
0.135
0.13
0.14
0.135
0.135
0.115
0.125
0.1
0.115
0.085
0.07
0.075
0.055
0.025
0.065
0.05
0.045
0.055
0.04
0.01
0.03
0.045
0.035
0.045
0.085
0.055
0.035
0.02
0.03
0.02
0.04
0.035
0.04
0.045
0.075
0.04
0.035
0.025
0.03
0.02
0.03
0.035
0.03
0.025
0.06
0.06
0.05
0.035
0.025
0.005
0.02
0.03
0.03
0.07
0.125
0.17
0.235
0.305
0.4
0.48
0.57
0.64
0.685
0.745
0.815
0.795
0.725
0.625
0.525
0.435
0.335
0.185
0.06
0.075
0.075
0.035
0.015
0.04
0.04
0.025
0.05
0.055
0.005
0.025
0.055
0.055
0.055
0.05
0.05
0.065
0.055
0.02
-0.015
0.03
0.05
0.045
0.045
0.045
0.025
0.015
0.025
0.03
-0.005
0.04
0.05
0.03
0.02
0.03
0.005
0.04
0.06
0.06
0.045
0.065
0.045
0.045
0.06
0.065
0.04
0.02
0.035
0.05
0.055
0.09
0.095
0.085
0.07
0.065
0.02
0.025
0.05
0.045
0.05
0.075
0.07
0.06
0.065
0.065
0.045
0.045
0.05
0.07
0.05
0.095
0.12
0.105
0.075
0.1
0.07
0.06
0.065
0.08
0.075
0.1
0.09
0.1
0.105
0.115
0.085
0.095
0.1
0.105
0.105
0.15
0.16
0.16
0.17
0.17
0.135
0.15
0.165
0.15
0.16
0.21
0.195
0.185
0.2
0.215
0.18
0.2
0.21
0.205
0.22
0.24
0.22
0.19
0.185
0.21
0.195
0.195
0.195
0.185
0.2
0.25
0.215
0.205
0.19
0.18
0.15
0.155
0.17
0.15
0.125
0.15
0.135
0.13
0.12
0.115
0.09
0.105
0.1
0.095
0.095
0.105
0.07
0.065
0.06
0.06
0.035
0.045
0.04
0.045
0.065
0.055
0.05
0.055
0.07
0.05
0.03
0.05
0.045
0.05
0.08
0.07
0.045
0.05
0.04
0.015
0.01
0.03
0.035
0.025
0.07
0.08
0.06
0.045
0.03
0.0
0.005
0.04
0.03
0.0
0.07
0.07
0.055
0.055
0.065
0.035
0.015
0.03
0.05
0.04
0.06
0.05
0.04
0.02
0.04
0.03
0.03
0.025
0.035
0.03
0.05
0.065
0.055
0.06
0.065
0.035
0.045
0.055
0.065
0.04
0.055
0.045
0.055
0.065
0.065
0.04
0.05
0.04
0.04
0.035
0.1
0.085
0.07
0.065
0.08
0.035
0.04
0.05
0.05
0.045
0.08
0.09
0.08
0.075
0.08
0.055
0.06
0.05
0.04
0.05
0.09
0.08
0.08
0.065
0.065
0.035
0.055
0.06
0.065
0.06
0.085
0.085
0.085
0.055
0.06
0.035
0.04
0.045
0.055
0.08
0.11
0.08
0.07
0.055
0.06
0.045
0.035
0.035
0.05
0.06
0.075
0.055
0.06
0.065
0.055
0.02
0.025
0.045
0.06
0.06
0.09
0.07
0.06
0.065
0.06
0.03
0.03
0.04
0.04
0.075
0.075
0.07
0.055
0.065
0.055
0.04
0.05
0.065
0.045
0.04
0.06
0.075
0.075
0.075
0.055
0.02
0.035
0.05
0.045
0.06
0.065
0.05
0.055
0.055
0.035
0.055
0.045
0.045
0.025
0.065
0.09
0.06
0.07
0.055
0.035
0.04
0.05
0.06
0.05
0.07
0.075
0.065
0.06
0.075
0.045
0.04
0.035
0.04
0.025
0.07
0.095
0.07
0.07
0.1
0.09
0.095
0.08
0.105
0.085
0.12
0.11
0.11
0.13
0.135
0.11
0.105
0.11
0.115
0.1
0.125
0.135
0.135
0.125
0.135
0.11
0.105
0.11
0.13
0.12
0.185
0.155
0.135
0.13
0.115
0.1
0.1
0.11
0.12
0.11
0.115
0.1
0.055
0.05
0.055
0.015
0.02
0.03
0.03
0.04
0.065
0.06
0.05
0.075
0.08
0.055
0.065
0.03
0.025
0.025
0.045
0.035
0.035
0.025
0.035
0.03
0.03
0.025
0.025
0.015
0.06
0.075
0.06
0.05
0.045
0.01
0.025
0.025
0.025
0.03
0.06
0.06
0.11
0.145
0.2
0.245
0.335
0.435
0.515
0.615
0.7
0.725
0.77
0.815
0.745
0.635
0.56
0.495
0.41
0.31
0.175
0.095
0.04
0.02
0.005
0.01
0.035
0.06
0.045
0.06
0.06
0.075
0.07
0.08
0.035
0.005
0.02
0.04
0.015
0.045
0.07
0.05
0.02
0.05
0.015
0.025
0.055
0.06
0.03
0.05
0.06
0.06
0.04
0.05
0.035
0.06
0.07
0.06
0.045
0.065
0.065
0.04
0.035
0.04
0.03
0.045
0.08
0.055
0.04
0.095
0.1
0.1
0.065
0.07
0.05
0.045
0.055
0.05
0.055
0.095
0.09
0.075
0.07
0.085
0.07
0.07
0.065
0.08
0.06
0.095
0.095
0.105
0.1
0.095
0.05
0.07
0.1
0.09
0.085
0.115
0.12
0.105
0.115
0.105
0.085
0.105
0.125
0.12
0.11
0.16
0.15
0.17
0.16
0.155
0.14
0.155
0.16
0.16
0.16
0.18
0.19
0.21
0.19
0.195
0.175
0.195
0.205
0.205
0.225
0.26
0.235
0.25
0.24
0.24
0.205
0.21
0.195
0.195
0.22
0.245
0.235
0.215
0.2
0.2
0.175
0.17
0.17
0.165
0.185
0.215
0.19
0.15
0.125
0.135
0.13
0.125
0.145
0.125
0.125
0.13
0.115
0.105
0.1
0.075
0.045
0.06
0.065
0.045
0.07
0.09
0.095
0.075
0.075
0.07
0.06
0.075
0.065
0.035
0.07
0.075
0.06
0.07
0.09
0.045
0.035
0.05
0.035
0.03
0.06
0.085
0.06
0.065
0.07
0.04
0.04
0.04
0.01
0.01
0.065
0.075
0.06
0.06
0.055
0.045
0.025
0.035
0.065
0.035
0.06
0.075
0.075
0.09
0.08
0.035
0.05
0.045
0.065
0.055
0.08
0.085
0.065
0.055
0.07
0.06
0.05
0.055
0.065
0.055
0.085
0.085
0.09
0.08
0.09
0.06
0.06
0.055
0.065
0.055
0.1
0.105
0.1
0.1
0.075
0.05
0.05
0.075
0.075
0.055
0.085
0.105
0.11
0.09
0.105
0.07
0.065
0.09
0.085
0.08
0.1
0.1
0.075
0.07
0.075
0.045
0.065
0.08
0.07
0.06
0.1
0.09
0.09
0.08
0.08
0.07
0.08
0.08
0.065
0.05
0.085
0.085
0.07
0.08
0.09
0.065
0.06
0.055
0.05
0.065
0.09
0.07
0.075
0.075
0.06
0.025
0.065
0.1
0.07
0.06
0.09
0.075
0.075
0.075
0.075
0.045
0.065
0.055
0.035
0.05
0.095
0.095
0.075
0.08
0.06
0.035
0.03
0.055
0.055
0.075
0.1
0.08
0.075
0.07
0.055
0.04
0.06
0.045
0.055
0.07
0.08
0.07
0.085
0.085
0.075
0.06
0.055
0.055
0.075
0.11
0.14
0.135
0.125
0.135
0.125
0.1
0.105
0.115
0.125
0.15
0.165
0.135
0.135
0.14
0.125
0.115
0.12
0.125
0.115
0.17
0.155
0.17
0.18
0.15
0.09
0.09
0.08
0.1
0.105
0.14
0.125
0.12
0.08
0.07
0.045
0.055
0.07
0.06
0.025
0.07
0.055
0.05
0.025
0.045
0.035
0.03
0.025
0.035
0.05
0.075
0.07
0.065
0.05
0.03
0.02
0.035
0.03
0.02
0.01
0.06
0.06
0.035
0.04
0.075
0.02
0.03
0.03
0.02
0.035
0.065
0.04
0.035
0.05
0.055
0.05
0.08
0.1
0.175
0.23
0.35
0.435
0.54
0.625
0.67
0.67
0.71
0.715
0.685
0.615
0.57
0.505
0.38
0.245
0.12
0.035
0.02
0.005
-0.035
-0.025
0.035
0.05
0.055
0.06
0.065
0.035
0.04
0.045
0.045
0.04
0.055
0.055
0.065
0.035
0.03
0.005
0.03
0.035
0.01
0.03
0.08
0.09
0.075
0.09
0.07
0.005
0.03
0.035
0.035
0.055
0.06
0.055
0.06
0.07
0.09
0.045
0.045
0.04
0.04
0.07
0.085
0.07
0.045
0.06
0.05
0.06
0.085
0.07
0.05
0.075
0.105
0.095
0.1
0.07
0.045
0.055
0.075
0.065
0.06
0.085
0.095
0.095
0.1
0.105
0.075
0.075
0.09
0.105
0.1
0.125
0.14
0.115
0.095
0.1
0.1
0.095
0.095
0.11
0.105
0.135
0.15
0.13
0.13
0.145
0.135
0.16
0.17
0.15
0.145
0.185
0.195
0.195
0.175
0.18
0.18
0.19
0.19
0.21
0.215
0.235
0.24
0.23
0.22
0.235
0.225
0.215
0.215
0.25
0.24
0.255
0.24
0.245
0.23
0.24
0.215
0.205
0.185
0.16
0.19
0.255
0.23
0.21
0.16
0.185
0.15
0.15
0.14
0.13
0.125
0.16
0.13
0.135
0.125
0.11
0.065
0.085
0.075
0.065
0.075
0.1
0.08
0.07
0.06
0.08
0.045
0.05
0.065
0.055
0.06
0.095
0.07
0.095
0.075
0.05
0.035
0.045
0.045
0.035
0.05
0.085
0.055
0.03
0.04
0.03
0.0
0.035
0.035
0.03
0.065
0.085
0.075
0.055
0.045
0.035
0.03
0.045
0.05
0.015
0.035
0.065
0.065
0.05
0.06
0.05
0.03
0.035
0.045
0.045
0.05
0.07
0.065
0.08
0.065
0.045
0.05
0.05
0.065
0.06
0.085
0.08
0.065
0.07
0.095
0.07
0.065
0.07
0.055
0.065
0.11
0.12
0.1
0.06
0.06
0.05
0.06
0.07
0.075
0.055
0.09
0.1
0.09
0.095
0.09
0.06
0.065
0.07
0.09
0.085
0.115
0.115
0.11
0.08
0.075
0.06
0.055
0.055
0.07
0.055
0.08
0.08
0.07
0.08
0.095
0.05
0.045
0.045
0.07
0.065
0.085
0.09
0.09
0.075
0.07
0.065
0.05
0.06
0.055
0.055
0.09
0.085
0.07
0.065
0.075
0.04
0.07
0.06
0.055
0.045
0.07
0.075
0.08
0.06
0.08
0.05
0.055
0.075
0.075
0.08
0.095
0.08
0.07
0.075
0.08
0.045
0.06
0.065
0.075
0.055
0.075
0.06
0.045
0.07
0.06
0.04
0.045
0.055
0.07
0.08
0.1
0.095
0.085
0.105
0.095
0.07
0.085
0.095
0.105
0.13
0.165
0.115
0.105
0.13
0.165
0.135
0.17
0.165
0.13
0.14
0.17
0.145
0.145
0.14
0.14
0.125
0.145
0.13
0.115
0.145
0.17
0.145
0.125
0.13
0.12
0.115
0.1
0.05
0.025
0.07
0.085
0.065
0.055
0.06
0.04
0.045
0.065
0.035
0.015
0.055
0.06
0.065
0.04
0.03
0.035
0.055
0.075
0.05
0.03
0.055
0.065
0.06
0.065
0.065
0.03
0.04
0.045
0.04
0.045
0.06
0.05
0.035
0.04
0.06
0.035
0.025
0.04
0.03
0.015
0.055
0.055
0.08
0.1
0.17
0.21
0.29
0.36
0.465
0.54
0.645
0.7
0.745
0.745
0.765
0.705
0.645
0.57
0.48
0.395
0.305
0.145
0.105
0.04
0.03
-0.01
0.01
0.045
0.065
0.065
0.09
0.07
0.065
0.05
0.06
0.04
0.04
0.045
0.055
0.04
0.07
0.1
0.065
0.015
0.045
0.05
0.045
0.05
0.06
0.04
0.06
0.055
0.065
0.065
0.065
0.065
0.07
0.065
0.075
0.075
0.095
0.08
0.07
0.06
0.08
0.055
0.07
0.085
0.065
0.075
0.105
0.08
0.085
0.055
0.055
0.06
0.075
0.075
0.055
0.075
0.095
0.095
0.09
0.095
0.08
0.065
0.07
0.095
0.09
0.115
0.12
0.105
0.11
0.1
0.085
0.075
0.07
0.085
0.075
0.125
0.13
0.115
0.11
0.12
0.11
0.12
0.115
0.12
0.12
0.165
0.195
0.18
0.16
0.19
0.17
0.14
0.145
0.17
0.17
0.215
0.21
0.21
0.21
0.215
0.2
0.19
0.205
0.215
0.23
0.27
0.27
0.25
0.21
0.225
0.22
0.205
0.225
0.225
0.21
0.24
0.24
0.215
0.205
0.225
0.22
0.22
0.215
0.19
0.15
0.2
0.2
0.195
0.16
0.165
0.12
0.125
0.13
0.12
0.09
0.125
0.135
0.125
0.115
0.135
0.085
0.07
0.075
0.05
0.07
0.1
0.09
0.065
0.075
0.095
0.06
0.06
0.08
0.08
0.085
0.115
0.08
0.075
0.065
0.065
0.05
0.045
0.05
0.055
0.045
0.07
0.065
0.065
0.05
0.065
0.045
0.06
0.065
0.07
0.05
0.075
0.06
0.06
0.05
0.06
0.04
0.04
0.045
0.06
0.04
0.06
0.06
0.085
0.08
0.075
0.05
0.055
0.055
0.04
0.04
0.08
0.06
0.08
0.09
0.065
0.065
0.075
0.065
0.05
0.085
0.115
0.1
0.085
0.08
0.075
0.055
0.055
0.06
0.055
0.08
0.1
0.105
0.1
0.095
0.055
0.045
0.07
0.09
0.07
0.085
0.105
0.095
0.095
0.095
0.08
0.09
0.105
0.075
0.05
0.085
0.1
0.105
0.09
0.095
0.055
0.075
0.08
0.08
0.065
0.08
0.105
0.1
0.09
0.075
0.055
0.06
0.065
0.065
0.055
0.12
0.125
0.1
0.085
0.085
0.06
0.065
0.07
0.08
0.065
0.095
0.09
0.08
0.07
0.08
0.065
0.065
0.07
0.065
0.055
0.085
0.08
0.06
0.065
0.07
0.055
0.065
0.07
0.075
0.06
0.09
0.085
0.07
0.065
0.08
0.06
0.065
0.06
0.065
0.055
0.075
0.1
0.1
0.085
0.11
0.12
0.105
0.065
0.025
0.005
0.07
0.09
0.08
0.07
0.085
0.055
0.05
0.06
0.1
0.095
0.12
0.125
0.115
0.1
0.105
0.1
0.115
0.11
0.125
0.135
0.17
0.17
0.165
0.165
0.16
0.14
0.16
0.175
0.14
0.16
0.15
0.155
0.17
0.16
0.165
0.11
0.125
0.135
0.135
0.135
0.175
0.18
0.13
0.07
0.035
0.02
0.015
0.03
0.045
0.075
0.08
0.06
0.085
0.08
0.065
0.055
0.06
0.05
0.045
0.055
0.08
0.07
0.065
0.055
0.07
0.045
0.06
0.07
0.06
0.08
0.08
0.045
0.05
0.06
0.05
0.04
0.05
0.06
0.025
0.045
0.055
0.035
0.045
0.075
0.075
0.045
0.055
0.055
0.06
0.085
0.11
0.15
0.23
0.31
0.39
0.48
0.575
0.645
0.705
0.79
0.835
0.835
0.795
0.695
0.595
0.525
0.435
0.315
0.16
0.115
0.075
0.07
0.07
0.08
0.08
0.075
0.05
0.06
0.035
0.05
0.055
0.045
0.06
0.075
0.04
0.04
0.035
0.06
0.06
0.075
0.075
0.065
0.05
0.06
0.045
0.065
0.07
0.065
0.055
0.08
0.085
0.075
0.06
0.075
0.045
0.065
0.065
0.055
0.05
0.105
0.11
0.105
0.09
0.095
0.05
0.045
0.05
0.07
0.08
0.115
0.095
0.07
0.065
0.075
0.06
0.085
0.09
0.09
0.09
0.11
0.09
0.095
0.095
0.105
0.09
0.085
0.085
0.095
0.095
0.125
0.115
0.12
0.12
0.115
0.09
0.085
0.085
0.085
0.11
0.145
0.13
0.13
0.13
0.115
0.11
0.135
0.145
0.13
0.155
0.175
0.16
0.16
0.18
0.175
0.175
0.195
0.185
0.17
0.205
0.24
0.235
0.195
0.21
0.205
0.185
0.215
0.245
0.23
0.25
0.28
0.24
0.24
0.255
0.235
0.23
0.235
0.225
0.21
0.215
0.225
0.22
0.23
0.245
0.21
0.18
0.185
0.185
0.17
0.175
0.18
0.18
0.17
0.16
0.12
0.11
0.12
0.12
0.125
0.16
0.145
0.105
0.085
0.09
0.08
0.095
0.11
0.085
0.055
0.1
0.09
0.075
0.08
0.095
0.075
0.065
0.08
0.065
0.045
0.07
0.085
0.08
0.07
0.095
0.05
0.055
0.05
0.055
0.055
0.095
0.105
0.085
0.06
0.065
0.04
0.065
0.07
0.06
0.05
0.085
0.09
0.075
0.075
0.075
0.035
0.05
0.06
0.05
0.04
0.065
0.05
0.045
0.065
0.08
0.045
0.08
0.065
0.055
0.05
0.08
0.075
0.05
0.05
0.08
0.05
0.06
0.06
0.06
0.065
0.09
0.09
0.075
0.07
0.07
0.05
0.055
0.065
0.07
0.095
0.105
0.1
0.095
0.09
0.07
0.045
0.075
0.07
0.05
0.075
0.115
0.095
0.08
0.085
0.07
0.045
0.075
0.085
0.065
0.085
0.095
0.085
0.085
0.09
0.075
0.055
0.045
0.035
0.06
0.1
0.125
0.11
0.095
0.09
0.075
0.06
0.065
0.06
0.055
0.085
0.1
0.07
0.085
0.095
0.055
0.04
0.055
0.075
0.06
0.085
0.08
0.085
0.09
0.115
0.105
0.07
0.055
0.05
0.01
0.075
0.08
0.08
0.08
0.075
0.05
0.04
0.055
0.085
0.055
0.105
0.07
0.06
0.04
0.075
0.065
0.075
0.075
0.08
0.055
0.075
0.075
0.085
0.07
0.085
0.065
0.055
0.05
0.055
0.065
0.105
0.115
0.06
0.03
0.05
0.04
0.055
0.065
0.065
0.06
0.11
0.11
0.1
0.075
0.11
0.085
0.095
0.1
0.1
0.12
0.18
0.195
0.175
0.165
0.175
0.14
0.15
0.135
0.12
0.13
0.16
0.165
0.16
0.15
0.16
0.14
0.14
0.11
0.11
0.115
0.13
0.135
0.11
0.085
0.08
0.045
0.055
0.065
0.065
0.075
0.085
0.05
0.035
0.045
0.045
0.01
0.04
0.045
0.04
0.045
0.085
0.075
0.065
0.055
0.05
0.005
0.03
0.04
0.035
0.045
0.06
0.05
0.065
0.06
0.055
0.05
0.03
0.035
0.025
0.05
0.07
0.055
0.04
0.03
0.055
0.04
0.05
0.04
0.05
0.065
0.07
0.12
0.115
0.175
0.25
0.325
0.44
0.53
0.59
0.69
0.765
0.795
0.83
0.84
0.735
0.62
0.545
0.465
0.35
0.22
0.135
0.065
0.035
0.035
0.03
0.035
0.05
0.065
0.055
0.085
0.055
0.05
0.05
0.06
0.03
0.045
0.065
0.065
0.035
0.06
0.055
0.05
0.04
0.045
0.035
0.04
0.025
0.04
0.035
0.07
0.07
0.065
0.055
0.07
0.065
0.03
0.025
0.035
0.025
0.05
0.045
0.06
0.06
0.045
0.04
0.07
0.075
0.06
0.05
0.085
0.08
0.06
0.045
0.07
0.045
0.055
0.04
0.05
0.065
0.105
0.095
0.07
0.07
0.07
0.05
0.065
0.085
0.075
0.07
0.12
0.11
0.09
0.05
0.06
0.04
0.055
0.06
0.07
0.075
0.105
0.105
0.095
0.11
0.125
0.095
0.11
0.12
0.12
0.115
0.14
0.15
0.15
0.13
0.145
0.115
0.135
0.155
0.135
0.16
0.18
0.16
0.18
0.22
0.205
0.175
0.205
0.225
0.2
0.2
0.24
0.22
0.22
0.22
0.2
0.2
0.22
0.215
0.195
0.22
0.24
0.22
0.215
0.2
0.185
0.16
0.175
0.185
0.18
0.175
0.16
0.135
0.15
0.14
0.11
0.11
0.115
0.115
0.095
0.115
0.115
0.105
0.08
0.085
0.065
0.06
0.055
0.065
0.065
0.085
0.085
0.06
0.06
0.08
0.04
0.04
0.05
0.05
0.045
0.055
0.075
0.06
0.055
0.055
0.035
0.045
0.03
0.03
0.04
0.085
0.075
0.03
0.02
0.02
0.015
0.02
0.02
0.025
0.035
0.075
0.06
0.045
0.03
0.025
0.005
0.04
0.035
0.035
0.01
0.045
0.055
0.025
0.025
0.03
0.03
0.035
0.035
0.03
0.02
0.035
0.05
0.04
0.06
0.06
0.035
0.04
0.055
0.04
0.03
0.055
0.06
0.055
0.04
0.05
0.03
0.045
0.05
0.045
0.035
0.075
0.06
0.055
0.06
0.05
0.045
0.055
0.05
0.045
0.05
0.09
0.075
0.05
0.06
0.07
0.045
0.04
0.04
0.045
0.07
0.11
0.07
0.045
0.055
0.05
0.02
0.035
0.045
0.025
0.035
0.085
0.09
0.065
0.065
0.05
0.015
0.04
0.055
0.03
0.065
0.08
0.075
0.06
0.065
0.055
0.03
0.045
0.045
0.025
0.04
0.07
0.055
0.05
0.055
0.025
0.005
-0.01
0.045
0.075
0.08
0.095
0.065
0.065
0.075
0.04
0.04
0.04
0.065
0.045
0.055
0.035
0.025
0.03
0.055
0.045
0.03
0.04
0.045
0.025
0.055
0.07
0.035
0.035
0.055
0.025
0.02
0.035
0.045
0.03
0.07
0.075
0.05
0.04
0.04
0.005
0.02
0.035
0.04
0.01
0.04
0.075
0.075
0.065
0.08
0.045
0.035
0.07
0.07
0.08
0.1
0.085
0.07
0.08
0.105
0.08
0.1
0.11
0.13
0.115
0.155
0.165
0.165
0.145
0.135
0.105
0.135
0.105
0.09
0.105
0.15
0.145
0.12
0.11
0.085
0.085
0.09
0.1
0.09
0.065
0.085
0.085
0.035
0.015
0.025
-0.01
0.02
0.015
0.035
0.035
0.065
0.045
0.04
0.035
0.025
0.005
0.015
0.015
0.0
0.02
0.045
0.035
0.03
0.035
0.02
0.01
0.03
0.03
-0.02
0.015
0.075
0.04
0.015
0.03
0.02
-0.02
0.0
0.035
0.015
0.035
0.045
0.04
0.035
0.005
0.0
-0.005
0.02
0.055
0.07
0.105
0.215
0.285
0.395
0.48
0.55
0.625
0.685
0.74
0.78
0.805
0.755
0.665
0.575
0.49
0.365
0.23
0.1
0.045
0.03
0.05
0.04
0.04
0.055
0.05
0.03
0.01
0.005
0.015
-0.01
0.01
0.04
0.045
0.02
0.015
0.015
0.015
0.01
0.015
0.01
0.035
0.03
0.005
0.02
0.05
0.025
0.015
0.01
0.025
0.035
0.07
0.065
0.06
0.025
0.025
0.005
0.015
0.03
0.035
0.025
0.05
0.065
0.06
0.06
0.07
0.03
0.035
0.04
0.035
0.045
0.045
0.035
0.05
0.05
0.04
0.025
0.045
0.055
0.06
0.06
0.09
0.09
0.07
0.06
0.06
0.03
0.06
0.07
0.055
0.06
0.09
0.075
0.08
0.035
0.075
0.06
0.08
0.075
0.085
0.1
0.13
0.1
0.1
0.11
0.12
0.09
0.11
0.125
0.11
0.105
0.125
0.14
0.125
0.13
0.135
0.13
0.18
0.18
0.165
0.16
0.18
0.19
0.21
0.195
0.195
0.18
0.2
0.205
0.195
0.21
0.23
0.22
0.2
0.195
0.19
0.165
0.18
0.19
0.175
0.205
0.235
0.215
0.195
0.165
0.16
0.15
0.14
0.14
0.125
0.115
0.145
0.1
0.075
0.12
0.09
0.05
0.065
0.08
0.085
0.095
0.1
0.085
0.085
0.045
0.04
0.025
0.04
0.02
0.02
0.05
0.04
0.025
0.035
0.055
0.035
0.025
0.03
0.03
0.005
0.02
0.035
0.03
0.04
0.06
0.025
0.025
0.025
0.02
0.02
0.045
0.045
0.04
0.035
0.02
0.0
0.02
0.025
0.03
-0.02
-0.01
0.05
0.05
0.025
0.045
0.015
0.01
0.015
0.0
0.02
0.06
0.06
0.045
0.015
0.045
0.015
0.03
0.03
0.02
0.0
0.025
0.05
0.07
0.075
0.09
0.025
0.025
0.06
0.065
0.04
0.06
0.075
0.08
0.055
0.05
0.005
0.04
0.03
0.035
0.03
0.075
0.075
0.07
0.075
0.075
0.045
0.025
0.045
0.04
0.05
0.08
0.075
0.045
0.035
0.045
0.04
0.05
0.045
0.045
0.05
0.075
0.06
0.075
0.075
0.06
0.04
0.05
0.045
0.045
0.06
0.07
0.04
0.055
0.07
0.07
0.035
0.025
0.04
0.035
0.04
0.07
0.06
0.065
0.055
0.03
0.02
0.04
0.04
0.015
0.04
0.08
0.045
0.045
0.045
0.03
0.025
0.03
0.035
0.03
0.055
0.06
0.06
0.065
0.065
0.05
0.04
0.025
0.035
0.025
0.05
0.065
0.035
0.035
0.06
0.065
0.04
0.045
0.02
0.01
0.055
0.05
0.02
0.05
0.065
0.03
0.025
0.025
0.015
0.02
0.05
0.065
0.04
0.045
0.035
0.005
0.025
0.035
0.05
0.04
0.065
0.095
0.065
0.05
0.055
0.025
0.04
0.05
0.075
0.07
0.105
0.11
0.11
0.105
0.125
0.115
0.105
0.115
0.125
0.14
0.18
0.165
0.15
0.13
0.115
0.095
0.105
0.085
0.09
0.095
0.11
0.12
0.135
0.11
0.095
0.055
0.075
0.06
0.02
0.015
0.04
0.05
0.055
0.055
0.04
0.025
0.04
0.045
0.03
0.02
0.04
0.04
0.025
0.005
0.02
0.005
0.01
0.035
0.025
0.02
0.06
0.055
0.05
0.02
0.025
0.015
0.015
0.005
-0.01
0.0
0.045
0.045
0.025
0.03
0.03
0.005
0.0
0.03
0.03
0.03
0.045
0.01
0.015
0.01
0.035
0.055
0.08
0.135
0.235
0.325
0.415
0.485
0.56
0.615
0.655
0.695
0.735
0.72
0.625
0.565
0.52
0.415
0.315
0.19
0.08
0.015
0.005
-0.02
-0.035
-0.015
0.035
0.04
0.04
0.04
0.03
0.015
0.02
0.015
0.005
0.015
0.02
0.06
0.05
0.035
0.01
-0.005
0.015
0.035
0.0
0.04
0.05
0.045
0.04
0.055
0.035
0.04
0.025
0.02
0.015
0.045
0.055
0.06
0.045
0.055
0.035
0.02
0.04
0.025
0.015
0.065
0.065
0.06
0.03
0.03
0.03
0.04
0.05
0.045
0.05
0.06
0.085
0.045
0.035
0.055
0.045
0.045
0.055
0.055
0.05
0.08
0.075
0.08
0.065
0.07
0.03
0.03
0.055
0.07
0.065
0.085
0.09
0.085
0.065
0.08
0.07
0.09
0.08
0.11
0.115
0.13
0.125
0.115
0.105
0.125
0.11
0.11
0.12
0.125
0.125
0.14
0.135
0.16
0.165
0.17
0.17
0.195
0.19
0.175
0.165
0.2
0.205
0.195
0.175
0.195
0.185
0.195
0.205
0.2
0.2
0.22
0.22
0.215
0.2
0.19
0.165
0.18
0.175
0.185
0.19
0.2
0.195
0.18
0.18
0.17
0.125
0.09
0.085
0.1
0.11
0.14
0.105
0.085
0.07
0.07
0.055
0.045
0.06
0.05
0.05
0.075
0.065
0.06
0.04
0.03
0.02
0.035
0.035
0.025
0.04
0.065
0.05
0.03
0.02
0.01
0.005
0.0
0.005
-0.025
0.05
0.08
0.075
0.04
0.045
0.015
0.005
0.015
0.005
-0.015
0.01
0.02
0.015
0.025
0.035
-0.005
-0.01
0.015
0.015
0.02
0.045
0.03
0.02
0.02
0.035
0.02
0.01
0.02
0.015
0.0
0.045
0.04
0.035
0.025
0.02
-0.005
0.01
0.035
0.045
0.015
0.015
0.055
0.08
0.075
0.06
0.035
0.03
0.03
0.015
0.03
0.055
0.055
0.05
0.055
0.07
0.02
0.04
0.06
0.055
0.05
0.035
0.055
0.065
0.05
0.04
0.04
0.035
0.04
0.03
0.025
0.06
0.07
0.065
0.06
0.045
0.025
0.035
0.07
0.025
0.015
0.05
0.045
0.045
0.04
0.045
0.015
0.01
0.015
0.05
0.075
0.065
0.045
0.04
0.025
0.02
0.005
0.01
0.025
0.015
0.03
0.07
0.05
0.05
0.03
0.025
0.025
0.03
0.01
0.01
0.02
0.055
0.045
0.045
0.025
0.025
0.0
0.02
0.03
0.025
0.045
0.045
0.03
0.035
0.025
0.02
0.005
0.025
0.04
0.03
0.03
0.05
0.045
0.045
0.03
0.01
-0.025
0.01
0.035
0.01
0.03
0.05
0.045
0.035
0.03
0.015
0.005
0.035
0.04
0.03
0.045
0.055
0.035
0.015
0.035
0.035
0.015
0.045
0.04
0.035
0.07
0.085
0.075
0.075
0.08
0.07
0.08
0.09
0.085
0.11
0.135
0.14
0.105
0.11
0.12
0.095
0.065
0.095
0.13
0.085
0.12
0.115
0.11
0.105
0.09
0.065
0.075
0.085
0.075
0.055
0.07
0.045
0.025
0.025
0.015
0.0
0.005
0.015
0.015
0.015
0.025
0.025
0.01
0.0
0.02
-0.01
-0.015
-0.025
-0.005
0.0
0.045
0.03
0.01
0.01
0.02
-0.01
-0.01
-0.015
-0.005
0.005
0.025
0.005
0.01
0.035
0.04
-0.005
0.005
0.01
0.005
0.005
0.02
0.005
-0.005
-0.02
0.005
-0.015
0.015
0.04
0.065
0.1
0.22
0.255
0.34
0.435
0.51
0.55
0.61
0.665
0.695
0.725
0.71
0.615
0.51
0.44
0.365
0.235
0.115
0.05
0.005
0.0
0.015
0.015
0.03
0.03
0.02
-0.02
-0.015
-0.015
-0.02
0.0
0.015
0.005
0.065
0.05
0.025
0.005
0.005
-0.005
-0.01
0.005
0.045
0.03
0.025
0.02
0.01
0.0
0.015
0.015
-0.01
0.01
0.06
0.045
0.04
0.04
0.03
0.005
0.005
0.01
0.01
0.035
0.05
0.035
0.03
0.025
0.01
0.0
0.03
0.02
0.01
0.06
0.06
0.045
0.03
0.035
0.015
0.01
0.025
0.035
0.015
0.065
0.07
0.055
0.055
0.065
0.035
0.03
0.03
0.04
0.02
0.065
0.08
0.08
0.07
0.065
0.035
0.05
0.07
0.085
0.07
0.085
0.085
0.085
0.09
0.1
0.095
0.09
0.12
0.12
0.1
0.11
0.125
0.125
0.105
0.13
0.135
0.12
0.12
0.14
0.15
0.185
0.19
0.2
0.19
0.195
0.175
0.17
0.15
0.16
0.17
0.195
0.2
0.18
0.165
0.185
0.16
0.175
0.195
0.18
0.175
0.19
0.18
0.17
0.13
0.145
0.125
0.125
0.115
0.095
0.12
0.135
0.12
0.11
0.07
0.075
0.045
0.04
0.05
0.035
0.04
0.075
0.06
0.045
0.04
0.05
0.0
0.01
0.01
0.005
0.015
0.05
0.035
0.02
0.015
0.025
-0.005
0.0
-0.005
0.005
0.025
0.035
0.025
0.035
0.025
0.015
0.0
0.015
0.025
0.01
0.0
0.02
0.015
-0.005
-0.01
-0.02
-0.035
-0.005
-0.025
-0.035
0.02
0.04
0.015
0.01
0.0
0.005
0.005
0.025
0.035
0.0
0.02
0.03
0.02
0.01
0.0
-0.015
-0.035
-0.015
-0.01
-0.02
0.005
0.04
0.04
0.02
0.03
0.0
0.0
0.02
0.015
0.015
0.05
0.05
0.075
0.025
0.02
0.005
0.015
0.015
0.015
0.0
0.04
0.05
0.035
0.045
0.06
0.025
0.01
0.005
0.015
0.02
0.035
0.035
0.045
0.05
0.05
0.015
0.02
0.045
0.03
0.03
0.06
0.045
0.02
0.02
0.04
0.02
0.03
0.035
0.035
0.025
0.03
0.03
0.03
0.035
0.045
0.025
0.03
0.03
0.015
0.025
0.04
0.03
0.035
0.035
0.035
0.01
0.025
0.035
0.03
0.01
0.04
0.035
0.055
0.055
0.05
0.005
0.015
0.01
-0.005
0.015
0.06
0.045
0.035
0.01
-0.02
-0.015
0.04
0.065
0.035
0.025
0.06
0.05
0.05
0.025
0.03
0.02
0.04
0.03
0.02
0.025
0.045
0.03
0.035
0.04
0.045
0.02
0.04
0.045
0.03
0.025
0.05
0.055
0.04
0.035
0.025
0.005
0.045
0.055
0.025
0.01
0.05
0.05
0.03
0.035
0.025
0.0
0.035
0.025
0.03
0.065
0.08
0.065
0.04
-0.005
-0.02
0.02
0.035
0.035
0.05
0.08
0.075
0.07
0.065
0.075
0.06
0.055
0.08
0.075
0.05
0.09
0.105
0.09
0.09
0.125
0.12
0.12
0.13
0.12
0.095
0.145
0.165
0.155
0.16
0.175
0.105
0.08
0.085
0.105
0.09
0.12
0.14
0.105
0.07
0.085
0.06
0.045
0.045
0.02
0.01
0.04
0.06
0.04
0.03
0.03
0.015
0.015
0.03
0.025
0.04
0.075
0.07
0.05
0.015
0.025
0.01
0.01
0.02
0.02
0.01
0.04
0.035
0.035
0.03
0.05
0.025
0.02
0.035
0.025
0.02
0.055
0.03
0.04
0.02
0.015
0.0
0.01
-0.005
-0.005
-0.005
0.035
0.035
0.04
0.035
0.09
0.09
0.14
0.195
0.28
0.365
0.46
0.555
0.625
0.695
0.74
0.755
0.77
0.735
0.645
0.56
0.51
0.405
0.285
0.135
0.085
0.04
0.02
0.005
0.025
0.065
0.08
0.055
0.03
0.04
0.02
0.0
0.025
0.04
0.03
0.02
0.045
0.04
0.025
0.025
0.025
0.005
0.035
0.04
0.025
0.03
0.075
0.045
0.025
0.045
0.035
0.005
0.01
0.03
0.035
0.055
0.07
0.04
0.025
0.055
0.03
0.025
0.03
0.05
0.065
0.065
0.075
0.06
0.055
0.07
0.03
0.025
0.03
0.05
0.055
0.08
0.085
0.07
0.045
0.05
0.025
0.02
0.045
0.055
0.035
0.07
0.09
0.08
0.065
0.06
0.045
0.055
0.065
0.07
0.065
0.1
0.085
0.08
0.075
0.08
0.07
0.085
0.095
0.1
0.085
0.11
0.14
0.14
0.12
0.135
0.09
0.075
0.1
0.125
0.14
0.16
0.17
0.17
0.165
0.175
0.15
0.155
0.18
0.165
0.17
0.2
0.195
0.18
0.19
0.22
0.185
0.175
0.195
0.175
0.175
0.24
0.225
0.21
0.205
0.21
0.185
0.2
0.17
0.16
0.17
0.195
0.19
0.185
0.165
0.165
0.13
0.115
0.1
0.115
0.115
0.135
0.115
0.095
0.09
0.085
0.07
0.095
0.09
0.08
0.07
0.09
0.07
0.065
0.065
0.055
0.015
0.03
0.055
0.055
0.055
0.08
0.06
0.06
0.05
0.055
0.04
0.04
0.04
0.03
0.035
0.065
0.055
0.045
0.05
0.04
0.025
0.025
0.035
0.035
0.035
0.06
0.045
0.055
0.065
0.035
0.025
0.035
0.035
0.02
0.055
0.08
0.08
0.045
0.035
0.025
0.01
0.04
0.03
0.02
0.055
0.07
0.05
0.055
0.06
0.03
0.03
0.03
0.015
0.01
0.07
0.08
0.065
0.055
0.075
0.06
0.045
0.035
0.02
0.02
0.045
0.05
0.04
0.04
0.06
0.05
0.04
0.06
0.065
0.055
0.07
0.075
0.055
0.05
0.035
0.04
0.065
0.06
0.065
0.06
0.09
0.06
0.06
0.045
0.06
0.05
0.06
0.075
0.085
0.05
0.05
0.06
0.07
0.045
0.065
0.055
0.055
0.04
0.045
0.045
0.075
0.06
0.05
0.055
0.06
0.055
0.065
0.05
0.025
0.035
0.06
0.065
0.07
0.06
0.055
0.04
0.055
0.045
0.04
0.05
0.09
0.075
0.055
0.05
0.06
0.04
0.055
0.045
0.015
0.005
0.05
0.055
0.045
0.045
0.035
0.01
0.045
0.045
0.035
0.055
0.09
0.075
0.075
0.06
0.04
0.0
0.05
0.045
0.015
0.03
0.065
0.05
0.06
0.045
0.03
0.02
0.025
0.05
0.05
0.065
0.08
0.075
0.07
0.055
0.03
0.02
0.04
0.045
0.035
0.06
0.07
0.08
0.07
0.05
0.025
0.005
0.01
0.04
0.035
0.055
0.065
0.065
0.06
0.07
0.05
0.04
0.07
0.07
0.06
0.085
0.09
0.09
0.09
0.105
0.09
0.08
0.095
0.12
0.12
0.155
0.15
0.145
0.145
0.165
0.145
0.11
0.105
0.13
0.115
0.115
0.145
0.135
0.125
0.13
0.125
0.145
0.12
0.115
0.06
0.05
0.04
0.045
0.04
0.05
0.015
0.025
0.035
0.035
0.02
0.05
0.065
0.05
0.045
0.06
0.035
0.04
0.035
0.03
0.025
0.05
0.055
0.05
0.025
0.05
0.015
0.0
0.02
0.03
0.03
0.07
0.05
0.05
0.045
0.045
0.015
0.02
0.02
0.015
0.05
0.04
0.045
0.04
0.02
0.015
-0.025
0.005
0.045
0.09
0.12
0.18
0.22
0.31
0.41
0.51
0.585
0.66
0.69
0.69
0.745
0.815
0.76
0.665
0.57
0.48
0.38
0.27
0.13
0.055
0.025
0.05
0.065
0.065
0.075
0.065
0.03
0.035
0.025
0.045
0.055
0.035
0.02
-0.005
0.015
0.065
0.045
0.03
0.015
0.0
0.03
0.055
0.045
0.045
0.07
0.05
0.005
0.025
0.04
0.035
0.06
0.08
0.05
0.01
0.025
0.015
0.01
0.06
0.075
0.045
0.045
0.055
0.045
0.065
0.085
0.055
0.015
0.055
0.075
0.04
0.055
0.055
0.05
0.065
0.07
0.035
0.03
0.02
0.03
0.035
0.1
0.11
0.095
0.06
0.075
0.075
0.05
0.045
0.075
0.065
0.08
0.09
0.085
0.08
0.07
0.045
0.055
0.08
0.09
0.08
0.12
0.145
0.14
0.16
0.15
0.09
0.06
0.085
0.105
0.105
0.145
0.155
0.155
0.155
0.175
0.17
0.165
0.16
0.16
0.15
0.175
0.2
0.24
0.225
0.2
0.195
0.215
0.22
0.22
0.195
0.22
0.225
0.23
0.225
0.215
0.19
0.22
0.22
0.21
0.18
0.22
0.22
0.23
0.225
0.235
0.205
0.185
0.175
0.135
0.15
0.185
0.185
0.185
0.15
0.13
0.135
0.145
0.12
0.11
0.13
0.145
0.115
0.09
0.09
0.095
0.07
0.085
0.09
0.1
0.11
0.15
0.125
0.09
0.095
0.095
0.07
0.09
0.105
0.095
0.075
0.07
0.08
0.095
0.095
0.11
0.095
0.105
0.075
0.04
0.085
0.105
0.1
0.095
0.1
0.11
0.08
0.095
0.08
0.075
0.1
0.105
0.115
0.13
0.135
0.065
0.04
0.04
0.03
0.045
0.09
0.125
0.11
0.11
0.11
0.075
0.065
0.08
0.065
0.085
0.125
0.125
0.11
0.11
0.08
0.045
0.045
0.06
0.095
0.085
0.12
0.12
0.115
0.135
0.145
0.075
0.055
0.08
0.095
0.065
0.09
0.115
0.105
0.095
0.095
0.095
0.125
0.115
0.09
0.065
0.1
0.105
0.11
0.105
0.125
0.09
0.09
0.095
0.085
0.08
0.11
0.105
0.12
0.085
0.1
0.085
0.11
0.12
0.12
0.095
0.11
0.125
0.125
0.11
0.115
0.065
0.05
0.085
0.085
0.08
0.095
0.11
0.11
0.115
0.145
0.08
0.075
0.09
0.075
0.07
0.095
0.09
0.085
0.085
0.08
0.085
0.12
0.105
0.095
0.08
0.105
0.115
0.11
0.075
0.07
0.05
0.11
0.105
0.12
0.1
0.11
0.105
0.085
0.07
0.065
0.055
0.075
0.07
0.065
0.085
0.14
0.115
0.095
0.09
0.11
0.075
0.095
0.07
0.075
0.105
0.13
0.11
0.085
0.085
0.08
0.055
0.085
0.09
0.07
0.08
0.09
0.09
0.07
0.065
0.09
0.075
0.135
0.13
0.08
0.11
0.14
0.105
0.105
0.125
0.105
0.095
0.095
0.1
0.085
0.09
0.14
0.155
0.15
0.18
0.155
0.155
0.19
0.2
0.18
0.185
0.2
0.17
0.17
0.185
0.155
0.14
0.16
0.14
0.145
0.185
0.18
0.165
0.16
0.155
0.12
0.095
0.09
0.075
0.05
0.085
0.1
0.12
0.11
0.085
0.055
0.075
0.08
0.09
0.075
0.09
0.09
0.075
0.08
0.085
0.05
0.045
0.05
0.065
0.05
0.095
0.1
0.095
0.09
0.095
0.075
0.08
0.065
0.06
0.06
0.085
0.08
0.09
0.06
0.075
0.075
0.085
0.075
0.075
0.06
0.095
0.08
0.085
0.105
0.14
0.115
0.195
0.285
0.355
0.42
0.54
0.62
0.665
0.695
0.725
0.715
0.685
0.61
0.54
0.475
0.425
0.31
0.15
0.1
0.075
0.055
0.035
0.05
0.07
0.07
0.085
0.095
0.095
0.08
0.08
0.06
0.085
0.08
0.05
0.075
0.12
0.1
0.07
0.075
0.07
0.055
0.065
0.085
0.06
0.06
0.1
0.095
0.09
0.08
0.08
0.065
0.085
0.105
0.05
0.06
0.085
0.1
0.075
0.07
0.07
0.05
0.05
0.055
0.04
0.075
0.09
0.08
0.105
0.11
0.095
0.075
0.09
0.08
0.065
0.085
0.115
0.09
0.075
0.085
0.055
0.06
0.085
0.065
0.05
0.11
0.115
0.1
0.085
0.08
0.07
0.085
0.09
0.11
0.105
0.12
0.13
0.115
0.13
0.155
0.145
0.125
0.135
0.095
0.065
0.11
0.135
0.14
0.15
0.155
0.14
0.14
0.13
0.17
0.2
0.22
0.19
0.205
0.205
0.215
0.2
0.2
0.195
0.205
0.21
0.245
0.255
0.245
0.23
0.24
0.195
0.2
0.21
0.23
0.24
0.28
0.28
0.26
0.24
0.245
0.205
0.22
0.215
0.225
0.2
0.22
0.22
0.195
0.19
0.195
0.155
0.155
0.145
0.145
0.135
0.15
0.145
0.15
0.115
0.11
0.1
0.105
0.09
0.095
0.095
0.11
0.09
0.085
0.08
0.08
0.055
0.075
0.085
0.065
0.065
0.105
0.095
0.065
0.075
0.085
0.08
0.075
0.055
0.035
0.05
0.09
0.085
0.06
0.065
0.09
0.075
0.095
0.07
0.035
0.055
0.08
0.06
0.08
0.08
0.065
0.045
0.055
0.05
0.035
0.055
0.085
0.06
0.045
0.065
0.07
0.055
0.075
0.08
0.06
0.07
0.11
0.095
0.09
0.08
0.07
0.05
0.07
0.085
0.07
0.1
0.105
0.085
0.1
0.1
0.07
0.075
0.1
0.1
0.095
0.135
0.14
0.105
0.09
0.085
0.08
0.095
0.1
0.115
0.11
0.115
0.1
0.095
0.095
0.1
0.09
0.085
0.09
0.095
0.075
0.105
0.11
0.1
0.1
0.095
0.08
0.095
0.105
0.105
0.075
0.095
0.095
0.09
0.09
0.1
0.075
0.085
0.085
0.08
0.065
0.09
0.105
0.09
0.08
0.09
0.065
0.055
0.07
0.08
0.08
0.115
0.105
0.08
0.08
0.075
0.075
0.075
0.075
0.065
0.07
0.1
0.095
0.1
0.095
0.09
0.06
0.065
0.07
0.095
0.09
0.105
0.1
0.07
0.07
0.09
0.055
0.065
0.08
0.085
0.085
0.1
0.07
0.075
0.065
0.09
0.075
0.055
0.065
0.07
0.065
0.085
0.08
0.075
0.07
0.075
0.06
0.08
0.085
0.095
0.105
0.135
0.115
0.105
0.1
0.11
0.075
0.095
0.11
0.105
0.125
0.16
0.145
0.165
0.17
0.19
0.175
0.16
0.155
0.15
0.175
0.19
0.175
0.155
0.17
0.15
0.11
0.125
0.145
0.13
0.14
0.15
0.13
0.095
0.095
0.085
0.065
0.035
0.05
0.04
0.075
0.09
0.07
0.055
0.09
0.055
0.05
0.065
0.08
0.08
0.105
0.095
0.065
0.065
0.065
0.04
0.015
0.035
0.04
0.035
0.085
0.085
0.075
0.075
0.095
0.06
0.05
0.05
0.045
0.065
0.1
0.1
0.08
0.07
0.085
0.06
0.035
0.045
0.04
0.03
0.085
0.145
0.18
0.215
0.29
0.335
0.45
0.52
0.63
0.69
0.76
0.805
0.855
0.84
0.765
0.655
0.585
0.525
0.395
0.27
0.19
0.135
0.08
0.08
0.085
0.065
0.075
0.095
0.075
0.07
0.1
0.09
0.105
0.11
0.105
0.07
0.07
0.08
0.065
0.075
0.095
0.085
0.085
0.075
0.08
0.075
0.085
0.095
0.085
0.09
0.115
0.085
0.11
0.115
0.11
0.075
0.09
0.09
0.085
0.12
0.125
0.11
0.12
0.095
0.105
0.07
0.09
0.1
0.08
0.085
0.13
0.125
0.105
0.095
0.115
0.1
0.115
0.09
0.085
0.09
0.145
0.125
0.125
0.115
0.115
0.09
0.09
0.095
0.09
0.115
0.14
0.115
0.12
0.12
0.11
0.08
0.12
0.13
0.1
0.14
0.17
0.15
0.155
0.16
0.15
0.155
0.155
0.15
0.105
0.13
0.17
0.16
0.175
0.17
0.145
0.165
0.205
0.205
0.2
0.205
0.22
0.22
0.205
0.22
0.2
0.195
0.22
0.21
0.23
0.25
0.28
0.275
0.265
0.27
0.25
0.24
0.24
0.235
0.215
0.255
0.26
0.235
0.205
0.23
0.23
0.195
0.195
0.18
0.2
0.23
0.22
0.215
0.205
0.205
0.165
0.145
0.13
0.125
0.105
0.13
0.125
0.115
0.075
0.11
0.07
0.08
0.11
0.1
0.09
0.11
0.115
0.11
0.085
0.07
0.05
0.07
0.07
0.08
0.075
0.095
0.085
0.075
0.075
0.085
0.055
0.085
0.09
0.065
0.06
0.085
0.085
0.075
0.065
0.065
0.03
0.055
0.075
0.07
0.065
0.08
0.08
0.075
0.07
0.07
0.04
0.05
0.06
0.05
0.055
0.085
0.09
0.095
0.07
0.06
0.045
0.075
0.065
0.045
0.07
0.085
0.085
0.055
0.065
0.06
0.05
0.07
0.085
0.065
0.07
0.105
0.09
0.075
0.055
0.075
0.055
0.05
0.05
0.08
0.085
0.085
0.085
0.085
0.085
0.065
0.05
0.075
0.08
0.05
0.1
0.12
0.105
0.105
0.08
0.06
0.055
0.05
0.065
0.06
0.09
0.095
0.1
0.075
0.07
0.065
0.05
0.1
0.08
0.05
0.1
0.095
0.075
0.09
0.08
0.065
0.05
0.045
0.055
0.04
0.08
0.065
0.07
0.1
0.105
0.065
0.065
0.085
0.075
0.05
0.075
0.08
0.075
0.06
0.065
0.055
0.045
0.055
0.05
0.035
0.085
0.085
0.06
0.055
0.08
0.04
0.04
0.065
0.06
0.06
0.085
0.08
0.055
0.055
0.05
0.02
0.04
0.03
0.035
0.055
0.075
0.07
0.075
0.055
0.055
0.035
0.04
0.035
0.04
0.055
0.105
0.115
0.08
0.07
0.09
0.055
0.065
0.07
0.08
0.085
0.105
0.12
0.11
0.11
0.12
0.11
0.12
0.15
0.15
0.155
0.185
0.165
0.18
0.17
0.155
0.12
0.115
0.13
0.11
0.1
0.15
0.15
0.135
0.125
0.09
0.04
0.025
0.025
0.025
0.045
0.075
0.045
0.03
0.04
0.05
0.025
0.035
0.045
0.03
0.055
0.09
0.08
0.065
0.05
0.01
-0.01
0.01
0.025
0.015
0.02
0.065
0.05
0.03
0.035
0.03
0.01
0.03
0.05
0.03
0.035
0.05
0.055
0.05
0.06
0.03
0.03
0.02
0.015
0.025
0.04
0.025
0.01
0.045
0.1
0.095
0.13
0.225
0.325
0.405
0.535
0.64
0.69
0.735
0.78
0.8
0.8
0.735
0.66
0.59
0.49
0.4
0.25
0.105
0.05
0.005
-0.005
0.005
0.03
0.03
0.06
0.06
0.055
0.05
0.05
0.04
0.015
0.025
0.03
0.025
0.045
0.02
0.015
0.04
0.05
0.03
0.03
0.055
0.05
0.05
0.065
0.06
0.045
0.035
0.04
0.02
0.035
0.035
0.045
0.035
0.06
0.06
0.055
0.045
0.06
0.04
0.035
0.045
0.045
0.065
0.06
0.06
0.04
0.04
0.055
0.04
0.05
0.045
0.04
0.04
0.075
0.07
0.07
0.085
0.09
0.075
0.085
0.08
0.06
0.075
0.06
0.05
0.045
0.04
0.065
0.04
0.075
0.08
0.07
0.08
0.12
0.095
0.105
0.1
0.095
0.06
0.1
0.105
0.105
0.13
0.16
0.14
0.135
0.13
0.125
0.1
0.125
0.14
0.13
0.145
0.155
0.18
0.195
0.2
0.19
0.175
0.175
0.2
0.205
0.23
0.27
0.23
0.205
0.2
0.205
0.195
0.195
0.205
0.205
0.225
0.26
0.245
