# TIPE ECG 2021 - ECG-ID Database v1.0.0 par Physionet
# [N° de la personne, N° de l'enregistrement, Période d'échantillonnage, Prénom, Age, Sexe, Date de l'enregistrement]
[72, 6, 0.002, "Thibaut", 39, "H", "12.05.2005"]
0.175
0.165
0.13
0.125
0.145
0.135
0.165
0.165
0.155
0.17
0.165
0.17
0.145
0.19
0.165
0.135
0.135
0.155
0.17
0.145
0.135
0.12
0.155
0.14
0.13
0.135
0.14
0.13
0.18
0.14
0.125
0.11
0.14
0.14
0.145
0.145
0.12
0.12
0.135
0.15
0.13
0.13
0.135
0.14
0.135
0.14
0.14
0.12
0.095
0.13
0.085
0.115
0.155
0.155
0.155
0.115
0.125
0.15
0.155
0.155
0.13
0.17
0.2
0.145
0.17
0.17
0.19
0.18
0.135
0.17
0.15
0.185
0.2
0.215
0.185
0.215
0.18
0.18
0.195
0.175
0.195
0.2
0.185
0.135
0.135
0.195
0.2
0.185
0.17
0.16
0.2
0.215
0.205
0.24
0.205
0.18
0.155
0.145
0.145
0.135
0.12
0.145
0.13
0.14
0.115
0.11
0.105
0.085
0.06
0.09
0.125
0.12
0.125
0.125
0.1
0.115
0.085
0.09
0.13
0.12
0.08
0.12
0.11
0.145
0.145
0.115
0.105
0.1
0.095
0.14
0.145
0.14
0.17
0.18
0.22
0.3
0.38
0.43
0.495
0.59
0.675
0.79
0.83
0.855
0.875
0.895
0.835
0.82
0.725
0.565
0.38
0.33
0.165
0.02
-0.04
-0.145
-0.215
-0.17
-0.18
-0.14
-0.04
-0.025
-0.02
0.015
0.045
0.045
0.055
0.08
0.09
0.065
0.085
0.105
0.1
0.065
0.105
0.135
0.075
0.095
0.085
0.07
0.105
0.155
0.125
0.095
0.095
0.08
0.11
0.115
0.11
0.13
0.14
0.14
0.135
0.135
0.165
0.165
0.15
0.14
0.16
0.155
0.175
0.185
0.205
0.16
0.175
0.195
0.14
0.145
0.22
0.14
0.145
0.19
0.245
0.24
0.205
0.18
0.22
0.23
0.21
0.235
0.265
0.27
0.285
0.27
0.285
0.315
0.305
0.305
0.315
0.315
0.325
0.345
0.355
0.385
0.385
0.405
0.395
0.415
0.415
0.455
0.43
0.455
0.44
0.465
0.5
0.515
0.48
0.5
0.48
0.48
0.51
0.495
0.485
0.48
0.5
0.475
0.475
0.475
0.47
0.49
0.51
0.43
0.47
0.45
0.43
0.41
0.405
0.425
0.4
0.375
0.35
0.34
0.345
0.315
0.29
0.285
0.27
0.28
0.245
0.265
0.275
0.255
0.225
0.23
0.195
0.18
0.2
0.215
0.205
0.18
0.17
0.155
0.175
0.16
0.16
0.13
0.19
0.175
0.14
0.13
0.17
0.145
0.145
0.16
0.155
0.115
0.14
0.115
0.105
0.145
0.135
0.115
0.105
0.155
0.165
0.14
0.125
0.145
0.14
0.125
0.135
0.14
0.115
0.135
0.135
0.135
0.11
0.095
0.14
0.125
0.095
0.115
0.095
0.11
0.09
0.095
0.08
0.065
0.095
0.11
0.105
0.085
0.075
0.12
0.085
0.095
0.125
0.085
0.085
0.09
0.08
0.09
0.05
0.035
0.055
0.065
0.08
0.085
0.08
0.09
0.03
0.06
0.09
0.09
0.05
0.06
0.065
0.08
0.075
0.065
0.05
0.06
0.07
0.09
0.085
0.045
0.055
0.085
0.035
0.025
0.05
0.045
0.06
0.03
0.045
0.065
0.06
0.02
0.035
0.015
0.005
0.03
0.09
0.075
0.075
0.085
0.065
0.09
0.1
0.105
0.115
0.095
0.095
0.1
0.055
0.08
0.095
0.075
0.08
0.115
0.155
0.1
0.115
0.18
0.115
0.13
0.135
0.11
0.115
0.1
0.12
0.095
0.095
0.07
0.105
0.13
0.165
0.12
0.15
0.13
0.155
0.13
0.13
0.13
0.115
0.105
0.095
0.05
0.04
0.055
0.08
0.06
0.09
0.065
0.005
0.06
0.055
0.06
0.06
0.035
0.025
0.03
0.015
0.045
0.06
0.075
0.07
0.065
0.03
0.035
0.02
0.035
0.03
0.035
0.05
0.07
0.07
0.075
0.09
0.05
0.07
0.11
0.16
0.225
0.28
0.405
0.46
0.545
0.615
0.75
0.815
0.875
0.895
0.895
0.83
0.835
0.73
0.56
0.385
0.23
0.12
0.015
-0.025
-0.205
-0.29
-0.26
-0.225
-0.185
-0.17
-0.12
-0.06
-0.005
-0.015
-0.005
-0.01
0.0
0.04
0.045
0.04
0.0
0.0
0.04
0.04
0.03
0.01
0.025
0.05
0.03
0.06
0.04
0.065
0.04
0.015
0.05
0.095
0.06
0.075
0.045
0.075
0.075
0.06
0.085
0.07
0.065
0.07
0.08
0.07
0.085
0.085
0.095
0.105
0.105
0.11
0.125
0.115
0.13
0.115
0.12
0.13
0.145
0.13
0.145
0.15
0.14
0.115
0.145
0.165
0.16
0.18
0.22
0.235
0.23
0.195
0.22
0.235
0.245
0.24
0.26
0.27
0.24
0.255
0.285
0.35
0.36
0.335
0.335
0.345
0.365
0.365
0.415
0.435
0.39
0.41
0.43
0.425
0.405
0.425
0.44
0.47
0.42
0.385
0.39
0.445
0.43
0.445
0.435
0.385
0.415
0.405
0.385
0.41
0.38
0.35
0.345
0.345
0.315
0.305
0.27
0.285
0.32
0.275
0.245
0.24
0.245
0.275
0.245
0.18
0.185
0.2
0.17
0.15
0.16
0.16
0.135
0.16
0.145
0.14
0.105
0.12
0.11
0.14
0.105
0.105
0.09
0.085
0.09
0.07
0.075
0.125
0.11
0.03
0.04
0.02
0.05
0.12
0.085
0.07
0.055
0.055
0.095
0.07
0.085
0.085
0.075
0.08
0.045
0.08
0.09
0.075
0.105
0.035
0.03
0.015
0.08
0.08
0.065
0.09
0.07
0.08
0.055
0.05
0.05
0.065
0.04
0.065
0.085
0.075
0.055
0.035
0.085
0.06
0.065
0.05
0.025
0.04
0.025
0.03
0.045
0.045
0.05
0.055
0.03
0.05
0.045
0.05
0.065
0.085
0.065
0.01
0.01
0.03
0.03
0.03
0.06
0.045
0.03
0.04
0.0
0.015
0.05
0.025
0.025
0.015
0.015
0.025
0.08
0.055
0.035
0.01
-0.02
-0.005
0.03
0.04
0.055
0.04
0.01
0.03
0.025
-0.005
0.025
0.06
0.01
0.02
0.035
0.03
0.035
0.005
0.025
0.015
0.055
0.03
0.025
0.05
0.08
0.08
0.085
0.05
0.08
0.06
0.04
0.05
0.095
0.09
0.075
0.12
0.065
0.095
0.09
0.065
0.105
0.105
0.075
0.1
0.12
0.105
0.09
0.08
0.09
0.075
0.095
0.135
0.085
0.15
0.135
0.115
0.12
0.13
0.095
0.095
0.11
0.18
0.21
0.115
0.095
0.07
0.08
0.07
0.08
0.055
0.05
0.01
0.03
0.055
0.035
0.015
0.03
0.015
0.055
0.01
0.015
0.035
0.01
0.04
0.065
0.01
-0.01
0.01
0.035
0.02
0.03
0.035
0.04
0.06
0.06
0.08
0.1
0.16
0.21
0.29
0.42
0.48
0.545
0.635
0.73
0.805
0.865
0.895
0.895
0.845
0.795
0.71
0.57
0.365
0.23
0.1
0.02
-0.075
-0.23
-0.36
-0.3
-0.24
-0.24
-0.2
-0.19
-0.145
-0.08
-0.035
-0.03
-0.07
0.0
-0.005
0.01
-0.03
-0.065
-0.025
0.01
0.005
0.01
0.02
0.02
-0.015
-0.005
0.0
0.015
0.045
0.03
0.015
0.015
0.005
0.035
0.04
0.02
0.03
0.035
0.05
0.045
0.04
0.015
0.035
0.055
0.055
0.07
0.085
0.075
0.085
0.065
0.08
0.085
0.075
0.1
0.085
0.07
0.085
0.105
0.13
0.095
0.15
0.095
0.115
0.15
0.14
0.13
0.13
0.12
0.18
0.2
0.185
0.205
0.21
0.205
0.21
0.23
0.245
0.25
0.28
0.29
0.255
0.26
0.295
0.29
0.315
0.325
0.365
0.38
0.35
0.375
0.37
0.365
0.375
0.425
0.42
0.41
0.405
0.415
0.42
0.42
0.385
0.385
0.415
0.4
0.4
0.385
0.375
0.375
0.34
0.31
0.31
0.335
0.34
0.305
0.29
0.27
0.28
0.255
0.215
0.235
0.185
0.17
0.19
0.23
0.185
0.175
0.185
0.145
0.125
0.12
0.12
0.1
0.09
0.09
0.075
0.11
0.09
0.065
0.065
0.055
0.05
0.06
0.08
0.045
0.02
0.045
0.02
0.06
0.025
0.04
0.03
0.04
0.025
0.035
0.025
0.035
0.055
0.03
0.01
0.02
0.025
0.03
0.035
0.015
0.025
0.035
0.065
0.01
0.01
0.025
0.025
0.035
0.04
0.04
0.055
-0.025
0.03
0.035
0.01
0.02
0.035
0.005
0.02
0.05
0.045
0.025
0.01
0.0
0.01
0.01
0.035
0.05
0.005
-0.01
0.0
0.015
-0.005
0.01
0.045
-0.015
-0.01
0.02
-0.025
-0.015
-0.005
0.005
0.05
0.04
0.01
-0.01
-0.005
0.02
0.02
-0.015
-0.015
-0.01
-0.01
-0.01
-0.015
0.025
-0.015
-0.045
-0.005
0.01
0.025
0.025
0.005
0.005
-0.005
-0.01
-0.035
0.0
-0.03
0.035
-0.005
-0.045
-0.045
0.015
0.005
-0.015
-0.045
-0.01
0.02
-0.02
-0.02
-0.015
-0.01
0.005
-0.02
-0.01
-0.005
0.035
0.045
0.03
0.05
0.065
0.045
0.055
0.045
0.04
0.015
0.055
0.07
0.03
0.085
0.105
0.07
0.055
0.075
0.07
0.065
0.095
0.1
0.065
0.065
0.055
0.07
0.06
0.065
0.065
0.085
0.12
0.095
0.055
0.115
0.125
0.13
0.1
0.095
0.085
0.02
0.04
0.025
0.03
0.015
0.015
0.0
0.02
-0.015
-0.005
-0.035
0.04
0.025
-0.015
0.025
0.01
0.0
0.0
0.015
0.01
-0.035
-0.015
-0.015
-0.03
0.005
-0.005
0.0
0.02
0.01
0.005
-0.01
-0.005
0.02
0.025
0.045
0.035
0.07
0.09
0.205
0.295
0.385
0.475
0.54
0.62
0.73
0.84
0.86
0.88
0.9
0.83
0.765
0.7
0.59
0.395
0.23
0.09
0.005
-0.1
-0.305
-0.37
-0.375
-0.33
-0.29
-0.21
-0.155
-0.12
-0.11
-0.105
-0.085
-0.07
-0.02
-0.025
-0.055
-0.035
-0.025
-0.025
-0.04
-0.025
0.025
-0.03
-0.04
-0.035
-0.01
0.025
0.025
0.005
-0.03
-0.055
0.045
0.025
-0.005
0.0
0.04
-0.005
0.01
0.035
0.0
0.02
0.035
0.06
0.045
0.045
0.025
0.06
0.09
0.05
0.045
0.07
0.015
0.085
0.085
0.1
0.115
0.06
0.1
0.105
0.11
0.13
0.09
0.1
0.14
0.1
0.13
0.2
0.17
0.14
0.145
0.16
0.165
0.195
0.2
0.215
0.22
0.255
0.225
0.245
0.255
0.285
0.3
0.285
0.325
0.335
0.35
0.325
0.36
0.37
0.355
0.395
0.375
0.365
0.375
0.405
0.405
0.425
0.385
0.38
0.41
0.4
0.41
0.39
0.39
0.39
0.375
0.38
0.37
0.32
0.325
0.365
0.345
0.275
0.305
0.28
0.29
0.285
0.225
0.255
0.26
0.22
0.195
0.195
0.2
0.155
0.18
0.165
0.135
0.135
0.125
0.11
0.1
0.09
0.095
0.1
0.055
0.07
0.105
0.095
0.065
0.06
0.05
0.05
0.05
0.03
0.045
0.06
0.055
0.065
0.075
0.06
0.04
0.055
0.05
0.07
0.05
0.05
0.035
0.005
0.055
0.08
0.05
0.035
0.04
0.05
0.03
0.075
0.055
0.015
0.04
0.025
0.02
0.055
0.03
0.095
0.025
0.04
0.045
0.05
0.05
0.0
0.005
0.045
0.07
0.075
0.015
0.03
0.005
-0.015
0.02
0.02
0.06
0.035
0.035
0.0
0.015
0.04
0.01
0.025
0.045
-0.005
-0.005
0.045
0.07
0.065
0.01
0.04
0.03
0.0
0.02
0.01
-0.025
0.005
0.02
0.005
0.025
0.045
0.02
-0.005
0.025
0.0
0.0
-0.015
0.01
0.015
0.03
0.0
0.03
0.005
-0.015
-0.015
0.005
0.0
0.02
0.0
-0.01
0.04
0.025
0.015
0.005
-0.01
0.045
0.055
0.0
0.025
0.025
0.02
0.04
0.04
0.05
0.045
0.035
0.02
0.055
0.035
0.045
0.04
0.065
0.03
0.08
0.09
0.075
0.135
0.08
0.07
0.07
0.09
0.11
0.08
0.1
0.085
0.085
0.055
0.075
0.085
0.07
0.105
0.085
0.105
0.15
0.125
0.09
0.125
0.14
0.065
0.055
0.065
0.05
0.055
0.025
0.0
0.01
0.03
0.025
-0.005
0.0
0.005
0.0
0.02
0.03
0.03
0.02
-0.015
0.015
0.01
0.02
0.03
0.005
-0.005
0.015
0.005
0.035
0.01
0.045
0.015
0.035
0.035
0.07
0.075
0.03
0.055
0.07
0.1
0.145
0.215
0.32
0.405
0.49
0.56
0.655
0.74
0.825
0.845
0.86
0.83
0.81
0.75
0.64
0.44
0.265
0.18
0.015
-0.145
-0.25
-0.38
-0.38
-0.335
-0.275
-0.22
-0.165
-0.14
-0.12
-0.055
-0.07
-0.05
-0.01
-0.03
-0.02
0.015
0.005
-0.02
-0.005
0.045
0.02
-0.03
0.01
-0.005
-0.005
0.04
0.05
0.04
0.04
0.04
0.015
0.03
0.065
0.025
0.01
0.065
0.0
0.025
0.05
0.06
0.015
0.05
0.075
0.085
0.065
0.09
0.055
0.105
0.11
0.075
0.085
0.115
0.11
0.115
0.06
0.085
0.095
0.12
0.165
0.155
0.155
0.125
0.19
0.135
0.125
0.16
0.155
0.21
0.19
0.215
0.215
0.2
0.22
0.22
0.265
0.27
0.27
0.26
0.295
0.305
0.31
0.33
0.32
0.345
0.355
0.38
0.395
0.36
0.36
0.4
0.445
0.455
0.415
0.41
0.415
0.4
0.43
0.425
0.415
0.415
0.39
0.445
0.41
0.415
0.415
0.405
0.37
0.37
0.39
0.38
0.345
0.315
0.34
0.325
0.3
0.295
0.265
0.23
0.25
0.26
0.24
0.255
0.215
0.205
0.19
0.21
0.2
0.165
0.175
0.14
0.165
0.13
0.105
0.07
0.15
0.1
0.085
0.085
0.1
0.1
0.105
0.08
0.105
0.075
0.065
0.08
0.045
0.06
0.06
0.055
0.05
0.07
0.05
0.06
0.085
0.065
0.065
0.045
0.075
0.07
0.04
0.07
0.095
0.125
0.12
0.06
0.055
0.08
0.095
0.075
0.06
0.05
0.085
0.06
0.08
0.06
0.045
0.07
0.075
0.08
0.075
0.09
0.085
0.055
0.06
0.065
0.05
0.065
0.07
0.045
0.065
0.05
0.065
0.02
0.04
0.035
0.035
0.04
0.05
0.07
0.105
0.075
0.03
0.05
0.06
0.05
0.045
0.055
0.03
0.045
0.04
0.04
0.01
0.04
0.07
0.02
0.075
0.075
0.04
0.05
0.06
0.055
0.03
0.05
0.03
0.065
0.055
0.03
0.03
0.065
0.1
0.1
0.045
0.05
0.06
0.08
0.09
0.09
0.075
0.07
0.09
0.08
0.095
0.11
0.155
0.085
0.11
0.105
0.125
0.14
0.12
0.11
0.13
0.1
0.115
0.09
0.11
0.115
0.1
0.11
0.125
0.12
0.12
0.11
0.115
0.13
0.145
0.13
0.115
0.085
0.11
0.115
0.085
0.075
0.085
0.07
0.06
0.04
0.035
0.045
0.055
0.05
0.04
0.06
0.065
0.045
0.035
0.055
0.055
0.03
0.045
0.04
0.06
0.045
0.035
0.025
0.04
0.05
0.035
0.035
0.06
0.06
0.055
0.105
0.09
0.11
0.13
0.115
0.16
0.275
0.345
0.435
0.495
0.58
0.615
0.715
0.835
0.805
0.85
0.805
0.78
0.705
0.595
0.425
0.285
0.19
0.02
-0.105
-0.215
-0.345
-0.325
-0.27
-0.27
-0.195
-0.145
-0.125
-0.085
-0.055
0.005
0.015
0.015
-0.01
0.015
0.015
0.025
0.01
0.005
0.045
0.055
0.045
0.05
0.04
0.0
0.02
0.06
0.08
0.05
0.05
0.045
0.065
0.07
0.055
0.065
0.06
0.08
0.08
0.07
0.075
0.075
0.05
0.1
0.085
0.09
0.085
0.1
0.11
0.115
0.13
0.1
0.115
0.12
0.16
0.12
0.125
0.14
0.135
0.12
0.175
0.2
0.205
0.2
0.175
0.175
0.155
0.205
0.175
0.18
0.225
0.23
0.22
0.24
0.27
0.25
0.28
0.305
0.28
0.325
0.34
0.34
0.33
0.36
0.35
0.375
0.385
0.395
0.425
0.43
0.435
0.46
0.45
0.43
0.465
0.45
0.43
0.42
0.47
0.48
0.465
0.455
0.43
0.445
0.435
0.425
0.415
0.41
0.41
0.395
0.375
0.39
0.375
0.38
0.335
0.315
0.3
0.31
0.28
0.275
0.265
0.235
0.25
0.25
0.225
0.2
0.185
0.165
0.17
0.19
0.18
0.125
0.1
0.125
0.125
0.125
0.085
0.095
0.105
0.1
0.085
0.06
0.125
0.11
0.075
0.065
0.09
0.055
0.1
0.12
0.1
0.08
0.07
0.065
0.08
0.09
0.07
0.09
0.08
0.075
0.055
0.07
0.065
0.06
0.1
0.08
0.065
0.09
0.085
0.065
0.095
0.08
0.08
0.06
0.055
0.075
0.095
0.065
0.095
0.1
0.085
0.09
0.075
0.05
0.055
0.055
0.05
0.085
0.065
0.075
0.075
0.09
0.08
0.05
0.05
0.065
0.055
0.04
0.055
0.09
0.06
0.045
0.035
0.05
0.025
0.04
0.07
0.075
0.055
0.065
0.055
0.035
0.045
0.025
0.04
0.035
0.025
0.045
0.09
0.06
0.045
0.05
0.065
0.02
0.045
0.075
0.06
0.05
0.065
0.06
0.055
0.055
0.065
0.085
0.065
0.085
0.08
0.055
0.08
0.14
0.11
0.07
0.1
0.12
0.12
0.11
0.105
0.12
0.145
0.13
0.115
0.12
0.11
0.105
0.105
0.095
0.105
0.11
0.115
0.125
0.105
0.13
0.12
0.125
0.125
0.125
0.105
0.07
0.06
0.07
0.07
0.065
0.055
0.02
0.055
0.015
0.045
0.035
0.08
0.02
0.025
0.035
0.055
0.045
0.06
0.04
0.0
0.02
0.05
0.05
0.06
0.025
0.03
0.02
0.03
0.03
0.01
0.04
0.07
0.08
0.075
0.065
0.08
0.11
0.15
0.225
0.31
0.405
0.45
0.565
0.645
0.77
0.82
0.83
0.86
0.87
0.81
0.775
0.63
0.49
0.32
0.225
0.085
-0.03
-0.12
-0.285
-0.34
-0.315
-0.28
-0.195
-0.17
-0.11
-0.08
-0.1
-0.025
-0.055
-0.025
0.01
0.015
0.015
-0.005
0.01
0.015
0.02
0.0
-0.01
0.005
0.04
0.04
0.025
0.02
0.02
0.01
0.005
0.005
0.055
0.06
0.09
0.055
0.03
0.05
0.05
0.045
0.05
0.035
0.035
0.065
0.08
0.085
0.1
0.085
0.09
0.085
0.09
0.105
0.105
0.11
0.115
0.105
0.12
0.12
0.125
0.135
0.125
0.13
0.14
0.155
0.165
0.185
0.175
0.18
0.175
0.2
0.215
0.21
0.195
0.205
0.22
0.195
0.255
0.29
0.29
0.285
0.28
0.295
0.325
0.325
0.32
0.355
0.405
0.38
0.375
0.39
0.4
0.395
0.395
0.425
0.435
0.43
0.41
0.445
0.445
0.44
0.455
0.42
0.415
0.405
0.4
0.385
0.4
0.41
0.375
0.35
0.365
0.36
0.35
0.325
0.325
0.3
0.28
0.27
0.25
0.265
0.235
0.245
0.24
0.225
0.215
0.165
0.165
0.17
0.17
0.155
0.145
0.12
0.12
0.105
0.1
0.065
0.105
0.08
0.065
0.075
0.085
0.085
0.055
0.06
0.065
0.065
0.06
0.08
0.06
0.045
0.055
0.05
0.065
0.03
0.045
0.04
0.055
0.06
0.075
0.04
0.045
0.05
0.065
0.045
0.06
0.05
0.04
0.05
0.05
0.055
0.055
0.065
0.055
0.06
0.055
0.07
0.06
0.05
0.045
0.01
0.065
0.055
0.045
0.035
0.025
0.055
0.08
0.035
0.045
0.045
0.055
0.05
0.055
0.04
0.045
0.045
0.04
0.02
0.025
0.03
0.055
0.045
0.04
0.035
0.015
0.0
0.0
0.04
0.075
0.02
0.03
0.015
0.02
0.025
0.025
0.03
0.06
0.035
0.025
0.035
0.025
0.005
0.02
0.025
0.03
0.01
0.035
0.025
0.02
0.02
0.015
0.045
0.055
0.065
0.045
0.065
0.07
0.055
0.06
0.035
0.08
0.065
0.1
0.075
0.095
0.1
0.105
0.11
0.11
0.13
0.085
0.09
0.085
0.075
0.075
0.06
0.07
0.08
0.095
0.095
0.1
0.105
0.1
0.14
0.145
0.135
0.13
0.115
0.055
0.065
0.055
0.045
0.03
0.06
0.025
0.02
0.025
0.015
0.01
0.005
0.025
0.025
0.025
0.035
0.04
0.0
0.005
0.02
0.02
0.02
0.0
0.015
0.025
0.02
0.03
0.035
-0.01
-0.01
0.035
0.015
0.03
0.025
0.05
0.06
0.09
0.12
0.205
0.265
0.335
0.415
0.49
0.575
0.66
0.785
0.86
0.925
0.895
0.845
0.795
0.77
0.68
0.53
0.315
0.195
0.06
-0.045
-0.135
-0.33
-0.38
-0.325
-0.27
-0.26
-0.2
-0.125
-0.105
-0.085
-0.04
-0.055
-0.02
-0.005
-0.015
-0.035
-0.03
-0.015
0.025
0.01
0.0
0.015
0.015
-0.01
-0.035
-0.01
0.005
0.005
0.02
0.015
0.07
0.07
0.025
0.025
0.015
0.02
0.025
0.005
0.05
0.045
0.03
0.03
0.05
0.05
0.03
0.07
0.085
0.08
0.055
0.08
0.085
0.085
0.09
0.1
0.135
0.125
0.095
0.09
0.115
0.11
0.135
0.15
0.135
0.125
0.13
0.135
0.16
0.145
0.175
0.195
0.185
0.2
0.22
0.215
0.23
0.24
0.25
0.235
0.26
0.3
0.305
0.33
0.345
0.305
0.31
0.33
0.385
0.395
0.4
0.375
0.38
0.415
0.41
0.42
0.41
0.41
0.42
0.415
0.41
0.43
0.41
0.405
0.395
0.38
0.385
0.4
0.39
0.38
0.355
0.335
0.33
0.31
0.29
0.29
0.29
0.305
0.285
0.26
0.255
0.26
0.225
0.2
0.18
0.165
0.16
0.15
0.14
0.155
0.125
0.145
0.125
0.09
0.095
0.115
0.09
0.09
0.065
0.05
0.07
0.07
0.045
0.045
0.065
0.05
0.04
0.04
0.055
0.06
0.055
0.045
0.035
0.03
0.045
0.055
0.06
0.065
0.055
0.04
0.055
0.055
0.04
0.06
0.045
0.04
0.03
0.02
0.035
0.05
0.06
0.06
0.04
0.055
0.065
0.025
0.01
0.04
0.065
0.035
0.06
0.055
0.04
0.04
0.05
0.015
0.03
0.04
0.03
0.035
0.06
0.055
0.02
0.055
0.03
0.025
0.035
0.035
0.02
0.03
0.04
0.045
0.03
0.05
0.035
0.015
0.0
0.01
0.03
0.02
0.03
0.03
0.03
0.02
0.02
-0.005
0.005
0.06
0.03
0.03
0.025
0.015
0.005
0.015
0.0
0.01
-0.01
0.02
0.05
-0.005
-0.02
0.015
0.01
0.01
0.045
0.01
0.01
0.06
0.065
0.06
0.08
0.04
0.045
0.07
0.075
0.04
0.01
0.07
0.085
0.055
0.075
0.095
0.08
0.095
0.095
0.09
0.09
0.11
0.08
0.09
0.085
0.075
0.065
0.065
0.085
0.115
0.095
0.125
0.135
0.13
0.14
0.115
0.095
0.07
0.085
0.07
0.075
0.06
0.035
0.015
0.05
0.025
0.01
0.015
-0.005
-0.005
0.01
0.05
0.045
0.03
0.01
0.01
0.0
-0.005
0.025
0.02
0.005
0.01
0.015
0.055
0.02
0.02
0.015
0.01
0.005
0.015
0.03
0.02
0.065
0.045
0.06
0.095
0.135
0.19
0.28
0.37
0.45
0.545
0.655
0.77
0.85
0.875
0.885
0.91
0.845
0.79
0.73
0.61
0.365
0.24
0.125
0.0
-0.05
-0.225
-0.39
-0.365
-0.315
-0.27
-0.24
-0.18
-0.115
-0.05
-0.025
-0.045
-0.03
-0.02
-0.005
-0.01
-0.035
0.005
-0.015
0.005
-0.005
-0.015
-0.02
-0.01
0.03
-0.005
-0.005
0.005
0.0
0.015
0.035
0.025
0.05
0.04
0.045
0.04
0.05
0.015
0.045
0.015
0.065
0.05
0.04
0.055
0.065
0.065
0.095
0.08
0.055
0.055
0.075
0.095
0.095
0.145
0.12
0.085
0.145
0.125
0.085
0.125
0.17
0.155
0.145
0.15
0.16
0.175
0.145
0.17
0.185
0.17
0.185
0.18
0.21
0.25
0.255
0.25
0.245
0.275
0.28
0.275
0.295
0.32
0.31
0.33
0.36
0.37
0.395
0.375
0.365
0.38
0.385
0.405
0.39
0.41
0.43
0.445
0.435
0.435
0.41
0.405
0.41
0.42
0.41
0.39
0.39
0.395
0.405
0.375
0.395
0.345
0.33
0.335
0.33
0.3
0.285
0.31
0.3
0.265
0.245
0.235
0.22
0.215
0.22
0.185
0.185
0.195
0.175
0.135
0.13
0.15
0.14
0.105
0.125
0.13
0.135
0.07
0.07
0.08
0.075
0.12
0.05
0.035
0.05
0.07
0.095
0.08
0.075
0.065
0.05
0.065
0.07
0.065
0.06
0.03
0.055
0.075
0.065
0.045
0.065
0.035
0.07
0.08
0.09
0.08
0.035
0.045
0.05
0.055
0.08
0.065
0.03
0.04
0.055
0.065
0.07
0.06
0.05
0.055
0.055
0.065
0.07
0.065
0.05
0.065
0.03
0.065
0.075
0.055
0.04
0.025
0.06
0.095
0.05
0.05
0.055
0.055
0.035
0.05
0.05
0.035
0.05
0.05
0.04
0.05
0.035
0.055
0.045
0.04
0.025
0.025
0.05
0.065
0.045
0.04
0.035
0.04
0.045
0.05
0.025
0.06
0.04
0.05
0.07
0.045
0.02
0.065
0.04
0.025
0.035
0.04
0.045
0.04
0.055
0.03
0.045
0.08
0.045
0.03
0.055
0.06
0.065
0.065
0.06
0.075
0.075
0.065
0.09
0.095
0.09
0.1
0.095
0.115
0.1
0.085
0.105
0.15
0.115
0.09
0.08
0.105
0.135
0.13
0.11
0.15
0.13
0.11
0.11
0.105
0.095
0.15
0.13
0.125
0.15
0.145
0.16
0.135
0.145
0.135
0.115
0.09
0.085
0.085
0.07
0.06
0.035
0.06
0.06
0.06
0.065
0.02
0.045
0.055
0.07
0.05
0.04
0.055
0.05
0.04
0.05
0.06
0.04
0.07
0.045
0.045
0.04
0.065
0.06
0.06
0.09
0.07
0.09
0.05
0.09
0.145
0.115
0.135
0.205
0.275
0.395
0.505
0.57
0.67
0.79
0.865
0.915
0.945
0.96
0.86
0.815
0.75
0.63
0.425
0.28
0.14
-0.01
-0.105
-0.27
-0.32
-0.33
-0.295
-0.265
-0.195
-0.13
-0.1
-0.05
-0.03
0.0
0.0
0.01
0.025
-0.005
0.05
0.055
0.06
0.07
0.06
0.055
0.015
0.035
0.055
0.04
0.03
0.055
0.1
0.08
0.055
0.05
0.06
0.065
0.105
0.11
0.085
0.09
0.07
0.12
0.125
0.125
0.115
0.13
0.15
0.12
0.15
0.12
0.15
0.125
0.125
0.125
0.145
0.15
0.16
0.145
0.18
0.185
0.165
0.175
0.21
0.225
0.2
0.18
0.195
0.22
0.225
0.245
0.245
0.295
0.3
0.275
0.29
0.29
0.29
0.31
0.315
0.345
0.335
0.35
0.385
0.38
0.385
0.395
0.4
0.42
0.455
0.465
0.47
0.45
0.455
0.48
0.475
0.495
0.49
0.51
0.505
0.52
0.5
0.475
0.48
0.48
0.47
0.49
0.46
0.465
0.455
0.415
0.475
0.445
0.395
0.435
0.405
0.43
0.43
0.38
0.345
0.35
0.34
0.35
0.305
0.285
0.285
0.285
0.295
0.285
0.275
0.27
0.215
0.225
0.215
0.205
0.195
0.205
0.19
0.16
0.18
0.17
0.195
0.16
0.165
0.12
0.14
0.16
0.145
0.155
0.145
0.135
0.14
0.195
0.145
0.105
0.16
0.13
0.12
0.15
0.16
0.155
0.15
0.155
0.155
0.14
0.15
0.145
0.15
0.18
0.18
0.105
0.115
0.145
0.17
0.155
0.115
0.15
0.155
0.135
0.155
0.18
0.15
0.135
0.13
0.125
0.12
0.135
0.15
0.125
0.125
0.135
0.145
0.14
0.14
0.125
0.11
0.11
0.125
0.14
0.165
0.13
0.145
0.13
0.095
0.13
0.14
0.125
0.13
0.18
0.17
0.12
0.1
0.13
0.13
0.12
0.1
0.105
0.115
0.115
0.12
0.135
0.145
0.11
0.105
0.11
0.15
0.11
0.1
0.105
0.14
0.12
0.145
0.115
0.11
0.115
0.12
0.125
0.12
0.115
0.125
0.15
0.15
0.17
0.15
0.175
0.175
0.165
0.135
0.16
0.17
0.185
0.185
0.15
0.185
0.195
0.19
0.23
0.195
0.18
0.195
0.225
0.22
0.195
0.18
0.175
0.165
0.21
0.205
0.225
0.205
0.175
0.235
0.24
0.245
0.235
0.195
0.185
0.17
0.215
0.165
0.175
0.15
0.14
0.125
0.135
0.145
0.115
0.13
0.13
0.115
0.11
0.13
0.11
0.13
0.135
0.155
0.13
0.13
0.165
0.115
0.14
0.155
0.145
0.145
0.14
0.125
0.105
0.14
0.165
0.14
0.155
0.165
0.205
0.235
0.205
0.215
0.285
0.385
0.48
0.53
0.645
0.675
0.77
0.89
0.96
0.935
0.975
0.92
0.845
0.765
0.655
0.47
0.335
0.225
0.055
-0.04
-0.195
-0.24
-0.215
-0.165
-0.13
-0.095
-0.08
-0.005
0.05
0.075
0.055
0.095
0.1
0.125
0.135
0.13
0.115
0.13
0.13
0.165
0.115
0.075
0.11
0.115
0.13
0.12
0.125
0.125
0.13
0.145
0.135
0.15
0.155
0.17
0.16
0.15
0.19
0.17
0.175
0.16
0.175
0.185
0.195
0.18
0.195
0.2
0.21
0.195
0.205
0.195
0.215
0.185
0.23
0.26
0.245
0.24
0.24
0.235
0.255
0.255
0.235
0.28
0.27
0.28
0.315
0.345
0.31
0.325
0.33
0.31
0.355
0.375
0.33
0.35
0.415
0.425
0.42
0.405
0.45
0.435
0.465
0.45
0.475
0.47
0.52
0.525
0.51
0.525
0.525
0.56
0.56
0.56
0.575
0.575
0.59
0.575
0.58
0.58
0.595
0.555
0.565
0.605
0.59
0.555
0.52
0.52
0.54
0.52
0.52
0.505
0.485
0.48
0.48
0.45
0.445
0.43
0.42
0.41
0.395
0.385
0.395
0.355
0.33
0.37
0.37
0.32
0.305
0.315
0.305
0.3
0.275
0.28
0.255
0.24
0.22
0.26
0.245
0.22
0.225
0.23
0.235
0.255
0.235
0.185
0.2
0.215
0.23
0.205
0.23
0.21
0.21
0.2
0.23
0.235
0.235
0.19
0.185
0.215
0.24
0.225
0.22
0.21
0.18
0.175
0.195
0.235
0.24
0.22
0.215
0.21
0.225
0.235
0.22
0.195
0.225
0.21
0.185
0.205
0.235
0.23
0.21
0.215
0.205
0.22
0.21
0.195
0.215
0.21
0.195
0.17
0.22
0.195
0.22
0.22
0.215
0.23
0.185
0.21
0.215
0.215
0.165
0.18
0.205
0.205
0.18
0.195
0.2
0.17
0.185
0.195
0.205
0.19
0.19
0.215
0.19
0.18
0.17
0.185
0.215
0.2
0.185
0.175
0.18
0.21
0.2
0.185
0.195
0.175
0.19
0.18
0.21
0.215
0.245
0.215
0.26
0.215
0.2
0.235
0.225
0.23
0.23
0.23
0.225
0.245
0.26
0.265
0.28
0.25
0.275
0.255
0.27
0.23
0.265
0.255
0.245
0.245
0.235
0.23
0.22
0.24
0.25
0.27
0.26
0.305
0.29
0.28
0.285
0.25
0.245
0.23
0.215
0.19
0.2
0.195
0.195
0.17
0.19
0.185
0.185
0.16
0.175
0.19
0.175
0.17
0.185
0.17
0.175
0.16
0.18
0.205
0.185
0.16
0.19
0.185
0.175
0.22
0.175
0.175
0.155
0.16
0.17
0.195
0.21
0.235
0.215
0.26
0.25
0.3
0.415
0.495
0.56
0.61
0.695
0.78
0.875
0.94
0.97
0.99
0.945
0.93
0.84
0.755
0.555
0.415
0.295
0.175
0.04
-0.11
-0.21
-0.17
-0.105
-0.075
-0.045
-0.01
0.015
0.035
0.085
0.085
0.125
0.14
0.165
0.17
0.185
0.16
0.13
0.155
0.155
0.15
0.185
0.16
0.17
0.185
0.2
0.195
0.15
0.18
0.21
0.16
0.15
0.17
0.205
0.195
0.21
0.2
0.2
0.23
0.21
0.22
0.22
0.23
0.22
0.19
0.21
0.23
0.245
0.225
0.245
0.245
0.275
0.28
0.27
0.28
0.285
0.26
0.265
0.29
0.3
0.29
0.3
0.305
0.305
0.31
0.335
0.34
0.345
0.335
0.345
0.34
0.37
0.395
0.375
0.375
0.4
0.39
0.445
0.46
0.45
0.475
0.465
0.5
0.505
0.515
0.535
0.58
0.555
0.545
0.59
0.58
0.56
0.57
0.59
0.6
0.585
0.585
0.595
0.6
0.585
0.565
0.575
0.59
0.545
0.555
0.56
0.52
0.53
0.555
0.53
0.475
0.51
0.525
0.5
0.44
0.41
0.445
0.45
0.435
0.39
0.395
0.39
0.345
0.335
0.35
0.34
0.325
0.325
0.29
0.325
0.305
0.29
0.25
0.25
0.24
0.22
0.25
0.245
0.24
0.235
0.24
0.225
0.23
0.23
0.21
0.23
0.21
0.215
0.25
0.235
0.22
0.215
0.21
0.215
0.21
0.21
0.25
0.26
0.22
0.23
0.215
0.19
0.205
0.205
0.215
0.215
0.23
0.23
0.245
0.21
0.23
0.215
0.21
0.215
0.245
0.235
0.235
0.215
0.215
0.205
0.205
0.215
0.235
0.23
0.235
0.245
0.235
0.225
0.205
0.195
0.195
0.22
0.235
0.22
0.25
0.2
0.225
0.235
0.21
0.2
0.185
0.2
0.205
0.23
0.195
0.2
0.18
0.23
0.215
0.215
0.185
0.21
0.22
0.18
0.22
0.205
0.19
0.22
0.205
0.185
0.18
0.17
0.195
0.2
0.195
0.2
0.175
0.22
0.195
0.165
0.185
0.205
0.205
0.21
0.21
0.225
0.23
0.255
0.23
0.23
0.23
0.23
0.235
0.25
0.24
0.22
0.215
0.235
0.275
0.28
0.275
0.28
0.27
0.275
0.26
0.245
0.26
0.26
0.235
0.22
0.245
0.26
0.27
0.245
0.24
0.24
0.26
0.275
0.315
0.3
0.27
0.255
0.24
0.245
0.21
0.225
0.2
0.165
0.2
0.205
0.195
0.185
0.185
0.185
0.195
0.16
0.14
0.17
0.16
0.18
0.235
0.215
0.205
0.195
0.18
0.17
0.17
0.175
0.18
0.175
0.185
0.18
0.19
0.195
0.2
0.195
0.205
0.215
0.22
0.265
0.28
0.38
0.475
0.565
0.61
0.67
0.765
0.87
0.935
0.98
0.99
1.025
0.965
0.895
0.825
0.7
0.52
0.42
0.295
0.14
0.05
-0.135
-0.16
-0.13
-0.1
-0.05
0.0
0.015
0.05
0.09
0.105
0.1
0.105
0.15
0.17
0.195
0.165
0.175
0.195
0.135
0.165
0.205
0.165
0.15
0.17
0.2
0.21
0.18
0.155
0.175
0.19
0.18
0.2
0.215
0.22
0.2
0.195
0.215
0.185
0.215
0.215
0.195
0.225
0.225
0.24
0.245
0.22
0.225
0.245
0.26
0.245
0.23
0.245
0.28
0.26
0.26
0.27
0.27
0.28
0.275
0.315
0.32
0.25
0.31
0.29
0.315
0.32
0.325
0.335
0.345
0.37
0.36
0.38
0.415
0.37
0.395
0.435
0.41
0.42
0.45
0.475
0.465
0.455
0.46
0.53
0.515
0.505
0.525
0.555
0.59
0.56
0.59
0.58
0.57
0.56
0.57
0.605
0.585
0.59
0.605
0.575
0.57
0.575
0.58
0.555
0.525
0.505
0.525
0.53
0.53
0.535
0.51
0.515
0.5
0.45
0.445
0.45
0.435
0.435
0.445
0.435
0.38
0.35
0.335
0.365
0.35
0.32
0.305
0.3
0.3
0.335
0.285
0.275
0.275
0.295
0.275
0.245
0.225
0.235
0.26
0.225
0.235
0.215
0.23
0.21
0.225
0.215
0.2
0.225
0.23
0.21
0.185
0.21
0.22
0.245
0.23
0.21
0.21
0.245
0.24
0.205
0.22
0.215
0.215
0.205
0.22
0.215
0.22
0.23
0.24
0.195
0.235
0.235
0.235
0.215
0.23
0.245
0.215
0.215
0.23
0.195
0.21
0.24
0.22
0.2
0.215
0.195
0.21
0.215
0.21
0.21
0.225
0.215
0.21
0.215
0.24
0.215
0.215
0.21
0.225
0.19
0.225
0.18
0.21
0.23
0.195
0.17
0.195
0.21
0.235
0.2
0.195
0.18
0.185
0.175
0.215
0.2
0.215
0.23
0.2
0.175
0.195
0.23
0.175
0.17
0.2
0.195
0.195
0.2
0.19
0.195
0.2
0.195
0.165
0.175
0.165
0.205
0.205
0.19
0.195
0.2
0.18
0.195
0.19
0.16
0.175
0.205
0.22
0.23
0.235
0.24
0.23
0.215
0.25
0.25
0.215
0.235
0.19
0.25
0.28
0.27
0.255
0.26
0.26
0.26
0.25
0.245
0.27
0.23
0.205
0.245
0.225
0.235
0.265
0.245
0.23
0.265
0.255
0.26
0.25
0.26
0.23
0.245
0.245
0.205
0.195
0.175
0.2
0.195
0.175
0.16
0.175
0.175
0.18
0.195
0.185
0.17
0.18
0.175
0.18
0.175
0.15
0.15
0.17
0.175
0.15
0.185
0.175
0.195
0.165
0.16
0.18
0.165
0.16
0.195
0.22
0.225
0.195
0.195
0.23
0.255
0.345
0.435
0.505
0.58
0.675
0.745
0.86
0.97
1.005
1.02
1.0
0.935
0.91
0.845
0.685
0.49
0.365
0.285
0.165
0.085
-0.11
-0.185
-0.135
-0.08
-0.055
-0.03
0.02
0.065
0.065
0.1
0.13
0.11
0.11
0.135
0.145
0.16
0.155
0.15
0.145
0.145
0.105
0.115
0.15
0.19
0.175
0.18
0.17
0.175
0.16
0.16
0.195
0.18
0.155
0.16
0.18
0.195
0.19
0.19
0.165
0.19
0.2
0.205
0.19
0.22
0.195
0.22
0.22
0.225
0.23
0.245
0.235
0.195
0.245
0.2
0.225
0.28
0.255
0.245
0.27
0.285
0.285
0.27
0.27
0.31
0.29
0.255
0.29
0.33
0.33
0.34
0.355
0.335
0.34
0.345
0.38
0.37
0.405
0.425
0.415
0.425
0.475
0.5
0.465
0.455
0.465
0.495
0.53
0.5
0.525
0.565
0.565
0.555
0.535
0.545
0.565
0.57
0.545
0.545
0.555
0.575
0.595
0.59
0.56
0.53
0.51
0.51
0.52
0.525
0.535
0.495
0.475
0.49
0.48
0.44
0.415
0.42
0.415
0.395
0.395
0.37
0.36
0.34
0.355
0.33
0.305
0.355
0.31
0.295
0.285
0.3
0.285
0.24
0.25
0.235
0.235
0.235
0.23
0.24
0.255
0.225
0.215
0.18
0.2
0.18
0.175
0.205
0.21
0.18
0.175
0.195
0.2
0.185
0.185
0.205
0.17
0.2
0.2
0.19
0.195
0.21
0.175
0.145
0.195
0.215
0.19
0.18
0.185
0.175
0.18
0.185
0.165
0.175
0.185
0.19
0.19
0.2
0.2
0.17
0.19
0.175
0.21
0.185
0.185
0.145
0.16
0.18
0.185
0.145
0.185
0.17
0.17
0.175
0.165
0.17
0.195
0.205
0.18
0.135
0.18
0.155
0.155
0.16
0.18
0.185
0.165
0.175
0.165
0.175
0.155
0.14
0.16
0.185
0.185
0.155
0.145
0.145
0.16
0.155
0.15
0.14
0.135
0.13
0.14
0.14
0.17
0.18
0.16
0.16
0.14
0.165
0.165
0.15
0.145
0.14
0.14
0.16
0.155
0.16
0.16
0.15
0.165
0.14
0.12
0.155
0.18
0.145
0.115
0.135
0.18
0.165
0.14
0.17
0.115
0.14
0.145
0.14
0.175
0.165
0.15
0.15
0.16
0.2
0.19
0.175
0.17
0.19
0.195
0.205
0.175
0.2
0.195
0.225
0.21
0.235
0.245
0.22
0.2
0.23
0.235
0.21
0.15
0.21
0.195
0.195
0.21
0.23
0.205
0.21
0.19
0.21
0.235
0.26
0.275
0.225
0.2
0.2
0.195
0.18
0.155
0.165
0.15
0.14
0.14
0.145
0.14
0.14
0.155
0.15
0.15
0.1
0.105
0.135
0.135
0.145
0.13
0.145
0.125
0.135
0.13
0.11
0.145
0.09
0.135
0.1
0.12
0.115
0.12
0.17
0.165
0.155
0.165
0.155
0.19
0.22
0.285
0.395
0.475
0.54
0.6
0.72
0.805
0.91
0.915
0.96
1.0
0.95
0.88
0.83
0.745
0.515
0.375
0.23
0.155
0.06
-0.085
-0.2
-0.195
-0.165
-0.13
-0.115
-0.045
0.005
0.015
0.055
0.08
0.1
0.08
0.065
0.075
0.115
0.12
0.09
0.095
0.09
0.125
0.105
0.11
0.105
0.095
0.105
0.09
0.11
0.145
0.135
0.135
0.13
0.125
0.135
0.145
0.15
0.125
0.17
0.135
0.13
0.115
0.16
0.16
0.165
0.15
0.175
0.19
0.185
0.155
0.16
0.18
0.195
0.185
0.2
0.22
0.225
0.235
0.18
0.2
0.225
0.22
0.215
0.23
0.235
0.24
0.26
0.265
0.26
0.245
0.275
0.265
0.29
0.32
0.31
0.33
0.325
0.355
0.36
0.37
0.365
0.385
0.42
0.395
0.415
0.4
0.445
0.455
0.465
0.465
0.475
0.525
0.55
0.515
0.505
0.495
0.49
0.505
0.525
0.525
0.51
0.5
0.505
0.52
0.525
0.49
0.475
0.485
0.485
0.47
0.465
0.475
0.455
0.445
0.41
0.39
0.36
0.35
0.355
0.35
0.325
0.325
0.32
0.315
0.295
0.27
0.265
0.27
0.255
0.225
0.25
0.23
0.205
0.195
0.2
0.185
0.175
0.19
0.145
0.15
0.18
0.16
0.165
0.155
0.18
0.18
0.16
0.145
0.135
0.115
0.13
0.115
0.15
0.14
0.13
0.135
0.145
0.125
0.115
0.155
0.145
0.135
0.135
0.11
0.135
0.135
0.125
0.11
0.125
0.125
0.125
0.13
0.135
0.165
0.135
0.11
0.105
0.15
0.13
0.13
0.14
0.125
0.115
0.1
0.125
0.14
0.16
0.135
0.13
0.12
0.13
0.12
0.1
0.135
0.14
0.14
0.145
0.115
0.105
0.105
0.13
0.115
0.11
0.09
0.1
0.125
0.125
0.12
0.095
0.105
0.125
0.085
0.09
0.105
0.11
0.1
0.105
0.095
0.105
0.1
0.135
0.095
0.11
0.1
0.085
0.105
0.115
0.095
0.095
0.12
0.15
0.1
0.075
0.09
0.085
0.075
0.11
0.1
0.095
0.075
0.11
0.095
0.15
0.07
0.08
0.06
0.08
0.08
0.1
0.09
0.09
0.085
0.065
0.1
0.12
0.08
0.1
0.065
0.07
0.11
0.09
0.095
0.095
0.085
0.055
0.08
0.115
0.1
0.09
0.11
0.125
0.12
0.14
0.12
0.115
0.125
0.125
0.11
0.135
0.145
0.125
0.145
0.12
0.13
0.17
0.185
0.155
0.14
0.17
0.165
0.195
0.205
0.165
0.13
0.135
0.135
0.14
0.14
0.17
0.175
0.195
0.18
0.17
0.21
0.19
0.19
0.17
0.13
0.095
0.16
0.11
0.125
0.13
0.115
0.085
0.06
0.105
0.09
0.08
0.09
0.09
0.06
0.08
0.09
0.075
0.075
0.08
0.05
0.08
0.065
0.075
0.085
0.1
0.055
0.045
0.075
0.08
0.075
0.07
0.1
0.08
0.105
0.11
0.095
0.105
0.125
0.19
0.255
0.345
0.45
0.505
0.565
0.685
0.775
0.88
0.94
0.975
0.955
0.92
0.88
0.805
0.73
0.515
0.33
0.22
0.14
0.035
-0.105
-0.295
-0.29
-0.255
-0.225
-0.155
-0.135
-0.075
-0.005
-0.005
0.015
0.045
0.04
0.06
0.075
0.06
0.045
0.045
0.05
0.04
0.05
0.065
0.065
0.075
0.07
0.08
0.07
0.065
0.065
0.065
0.075
0.085
0.11
0.125
0.115
0.115
0.09
0.095
0.095
0.105
0.095
0.09
0.115
0.13
0.11
0.12
0.14
0.115
0.14
0.17
0.16
0.165
0.16
0.155
0.17
0.185
0.19
0.17
0.17
0.185
0.195
0.245
0.19
0.19
0.205
0.195
0.22
0.225
0.25
0.265
0.265
0.28
0.28
0.24
0.31
0.315
0.31
0.32
0.33
0.33
0.345
0.36
0.375
0.405
0.425
0.405
0.43
0.43
0.45
0.445
0.475
0.46
0.485
0.495
0.505
0.5
0.51
0.5
0.465
0.48
0.465
0.5
0.485
0.475
0.485
0.455
0.455
0.44
0.46
0.42
0.42
0.425
0.405
0.39
0.385
0.37
0.39
0.35
0.33
0.32
0.325
0.3
0.275
0.285
0.285
0.26
0.2
0.23
0.245
0.215
0.185
0.205
0.175
0.175
0.17
0.165
0.165
0.165
0.16
0.135
0.135
0.14
0.145
0.145
0.135
0.105
0.12
0.14
0.14
0.125
0.16
0.17
0.13
0.14
0.12
0.12
0.12
0.125
0.125
0.145
0.115
0.125
0.1
0.13
0.135
0.11
0.095
0.12
0.145
0.115
0.125
0.15
0.135
0.145
0.145
0.135
0.105
0.13
0.12
0.115
0.125
0.115
0.12
0.13
0.14
0.125
0.135
0.13
0.12
0.12
0.145
0.14
0.125
0.11
0.135
0.145
0.125
0.12
0.11
0.1
0.135
0.115
0.115
0.13
0.095
0.115
0.125
0.135
0.125
0.115
0.135
0.14
0.11
0.105
0.145
0.105
0.105
0.155
0.13
0.11
0.105
0.14
0.095
0.12
0.12
0.13
0.115
0.105
0.125
0.13
0.125
0.1
0.105
0.125
0.085
0.09
0.1
0.115
0.135
0.115
0.125
0.12
0.125
0.12
0.12
0.105
0.115
0.135
0.08
0.105
0.125
0.14
0.115
0.105
0.095
0.115
0.14
0.105
0.095
0.1
0.09
0.11
0.115
0.135
0.1
0.09
0.115
0.125
0.11
0.105
0.15
0.13
0.13
0.15
0.115
0.12
0.145
0.12
0.135
0.16
0.185
0.17
0.16
0.15
0.135
0.155
0.19
0.18
0.175
0.18
0.2
0.2
0.2
0.2
0.165
0.2
0.185
0.165
0.175
0.16
0.185
0.195
0.195
0.2
0.195
0.195
0.23
0.205
0.21
0.235
0.235
0.205
0.225
0.155
0.145
0.185
0.17
0.13
0.1
0.13
0.135
0.135
0.145
0.135
0.09
0.085
0.12
0.13
0.115
0.125
0.11
0.13
0.16
0.105
0.1
0.115
0.115
0.105
0.125
0.12
0.115
0.125
0.095
0.125
0.12
0.12
0.115
0.11
0.155
0.165
0.205
0.22
0.255
0.35
0.385
0.49
0.6
0.65
0.76
0.855
0.945
0.945
0.98
0.915
0.885
0.835
0.765
0.575
0.415
0.28
0.16
0.03
-0.09
-0.25
-0.245
-0.215
-0.135
-0.12
-0.05
-0.03
-0.005
0.03
0.055
0.065
0.1
0.085
0.085
0.08
0.09
0.12
0.09
0.115
0.13
0.1
0.13
0.105
0.09
0.105
0.13
0.115
0.125
0.115
0.135
0.16
0.14
0.13
0.14
0.125
0.145
0.15
0.16
0.15
0.18
0.16
0.165
0.17
0.16
0.175
0.195
0.205
0.185
0.18
0.185
0.205
0.17
0.195
0.19
0.2
0.215
0.23
0.23
0.215
0.22
0.22
0.25
0.265
0.245
0.245
0.27
0.305
0.295
0.275
0.315
0.33
0.33
0.34
0.34
0.35
0.35
0.39
0.385
0.35
0.385
0.41
0.415
0.47
0.435
0.465
0.485
0.495
0.47
0.48
0.515
0.495
0.495
0.52
0.54
0.55
0.54
0.56
0.55
0.56
0.56
0.53
0.5
0.5
0.525
0.515
0.49
0.495
0.465
0.495
0.46
0.47
0.455
0.45
0.46
0.41
0.385
0.385
0.39
0.35
0.38
0.37
0.35
0.32
0.285
0.285
0.29
0.285
0.285
0.275
0.26
0.25
0.225
0.225
0.205
0.22
0.23
0.185
0.185
0.2
0.18
0.17
0.155
0.205
0.175
0.175
0.18
0.18
0.175
0.16
0.21
0.205
0.16
0.155
0.125
0.15
0.19
0.195
0.175
0.16
0.16
0.185
0.195
0.185
0.18
0.185
0.185
0.175
0.175
0.17
0.18
0.17
0.185
0.175
0.185
0.155
0.165
0.18
0.185
0.175
0.175
0.185
0.2
0.15
0.16
0.175
0.145
0.19
0.215
0.175
0.16
0.165
0.205
0.15
0.18
0.175
0.2
0.16
0.14
0.205
0.185
0.19
0.165
0.17
0.165
0.14
0.155
0.185
0.18
0.17
0.19
0.155
0.155
0.14
0.14
0.16
0.14
0.12
0.16
0.175
0.16
0.16
0.165
0.16
0.155
0.165
0.155
0.13
0.15
0.17
0.175
0.155
0.14
0.155
0.175
0.16
0.155
0.17
0.15
0.125
0.14
0.105
0.16
0.155
0.16
0.14
0.145
0.16
0.185
0.195
0.13
0.12
0.13
0.12
0.16
0.185
0.165
0.17
0.16
0.17
0.165
0.175
0.17
0.18
0.185
0.195
0.195
0.185
0.195
0.17
0.18
0.225
0.225
0.215
0.215
0.235
0.21
0.205
0.225
0.245
0.215
0.19
0.21
0.19
0.17
0.165
0.21
0.235
0.25
0.24
0.205
0.23
0.24
0.245
0.21
0.185
0.205
0.2
0.18
0.175
0.17
0.165
0.145
0.125
0.165
0.145
0.19
0.16
0.155
0.14
0.15
0.16
0.13
0.12
0.135
0.145
0.165
0.17
0.135
0.115
0.125
0.13
0.165
0.155
0.14
0.13
0.125
0.155
0.13
0.16
0.17
0.175
0.18
0.2
0.245
0.27
0.305
0.405
0.475
0.54
0.61
0.715
0.83
0.905
0.92
0.975
0.95
0.88
0.81
0.75
0.545
0.38
0.325
0.215
0.065
-0.02
-0.195
-0.225
-0.175
-0.14
-0.12
-0.055
-0.025
0.02
0.03
0.07
0.105
0.095
0.12
0.11
0.1
0.12
0.105
0.16
0.125
0.155
0.17
0.145
0.13
0.125
0.125
0.13
0.16
0.16
0.13
0.16
0.145
0.175
0.145
0.155
0.16
0.205
0.15
0.15
0.175
0.195
0.165
0.195
0.21
0.19
0.2
0.21
0.19
0.18
0.24
0.24
0.21
0.215
0.215
0.22
0.245
0.225
0.215
0.26
0.25
0.255
0.245
0.255
0.26
0.235
0.29
0.31
0.3
0.305
0.335
0.35
0.33
0.33
0.365
0.355
0.335
0.36
0.365
0.4
0.41
0.405
0.44
0.505
0.5
0.46
0.48
0.53
0.495
0.495
0.515
0.53
0.535
0.55
0.555
0.545
0.565
0.58
0.575
0.54
0.615
0.585
0.57
0.57
0.565
0.53
0.545
0.545
0.51
0.525
0.515
0.515
0.545
0.525
0.45
0.455
0.435
0.415
0.41
0.405
0.42
0.385
0.355
0.355
0.335
0.33
0.335
0.33
0.31
0.275
0.295
0.295
0.255
0.265
0.28
0.2
0.24
0.205
0.195
0.22
0.2
0.19
0.19
0.235
0.22
0.18
0.18
0.175
0.185
0.18
0.18
0.175
0.17
0.205
0.195
0.175
0.16
0.135
0.14
0.18
0.195
0.205
0.22
0.185
0.175
0.17
0.145
0.185
0.165
0.2
0.19
0.175
0.22
0.2
0.155
0.155
0.165
0.16
0.18
0.19
0.185
0.175
0.17
0.17
0.165
0.175
0.17
0.16
0.175
0.205
0.175
0.17
0.185
0.16
0.185
0.15
0.19
0.195
0.155
0.12
0.185
0.2
0.17
0.17
0.175
0.175
0.15
0.16
0.14
0.135
0.17
0.175
0.14
0.185
0.155
0.115
0.14
0.12
0.14
0.15
0.15
0.185
0.185
0.14
0.105
0.175
0.15
0.135
0.15
0.16
0.155
0.15
0.165
0.17
0.14
0.135
0.15
0.135
0.155
0.145
0.135
0.16
0.135
0.145
0.13
0.165
0.15
0.14
0.145
0.145
0.145
0.155
0.16
0.15
0.175
0.175
0.175
0.225
0.17
0.14
0.14
0.175
0.205
0.185
0.195
0.18
0.175
0.16
0.2
0.195
0.23
0.18
0.23
0.215
0.2
0.215
0.22
0.205
0.18
0.19
0.2
0.18
0.21
0.205
0.2
0.23
0.225
0.23
0.205
0.23
0.215
0.2
0.2
0.175
0.155
0.14
0.14
0.16
0.135
0.125
0.125
0.105
0.11
0.145
0.125
0.135
0.12
0.1
0.115
0.14
0.145
0.12
0.11
0.105
0.12
0.1
0.095
0.135
0.125
0.13
0.115
0.12
0.14
0.11
0.115
0.165
0.15
0.15
0.175
0.225
0.235
0.305
0.375
0.485
0.555
0.625
0.71
0.835
0.905
0.95
0.955
0.975
0.89
0.865
0.775
0.655
0.44
0.32
0.23
0.095
0.015
-0.125
-0.24
-0.235
-0.175
-0.165
-0.1
-0.06
-0.015
0.025
0.02
0.055
0.075
0.09
0.09
0.09
0.09
0.09
0.08
0.075
0.11
0.1
0.075
0.12
0.1
0.1
0.095
0.085
0.13
0.125
0.13
0.15
0.12
0.11
0.125
0.155
0.14
0.115
0.14
0.12
0.135
0.17
0.15
0.14
0.145
0.155
0.16
0.155
0.175
0.19
0.165
0.205
0.195
0.165
0.145
0.185
0.17
0.185
0.19
0.205
0.225
0.225
0.225
0.215
0.21
0.215
0.225
0.275
0.26
0.255
0.25
0.27
0.295
0.29
0.33
0.335
0.31
0.34
0.355
0.355
0.355
0.365
0.43
0.38
0.395
0.43
0.44
0.485
0.51
0.49
0.5
0.48
0.48
0.47
0.505
0.545
0.525
0.5
0.515
0.52
0.525
0.55
0.49
0.495
0.52
0.505
0.505
0.475
0.485
0.495
0.475
0.46
0.43
0.425
0.43
0.415
0.39
0.345
0.385
0.34
0.325
0.31
0.29
0.275
0.29
0.28
0.3
0.3
0.235
0.23
0.22
0.22
0.2
0.19
0.195
0.19
0.175
0.16
0.155
0.15
0.155
0.165
0.155
0.125
0.135
0.145
0.125
0.13
0.155
0.15
0.135
0.12
0.125
0.115
0.14
0.135
0.09
0.11
0.135
0.12
0.175
0.115
0.125
0.12
0.11
0.115
0.15
0.11
0.13
0.15
0.17
0.14
0.12
0.12
0.115
0.12
0.12
0.13
0.11
0.13
0.115
0.12
0.115
0.12
0.145
0.135
0.135
0.125
0.1
0.1
0.105
0.12
0.11
0.115
0.1
0.085
0.135
0.125
0.155
0.135
0.13
0.105
0.085
0.11
0.135
0.115
0.11
0.1
0.095
0.105
0.115
0.115
0.095
0.1
0.13
0.125
0.12
0.09
0.07
0.09
0.085
0.11
0.095
0.09
0.09
0.095
0.115
0.12
0.095
0.115
0.065
0.115
0.08
0.09
0.1
0.075
0.11
0.125
0.07
0.095
0.125
0.08
0.09
0.11
0.11
0.08
0.1
0.095
0.105
0.09
0.085
0.125
0.085
0.1
0.1
0.085
0.115
0.16
0.15
0.14
0.16
0.15
0.12
0.16
0.14
0.14
0.135
0.155
0.155
0.195
0.165
0.165
0.145
0.16
0.215
0.185
0.15
0.205
0.14
0.165
0.165
0.155
0.16
0.18
0.175
0.18
0.21
0.18
0.22
0.235
0.195
0.185
0.16
0.135
0.105
0.125
0.165
0.15
0.11
0.13
0.105
0.13
0.09
0.08
0.075
0.095
0.1
0.07
0.09
0.11
0.1
0.085
0.07
0.085
0.07
0.095
0.115
0.1
0.085
0.09
0.08
0.07
0.07
0.09
0.08
0.085
0.115
0.085
0.07
0.135
0.215
0.225
0.32
0.345
0.405
0.53
0.64
0.725
0.87
0.925
0.96
0.98
0.94
0.91
0.835
0.775
0.62
0.425
0.28
0.155
0.065
-0.035
-0.215
-0.315
-0.31
-0.295
-0.225
-0.17
-0.125
-0.055
-0.02
-0.01
-0.04
-0.01
0.005
0.015
0.015
0.02
0.02
0.01
0.035
0.035
0.03
0.04
0.05
0.025
0.025
0.04
0.045
0.03
0.01
0.055
0.045
0.05
0.045
0.065
0.06
0.03
0.065
0.095
0.08
0.075
0.095
0.09
0.065
0.085
0.1
0.1
0.09
0.11
0.095
0.095
0.075
0.06
0.135
0.155
0.155
0.12
0.165
0.195
0.12
0.09
0.115
0.15
0.115
0.13
0.16
0.22
0.24
0.24
0.25
0.355
0.395
0.335
0.34
0.325
0.345
0.335
0.33
0.365
0.32
0.35
0.405
0.41
0.385
0.46
0.445
0.48
0.5
0.505
0.605
0.595
0.645
0.64
0.725
0.77
0.775
0.775
0.75
0.765
0.74
0.71
0.78
0.795
0.81
0.81
0.845
0.94
0.915
0.895
0.87
0.83
0.805
0.77
0.725
0.81
0.795
0.765
0.75
0.715
0.68
0.64
0.635
0.635
0.625
0.62
0.915
0.85
0.78
0.75
0.7
0.655
0.615
0.595
0.55
0.54
0.58
0.55
0.535
0.515
0.505
0.485
0.47
0.46
0.475
0.465
0.445
0.435
0.44
0.475
0.465
0.43
0.415
0.415
0.44
0.425
0.425
0.425
0.435
0.435
0.445
0.455
0.465
0.445
0.44
0.43
0.415
0.425
0.44
0.46
0.43
0.505
0.445
0.425
0.46
0.455
0.415
0.45
0.42
0.44
0.59
0.555
0.64
0.61
0.6
0.6
0.6
0.605
0.6
0.575
0.515
0.545
0.585
0.6
0.645
0.65
0.63
0.645
0.61
0.605
0.61
0.64
0.58
0.56
0.57
0.575
0.565
0.57
0.545
0.555
0.6
0.57
0.545
0.565
0.575
0.57
0.565
0.54
0.565
0.575
0.58
0.56
0.56
0.56
0.55
0.59
0.59
0.625
0.605
0.565
0.575
0.585
0.58
0.565
0.6
0.63
0.69
0.67
0.66
0.625
0.65
0.645
0.62
0.63
0.66
0.625
0.625
0.62
0.635
0.65
0.645
0.67
0.665
0.685
0.675
0.65
0.695
0.68
0.76
0.72
0.73
0.73
0.695
0.72
0.725
0.74
0.735
0.865
0.835
0.83
0.78
0.765
0.755
0.845
0.83
0.78
0.82
0.815
0.84
0.81
0.78
0.8
0.79
0.82
0.83
0.875
0.83
0.815
0.79
0.785
0.805
0.815
0.79
0.75
0.8
0.755
0.74
0.735
0.735
0.745
0.745
0.875
0.815
0.805
0.81
0.79
0.815
0.79
0.76
0.765
0.77
0.795
0.76
0.775
0.785
0.795
0.79
0.79
0.815
0.79
0.805
0.79
0.8
0.785
0.785
0.775
0.835
0.86
0.84
0.915
0.88
0.895
1.03
1.18
1.27
1.325
1.405
1.49
1.575
1.63
1.68
1.7
1.635
1.575
1.52
1.42
1.24
1.05
0.945
0.775
0.67
0.555
0.36
0.32
0.365
0.43
0.465
0.55
0.6
0.605
0.605
0.615
0.685
0.68
0.695
0.72
0.675
0.68
0.705
0.705
0.69
0.7
0.7
0.745
0.745
0.735
0.72
0.725
0.735
0.735
0.75
0.77
0.755
0.75
0.885
0.935
0.88
0.85
0.84
0.87
0.855
0.875
0.855
0.895
0.88
0.865
0.865
0.835
0.895
0.875
0.86
0.86
0.87
0.855
0.89
0.865
0.865
0.93
0.945
0.9
0.915
0.865
0.875
0.925
0.91
0.88
0.92
0.895
0.905
0.925
0.92
0.925
0.94
0.945
0.945
0.96
0.99
0.95
0.95
0.985
1.045
1.055
1.045
1.05
1.175
1.205
1.17
1.165
1.18
1.175
1.15
1.185
1.205
1.2
1.22
1.205
1.185
1.225
1.29
1.285
1.275
1.25
1.19
1.215
1.175
1.195
1.185
1.15
1.135
1.185
1.185
1.14
1.125
1.095
1.09
1.085
1.065
1.06
1.025
1.01
1.025
0.995
0.995
0.995
1.035
0.975
1.035
1.015
0.955
0.975
0.99
0.915
0.905
0.925
0.87
0.895
0.9
0.88
0.86
0.86
0.855
0.845
0.86
0.83
0.845
0.865
0.845
0.845
0.815
0.81
0.855
0.83
0.805
0.81
0.85
0.855
0.835
0.825
0.84
0.86
0.88
0.84
0.825
0.845
0.86
0.85
0.85
0.84
0.875
0.865
0.91
0.89
0.87
0.89
0.895
0.885
0.875
0.89
0.9
0.88
0.885
0.965
0.96
0.925
0.92
0.915
0.91
0.88
0.89
0.92
0.935
0.885
0.915
0.89
0.905
0.925
0.975
0.93
0.895
0.87
0.87
0.905
0.96
0.94
0.925
0.905
0.945
0.92
0.955
0.965
0.955
0.92
0.905
0.925
0.89
0.89
0.88
0.92
0.925
0.835
0.855
0.875
0.88
0.885
0.87
0.85
0.825
0.84
0.915
0.925
0.94
0.935
0.89
0.9
0.895
0.855
0.92
0.905
0.925
0.96
0.925
0.895
0.92
0.925
0.95
0.97
1.0
1.0
0.945
0.965
0.965
1.005
1.015
0.96
0.985
0.99
0.965
0.975
1.0
0.995
0.985
0.985
1.005
0.995
0.965
1.0
1.005
1.025
0.995
0.965
0.975
0.975
1.02
1.02
0.98
0.98
0.955
0.98
1.05
1.03
1.035
1.02
0.99
0.96
0.94
0.965
0.925
0.98
0.97
0.955
0.945
0.93
0.915
0.935
0.94
0.9
0.905
0.91
0.915
0.9
0.91
0.93
0.985
0.92
0.89
0.91
0.92
0.92
0.935
1.03
1.005
0.99
0.995
0.965
0.995
0.995
0.985
0.955
0.985
1.035
1.1
1.18
1.27
1.335
1.39
1.475
1.53
1.705
1.795
1.795
1.795
1.79
1.71
1.645
1.56
1.39
1.25
1.115
0.98
0.795
0.665
0.54
0.555
0.59
0.67
0.74
0.76
0.81
0.835
0.88
0.875
0.885
0.91
0.91
0.925
0.915
0.905
0.92
0.935
0.925
0.94
0.92
0.94
0.96
0.95
0.93
0.93
0.955
0.935
0.935
0.91
0.94
0.94
0.94
0.945
0.935
0.94
0.935
0.94
0.95
0.96
0.955
0.945
0.95
0.99
0.965
0.955
0.95
0.955
0.93
0.955
0.955
0.975
0.965
0.965
0.975
0.97
0.96
0.96
0.975
0.99
1.02
1.035
1.015
1.03
1.03
1.045
1.035
1.065
1.04
1.05
1.07
1.12
1.09
1.11
1.11
1.135
1.13
1.145
1.17
1.18
1.155
1.18
1.205
1.21
1.195
1.235
1.25
1.24
1.24
1.255
1.28
1.275
1.29
1.27
1.25
1.23
1.25
1.225
1.26
1.26
1.27
1.25
1.23
1.22
1.245
1.21
1.175
1.185
1.155
1.15
1.145
1.11
1.085
1.08
1.05
1.06
1.055
1.03
0.995
0.98
0.955
0.965
0.93
0.94
0.895
0.845
0.89
0.86
0.81
0.775
0.81
0.805
0.775
0.765
0.755
0.74
0.755
0.735
0.725
0.725
0.705
0.725
0.705
0.72
0.715
0.69
0.675
0.685
0.675
0.67
0.7
0.695
0.67
0.675
0.68
0.665
0.68
0.68
0.625
0.655
0.65
0.69
0.665
0.635
0.63
0.64
0.625
0.625
0.62
0.645
0.63
0.64
0.635
0.66
0.635
0.59
0.575
0.605
0.61
0.62
0.635
0.615
0.59
0.66
0.58
0.575
0.595
0.605
0.57
0.605
0.615
0.59
0.6
0.595
0.555
0.525
0.52
0.54
0.585
0.605
0.565
0.55
0.575
0.53
0.535
0.525
0.56
0.53
0.515
0.525
0.54
0.535
0.56
0.565
0.53
0.495
0.5
0.505
0.525
0.515
0.505
0.505
0.515
0.5
0.485
0.475
0.475
0.495
0.51
0.51
0.495
0.495
0.49
0.5
0.48
0.51
0.505
0.52
0.49
0.48
0.485
0.515
0.5
0.51
0.49
0.475
0.52
0.52
0.505
0.545
0.5
0.485
0.48
0.54
0.53
0.51
0.49
0.475
0.445
0.465
0.525
0.515
0.475
0.475
0.47
0.505
0.525
0.52
0.495
0.495
0.47
0.465
0.445
0.435
0.435
0.445
0.41
0.385
0.375
0.365
0.4
0.37
0.37
0.39
0.405
0.44
0.39
0.375
0.39
0.37
0.365
0.365
0.355
0.375
0.415
0.365
0.35
0.365
0.365
0.355
0.365
0.385
0.355
0.345
0.37
0.435
0.38
0.41
0.445
0.485
0.535
0.61
0.675
0.76
0.835
0.915
0.99
1.06
1.135
1.125
1.145
1.12
1.11
0.995
0.835
0.625
0.5
0.415
0.285
0.175
-0.015
-0.11
-0.085
-0.035
-0.005
0.115
0.13
0.215
0.22
0.21
0.26
0.275
0.3
0.28
0.27
0.295
0.285
0.265
0.285
0.295
0.31
0.3
0.275
0.27
0.28
0.285
0.27
0.275
0.3
0.305
0.295
0.305
0.32
0.295
0.3
0.275
0.305
0.31
0.295
0.315
0.32
0.305
0.31
0.32
0.305
0.305
0.295
0.305
0.32
0.31
0.31
0.34
0.325
0.32
0.32
0.335
0.34
0.355
0.365
0.335
0.36
0.39
0.37
0.345
0.355
0.375
0.415
0.405
0.395
0.365
0.43
0.425
0.43
0.435
0.465
0.435
0.455
0.47
0.485
0.49
0.51
0.53
0.555
0.555
0.555
0.575
0.575
0.595
0.625
0.59
0.605
0.62
0.625
0.635
0.625
0.61
0.61
0.62
0.645
0.65
0.655
0.64
0.63
0.62
0.595
0.565
0.56
0.57
0.585
0.585
0.55
0.54
0.53
0.475
0.51
0.455
0.435
0.405
0.465
0.415
0.45
0.42
0.355
0.38
0.34
0.35
0.34
0.355
0.335
0.295
0.305
0.29
0.28
0.275
0.25
0.225
0.25
0.275
0.27
0.24
0.24
0.23
0.23
0.205
0.22
0.205
0.21
0.215
0.215
0.21
0.225
0.22
0.215
0.21
0.195
0.2
0.2
0.19
0.205
0.19
0.205
0.195
0.185
0.175
0.235
0.225
0.21
0.225
0.205
0.185
0.18
0.2
0.15
0.16
0.19
0.18
0.21
0.22
0.2
0.205
0.195
0.215
0.19
0.195
0.205
0.18
0.175
0.205
0.17
0.14
0.165
0.145
0.145
0.15
0.16
0.215
0.19
0.19
0.17
0.185
0.205
0.15
0.17
0.165
0.155
0.12
0.16
0.175
0.17
0.165
0.185
0.18
0.155
0.145
0.13
0.135
0.155
0.165
0.13
0.155
0.145
0.16
0.14
0.14
0.135
0.13
0.135
0.125
0.18
0.13
0.15
0.14
0.15
0.125
0.11
0.16
0.17
0.125
0.135
0.165
0.155
0.17
0.13
0.185
0.165
0.16
0.16
0.14
0.195
0.23
0.205
0.16
0.165
0.2
0.205
0.185
0.195
0.215
0.235
0.22
0.185
0.215
0.205
0.185
0.175
0.16
0.195
0.21
0.21
0.21
0.215
0.23
0.23
0.235
0.225
0.185
0.19
0.195
0.18
0.19
0.18
0.135
0.13
0.14
0.125
0.11
0.105
0.11
0.12
0.125
0.1
0.08
0.1
0.115
0.09
0.115
0.155
0.115
0.09
0.1
0.115
0.135
0.125
0.095
0.095
0.1
0.095
0.1
0.11
0.115
0.13
0.135
0.125
0.135
0.2
0.205
0.24
0.335
0.435
0.515
0.6
0.66
0.755
0.855
0.945
0.985
1.01
0.94
0.9
0.855
0.77
0.565
0.4
0.255
0.165
0.075
-0.02
-0.24
-0.275
-0.205
-0.205
-0.145
-0.115
-0.055
-0.035
-0.005
0.02
0.025
0.04
0.075
0.095
0.075
0.1
0.055
0.05
0.08
0.065
0.06
0.075
0.085
0.07
0.06
0.095
0.085
0.105
0.115
0.1
0.08
0.085
0.095
0.065
0.075
0.11
0.105
0.125
0.125
0.115
0.12
0.12
0.165
0.125
0.115
0.13
0.115
0.14
0.145
0.165
0.155
0.155
0.145
0.145
0.14
0.155
0.18
0.19
0.21
0.225
0.175
0.185
0.205
0.205
0.185
0.195
0.24
0.235
0.24
0.23
0.25
0.28
0.26
0.265
0.305
0.315
0.305
0.335
0.345
0.365
0.345
0.37
0.37
0.4
0.375
0.385
0.4
0.425
0.45
0.455
0.465
0.49
0.485
0.45
0.46
0.485
0.47
0.485
0.48
0.465
0.5
0.475
0.47
0.455
0.48
0.45
0.405
0.42
0.42
0.42
0.41
0.41
0.38
0.375
0.37
0.36
0.34
0.32
0.29
0.275
0.285
0.29
0.255
0.24
0.21
0.23
0.195
0.195
0.17
0.19
0.175
0.15
0.175
0.14
0.165
0.145
0.115
0.125
0.14
0.105
0.1
0.12
0.11
0.09
0.095
0.09
0.09
0.09
0.09
0.075
0.07
0.095
0.055
0.085
0.1
0.1
0.09
0.1
0.105
0.09
0.07
0.09
0.08
0.075
0.07
0.105
0.08
0.075
0.115
0.12
0.1
0.065
0.06
0.085
0.07
0.07
0.08
0.07
0.095
0.1
0.075
0.09
0.075
0.05
0.075
0.08
0.07
0.08
0.085
0.09
0.09
0.075
0.065
0.06
0.1
0.085
0.075
0.05
0.07
0.07
0.065
0.065
0.065
0.065
0.035
0.04
0.07
0.075
0.065
0.055
0.06
0.055
0.04
0.055
0.08
0.05
0.03
0.04
0.055
0.075
0.08
0.045
0.03
0.015
0.065
0.04
0.035
0.045
0.05
0.06
0.045
0.06
0.07
0.035
0.05
0.045
0.05
0.035
0.04
0.055
0.07
0.03
0.04
0.035
0.075
0.06
0.05
0.06
0.07
0.12
0.08
0.085
0.075
0.065
0.055
0.07
0.06
0.08
0.1
0.14
0.11
0.095
0.12
0.125
0.12
0.075
0.105
0.135
0.135
0.14
0.115
0.14
0.11
0.08
0.11
0.115
0.12
0.15
0.13
0.125
0.17
0.13
0.145
0.17
0.12
0.1
0.09
0.1
0.08
0.08
0.055
0.065
0.05
0.02
0.05
0.04
0.045
0.07
0.03
0.025
0.03
0.015
0.015
0.055
0.075
0.055
0.005
0.02
0.005
0.02
0.035
0.05
0.035
0.02
0.05
0.015
0.025
0.03
0.035
0.035
0.065
0.075
0.08
0.115
0.145
0.23
0.335
0.415
0.51
0.615
0.695
0.79
0.88
0.925
0.925
0.93
0.89
0.86
0.8
0.585
0.385
0.26
0.12
0.01
-0.05
-0.225
-0.35
-0.34
-0.305
-0.245
-0.195
-0.15
-0.14
-0.11
-0.04
-0.03
-0.02
-0.025
-0.005
-0.005
-0.025
-0.01
-0.015
0.005
-0.035
-0.03
-0.01
0.0
0.02
0.005
0.01
0.025
0.035
0.01
0.005
0.005
0.015
0.04
0.04
0.04
0.03
0.025
0.04
0.075
0.03
0.055
0.075
0.06
0.045
0.06
0.07
0.06
0.05
0.035
0.085
0.115
0.085
0.08
0.1
0.1
0.1
0.105
0.11
0.12
0.115
0.13
0.13
0.145
0.14
0.135
0.18
0.16
0.15
0.155
0.175
0.195
0.205
0.225
0.225
0.255
0.225
0.25
0.26
0.255
0.26
0.32
0.33
0.335
0.335
0.335
0.335
0.35
0.385
0.39
0.39
0.415
0.37
0.425
0.4
0.41
0.41
0.415
0.4
0.415
0.42
0.44
0.445
0.42
0.405
0.415
0.38
0.4
0.37
0.35
0.345
0.36
0.335
0.32
0.31
0.3
0.285
0.26
0.25
0.24
0.22
0.235
0.235
0.225
0.205
0.21
0.155
0.16
0.16
0.105
0.115
0.125
0.115
0.12
0.1
0.1
0.045
0.035
0.05
0.045
0.07
0.05
0.065
0.06
0.08
0.035
0.045
0.055
0.035
0.03
0.01
0.0
0.03
0.05
0.035
0.03
0.025
0.015
0.035
0.02
0.02
0.055
0.03
0.03
0.02
0.035
0.03
0.04
0.035
0.02
-0.015
0.05
0.045
0.015
0.04
0.065
0.065
0.0
0.0
0.0
0.005
0.02
0.03
0.035
0.04
0.02
0.03
-0.005
-0.01
0.01
0.015
0.03
0.035
0.04
0.015
0.015
0.005
0.005
0.035
0.055
0.01
0.02
0.005
0.0
0.01
0.02
0.02
0.015
-0.005
0.0
0.02
0.005
0.0
-0.015
0.005
0.005
0.015
0.04
0.005
0.0
0.025
0.055
0.045
0.03
-0.05
-0.005
-0.005
0.01
0.005
0.015
-0.02
-0.005
-0.03
-0.005
0.025
0.015
0.02
0.0
0.02
-0.005
-0.02
-0.01
-0.015
-0.03
0.01
0.02
-0.025
0.01
0.015
0.03
0.015
0.01
-0.005
0.01
0.01
0.005
0.015
0.01
0.02
0.01
0.02
0.02
0.015
0.04
0.035
0.03
0.03
0.065
0.045
0.055
0.055
0.035
0.075
0.07
0.08
0.085
0.085
0.055
0.045
0.095
0.08
0.08
0.12
0.095
0.085
0.05
0.045
0.075
0.1
0.11
0.115
0.115
0.1
0.11
0.135
0.11
0.11
0.085
0.035
0.045
0.03
0.045
0.06
0.025
0.015
0.0
0.035
0.0
0.015
0.0
-0.005
0.01
0.03
0.01
0.02
0.01
0.02
0.0
0.0
-0.02
0.025
0.01
0.03
0.005
0.01
0.02
0.005
-0.005
-0.02
-0.015
0.015
0.04
0.055
0.04
0.03
0.05
0.07
0.12
0.19
0.27
0.39
0.485
0.55
0.63
0.765
0.825
0.86
0.9
0.885
0.845
0.785
0.72
0.565
0.36
0.24
0.095
-0.08
-0.19
-0.355
-0.375
-0.335
-0.315
-0.305
-0.235
-0.19
-0.11
-0.11
-0.04
-0.055
-0.05
-0.045
-0.035
-0.005
-0.025
-0.03
0.005
0.0
-0.02
-0.005
0.005
-0.005
-0.02
-0.005
-0.02
0.0
-0.01
0.03
0.02
0.025
0.025
0.03
0.005
0.0
0.005
0.01
0.01
0.03
0.065
0.03
0.02
0.035
0.05
0.08
0.06
0.06
0.04
0.05
0.085
0.05
0.075
0.085
0.095
0.1
0.135
0.115
0.065
0.11
0.15
0.17
0.11
0.135
0.135
0.14
0.13
0.145
0.155
0.19
0.195
0.175
0.13
0.205
0.225
0.225
0.225
0.25
0.245
0.25
0.285
0.23
0.275
0.335
0.35
0.33
0.34
0.35
0.38
0.395
0.39
0.38
0.405
0.415
0.41
0.43
0.41
0.42
0.435
0.42
0.41
0.415
0.405
0.4
0.41
0.39
0.41
0.385
0.39
0.395
0.34
0.305
0.33
0.33
0.335
0.335
0.315
0.295
0.275
0.255
0.215
0.235
0.22
0.23
0.215
0.22
0.17
0.155
0.145
0.145
0.155
0.12
0.12
0.085
0.13
0.09
0.09
0.075
0.09
0.09
0.07
0.055
0.045
0.055
0.07
0.075
0.045
0.03
0.08
0.045
0.045
0.045
0.065
0.045
0.095
0.055
0.03
0.06
0.055
0.03
0.045
0.05
0.055
0.025
0.07
0.055
0.055
0.065
0.07
0.04
0.04
0.055
0.07
0.05
0.045
0.025
0.05
0.06
0.05
0.07
0.07
0.025
0.04
0.025
0.05
0.08
0.035
0.015
0.035
0.045
0.04
0.035
0.055
0.065
0.095
0.05
0.055
0.07
0.015
0.015
0.045
0.03
0.035
0.04
0.055
0.075
0.045
0.03
0.015
0.025
0.015
0.035
0.055
0.05
0.045
0.045
-0.005
-0.005
0.025
0.035
0.03
-0.005
0.02
0.01
0.05
0.04
0.03
0.035
0.05
0.015
0.02
0.02
0.035
0.04
0.025
0.01
0.025
0.01
0.025
0.025
0.035
0.055
0.04
0.055
0.035
0.015
0.01
0.025
0.01
0.0
0.04
0.0
0.015
0.035
0.06
0.04
0.035
0.05
0.065
0.035
0.045
0.065
0.05
0.055
0.075
0.05
0.035
0.075
0.105
0.075
0.07
0.115
0.11
0.105
0.105
0.1
0.09
0.09
0.08
0.085
0.07
0.095
0.06
0.07
0.11
0.11
0.105
0.095
0.085
0.1
0.115
0.105
0.1
0.065
0.105
0.095
0.085
0.03
0.05
0.045
0.03
0.03
0.015
-0.01
0.01
0.01
0.005
0.045
0.02
0.005
-0.01
0.025
0.04
0.015
0.04
0.04
0.035
0.055
-0.02
-0.01
0.035
0.025
-0.005
0.005
0.005
0.02
0.02
0.025
0.04
0.065
0.06
0.095
0.09
0.14
0.215
0.275
0.365
0.45
0.49
0.605
0.75
0.81
0.84
0.86
0.835
0.77
0.745
0.69
0.51
0.315
0.205
0.075
-0.06
-0.155
-0.28
-0.35
-0.34
-0.305
-0.245
-0.2
-0.14
-0.105
-0.08
-0.04
-0.035
-0.03
-0.035
0.015
0.015
-0.01
0.03
0.05
0.005
0.0
-0.005
0.01
0.06
0.015
0.0
0.0
0.015
0.045
0.03
0.04
0.045
0.06
0.025
0.03
0.055
0.065
0.05
0.055
0.045
0.06
0.08
0.065
0.05
0.05
0.085
0.085
0.07
0.06
0.09
0.11
0.115
0.12
0.07
0.08
0.12
0.11
0.12
0.14
0.145
0.155
0.16
0.16
0.16
0.15
0.145
0.18
0.19
0.17
0.17
0.195
0.2
0.23
0.22
0.215
0.22
0.235
0.255
0.275
0.3
0.325
0.315
0.34
0.35
0.345
0.335
0.35
0.365
0.405
0.39
0.395
0.415
0.4
0.45
0.44
0.435
0.425
0.44
0.46
0.455
0.445
0.44
0.415
0.46
0.42
0.42
0.435
0.42
0.405
0.395
0.385
0.36
0.345
0.325
0.325
0.3
0.305
0.315
0.29
0.29
0.28
0.265
0.22
0.215
0.205
0.205
0.19
0.19
0.155
0.17
0.16
0.155
0.145
0.16
0.12
0.11
0.105
0.09
0.11
0.085
0.105
0.1
0.075
0.07
0.045
0.06
0.065
0.055
0.075
0.07
0.075
0.06
0.055
0.06
0.05
0.05
0.08
0.045
0.055
0.085
0.095
0.055
0.045
0.03
0.09
0.09
0.08
0.08
0.07
0.075
0.075
0.065
0.055
0.055
0.07
0.05
0.085
0.05
0.055
0.065
0.085
0.08
0.065
0.07
0.05
0.055
0.045
0.065
0.08
0.07
0.07
0.08
0.095
0.025
0.03
0.035
0.055
0.05
0.06
0.075
0.08
0.055
0.055
0.055
0.065
0.05
0.04
0.03
0.08
0.06
0.015
0.025
0.045
0.05
0.04
0.06
0.04
0.04
0.055
0.05
0.02
0.035
0.03
0.01
0.05
0.06
0.045
0.065
0.04
0.055
0.05
0.0
0.01
0.035
0.005
0.03
0.025
0.05
0.045
0.035
0.045
0.015
0.025
0.05
0.035
0.035
0.055
0.055
0.055
0.045
0.04
0.02
0.03
0.045
0.02
0.045
0.05
0.07
0.05
0.07
0.085
0.06
0.095
0.085
0.06
0.065
0.065
0.08
0.08
0.13
0.1
0.07
0.085
0.11
0.105
0.12
0.11
0.09
0.125
0.095
0.08
0.075
0.05
0.095
0.11
0.095
0.11
0.095
0.125
0.14
0.1
0.08
0.09
0.075
0.04
0.05
0.06
0.085
0.065
0.01
0.0
-0.005
0.01
0.025
0.0
0.02
0.015
0.01
0.02
0.025
0.0
0.01
0.01
0.005
0.025
-0.005
0.035
0.02
0.02
0.03
0.005
0.0
0.0
0.005
0.0
0.035
0.035
0.04
0.045
0.075
0.11
0.125
0.185
0.305
0.385
0.43
0.49
0.6
0.7
0.815
0.85
0.83
0.835
0.775
0.72
0.65
0.49
0.335
0.235
0.075
-0.055
-0.115
-0.295
-0.34
-0.305
-0.28
-0.275
-0.215
-0.155
-0.115
-0.08
-0.085
-0.045
-0.05
-0.015
-0.025
-0.015
-0.015
-0.03
0.015
0.015
0.005
-0.02
-0.02
-0.01
-0.005
-0.02
-0.015
0.01
0.03
0.01
0.01
0.005
0.02
0.045
0.005
0.015
0.05
0.045
0.025
0.025
0.035
0.045
0.03
0.025
0.05
0.04
0.04
0.075
0.06
0.075
0.06
0.055
0.045
0.075
0.075
0.07
0.075
0.09
0.09
0.105
0.1
0.105
0.12
0.105
0.12
0.125
0.145
0.135
0.14
0.135
0.175
0.18
0.185
0.23
0.195
0.19
0.225
0.24
0.235
0.24
0.27
0.27
0.285
0.305
0.335
0.315
0.32
0.345
0.335
0.345
0.365
0.4
0.41
0.395
0.415
0.405
0.405
0.405
0.41
0.405
0.415
0.39
0.415
0.405
0.39
0.36
0.44
0.41
0.345
0.355
0.33
0.35
0.32
0.35
0.34
0.3
0.31
0.285
0.26
0.225
0.225
0.235
0.2
0.23
0.2
0.175
0.19
0.165
0.165
0.145
0.13
0.125
0.105
0.135
0.095
0.1
0.09
0.08
0.055
0.07
0.065
0.06
0.015
0.015
0.065
0.06
0.06
0.055
0.06
0.035
0.035
0.015
0.01
0.025
0.035
0.05
0.065
0.06
0.04
0.0
0.01
0.04
0.04
0.03
0.055
0.03
0.005
0.03
0.04
0.025
0.04
0.035
0.05
0.065
0.045
0.03
0.04
0.04
0.02
0.035
0.02
0.03
0.035
0.055
0.03
0.04
0.03
0.04
0.04
0.035
0.02
0.025
0.01
0.02
0.025
0.02
0.03
0.03
-0.005
0.01
0.02
0.005
0.0
0.02
0.035
0.02
0.005
-0.015
0.02
0.01
0.02
-0.005
0.015
0.025
0.01
0.025
0.01
0.005
0.0
0.02
0.005
0.005
-0.005
-0.01
-0.005
0.02
-0.015
-0.015
0.02
0.04
0.01
0.0
0.0
0.01
0.04
-0.015
0.015
-0.02
-0.025
-0.02
0.015
0.025
0.03
0.0
-0.01
-0.01
0.0
-0.025
0.01
-0.015
-0.01
-0.01
0.015
0.01
0.025
0.015
-0.01
-0.015
0.02
0.005
-0.01
-0.005
0.025
0.05
0.03
0.005
0.055
0.04
0.03
0.04
0.01
0.005
0.005
0.05
0.07
0.09
0.09
0.08
0.075
0.09
0.085
0.05
0.09
0.08
0.085
0.095
0.085
0.09
0.055
0.055
0.045
0.085
0.08
0.08
0.075
0.085
0.11
0.13
0.08
0.06
0.06
0.05
0.02
0.03
0.035
0.045
-0.01
-0.02
-0.015
0.0
-0.03
-0.03
-0.01
-0.025
-0.01
0.015
-0.005
-0.03
-0.015
-0.03
-0.025
0.0
-0.03
-0.02
0.0
-0.005
0.015
0.0
-0.03
0.015
0.01
-0.03
-0.025
0.0
0.01
0.025
-0.01
0.01
0.055
0.09
0.12
0.255
0.32
0.42
0.49
0.595
0.705
0.78
0.85
0.835
0.82
0.76
0.745
0.65
0.525
0.38
0.22
0.065
-0.02
-0.09
-0.285
-0.4
-0.38
-0.315
-0.295
-0.285
-0.205
-0.145
-0.11
-0.125
-0.105
-0.075
-0.035
-0.045
-0.045
-0.045
-0.025
-0.035
-0.025
-0.08
-0.065
-0.055
-0.03
-0.045
-0.045
-0.055
-0.035
-0.04
-0.025
-0.005
-0.05
-0.02
0.01
0.0
-0.04
0.035
0.01
0.01
-0.015
0.0
0.005
0.0
0.01
0.005
0.0
0.01
0.0
0.04
0.02
0.015
0.005
0.03
0.045
0.04
0.045
0.055
0.08
0.075
0.065
0.04
0.04
0.06
0.09
0.085
0.125
0.1
0.085
0.095
0.14
0.14
0.145
0.165
0.15
0.16
0.155
0.165
0.195
0.185
0.2
0.215
0.225
0.255
0.26
0.26
0.27
0.28
0.29
0.325
0.31
0.3
0.325
0.33
0.37
0.355
0.375
0.385
0.365
0.375
0.385
0.36
0.37
0.345
0.36
0.34
0.355
0.375
0.355
0.355
0.345
0.31
0.31
0.295
0.3
0.275
0.275
0.255
0.27
0.235
0.205
0.165
0.205
0.18
0.155
0.17
0.125
0.115
0.115
0.135
0.13
0.11
0.06
0.09
0.075
0.055
0.055
0.06
0.035
0.015
0.015
0.015
0.01
0.005
-0.02
0.03
0.03
0.02
-0.01
-0.01
-0.01
0.015
0.0
-0.025
-0.035
0.015
0.03
0.025
-0.015
-0.005
-0.035
-0.035
-0.035
0.015
-0.005
-0.01
-0.025
0.02
-0.005
-0.005
-0.005
0.0
-0.005
-0.02
-0.01
0.01
0.015
-0.02
-0.025
-0.02
-0.005
-0.03
0.0
0.015
0.015
0.015
-0.035
-0.055
-0.015
0.0
0.0
-0.005
-0.01
0.01
-0.055
0.025
-0.02
-0.005
0.02
-0.01
-0.035
-0.025
-0.03
-0.01
-0.03
-0.01
-0.005
-0.035
-0.05
-0.01
-0.045
-0.03
-0.01
-0.03
-0.005
-0.015
-0.02
-0.03
-0.03
-0.05
-0.03
-0.025
-0.055
-0.045
-0.065
-0.055
-0.035
-0.01
-0.035
-0.02
-0.03
-0.04
-0.03
-0.01
-0.025
