# TIPE ECG 2021 - ECG-ID Database v1.0.0 par Physionet
# [N° de la personne, N° de l'enregistrement, Période d'échantillonnage, Prénom, Age, Sexe, Date de l'enregistrement]
[72, 7, 0.002, "Thibaut", 39, "H", "12.05.2005"]
0.51
0.475
0.495
0.525
0.57
0.555
0.525
0.505
0.465
0.47
0.5
0.51
0.55
0.56
0.56
0.58
0.575
0.53
0.49
0.495
0.525
0.485
0.515
0.555
0.515
0.52
0.52
0.565
0.6
0.58
0.54
0.52
0.495
0.53
0.555
0.545
0.545
0.495
0.485
0.51
0.545
0.49
0.52
0.56
0.57
0.56
0.535
0.48
0.51
0.525
0.48
0.515
0.535
0.53
0.535
0.56
0.525
0.515
0.515
0.51
0.48
0.495
0.485
0.515
0.485
0.5
0.535
0.505
0.49
0.5
0.5
0.495
0.49
0.505
0.505
0.48
0.475
0.455
0.47
0.48
0.43
0.4
0.51
0.58
0.59
0.545
0.505
0.465
0.445
0.44
0.48
0.57
0.51
0.495
0.46
0.485
0.46
0.48
0.51
0.505
0.525
0.51
0.495
0.505
0.485
0.475
0.52
0.5
0.48
0.485
0.52
0.55
0.555
0.495
0.49
0.495
0.52
0.525
0.56
0.59
0.555
0.59
0.575
0.565
0.575
0.555
0.605
0.58
0.595
0.595
0.6
0.6
0.605
0.565
0.53
0.51
0.555
0.555
0.53
0.53
0.525
0.52
0.48
0.45
0.52
0.5
0.515
0.565
0.58
0.545
0.54
0.51
0.5
0.5
0.465
0.455
0.465
0.465
0.495
0.485
0.475
0.485
0.505
0.495
0.48
0.46
0.445
0.475
0.455
0.45
0.5
0.465
0.43
0.43
0.41
0.43
0.48
0.465
0.475
0.45
0.525
0.5
0.535
0.59
0.615
0.67
0.755
0.885
0.945
1.035
1.135
1.19
1.23
1.28
1.32
1.295
1.225
1.14
1.07
0.915
0.775
0.69
0.56
0.43
0.385
0.24
0.205
0.235
0.27
0.29
0.345
0.35
0.395
0.425
0.44
0.42
0.42
0.43
0.52
0.535
0.52
0.5
0.495
0.485
0.475
0.5
0.49
0.465
0.465
0.49
0.495
0.48
0.5
0.535
0.545
0.5
0.485
0.485
0.485
0.525
0.495
0.54
0.55
0.55
0.575
0.545
0.535
0.555
0.52
0.535
0.555
0.57
0.565
0.545
0.545
0.57
0.555
0.57
0.585
0.63
0.56
0.575
0.605
0.595
0.625
0.595
0.59
0.605
0.6
0.59
0.57
0.61
0.625
0.645
0.645
0.625
0.645
0.7
0.755
0.76
0.76
0.75
0.755
0.72
0.715
0.715
0.755
0.805
0.815
0.855
0.83
0.8
0.835
0.865
0.875
0.865
0.815
0.84
0.885
0.845
0.865
0.87
0.93
0.925
0.94
0.925
0.915
0.87
0.88
0.875
0.87
0.835
0.86
0.84
0.82
0.78
0.815
0.805
0.75
0.715
0.745
0.735
0.705
0.725
0.67
0.675
0.675
0.63
0.645
0.67
0.625
0.59
0.575
0.61
0.565
0.6
0.59
0.535
0.56
0.52
0.54
0.515
0.505
0.51
0.485
0.515
0.52
0.495
0.495
0.47
0.405
0.415
0.475
0.505
0.53
0.56
0.47
0.475
0.475
0.5
0.495
0.465
0.45
0.465
0.46
0.47
0.51
0.545
0.49
0.475
0.44
0.44
0.485
0.515
0.52
0.51
0.48
0.495
0.495
0.515
0.51
0.495
0.495
0.51
0.525
0.51
0.515
0.505
0.47
0.455
0.43
0.49
0.495
0.505
0.52
0.53
0.55
0.455
0.475
0.485
0.445
0.475
0.485
0.465
0.47
0.5
0.465
0.46
0.46
0.445
0.53
0.53
0.57
0.55
0.57
0.57
0.54
0.495
0.475
0.475
0.475
0.475
0.435
0.435
0.485
0.465
0.485
0.445
0.5
0.475
0.48
0.505
0.465
0.475
0.44
0.525
0.51
0.505
0.475
0.465
0.43
0.515
0.5
0.51
0.57
0.505
0.475
0.495
0.495
0.49
0.445
0.45
0.475
0.47
0.445
0.46
0.5
0.485
0.48
0.465
0.49
0.46
0.455
0.46
0.48
0.465
0.475
0.465
0.46
0.44
0.4
0.42
0.39
0.455
0.46
0.49
0.465
0.48
0.535
0.51
0.475
0.46
0.47
0.52
0.485
0.465
0.455
0.425
0.415
0.465
0.44
0.485
0.495
0.48
0.44
0.47
0.52
0.485
0.51
0.54
0.5
0.535
0.535
0.505
0.495
0.505
0.485
0.525
0.575
0.585
0.595
0.57
0.58
0.57
0.555
0.575
0.555
0.465
0.52
0.58
0.57
0.5
0.52
0.53
0.52
0.55
0.55
0.505
0.5
0.47
0.445
0.47
0.46
0.44
0.45
0.435
0.45
0.46
0.43
0.49
0.445
0.445
0.44
0.4
0.4
0.46
0.455
0.48
0.51
0.46
0.485
0.475
0.485
0.44
0.415
0.41
0.37
0.435
0.48
0.48
0.48
0.44
0.46
0.47
0.445
0.465
0.43
0.385
0.51
0.625
0.73
0.81
0.865
0.885
0.98
1.135
1.235
1.275
1.3
1.32
1.245
1.205
1.155
1.015
0.83
0.73
0.58
0.42
0.37
0.21
0.165
0.265
0.35
0.345
0.35
0.39
0.385
0.375
0.41
0.385
0.42
0.41
0.41
0.435
0.46
0.455
0.44
0.45
0.495
0.53
0.51
0.46
0.455
0.475
0.48
0.46
0.455
0.485
0.445
0.425
0.435
0.475
0.49
0.465
0.505
0.485
0.47
0.45
0.495
0.55
0.575
0.56
0.55
0.475
0.53
0.49
0.475
0.52
0.515
0.515
0.54
0.545
0.56
0.59
0.55
0.53
0.53
0.55
0.59
0.58
0.525
0.505
0.52
0.56
0.535
0.565
0.625
0.615
0.62
0.665
0.655
0.625
0.64
0.64
0.64
0.66
0.705
0.705
0.695
0.71
0.69
0.77
0.765
0.775
0.785
0.855
0.85
0.86
0.83
0.85
0.875
0.84
0.82
0.835
0.75
0.775
0.88
0.93
0.905
0.9
0.865
0.855
0.83
0.845
0.82
0.86
0.81
0.79
0.82
0.775
0.77
0.81
0.8
0.76
0.715
0.725
0.65
0.645
0.63
0.595
0.615
0.6
0.585
0.54
0.535
0.475
0.5
0.49
0.465
0.48
0.525
0.545
0.5
0.455
0.495
0.445
0.41
0.49
0.55
0.545
0.52
0.43
0.43
0.455
0.44
0.495
0.5
0.46
0.49
0.515
0.455
0.395
0.36
0.385
0.43
0.44
0.49
0.455
0.415
0.42
0.455
0.46
0.445
0.395
0.395
0.385
0.43
0.445
0.425
0.41
0.415
0.43
0.425
0.425
0.45
0.47
0.475
0.46
0.45
0.425
0.41
0.355
0.405
0.455
0.415
0.425
0.44
0.415
0.445
0.485
0.46
0.46
0.47
0.45
0.445
0.455
0.44
0.445
0.43
0.45
0.435
0.405
0.455
0.51
0.405
0.41
0.445
0.455
0.425
0.395
0.4
0.43
0.405
0.405
0.415
0.495
0.525
0.485
0.465
0.51
0.475
0.46
0.415
0.42
0.455
0.445
0.455
0.37
0.39
0.4
0.385
0.4
0.355
0.42
0.395
0.43
0.42
0.42
0.41
0.405
0.43
0.41
0.42
0.45
0.375
0.34
0.36
0.42
0.435
0.475
0.47
0.435
0.425
0.435
0.41
0.42
0.375
0.385
0.385
0.42
0.435
0.44
0.44
0.44
0.44
0.415
0.455
0.42
0.355
0.38
0.415
0.38
0.315
0.315
0.355
0.465
0.45
0.405
0.355
0.425
0.45
0.445
0.395
0.37
0.415
0.4
0.41
0.425
0.455
0.42
0.435
0.435
0.42
0.415
0.46
0.47
0.465
0.48
0.5
0.505
0.475
0.515
0.49
0.47
0.465
0.435
0.48
0.505
0.51
0.5
0.495
0.505
0.5
0.455
0.465
0.475
0.505
0.495
0.445
0.46
0.475
0.485
0.45
0.42
0.475
0.435
0.42
0.405
0.39
0.365
0.415
0.45
0.43
0.415
0.375
0.38
0.415
0.38
0.395
0.365
0.465
0.435
0.395
0.42
0.405
0.405
0.415
0.39
0.35
0.395
0.415
0.35
0.335
0.35
0.36
0.385
0.365
0.385
0.43
0.435
0.395
0.4
0.445
0.49
0.545
0.625
0.69
0.735
0.8
0.885
0.99
1.075
1.17
1.2
1.23
1.23
1.19
1.155
1.09
0.91
0.69
0.585
0.485
0.38
0.315
0.175
0.06
0.12
0.17
0.23
0.325
0.375
0.37
0.335
0.305
0.315
0.365
0.385
0.38
0.38
0.325
0.4
0.45
0.47
0.415
0.45
0.425
0.395
0.42
0.375
0.455
0.435
0.41
0.395
0.43
0.44
0.465
0.465
0.47
0.475
0.415
0.415
0.47
0.465
0.455
0.475
0.475
0.43
0.43
0.475
0.49
0.465
0.46
0.435
0.425
0.43
0.435
0.48
0.53
0.57
0.53
0.505
0.42
0.43
0.475
0.465
0.46
0.525
0.555
0.54
0.55
0.56
0.6
0.63
0.625
0.565
0.58
0.555
0.58
0.59
0.57
0.585
0.59
0.615
0.665
0.67
0.705
0.735
0.755
0.695
0.7
0.76
0.75
0.73
0.74
0.775
0.8
0.805
0.795
0.81
0.82
0.78
0.805
0.76
0.765
0.85
0.795
0.795
0.785
0.75
0.765
0.785
0.785
0.77
0.745
0.74
0.72
0.745
0.715
0.68
0.635
0.69
0.655
0.61
0.575
0.625
0.605
0.595
0.56
0.53
0.5
0.5
0.53
0.485
0.44
0.425
0.47
0.445
0.445
0.44
0.45
0.445
0.4
0.365
0.385
0.425
0.41
0.41
0.4
0.33
0.33
0.375
0.41
0.46
0.41
0.405
0.41
0.44
0.4
0.385
0.385
0.39
0.43
0.445
0.465
0.415
0.435
0.425
0.37
0.385
0.405
0.38
0.4
0.425
0.42
0.415
0.445
0.385
0.395
0.375
0.37
0.355
0.36
0.395
0.4
0.395
0.365
0.4
0.395
0.38
0.4
0.405
0.455
0.455
0.435
0.395
0.415
0.42
0.405
0.415
0.41
0.385
0.395
0.39
0.395
0.435
0.41
0.4
0.395
0.445
0.44
0.44
0.425
0.42
0.4
0.43
0.425
0.395
0.41
0.425
0.375
0.385
0.38
0.415
0.41
0.41
0.365
0.29
0.345
0.395
0.425
0.475
0.405
0.4
0.385
0.37
0.385
0.405
0.415
0.41
0.385
0.385
0.375
0.41
0.37
0.425
0.44
0.43
0.42
0.375
0.385
0.375
0.405
0.385
0.39
0.4
0.365
0.375
0.385
0.365
0.37
0.395
0.38
0.4
0.39
0.33
0.41
0.425
0.405
0.395
0.39
0.395
0.36
0.37
0.39
0.36
0.405
0.42
0.375
0.365
0.345
0.38
0.375
0.365
0.37
0.385
0.34
0.375
0.415
0.41
0.38
0.34
0.355
0.37
0.385
0.34
0.355
0.355
0.34
0.36
0.355
0.35
0.365
0.38
0.375
0.355
0.405
0.455
0.445
0.405
0.42
0.44
0.425
0.39
0.365
0.395
0.425
0.48
0.475
0.49
0.505
0.53
0.52
0.505
0.485
0.475
0.455
0.485
0.485
0.435
0.48
0.51
0.46
0.46
0.47
0.445
0.42
0.42
0.41
0.395
0.405
0.38
0.37
0.35
0.4
0.43
0.395
0.335
0.325
0.365
0.42
0.405
0.365
0.32
0.32
0.3
0.34
0.345
0.38
0.345
0.34
0.37
0.415
0.44
0.425
0.42
0.395
0.39
0.385
0.34
0.36
0.345
0.325
0.38
0.37
0.38
0.35
0.41
0.41
0.365
0.4
0.5
0.585
0.66
0.685
0.715
0.895
1.055
1.12
1.16
1.175
1.215
1.175
1.16
1.135
1.05
0.885
0.675
0.5
0.43
0.39
0.325
0.18
0.125
0.13
0.19
0.24
0.28
0.325
0.31
0.335
0.33
0.305
0.355
0.395
0.395
0.41
0.375
0.395
0.395
0.39
0.39
0.39
0.425
0.375
0.315
0.34
0.325
0.35
0.4
0.445
0.385
0.4
0.455
0.44
0.42
0.395
0.4
0.435
0.435
0.44
0.43
0.41
0.405
0.38
0.385
0.38
0.39
0.41
0.405
0.435
0.455
0.485
0.44
0.46
0.47
0.46
0.44
0.455
0.505
0.52
0.52
0.485
0.46
0.53
0.52
0.53
0.5
0.5
0.57
0.595
0.53
0.56
0.555
0.535
0.585
0.585
0.53
0.585
0.595
0.565
0.585
0.6
0.665
0.715
0.7
0.7
0.715
0.71
0.725
0.725
0.755
0.74
0.735
0.72
0.75
0.81
0.88
0.88
0.825
0.795
0.8
0.77
0.775
0.765
0.79
0.77
0.735
0.725
0.755
0.755
0.745
0.735
0.73
0.685
0.675
0.63
0.64
0.67
0.7
0.625
0.575
0.56
0.525
0.515
0.505
0.45
0.46
0.485
0.485
0.46
0.45
0.495
0.505
0.51
0.49
0.455
0.415
0.42
0.405
0.365
0.4
0.43
0.43
0.395
0.39
0.345
0.35
0.405
0.405
0.435
0.435
0.39
0.43
0.42
0.43
0.395
0.385
0.365
0.365
0.365
0.345
0.355
0.355
0.395
0.425
0.42
0.42
0.4
0.37
0.385
0.38
0.41
0.415
0.405
0.415
0.415
0.405
0.395
0.38
0.425
0.42
0.375
0.37
0.415
0.4
0.375
0.29
0.325
0.365
0.39
0.44
0.405
0.39
0.395
0.395
0.4
0.38
0.375
0.365
0.39
0.385
0.395
0.4
0.335
0.38
0.435
0.37
0.39
0.405
0.445
0.41
0.415
0.43
0.465
0.435
0.435
0.41
0.355
0.365
0.365
0.395
0.41
0.405
0.405
0.37
0.39
0.415
0.4
0.405
0.455
0.46
0.41
0.325
0.37
0.38
0.385
0.43
0.375
0.34
0.37
0.34
0.36
0.385
0.39
0.36
0.355
0.36
0.38
0.425
0.45
0.43
0.425
0.41
0.385
0.335
0.32
0.34
0.35
0.405
0.395
0.425
0.405
0.415
0.36
0.35
0.365
0.34
0.31
0.285
0.385
0.355
0.39
0.46
0.42
0.395
0.435
0.41
0.37
0.38
0.365
0.4
0.38
0.385
0.385
0.395
0.395
0.4
0.34
0.35
0.34
0.385
0.35
0.34
0.34
0.355
0.335
0.4
0.4
0.4
0.395
0.4
0.385
0.39
0.425
0.37
0.375
0.36
0.32
0.375
0.46
0.435
0.43
0.435
0.43
0.42
0.4
0.415
0.385
0.395
0.445
0.485
0.465
0.46
0.455
0.5
0.52
0.5
0.49
0.51
0.515
0.475
0.4
0.35
0.4
0.475
0.47
0.465
0.455
0.45
0.435
0.475
0.385
0.365
0.46
0.46
0.395
0.405
0.375
0.415
0.38
0.33
0.325
0.32
0.37
0.37
0.325
0.355
0.355
0.34
0.335
0.4
0.355
0.305
0.335
0.37
0.37
0.405
0.4
0.395
0.38
0.4
0.345
0.32
0.365
0.365
0.385
0.415
0.39
0.39
0.4
0.445
0.495
0.45
0.56
0.62
0.69
0.79
0.91
1.01
1.085
1.14
1.195
1.21
1.225
1.185
1.11
1.05
0.885
0.715
0.6
0.5
0.39
0.245
0.075
0.09
0.15
0.115
0.16
0.27
0.315
0.33
0.39
0.365
0.4
0.41
0.425
0.4
0.345
0.39
0.35
0.385
0.41
0.385
0.395
0.365
0.325
0.325
0.345
0.35
0.38
0.385
0.41
0.4
0.42
0.42
0.345
0.38
0.43
0.415
0.455
0.44
0.44
0.43
0.44
0.42
0.395
0.4
0.425
0.45
0.485
0.495
0.535
0.505
0.48
0.45
0.455
0.43
0.41
0.45
0.525
0.475
0.515
0.51
0.51
0.475
0.47
0.45
0.5
0.525
0.56
0.52
0.515
0.55
0.465
0.5
0.54
0.565
0.56
0.61
0.58
0.56
0.59
0.65
0.59
0.615
0.725
0.695
0.695
0.74
0.725
0.695
0.735
0.745
0.755
0.81
0.845
0.825
0.805
0.79
0.785
0.79
0.84
0.81
0.835
0.81
0.79
0.79
0.775
0.755
0.765
0.76
0.735
0.695
0.7
0.625
0.62
0.635
0.625
0.615
0.66
0.64
0.62
0.61
0.55
0.575
0.55
0.57
0.52
0.52
0.445
0.45
0.46
0.445
0.505
0.455
0.405
0.41
0.4
0.415
0.445
0.435
0.48
0.47
0.4
0.345
0.36
0.37
0.385
0.375
0.4
0.41
0.325
0.295
0.31
0.31
0.39
0.345
0.36
0.36
0.36
0.365
0.435
0.4
0.395
0.395
0.34
0.335
0.33
0.36
0.375
0.385
0.415
0.4
0.395
0.375
0.37
0.36
0.37
0.35
0.325
0.335
0.38
0.38
0.385
0.37
0.38
0.34
0.375
0.395
0.38
0.39
0.37
0.335
0.325
0.295
0.31
0.375
0.4
0.395
0.43
0.435
0.395
0.405
0.41
0.395
0.37
0.41
0.45
0.395
0.395
0.355
0.37
0.365
0.365
0.385
0.37
0.35
0.335
0.345
0.36
0.35
0.35
0.34
0.33
0.285
0.355
0.38
0.38
0.365
0.365
0.365
0.335
0.345
0.355
0.345
0.335
0.34
0.405
0.365
0.41
0.4
0.36
0.355
0.36
0.335
0.35
0.375
0.33
0.355
0.365
0.385
0.36
0.315
0.315
0.345
0.375
0.38
0.32
0.3
0.315
0.335
0.32
0.37
0.355
0.365
0.355
0.34
0.3
0.29
0.355
0.345
0.345
0.38
0.34
0.295
0.325
0.365
0.36
0.335
0.39
0.365
0.33
0.315
0.33
0.365
0.33
0.34
0.35
0.36
0.34
0.35
0.315
0.305
0.355
0.355
0.325
0.32
0.35
0.395
0.375
0.38
0.355
0.3
0.31
0.31
0.3
0.285
0.37
0.34
0.31
0.37
0.4
0.4
0.4
0.45
0.45
0.47
0.485
0.485
0.47
0.42
0.45
0.435
0.365
0.385
0.42
0.415
0.41
0.41
0.445
0.415
0.385
0.37
0.38
0.38
0.39
0.39
0.37
0.35
0.33
0.36
0.34
0.315
0.29
0.275
0.29
0.29
0.295
0.33
0.3
0.31
0.31
0.365
0.34
0.315
0.315
0.29
0.29
0.29
0.33
0.3
0.295
0.325
0.3
0.265
0.27
0.33
0.335
0.325
0.355
0.355
0.305
0.29
0.38
0.345
0.445
0.545
0.635
0.695
0.785
0.845
0.955
1.025
1.1
1.165
1.225
1.095
1.04
1.0
0.91
0.7
0.54
0.42
0.365
0.26
0.125
0.03
0.06
0.13
0.085
0.135
0.235
0.28
0.31
0.33
0.355
0.365
0.365
0.345
0.35
0.355
0.355
0.325
0.34
0.32
0.315
0.35
0.34
0.32
0.32
0.355
0.365
0.365
0.37
0.37
0.32
0.29
0.32
0.32
0.305
0.325
0.415
0.34
0.32
0.335
0.37
0.34
0.335
0.35
0.32
0.34
0.32
0.38
0.325
0.29
0.37
0.385
0.44
0.45
0.44
0.465
0.44
0.45
0.455
0.48
0.455
0.44
0.475
0.475
0.47
0.465
0.49
0.48
0.45
0.45
0.48
0.52
0.545
0.575
0.56
0.57
0.585
0.57
0.555
0.55
0.5
0.51
0.54
0.59
0.63
0.61
0.63
0.655
0.7
0.705
0.705
0.715
0.7
0.71
0.705
0.735
0.75
0.73
0.72
0.8
0.81
0.745
0.74
0.69
0.735
0.72
0.72
0.77
0.695
0.675
0.645
0.625
0.62
0.625
0.605
0.58
0.545
0.545
0.54
0.525
0.52
0.525
0.515
0.48
0.465
0.42
0.41
0.42
0.385
0.395
0.365
0.34
0.365
0.37
0.335
0.335
0.35
0.385
0.385
0.345
0.325
0.305
0.315
0.325
0.3
0.285
0.31
0.32
0.33
0.34
0.33
0.305
0.31
0.305
0.34
0.33
0.325
0.31
0.34
0.345
0.31
0.25
0.245
0.275
0.3
0.295
0.28
0.245
0.245
0.31
0.375
0.385
0.36
0.33
0.3
0.275
0.285
0.35
0.36
0.345
0.36
0.345
0.295
0.31
0.335
0.375
0.385
0.35
0.34
0.295
0.28
0.245
0.315
0.35
0.395
0.38
0.375
0.37
0.355
0.315
0.29
0.285
0.345
0.305
0.32
0.305
0.29
0.295
0.32
0.305
0.295
0.3
0.305
0.29
0.315
0.345
0.355
0.32
0.33
0.325
0.31
0.345
0.33
0.32
0.34
0.315
0.29
0.31
0.295
0.285
0.295
0.315
0.35
0.35
0.325
0.3
0.23
0.265
0.325
0.32
0.285
0.27
0.265
0.255
0.305
0.295
0.25
0.255
0.26
0.275
0.27
0.225
0.23
0.265
0.325
0.265
0.32
0.34
0.28
0.33
0.335
0.31
0.335
0.31
0.315
0.33
0.295
0.265
0.27
0.315
0.315
0.345
0.295
0.28
0.295
0.265
0.23
0.285
0.27
0.255
0.265
0.29
0.27
0.305
0.31
0.26
0.285
0.305
0.28
0.285
0.26
0.23
0.215
0.255
0.33
0.3
0.245
0.285
0.34
0.35
0.35
0.35
0.34
0.36
0.345
0.37
0.375
0.405
0.415
0.415
0.395
0.335
0.35
0.375
0.315
0.315
0.34
0.355
0.38
0.385
0.385
0.4
0.375
0.365
0.33
0.335
0.295
0.3
0.3
0.32
0.315
0.285
0.26
0.24
0.23
0.205
0.265
0.26
0.26
0.265
0.315
0.325
0.255
0.29
0.255
0.22
0.205
0.225
0.27
0.25
0.27
0.265
0.31
0.31
0.27
0.25
0.26
0.23
0.21
0.27
0.265
0.28
0.27
0.285
0.285
0.315
0.31
0.305
0.315
0.365
0.485
0.575
0.685
0.79
0.83
0.91
0.99
1.07
1.055
1.15
1.15
1.04
0.98
0.84
0.65
0.505
0.37
0.3
0.25
0.095
-0.055
-0.1
-0.06
0.015
0.08
0.185
0.275
0.295
0.275
0.25
0.26
0.255
0.28
0.28
0.31
0.35
0.3
0.28
0.285
0.275
0.285
0.265
0.28
0.24
0.255
0.255
0.29
0.29
0.295
0.34
0.34
0.28
0.275
0.255
0.26
0.265
0.27
0.315
0.305
0.295
0.315
0.325
0.295
0.295
0.315
0.295
0.29
0.3
0.315
0.325
0.35
0.31
0.325
0.34
0.365
0.375
0.41
0.44
0.385
0.365
0.37
0.355
0.355
0.375
0.355
0.36
0.385
0.42
0.42
0.44
0.445
0.44
0.465
0.47
0.495
0.505
0.495
0.51
0.52
0.56
0.575
0.525
0.53
0.565
0.58
0.57
0.58
0.595
0.59
0.63
0.63
0.625
0.64
0.615
0.665
0.67
0.69
0.685
0.7
0.69
0.65
0.625
0.645
0.68
0.64
0.66
0.655
0.635
0.65
0.63
0.61
0.595
0.615
0.59
0.525
0.525
0.505
0.475
0.475
0.465
0.45
0.47
0.45
0.42
0.39
0.425
0.425
0.39
0.35
0.28
0.245
0.285
0.295
0.25
0.22
0.205
0.29
0.26
0.29
0.28
0.32
0.335
0.355
0.325
0.325
0.315
0.3
0.25
0.25
0.255
0.27
0.235
0.225
0.21
0.235
0.28
0.345
0.29
0.3
0.28
0.3
0.285
0.3
0.275
0.3
0.285
0.3
0.285
0.24
0.22
0.18
0.205
0.28
0.285
0.27
0.2
0.24
0.295
0.26
0.245
0.205
0.2
0.305
0.36
0.295
0.265
0.265
0.295
0.265
0.245
0.285
0.27
0.285
0.245
0.225
0.205
0.215
0.31
0.29
0.275
0.245
0.23
0.285
0.285
0.29
0.3
0.28
0.28
0.24
0.225
0.215
0.215
0.23
0.265
0.295
0.3
0.27
0.24
0.265
0.255
0.25
0.255
0.235
0.26
0.275
0.25
0.26
0.305
0.28
0.23
0.19
0.165
0.275
0.255
0.2
0.27
0.28
0.255
0.255
0.27
0.245
0.235
0.25
0.25
0.23
0.22
0.255
0.245
0.25
0.245
0.2
0.21
0.24
0.245
0.25
0.24
0.24
0.235
0.23
0.235
0.235
0.25
0.215
0.2
0.225
0.235
0.225
0.195
0.21
0.165
0.16
0.155
0.205
0.205
0.2
0.23
0.185
0.225
0.23
0.23
0.235
0.25
0.245
0.23
0.195
0.235
0.22
0.23
0.235
0.245
0.245
0.27
0.225
0.2
0.205
0.21
0.205
0.205
0.21
0.235
0.24
0.235
0.21
0.22
0.19
0.2
0.195
0.22
0.245
0.23
0.245
0.245
0.225
0.235
0.245
0.245
0.25
0.27
0.28
0.27
0.22
0.26
0.28
0.265
0.295
0.27
0.23
0.255
0.32
0.34
0.365
0.355
0.355
0.33
0.35
0.375
0.375
0.335
0.315
0.27
0.235
0.23
0.255
0.25
0.255
0.295
0.24
0.245
0.28
0.28
0.31
0.325
0.265
0.25
0.225
0.24
0.255
0.23
0.25
0.255
0.235
0.19
0.205
0.205
0.15
0.185
0.21
0.23
0.225
0.185
0.26
0.235
0.235
0.245
0.2
0.145
0.145
0.18
0.17
0.21
0.215
0.195
0.17
0.18
0.18
0.205
0.195
0.255
0.245
0.24
0.29
0.4
0.475
0.555
0.67
0.75
0.835
0.92
1.005
1.065
1.105
1.08
1.045
0.985
0.955
0.88
0.705
0.57
0.43
0.275
0.2
0.12
-0.105
-0.115
-0.01
0.045
0.09
0.125
0.16
0.16
0.165
0.175
0.17
0.2
0.255
0.26
0.27
0.25
0.195
0.2
0.215
0.225
0.27
0.26
0.21
0.195
0.185
0.19
0.17
0.23
0.255
0.24
0.225
0.21
0.215
0.255
0.305
0.285
0.25
0.25
0.295
0.305
0.26
0.24
0.27
0.305
0.315
0.305
0.31
0.315
0.295
0.28
0.315
0.305
0.285
0.305
0.29
0.285
0.325
0.34
0.32
0.335
0.3
0.305
0.355
0.39
0.36
0.36
0.375
0.37
0.365
0.375
0.395
0.4
0.42
0.415
0.39
0.39
0.4
0.46
0.485
0.48
0.445
0.45
0.46
0.41
0.41
0.475
0.485
0.5
0.54
0.675
0.685
0.675
0.69
0.69
0.7
0.72
0.69
0.685
0.705
0.66
0.62
0.615
0.675
0.615
0.625
0.615
0.62
0.615
0.59
0.555
0.58
0.595
0.55
0.58
0.535
0.51
0.505
0.46
0.4
0.415
0.445
0.44
0.4
0.375
0.36
0.36
0.37
0.355
0.315
0.285
0.235
0.235
0.205
0.245
0.27
0.245
0.265
0.28
0.25
0.2
0.26
0.26
0.255
0.26
0.28
0.27
0.255
0.245
0.22
0.19
0.19
0.24
0.19
0.275
0.275
0.215
0.215
0.22
0.235
0.26
0.24
0.23
0.235
0.27
0.255
0.195
0.165
0.185
0.16
0.195
0.22
0.225
0.25
0.27
0.22
0.18
0.185
0.195
0.18
0.16
0.22
0.245
0.205
0.165
0.185
0.22
0.215
0.21
0.22
0.215
0.225
0.23
0.22
0.215
0.245
0.225
0.175
0.205
0.235
0.235
0.23
0.24
0.22
0.21
0.25
0.26
0.23
0.22
0.195
0.175
0.145
0.205
0.235
0.215
0.215
0.205
0.19
0.195
0.19
0.235
0.225
0.205
0.2
0.185
0.205
0.23
0.205
0.215
0.23
0.23
0.18
0.145
0.14
0.115
0.155
0.195
0.185
0.185
0.19
0.22
0.175
0.17
0.21
0.22
0.215
0.23
0.255
0.245
0.2
0.15
0.155
0.23
0.23
0.2
0.215
0.175
0.15
0.165
0.205
0.185
0.21
0.18
0.165
0.15
0.125
0.18
0.235
0.215
0.18
0.16
0.17
0.16
0.175
0.18
0.15
0.14
0.12
0.17
0.215
0.205
0.2
0.195
0.185
0.215
0.24
0.19
0.2
0.16
0.2
0.175
0.135
0.145
0.19
0.19
0.13
0.13
0.22
0.18
0.16
0.17
0.21
0.18
0.18
0.2
0.205
0.17
0.2
0.215
0.18
0.185
0.18
0.2
0.2
0.19
0.145
0.105
0.165
0.21
0.2
0.205
0.22
0.24
0.265
0.285
0.26
0.28
0.295
0.295
0.3
0.26
0.24
0.24
0.265
0.245
0.305
0.27
0.285
0.285
0.24
0.295
0.285
0.255
0.265
0.21
0.19
0.245
0.23
0.255
0.265
0.23
0.205
0.17
0.17
0.205
0.175
0.155
0.14
0.15
0.125
0.11
0.14
0.135
0.155
0.195
0.23
0.185
0.13
0.18
0.165
0.145
0.16
0.165
0.165
0.185
0.175
0.17
0.145
0.13
0.17
0.16
0.165
0.175
0.145
0.13
0.12
0.1
0.145
0.21
0.225
0.32
0.405
0.505
0.57
0.655
0.815
0.89
0.96
1.01
1.075
1.095
1.0
0.94
0.86
0.755
0.56
0.415
0.315
0.205
0.12
-0.015
-0.09
-0.08
-0.055
-0.01
0.045
0.03
0.075
0.13
0.12
0.15
0.185
0.175
0.2
0.195
0.17
0.145
0.14
0.135
0.115
0.11
0.135
0.175
0.235
0.24
0.2
0.17
0.175
0.16
0.18
0.265
0.205
0.19
0.19
0.19
0.21
0.23
0.24
0.22
0.25
0.21
0.2
0.21
0.23
0.17
0.155
0.195
0.21
0.27
0.27
0.27
0.205
0.25
0.295
0.265
0.26
0.285
0.255
0.255
0.225
0.28
0.29
0.315
0.3
0.3
0.3
0.3
0.28
0.235
0.28
0.285
0.375
0.42
0.4
0.425
0.41
0.42
0.42
0.38
0.39
0.4
0.455
0.495
0.495
0.495
0.535
0.54
0.505
0.5
0.515
0.565
0.525
0.535
0.58
0.58
0.595
0.565
0.555
0.575
0.61
0.585
0.54
0.53
0.58
0.575
0.58
0.55
0.515
0.505
0.53
0.485
0.485
0.46
0.455
0.41
0.44
0.42
0.445
0.435
0.435
0.37
0.335
0.3
0.305
0.32
0.315
0.27
0.295
0.27
0.285
0.265
0.275
0.29
0.23
0.22
0.235
0.2
0.22
0.22
0.195
0.175
0.21
0.17
0.12
0.15
0.175
0.16
0.12
0.085
0.1
0.15
0.125
0.09
0.12
0.145
0.19
0.19
0.16
0.155
0.185
0.2
0.145
0.205
0.195
0.16
0.11
0.09
0.175
0.15
0.17
0.175
0.185
0.14
0.16
0.14
0.14
0.15
0.14
0.17
0.175
0.185
0.175
0.17
0.15
0.12
0.105
0.125
0.14
0.23
0.175
0.12
0.125
0.15
0.13
0.115
0.14
0.185
0.155
0.175
0.17
0.14
0.125
0.13
0.15
0.195
0.175
0.17
0.17
0.165
0.17
0.16
0.205
0.18
0.165
0.125
0.13
0.15
0.19
0.195
0.205
0.2
0.165
0.135
0.17
0.145
0.15
0.175
0.13
0.06
0.105
0.13
0.14
0.18
0.13
0.11
0.1
0.115
0.145
0.135
0.135
0.135
0.115
0.14
0.1
0.1
0.09
0.115
0.125
0.155
0.165
0.17
0.165
0.155
0.185
0.095
0.115
0.125
0.11
0.085
0.1
0.115
0.165
0.155
0.095
0.09
0.145
0.16
0.155
0.16
0.165
0.155
0.16
0.105
0.115
0.125
0.1
0.06
0.065
0.125
0.16
0.115
0.145
0.145
0.12
0.115
0.12
0.085
0.085
0.09
0.11
0.145
0.13
0.1
0.135
0.12
0.11
0.135
0.14
0.165
0.165
0.165
0.19
0.175
0.165
0.15
0.165
0.19
0.185
0.185
0.165
0.175
0.2
0.23
0.22
0.22
0.185
0.175
0.2
0.205
0.195
0.205
0.23
0.23
0.23
0.19
0.205
0.235
0.22
0.215
0.19
0.16
0.155
0.145
0.12
0.11
0.16
0.2
0.17
0.175
0.175
0.11
0.115
0.105
0.11
0.12
0.14
0.125
0.13
0.11
0.11
0.125
0.12
0.12
0.13
0.15
0.13
0.125
0.105
0.12
0.07
0.115
0.105
0.135
0.145
0.135
0.13
0.13
0.14
0.13
0.12
0.095
0.135
0.14
0.18
0.23
0.285
0.35
0.455
0.53
0.625
0.69
0.775
0.87
0.95
0.96
0.935
0.865
0.86
0.865
0.68
0.5
0.375
0.205
0.1
0.01
-0.16
-0.175
-0.13
-0.14
-0.02
0.035
0.035
0.07
0.105
0.155
0.155
0.2
0.15
0.15
0.145
0.125
0.165
0.145
0.085
0.105
0.12
0.12
0.125
0.14
0.175
0.155
0.13
0.175
0.175
0.17
0.14
0.15
0.15
0.17
0.17
0.165
0.16
0.18
0.19
0.175
0.16
0.185
0.2
0.165
0.24
0.275
0.225
0.19
0.14
0.14
0.255
0.27
0.23
0.225
0.245
0.26
0.265
0.26
0.24
0.245
0.225
0.23
0.24
0.26
0.205
0.29
0.275
0.285
0.3
0.265
0.31
0.31
0.325
0.335
0.35
0.335
0.345
0.375
0.42
0.435
0.385
0.41
0.425
0.46
0.51
0.5
0.5
0.49
0.55
0.53
0.535
0.575
0.575
0.57
0.58
0.545
0.53
0.545
0.55
0.505
0.49
0.47
0.5
0.545
0.54
0.585
0.54
0.55
0.515
0.49
0.465
0.485
0.52
0.48
0.475
0.435
0.38
0.345
0.345
0.33
0.335
0.32
0.305
0.32
0.31
0.295
0.255
0.265
0.27
0.25
0.19
0.195
0.245
0.205
0.195
0.185
0.14
0.16
0.19
0.2
0.185
0.19
0.135
0.095
0.105
0.19
0.2
0.145
0.11
0.16
0.15
0.15
0.155
0.16
0.135
0.13
0.135
0.14
0.17
0.175
0.195
0.185
0.19
0.19
0.15
0.15
0.15
0.15
0.18
0.13
0.13
0.16
0.185
0.165
0.145
0.11
0.13
0.165
0.15
0.14
0.11
0.14
0.17
0.185
0.195
0.175
0.135
0.13
0.14
0.14
0.17
0.185
0.15
0.14
0.15
0.13
0.115
0.115
0.155
0.13
0.1
0.175
0.18
0.14
0.135
0.14
0.12
0.115
0.165
0.14
0.14
0.215
0.215
0.215
0.205
0.165
0.165
0.14
0.125
0.125
0.175
0.15
0.135
0.1
0.12
0.17
0.22
0.165
0.17
0.135
0.155
0.14
0.18
0.18
0.165
0.165
0.175
0.15
0.14
0.115
0.115
0.13
0.095
0.085
0.095
0.11
0.12
0.12
0.135
0.12
0.17
0.165
0.095
0.08
0.09
0.05
0.05
0.115
0.13
0.135
0.145
0.17
0.13
0.145
0.155
0.105
0.13
0.145
0.145
0.09
0.105
0.095
0.105
0.14
0.165
0.135
0.125
0.09
0.135
0.12
0.115
0.125
0.14
0.15
0.115
0.125
0.085
0.105
0.11
0.08
0.09
0.14
0.075
0.07
0.125
0.12
0.11
0.13
0.155
0.15
0.15
0.155
0.145
0.13
0.13
0.1
0.095
0.125
0.105
0.1
0.12
0.175
0.19
0.15
0.16
0.145
0.15
0.14
0.13
0.145
0.135
0.165
0.18
0.165
0.115
0.135
0.16
0.155
0.165
0.185
0.22
0.155
0.235
0.27
0.255
0.25
0.255
0.22
0.18
0.225
0.185
0.24
0.215
0.195
0.19
0.175
0.205
0.19
0.19
0.17
0.165
0.145
0.15
0.175
0.145
0.125
0.12
0.15
0.09
0.08
0.055
0.105
0.1
0.1
0.095
0.07
0.105
0.1
0.095
0.095
0.135
0.15
0.105
0.14
0.125
0.15
0.09
0.085
0.085
0.1
0.105
0.11
0.09
0.105
0.1
0.09
0.09
0.08
0.135
0.21
0.305
0.33
0.435
0.515
0.615
0.69
0.825
0.925
0.93
0.915
0.945
0.93
0.905
0.845
0.69
0.48
0.39
0.28
0.195
0.115
-0.01
-0.14
-0.14
-0.115
-0.09
-0.025
0.015
0.075
0.055
0.08
0.095
0.08
0.11
0.1
0.12
0.1
0.095
0.1
0.085
0.14
0.13
0.09
0.06
0.11
0.085
0.125
0.13
0.105
0.1
0.085
0.14
0.12
0.13
0.175
0.175
0.16
0.135
0.12
0.17
0.185
0.205
0.185
0.16
0.215
0.225
0.235
0.205
0.165
0.165
0.16
0.18
0.185
0.185
0.175
0.16
0.15
0.17
0.18
0.175
0.19
0.205
0.225
0.225
0.195
0.22
0.21
0.2
0.285
0.27
0.29
0.305
0.3
0.325
0.365
0.35
0.345
0.32
0.38
0.4
0.395
0.37
0.31
0.3
0.35
0.43
0.425
0.43
0.435
0.44
0.48
0.53
0.47
0.485
0.485
0.49
0.51
0.55
0.575
0.525
0.495
0.51
0.52
0.485
0.525
0.545
0.55
0.515
0.545
0.47
0.47
0.45
0.465
0.485
0.47
0.455
0.46
0.415
0.335
0.37
0.365
0.345
0.31
0.31
0.325
0.31
0.28
0.275
0.24
0.2
0.155
0.155
0.15
0.145
0.14
0.175
0.2
0.195
0.165
0.125
0.13
0.19
0.175
0.195
0.215
0.175
0.15
0.11
0.105
0.13
0.115
0.115
0.135
0.155
0.125
0.09
0.08
0.135
0.115
0.095
0.11
0.13
0.12
0.105
0.08
0.14
0.18
0.17
0.135
0.175
0.165
0.15
0.105
0.045
0.085
0.135
0.12
0.095
0.14
0.185
0.145
0.155
0.16
0.15
0.16
0.115
0.1
0.115
0.095
0.11
0.15
0.135
0.14
0.14
0.13
0.115
0.14
0.16
0.14
0.045
0.035
0.085
0.05
0.08
0.165
0.17
0.175
0.135
0.08
0.13
0.17
0.15
0.15
0.135
0.13
0.125
0.11
0.11
0.11
0.135
0.145
0.145
0.115
0.12
0.075
0.08
0.125
0.135
0.145
0.135
0.085
0.095
0.13
0.14
0.155
0.12
0.115
0.135
0.125
0.08
0.115
0.075
0.075
0.095
0.105
0.115
0.08
0.095
0.105
0.09
0.135
0.115
0.105
0.075
0.04
0.09
0.095
0.09
0.1
0.13
0.155
0.125
0.135
0.13
0.14
0.11
0.04
0.04
0.1
0.095
0.105
0.135
0.115
0.12
0.105
0.11
0.1
0.08
0.09
0.09
0.09
0.125
0.095
0.05
0.1
0.035
0.075
0.11
0.085
0.08
0.095
0.125
0.115
0.115
0.105
0.11
0.13
0.095
0.09
0.085
0.04
0.065
0.055
0.1
0.11
0.105
0.15
0.15
0.185
0.16
0.155
0.14
0.12
0.11
0.145
0.175
0.175
0.14
0.085
0.135
0.14
0.19
0.24
0.235
0.24
0.265
0.245
0.23
0.22
0.155
0.14
0.155
0.16
0.205
0.17
0.21
0.225
0.185
0.13
0.195
0.165
0.165
0.115
0.095
0.095
0.03
0.04
0.04
0.04
0.1
0.105
0.08
0.09
0.055
0.045
0.09
0.12
0.085
0.02
0.035
0.055
0.1
0.11
0.085
0.05
0.09
0.08
0.085
0.145
0.095
0.1
0.12
0.11
0.09
0.085
0.115
0.135
0.16
0.2
0.24
0.3
0.395
0.47
0.475
0.6
0.69
0.76
0.82
0.905
0.94
0.87
0.82
0.775
0.725
0.495
0.36
0.245
0.11
0.02
-0.12
-0.26
-0.225
-0.13
-0.12
-0.14
-0.02
0.05
0.045
0.065
0.0
0.005
0.11
0.075
0.115
0.11
0.08
0.095
0.17
0.19
0.18
0.165
0.16
0.175
0.175
0.13
0.165
0.13
0.125
0.15
0.2
0.2
0.185
0.17
0.16
0.145
0.145
0.16
0.155
0.135
0.14
0.165
0.23
0.17
0.15
0.145
0.155
0.15
0.25
0.3
0.285
0.2
0.19
0.25
0.22
0.225
0.26
0.225
0.24
0.255
0.25
0.23
0.265
0.27
0.31
0.295
0.295
0.31
0.3
0.35
0.345
0.355
0.36
0.305
0.3
0.325
0.29
0.345
0.355
0.42
0.43
0.41
0.4
0.41
0.45
0.465
0.48
0.495
0.52
0.535
0.505
0.515
0.525
0.55
0.58
0.56
0.53
0.535
0.545
0.575
0.57
0.555
0.56
0.565
0.55
0.565
0.53
0.53
0.585
0.535
0.525
0.465
0.415
0.465
0.465
0.435
0.405
0.38
0.385
0.34
0.28
0.295
0.31
0.37
0.345
0.315
0.285
0.275
0.255
0.26
0.225
0.225
0.28
0.24
0.16
0.155
0.165
0.11
0.18
0.145
0.14
0.19
0.2
0.2
0.165
0.115
0.12
0.16
0.18
0.15
0.135
0.16
0.115
0.11
0.14
0.115
0.15
0.14
0.155
0.14
0.155
0.15
0.175
0.165
0.185
0.16
0.12
0.125
0.13
0.14
0.17
0.16
0.195
0.17
0.175
0.165
0.16
0.12
0.14
0.125
0.09
0.12
0.17
0.18
0.135
0.19
0.15
0.14
0.145
0.165
0.09
0.125
0.13
0.15
0.16
0.225
0.2
0.23
0.15
0.17
0.145
0.13
0.15
0.11
0.13
0.195
0.185
0.165
0.18
0.19
0.17
0.175
0.19
0.165
0.165
0.155
0.13
0.135
0.15
0.165
0.155
0.165
0.125
0.1
0.075
0.03
0.045
0.115
0.205
0.155
0.085
0.085
0.105
0.14
0.185
0.17
0.145
0.17
0.175
0.15
0.11
0.125
0.115
0.105
0.145
0.155
0.15
0.09
0.11
0.175
0.205
0.145
0.105
0.095
0.11
0.085
0.105
0.15
0.14
0.105
0.085
0.115
0.14
0.135
0.16
0.135
0.16
0.16
0.11
0.11
0.12
0.1
0.095
0.1
0.145
0.155
0.175
0.115
0.125
0.09
0.095
0.125
0.105
0.09
0.105
0.105
0.115
0.095
0.11
0.09
0.115
0.18
0.23
0.175
0.095
0.125
0.155
0.125
0.175
0.24
0.23
0.21
0.21
0.195
0.195
0.215
0.19
0.22
0.24
0.2
0.215
0.225
0.22
0.23
0.2
0.17
0.165
0.16
0.12
0.145
0.16
0.13
0.16
0.18
0.12
0.08
0.075
0.15
0.145
0.11
0.155
0.13
0.12
0.15
0.13
0.095
0.135
0.085
0.08
0.095
0.13
0.105
0.09
0.065
0.13
0.125
0.105
0.1
0.11
0.1
0.055
0.045
0.07
0.065
0.11
0.13
0.09
0.105
0.155
0.19
0.215
0.255
0.325
0.44
0.49
0.58
0.655
0.735
0.775
0.795
0.905
0.87
0.785
0.755
0.7
0.545
0.41
0.325
0.195
0.095
0.01
-0.13
-0.16
-0.145
-0.105
-0.04
-0.05
0.03
0.07
0.115
0.075
0.055
0.11
0.125
0.15
0.135
0.095
0.085
0.085
0.09
0.075
0.075
0.13
0.145
0.195
0.175
0.145
0.175
0.19
0.18
0.145
0.14
0.11
0.085
0.115
0.135
0.145
0.135
0.105
0.155
0.185
0.15
0.155
0.2
0.175
0.165
0.14
0.14
0.15
0.215
0.215
0.21
0.2
0.19
0.15
0.175
0.2
0.15
0.155
0.185
0.245
0.31
0.21
0.225
0.3
0.27
0.26
0.26
0.255
0.255
0.275
0.295
0.29
0.295
0.25
0.25
0.27
0.35
0.4
0.375
0.375
0.37
0.37
0.41
0.425
0.41
0.415
0.45
0.465
0.51
0.45
0.45
0.49
0.5
0.465
0.465
0.47
0.505
0.515
0.5
0.55
0.505
0.475
0.465
0.46
0.445
0.435
0.45
0.465
0.415
0.445
0.445
0.415
0.425
0.38
0.345
0.375
0.345
0.32
0.375
0.33
0.265
0.265
0.22
0.2
0.195
0.195
0.215
0.245
0.185
0.195
0.2
0.19
0.185
0.18
0.17
0.16
0.155
0.12
0.13
0.09
0.055
0.135
0.115
0.1
0.11
0.08
0.065
0.085
0.075
0.08
0.115
0.11
0.07
0.065
0.085
0.145
0.165
0.145
0.135
0.14
0.1
0.15
0.115
0.065
0.09
0.105
0.095
0.1
0.145
0.1
0.075
0.075
0.085
0.055
0.105
0.145
0.125
0.15
0.1
0.11
0.075
0.09
0.12
0.1
0.065
0.095
0.1
0.11
0.11
0.11
0.095
0.11
0.125
0.095
0.085
0.095
0.12
0.11
0.155
0.145
0.125
0.135
0.08
0.05
0.085
0.115
0.12
0.11
0.145
0.1
0.075
0.07
0.09
0.155
0.125
0.13
0.08
0.08
0.125
0.125
0.095
0.025
0.035
0.09
0.105
0.1
0.085
0.18
0.135
0.12
0.08
0.095
0.08
0.07
0.085
0.12
0.125
0.13
0.13
0.09
0.095
0.1
0.11
0.08
0.115
0.08
0.04
0.075
0.12
0.06
0.07
0.055
0.035
0.09
0.09
0.11
0.085
0.06
0.05
0.075
0.065
0.035
0.075
0.11
0.15
0.16
0.095
0.105
0.105
0.085
0.095
0.075
0.1
0.09
0.105
0.095
0.06
0.055
0.085
0.09
0.105
0.065
0.055
0.05
0.04
0.09
0.11
0.095
0.11
0.12
0.09
0.125
0.075
0.09
0.08
0.085
0.11
0.09
0.155
0.225
0.23
0.175
0.135
0.205
0.175
0.195
0.175
0.16
0.17
0.135
0.18
0.205
0.18
0.175
0.165
0.18
0.18
0.19
0.145
0.15
0.145
0.125
0.1
0.105
0.06
0.045
0.065
0.07
0.085
0.075
0.08
0.055
0.05
0.05
0.06
0.035
0.015
0.045
0.04
0.065
0.09
0.115
0.11
0.07
0.06
0.05
0.075
0.03
0.08
0.075
0.05
-0.01
-0.015
0.065
0.08
0.1
0.13
0.08
0.12
0.175
0.225
0.265
0.34
0.46
0.485
0.555
0.625
0.725
0.79
0.78
0.79
0.81
0.795
0.765
0.65
0.51
0.375
0.205
0.105
0.075
0.05
-0.085
-0.125
-0.115
-0.11
-0.1
-0.04
0.01
0.01
0.07
0.095
0.05
0.055
0.1
0.12
0.1
0.125
0.105
0.1
0.05
0.055
0.03
0.05
0.105
0.1
0.09
0.065
0.055
0.065
0.06
0.085
0.06
0.075
0.085
0.09
0.07
0.09
0.07
0.09
0.105
0.12
0.16
0.145
0.135
0.155
0.095
0.11
0.13
0.105
0.13
0.16
0.17
0.14
0.165
0.15
0.18
0.14
0.17
0.14
0.14
0.18
0.155
0.145
0.155
0.195
0.215
0.22
0.23
0.25
0.215
0.205
0.205
0.235
0.235
0.22
0.22
0.18
0.245
0.265
0.26
0.29
0.285
0.275
0.295
0.32
0.385
0.4
0.385
0.375
0.345
0.405
0.44
0.47
0.45
0.47
0.465
0.465
0.425
0.415
0.41
0.375
0.39
0.375
0.36
0.425
0.46
0.43
0.4
0.38
0.37
0.37
0.375
0.33
0.34
0.31
0.28
0.25
0.2
0.16
0.2
0.225
0.26
0.265
0.265
0.235
0.21
0.2
0.175
0.185
0.15
0.14
0.125
0.105
0.115
0.07
0.115
0.1
0.105
0.105
0.07
0.03
0.05
0.08
0.05
0.06
0.06
0.06
0.045
0.035
0.03
0.05
0.04
-0.03
-0.015
0.015
0.025
0.08
0.09
0.09
0.055
0.04
0.035
0.02
0.01
-0.02
0.005
0.04
0.06
0.075
0.075
0.03
0.065
0.05
0.02
0.07
0.075
0.035
0.01
0.05
0.045
0.04
-0.015
-0.02
0.005
0.015
-0.01
0.045
0.065
0.055
0.015
-0.02
-0.08
-0.06
-0.08
-0.01
0.005
0.0
-0.01
0.065
0.12
0.1
0.09
0.07
0.095
0.09
0.075
0.07
0.055
0.025
0.035
0.02
0.04
0.065
0.04
0.035
0.06
0.045
0.035
0.035
0.03
0.015
0.02
0.005
0.02
0.015
0.015
0.01
0.05
0.015
0.015
0.01
-0.03
-0.05
-0.01
0.0
-0.005
0.02
0.03
0.025
0.02
0.045
-0.015
-0.075
-0.05
0.02
-0.035
-0.025
-0.11
-0.045
-0.02
-0.01
0.04
0.065
0.01
0.015
0.06
0.065
-0.055
-0.03
-0.01
0.01
0.015
0.0
-0.005
-0.005
-0.005
0.015
0.0
0.025
0.035
-0.005
0.015
0.015
-0.01
-0.01
-0.03
-0.04
-0.045
-0.055
-0.08
-0.045
0.035
0.03
-0.025
-0.055
0.0
0.035
-0.01
0.005
-0.025
-0.015
-0.02
-0.015
0.01
0.025
0.015
0.03
0.055
0.03
0.0
0.025
0.06
0.055
0.03
0.04
0.075
0.085
0.05
0.05
0.075
0.08
0.07
0.12
0.1
0.065
-0.015
0.015
0.015
0.055
0.02
0.005
-0.035
0.045
0.09
0.03
0.06
0.04
0.035
0.0
-0.05
-0.055
0.0
-0.025
-0.02
-0.02
-0.06
-0.04
-0.02
-0.005
0.02
-0.035
0.04
0.035
0.01
-0.005
-0.005
-0.055
-0.04
-0.065
-0.04
-0.02
-0.01
0.0
-0.035
-0.06
-0.075
-0.07
-0.055
-0.015
0.0
0.03
0.005
0.01
0.035
0.075
0.095
0.175
0.21
0.24
0.335
0.43
0.515
0.59
0.67
0.655
0.675
0.675
0.645
0.605
0.52
0.335
0.21
0.095
0.055
0.02
-0.09
-0.24
-0.28
-0.26
-0.185
-0.165
-0.17
-0.12
-0.065
-0.035
-0.06
-0.045
-0.035
-0.005
0.025
-0.005
-0.05
-0.02
-0.035
-0.02
-0.02
-0.035
0.03
0.04
0.025
0.04
0.02
-0.035
-0.015
-0.025
0.0
0.005
-0.015
-0.04
-0.055
-0.01
0.025
0.0
0.0
0.02
0.065
0.045
0.015
0.055
0.025
0.02
0.03
0.04
0.03
0.025
0.035
0.065
0.055
0.03
0.035
0.025
0.01
0.085
0.08
0.115
0.115
0.09
0.095
0.1
0.06
0.045
0.075
0.11
0.075
0.08
0.08
0.12
0.1
0.115
0.12
0.195
0.23
0.215
0.23
0.255
0.28
0.285
0.255
0.29
0.32
0.31
0.27
0.295
0.31
0.265
0.26
0.255
0.295
0.33
0.415
0.39
0.345
0.365
0.38
0.395
0.42
0.395
0.355
0.335
0.365
0.39
0.345
0.335
0.33
0.295
0.295
0.29
0.27
0.255
0.265
0.28
0.24
0.23
0.215
0.19
0.16
0.15
0.14
0.13
0.16
0.14
0.13
0.12
0.095
0.07
0.035
0.025
0.025
-0.015
-0.035
-0.07
-0.075
-0.045
-0.01
0.01
0.005
-0.005
0.015
0.05
0.04
0.08
0.09
0.085
-0.005
0.025
0.055
0.045
0.01
0.03
0.005
-0.025
-0.03
0.015
0.02
-0.035
-0.05
-0.02
0.0
-0.02
-0.04
0.005
-0.03
-0.01
-0.02
-0.05
-0.03
-0.035
-0.065
-0.05
-0.03
-0.01
-0.005
-0.01
-0.075
-0.03
-0.01
0.025
0.045
0.045
0.03
0.045
-0.005
0.02
0.005
-0.01
-0.02
-0.03
-0.01
-0.02
-0.01
0.01
0.005
0.01
-0.025
-0.04
-0.005
-0.015
-0.04
-0.04
-0.02
-0.065
-0.055
-0.025
-0.055
-0.06
-0.035
-0.01
0.015
0.005
-0.075
-0.045
-0.05
-0.035
-0.025
-0.045
-0.01
0.015
0.02
-0.005
-0.025
-0.045
-0.04
-0.005
0.0
-0.035
-0.035
0.01
-0.005
-0.045
-0.08
-0.08
-0.04
-0.025
-0.02
0.025
0.03
0.035
-0.005
0.0
-0.04
-0.095
-0.05
-0.065
-0.085
-0.095
-0.055
-0.02
-0.05
-0.06
-0.035
-0.015
-0.03
-0.065
-0.045
-0.06
-0.05
-0.07
-0.075
-0.065
-0.065
-0.08
-0.1
-0.085
-0.105
-0.07
-0.005
-0.005
-0.025
-0.02
-0.025
-0.015
-0.03
-0.05
-0.045
-0.03
-0.01
-0.005
-0.07
-0.095
-0.08
-0.035
0.0
-0.025
-0.04
-0.04
-0.055
-0.055
-0.045
-0.07
-0.075
-0.04
-0.02
-0.055
-0.06
-0.095
-0.065
-0.07
0.025
0.04
0.015
-0.015
-0.035
-0.045
-0.02
-0.02
-0.035
0.005
0.005
0.04
0.035
0.05
0.05
0.055
0.08
0.07
0.02
0.025
0.015
-0.025
0.005
0.055
0.075
0.01
-0.005
0.01
-0.01
-0.015
-0.03
-0.025
-0.025
-0.045
-0.045
-0.055
-0.005
0.035
-0.015
-0.045
-0.045
-0.07
-0.115
-0.1
-0.045
-0.07
-0.055
-0.045
-0.05
-0.085
-0.115
-0.105
-0.09
-0.085
-0.09
-0.12
-0.12
-0.13
-0.095
-0.03
0.0
-0.04
-0.09
-0.12
-0.145
-0.14
-0.135
-0.045
-0.035
-0.045
0.02
0.06
0.17
0.23
0.255
0.32
0.375
0.47
0.57
0.625
0.68
0.64
0.645
0.63
0.56
0.495
0.375
0.22
0.06
-0.005
-0.04
-0.125
-0.29
-0.39
-0.37
-0.33
-0.28
-0.265
-0.23
-0.205
-0.18
-0.185
-0.145
-0.115
-0.135
-0.125
-0.145
-0.12
-0.115
-0.12
-0.09
-0.1
-0.16
-0.145
-0.155
-0.18
-0.215
-0.145
-0.11
-0.14
-0.15
-0.155
-0.135
-0.125
-0.075
-0.1
-0.125
-0.115
-0.11
-0.15
-0.145
-0.125
-0.13
-0.115
-0.07
-0.06
-0.045
-0.07
-0.08
-0.08
-0.09
-0.115
-0.14
-0.145
-0.105
-0.085
-0.085
-0.08
-0.105
-0.08
-0.075
-0.015
-0.03
-0.04
-0.075
-0.065
-0.085
-0.1
-0.145
-0.115
-0.055
0.005
-0.02
-0.05
-0.03
0.005
-0.025
0.0
0.01
-0.01
0.025
0.025
0.03
0.065
0.06
0.075
0.075
0.105
0.12
0.15
0.18
0.185
0.21
0.17
0.165
0.155
0.2
0.17
0.185
0.19
0.175
0.165
0.165
0.165
0.145
0.205
0.185
0.16
0.18
0.16
0.16
0.125
0.14
0.12
0.045
0.025
0.025
0.04
0.095
-0.005
-0.03
0.0
-0.01
-0.015
-0.035
-0.08
-0.07
-0.095
-0.045
-0.085
-0.125
-0.14
-0.19
-0.16
-0.195
-0.17
-0.17
-0.2
-0.2
-0.195
-0.23
-0.195
-0.19
-0.145
-0.155
-0.18
-0.205
-0.23
-0.205
-0.205
-0.215
-0.195
-0.195
-0.21
-0.24
-0.26
-0.225
-0.18
-0.21
-0.2
-0.21
-0.27
-0.28
-0.26
-0.27
-0.26
-0.24
-0.245
-0.255
-0.225
-0.225
-0.18
-0.19
-0.175
-0.175
-0.195
-0.245
-0.275
-0.235
-0.21
-0.215
-0.17
-0.2
-0.225
-0.21
-0.24
-0.275
-0.26
-0.295
-0.275
-0.29
-0.255
-0.22
-0.18
-0.205
-0.255
-0.255
-0.265
-0.28
-0.225
-0.17
-0.18
-0.175
-0.205
-0.2
-0.195
-0.22
-0.24
-0.24
-0.22
-0.23
-0.265
-0.245
-0.225
-0.225
-0.265
-0.27
-0.24
-0.225
-0.205
-0.2
-0.245
-0.26
-0.25
-0.255
-0.26
-0.285
-0.3
-0.28
-0.31
-0.295
-0.26
-0.315
-0.29
-0.255
-0.22
-0.19
-0.22
-0.21
-0.215
-0.245
-0.285
-0.27
-0.31
-0.325
-0.29
-0.275
-0.28
-0.255
-0.27
-0.19
-0.23
-0.275
-0.24
-0.2
-0.225
-0.24
-0.23
-0.23
-0.26
-0.275
-0.285
-0.29
-0.28
-0.285
-0.29
-0.275
-0.285
-0.27
-0.25
-0.26
-0.245
-0.265
-0.305
-0.38
-0.355
-0.3
-0.29
-0.295
-0.23
-0.27
-0.245
-0.225
-0.275
-0.285
-0.285
-0.305
-0.27
-0.3
-0.25
-0.285
-0.275
-0.285
-0.335
-0.28
-0.245
-0.235
-0.26
-0.295
-0.3
-0.275
-0.27
-0.285
-0.305
-0.33
-0.27
-0.275
-0.265
-0.225
-0.225
-0.23
-0.24
-0.205
-0.205
-0.23
-0.24
-0.215
-0.22
-0.24
-0.2
-0.19
-0.23
-0.22
-0.22
-0.245
-0.21
-0.165
-0.095
-0.11
-0.18
-0.24
-0.195
-0.21
-0.21
-0.205
-0.155
-0.14
-0.205
-0.225
-0.2
-0.2
-0.2
-0.205
-0.18
-0.22
-0.245
-0.265
-0.25
-0.25
-0.275
-0.255
-0.245
-0.275
-0.28
-0.29
-0.285
-0.295
-0.275
-0.305
-0.31
-0.37
-0.33
-0.33
-0.31
-0.285
-0.305
-0.345
-0.335
-0.345
-0.31
-0.315
-0.295
-0.305
-0.235
-0.245
-0.285
-0.265
-0.27
-0.24
-0.235
-0.235
-0.205
-0.19
-0.16
-0.03
0.045
0.105
0.19
0.275
0.345
0.425
0.49
0.505
0.5
0.45
0.365
0.325
0.27
0.095
-0.07
-0.165
-0.24
-0.29
-0.38
-0.535
-0.56
-0.545
-0.5
-0.43
-0.39
-0.385
-0.32
-0.275
-0.305
-0.335
-0.265
-0.275
-0.285
-0.285
-0.345
-0.345
-0.28
-0.245
-0.265
-0.265
-0.27
-0.255
-0.255
-0.23
-0.21
-0.22
-0.205
-0.22
-0.225
-0.22
-0.26
-0.26
-0.26
-0.295
-0.25
-0.185
-0.185
-0.22
-0.24
-0.215
-0.19
-0.175
-0.21
-0.2
-0.17
-0.13
-0.175
-0.21
-0.18
-0.2
-0.24
-0.205
-0.16
-0.155
-0.19
-0.175
-0.17
-0.135
-0.16
-0.17
-0.185
-0.14
-0.085
-0.07
-0.095
-0.115
-0.125
-0.1
-0.115
-0.105
-0.095
-0.055
-0.085
-0.05
-0.025
-0.03
-0.01
0.01
0.05
0.005
-0.02
-0.005
0.025
0.015
0.005
0.045
0.12
0.135
0.07
0.07
0.12
0.13
0.13
0.125
0.09
0.125
0.105
0.115
0.13
0.085
0.06
0.09
0.12
0.145
0.105
0.1
0.1
0.12
0.115
0.12
0.075
0.075
0.06
0.055
0.055
0.025
-0.02
-0.04
-0.02
-0.07
-0.155
-0.17
-0.14
-0.09
-0.05
-0.09
-0.12
-0.125
-0.175
-0.22
-0.175
-0.175
-0.175
-0.175
-0.185
-0.195
-0.195
-0.215
-0.225
-0.225
-0.2
-0.205
-0.25
-0.255
-0.225
-0.225
-0.24
-0.22
-0.24
-0.265
-0.26
-0.245
-0.245
-0.25
-0.26
-0.215
-0.235
-0.285
-0.28
-0.235
-0.215
-0.24
-0.23
-0.23
-0.225
-0.24
-0.225
-0.25
-0.315
-0.345
-0.3
-0.235
-0.205
-0.21
-0.19
-0.205
-0.18
-0.265
-0.245
-0.255
-0.235
-0.26
-0.24
-0.21
-0.18
-0.215
-0.23
-0.235
-0.225
-0.245
-0.31
-0.305
-0.26
-0.275
-0.25
-0.23
-0.225
-0.245
-0.225
-0.225
-0.225
-0.205
-0.265
-0.255
-0.255
-0.27
-0.285
-0.27
-0.23
-0.25
-0.26
-0.24
-0.26
-0.255
-0.25
-0.225
-0.24
-0.245
-0.225
-0.26
-0.245
-0.215
-0.24
-0.24
-0.265
-0.3
-0.295
-0.285
-0.31
-0.31
-0.32
-0.26
-0.225
-0.24
-0.225
-0.23
-0.26
-0.255
-0.275
-0.265
-0.28
-0.25
-0.225
-0.245
-0.26
-0.295
-0.265
-0.225
-0.255
-0.255
-0.275
-0.285
-0.3
-0.31
-0.27
-0.26
-0.285
-0.295
-0.295
-0.31
-0.28
-0.245
-0.29
-0.305
-0.305
-0.31
-0.29
-0.295
-0.25
-0.26
-0.285
-0.345
-0.325
-0.25
-0.265
-0.26
-0.275
-0.245
-0.235
-0.255
-0.26
-0.23
-0.255
-0.285
-0.26
-0.28
-0.265
-0.29
-0.295
-0.275
-0.26
-0.25
-0.255
-0.27
-0.26
-0.285
-0.29
-0.265
-0.24
-0.29
-0.3
-0.29
-0.25
-0.235
-0.24
-0.295
-0.285
-0.3
-0.28
-0.27
-0.235
-0.25
-0.27
-0.235
-0.19
-0.25
-0.25
-0.255
-0.25
-0.19
-0.15
-0.155
-0.19
-0.195
-0.155
-0.16
-0.195
-0.175
-0.165
-0.175
-0.2
-0.22
-0.185
-0.155
-0.15
-0.145
-0.21
-0.21
-0.2
-0.205
-0.25
-0.225
-0.24
-0.195
-0.185
-0.27
-0.32
-0.285
-0.285
-0.31
-0.285
-0.29
-0.265
-0.27
-0.265
-0.27
-0.285
-0.31
-0.315
-0.345
-0.385
-0.355
-0.36
-0.31
-0.31
-0.31
-0.275
-0.225
-0.205
-0.245
-0.245
-0.295
-0.28
-0.24
-0.215
-0.175
-0.235
-0.27
-0.225
-0.155
-0.05
0.005
0.1
0.16
0.225
0.315
0.38
0.45
0.495
0.48
0.48
0.43
0.4
0.355
0.235
0.025
-0.16
-0.305
-0.37
-0.44
-0.57
-0.6
-0.585
-0.5
-0.45
-0.44
-0.44
-0.405
-0.35
-0.265
-0.23
-0.29
-0.305
-0.245
-0.26
-0.255
-0.24
-0.225
-0.225
-0.22
-0.23
-0.26
-0.25
-0.275
-0.255
-0.25
-0.24
-0.225
-0.23
-0.27
-0.225
-0.205
-0.225
-0.25
-0.23
-0.28
-0.265
-0.24
-0.25
-0.2
-0.215
-0.24
-0.225
-0.205
-0.23
-0.235
-0.225
-0.215
-0.185
-0.18
-0.195
-0.175
-0.145
-0.125
-0.165
-0.175
-0.145
-0.17
-0.165
-0.19
-0.18
-0.17
-0.13
-0.125
-0.115
-0.14
-0.115
-0.115
-0.075
-0.045
-0.07
-0.085
-0.105
-0.09
-0.08
-0.05
-0.035
-0.04
-0.045
0.02
0.045
0.01
0.025
0.04
0.025
0.01
-0.005
0.015
0.095
0.115
0.09
0.105
0.14
0.16
0.165
0.145
0.165
0.145
0.18
0.17
0.155
0.15
0.155
0.14
0.095
0.09
0.09
0.12
0.16
0.17
0.16
0.1
0.06
-0.005
0.01
0.06
0.01
0.015
-0.015
-0.035
-0.045
-0.05
-0.08
-0.095
-0.1
-0.125
-0.15
-0.16
-0.185
-0.16
-0.145
-0.175
-0.16
-0.18
-0.15
-0.2
-0.23
-0.17
-0.21
-0.25
-0.225
-0.215
-0.205
-0.205
-0.25
-0.275
-0.285
-0.265
-0.285
-0.28
-0.255
-0.26
-0.23
-0.215
-0.265
-0.25
-0.18
-0.24
-0.26
-0.18
-0.205
-0.25
-0.225
-0.21
-0.24
-0.225
-0.24
-0.265
-0.23
-0.235
-0.24
-0.23
-0.215
-0.245
-0.27
-0.21
-0.2
-0.23
-0.23
-0.215
-0.205
-0.215
-0.225
-0.24
-0.235
-0.245
-0.25
-0.25
-0.24
-0.22
-0.22
-0.215
-0.245
-0.215
-0.165
-0.215
-0.285
-0.215
-0.2
-0.225
-0.22
-0.225
-0.255
-0.285
-0.235
-0.205
-0.18
-0.175
-0.195
-0.255
-0.245
-0.215
-0.23
-0.225
-0.285
-0.3
-0.3
-0.32
-0.305
-0.255
-0.235
-0.25
-0.215
-0.23
-0.26
-0.28
-0.265
-0.255
-0.245
-0.255
-0.255
-0.245
-0.25
-0.29
-0.27
-0.245
-0.235
-0.26
-0.24
-0.21
-0.265
-0.27
-0.27
-0.26
-0.23
-0.22
-0.26
-0.255
-0.245
-0.25
-0.25
-0.265
-0.285
-0.305
-0.3
-0.275
-0.25
-0.23
-0.2
-0.205
-0.27
-0.255
-0.25
-0.3
-0.305
-0.24
-0.21
-0.255
-0.235
-0.24
-0.265
-0.26
-0.23
-0.26
-0.245
-0.23
-0.245
-0.24
-0.3
-0.29
-0.255
-0.25
-0.27
-0.255
-0.22
-0.255
-0.235
-0.225
-0.3
-0.32
-0.28
-0.285
-0.33
-0.31
-0.3
-0.315
-0.31
-0.27
-0.265
-0.285
-0.315
-0.265
-0.215
-0.27
-0.265
-0.265
-0.25
-0.245
-0.195
-0.195
-0.21
-0.215
-0.26
-0.255
-0.215
-0.205
-0.23
-0.145
-0.175
-0.16
-0.175
-0.14
-0.15
-0.145
-0.155
-0.14
-0.165
-0.165
-0.17
-0.125
-0.145
-0.195
-0.145
-0.155
-0.17
-0.195
-0.25
-0.27
-0.24
-0.185
-0.17
-0.145
-0.15
-0.185
-0.21
-0.225
-0.215
-0.23
-0.255
-0.225
-0.255
-0.265
-0.24
-0.25
-0.25
-0.255
-0.25
-0.255
-0.265
-0.255
-0.255
-0.255
-0.245
-0.245
-0.265
-0.295
-0.275
-0.295
-0.27
-0.255
-0.23
-0.225
-0.255
-0.255
-0.295
-0.305
-0.325
-0.3
-0.28
-0.28
-0.275
-0.21
-0.15
-0.075
0.05
0.12
0.165
0.25
0.355
0.445
0.525
0.535
0.545
0.51
0.5
0.44
0.35
0.22
0.05
-0.065
-0.18
-0.26
-0.34
-0.505
-0.605
-0.54
-0.505
-0.45
-0.385
-0.345
-0.295
-0.275
-0.285
-0.25
-0.22
-0.25
-0.265
-0.26
-0.2
-0.22
-0.24
-0.225
-0.235
-0.2
-0.205
-0.255
-0.275
-0.26
-0.22
-0.23
-0.24
-0.235
-0.225
-0.225
-0.225
-0.255
-0.22
-0.255
-0.23
-0.235
-0.21
-0.175
-0.22
-0.205
-0.21
-0.16
-0.145
-0.135
-0.185
-0.19
-0.195
-0.21
-0.165
-0.18
-0.225
-0.145
-0.125
-0.19
-0.19
-0.13
-0.145
-0.18
-0.14
-0.135
-0.085
-0.1
-0.07
-0.09
-0.1
-0.06
-0.085
-0.01
-0.06
-0.05
-0.055
-0.05
0.01
0.01
0.06
0.05
-0.005
-0.01
0.04
0.065
0.04
-0.005
0.05
0.065
0.115
0.09
0.075
0.065
0.06
0.075
0.085
0.165
0.14
0.13
0.15
0.2
0.22
0.205
0.19
0.18
0.165
0.13
0.095
0.095
0.15
0.255
0.265
0.22
0.195
0.145
0.085
0.06
0.05
0.05
0.025
0.03
0.035
-0.005
-0.015
-0.045
-0.035
-0.07
-0.08
-0.065
-0.095
-0.1
-0.14
-0.145
-0.155
-0.155
-0.125
-0.13
-0.115
-0.12
-0.14
-0.16
-0.195
-0.2
-0.17
-0.19
-0.22
-0.255
-0.215
-0.215
-0.2
-0.175
-0.18
-0.17
-0.205
-0.22
-0.255
-0.22
-0.19
-0.25
-0.235
-0.185
-0.14
-0.125
-0.195
-0.245
-0.255
-0.225
-0.235
-0.195
-0.21
-0.245
-0.225
-0.215
-0.215
-0.185
-0.16
-0.195
-0.23
-0.2
-0.18
-0.15
-0.195
-0.18
-0.24
-0.25
-0.23
-0.21
-0.255
-0.245
-0.295
-0.23
-0.205
-0.17
-0.22
-0.225
-0.19
-0.175
-0.205
-0.18
-0.15
-0.19
-0.185
-0.22
-0.245
-0.29
-0.285
-0.205
-0.16
-0.13
-0.17
-0.195
-0.21
-0.235
-0.24
-0.225
-0.215
-0.19
-0.19
-0.195
-0.23
-0.225
-0.215
-0.245
-0.245
-0.22
-0.23
-0.27
-0.265
-0.26
-0.255
-0.29
-0.195
-0.21
-0.2
-0.215
-0.24
-0.26
-0.235
-0.225
-0.25
-0.21
-0.235
-0.24
-0.255
-0.28
-0.245
-0.2
-0.235
-0.255
-0.28
-0.275
-0.235
-0.225
-0.215
-0.225
-0.225
-0.225
-0.245
-0.255
-0.245
-0.23
-0.225
-0.24
-0.235
-0.275
-0.3
-0.245
-0.24
-0.22
-0.18
-0.21
-0.24
-0.245
-0.25
-0.295
-0.335
-0.29
-0.25
-0.3
-0.265
-0.245
-0.245
-0.235
-0.205
-0.22
-0.26
-0.265
-0.255
-0.285
-0.28
-0.265
-0.245
-0.255
-0.27
-0.26
-0.24
-0.225
-0.225
-0.235
-0.285
-0.225
-0.235
-0.235
-0.24
-0.245
-0.23
-0.18
-0.25
-0.295
-0.285
-0.285
-0.275
-0.21
-0.195
-0.17
-0.145
-0.165
-0.18
-0.22
-0.24
-0.265
-0.28
-0.275
-0.225
-0.17
-0.165
-0.15
-0.14
-0.13
-0.16
-0.185
-0.175
-0.165
-0.14
-0.13
-0.135
-0.135
-0.135
-0.16
-0.11
-0.095
-0.165
-0.19
-0.18
-0.2
-0.195
-0.185
-0.165
-0.135
-0.19
-0.24
-0.27
-0.215
-0.205
-0.25
-0.21
-0.22
-0.19
-0.205
-0.26
-0.275
-0.26
-0.285
-0.305
-0.285
-0.26
-0.28
-0.265
-0.27
-0.275
-0.255
-0.26
-0.29
-0.295
-0.265
-0.255
-0.2
-0.225
-0.205
-0.215
-0.22
-0.2
-0.19
-0.22
-0.21
-0.175
-0.105
-0.04
0.005
0.145
0.18
0.255
0.375
0.47
0.525
0.58
0.62
0.595
0.51
0.46
0.405
0.27
0.045
0.0
-0.13
-0.305
-0.395
-0.53
-0.555
-0.445
-0.45
-0.425
-0.36
-0.32
-0.27
-0.25
-0.255
-0.22
-0.245
-0.25
-0.275
-0.27
-0.21
-0.175
-0.175
-0.175
-0.19
-0.185
-0.195
-0.18
-0.16
-0.205
-0.24
-0.21
-0.145
-0.16
-0.165
-0.175
-0.185
-0.185
-0.18
-0.165
-0.195
-0.175
-0.16
-0.175
-0.175
-0.2
-0.19
-0.2
-0.165
-0.1
-0.165
-0.195
-0.185
-0.155
-0.115
-0.1
-0.12
-0.105
-0.14
-0.155
-0.14
-0.17
-0.155
-0.135
-0.175
-0.14
-0.11
-0.105
-0.11
-0.125
-0.08
0.0
0.05
0.01
-0.035
-0.005
-0.085
-0.105
-0.09
-0.065
-0.02
0.045
0.13
0.1
0.07
0.14
0.155
0.135
0.095
0.125
0.14
0.1
0.12
0.155
0.13
0.1
0.12
0.115
0.13
0.155
0.18
0.145
0.2
0.15
0.2
0.195
0.19
0.155
0.15
0.19
0.17
0.13
0.13
0.155
0.155
0.185
0.135
0.11
0.1
0.1
0.085
0.085
0.075
0.045
0.005
-0.02
-0.03
-0.025
-0.04
-0.03
-0.05
-0.075
-0.095
-0.075
-0.125
-0.13
-0.165
-0.19
-0.225
-0.17
-0.215
-0.21
-0.21
-0.205
-0.195
-0.18
-0.175
-0.18
-0.2
-0.17
-0.16
-0.165
-0.165
-0.185
-0.16
-0.175
-0.185
-0.19
-0.205
-0.17
-0.16
-0.17
-0.17
-0.155
-0.155
-0.175
-0.18
-0.165
-0.16
-0.215
-0.225
-0.22
-0.21
-0.23
-0.225
-0.205
-0.205
-0.245
-0.255
-0.205
-0.16
-0.18
-0.185
-0.17
-0.18
-0.185
-0.115
-0.14
-0.19
-0.18
-0.16
-0.195
-0.19
-0.19
-0.21
-0.17
-0.165
-0.135
-0.16
-0.16
-0.16
-0.185
-0.13
-0.15
-0.195
-0.215
-0.205
-0.165
-0.165
-0.16
-0.22
-0.28
-0.23
-0.185
-0.15
-0.165
-0.18
-0.15
-0.22
-0.21
-0.205
-0.26
-0.26
-0.24
-0.21
-0.17
-0.195
-0.19
-0.175
-0.165
-0.15
-0.185
-0.22
-0.225
-0.23
-0.23
-0.235
-0.19
-0.215
-0.19
-0.165
-0.2
-0.205
-0.185
-0.185
-0.165
-0.175
-0.22
-0.245
-0.265
-0.195
-0.185
-0.22
-0.24
-0.2
-0.245
-0.26
-0.23
-0.225
-0.205
-0.215
-0.21
-0.2
-0.18
-0.165
-0.195
-0.29
-0.225
-0.195
-0.215
-0.23
-0.2
-0.18
-0.195
-0.17
-0.215
-0.22
-0.215
-0.205
-0.24
-0.235
-0.2
-0.22
-0.18
-0.195
-0.175
-0.165
-0.2
-0.22
-0.21
-0.2
-0.185
-0.155
-0.145
-0.175
-0.205
-0.205
-0.19
-0.205
-0.215
-0.185
-0.185
-0.18
-0.13
-0.095
-0.12
-0.13
-0.11
-0.115
-0.11
-0.1
-0.085
-0.12
-0.12
-0.145
-0.115
-0.145
-0.19
-0.18
-0.19
-0.21
-0.155
-0.135
-0.14
-0.095
-0.14
-0.185
-0.21
-0.215
-0.25
-0.245
-0.225
-0.245
-0.24
-0.21
-0.22
-0.225
-0.19
-0.195
-0.16
-0.24
-0.275
-0.28
-0.245
-0.22
-0.205
-0.215
-0.2
-0.21
-0.245
-0.24
-0.22
-0.205
-0.225
-0.2
-0.22
-0.205
-0.21
-0.21
-0.185
-0.155
-0.06
-0.005
0.105
0.18
0.235
0.29
0.35
0.445
0.49
0.48
0.515
0.445
0.385
0.37
0.305
0.155
0.02
-0.08
-0.22
-0.34
-0.49
-0.495
-0.475
-0.425
-0.425
-0.365
-0.29
-0.275
-0.255
-0.27
-0.27
-0.23
-0.215
-0.225
-0.21
-0.17
-0.165
-0.15
-0.185
-0.185
-0.17
-0.16
-0.145
-0.2
-0.21
-0.275
-0.275
-0.295
-0.28
-0.165
-0.135
-0.15
-0.16
-0.165
-0.15
-0.15
-0.15
-0.175
-0.16
-0.165
-0.165
-0.155
-0.155
-0.155
-0.17
-0.165
-0.185
-0.16
-0.145
-0.15
-0.175
-0.13
-0.12
-0.125
-0.17
-0.185
-0.17
-0.145
-0.15
-0.13
-0.125
-0.12
-0.095
-0.075
-0.1
-0.1
-0.12
-0.065
-0.065
-0.08
-0.065
-0.025
-0.03
-0.065
-0.005
0.01
0.0
-0.02
0.0
0.04
0.08
0.07
0.055
0.08
0.095
0.12
0.11
0.13
0.145
0.145
0.18
0.12
0.11
0.125
0.155
0.16
0.175
0.19
0.215
0.18
0.19
0.17
0.15
0.155
0.14
0.125
0.13
0.14
0.16
0.135
0.075
0.06
0.125
0.125
0.085
0.035
-0.02
-0.045
-0.06
-0.03
-0.03
-0.02
-0.1
-0.11
-0.15
-0.185
-0.165
-0.21
-0.19
-0.14
-0.155
-0.19
-0.19
-0.145
-0.19
-0.165
-0.205
-0.195
-0.175
-0.2
-0.205
-0.215
-0.185
-0.16
-0.17
-0.205
-0.205
-0.22
-0.21
-0.22
-0.22
-0.27
-0.275
-0.23
-0.19
-0.235
-0.235
-0.235
-0.235
-0.235
-0.245
-0.24
-0.215
-0.2
-0.235
-0.225
-0.22
-0.25
-0.225
-0.25
-0.29
-0.21
-0.195
-0.195
-0.185
-0.155
-0.21
-0.245
-0.235
-0.22
-0.26
-0.25
-0.26
-0.265
-0.235
-0.245
-0.19
-0.23
-0.23
-0.2
-0.21
-0.22
-0.22
-0.235
-0.245
-0.28
-0.24
-0.205
-0.205
-0.215
-0.175
-0.15
-0.175
-0.195
-0.2
-0.21
-0.22
-0.21
-0.225
-0.24
-0.255
-0.21
-0.235
-0.24
-0.225
-0.23
-0.235
-0.225
-0.265
-0.26
-0.295
-0.285
-0.23
-0.225
-0.225
-0.21
-0.23
-0.245
-0.255
-0.235
-0.22
-0.215
-0.23
-0.26
-0.25
-0.225
-0.225
-0.24
-0.225
-0.24
-0.235
-0.21
-0.225
-0.22
-0.215
-0.275
-0.265
-0.26
-0.29
-0.28
-0.25
-0.23
-0.23
-0.26
-0.275
-0.3
-0.295
-0.255
-0.245
-0.265
-0.2
-0.195
-0.18
-0.195
-0.22
-0.24
-0.28
-0.28
-0.285
-0.27
-0.21
-0.235
-0.22
-0.225
-0.245
-0.245
-0.255
-0.19
-0.17
-0.185
-0.17
-0.265
-0.28
-0.26
-0.275
-0.24
-0.245
-0.24
-0.22
-0.175
-0.135
-0.105
-0.14
-0.16
-0.165
-0.16
-0.2
-0.18
-0.19
-0.2
-0.155
-0.13
-0.16
-0.215
-0.23
-0.235
-0.205
-0.185
-0.21
-0.215
-0.165
-0.125
-0.105
-0.205
-0.215
-0.19
-0.22
-0.235
-0.215
-0.25
-0.24
-0.255
-0.29
-0.25
-0.255
-0.235
-0.235
-0.24
-0.27
-0.255
-0.26
-0.255
-0.29
-0.265
-0.265
-0.29
-0.265
-0.23
-0.265
-0.27
-0.235
-0.255
-0.305
-0.285
-0.22
-0.22
-0.21
-0.23
-0.24
-0.195
-0.15
-0.09
-0.015
0.085
0.165
0.19
0.285
0.435
0.5
0.515
0.51
0.505
0.425
0.35
0.3
0.16
0.005
-0.025
-0.135
-0.25
-0.355
-0.48
-0.525
-0.51
-0.48
-0.455
-0.41
-0.34
-0.295
-0.26
-0.275
-0.28
-0.275
-0.21
-0.2
-0.2
-0.25
-0.29
-0.295
-0.275
-0.28
-0.285
-0.26
-0.235
-0.205
-0.185
-0.21
-0.175
-0.12
-0.15
-0.19
-0.205
-0.22
-0.22
-0.26
-0.22
-0.17
-0.185
-0.175
-0.19
-0.195
-0.2
-0.2
-0.195
-0.155
-0.18
-0.18
-0.18
-0.145
-0.15
-0.16
-0.165
-0.145
-0.21
-0.225
-0.225
-0.17
-0.19
-0.17
-0.115
-0.11
-0.13
-0.135
-0.14
-0.16
-0.155
-0.09
-0.055
-0.05
-0.025
-0.08
-0.055
0.0
0.015
-0.025
-0.07
-0.06
-0.045
-0.03
0.005
0.05
0.04
0.075
0.075
0.095
0.1
0.07
0.07
0.065
0.045
0.05
0.095
0.105
0.165
0.15
0.175
0.155
0.145
0.16
0.185
0.17
0.14
0.155
0.16
0.15
0.11
0.13
0.13
0.11
0.08
0.07
0.07
0.12
0.035
0.065
0.065
0.04
0.025
0.0
-0.045
-0.055
-0.055
-0.06
-0.09
-0.095
-0.105
-0.115
-0.16
-0.18
-0.185
-0.155
-0.115
-0.15
-0.15
-0.185
-0.21
-0.195
-0.18
-0.165
-0.195
-0.2
-0.2
-0.205
-0.2
-0.225
-0.245
-0.25
-0.245
-0.23
-0.195
-0.245
-0.305
-0.22
-0.16
-0.195
-0.19
-0.23
-0.215
-0.23
-0.27
-0.265
-0.28
-0.26
-0.22
-0.21
-0.225
-0.235
-0.23
-0.22
-0.205
-0.22
-0.265
-0.25
-0.215
-0.22
-0.225
-0.245
-0.23
-0.195
-0.19
-0.18
-0.225
-0.3
-0.29
-0.21
-0.23
-0.205
-0.18
-0.19
-0.22
-0.195
-0.17
-0.195
-0.23
-0.21
-0.24
-0.3
-0.245
-0.2
-0.225
-0.195
-0.175
-0.21
-0.23
-0.22
-0.195
-0.225
-0.23
-0.225
-0.2
-0.19
-0.195
-0.22
-0.22
-0.235
-0.225
-0.27
-0.26
-0.22
-0.23
-0.23
-0.24
-0.275
-0.23
-0.225
-0.24
-0.215
-0.22
-0.245
-0.22
-0.215
-0.25
-0.22
-0.19
-0.18
-0.185
-0.27
-0.26
-0.27
-0.285
-0.255
-0.235
-0.205
-0.235
-0.23
-0.235
-0.285
-0.29
-0.195
-0.18
-0.215
-0.225
-0.235
-0.25
-0.26
-0.27
-0.29
-0.265
-0.245
-0.275
-0.285
-0.22
-0.205
-0.225
-0.245
-0.25
-0.225
-0.26
-0.28
-0.27
-0.24
-0.19
-0.215
-0.215
-0.185
-0.165
-0.19
-0.225
-0.2
-0.185
-0.215
-0.24
-0.265
-0.205
-0.195
-0.14
-0.105
-0.09
-0.165
-0.13
-0.145
-0.16
-0.165
-0.165
-0.15
-0.165
-0.165
-0.16
-0.145
-0.145
-0.15
-0.175
-0.17
-0.235
-0.27
-0.215
-0.265
-0.32
-0.245
-0.22
-0.24
-0.245
-0.21
-0.175
-0.21
-0.215
-0.21
-0.215
-0.235
-0.3
-0.295
-0.295
-0.305
-0.32
-0.325
-0.265
-0.22
-0.225
-0.22
-0.22
-0.22
-0.25
-0.21
-0.225
-0.215
-0.225
-0.21
-0.24
-0.245
-0.265
-0.245
-0.22
-0.17
-0.185
-0.1
0.01
0.06
0.11
0.175
0.235
0.325
0.465
0.495
0.565
0.55
0.52
0.5
0.425
0.37
0.17
0.02
-0.08
-0.165
-0.255
-0.42
-0.575
-0.56
-0.515
-0.44
-0.385
-0.325
-0.275
-0.285
-0.27
-0.26
-0.195
-0.175
-0.17
-0.175
-0.195
-0.235
-0.215
-0.275
-0.26
-0.22
-0.225
-0.215
-0.255
-0.23
-0.235
-0.245
-0.275
-0.24
-0.225
-0.215
-0.185
-0.185
-0.2
-0.195
-0.195
-0.195
-0.175
-0.205
-0.215
-0.195
-0.16
-0.18
-0.195
-0.19
-0.195
-0.155
-0.12
-0.12
-0.16
-0.175
-0.1
-0.12
-0.11
-0.13
-0.15
-0.16
-0.175
-0.16
-0.13
-0.12
-0.1
-0.075
-0.075
-0.06
-0.09
-0.115
-0.09
-0.07
-0.08
-0.08
-0.055
-0.02
0.005
0.02
0.025
0.03
0.01
-0.01
0.035
0.02
0.04
0.06
0.005
0.035
0.085
0.1
0.15
0.125
0.15
0.17
0.13
0.135
0.17
0.15
0.145
0.12
0.135
0.19
0.165
0.205
0.21
0.16
0.18
0.145
0.15
0.165
0.135
0.12
0.145
0.11
0.105
0.1
0.14
0.095
0.045
-0.025
-0.01
-0.025
-0.035
-0.07
-0.06
-0.045
-0.02
-0.04
-0.085
-0.125
-0.13
-0.135
-0.105
-0.145
-0.135
-0.165
-0.155
-0.195
-0.215
-0.175
-0.18
-0.175
-0.16
-0.155
-0.17
-0.185
-0.195
-0.24
-0.245
-0.245
-0.19
-0.14
-0.155
-0.19
-0.185
-0.195
-0.225
-0.22
-0.24
-0.245
-0.25
-0.26
-0.24
-0.235
-0.235
-0.195
-0.15
-0.18
-0.18
-0.19
-0.23
-0.275
-0.25
-0.28
-0.21
-0.18
-0.15
-0.13
-0.175
-0.205
-0.21
-0.27
-0.225
-0.19
-0.175
-0.16
-0.18
-0.165
-0.16
-0.145
-0.205
-0.23
-0.22
-0.255
-0.22
-0.175
-0.155
-0.17
-0.255
-0.27
-0.285
-0.27
-0.13
-0.115
-0.155
-0.19
-0.22
-0.215
-0.195
-0.205
-0.22
-0.24
-0.19
-0.165
-0.18
-0.19
-0.18
-0.205
-0.225
-0.235
-0.21
-0.21
-0.195
-0.25
-0.28
-0.26
-0.16
-0.155
-0.18
-0.165
-0.2
-0.21
-0.235
-0.2
-0.215
-0.19
-0.2
-0.235
-0.23
-0.22
-0.245
-0.245
-0.23
-0.195
-0.205
-0.21
-0.185
-0.225
-0.275
-0.265
-0.23
-0.23
-0.25
-0.205
-0.17
-0.14
-0.175
-0.195
-0.26
-0.24
-0.22
-0.245
-0.245
-0.2
-0.21
-0.21
-0.235
-0.24
-0.185
-0.165
-0.2
-0.225
-0.23
-0.235
-0.21
-0.2
-0.21
-0.22
-0.215
-0.175
-0.17
-0.165
-0.15
-0.165
-0.165
-0.16
-0.13
-0.14
-0.145
-0.145
-0.125
-0.2
-0.21
-0.17
-0.155
-0.145
-0.165
-0.135
-0.125
-0.135
-0.185
-0.17
-0.09
-0.085
-0.045
-0.08
-0.125
-0.135
-0.18
-0.16
-0.175
-0.175
-0.17
-0.19
-0.195
-0.23
-0.22
-0.285
-0.27
-0.26
-0.285
-0.27
-0.22
-0.19
-0.21
-0.205
-0.155
-0.195
-0.22
-0.26
-0.235
-0.195
-0.225
-0.2
-0.2
-0.23
-0.19
-0.235
-0.265
-0.245
-0.21
-0.195
-0.16
-0.175
-0.16
-0.17
-0.14
-0.1
-0.09
0.01
0.055
0.15
0.26
0.345
0.43
0.54
0.585
0.605
0.64
0.605
0.545
0.5
0.405
0.24
0.095
0.035
-0.09
-0.225
-0.34
-0.48
-0.495
-0.425
-0.355
-0.285
-0.265
-0.26
-0.235
-0.285
-0.22
-0.195
-0.145
-0.145
-0.175
-0.21
-0.165
-0.2
-0.215
-0.21
-0.235
-0.205
-0.17
-0.145
-0.135
-0.15
-0.12
-0.145
-0.145
-0.155
-0.145
-0.185
-0.24
-0.2
-0.18
-0.15
-0.105
-0.135
-0.175
-0.135
-0.145
-0.17
-0.195
-0.165
-0.16
-0.135
-0.16
-0.14
-0.105
-0.115
-0.075
-0.06
-0.05
-0.035
-0.065
-0.07
-0.05
-0.08
-0.1
-0.1
-0.075
-0.1
-0.06
-0.065
-0.065
-0.035
-0.025
-0.04
-0.025
-0.025
-0.005
-0.01
-0.04
0.0
0.03
0.06
0.095
0.07
0.045
0.02
0.005
0.03
0.125
0.115
0.125
0.105
0.09
0.06
0.065
0.13
0.175
0.195
0.25
0.255
0.215
0.185
0.24
0.215
0.2
0.215
0.175
0.15
0.18
0.205
0.225
0.19
0.165
0.155
0.145
0.125
0.12
0.125
0.115
0.14
0.11
0.075
0.03
0.045
0.03
0.01
0.03
-0.075
-0.04
-0.02
-0.04
-0.055
-0.01
-0.04
-0.08
-0.08
-0.095
-0.125
-0.12
-0.135
-0.145
-0.155
-0.17
-0.185
-0.155
-0.155
-0.12
-0.155
-0.175
-0.145
-0.19
-0.195
-0.18
-0.215
-0.185
-0.195
-0.2
-0.205
-0.2
-0.215
-0.265
-0.22
-0.185
-0.23
-0.195
-0.19
-0.22
-0.26
-0.25
-0.245
-0.225
-0.19
-0.12
-0.145
-0.165
-0.18
-0.17
-0.16
-0.185
-0.18
-0.205
-0.22
-0.17
-0.2
-0.15
-0.18
-0.185
-0.21
-0.2
-0.19
-0.17
-0.15
-0.17
-0.17
-0.145
-0.18
-0.17
-0.165
-0.19
-0.185
-0.205
-0.17
-0.17
-0.185
-0.21
-0.24
-0.24
-0.22
-0.15
-0.14
-0.135
-0.11
-0.165
-0.17
-0.165
-0.155
-0.195
-0.175
-0.145
-0.155
-0.19
-0.225
-0.19
-0.14
-0.16
-0.18
-0.195
-0.215
-0.215
-0.185
-0.17
-0.215
-0.205
-0.215
-0.26
-0.245
-0.205
-0.195
-0.21
-0.23
-0.21
-0.19
-0.19
-0.19
-0.17
-0.17
-0.17
-0.18
-0.215
-0.255
-0.245
-0.2
-0.225
-0.2
-0.18
-0.17
-0.2
-0.235
-0.235
-0.245
-0.19
-0.18
-0.135
-0.175
-0.2
-0.205
-0.205
-0.195
-0.245
-0.265
-0.25
-0.215
-0.195
-0.195
-0.17
-0.205
-0.225
-0.195
-0.19
-0.195
-0.195
-0.165
-0.17
-0.165
-0.22
-0.205
-0.185
-0.165
-0.15
-0.165
-0.165
-0.16
-0.185
-0.16
-0.18
-0.225
-0.2
-0.195
-0.225
-0.195
-0.14
-0.135
-0.19
-0.2
-0.195
-0.2
-0.145
-0.1
-0.085
-0.1
-0.13
-0.1
-0.11
-0.13
-0.165
-0.155
-0.15
-0.125
-0.135
-0.17
-0.16
-0.165
-0.115
-0.075
-0.125
-0.16
-0.205
-0.23
-0.21
-0.175
-0.21
-0.2
-0.18
-0.22
-0.195
-0.225
-0.24
-0.225
-0.205
-0.14
-0.16
-0.18
-0.185
-0.215
-0.21
-0.215
-0.25
-0.25
-0.26
-0.28
-0.265
-0.175
-0.19
-0.19
-0.19
-0.195
-0.19
-0.21
-0.185
-0.165
-0.15
-0.085
0.015
0.085
0.125
0.19
0.255
0.305
0.445
0.515
0.545
0.56
0.555
0.48
0.47
0.43
0.315
0.105
-0.015
-0.115
-0.175
-0.26
-0.43
-0.5
-0.465
-0.39
-0.355
-0.31
-0.31
-0.29
-0.235
-0.215
-0.21
-0.21
-0.2
-0.16
-0.165
-0.17
-0.175
-0.2
-0.215
-0.21
-0.195
-0.175
-0.16
-0.19
-0.19
-0.205
-0.23
-0.195
-0.155
-0.175
-0.205
-0.16
-0.115
-0.12
-0.115
-0.14
-0.135
-0.14
-0.175
-0.17
-0.165
-0.165
-0.155
-0.16
-0.135
-0.09
-0.07
-0.075
-0.125
-0.095
-0.155
-0.135
-0.125
-0.13
-0.14
-0.12
-0.095
-0.085
-0.09
-0.125
-0.1
-0.105
-0.095
-0.09
-0.09
-0.095
-0.075
-0.09
-0.04
0.045
0.06
0.02
-0.01
0.01
-0.035
0.03
0.06
0.055
0.075
0.095
0.135
0.125
0.115
0.08
0.065
0.11
0.175
0.17
0.18
0.17
0.185
0.175
0.16
0.15
0.2
0.25
0.215
0.225
0.195
0.17
0.155
0.155
0.21
0.2
0.165
0.175
0.18
0.185
0.16
0.14
0.175
0.18
0.13
0.1
0.08
0.09
0.06
0.04
0.06
0.035
0.005
-0.015
-0.07
-0.075
-0.065
-0.055
-0.04
-0.08
-0.065
-0.06
-0.095
-0.115
-0.17
-0.165
-0.115
-0.165
-0.165
-0.14
-0.18
-0.195
-0.19
-0.165
-0.175
-0.175
-0.21
-0.095
-0.09
-0.155
-0.2
-0.225
-0.23
-0.205
-0.15
-0.09
-0.14
-0.125
-0.15
-0.155
-0.12
-0.105
-0.13
-0.22
-0.205
-0.185
-0.165
-0.14
-0.145
-0.16
-0.185
-0.17
-0.15
-0.15
-0.155
-0.14
-0.14
-0.17
-0.175
-0.18
-0.16
-0.16
-0.175
-0.16
-0.17
-0.14
-0.175
-0.23
-0.265
-0.225
-0.225
-0.205
-0.165
-0.16
-0.165
-0.14
-0.15
-0.125
-0.155
-0.15
-0.165
-0.14
-0.135
-0.145
-0.115
-0.105
-0.155
-0.175
-0.165
-0.18
-0.175
-0.14
-0.14
-0.155
-0.19
-0.145
-0.1
-0.145
-0.165
-0.15
-0.15
-0.175
-0.21
-0.175
-0.145
-0.175
-0.18
-0.15
-0.16
-0.17
-0.16
-0.175
-0.175
-0.225
-0.225
-0.18
-0.185
-0.18
-0.175
-0.2
-0.185
-0.185
-0.19
-0.15
-0.15
-0.155
-0.145
-0.15
-0.18
-0.2
-0.17
-0.195
-0.195
-0.155
-0.175
-0.19
-0.175
-0.16
-0.12
-0.16
-0.165
-0.18
-0.19
-0.185
-0.175
-0.175
-0.185
-0.155
-0.105
-0.165
-0.21
-0.19
-0.215
-0.195
-0.205
-0.22
-0.215
-0.17
-0.125
-0.13
-0.18
-0.19
-0.175
-0.16
-0.18
-0.175
-0.185
-0.175
-0.185
-0.165
-0.18
-0.2
-0.16
-0.155
-0.155
-0.185
-0.215
-0.19
-0.175
-0.2
-0.22
-0.215
-0.18
-0.155
-0.15
-0.15
-0.145
-0.115
-0.115
-0.11
-0.115
-0.105
-0.11
-0.09
-0.125
-0.14
-0.14
-0.135
-0.135
-0.075
-0.06
-0.045
-0.015
-0.025
-0.055
-0.08
-0.105
-0.105
-0.11
-0.12
-0.12
-0.075
-0.095
-0.105
-0.12
-0.07
-0.13
-0.175
-0.145
-0.165
-0.14
-0.175
-0.16
-0.165
-0.195
-0.17
-0.155
-0.14
-0.17
-0.19
-0.145
-0.15
-0.145
-0.13
-0.135
-0.185
-0.15
-0.125
-0.135
-0.18
-0.145
-0.17
-0.165
-0.165
-0.16
-0.2
-0.19
-0.135
-0.155
-0.16
-0.175
-0.175
-0.13
-0.14
-0.175
-0.145
-0.095
-0.055
0.025
0.105
0.185
0.195
0.265
0.375
0.505
0.595
0.605
0.595
0.615
0.535
0.52
0.47
0.31
0.16
0.08
-0.04
-0.12
-0.225
-0.38
-0.425
-0.41
-0.345
-0.305
-0.235
-0.18
-0.13
-0.155
-0.175
-0.15
-0.155
-0.17
-0.155
-0.14
-0.135
-0.115
-0.145
-0.145
-0.16
-0.145
-0.18
-0.21
-0.215
