# TIPE ECG 2021 - ECG-ID Database v1.0.0 par Physionet
# [N° de la personne, N° de l'enregistrement, Période d'échantillonnage, Prénom, Age, Sexe, Date de l'enregistrement]
[75, 3, 0.002, "Albert", 25, "H", "13.05.2005"]
-0.355
-0.35
-0.345
-0.345
-0.35
-0.355
-0.36
-0.35
-0.355
-0.355
-0.345
-0.35
-0.36
-0.355
-0.37
-0.365
-0.37
-0.365
-0.38
-0.375
-0.365
-0.36
-0.36
-0.35
-0.355
-0.345
-0.34
-0.335
-0.345
-0.335
-0.33
-0.335
-0.345
-0.335
-0.32
-0.305
-0.3
-0.305
-0.33
-0.325
-0.32
-0.315
-0.325
-0.305
-0.31
-0.31
-0.315
-0.32
-0.34
-0.345
-0.345
-0.37
-0.37
-0.375
-0.4
-0.395
-0.4
-0.405
-0.405
-0.4
-0.395
-0.395
-0.395
-0.395
-0.4
-0.4
-0.385
-0.39
-0.41
-0.39
-0.385
-0.395
-0.39
-0.365
-0.37
-0.37
-0.34
-0.325
-0.27
-0.17
-0.08
-0.01
0.095
0.21
0.265
0.305
0.33
0.345
0.365
0.35
0.23
0.015
-0.165
-0.34
-0.545
-0.71
-0.835
-0.915
-0.9
-0.835
-0.75
-0.675
-0.62
-0.595
-0.595
-0.6
-0.585
-0.565
-0.56
-0.515
-0.485
-0.47
-0.46
-0.465
-0.46
-0.425
-0.42
-0.43
-0.415
-0.41
-0.395
-0.405
-0.405
-0.4
-0.41
-0.395
-0.385
-0.39
-0.4
-0.38
-0.38
-0.385
-0.375
-0.38
-0.385
-0.38
-0.38
-0.39
-0.385
-0.36
-0.36
-0.365
-0.355
-0.36
-0.375
-0.37
-0.355
-0.355
-0.355
-0.345
-0.345
-0.35
-0.34
-0.34
-0.345
-0.335
-0.325
-0.325
-0.33
-0.31
-0.315
-0.305
-0.295
-0.305
-0.305
-0.29
-0.285
-0.295
-0.295
-0.275
-0.26
-0.255
-0.265
-0.27
-0.265
-0.26
-0.26
-0.255
-0.245
-0.255
-0.25
-0.25
-0.245
-0.245
-0.26
-0.255
-0.26
-0.26
-0.255
-0.25
-0.26
-0.265
-0.265
-0.29
-0.3
-0.275
-0.28
-0.285
-0.275
-0.275
-0.28
-0.295
-0.295
-0.305
-0.31
-0.3
-0.31
-0.32
-0.325
-0.32
-0.32
-0.32
-0.32
-0.345
-0.35
-0.345
-0.345
-0.36
-0.35
-0.355
-0.38
-0.375
-0.38
-0.39
-0.39
-0.385
-0.395
-0.4
-0.39
-0.385
-0.4
-0.4
-0.405
-0.405
-0.415
-0.4
-0.405
-0.405
-0.395
-0.39
-0.405
-0.39
-0.385
-0.39
-0.395
-0.39
-0.395
-0.4
-0.39
-0.39
-0.39
-0.395
-0.405
-0.4
-0.395
-0.395
-0.4
-0.39
-0.375
-0.385
-0.39
-0.395
-0.395
-0.41
-0.4
-0.385
-0.385
-0.39
-0.38
-0.38
-0.39
-0.39
-0.39
-0.39
-0.39
-0.395
-0.395
-0.395
-0.38
-0.385
-0.395
-0.385
-0.4
-0.405
-0.41
-0.405
-0.4
-0.4
-0.38
-0.39
-0.4
-0.39
-0.39
-0.405
-0.395
-0.395
-0.405
-0.4
-0.385
-0.395
-0.4
-0.395
-0.405
-0.42
-0.425
-0.42
-0.42
-0.425
-0.42
-0.415
-0.42
-0.41
-0.415
-0.415
-0.4
-0.39
-0.385
-0.385
-0.37
-0.385
-0.39
-0.375
-0.365
-0.35
-0.34
-0.355
-0.365
-0.36
-0.36
-0.355
-0.34
-0.33
-0.33
-0.335
-0.34
-0.345
-0.36
-0.375
-0.385
-0.4
-0.405
-0.42
-0.44
-0.455
-0.44
-0.43
-0.44
-0.435
-0.435
-0.44
-0.435
-0.425
-0.43
-0.44
-0.435
-0.425
-0.435
-0.42
-0.425
-0.425
-0.43
-0.405
-0.405
-0.415
-0.395
-0.37
-0.345
-0.265
-0.17
-0.075
0.01
0.125
0.205
0.25
0.28
0.295
0.325
0.355
0.31
0.145
-0.055
-0.245
-0.445
-0.615
-0.765
-0.88
-0.935
-0.9
-0.825
-0.755
-0.685
-0.64
-0.64
-0.62
-0.61
-0.605
-0.59
-0.555
-0.53
-0.52
-0.52
-0.51
-0.49
-0.48
-0.465
-0.465
-0.47
-0.46
-0.44
-0.455
-0.435
-0.435
-0.445
-0.435
-0.43
-0.43
-0.43
-0.42
-0.42
-0.425
-0.415
-0.42
-0.42
-0.415
-0.415
-0.415
-0.42
-0.415
-0.415
-0.415
-0.395
-0.4
-0.405
-0.405
-0.39
-0.395
-0.4
-0.39
-0.38
-0.385
-0.375
-0.38
-0.38
-0.37
-0.37
-0.37
-0.37
-0.355
-0.35
-0.34
-0.34
-0.34
-0.34
-0.325
-0.33
-0.33
-0.33
-0.335
-0.31
-0.305
-0.3
-0.305
-0.3
-0.295
-0.29
-0.29
-0.28
-0.275
-0.28
-0.28
-0.265
-0.275
-0.28
-0.265
-0.275
-0.285
-0.28
-0.28
-0.275
-0.285
-0.27
-0.29
-0.295
-0.29
-0.29
-0.3
-0.305
-0.295
-0.3
-0.305
-0.3
-0.31
-0.325
-0.32
-0.325
-0.34
-0.325
-0.33
-0.33
-0.335
-0.345
-0.355
-0.365
-0.365
-0.375
-0.385
-0.385
-0.38
-0.385
-0.385
-0.39
-0.4
-0.41
-0.405
-0.42
-0.435
-0.425
-0.42
-0.43
-0.42
-0.425
-0.435
-0.44
-0.43
-0.435
-0.445
-0.435
-0.435
-0.43
-0.43
-0.44
-0.445
-0.445
-0.435
-0.445
-0.455
-0.425
-0.43
-0.435
-0.43
-0.435
-0.45
-0.45
-0.44
-0.445
-0.445
-0.435
-0.43
-0.445
-0.44
-0.44
-0.45
-0.44
-0.435
-0.45
-0.45
-0.435
-0.44
-0.44
-0.44
-0.445
-0.455
-0.44
-0.44
-0.445
-0.455
-0.445
-0.45
-0.455
-0.445
-0.45
-0.46
-0.455
-0.45
-0.45
-0.45
-0.45
-0.45
-0.445
-0.455
-0.445
-0.465
-0.465
-0.455
-0.47
-0.47
-0.455
-0.455
-0.46
-0.45
-0.46
-0.47
-0.465
-0.46
-0.465
-0.46
-0.46
-0.455
-0.46
-0.455
-0.475
-0.475
-0.47
-0.465
-0.475
-0.47
-0.475
-0.485
-0.48
-0.45
-0.46
-0.475
-0.47
-0.46
-0.465
-0.47
-0.47
-0.475
-0.485
-0.475
-0.485
-0.495
-0.495
-0.485
-0.495
-0.495
-0.47
-0.47
-0.47
-0.455
-0.45
-0.46
-0.44
-0.445
-0.45
-0.44
-0.43
-0.42
-0.41
-0.41
-0.425
-0.42
-0.415
-0.42
-0.43
-0.41
-0.4
-0.4
-0.405
-0.405
-0.425
-0.435
-0.435
-0.455
-0.465
-0.465
-0.48
-0.505
-0.51
-0.495
-0.515
-0.515
-0.51
-0.51
-0.51
-0.495
-0.49
-0.505
-0.485
-0.49
-0.51
-0.505
-0.495
-0.505
-0.515
-0.505
-0.49
-0.485
-0.465
-0.47
-0.47
-0.435
-0.365
-0.295
-0.205
-0.12
-0.015
0.07
0.155
0.185
0.21
0.255
0.3
0.295
0.195
0.02
-0.18
-0.37
-0.545
-0.73
-0.855
-0.94
-0.945
-0.92
-0.84
-0.77
-0.735
-0.715
-0.695
-0.695
-0.69
-0.675
-0.66
-0.635
-0.625
-0.6
-0.605
-0.585
-0.58
-0.565
-0.55
-0.545
-0.53
-0.535
-0.535
-0.53
-0.53
-0.54
-0.53
-0.52
-0.525
-0.525
-0.515
-0.515
-0.515
-0.52
-0.515
-0.51
-0.52
-0.52
-0.53
-0.505
-0.485
-0.5
-0.5
-0.49
-0.49
-0.485
-0.475
-0.48
-0.495
-0.495
-0.48
-0.48
-0.475
-0.46
-0.46
-0.47
-0.465
-0.465
-0.47
-0.45
-0.455
-0.46
-0.45
-0.435
-0.43
-0.425
-0.425
-0.43
-0.42
-0.415
-0.405
-0.41
-0.41
-0.395
-0.39
-0.385
-0.375
-0.385
-0.385
-0.385
-0.385
-0.405
-0.375
-0.36
-0.365
-0.365
-0.37
-0.375
-0.37
-0.37
-0.36
-0.365
-0.355
-0.355
-0.365
-0.37
-0.375
-0.38
-0.38
-0.38
-0.39
-0.405
-0.395
-0.385
-0.41
-0.4
-0.395
-0.41
-0.415
-0.41
-0.41
-0.425
-0.425
-0.415
-0.435
-0.435
-0.425
-0.45
-0.45
-0.45
-0.46
-0.475
-0.465
-0.46
-0.46
-0.475
-0.475
-0.485
-0.49
-0.485
-0.485
-0.5
-0.49
-0.495
-0.495
-0.5
-0.505
-0.515
-0.515
-0.515
-0.51
-0.515
-0.505
-0.495
-0.5
-0.505
-0.505
-0.51
-0.51
-0.5
-0.505
-0.515
-0.51
-0.505
-0.515
-0.505
-0.52
-0.515
-0.52
-0.51
-0.53
-0.52
-0.515
-0.515
-0.515
-0.515
-0.525
-0.525
-0.51
-0.51
-0.52
-0.525
-0.52
-0.51
-0.515
-0.505
-0.515
-0.525
-0.52
-0.515
-0.53
-0.525
-0.51
-0.515
-0.515
-0.51
-0.515
-0.525
-0.52
-0.52
-0.52
-0.52
-0.51
-0.515
-0.52
-0.52
-0.525
-0.53
-0.53
-0.525
-0.53
-0.535
-0.52
-0.52
-0.525
-0.53
-0.53
-0.54
-0.525
-0.53
-0.535
-0.535
-0.525
-0.535
-0.53
-0.53
-0.545
-0.535
-0.54
-0.53
-0.535
-0.545
-0.545
-0.53
-0.535
-0.525
-0.54
-0.55
-0.54
-0.525
-0.54
-0.54
-0.53
-0.535
-0.54
-0.535
-0.55
-0.555
-0.545
-0.545
-0.555
-0.54
-0.53
-0.53
-0.545
-0.545
-0.55
-0.555
-0.555
-0.555
-0.56
-0.55
-0.55
-0.55
-0.54
-0.535
-0.54
-0.525
-0.52
-0.51
-0.505
-0.495
-0.49
-0.495
-0.48
-0.46
-0.465
-0.47
-0.47
-0.485
-0.495
-0.49
-0.475
-0.47
-0.465
-0.455
-0.465
-0.46
-0.465
-0.48
-0.495
-0.49
-0.52
-0.54
-0.54
-0.545
-0.57
-0.565
-0.555
-0.56
-0.575
-0.555
-0.555
-0.565
-0.555
-0.565
-0.58
-0.575
-0.565
-0.56
-0.57
-0.55
-0.555
-0.565
-0.55
-0.535
-0.545
-0.53
-0.515
-0.485
-0.435
-0.33
-0.24
-0.185
-0.055
0.04
0.105
0.125
0.155
0.195
0.225
0.225
0.1
-0.105
-0.295
-0.495
-0.665
-0.825
-0.94
-1.015
-1.02
-0.96
-0.885
-0.82
-0.79
-0.775
-0.77
-0.76
-0.755
-0.745
-0.715
-0.68
-0.67
-0.65
-0.645
-0.64
-0.62
-0.605
-0.595
-0.6
-0.595
-0.585
-0.58
-0.585
-0.575
-0.58
-0.58
-0.575
-0.575
-0.57
-0.56
-0.565
-0.56
-0.55
-0.555
-0.555
-0.555
-0.545
-0.54
-0.55
-0.545
-0.535
-0.535
-0.535
-0.53
-0.535
-0.54
-0.54
-0.535
-0.535
-0.525
-0.515
-0.52
-0.51
-0.5
-0.515
-0.515
-0.5
-0.51
-0.505
-0.485
-0.485
-0.49
-0.48
-0.465
-0.475
-0.475
-0.465
-0.465
-0.47
-0.455
-0.44
-0.445
-0.45
-0.435
-0.44
-0.435
-0.42
-0.425
-0.43
-0.415
-0.405
-0.405
-0.4
-0.405
-0.405
-0.41
-0.41
-0.405
-0.415
-0.405
-0.405
-0.42
-0.425
-0.42
-0.43
-0.425
-0.425
-0.435
-0.44
-0.43
-0.435
-0.445
-0.445
-0.435
-0.445
-0.455
-0.46
-0.46
-0.48
-0.46
-0.47
-0.48
-0.48
-0.475
-0.49
-0.49
-0.49
-0.5
-0.505
-0.505
-0.5
-0.51
-0.51
-0.52
-0.53
-0.53
-0.53
-0.545
-0.545
-0.535
-0.545
-0.555
-0.545
-0.55
-0.565
-0.555
-0.555
-0.56
-0.565
-0.55
-0.56
-0.56
-0.545
-0.55
-0.555
-0.555
-0.555
-0.56
-0.56
-0.555
-0.555
-0.555
-0.55
-0.56
-0.565
-0.555
-0.54
-0.555
-0.565
-0.56
-0.555
-0.565
-0.565
-0.565
-0.565
-0.55
-0.55
-0.55
-0.55
-0.545
-0.55
-0.56
-0.55
-0.56
-0.57
-0.555
-0.555
-0.555
-0.55
-0.555
-0.55
-0.555
-0.55
-0.575
-0.57
-0.57
-0.57
-0.565
-0.565
-0.555
-0.555
-0.565
-0.56
-0.56
-0.565
-0.565
-0.56
-0.575
-0.57
-0.565
-0.565
-0.565
-0.565
-0.58
-0.58
-0.575
-0.57
-0.585
-0.575
-0.575
-0.565
-0.57
-0.565
-0.58
-0.58
-0.565
-0.56
-0.57
-0.565
-0.575
-0.57
-0.575
-0.57
-0.575
-0.58
-0.575
-0.58
-0.57
-0.565
-0.57
-0.575
-0.565
-0.575
-0.585
-0.575
-0.565
-0.57
-0.59
-0.585
-0.565
-0.57
-0.56
-0.565
-0.58
-0.58
-0.57
-0.575
-0.58
-0.575
-0.58
-0.58
-0.58
-0.575
-0.59
-0.585
-0.585
-0.595
-0.6
-0.585
-0.58
-0.585
-0.57
-0.57
-0.575
-0.56
-0.54
-0.545
-0.56
-0.535
-0.535
-0.54
-0.53
-0.51
-0.52
-0.51
-0.5
-0.505
-0.515
-0.505
-0.505
-0.5
-0.5
-0.495
-0.505
-0.495
-0.505
-0.51
-0.53
-0.52
-0.54
-0.56
-0.58
-0.59
-0.595
-0.59
-0.59
-0.595
-0.595
-0.585
-0.59
-0.59
-0.585
-0.595
-0.585
-0.585
-0.585
-0.595
-0.595
-0.595
-0.58
-0.585
-0.575
-0.565
-0.57
-0.57
-0.55
-0.53
-0.475
-0.38
-0.275
-0.21
-0.09
0.02
0.095
0.15
0.165
0.165
0.21
0.215
0.115
-0.08
-0.27
-0.475
-0.695
-0.855
-0.995
-1.1
-1.095
-1.06
-0.995
-0.915
-0.84
-0.825
-0.82
-0.82
-0.815
-0.785
-0.76
-0.745
-0.71
-0.69
-0.675
-0.68
-0.675
-0.66
-0.65
-0.64
-0.62
-0.6
-0.595
-0.6
-0.595
-0.6
-0.595
-0.585
-0.585
-0.585
-0.58
-0.58
-0.57
-0.565
-0.57
-0.57
-0.575
-0.57
-0.575
-0.57
-0.565
-0.56
-0.565
-0.555
-0.545
-0.54
-0.55
-0.55
-0.54
-0.54
-0.53
-0.52
-0.525
-0.525
-0.515
-0.52
-0.515
-0.51
-0.505
-0.515
-0.5
-0.495
-0.485
-0.495
-0.49
-0.49
-0.48
-0.47
-0.47
-0.475
-0.46
-0.455
-0.46
-0.435
-0.44
-0.43
-0.42
-0.425
-0.42
-0.435
-0.42
-0.415
-0.415
-0.395
-0.385
-0.395
-0.395
-0.385
-0.4
-0.415
-0.405
-0.4
-0.4
-0.4
-0.4
-0.42
-0.42
-0.42
-0.43
-0.45
-0.44
-0.44
-0.435
-0.435
-0.44
-0.45
-0.46
-0.435
-0.455
-0.46
-0.465
-0.46
-0.465
-0.465
-0.455
-0.48
-0.49
-0.485
-0.495
-0.515
-0.5
-0.51
-0.515
-0.525
-0.55
-0.535
-0.525
-0.53
-0.535
-0.55
-0.545
-0.55
-0.56
-0.545
-0.565
-0.57
-0.565
-0.55
-0.565
-0.565
-0.565
-0.565
-0.57
-0.565
-0.575
-0.57
-0.56
-0.555
-0.565
-0.56
-0.56
-0.555
-0.565
-0.56
-0.565
-0.565
-0.56
-0.565
-0.565
-0.565
-0.555
-0.555
-0.56
-0.565
-0.58
-0.575
-0.56
-0.555
-0.555
-0.545
-0.555
-0.555
-0.56
-0.55
-0.555
-0.565
-0.56
-0.545
-0.56
-0.555
-0.56
-0.56
-0.555
-0.545
-0.565
-0.565
-0.56
-0.56
-0.57
-0.57
-0.56
-0.545
-0.55
-0.56
-0.57
-0.57
-0.575
-0.57
-0.585
-0.57
-0.575
-0.58
-0.585
-0.56
-0.575
-0.575
-0.56
-0.57
-0.585
-0.57
-0.56
-0.57
-0.575
-0.575
-0.58
-0.575
-0.575
-0.57
-0.575
-0.565
-0.565
-0.575
-0.57
-0.57
-0.58
-0.58
-0.58
-0.605
-0.605
-0.59
-0.585
-0.585
-0.585
-0.575
-0.57
-0.575
-0.58
-0.58
-0.595
-0.575
-0.58
-0.585
-0.59
-0.59
-0.6
-0.59
-0.595
-0.605
-0.615
-0.61
-0.61
-0.605
-0.615
-0.605
-0.59
-0.595
-0.58
-0.595
-0.59
-0.57
-0.56
-0.555
-0.55
-0.535
-0.545
-0.545
-0.53
-0.525
-0.535
-0.52
-0.515
-0.52
-0.52
-0.52
-0.525
-0.52
-0.51
-0.51
-0.505
-0.49
-0.505
-0.52
-0.525
-0.55
-0.56
-0.565
-0.58
-0.605
-0.615
-0.595
-0.59
-0.605
-0.595
-0.6
-0.595
-0.585
-0.595
-0.59
-0.595
-0.59
-0.59
-0.595
-0.59
-0.605
-0.615
-0.6
-0.57
-0.57
-0.57
-0.55
-0.52
-0.465
-0.39
-0.3
-0.22
-0.1
0.02
0.095
0.155
0.185
0.175
0.195
0.205
0.1
-0.095
-0.27
-0.475
-0.68
-0.86
-1.01
-1.145
-1.155
-1.095
-1.05
-0.975
-0.89
-0.835
-0.835
-0.82
-0.805
-0.79
-0.765
-0.75
-0.745
-0.715
-0.69
-0.67
-0.675
-0.655
-0.64
-0.64
-0.61
-0.6
-0.615
-0.61
-0.595
-0.6
-0.59
-0.59
-0.585
-0.585
-0.575
-0.58
-0.595
-0.58
-0.565
-0.575
-0.595
-0.545
-0.55
-0.54
-0.545
-0.545
-0.555
-0.56
-0.54
-0.545
-0.55
-0.54
-0.545
-0.535
-0.525
-0.525
-0.54
-0.53
-0.515
-0.52
-0.525
-0.505
-0.51
-0.505
-0.49
-0.495
-0.49
-0.49
-0.475
-0.485
-0.495
-0.465
-0.46
-0.465
-0.445
-0.45
-0.465
-0.45
-0.44
-0.45
-0.45
-0.425
-0.43
-0.42
-0.425
-0.43
-0.415
-0.405
-0.4
-0.405
-0.415
-0.4
-0.41
-0.41
-0.395
-0.4
-0.41
-0.415
-0.415
-0.42
-0.42
-0.425
-0.425
-0.43
-0.435
-0.44
-0.45
-0.45
-0.47
-0.46
-0.46
-0.46
-0.46
-0.465
-0.47
-0.475
-0.475
-0.49
-0.485
-0.5
-0.51
-0.5
-0.495
-0.515
-0.515
-0.51
-0.53
-0.52
-0.53
-0.55
-0.54
-0.54
-0.55
-0.545
-0.555
-0.575
-0.58
-0.585
-0.59
-0.595
-0.575
-0.57
-0.575
-0.585
-0.585
-0.595
-0.585
-0.575
-0.58
-0.59
-0.575
-0.57
-0.57
-0.57
-0.56
-0.58
-0.58
-0.585
-0.585
-0.59
-0.58
-0.555
-0.56
-0.58
-0.57
-0.58
-0.585
-0.565
-0.575
-0.585
-0.575
-0.565
-0.565
-0.575
-0.555
-0.57
-0.56
-0.57
-0.58
-0.585
-0.57
-0.56
-0.56
-0.565
-0.57
-0.59
-0.59
-0.57
-0.565
-0.585
-0.56
-0.575
-0.58
-0.565
-0.555
-0.585
-0.585
-0.585
-0.595
-0.595
-0.58
-0.575
-0.585
-0.58
-0.58
-0.59
-0.585
-0.58
-0.59
-0.595
-0.59
-0.59
-0.595
-0.595
-0.59
-0.6
-0.59
-0.585
-0.595
-0.59
-0.595
-0.585
-0.595
-0.595
-0.605
-0.61
-0.6
-0.59
-0.595
-0.59
-0.585
-0.59
-0.595
-0.595
-0.6
-0.605
-0.605
-0.595
-0.605
-0.625
-0.615
-0.6
-0.605
-0.605
-0.595
-0.595
-0.59
-0.585
-0.585
-0.58
-0.58
-0.565
-0.555
-0.54
-0.545
-0.55
-0.545
-0.55
-0.54
-0.525
-0.515
-0.51
-0.51
-0.52
-0.52
-0.52
-0.535
-0.525
-0.535
-0.535
-0.535
-0.54
-0.54
-0.535
-0.565
-0.58
-0.58
-0.595
-0.615
-0.61
-0.6
-0.615
-0.615
-0.605
-0.615
-0.615
-0.61
-0.615
-0.615
-0.605
-0.6
-0.61
-0.62
-0.615
-0.625
-0.62
-0.625
-0.605
-0.6
-0.59
-0.575
-0.555
-0.52
-0.445
-0.38
-0.285
-0.21
-0.085
-0.005
0.085
0.13
0.125
0.14
0.16
0.11
0.0
-0.21
-0.395
-0.605
-0.775
-0.935
-1.08
-1.155
-1.135
-1.11
-1.02
-0.945
-0.88
-0.87
-0.84
-0.835
-0.82
-0.79
-0.77
-0.76
-0.75
-0.71
-0.695
-0.7
-0.685
-0.65
-0.635
-0.635
-0.625
-0.62
-0.62
-0.62
-0.615
-0.615
-0.6
-0.595
-0.605
-0.595
-0.6
-0.6
-0.595
-0.585
-0.59
-0.595
-0.57
-0.575
-0.58
-0.58
-0.59
-0.59
-0.585
-0.575
-0.565
-0.555
-0.54
-0.57
-0.575
-0.56
-0.54
-0.545
-0.53
-0.525
-0.53
-0.535
-0.515
-0.52
-0.52
-0.515
-0.52
-0.52
-0.515
-0.51
-0.495
-0.495
-0.48
-0.475
-0.47
-0.46
-0.47
-0.47
-0.455
-0.445
-0.45
-0.445
-0.42
-0.43
-0.435
-0.425
-0.42
-0.42
-0.415
-0.405
-0.41
-0.405
-0.405
-0.4
-0.4
-0.405
-0.41
-0.425
-0.415
-0.41
-0.425
-0.425
-0.41
-0.42
-0.435
-0.425
-0.445
-0.45
-0.45
-0.45
-0.465
-0.46
-0.475
-0.47
-0.465
-0.47
-0.49
-0.5
-0.505
-0.505
-0.5
-0.505
-0.495
-0.51
-0.52
-0.515
-0.525
-0.53
-0.53
-0.53
-0.54
-0.545
-0.54
-0.565
-0.56
-0.55
-0.565
-0.56
-0.56
-0.555
-0.57
-0.565
-0.56
-0.57
-0.58
-0.57
-0.575
-0.58
-0.575
-0.58
-0.58
-0.57
-0.565
-0.57
-0.575
-0.575
-0.58
-0.58
-0.57
-0.57
-0.575
-0.555
-0.555
-0.56
-0.56
-0.56
-0.585
-0.575
-0.555
-0.575
-0.575
-0.55
-0.56
-0.56
-0.55
-0.555
-0.57
-0.555
-0.555
-0.58
-0.575
-0.575
-0.565
-0.575
-0.555
-0.555
-0.55
-0.555
-0.54
-0.555
-0.56
-0.55
-0.56
-0.555
-0.555
-0.55
-0.565
-0.555
-0.56
-0.56
-0.565
-0.555
-0.555
-0.58
-0.55
-0.56
-0.575
-0.585
-0.565
-0.58
-0.575
-0.57
-0.565
-0.555
-0.565
-0.58
-0.58
-0.575
-0.56
-0.58
-0.58
-0.56
-0.575
-0.58
-0.58
-0.585
-0.605
-0.6
-0.59
-0.6
-0.595
-0.595
-0.59
-0.585
-0.59
-0.59
-0.58
-0.555
-0.545
-0.53
-0.535
-0.535
-0.545
-0.55
-0.525
-0.52
-0.52
-0.51
-0.51
-0.525
-0.525
-0.515
-0.51
-0.5
-0.495
-0.505
-0.515
-0.51
-0.51
-0.535
-0.535
-0.54
-0.565
-0.575
-0.58
-0.6
-0.595
-0.585
-0.595
-0.6
-0.605
-0.595
-0.61
-0.61
-0.595
-0.6
-0.59
-0.58
-0.585
-0.595
-0.595
-0.59
-0.585
-0.58
-0.55
-0.565
-0.18
-0.07
0.03
0.075
0.125
0.13
0.16
0.185
0.175
0.055
-0.15
-0.345
-0.525
-0.72
-0.885
-1.02
-1.105
-1.105
-1.065
-0.97
-0.895
-0.845
-0.82
-0.81
-0.805
-0.78
-0.77
-0.765
-0.73
-0.7
-0.685
-0.66
-0.66
-0.66
-0.655
-0.635
-0.625
-0.63
-0.615
-0.615
-0.605
-0.6
-0.6
-0.6
-0.595
-0.595
-0.6
-0.595
-0.585
-0.585
-0.58
-0.58
-0.565
-0.58
-0.585
-0.58
-0.58
-0.57
-0.545
-0.56
-0.555
-0.55
-0.555
-0.565
-0.55
-0.55
-0.54
-0.545
-0.53
-0.535
-0.54
-0.53
-0.525
-0.54
-0.54
-0.525
-0.52
-0.52
-0.495
-0.515
-0.5
-0.49
-0.495
-0.49
-0.485
-0.48
-0.485
-0.475
-0.46
-0.455
-0.455
-0.445
-0.455
-0.45
-0.45
-0.445
-0.435
-0.42
-0.415
-0.42
-0.425
-0.415
-0.42
-0.43
-0.42
-0.425
-0.43
-0.42
-0.415
-0.42
-0.425
-0.42
-0.435
-0.44
-0.435
-0.45
-0.455
-0.45
-0.455
-0.465
-0.475
-0.465
-0.475
-0.49
-0.49
-0.49
-0.5
-0.5
-0.49
-0.5
-0.51
-0.505
-0.52
-0.535
-0.535
-0.54
-0.555
-0.55
-0.55
-0.56
-0.55
-0.55
-0.555
-0.56
-0.565
-0.57
-0.575
-0.57
-0.56
-0.575
-0.58
-0.585
-0.595
-0.59
-0.585
-0.59
-0.61
-0.59
-0.58
-0.58
-0.58
-0.59
-0.605
-0.59
-0.59
-0.6
-0.605
-0.59
-0.58
-0.595
-0.59
-0.595
-0.58
-0.58
-0.585
-0.595
-0.59
-0.57
-0.59
-0.585
-0.585
-0.575
-0.585
-0.58
-0.58
-0.59
-0.595
-0.58
-0.58
-0.58
-0.58
-0.58
-0.59
-0.59
-0.58
-0.59
-0.595
-0.58
-0.575
-0.58
-0.58
-0.585
-0.595
-0.59
-0.58
-0.585
-0.585
-0.575
-0.58
-0.585
-0.595
-0.59
-0.59
-0.605
-0.59
-0.59
-0.6
-0.59
-0.595
-0.615
-0.6
-0.61
-0.61
-0.61
-0.6
-0.61
-0.615
-0.61
-0.61
-0.605
-0.595
-0.59
-0.585
-0.57
-0.565
-0.565
-0.55
-0.55
-0.57
-0.575
-0.56
-0.545
-0.55
-0.53
-0.54
-0.555
-0.555
-0.56
-0.54
-0.545
-0.535
-0.53
-0.545
-0.52
-0.52
-0.55
-0.565
-0.57
-0.585
-0.6
-0.6
-0.625
-0.635
-0.63
-0.63
-0.64
-0.625
-0.62
-0.63
-0.63
-0.63
-0.635
-0.635
-0.63
-0.63
-0.645
-0.635
-0.625
-0.64
-0.645
-0.605
-0.595
-0.6
-0.575
-0.555
-0.515
-0.445
-0.34
-0.27
-0.19
-0.085
0.01
0.06
0.1
0.11
0.145
0.17
0.1
-0.07
-0.275
-0.45
-0.645
-0.815
-0.955
-1.065
-1.105
-1.075
-1.0
-0.93
-0.875
-0.845
-0.83
-0.825
-0.815
-0.805
-0.79
-0.76
-0.73
-0.72
-0.71
-0.69
-0.69
-0.685
-0.665
-0.665
-0.665
-0.645
-0.645
-0.645
-0.635
-0.63
-0.64
-0.64
-0.625
-0.625
-0.62
-0.615
-0.625
-0.63
-0.62
-0.615
-0.625
-0.62
-0.61
-0.615
-0.615
-0.6
-0.6
-0.595
-0.6
-0.59
-0.595
-0.595
-0.59
-0.59
-0.595
-0.575
-0.57
-0.565
-0.56
-0.55
-0.555
-0.555
-0.55
-0.555
-0.55
-0.535
-0.525
-0.53
-0.515
-0.535
-0.525
-0.505
-0.5
-0.51
-0.5
-0.485
-0.49
-0.49
-0.485
-0.48
-0.49
-0.475
-0.465
-0.475
-0.46
-0.45
-0.445
-0.45
-0.45
-0.455
-0.455
-0.455
-0.455
-0.46
-0.455
-0.45
-0.465
-0.465
-0.455
-0.465
-0.475
-0.48
-0.47
-0.485
-0.48
-0.475
-0.49
-0.48
-0.485
-0.5
-0.505
-0.5
-0.505
-0.515
-0.525
-0.525
-0.525
-0.53
-0.535
-0.535
-0.55
-0.54
-0.535
-0.555
-0.555
-0.55
-0.56
-0.56
-0.555
-0.57
-0.59
-0.58
-0.585
-0.58
-0.58
-0.575
-0.59
-0.59
-0.59
-0.61
-0.605
-0.6
-0.605
-0.61
-0.605
-0.595
-0.6
-0.6
-0.595
-0.6
-0.6
-0.595
-0.61
-0.61
-0.605
-0.6
-0.6
-0.595
-0.59
-0.61
-0.605
-0.59
-0.6
-0.61
-0.595
-0.595
-0.595
-0.59
-0.595
-0.605
-0.6
-0.6
-0.6
-0.605
-0.595
-0.605
-0.61
-0.605
-0.6
-0.605
-0.6
-0.605
-0.6
-0.6
-0.595
-0.595
-0.605
-0.605
-0.6
-0.605
-0.6
-0.605
-0.61
-0.61
-0.605
-0.605
-0.605
-0.61
-0.61
-0.63
-0.62
-0.62
-0.62
-0.63
-0.61
-0.61
-0.62
-0.62
-0.62
-0.63
-0.63
-0.615
-0.62
-0.62
-0.6
-0.59
-0.565
-0.56
-0.565
-0.585
-0.595
-0.59
-0.57
-0.56
-0.535
-0.535
-0.545
-0.56
-0.565
-0.565
-0.55
-0.535
-0.535
-0.535
-0.53
-0.54
-0.56
-0.57
-0.58
-0.6
-0.605
-0.61
-0.635
-0.635
-0.625
-0.63
-0.635
-0.64
-0.65
-0.655
-0.635
-0.64
-0.635
-0.63
-0.63
-0.64
-0.64
-0.62
-0.63
-0.64
-0.635
-0.625
-0.615
-0.615
-0.595
-0.59
-0.555
-0.475
-0.39
-0.305
-0.225
-0.115
-0.005
0.05
0.075
0.1
0.13
0.18
0.12
-0.05
-0.24
-0.415
-0.61
-0.77
-0.925
-1.035
-1.08
-1.055
-1.005
-0.93
-0.875
-0.845
-0.85
-0.83
-0.82
-0.81
-0.79
-0.76
-0.75
-0.725
-0.72
-0.715
-0.71
-0.69
-0.67
-0.67
-0.67
-0.67
-0.67
-0.665
-0.645
-0.665
-0.665
-0.64
-0.63
-0.64
-0.635
-0.64
-0.64
-0.645
-0.635
-0.635
-0.63
-0.62
-0.625
-0.615
-0.61
-0.61
-0.625
-0.615
-0.61
-0.61
-0.615
-0.595
-0.59
-0.6
-0.59
-0.595
-0.595
-0.59
-0.585
-0.575
-0.575
-0.565
-0.57
-0.57
-0.56
-0.565
-0.56
-0.55
-0.55
-0.545
-0.545
-0.535
-0.535
-0.525
-0.515
-0.505
-0.51
-0.505
-0.5
-0.505
-0.5
-0.49
-0.475
-0.48
-0.475
-0.485
-0.48
-0.475
-0.48
-0.48
-0.47
-0.45
-0.46
-0.465
-0.465
-0.465
-0.475
-0.475
-0.48
-0.495
-0.495
-0.49
-0.49
-0.5
-0.49
-0.495
-0.51
-0.52
-0.52
-0.525
-0.525
-0.52
-0.52
-0.53
-0.54
-0.55
-0.555
-0.555
-0.55
-0.555
-0.55
-0.55
-0.565
-0.58
-0.575
-0.59
-0.58
-0.59
-0.605
-0.605
-0.595
-0.595
-0.595
-0.595
-0.6
-0.62
-0.625
-0.615
-0.615
-0.61
-0.615
-0.615
-0.62
-0.625
-0.625
-0.625
-0.635
-0.63
-0.635
-0.63
-0.62
-0.62
-0.62
-0.62
-0.615
-0.63
-0.63
-0.62
-0.63
-0.63
-0.62
-0.625
-0.625
-0.625
-0.625
-0.63
-0.63
-0.62
-0.635
-0.635
-0.615
-0.625
-0.615
-0.615
-0.63
-0.64
-0.64
-0.635
-0.635
-0.64
-0.625
-0.63
-0.635
-0.635
-0.64
-0.645
-0.645
-0.64
-0.645
-0.65
-0.64
-0.63
-0.645
-0.64
-0.625
-0.64
-0.645
-0.65
-0.655
-0.665
-0.65
-0.66
-0.665
-0.66
-0.665
-0.68
-0.66
-0.65
-0.65
-0.64
-0.62
-0.615
-0.615
-0.61
-0.61
-0.615
-0.635
-0.635
-0.625
-0.61
-0.585
-0.585
-0.595
-0.605
-0.62
-0.615
-0.605
-0.595
-0.6
-0.6
-0.575
-0.6
-0.615
-0.615
-0.645
-0.66
-0.665
-0.675
-0.685
-0.695
-0.675
-0.685
-0.7
-0.705
-0.71
-0.71
-0.71
-0.71
-0.71
-0.705
-0.7
-0.705
-0.705
-0.69
-0.7
-0.715
-0.71
-0.705
-0.69
-0.69
-0.685
-0.665
-0.65
-0.595
-0.52
-0.425
-0.35
-0.25
-0.13
-0.03
0.015
0.03
0.055
0.085
0.08
-0.025
-0.22
-0.405
-0.59
-0.795
-0.94
-1.095
-1.2
-1.195
-1.165
-1.095
-1.015
-0.96
-0.945
-0.935
-0.93
-0.93
-0.915
-0.895
-0.88
-0.855
-0.82
-0.825
-0.815
-0.795
-0.78
-0.765
-0.76
-0.75
-0.76
-0.77
-0.75
-0.76
-0.765
-0.75
-0.74
-0.745
-0.74
-0.73
-0.745
-0.745
-0.74
-0.74
-0.745
-0.725
-0.72
-0.735
-0.73
-0.72
-0.715
-0.725
-0.71
-0.72
-0.73
-0.715
-0.715
-0.705
-0.7
-0.705
-0.71
-0.705
-0.69
-0.71
-0.705
-0.69
-0.675
-0.685
-0.66
-0.665
-0.67
-0.675
-0.665
-0.68
-0.665
-0.645
-0.645
-0.635
-0.63
-0.635
-0.64
-0.635
-0.63
-0.635
-0.625
-0.605
-0.605
-0.605
-0.605
-0.6
-0.605
-0.605
-0.595
-0.6
-0.61
-0.6
-0.6
-0.595
-0.6
-0.6
-0.605
-0.605
-0.605
-0.62
-0.62
-0.61
-0.62
-0.63
-0.63
-0.635
-0.655
-0.655
-0.65
-0.655
-0.66
-0.64
-0.65
-0.67
-0.655
-0.665
-0.675
-0.67
-0.685
-0.7
-0.695
-0.69
-0.71
-0.715
-0.715
-0.725
-0.74
-0.735
-0.745
-0.76
-0.74
-0.74
-0.74
-0.765
-0.765
-0.775
-0.775
-0.775
-0.79
-0.78
-0.77
-0.77
-0.77
-0.775
-0.775
-0.785
-0.795
-0.795
-0.79
-0.79
-0.78
-0.775
-0.775
-0.775
-0.775
-0.775
-0.79
-0.795
-0.795
-0.8
-0.79
-0.78
-0.78
-0.78
-0.775
-0.785
-0.79
-0.785
-0.79
-0.79
-0.78
-0.78
-0.78
-0.775
-0.765
-0.8
-0.805
-0.795
-0.795
-0.79
-0.79
-0.785
-0.78
-0.785
-0.775
-0.79
-0.795
-0.785
-0.8
-0.8
-0.775
-0.775
-0.79
-0.795
-0.8
-0.81
-0.805
-0.815
-0.82
-0.81
-0.8
-0.81
-0.815
-0.815
-0.805
-0.815
-0.815
-0.775
-0.775
-0.775
-0.76
-0.765
-0.77
-0.78
-0.78
-0.78
-0.755
-0.745
-0.75
-0.76
-0.76
-0.76
-0.755
-0.745
-0.755
-0.755
-0.75
-0.74
-0.745
-0.76
-0.755
-0.78
-0.8
-0.805
-0.825
-0.84
-0.835
-0.83
-0.845
-0.845
-0.84
-0.83
-0.84
-0.84
-0.85
-0.855
-0.85
-0.835
-0.845
-0.85
-0.83
-0.845
-0.86
-0.85
-0.84
-0.83
-0.83
-0.82
-0.815
-0.78
-0.7
-0.615
-0.53
-0.445
-0.325
-0.22
-0.14
-0.1
-0.105
-0.08
-0.05
-0.085
-0.215
-0.41
-0.595
-0.815
-1.015
-1.175
-1.32
-1.395
-1.385
-1.325
-1.25
-1.175
-1.11
-1.095
-1.09
-1.07
-1.065
-1.02
-0.995
-0.97
-0.935
-0.92
-0.92
-0.92
-0.905
-0.9
-0.89
-0.87
-0.86
-0.855
-0.86
-0.855
-0.87
-0.86
-0.86
-0.85
-0.85
-0.85
-0.84
-0.82
-0.83
-0.82
-0.83
-0.84
-0.83
-0.83
-0.825
-0.825
-0.815
-0.82
-0.82
-0.82
-0.815
-0.815
-0.815
-0.82
-0.81
-0.795
-0.79
-0.795
-0.795
-0.785
-0.795
-0.795
-0.785
-0.785
-0.785
-0.765
-0.755
-0.755
-0.75
-0.755
-0.75
-0.75
-0.75
-0.75
-0.745
-0.715
-0.72
-0.7
-0.69
-0.695
-0.705
-0.71
-0.68
-0.685
-0.685
-0.68
-0.685
-0.69
-0.675
-0.68
-0.69
-0.68
-0.675
-0.685
-0.7
-0.675
-0.685
-0.68
-0.685
-0.7
-0.7
-0.695
-0.705
-0.71
-0.705
-0.7
-0.705
-0.72
-0.72
-0.725
-0.73
-0.735
-0.73
-0.74
-0.745
-0.745
-0.745
-0.745
-0.75
-0.755
-0.785
-0.78
-0.77
-0.795
-0.795
-0.78
-0.795
-0.81
-0.815
-0.815
-0.825
-0.84
-0.83
-0.825
-0.835
-0.83
-0.83
-0.845
-0.84
-0.845
-0.855
-0.85
-0.84
-0.85
-0.85
-0.85
-0.845
-0.835
-0.84
-0.85
-0.855
-0.855
-0.84
-0.85
-0.85
-0.84
-0.85
-0.85
-0.84
-0.84
-0.85
-0.835
-0.84
-0.86
-0.85
-0.83
-0.84
-0.835
-0.835
-0.85
-0.845
-0.84
-0.84
-0.85
-0.85
-0.835
-0.845
-0.85
-0.85
-0.855
-0.85
-0.84
-0.85
-0.85
-0.845
-0.83
-0.84
-0.85
-0.85
-0.85
-0.86
-0.85
-0.845
-0.855
-0.84
-0.84
-0.86
-0.86
-0.855
-0.86
-0.87
-0.85
-0.85
-0.865
-0.855
-0.85
-0.84
-0.835
-0.82
-0.825
-0.82
-0.81
-0.805
-0.82
-0.84
-0.835
-0.81
-0.795
-0.8
-0.805
-0.805
-0.8
-0.805
-0.81
-0.8
-0.795
-0.795
-0.79
-0.79
-0.8
-0.81
-0.815
-0.835
-0.85
-0.855
-0.86
-0.88
-0.875
-0.88
-0.88
-0.875
-0.875
-0.88
-0.88
-0.875
-0.865
-0.88
-0.88
-0.875
-0.885
-0.885
-0.87
-0.88
-0.89
-0.865
-0.85
-0.85
-0.845
-0.83
-0.83
-0.78
-0.685
-0.6
-0.525
-0.43
-0.31
-0.24
-0.175
-0.16
-0.17
-0.135
-0.135
-0.205
-0.38
-0.565
-0.72
-0.93
-1.12
-1.28
-1.42
-1.44
-1.4
-1.345
-1.25
-1.155
-1.115
-1.095
-1.085
-1.085
-1.055
-1.03
-1.02
-1.0
-0.97
-0.955
-0.94
-0.935
-0.92
-0.925
-0.91
-0.895
-0.895
-0.91
-0.895
-0.865
-0.865
-0.87
-0.87
-0.87
-0.875
-0.86
-0.865
-0.865
-0.85
-0.85
-0.85
-0.845
-0.85
-0.855
-0.855
-0.845
-0.855
-0.845
-0.835
-0.83
-0.83
-0.83
-0.82
-0.83
-0.825
-0.815
-0.815
-0.82
-0.81
-0.79
-0.805
-0.815
-0.795
-0.8
-0.805
-0.785
-0.775
-0.775
-0.77
-0.765
-0.765
-0.76
-0.755
-0.75
-0.755
-0.745
-0.735
-0.73
-0.73
-0.71
-0.7
-0.705
-0.7
-0.72
-0.705
-0.695
-0.7
-0.695
-0.69
-0.68
-0.685
-0.69
-0.7
-0.7
-0.69
-0.685
-0.69
-0.7
-0.69
-0.69
-0.705
-0.7
-0.7
-0.715
-0.71
-0.715
-0.73
-0.74
-0.73
-0.74
-0.73
-0.73
-0.74
-0.74
-0.735
-0.74
-0.755
-0.765
-0.755
-0.76
-0.77
-0.77
-0.775
-0.785
-0.79
-0.785
-0.79
-0.8
-0.79
-0.795
-0.8
-0.81
-0.81
-0.825
-0.83
-0.825
-0.845
-0.835
-0.82
-0.825
-0.835
-0.835
-0.835
-0.835
-0.835
-0.84
-0.84
-0.835
-0.83
-0.835
-0.835
-0.835
-0.835
-0.84
-0.835
-0.82
-0.825
-0.83
-0.82
-0.815
-0.825
-0.83
-0.83
-0.835
-0.82
-0.825
-0.84
-0.825
-0.81
-0.815
-0.815
-0.805
-0.82
-0.825
-0.81
-0.82
-0.835
-0.82
-0.815
-0.82
-0.825
-0.815
-0.825
-0.82
-0.82
-0.815
-0.825
-0.82
-0.82
-0.835
-0.825
-0.825
-0.825
-0.83
-0.83
-0.825
-0.835
-0.835
-0.82
-0.835
-0.835
-0.83
-0.835
-0.83
-0.83
-0.825
-0.81
-0.79
-0.78
-0.785
-0.79
-0.79
-0.805
-0.82
-0.8
-0.79
-0.78
-0.765
-0.77
-0.765
-0.775
-0.77
-0.78
-0.78
-0.76
-0.755
-0.765
-0.75
-0.755
-0.78
-0.795
-0.8
-0.82
-0.825
-0.825
-0.845
-0.845
-0.83
-0.84
-0.845
-0.84
-0.84
-0.85
-0.85
-0.845
-0.845
-0.85
-0.83
-0.83
-0.85
-0.835
-0.84
-0.85
-0.845
-0.82
-0.82
-0.82
-0.805
-0.78
-0.745
-0.65
-0.56
-0.5
-0.405
-0.275
-0.195
-0.145
-0.105
-0.095
-0.075
-0.055
-0.135
-0.325
-0.515
-0.68
-0.885
-1.06
-1.205
-1.325
-1.345
-1.315
-1.23
-1.155
-1.085
-1.05
-1.04
-1.04
-1.01
-1.005
-0.985
-0.96
-0.94
-0.925
-0.91
-0.91
-0.895
-0.885
-0.87
-0.855
-0.845
-0.835
-0.84
-0.855
-0.84
-0.83
-0.83
-0.83
-0.82
-0.82
-0.825
-0.82
-0.82
-0.825
-0.81
-0.805
-0.81
-0.805
-0.805
-0.8
-0.805
-0.805
-0.805
-0.795
-0.79
-0.79
-0.79
-0.795
-0.78
-0.78
-0.785
-0.77
-0.775
-0.775
-0.745
-0.75
-0.75
-0.74
-0.745
-0.745
-0.74
-0.745
-0.74
-0.735
-0.735
-0.72
-0.73
-0.715
-0.7
-0.695
-0.7
-0.675
-0.68
-0.69
-0.665
-0.665
-0.67
-0.66
-0.655
-0.65
-0.64
-0.65
-0.645
-0.64
-0.65
-0.65
-0.655
-0.645
-0.645
-0.635
-0.635
-0.64
-0.65
-0.66
-0.655
-0.675
-0.66
-0.655
-0.65
-0.67
-0.67
-0.665
-0.68
-0.68
-0.675
-0.69
-0.69
-0.67
-0.675
-0.685
-0.695
-0.69
-0.72
-0.715
-0.715
-0.715
-0.725
-0.72
-0.72
-0.735
-0.735
-0.74
-0.75
-0.74
-0.75
-0.77
-0.77
-0.76
-0.75
-0.765
-0.76
-0.755
-0.775
-0.78
-0.765
-0.78
-0.78
-0.77
-0.785
-0.775
-0.77
-0.77
-0.775
-0.77
-0.765
-0.77
-0.775
-0.77
-0.76
-0.76
-0.76
-0.77
-0.775
-0.76
-0.76
-0.77
-0.77
-0.765
-0.765
-0.77
-0.75
-0.76
-0.765
-0.765
-0.755
-0.755
-0.75
-0.745
-0.755
-0.755
-0.755
-0.76
-0.765
-0.765
-0.755
-0.755
-0.75
-0.745
-0.755
-0.755
-0.75
-0.76
-0.775
-0.76
-0.755
-0.76
-0.75
-0.745
-0.76
-0.765
-0.76
-0.77
-0.765
-0.755
-0.755
-0.765
-0.76
-0.76
-0.765
-0.775
-0.765
-0.775
-0.77
-0.77
-0.77
-0.775
-0.765
-0.745
-0.745
-0.735
-0.725
-0.735
-0.73
-0.73
-0.74
-0.735
-0.72
-0.685
-0.685
-0.685
-0.685
-0.705
-0.72
-0.7
-0.69
-0.69
-0.675
-0.665
-0.675
-0.68
-0.695
-0.715
-0.735
-0.745
-0.765
-0.775
-0.755
-0.755
-0.765
-0.78
-0.765
-0.775
-0.78
-0.78
-0.765
-0.775
-0.77
-0.77
-0.765
-0.765
-0.76
-0.77
-0.775
-0.765
-0.765
-0.77
-0.745
-0.735
-0.745
-0.725
-0.7
-0.65
-0.57
-0.47
-0.4
-0.31
-0.205
-0.1
-0.06
-0.02
0.0
0.05
0.065
-0.03
-0.22
-0.435
-0.595
-0.785
-0.955
-1.085
-1.18
-1.21
-1.175
-1.1
-1.04
-0.985
-0.955
-0.94
-0.93
-0.945
-0.935
-0.9
-0.86
-0.835
-0.825
-0.83
-0.82
-0.795
-0.79
-0.775
-0.76
-0.765
-0.76
-0.76
-0.77
-0.76
-0.715
-0.735
-0.75
-0.73
-0.74
-0.735
-0.725
-0.73
-0.73
-0.725
-0.71
-0.715
-0.715
-0.715
-0.72
-0.72
-0.715
-0.71
-0.705
-0.705
-0.695
-0.69
-0.695
-0.685
-0.685
-0.695
-0.69
-0.68
-0.675
-0.68
-0.66
-0.665
-0.66
-0.66
-0.66
-0.655
-0.655
-0.645
-0.645
-0.63
-0.63
-0.62
-0.625
-0.615
-0.63
-0.615
-0.6
-0.59
-0.59
-0.585
-0.585
-0.575
-0.57
-0.55
-0.565
-0.565
-0.56
-0.56
-0.56
-0.545
-0.54
-0.535
-0.54
-0.545
-0.55
-0.55
-0.55
-0.55
-0.56
-0.555
-0.555
-0.555
-0.57
-0.57
-0.58
-0.58
-0.57
-0.58
-0.595
-0.585
-0.575
-0.585
-0.585
-0.59
-0.605
-0.605
-0.61
-0.615
-0.62
-0.61
-0.61
-0.63
-0.62
-0.615
-0.65
-0.65
-0.63
-0.645
-0.66
-0.655
-0.65
-0.655
-0.665
-0.675
-0.68
-0.685
-0.67
-0.68
-0.685
-0.67
-0.67
-0.66
-0.66
-0.675
-0.69
-0.675
-0.68
-0.685
-0.68
-0.66
-0.66
-0.67
-0.67
-0.665
-0.675
-0.67
-0.665
-0.67
-0.68
-0.66
-0.665
-0.66
-0.665
-0.665
-0.665
-0.67
-0.66
-0.665
-0.67
-0.665
-0.65
-0.665
-0.665
-0.655
-0.67
-0.67
-0.665
-0.675
-0.66
-0.65
-0.66
-0.655
-0.645
-0.66
-0.665
-0.66
-0.65
-0.66
-0.66
-0.655
-0.655
-0.66
-0.655
-0.665
-0.675
-0.655
-0.645
-0.66
-0.655
-0.645
-0.655
-0.665
-0.665
-0.665
-0.675
-0.655
-0.66
-0.665
-0.655
-0.655
-0.665
-0.665
-0.655
-0.67
-0.67
-0.665
-0.68
-0.675
-0.67
-0.665
-0.67
-0.65
-0.64
-0.645
-0.64
-0.62
-0.615
-0.635
-0.64
-0.63
-0.61
-0.59
-0.595
-0.6
-0.61
-0.605
-0.61
-0.61
-0.59
-0.575
-0.58
-0.59
-0.565
-0.575
-0.595
-0.625
-0.63
-0.65
-0.655
-0.65
-0.67
-0.67
-0.675
-0.685
-0.685
-0.68
-0.675
-0.68
-0.67
-0.665
-0.66
-0.665
-0.665
-0.68
-0.68
-0.675
-0.68
-0.69
-0.67
-0.665
-0.665
-0.655
-0.63
-0.62
-0.585
-0.525
-0.435
-0.345
-0.255
-0.15
-0.055
0.025
0.05
0.065
0.105
0.155
0.135
0.02
-0.145
-0.35
-0.53
-0.71
-0.89
-1.005
-1.085
-1.085
-1.045
-0.975
-0.91
-0.87
-0.86
-0.835
-0.845
-0.845
-0.82
-0.79
-0.765
-0.75
-0.73
-0.735
-0.72
-0.705
-0.695
-0.695
-0.675
-0.67
-0.67
-0.675
-0.655
-0.65
-0.65
-0.64
-0.645
-0.66
-0.65
-0.64
-0.64
-0.64
-0.635
-0.635
-0.635
-0.63
-0.63
-0.615
-0.62
-0.615
-0.61
-0.62
-0.605
-0.6
-0.61
-0.59
-0.595
-0.61
-0.6
-0.59
-0.595
-0.585
-0.58
-0.565
-0.58
-0.56
-0.565
-0.57
-0.565
-0.55
-0.56
-0.54
-0.535
-0.535
-0.535
-0.52
-0.53
-0.515
-0.515
-0.51
-0.505
-0.495
-0.49
-0.485
-0.49
-0.48
-0.49
-0.49
-0.47
-0.465
-0.465
-0.455
-0.46
-0.455
-0.46
-0.465
-0.47
-0.47
-0.465
-0.48
-0.475
-0.46
-0.46
-0.47
-0.475
-0.455
-0.47
-0.48
-0.49
-0.49
-0.505
-0.49
-0.495
-0.5
-0.5
-0.5
-0.51
-0.515
-0.5
-0.515
-0.525
-0.51
-0.515
-0.52
-0.52
-0.53
-0.54
-0.545
-0.545
-0.535
-0.555
-0.55
-0.535
-0.55
-0.555
-0.57
-0.58
-0.57
-0.58
-0.58
-0.585
-0.57
-0.57
-0.575
-0.58
-0.575
-0.585
-0.585
-0.59
-0.58
-0.585
-0.57
-0.565
-0.575
-0.575
-0.575
-0.585
-0.57
-0.57
-0.58
-0.585
-0.56
-0.56
-0.565
-0.56
-0.57
-0.57
-0.575
-0.575
-0.575
-0.57
-0.555
-0.555
-0.565
-0.555
-0.56
-0.575
-0.57
-0.57
-0.575
-0.57
-0.56
-0.565
-0.56
-0.54
-0.555
-0.565
-0.56
-0.56
-0.57
-0.565
-0.555
-0.56
-0.56
-0.555
-0.56
-0.57
-0.56
-0.555
-0.57
-0.57
-0.56
-0.555
-0.565
-0.565
-0.585
-0.58
-0.565
-0.565
-0.57
-0.56
-0.55
-0.56
-0.565
-0.555
-0.57
-0.57
-0.56
-0.575
-0.58
-0.57
-0.565
-0.575
-0.575
-0.575
-0.585
-0.585
-0.585
-0.585
-0.58
-0.54
-0.525
-0.525
-0.525
-0.51
-0.515
-0.53
-0.525
-0.525
-0.505
-0.48
-0.47
-0.48
-0.485
-0.485
-0.51
-0.5
-0.49
-0.475
-0.475
-0.465
-0.455
-0.48
-0.495
-0.5
-0.525
-0.535
-0.55
-0.56
-0.58
-0.57
-0.57
-0.57
-0.575
-0.57
-0.575
-0.57
-0.565
-0.57
-0.585
-0.565
-0.55
-0.56
-0.555
-0.56
-0.585
-0.585
-0.57
-0.565
-0.56
-0.54
-0.53
-0.5
-0.475
-0.41
-0.33
-0.24
-0.16
-0.055
0.055
0.14
0.155
0.18
0.22
0.26
0.245
0.125
-0.07
-0.29
-0.47
-0.65
-0.815
-0.92
-0.995
-1.0
-0.96
-0.87
-0.805
-0.79
-0.775
-0.745
-0.74
-0.74
-0.71
-0.69
-0.68
-0.65
-0.635
-0.64
-0.63
-0.615
-0.6
-0.595
-0.58
-0.58
-0.58
-0.56
-0.565
-0.565
-0.565
-0.55
-0.55
-0.55
-0.555
-0.555
-0.565
-0.54
-0.535
-0.54
-0.545
-0.52
-0.53
-0.53
-0.52
-0.53
-0.53
-0.53
-0.525
-0.53
-0.52
-0.505
-0.505
-0.5
-0.495
-0.51
-0.515
-0.5
-0.48
-0.485
-0.485
-0.475
-0.48
-0.47
-0.47
-0.475
-0.48
-0.46
-0.445
-0.44
-0.44
-0.42
-0.43
-0.43
-0.42
-0.425
-0.425
-0.42
-0.415
-0.41
-0.405
-0.39
-0.39
-0.385
-0.37
-0.385
-0.38
-0.37
-0.375
-0.375
-0.365
-0.365
-0.375
-0.37
-0.365
-0.38
-0.385
-0.38
-0.38
-0.395
-0.385
-0.375
-0.39
-0.39
-0.39
-0.4
-0.41
-0.41
-0.41
-0.415
-0.395
-0.405
-0.42
-0.4
-0.41
-0.42
-0.43
-0.425
-0.43
-0.44
-0.44
-0.44
-0.44
-0.45
-0.455
-0.48
-0.47
-0.485
-0.475
-0.49
-0.485
-0.485
-0.48
-0.495
-0.5
-0.51
-0.51
-0.505
-0.51
-0.525
-0.515
-0.51
-0.505
-0.51
-0.515
-0.525
-0.51
-0.51
-0.505
-0.515
-0.5
-0.5
-0.505
-0.5
-0.505
-0.5
-0.5
-0.495
-0.505
-0.51
-0.505
-0.51
-0.515
-0.505
-0.51
-0.505
-0.49
-0.5
-0.505
-0.515
-0.495
-0.49
-0.495
-0.495
-0.5
-0.5
-0.49
-0.505
-0.515
-0.505
-0.49
-0.49
-0.5
-0.495
-0.5
-0.505
-0.495
-0.5
-0.5
-0.495
-0.495
-0.5
-0.49
-0.5
-0.5
-0.515
-0.515
-0.51
-0.52
-0.51
-0.495
-0.49
-0.495
-0.495
-0.495
-0.5
-0.505
-0.495
-0.51
-0.51
-0.51
-0.505
-0.505
-0.49
-0.505
-0.51
-0.51
-0.51
-0.515
-0.51
-0.495
-0.5
-0.5
-0.505
-0.51
-0.51
-0.5
-0.515
-0.525
-0.525
-0.51
-0.515
-0.535
-0.525
-0.525
-0.52
-0.51
-0.51
-0.505
-0.485
-0.485
-0.47
-0.465
-0.47
-0.48
-0.48
-0.45
-0.445
-0.425
-0.425
-0.435
-0.45
-0.445
-0.44
-0.44
-0.445
-0.435
-0.42
-0.435
-0.435
-0.44
-0.455
-0.475
-0.46
-0.48
-0.5
-0.5
-0.52
-0.525
-0.515
-0.51
-0.515
-0.515
-0.515
-0.515
-0.51
-0.505
-0.51
-0.51
-0.495
-0.49
-0.5
-0.505
-0.51
-0.52
-0.505
-0.49
-0.5
-0.49
-0.455
-0.43
-0.355
-0.275
-0.185
-0.125
-0.01
0.1
0.175
0.225
0.255
0.28
0.305
0.32
0.215
0.005
-0.185
-0.36
-0.58
-0.75
-0.88
-0.995
-1.005
-0.97
-0.9
-0.84
-0.77
-0.735
-0.725
-0.725
-0.705
-0.685
-0.67
-0.65
-0.625
-0.615
-0.595
-0.58
-0.58
-0.575
-0.535
-0.51
-0.515
-0.51
-0.51
-0.515
-0.51
-0.49
-0.495
-0.505
-0.485
-0.485
-0.485
-0.475
-0.485
-0.495
-0.47
-0.46
-0.475
-0.47
-0.46
-0.47
-0.465
-0.47
-0.475
-0.465
-0.45
-0.455
-0.45
-0.455
-0.44
-0.45
-0.455
-0.45
-0.445
-0.435
-0.42
-0.42
-0.415
-0.42
-0.415
-0.41
-0.395
-0.385
-0.39
-0.395
-0.38
-0.385
-0.39
-0.37
-0.36
-0.35
-0.35
-0.345
-0.345
-0.365
-0.34
-0.33
-0.34
-0.32
-0.315
-0.315
-0.305
-0.285
-0.3
-0.31
-0.295
-0.3
-0.3
-0.3
-0.285
-0.29
-0.29
-0.295
-0.305
-0.31
-0.305
-0.31
-0.315
-0.3
-0.31
-0.315
-0.325
-0.32
-0.335
-0.335
-0.34
-0.34
-0.33
-0.325
-0.33
-0.33
-0.345
-0.345
-0.355
-0.36
-0.365
-0.37
-0.385
-0.38
-0.37
-0.385
-0.39
-0.405
-0.405
-0.41
-0.415
-0.425
-0.435
-0.42
-0.44
-0.44
-0.42
-0.43
-0.45
-0.455
-0.445
-0.455
-0.46
-0.44
-0.445
-0.45
-0.465
-0.455
-0.445
-0.435
-0.435
-0.455
-0.45
-0.44
-0.445
-0.445
-0.44
-0.445
-0.47
-0.45
-0.445
-0.455
-0.455
-0.455
-0.445
-0.44
-0.44
-0.45
-0.455
-0.45
-0.445
-0.45
-0.45
-0.44
-0.445
-0.45
-0.435
-0.435
-0.45
-0.445
-0.44
-0.44
-0.445
-0.43
-0.435
-0.435
-0.43
-0.445
-0.445
-0.445
-0.44
-0.455
-0.445
-0.43
-0.435
-0.445
-0.44
-0.45
-0.455
-0.455
-0.45
-0.455
-0.455
-0.455
-0.46
-0.44
-0.44
-0.445
-0.455
-0.455
-0.46
-0.46
-0.465
-0.46
-0.46
-0.455
-0.455
-0.47
-0.47
-0.45
-0.46
-0.45
-0.44
-0.44
-0.455
-0.46
-0.46
-0.455
-0.465
-0.46
-0.465
-0.485
-0.475
-0.465
-0.45
-0.45
-0.44
-0.445
-0.425
-0.41
-0.415
-0.44
-0.425
-0.41
-0.4
-0.4
-0.395
-0.405
-0.41
-0.415
-0.405
-0.415
-0.395
-0.38
-0.385
-0.385
-0.375
-0.415
-0.44
-0.435
-0.455
-0.465
-0.46
-0.47
-0.47
-0.47
-0.465
-0.48
-0.485
-0.475
-0.49
-0.49
-0.46
-0.46
-0.46
-0.465
-0.465
-0.475
-0.46
-0.475
-0.485
-0.47
-0.45
-0.44
-0.43
-0.415
-0.4
-0.37
-0.29
-0.2
-0.105
-0.02
0.095
0.19
0.265
0.29
0.295
0.305
0.31
0.28
0.125
-0.085
-0.25
-0.44
-0.645
-0.795
-0.955
-1.02
-0.99
-0.955
-0.865
-0.795
-0.725
-0.7
-0.705
-0.685
-0.67
-0.655
-0.635
-0.615
-0.59
-0.57
-0.545
-0.55
-0.54
-0.52
-0.515
-0.505
-0.48
-0.465
-0.475
-0.47
-0.46
-0.465
-0.455
-0.455
-0.45
-0.46
-0.455
-0.455
-0.46
-0.455
-0.435
-0.435
-0.455
-0.435
-0.43
-0.435
-0.43
-0.425
-0.445
-0.415
-0.405
-0.405
-0.41
-0.4
-0.415
-0.41
-0.4
-0.4
-0.4
-0.385
-0.38
-0.375
-0.38
-0.375
-0.38
-0.385
-0.375
-0.375
-0.37
-0.365
-0.35
-0.35
-0.35
-0.33
-0.335
-0.33
-0.315
-0.315
-0.315
-0.295
-0.29
-0.3
-0.295
-0.29
-0.275
-0.285
-0.28
-0.285
-0.29
-0.28
-0.265
-0.27
-0.27
-0.275
-0.28
-0.27
-0.27
-0.275
-0.295
-0.275
-0.285
-0.295
-0.295
-0.295
-0.29
-0.3
-0.305
-0.315
-0.325
-0.305
-0.3
-0.315
-0.305
-0.305
-0.325
-0.33
-0.325
-0.335
-0.35
-0.35
-0.345
-0.355
-0.37
-0.36
-0.39
-0.385
-0.385
-0.385
-0.38
-0.37
-0.38
-0.395
-0.4
-0.4
-0.425
-0.425
-0.415
-0.42
-0.435
-0.43
-0.415
-0.42
-0.43
-0.42
-0.43
-0.435
-0.425
-0.425
-0.43
-0.42
-0.42
-0.43
-0.425
-0.43
-0.435
-0.425
-0.42
-0.42
-0.425
-0.425
-0.415
-0.43
-0.43
-0.425
-0.435
-0.42
-0.42
-0.43
-0.425
-0.41
-0.41
-0.42
-0.425
-0.42
-0.43
-0.42
-0.425
-0.43
-0.425
-0.405
-0.4
-0.41
-0.415
-0.43
-0.43
-0.42
-0.415
-0.42
-0.41
-0.405
-0.41
-0.42
-0.425
-0.435
-0.44
-0.43
-0.425
-0.43
-0.43
-0.415
-0.42
-0.43
-0.415
-0.43
-0.43
-0.43
-0.445
-0.44
-0.415
-0.415
-0.42
-0.425
-0.41
-0.43
-0.44
-0.435
-0.435
-0.45
-0.445
-0.44
-0.445
-0.44
-0.435
-0.44
-0.455
-0.435
-0.425
-0.425
-0.4
-0.395
-0.395
-0.395
-0.39
-0.415
-0.435
-0.4
-0.38
-0.385
-0.375
-0.37
-0.385
-0.39
-0.38
-0.37
-0.37
-0.365
-0.36
-0.375
-0.36
-0.38
-0.395
-0.4
-0.405
-0.425
-0.43
-0.44
-0.44
-0.46
-0.445
-0.435
-0.445
-0.45
-0.455
-0.455
-0.455
-0.435
-0.43
-0.435
-0.43
-0.43
-0.44
-0.425
-0.43
-0.435
-0.43
-0.4
-0.405
-0.395
-0.36
-0.335
-0.27
-0.165
-0.08
0.0
0.13
0.215
0.265
0.29
0.31
0.325
0.355
0.325
0.17
-0.035
-0.225
-0.415
-0.605
-0.765
-0.89
-0.95
-0.925
-0.88
-0.8
-0.735
-0.675
-0.645
-0.635
-0.63
-0.61
-0.585
-0.575
-0.555
-0.54
-0.525
-0.505
-0.495
-0.49
-0.49
-0.46
-0.455
-0.46
-0.45
-0.44
-0.455
-0.45
-0.445
-0.435
-0.435
-0.42
-0.425
-0.415
-0.405
-0.425
-0.435
-0.415
-0.4
-0.405
-0.41
-0.405
-0.4
-0.405
-0.4
-0.415
-0.425
-0.405
-0.385
-0.385
-0.38
-0.37
-0.37
-0.375
-0.37
-0.375
-0.37
-0.36
-0.37
-0.37
-0.365
-0.365
-0.35
-0.335
-0.335
-0.34
-0.33
-0.325
-0.325
-0.325
-0.32
-0.295
-0.29
-0.3
-0.295
-0.29
-0.28
-0.28
-0.28
-0.28
-0.275
-0.265
-0.27
-0.255
-0.245
-0.265
-0.265
-0.26
-0.255
-0.265
-0.26
-0.27
-0.26
-0.265
-0.255
-0.265
-0.27
-0.26
-0.26
-0.285
-0.28
-0.275
-0.28
-0.28
-0.29
-0.3
-0.305
-0.3
-0.3
-0.315
-0.31
-0.315
-0.325
-0.32
-0.32
-0.335
-0.335
-0.335
-0.345
-0.365
-0.345
-0.345
-0.355
-0.355
-0.365
-0.375
-0.385
-0.385
-0.38
-0.385
-0.385
-0.385
-0.385
-0.395
-0.4
-0.4
-0.4
-0.405
-0.41
-0.415
-0.4
-0.405
-0.405
-0.39
-0.4
-0.41
-0.41
-0.41
-0.415
-0.415
-0.405
-0.405
-0.405
-0.405
-0.405
-0.4
-0.41
-0.39
-0.4
-0.41
-0.385
-0.38
-0.39
-0.38
-0.39
-0.395
-0.4
-0.395
-0.4
-0.395
-0.385
-0.38
-0.385
-0.375
-0.385
-0.395
-0.385
-0.385
-0.395
-0.395
-0.38
-0.385
-0.375
-0.38
-0.38
-0.395
-0.39
-0.395
-0.4
-0.395
-0.385
-0.39
-0.4
-0.395
-0.4
-0.4
-0.395
-0.39
-0.39
-0.385
-0.385
-0.39
-0.395
-0.39
-0.405
-0.41
-0.4
-0.395
-0.405
-0.405
-0.41
-0.41
-0.42
-0.415
-0.43
-0.43
-0.43
-0.42
-0.425
-0.42
-0.41
-0.41
-0.41
-0.405
-0.415
-0.395
-0.38
-0.38
-0.39
-0.38
-0.385
-0.385
-0.365
-0.34
-0.345
-0.345
-0.34
-0.345
-0.36
-0.35
-0.335
-0.33
-0.32
-0.31
-0.33
-0.335
-0.34
-0.37
-0.375
-0.38
-0.39
-0.405
-0.41
-0.43
-0.42
-0.42
-0.42
-0.42
-0.425
-0.415
-0.415
-0.415
-0.415
-0.42
-0.425
-0.42
-0.415
-0.425
-0.42
-0.405
-0.41
-0.415
-0.395
-0.38
-0.39
-0.37
-0.34
-0.305
-0.235
-0.14
-0.04
0.04
0.145
0.24
0.275
0.3
0.34
0.38
0.385
0.315
0.145
-0.055
-0.23
-0.44
-0.605
-0.76
-0.86
-0.895
-0.88
-0.805
-0.73
-0.67
-0.635
-0.61
-0.605
-0.6
-0.595
-0.57
-0.54
-0.515
-0.495
-0.49
-0.485
-0.475
-0.475
-0.455
-0.44
-0.435
-0.43
-0.415
-0.415
-0.42
-0.415
-0.42
-0.415
-0.41
-0.405
-0.41
-0.41
-0.395
-0.395
-0.4
-0.385
-0.395
-0.4
-0.39
-0.38
-0.39
-0.39
-0.38
-0.385
-0.38
-0.365
-0.375
-0.39
-0.38
-0.38
-0.38
-0.35
-0.34
-0.35
-0.345
-0.34
-0.34
-0.345
-0.335
-0.335
-0.33
-0.33
-0.315
-0.315
-0.315
-0.305
-0.3
-0.305
-0.285
-0.285
-0.29
-0.275
-0.255
-0.255
-0.255
-0.255
-0.27
-0.26
-0.25
-0.255
-0.255
-0.22
-0.215
-0.225
-0.225
-0.22
-0.235
-0.235
-0.23
-0.24
-0.24
-0.235
-0.23
-0.24
-0.24
-0.24
-0.25
-0.255
-0.255
-0.265
-0.275
-0.265
-0.26
-0.28
-0.285
-0.28
-0.295
-0.285
-0.29
-0.315
-0.31
-0.29
-0.3
-0.305
-0.305
-0.3
-0.31
-0.315
-0.315
-0.33
-0.345
-0.33
-0.325
-0.34
-0.35
-0.355
-0.37
-0.37
-0.365
-0.375
-0.38
-0.355
-0.365
-0.375
-0.375
-0.375
-0.39
-0.39
-0.37
-0.38
-0.39
-0.385
-0.375
-0.375
-0.375
-0.375
-0.385
-0.38
-0.37
-0.38
-0.39
-0.375
-0.37
-0.375
-0.375
-0.375
-0.39
-0.385
-0.375
-0.39
-0.38
-0.37
-0.36
-0.365
-0.37
-0.385
-0.385
-0.38
-0.36
-0.36
-0.37
-0.365
-0.36
-0.35
-0.355
-0.365
-0.385
-0.37
-0.37
-0.365
-0.365
-0.365
-0.36
-0.365
-0.36
-0.365
-0.37
-0.37
-0.375
-0.375
-0.375
-0.365
-0.36
-0.365
-0.365
-0.375
-0.385
-0.37
-0.37
-0.385
-0.38
-0.37
-0.38
-0.385
-0.385
-0.385
-0.375
-0.39
-0.385
-0.385
-0.4
-0.395
-0.39
-0.405
-0.395
-0.395
-0.41
-0.39
-0.385
-0.4
-0.38
-0.365
-0.35
-0.35
-0.325
-0.34
-0.355
-0.355
-0.35
-0.34
-0.315
-0.3
-0.315
-0.32
-0.31
-0.315
-0.315
-0.305
-0.29
-0.285
-0.28
-0.28
-0.29
-0.305
-0.33
-0.355
-0.36
-0.365
-0.375
-0.39
-0.385
-0.385
-0.4
-0.395
-0.395
-0.39
-0.395
-0.395
-0.395
-0.4
-0.39
-0.39
-0.39
-0.385
-0.375
-0.38
-0.395
-0.39
-0.385
-0.375
-0.355
-0.345
-0.33
-0.295
-0.245
-0.175
-0.075
-0.01
0.1
0.2
0.295
0.325
0.335
0.38
0.415
0.41
0.295
0.115
-0.085
-0.285
-0.45
-0.615
-0.75
-0.825
-0.83
-0.815
-0.725
-0.655
-0.62
-0.605
-0.565
-0.565
-0.565
-0.56
-0.525
-0.505
-0.475
-0.47
-0.465
-0.465
-0.44
-0.43
-0.42
-0.405
-0.41
-0.4
-0.39
-0.385
-0.4
-0.395
-0.38
-0.39
-0.38
-0.37
-0.37
-0.375
-0.375
-0.365
-0.37
-0.375
-0.365
-0.36
-0.36
-0.36
-0.355
-0.365
-0.36
-0.35
-0.35
-0.35
-0.34
-0.33
-0.335
-0.325
-0.335
-0.335
-0.33
-0.315
-0.325
-0.325
-0.315
-0.295
-0.295
-0.29
-0.295
-0.295
-0.28
-0.275
-0.28
-0.27
-0.26
-0.255
-0.255
-0.25
-0.26
-0.265
-0.245
-0.24
-0.23
-0.215
-0.21
-0.21
-0.215
-0.215
-0.215
-0.21
-0.2
-0.2
-0.2
-0.195
-0.2
-0.2
-0.2
-0.195
-0.21
-0.21
-0.215
-0.215
-0.23
-0.22
-0.21
-0.225
-0.235
-0.225
-0.24
-0.245
-0.24
-0.245
-0.265
-0.24
-0.23
-0.245
-0.255
-0.26
-0.265
-0.265
-0.26
-0.27
-0.285
-0.27
-0.285
-0.29
-0.3
-0.305
-0.31
-0.305
-0.31
-0.32
-0.33
-0.31
-0.31
-0.315
-0.33
-0.33
-0.34
-0.34
-0.345
-0.34
-0.345
-0.335
-0.34
-0.35
-0.34
-0.34
-0.35
-0.35
-0.34
-0.35
-0.36
-0.335
-0.36
-0.36
-0.34
-0.345
-0.345
-0.34
-0.335
-0.345
-0.35
-0.345
-0.345
-0.335
-0.34
-0.34
-0.345
-0.335
-0.33
-0.34
-0.34
-0.33
-0.33
-0.335
-0.335
-0.345
-0.335
-0.335
-0.33
-0.34
-0.34
-0.33
-0.325
-0.33
-0.33
-0.34
-0.34
-0.335
-0.34
-0.34
-0.34
-0.335
-0.335
-0.345
-0.34
-0.345
-0.35
-0.35
-0.35
-0.35
-0.35
-0.34
-0.345
-0.335
-0.34
-0.345
-0.35
-0.35
-0.345
-0.345
-0.345
-0.34
-0.355
-0.35
-0.33
-0.37
-0.375
-0.36
-0.365
-0.37
-0.355
-0.355
-0.355
-0.35
-0.33
-0.34
-0.33
-0.315
-0.315
-0.315
-0.315
-0.315
-0.305
-0.285
-0.265
-0.275
-0.29
-0.29
-0.29
-0.295
-0.27
-0.265
-0.265
-0.255
-0.255
-0.275
-0.29
-0.305
-0.32
-0.345
-0.34
-0.34
-0.35
-0.36
-0.365
-0.375
-0.375
-0.375
-0.375
-0.38
-0.37
-0.365
-0.37
-0.37
-0.36
-0.365
-0.37
-0.355
-0.365
-0.37
-0.365
-0.355
-0.35
-0.345
-0.345
-0.335
-0.32
-0.26
-0.185
-0.1
0.005
0.09
0.205
0.305
0.35
0.365
0.39
0.44
0.455
0.375
0.22
-0.005
-0.19
-0.365
-0.535
-0.69
-0.78
-0.815
-0.79
-0.73
-0.64
-0.59
-0.57
-0.55
-0.545
-0.555
-0.525
-0.505
-0.49
-0.47
-0.435
-0.43
-0.43
-0.415
-0.405
-0.405
-0.385
-0.38
-0.39
-0.38
-0.36
-0.36
-0.365
-0.36
-0.365
-0.38
-0.355
-0.345
-0.35
-0.345
-0.33
-0.33
-0.345
-0.33
-0.34
-0.355
-0.345
-0.335
-0.34
-0.32
-0.315
-0.315
-0.315
-0.315
-0.315
-0.32
-0.315
-0.3
-0.3
-0.3
-0.29
-0.29
-0.295
-0.29
-0.28
-0.28
-0.27
-0.27
-0.265
-0.265
-0.255
-0.245
-0.245
-0.235
-0.245
-0.24
-0.24
-0.235
-0.235
-0.215
-0.205
-0.21
-0.2
-0.185
-0.195
-0.2
-0.185
-0.19
-0.185
-0.185
-0.17
-0.175
-0.18
-0.175
-0.18
-0.19
-0.19
-0.17
-0.175
-0.175
-0.18
-0.19
-0.185
-0.185
-0.205
-0.205
-0.2
-0.21
-0.215
-0.215
-0.205
-0.225
-0.215
-0.225
-0.22
-0.225
-0.23
-0.23
-0.25
-0.23
-0.235
-0.25
-0.25
-0.24
-0.25
-0.26
-0.26
-0.26
-0.295
-0.28
-0.275
-0.28
-0.285
-0.285
-0.305
-0.305
-0.305
-0.315
-0.32
-0.32
-0.315
-0.315
-0.32
-0.325
-0.325
-0.325
-0.325
-0.33
-0.335
-0.32
-0.325
-0.305
-0.3
-0.315
-0.325
-0.32
-0.315
-0.315
-0.335
-0.315
-0.315
-0.33
-0.32
-0.315
-0.335
-0.325
-0.315
-0.325
-0.32
-0.315
-0.315
-0.32
-0.315
-0.305
-0.315
-0.325
-0.32
-0.31
-0.315
-0.31
-0.305
-0.315
-0.305
-0.315
-0.325
-0.32
-0.32
-0.33
-0.33
-0.32
-0.325
-0.32
-0.315
-0.325
-0.325
-0.32
-0.32
-0.335
-0.33
-0.32
-0.32
-0.335
-0.325
-0.32
-0.34
-0.325
-0.32
-0.33
-0.32
-0.315
-0.33
-0.34
-0.335
-0.35
-0.35
-0.36
-0.35
-0.365
-0.36
-0.345
-0.335
-0.33
-0.325
-0.32
-0.32
-0.305
-0.3
-0.305
-0.305
-0.305
-0.315
-0.305
-0.275
-0.265
-0.255
-0.275
-0.27
-0.28
-0.27
-0.26
-0.25
-0.25
-0.245
-0.255
-0.27
-0.255
-0.28
-0.31
-0.315
-0.315
-0.315
-0.315
-0.335
-0.35
-0.355
-0.345
-0.35
-0.365
-0.365
-0.355
-0.355
-0.355
-0.345
-0.35
-0.35
-0.345
-0.35
-0.355
-0.35
-0.345
-0.35
-0.34
-0.335
-0.335
-0.32
-0.3
-0.25
-0.18
-0.08
0.015
0.095
0.225
0.33
0.385
0.41
0.425
0.445
0.475
0.425
0.27
0.05
-0.145
-0.35
-0.545
-0.685
-0.815
-0.865
-0.84
-0.785
-0.715
-0.65
-0.595
-0.58
-0.595
-0.575
-0.55
-0.535
-0.52
-0.48
-0.455
-0.43
-0.42
-0.42
-0.42
-0.405
-0.39
-0.385
-0.385
-0.365
-0.365
-0.36
-0.35
-0.355
-0.355
-0.355
-0.345
-0.35
-0.35
-0.345
-0.33
-0.335
-0.335
-0.34
-0.34
-0.325
-0.325
-0.335
-0.325
-0.315
-0.325
-0.32
-0.315
-0.315
-0.315
-0.31
-0.31
-0.315
-0.305
-0.295
-0.3
-0.295
-0.29
-0.29
-0.29
-0.28
-0.27
-0.265
-0.265
-0.26
-0.245
-0.25
-0.23
-0.24
-0.245
-0.23
-0.24
-0.235
-0.225
-0.225
-0.195
-0.21
-0.2
-0.175
-0.175
-0.18
-0.18
-0.185
-0.185
-0.175
-0.18
-0.17
-0.16
-0.175
-0.165
-0.165
-0.18
-0.175
-0.18
-0.175
-0.18
-0.185
-0.19
-0.19
-0.195
-0.195
-0.2
-0.21
-0.2
-0.195
-0.21
-0.21
-0.21
-0.23
-0.23
-0.22
-0.23
-0.24
-0.225
-0.23
-0.24
-0.225
-0.23
-0.265
-0.265
-0.265
-0.275
-0.285
-0.29
-0.295
-0.295
-0.3
-0.305
-0.325
-0.325
-0.315
-0.32
-0.335
-0.325
-0.315
-0.32
-0.33
-0.345
-0.34
-0.335
-0.34
-0.34
-0.35
-0.335
-0.33
-0.34
-0.325
-0.33
-0.35
-0.345
-0.335
-0.33
-0.35
-0.345
-0.33
-0.34
-0.33
-0.34
-0.34
-0.345
-0.335
-0.335
-0.34
-0.33
-0.325
-0.33
-0.325
-0.33
-0.34
-0.34
-0.335
-0.345
-0.35
-0.33
-0.335
-0.345
-0.345
-0.35
-0.34
-0.335
-0.33
-0.335
-0.345
-0.34
-0.345
-0.35
-0.345
-0.34
-0.35
-0.355
-0.355
-0.36
-0.36
-0.36
-0.355
-0.345
-0.335
-0.345
-0.35
-0.345
-0.35
-0.36
-0.365
-0.36
-0.355
-0.35
-0.345
-0.35
-0.37
-0.375
-0.36
-0.365
-0.365
-0.335
-0.33
-0.33
-0.31
-0.325
-0.335
-0.315
-0.325
-0.34
-0.34
-0.315
-0.3
-0.29
-0.29
-0.3
-0.305
-0.31
-0.3
-0.3
-0.29
-0.275
-0.285
-0.285
-0.285
-0.31
-0.335
-0.335
-0.35
-0.365
-0.36
-0.355
-0.365
-0.38
-0.38
-0.38
-0.385
-0.38
-0.375
-0.39
-0.37
-0.365
-0.36
-0.375
-0.37
-0.375
-0.38
-0.38
-0.375
-0.38
-0.36
-0.335
-0.335
-0.32
-0.295
-0.27
-0.19
-0.09
-0.02
0.06
0.19
0.29
0.345
0.375
0.375
0.395
0.41
0.355
0.19
-0.015
-0.175
-0.39
-0.58
-0.73
-0.875
-0.93
-0.915
-0.84
-0.775
-0.7
-0.625
-0.61
-0.615
-0.605
-0.58
-0.56
-0.525
-0.51
-0.495
-0.48
-0.455
-0.445
-0.44
-0.435
-0.42
-0.42
-0.41
-0.39
-0.39
-0.38
-0.38
-0.39
-0.385
-0.375
-0.365
-0.37
-0.365
-0.37
-0.36
-0.365
-0.35
-0.365
-0.365
-0.34
-0.345
-0.355
-0.35
-0.335
-0.35
-0.345
-0.33
-0.33
-0.34
-0.33
-0.32
-0.32
-0.315
-0.325
-0.33
-0.325
-0.325
-0.3
-0.3
-0.305
-0.305
-0.3
-0.285
-0.29
-0.27
-0.275
-0.265
-0.255
-0.265
-0.255
-0.25
-0.26
-0.25
-0.235
-0.25
-0.245
-0.22
-0.215
-0.21
-0.215
-0.22
-0.205
-0.2
-0.21
-0.225
-0.205
-0.19
-0.18
-0.2
-0.2
-0.2
-0.21
-0.205
-0.2
-0.21
-0.215
-0.21
-0.205
-0.21
-0.225
-0.23
-0.235
-0.23
-0.235
-0.24
-0.235
-0.23
-0.255
-0.245
-0.255
-0.27
-0.275
-0.275
-0.27
-0.275
-0.285
-0.3
-0.285
-0.285
-0.295
-0.305
-0.315
-0.32
-0.32
-0.335
-0.325
-0.335
-0.345
-0.34
-0.34
-0.355
-0.355
-0.345
-0.36
-0.36
-0.36
-0.35
-0.345
-0.355
-0.36
-0.36
-0.37
-0.365
-0.36
-0.365
-0.36
-0.355
-0.37
-0.355
-0.35
-0.36
-0.365
-0.345
-0.36
-0.36
-0.345
-0.345
-0.36
-0.355
-0.35
-0.355
-0.36
-0.355
-0.36
-0.36
-0.35
-0.34
-0.34
-0.345
-0.35
-0.36
-0.355
-0.35
-0.35
-0.355
-0.345
-0.35
-0.36
-0.35
-0.355
-0.36
-0.34
-0.34
-0.35
-0.35
-0.34
-0.345
-0.355
-0.345
-0.36
-0.365
-0.36
-0.36
-0.36
-0.365
-0.35
-0.355
-0.355
-0.35
-0.35
-0.36
-0.36
-0.35
-0.36
-0.37
-0.365
-0.36
-0.35
-0.34
-0.355
-0.335
-0.325
-0.32
-0.325
-0.34
-0.32
-0.335
-0.335
-0.315
-0.305
-0.3
-0.295
-0.3
-0.315
-0.315
-0.305
-0.31
-0.3
-0.29
-0.3
-0.315
-0.32
-0.315
-0.33
-0.34
-0.34
-0.365
-0.37
-0.36
-0.385
-0.38
-0.375
-0.385
-0.39
-0.385
-0.38
-0.38
-0.385
-0.37
-0.39
-0.395
-0.38
-0.385
-0.385
-0.39
-0.385
-0.38
-0.36
-0.335
-0.345
-0.34
-0.31
-0.275
-0.2
-0.115
-0.03
0.05
0.17
0.255
0.3
0.335
0.345
0.36
0.365
0.325
0.18
-0.035
-0.2
-0.395
-0.58
-0.745
-0.88
-0.925
-0.88
-0.83
-0.745
-0.665
-0.61
-0.585
-0.57
-0.565
-0.54
-0.52
-0.52
-0.485
-0.455
-0.445
-0.435
-0.425
-0.425
-0.42
-0.39
-0.385
-0.39
-0.38
-0.375
-0.365
-0.36
-0.36
-0.365
-0.36
-0.35
-0.35
-0.355
-0.335
-0.345
-0.34
-0.345
-0.35
-0.35
-0.34
-0.34
-0.34
-0.34
-0.32
-0.32
-0.335
-0.33
-0.325
-0.325
-0.32
-0.31
-0.315
-0.32
-0.3
-0.3
-0.305
-0.305
-0.3
-0.305
-0.3
-0.285
-0.29
-0.29
-0.27
-0.265
-0.27
-0.255
-0.25
-0.255
-0.26
-0.24
-0.25
-0.245
-0.225
-0.215
-0.22
-0.215
-0.22
-0.215
-0.205
-0.21
-0.205
-0.205
-0.2
-0.19
-0.195
-0.185
-0.19
-0.19
-0.195
-0.195
-0.2
-0.195
-0.195
-0.21
-0.21
-0.22
-0.225
-0.225
-0.22
-0.215
-0.23
-0.225
-0.225
-0.24
-0.235
-0.245
-0.26
-0.275
-0.255
-0.25
-0.26
-0.265
-0.265
-0.27
-0.285
-0.29
-0.29
-0.295
-0.29
-0.29
-0.3
-0.315
-0.32
-0.32
-0.315
-0.315
-0.32
-0.345
-0.33
-0.335
-0.355
-0.34
-0.32
-0.34
-0.35
-0.345
-0.355
-0.35
-0.34
-0.345
-0.35
-0.35
-0.34
-0.345
-0.35
-0.34
-0.355
-0.345
-0.345
-0.35
-0.355
-0.345
-0.36
-0.36
-0.335
-0.33
-0.34
-0.35
-0.345
-0.335
-0.35
-0.335
-0.335
-0.335
-0.335
-0.325
-0.33
-0.34
-0.33
-0.35
-0.35
-0.33
-0.34
-0.335
-0.335
-0.34
-0.345
-0.35
-0.34
-0.34
-0.355
-0.34
-0.325
-0.335
-0.335
-0.335
-0.345
-0.345
-0.335
-0.34
-0.35
-0.335
-0.345
-0.35
-0.345
-0.345
-0.36
-0.36
-0.35
-0.355
-0.365
-0.36
-0.35
-0.35
-0.35
-0.345
-0.35
-0.33
-0.31
-0.315
-0.31
-0.315
-0.315
-0.335
-0.325
-0.305
-0.29
-0.28
-0.295
-0.31
-0.315
-0.29
-0.285
-0.28
-0.285
-0.28
-0.285
-0.28
-0.29
-0.305
-0.32
-0.325
-0.34
-0.35
-0.36
-0.36
-0.365
-0.37
-0.365
-0.37
-0.38
-0.37
-0.365
-0.375
-0.365
-0.38
-0.385
-0.375
-0.37
-0.365
-0.355
-0.355
-0.355
-0.36
-0.35
-0.34
-0.345
-0.335
-0.305
-0.275
-0.2
-0.11
-0.02
0.05
0.17
0.255
0.31
0.345
0.35
0.38
0.405
0.36
0.205
0.03
-0.15
-0.35
-0.53
-0.685
-0.82
-0.86
-0.84
-0.77
-0.7
-0.625
-0.575
-0.575
-0.565
-0.55
-0.535
-0.535
-0.51
-0.475
-0.445
-0.44
-0.43
-0.43
-0.41
-0.39
-0.39
-0.39
-0.38
-0.38
-0.38
-0.375
-0.385
-0.38
-0.385
-0.37
-0.355
-0.365
-0.365
-0.355
-0.345
-0.335
-0.34
-0.35
-0.35
-0.335
-0.335
-0.34
-0.325
-0.33
-0.325
-0.315
-0.32
-0.335
-0.335
-0.325
-0.325
-0.335
-0.32
-0.325
-0.305
-0.3
-0.3
-0.3
-0.285
-0.285
-0.285
-0.29
-0.28
-0.26
-0.26
-0.265
-0.265
-0.275
-0.25
-0.245
-0.25
-0.255
-0.23
-0.215
-0.225
-0.21
-0.22
-0.22
-0.22
-0.21
-0.205
-0.205
-0.19
-0.19
-0.2
-0.19
-0.19
-0.2
-0.2
-0.19
-0.2
-0.205
-0.195
-0.195
-0.2
-0.21
-0.215
-0.23
-0.215
-0.215
-0.23
-0.225
-0.22
-0.235
-0.245
-0.235
-0.26
-0.27
-0.265
-0.25
-0.255
-0.265
-0.255
-0.255
-0.265
-0.265
-0.285
-0.295
-0.29
-0.295
-0.295
-0.305
-0.295
-0.29
-0.295
-0.3
-0.305
-0.31
-0.305
-0.32
-0.33
-0.34
-0.32
-0.325
-0.32
-0.315
-0.335
-0.335
-0.34
-0.345
-0.335
-0.32
-0.33
-0.34
-0.35
-0.34
-0.33
-0.34
-0.34
-0.34
-0.34
-0.34
-0.335
-0.335
-0.34
-0.335
-0.335
-0.33
-0.325
-0.335
-0.345
-0.325
-0.325
-0.335
-0.33
-0.32
-0.34
-0.335
-0.325
-0.325
-0.33
-0.32
-0.31
-0.315
-0.315
-0.315
-0.325
-0.32
-0.325
-0.325
-0.335
-0.315
-0.325
-0.335
-0.325
-0.33
-0.34
-0.34
-0.335
-0.335
-0.32
-0.32
-0.325
-0.33
-0.32
-0.33
-0.34
-0.35
-0.34
-0.345
-0.345
-0.345
-0.335
-0.345
-0.34
-0.345
-0.35
-0.34
-0.31
-0.3
-0.31
-0.29
-0.28
-0.3
-0.305
-0.305
-0.305
-0.29
-0.275
-0.285
-0.285
-0.28
-0.265
-0.27
-0.275
-0.27
-0.265
-0.265
-0.26
-0.255
-0.29
-0.295
-0.3
-0.31
-0.315
-0.325
-0.34
-0.355
-0.345
-0.35
-0.355
-0.35
-0.36
-0.365
-0.35
-0.36
-0.375
-0.36
-0.335
-0.34
-0.355
-0.335
-0.335
-0.35
-0.35
-0.345
-0.34
-0.32
-0.33
-0.325
-0.3
-0.235
-0.16
-0.08
0.01
0.1
0.21
0.3
0.345
0.36
0.395
0.43
0.445
0.355
0.185
-0.025
-0.2
-0.38
-0.535
-0.69
-0.79
-0.815
-0.785
-0.705
-0.63
-0.575
-0.56
-0.545
-0.53
-0.535
-0.515
-0.485
-0.465
-0.44
-0.41
-0.42
-0.43
-0.41
-0.395
-0.385
-0.37
-0.355
-0.345
-0.345
-0.35
-0.35
-0.35
-0.34
-0.345
-0.345
-0.325
-0.335
-0.345
-0.335
-0.32
-0.325
-0.325
-0.32
-0.325
-0.325
-0.305
-0.305
-0.31
-0.3
-0.3
-0.305
-0.315
-0.295
-0.3
-0.305
-0.295
-0.295
-0.3
-0.3
-0.3
-0.29
-0.29
-0.28
-0.28
-0.27
-0.26
-0.265
-0.255
-0.255
-0.255
-0.255
-0.255
-0.245
-0.24
-0.24
-0.225
-0.215
-0.215
-0.2
-0.2
-0.205
-0.195
-0.19
-0.195
-0.195
-0.175
-0.175
-0.175
-0.175
-0.175
-0.185
-0.175
-0.175
-0.18
-0.185
-0.18
-0.165
-0.18
-0.165
-0.165
-0.185
-0.185
-0.185
-0.195
-0.2
-0.2
-0.2
-0.21
-0.21
-0.215
-0.215
-0.21
-0.205
-0.23
-0.23
-0.225
-0.23
-0.24
-0.245
-0.26
-0.265
-0.255
-0.265
-0.275
-0.275
-0.27
-0.265
-0.28
-0.275
-0.285
-0.3
-0.295
-0.29
-0.31
-0.315
-0.295
-0.31
-0.31
-0.305
-0.31
-0.315
-0.315
-0.32
-0.315
-0.315
-0.305
-0.31
-0.315
-0.31
-0.325
-0.325
-0.325
-0.31
-0.33
-0.31
-0.295
-0.295
-0.305
-0.3
-0.315
-0.315
-0.315
-0.31
-0.315
-0.305
-0.3
-0.305
-0.305
-0.3
-0.32
-0.32
-0.31
-0.295
-0.305
-0.295
-0.295
-0.29
-0.3
-0.29
-0.31
-0.315
-0.305
-0.3
-0.31
-0.3
-0.295
-0.3
-0.3
-0.3
-0.315
-0.295
-0.285
-0.29
-0.305
-0.285
-0.285
-0.29
-0.295
-0.3
-0.31
-0.3
-0.295
-0.31
-0.32
-0.305
-0.295
-0.305
-0.305
-0.31
-0.32
-0.325
-0.32
-0.335
-0.325
-0.3
-0.295
-0.29
-0.285
-0.27
-0.275
-0.265
-0.26
-0.275
-0.285
-0.265
-0.255
-0.255
-0.24
-0.235
-0.235
-0.245
-0.25
-0.24
-0.25
-0.235
-0.215
-0.22
-0.215
-0.21
-0.235
-0.255
-0.27
-0.28
-0.29
-0.28
-0.305
-0.315
-0.315
-0.32
-0.32
-0.325
-0.32
-0.325
-0.32
-0.305
-0.31
-0.31
-0.305
-0.305
-0.325
-0.32
-0.31
-0.315
-0.325
-0.315
-0.305
-0.29
-0.275
-0.28
-0.28
-0.23
-0.155
-0.07
0.03
0.11
0.23
0.315
0.385
0.4
0.415
0.465
0.505
0.44
0.305
0.105
-0.095
-0.27
-0.43
-0.595
-0.715
-0.765
-0.735
-0.685
-0.6
-0.545
-0.515
-0.505
-0.495
-0.5
-0.495
-0.48
-0.44
-0.405
-0.4
-0.395
-0.395
-0.365
-0.33
-0.34
-0.34
-0.33
-0.33
-0.325
-0.32
-0.315
-0.32
-0.315
-0.305
-0.31
-0.31
-0.3
-0.3
-0.31
-0.305
-0.29
-0.29
-0.29
-0.285
-0.285
-0.295
-0.285
-0.28
-0.285
-0.275
-0.275
-0.27
-0.27
-0.265
-0.27
-0.27
-0.26
-0.265
-0.265
-0.245
-0.245
-0.245
-0.245
-0.24
-0.245
-0.245
-0.235
-0.23
-0.235
-0.225
-0.215
-0.185
-0.19
-0.185
-0.2
-0.185
-0.185
-0.175
-0.165
-0.16
-0.155
-0.155
-0.155
-0.16
-0.155
-0.15
-0.14
-0.14
-0.145
-0.13
-0.125
-0.135
-0.135
-0.125
-0.125
-0.13
-0.125
-0.135
-0.14
-0.135
-0.14
-0.14
-0.15
-0.145
-0.15
-0.16
-0.16
-0.17
-0.175
-0.16
-0.16
-0.165
-0.17
-0.165
-0.18
-0.185
-0.185
-0.2
-0.205
-0.195
-0.21
-0.22
-0.195
-0.205
-0.22
-0.225
-0.225
-0.235
-0.23
-0.225
-0.235
-0.24
-0.25
-0.255
-0.255
-0.25
-0.245
-0.26
-0.26
-0.26
-0.27
-0.275
-0.27
-0.28
-0.28
-0.275
-0.27
-0.26
-0.26
-0.255
-0.26
-0.26
-0.26
-0.265
-0.27
-0.265
-0.26
-0.265
-0.27
-0.27
-0.255
-0.265
-0.265
-0.265
-0.28
-0.27
-0.255
-0.26
-0.26
-0.255
-0.255
-0.27
-0.265
-0.26
-0.26
-0.265
-0.26
-0.27
-0.265
-0.255
-0.255
-0.255
-0.255
-0.27
-0.26
-0.26
-0.27
-0.28
-0.265
-0.26
-0.25
-0.255
-0.255
-0.265
-0.27
-0.26
-0.26
-0.265
-0.26
-0.26
-0.26
-0.26
-0.255
-0.27
-0.28
-0.28
-0.28
-0.275
-0.27
-0.27
-0.285
-0.27
-0.265
-0.28
-0.285
-0.275
-0.29
-0.295
-0.285
-0.285
-0.285
-0.285
-0.275
-0.265
-0.24
-0.24
-0.24
-0.23
-0.22
-0.235
-0.24
-0.225
-0.205
-0.2
-0.195
-0.2
-0.21
-0.225
-0.205
-0.205
-0.205
-0.195
-0.2
-0.205
-0.19
-0.2
-0.23
-0.25
-0.245
-0.255
-0.26
-0.27
-0.275
-0.29
-0.29
-0.285
-0.295
-0.285
-0.28
-0.28
-0.28
-0.28
-0.28
-0.3
-0.3
-0.285
-0.28
-0.295
-0.295
-0.3
-0.29
-0.275
-0.26
-0.27
-0.255
-0.225
-0.2
-0.125
-0.03
0.065
0.15
0.275
0.375
0.42
0.465
0.495
0.51
0.53
0.505
0.375
0.155
-0.03
-0.235
-0.42
-0.58
-0.695
-0.755
-0.73
-0.675
-0.595
-0.545
-0.5
-0.5
-0.505
-0.48
-0.46
-0.445
-0.425
-0.395
-0.355
-0.35
-0.355
-0.34
-0.335
-0.315
-0.295
-0.315
-0.305
-0.28
-0.29
-0.29
-0.285
-0.29
-0.29
-0.285
-0.275
-0.275
-0.275
-0.26
-0.255
-0.26
-0.255
-0.26
-0.26
-0.26
-0.26
-0.26
-0.245
-0.245
-0.235
-0.23
-0.23
-0.24
-0.245
-0.235
-0.23
-0.23
-0.22
-0.205
-0.205
-0.21
-0.2
-0.21
-0.21
-0.2
-0.195
-0.195
-0.18
-0.17
-0.175
-0.17
-0.17
-0.175
-0.17
-0.16
-0.15
-0.155
-0.145
-0.125
-0.12
-0.125
-0.11
-0.125
-0.115
-0.11
-0.105
-0.11
-0.1
-0.085
-0.085
-0.09
-0.085
-0.085
-0.095
-0.08
-0.085
-0.105
-0.08
-0.085
-0.1
-0.095
-0.1
-0.105
-0.105
-0.11
-0.125
-0.115
-0.1
-0.11
-0.125
-0.115
-0.13
-0.15
-0.145
-0.13
-0.135
-0.14
-0.14
-0.14
-0.15
-0.165
-0.165
-0.18
-0.18
-0.18
-0.19
-0.195
-0.195
-0.195
-0.2
-0.2
-0.21
-0.225
-0.205
-0.205
-0.215
-0.23
-0.22
-0.23
-0.235
-0.23
-0.235
-0.235
-0.235
-0.235
-0.24
-0.245
-0.215
-0.23
-0.225
-0.23
-0.23
-0.245
-0.24
-0.235
-0.235
-0.24
-0.225
-0.24
-0.24
-0.23
-0.245
-0.23
-0.225
-0.225
-0.24
-0.235
-0.225
-0.225
-0.23
-0.225
-0.225
-0.24
-0.23
-0.225
-0.235
-0.24
-0.235
-0.235
-0.235
-0.22
-0.23
-0.235
-0.23
-0.225
-0.235
-0.23
-0.225
-0.24
-0.23
-0.225
-0.24
-0.24
-0.24
-0.23
-0.23
-0.225
-0.23
-0.235
-0.23
-0.235
-0.25
-0.235
-0.23
-0.23
-0.225
-0.23
-0.24
-0.245
-0.23
-0.235
-0.245
-0.24
-0.225
-0.245
-0.245
-0.25
-0.25
-0.25
-0.245
-0.25
-0.26
-0.265
-0.25
-0.255
-0.255
-0.245
-0.225
-0.225
-0.215
-0.205
-0.2
-0.2
-0.195
-0.215
-0.215
-0.195
-0.175
-0.17
-0.17
-0.18
-0.19
-0.19
-0.185
-0.19
-0.195
-0.17
-0.17
-0.16
-0.16
-0.18
-0.22
-0.22
-0.23
-0.24
-0.245
-0.23
-0.25
-0.25
-0.26
-0.255
-0.27
-0.27
-0.26
-0.265
-0.275
-0.255
-0.245
-0.255
-0.265
-0.25
-0.245
-0.25
-0.255
-0.26
-0.25
-0.225
-0.22
-0.235
-0.205
-0.18
-0.11
-0.02
0.095
0.16
0.275
0.39
0.475
0.52
0.53
0.535
0.56
0.55
0.445
0.235
0.03
-0.155
-0.37
-0.545
-0.685
-0.785
-0.785
-0.745
-0.665
-0.59
-0.51
-0.47
-0.485
-0.485
-0.47
-0.45
-0.425
-0.4
-0.37
-0.35
-0.345
-0.32
-0.315
-0.3
-0.295
-0.28
-0.275
-0.25
-0.25
-0.255
-0.25
-0.24
-0.24
-0.255
-0.25
-0.235
-0.235
-0.235
-0.235
-0.24
-0.23
-0.22
-0.215
-0.215
-0.22
-0.22
-0.23
-0.21
-0.205
-0.21
-0.205
-0.2
-0.205
-0.19
-0.18
-0.2
-0.195
-0.18
-0.185
-0.19
-0.175
-0.16
-0.16
-0.16
-0.15
-0.165
-0.16
-0.15
-0.15
-0.145
-0.13
-0.125
-0.13
-0.115
-0.11
-0.12
-0.115
-0.105
-0.11
-0.1
-0.085
-0.075
-0.085
-0.08
-0.075
-0.08
-0.07
-0.06
-0.07
-0.07
-0.06
-0.055
-0.065
-0.05
-0.04
-0.05
-0.045
-0.055
-0.06
-0.08
-0.07
-0.07
-0.07
-0.075
-0.08
-0.08
-0.09
-0.1
-0.1
-0.105
-0.08
-0.095
-0.1
-0.1
-0.11
-0.115
-0.115
-0.115
-0.125
-0.125
-0.125
-0.13
-0.145
-0.15
-0.155
-0.17
-0.175
-0.165
-0.175
-0.185
-0.18
-0.185
-0.2
-0.2
-0.205
-0.21
-0.205
-0.21
-0.215
-0.215
-0.22
-0.22
-0.23
-0.215
-0.205
-0.215
-0.215
-0.21
-0.22
-0.22
-0.2
-0.21
-0.225
-0.22
-0.22
-0.23
-0.22
-0.215
-0.225
-0.23
-0.21
-0.21
-0.21
-0.2
-0.2
-0.215
-0.21
-0.21
-0.21
-0.215
-0.2
-0.205
-0.21
-0.19
-0.215
-0.22
-0.21
-0.215
-0.22
-0.21
-0.205
-0.22
-0.21
-0.2
-0.21
-0.21
-0.205
-0.205
-0.215
-0.22
-0.22
-0.215
-0.215
-0.21
-0.22
-0.22
-0.22
-0.23
-0.225
-0.22
-0.215
-0.215
-0.21
-0.215
-0.225
-0.23
-0.215
-0.225
-0.23
-0.215
-0.215
-0.225
-0.22
-0.225
-0.235
-0.225
-0.235
-0.24
-0.245
-0.23
-0.225
-0.24
-0.245
-0.225
-0.255
-0.24
-0.22
-0.22
-0.215
-0.19
-0.175
-0.185
-0.195
-0.205
-0.21
-0.195
-0.185
-0.18
-0.19
-0.17
-0.175
-0.165
-0.165
-0.155
-0.17
-0.17
-0.155
-0.17
-0.185
-0.175
-0.19
-0.21
-0.205
-0.235
-0.245
-0.25
-0.245
-0.26
-0.255
-0.24
-0.245
-0.25
-0.235
-0.245
-0.255
-0.26
-0.24
-0.255
-0.27
-0.24
-0.24
-0.245
-0.25
-0.26
-0.235
-0.225
-0.21
-0.205
-0.18
-0.145
-0.085
0.01
0.105
0.175
0.285
0.39
0.455
0.49
0.485
0.505
0.53
0.505
0.4
0.18
-0.015
-0.215
-0.4
-0.57
-0.72
-0.79
-0.775
-0.73
-0.65
-0.575
-0.515
-0.48
-0.48
-0.46
-0.455
-0.415
-0.405
-0.385
-0.355
-0.34
-0.33
-0.32
-0.305
-0.305
-0.295
-0.265
-0.265
-0.265
-0.255
-0.26
-0.255
-0.245
-0.24
-0.255
-0.25
-0.235
-0.225
-0.225
-0.215
-0.235
-0.24
-0.225
-0.215
-0.22
-0.215
-0.205
-0.205
-0.215
-0.195
-0.205
-0.21
-0.2
-0.195
-0.195
-0.2
-0.185
-0.19
-0.195
-0.185
-0.205
-0.185
-0.175
-0.165
-0.175
-0.16
-0.15
-0.145
-0.145
-0.14
-0.145
-0.155
-0.145
-0.145
-0.145
-0.13
-0.115
-0.09
-0.09
-0.085
-0.1
-0.095
-0.085
-0.08
-0.09
-0.075
-0.075
-0.065
-0.07
-0.06
-0.075
-0.07
-0.065
-0.06
-0.075
-0.065
-0.06
-0.075
-0.07
-0.075
-0.08
-0.095
-0.08
-0.075
-0.085
-0.07
-0.08
-0.095
-0.09
-0.095
-0.125
-0.125
-0.12
-0.12
-0.13
-0.135
-0.12
-0.12
-0.125
-0.135
-0.15
-0.155
-0.155
-0.165
-0.165
-0.165
-0.165
-0.17
-0.175
-0.185
-0.195
-0.19
-0.185
-0.195
-0.2
-0.195
-0.2
-0.215
-0.2
-0.2
-0.225
-0.21
-0.215
-0.23
-0.225
-0.215
-0.22
-0.23
-0.225
-0.21
-0.22
-0.22
-0.21
-0.22
-0.23
-0.22
-0.215
-0.215
-0.205
-0.205
-0.225
-0.225
-0.21
-0.22
-0.225
-0.205
-0.205
-0.21
-0.21
-0.215
-0.225
-0.21
-0.205
-0.22
-0.22
-0.2
-0.2
-0.21
-0.2
-0.21
-0.215
-0.205
-0.2
-0.21
-0.21
-0.205
-0.205
-0.21
-0.21
-0.215
-0.22
-0.225
-0.21
-0.22
-0.21
-0.21
-0.205
-0.2
-0.2
-0.21
-0.215
-0.205
-0.21
-0.22
-0.21
-0.205
-0.215
-0.205
-0.215
-0.22
-0.23
-0.23
-0.235
-0.24
-0.235
-0.235
-0.225
-0.235
-0.235
-0.235
-0.23
-0.22
-0.215
-0.2
-0.19
-0.165
-0.175
-0.175
-0.175
-0.2
-0.195
-0.18
-0.17
-0.165
-0.165
-0.165
-0.17
-0.17
-0.165
-0.175
-0.17
-0.16
-0.155
-0.165
-0.155
-0.155
-0.19
-0.19
-0.205
-0.225
-0.24
-0.24
-0.235
-0.255
-0.24
-0.23
-0.24
-0.245
-0.24
-0.25
-0.235
-0.23
-0.24
-0.25
-0.24
-0.235
-0.24
-0.235
-0.24
-0.26
-0.23
-0.21
-0.215
-0.2
-0.17
-0.135
-0.085
0.01
0.11
0.185
0.31
0.395
0.46
0.48
0.5
0.515
0.545
0.51
0.375
0.15
-0.035
-0.21
-0.4
-0.57
-0.695
-0.76
-0.75
-0.7
-0.61
-0.55
-0.5
-0.465
-0.455
-0.45
-0.435
-0.395
-0.395
-0.37
-0.335
-0.33
-0.32
-0.305
-0.3
-0.3
-0.28
-0.27
-0.26
-0.265
-0.26
-0.27
-0.255
-0.245
-0.255
-0.24
-0.23
-0.24
-0.245
-0.235
-0.24
-0.25
-0.235
-0.225
-0.23
-0.225
-0.215
-0.225
-0.215
-0.21
-0.22
-0.22
-0.2
-0.2
-0.2
-0.19
-0.185
-0.2
-0.2
-0.18
-0.18
-0.19
-0.185
-0.18
-0.185
-0.165
-0.16
-0.165
-0.16
-0.155
-0.16
-0.16
-0.155
-0.14
-0.135
-0.13
-0.115
-0.115
-0.11
-0.095
-0.11
-0.105
-0.105
-0.08
-0.085
-0.08
-0.07
-0.075
-0.07
-0.06
-0.07
-0.09
-0.08
-0.075
-0.08
-0.07
-0.055
-0.07
-0.065
-0.07
-0.085
-0.09
-0.075
-0.08
-0.105
-0.1
-0.095
-0.1
-0.11
-0.115
-0.135
-0.14
-0.125
-0.13
-0.135
-0.13
-0.13
-0.135
-0.13
-0.135
-0.155
-0.155
-0.165
-0.18
-0.185
-0.16
-0.18
-0.175
-0.175
-0.185
-0.2
-0.205
-0.195
-0.2
-0.22
-0.21
-0.215
-0.21
-0.21
-0.22
-0.225
-0.22
-0.215
-0.22
-0.225
-0.215
-0.22
-0.225
-0.23
-0.245
-0.245
-0.215
-0.22
-0.22
-0.225
-0.22
-0.225
-0.225
-0.215
-0.21
-0.235
-0.23
-0.22
-0.21
-0.225
-0.215
-0.21
-0.22
-0.205
-0.22
-0.215
-0.225
-0.22
-0.22
-0.22
-0.205
-0.21
-0.215
-0.215
-0.21
-0.22
-0.22
-0.215
-0.225
-0.21
-0.21
-0.22
-0.235
-0.21
-0.215
-0.22
-0.225
-0.215
-0.22
-0.22
-0.22
-0.22
-0.215
-0.21
-0.22
-0.225
-0.22
-0.21
-0.23
-0.22
-0.22
-0.22
-0.22
-0.225
-0.235
-0.235
-0.24
-0.24
-0.245
-0.23
-0.22
-0.22
-0.23
-0.23
-0.24
-0.25
-0.25
-0.245
-0.245
-0.22
-0.21
-0.21
-0.205
-0.195
-0.195
-0.195
-0.195
-0.205
-0.21
-0.19
-0.165
-0.155
-0.16
-0.16
-0.175
-0.175
-0.17
-0.175
-0.16
-0.14
-0.14
-0.145
-0.165
-0.16
-0.19
-0.215
-0.215
-0.225
-0.25
-0.255
-0.24
-0.25
-0.25
-0.23
-0.25
-0.24
-0.245
-0.24
-0.255
-0.25
-0.24
-0.255
-0.24
-0.23
-0.25
-0.24
-0.235
-0.24
-0.245
-0.21
-0.2
-0.205
-0.18
-0.16
-0.12
-0.045
0.05
0.13
0.21
0.34
0.43
0.475
0.5
0.52
0.54
0.56
0.48
0.29
0.075
-0.095
-0.295
-0.47
-0.6
-0.715
-0.735
-0.705
-0.62
-0.55
-0.495
-0.46
-0.445
-0.43
-0.42
-0.41
-0.4
-0.385
-0.35
-0.33
-0.33
-0.315
-0.305
-0.295
-0.265
-0.245
-0.265
-0.255
-0.255
-0.25
-0.26
-0.24
-0.245
-0.245
-0.23
-0.235
-0.235
-0.23
-0.23
-0.23
-0.225
-0.215
-0.21
-0.215
-0.21
-0.21
-0.225
-0.21
-0.2
-0.215
-0.205
-0.195
-0.2
-0.2
-0.19
-0.19
-0.205
-0.185
-0.185
-0.185
-0.18
-0.175
-0.175
-0.175
-0.17
-0.18
-0.17
-0.16
-0.155
-0.16
-0.145
-0.13
-0.14
-0.135
-0.12
-0.13
-0.12
-0.115
-0.095
-0.095
-0.085
-0.085
-0.075
-0.07
-0.07
-0.08
-0.075
-0.07
-0.06
-0.075
-0.065
-0.065
-0.065
-0.07
-0.055
-0.06
-0.065
-0.065
-0.07
-0.085
-0.075
-0.07
-0.075
-0.08
-0.085
-0.1
-0.095
-0.09
-0.105
-0.115
-0.11
-0.115
-0.11
-0.115
-0.13
-0.145
-0.155
-0.145
-0.15
-0.165
-0.16
-0.15
-0.17
-0.175
-0.18
-0.19
-0.195
-0.185
-0.19
-0.2
-0.185
-0.18
-0.205
-0.2
-0.205
-0.225
-0.22
-0.21
-0.215
-0.225
-0.215
-0.215
-0.22
-0.225
-0.225
-0.235
-0.235
-0.22
-0.225
-0.245
-0.22
-0.225
-0.225
-0.23
-0.23
-0.23
-0.225
-0.225
-0.22
-0.225
-0.215
-0.215
-0.225
-0.225
-0.215
-0.225
-0.22
-0.225
-0.22
-0.235
-0.22
-0.22
-0.235
-0.22
-0.23
-0.225
-0.22
-0.205
-0.215
-0.215
-0.2
-0.215
-0.22
-0.215
-0.215
-0.23
-0.215
-0.215
-0.23
-0.225
-0.2
-0.215
-0.22
-0.21
-0.215
-0.23
-0.22
-0.22
-0.23
-0.225
-0.215
-0.215
-0.22
-0.21
-0.23
-0.235
-0.23
-0.22
-0.225
-0.22
-0.22
-0.22
-0.23
