# TIPE ECG 2021 - ECG-ID Database v1.0.0 par Physionet
# [N° de la personne, N° de l'enregistrement, Période d'échantillonnage, Prénom, Age, Sexe, Date de l'enregistrement]
[76, 2, 0.002, "Jeanne", 20, "F", "20.05.2005"]
-0.02
-0.005
0.0
0.04
0.005
-0.005
0.02
0.01
-0.02
0.01
0.02
-0.025
-0.03
0.005
0.04
-0.01
-0.025
0.055
0.05
0.025
0.065
0.03
0.055
0.05
-0.01
-0.025
-0.095
-0.02
0.085
0.025
0.015
0.035
0.05
0.015
0.005
0.005
-0.015
-0.01
0.0
0.015
0.005
-0.035
0.035
0.025
-0.03
-0.075
0.025
0.02
-0.055
-0.015
0.11
0.035
0.01
0.02
0.02
0.025
-0.015
0.045
0.035
0.025
0.03
0.015
0.005
0.02
0.02
-0.025
-0.01
0.0
0.035
0.045
-0.045
0.045
-0.015
0.03
0.035
0.015
0.0
-0.005
0.015
-0.015
0.06
0.085
0.025
0.045
0.035
0.085
0.06
0.055
0.065
0.045
0.03
0.055
0.015
0.08
0.15
0.1
0.07
0.075
0.075
0.025
0.0
0.08
0.075
0.05
0.02
0.005
0.015
0.0
-0.005
-0.015
0.01
0.045
0.045
-0.065
-0.06
0.02
0.03
0.02
-0.035
0.04
0.015
0.025
0.0
-0.045
-0.045
-0.025
-0.025
0.035
0.03
-0.025
-0.05
0.0
0.045
0.02
0.01
-0.025
-0.01
-0.065
-0.01
0.07
0.12
0.125
0.085
0.095
0.18
0.345
0.38
0.42
0.47
0.495
0.535
0.54
0.455
0.51
0.545
0.435
0.42
0.3
0.195
0.06
-0.115
-0.28
-0.4
-0.4
-0.345
-0.27
-0.185
-0.175
-0.11
-0.025
-0.035
-0.005
0.035
0.045
0.025
-0.02
-0.025
0.045
0.11
0.03
0.01
0.025
-0.025
0.005
0.025
0.015
0.04
0.125
0.07
0.05
0.065
0.025
0.06
0.03
0.03
0.0
0.04
0.075
0.1
0.04
0.045
0.03
-0.04
0.02
0.12
0.135
0.045
0.045
0.115
0.085
0.085
0.065
0.085
0.1
0.13
0.115
0.075
0.105
0.095
0.15
0.125
0.09
0.105
0.09
0.095
0.055
0.19
0.175
0.145
0.13
0.165
0.18
0.15
0.185
0.205
0.195
0.205
0.195
0.15
0.155
0.135
0.17
0.195
0.235
0.165
0.165
0.26
0.285
0.25
0.275
0.235
0.25
0.24
0.26
0.25
0.25
0.305
0.305
0.27
0.26
0.3
0.245
0.28
0.25
0.26
0.26
0.28
0.335
0.34
0.22
0.29
0.32
0.26
0.255
0.3
0.255
0.275
0.295
0.265
0.235
0.21
0.16
0.195
0.135
0.145
0.2
0.2
0.19
0.18
0.23
0.18
0.115
0.125
0.09
0.11
0.13
0.115
0.125
0.05
0.09
0.105
0.08
0.05
0.095
0.04
0.085
0.155
0.065
0.065
0.02
0.02
0.055
0.105
0.095
0.07
0.095
0.1
0.09
0.06
0.135
0.09
0.07
0.08
0.035
0.045
0.095
0.07
0.055
0.13
0.12
0.06
0.145
0.095
0.09
0.055
0.015
0.06
0.16
0.07
0.18
0.135
0.16
0.13
0.08
0.135
0.09
0.1
0.08
0.075
0.07
0.075
0.185
0.155
0.13
0.135
0.13
0.115
0.085
0.13
0.09
0.115
0.17
0.14
0.075
0.06
0.09
0.135
0.095
0.145
0.135
0.095
0.095
0.115
0.12
0.125
0.085
0.15
0.1
0.115
0.09
0.095
0.125
0.1
0.06
0.07
0.125
0.12
0.105
0.075
0.1
0.18
0.065
0.065
0.025
0.065
0.065
0.1
0.135
0.095
0.08
0.12
0.135
0.1
0.125
0.11
0.075
0.1
0.095
0.105
0.115
0.105
0.095
0.115
0.105
0.09
0.17
0.185
0.18
0.1
0.15
0.145
0.19
0.2
0.165
0.125
0.11
0.105
0.13
0.1
0.09
0.1
0.05
0.105
0.11
0.07
0.03
0.05
0.07
0.08
0.075
0.03
0.025
0.115
0.07
0.065
0.065
0.075
0.035
0.045
0.08
0.06
0.055
0.115
0.04
0.035
0.04
0.065
0.095
0.09
0.05
0.045
0.045
-0.025
0.055
0.055
0.055
0.065
0.04
0.04
0.13
0.165
0.125
0.13
0.225
0.295
0.355
0.45
0.515
0.475
0.535
0.52
0.495
0.59
0.435
0.37
0.395
0.355
0.21
0.055
-0.02
-0.24
-0.335
-0.285
-0.3
-0.295
-0.21
-0.125
-0.105
-0.09
-0.01
0.0
0.005
0.075
0.085
0.05
0.055
0.045
0.1
0.115
0.11
0.115
0.115
0.115
0.065
0.1
0.075
0.075
0.09
0.08
0.075
0.07
0.045
0.125
0.15
0.085
0.13
0.125
0.115
0.065
0.105
0.165
0.155
0.12
0.13
0.1
0.11
0.135
0.095
0.04
0.105
0.205
0.2
0.16
0.18
0.155
0.105
0.115
0.18
0.175
0.17
0.175
0.155
0.19
0.18
0.23
0.16
0.13
0.145
0.21
0.155
0.245
0.245
0.225
0.205
0.245
0.255
0.215
0.215
0.25
0.24
0.21
0.215
0.275
0.285
0.26
0.285
0.285
0.27
0.26
0.325
0.37
0.265
0.305
0.29
0.335
0.32
0.285
0.325
0.32
0.35
0.305
0.3
0.265
0.285
0.32
0.34
0.345
0.3
0.275
0.34
0.325
0.34
0.31
0.28
0.31
0.27
0.24
0.215
0.315
0.325
0.245
0.205
0.23
0.19
0.21
0.2
0.22
0.165
0.15
0.165
0.15
0.12
0.13
0.09
0.06
0.07
0.135
0.115
0.08
0.085
0.145
0.13
0.135
0.095
0.14
0.085
0.085
0.08
0.0
0.01
0.025
0.13
0.14
0.095
0.09
0.075
0.085
0.155
0.13
0.07
0.03
0.04
0.105
0.085
0.09
0.065
0.065
0.075
0.085
0.01
0.06
0.1
0.085
0.065
0.03
0.04
0.12
0.115
0.105
0.135
0.105
0.08
0.06
0.05
0.11
-0.01
0.08
0.1
0.055
0.145
0.12
0.095
0.1
0.09
0.105
0.06
0.095
0.125
0.09
0.11
0.13
0.1
0.055
0.09
0.08
0.07
0.085
0.09
0.065
0.075
0.085
0.07
0.125
0.09
0.095
0.07
0.025
-0.07
-0.04
0.08
0.115
0.075
0.09
0.11
0.105
0.105
0.08
0.075
0.055
0.065
0.055
0.055
0.0
0.075
0.045
0.03
0.115
0.125
0.055
0.03
0.07
0.065
0.06
0.085
0.055
0.105
0.07
0.065
0.085
0.075
0.075
0.08
0.07
0.14
0.135
0.135
0.135
0.115
0.12
0.115
0.115
0.1
0.07
0.065
0.135
0.005
0.02
0.045
0.035
0.095
0.06
0.085
0.065
0.085
0.07
0.06
0.055
0.09
0.025
-0.035
-0.02
0.015
-0.015
-0.025
0.05
0.015
0.025
-0.005
0.02
0.03
0.015
-0.01
0.0
0.015
0.0
-0.025
-0.035
-0.07
0.025
0.1
0.03
0.035
0.045
0.015
0.03
0.05
0.04
0.095
0.095
0.095
0.095
0.19
0.27
0.345
0.45
0.45
0.46
0.57
0.49
0.45
0.405
0.415
0.425
0.365
0.305
0.215
0.065
-0.07
-0.25
-0.365
-0.365
-0.335
-0.26
-0.235
-0.16
-0.085
-0.05
-0.04
-0.07
-0.065
-0.095
-0.04
0.025
-0.05
0.085
0.055
0.07
0.08
0.06
0.025
0.03
0.025
0.055
0.05
0.085
0.085
-0.005
0.035
0.045
0.05
0.075
0.025
0.075
0.11
0.1
0.095
0.045
0.06
0.05
0.085
0.06
0.06
0.08
0.08
0.06
0.02
0.05
0.04
0.105
0.095
0.04
0.105
0.1
0.105
0.14
0.145
0.145
0.155
0.13
0.125
0.15
0.14
0.125
0.07
0.135
0.19
0.15
0.17
0.18
0.19
0.18
0.125
0.125
0.115
0.215
0.255
0.195
0.17
0.185
0.195
0.215
0.215
0.21
0.25
0.22
0.175
0.24
0.25
0.26
0.22
0.255
0.305
0.29
0.255
0.255
0.3
0.33
0.3
0.29
0.29
0.255
0.265
0.28
0.31
0.285
0.315
0.3
0.3
0.28
0.225
0.24
0.215
0.225
0.255
0.2
0.245
0.255
0.195
0.175
0.12
0.165
0.195
0.15
0.145
0.1
0.095
0.14
0.125
0.055
0.03
0.035
0.075
0.09
0.08
0.045
-0.03
0.045
0.1
0.055
0.035
0.055
0.08
0.05
0.01
0.03
0.04
0.04
0.03
-0.005
0.025
0.045
0.025
0.015
0.005
0.005
0.075
0.02
-0.07
-0.015
0.08
0.04
-0.01
0.01
-0.025
0.045
0.07
0.045
0.0
0.02
0.03
0.015
0.05
0.03
-0.04
-0.035
-0.02
-0.075
0.02
0.095
0.11
0.08
0.04
0.03
0.035
0.05
0.045
0.01
0.035
0.02
-0.03
-0.01
0.01
0.1
0.055
0.025
0.03
0.05
0.03
0.025
0.02
0.015
-0.02
0.065
0.065
0.05
0.04
0.045
0.045
0.025
0.025
0.05
0.04
0.045
0.04
-0.015
-0.005
-0.005
-0.075
0.0
0.05
0.075
0.07
0.0
0.04
0.065
0.03
-0.015
-0.03
0.055
0.035
0.02
0.005
-0.02
-0.045
-0.07
0.045
0.085
0.03
0.025
0.015
0.005
-0.03
-0.015
0.025
0.02
0.01
-0.025
-0.065
-0.035
-0.015
0.07
0.08
0.055
0.1
0.105
0.075
0.09
0.0
0.03
0.05
0.065
0.105
0.01
0.075
0.06
0.105
0.115
0.065
0.085
0.045
0.065
-0.025
-0.025
0.05
0.035
-0.08
-0.05
0.12
0.075
0.0
-0.025
0.005
0.01
-0.03
-0.02
-0.065
0.03
0.02
-0.02
-0.06
-0.055
-0.085
0.025
-0.015
0.005
-0.005
-0.055
-0.005
0.015
0.04
-0.005
-0.04
-0.08
-0.03
-0.01
-0.02
-0.025
-0.1
-0.065
0.0
0.025
0.015
0.065
0.07
0.09
0.045
0.185
0.3
0.325
0.405
0.45
0.465
0.48
0.435
0.465
0.395
0.37
0.325
0.215
0.16
0.095
-0.025
-0.165
-0.345
-0.36
-0.33
-0.255
-0.27
-0.22
-0.11
-0.1
-0.11
-0.09
-0.07
0.0
-0.005
-0.02
-0.04
-0.055
-0.05
-0.01
0.03
0.02
0.005
-0.04
-0.03
-0.005
-0.005
0.01
0.0
0.015
0.015
-0.01
0.01
-0.03
-0.045
-0.045
-0.025
0.03
0.01
0.02
0.005
0.01
-0.045
0.0
-0.045
0.02
0.055
0.04
0.01
0.065
0.075
0.025
0.01
0.055
0.06
0.06
0.03
-0.02
0.035
0.095
0.055
0.055
0.055
0.03
0.055
0.125
0.075
0.06
0.105
0.095
0.09
0.075
0.11
0.065
0.1
0.17
0.155
0.09
0.1
0.155
0.13
0.16
0.1
0.15
0.16
0.15
0.18
0.185
0.2
0.25
0.245
0.185
0.205
0.21
0.23
0.23
0.225
0.25
0.225
0.24
0.25
0.245
0.205
0.14
0.15
0.24
0.305
0.28
0.24
0.22
0.205
0.265
0.215
0.24
0.225
0.16
0.13
0.165
0.17
0.14
0.205
0.185
0.115
0.1
0.1
0.09
0.13
0.095
0.06
0.025
0.015
0.045
0.1
0.055
0.02
0.03
0.015
0.02
0.03
-0.04
-0.025
-0.005
-0.02
0.01
0.015
0.05
-0.025
-0.04
-0.045
-0.025
-0.045
-0.09
-0.005
-0.055
-0.07
-0.045
0.055
0.02
-0.01
-0.045
-0.05
-0.01
-0.065
-0.045
-0.045
-0.005
0.01
-0.005
-0.03
-0.01
-0.07
-0.055
-0.04
-0.045
-0.015
-0.03
-0.005
-0.02
-0.025
-0.065
-0.025
0.02
-0.035
-0.03
-0.02
-0.045
-0.01
-0.015
-0.04
-0.025
-0.055
-0.045
0.0
-0.045
-0.045
-0.06
-0.005
-0.065
-0.105
0.035
0.035
0.025
0.01
0.02
-0.025
-0.04
0.01
-0.045
-0.07
-0.03
-0.01
0.0
-0.035
-0.005
-0.03
-0.02
-0.02
-0.02
0.0
0.0
-0.005
-0.06
-0.05
-0.01
0.01
-0.01
-0.005
-0.02
-0.055
-0.05
-0.045
0.01
-0.045
-0.035
-0.04
-0.065
-0.05
-0.03
0.025
-0.01
-0.015
0.005
-0.03
-0.05
-0.04
-0.01
-0.035
-0.07
-0.075
-0.07
-0.05
0.025
0.0
-0.045
-0.025
-0.035
-0.01
-0.035
-0.05
-0.02
-0.01
-0.005
-0.055
-0.1
-0.045
-0.01
-0.02
0.005
-0.005
-0.02
-0.03
-0.05
-0.01
-0.01
-0.015
-0.03
-0.015
-0.03
0.0
0.0
-0.055
-0.025
0.07
0.08
0.035
0.07
-0.015
0.025
0.075
0.04
0.01
0.02
0.025
-0.005
0.0
-0.03
0.02
0.005
-0.085
-0.035
-0.02
-0.06
-0.045
-0.045
-0.1
-0.06
-0.055
-0.095
-0.14
-0.02
-0.075
-0.08
-0.055
-0.04
-0.11
-0.015
-0.015
-0.05
-0.035
-0.1
-0.085
-0.03
-0.11
-0.07
-0.07
-0.105
-0.08
-0.065
-0.04
-0.045
-0.055
-0.05
-0.045
-0.07
-0.025
-0.04
0.03
0.045
0.09
0.175
0.25
0.27
0.37
0.33
0.355
0.4
0.395
0.34
0.285
0.35
0.225
0.22
0.12
0.0
-0.07
-0.2
-0.36
-0.355
-0.32
-0.275
-0.2
-0.25
-0.15
-0.145
-0.155
-0.17
-0.04
-0.01
-0.05
-0.045
-0.02
-0.09
-0.04
0.01
-0.015
-0.09
0.0
-0.03
-0.025
-0.025
-0.03
-0.05
-0.045
-0.08
-0.035
-0.035
-0.04
0.02
0.01
-0.015
-0.04
-0.035
-0.04
-0.05
-0.01
-0.025
-0.055
0.02
0.005
-0.01
0.015
0.035
-0.005
-0.005
0.0
0.03
0.03
0.015
-0.025
0.005
0.045
0.02
0.02
0.07
0.07
0.065
0.03
0.045
0.04
0.065
0.035
0.06
0.045
0.04
0.03
0.115
0.085
0.085
0.035
0.085
0.145
0.15
0.14
0.14
0.15
0.14
0.135
0.14
0.125
0.145
0.175
0.165
0.16
0.175
0.215
0.205
0.2
0.2
0.2
0.24
0.215
0.235
0.19
0.16
0.18
0.195
0.28
0.28
0.23
0.23
0.255
0.23
0.23
0.245
0.215
0.27
0.245
0.23
0.22
0.21
0.165
0.13
0.105
0.16
0.185
0.17
0.155
0.17
0.145
0.1
0.1
0.125
0.075
0.07
0.05
0.01
0.02
0.055
0.03
0.04
0.045
0.035
0.055
-0.025
-0.06
0.0
0.0
-0.025
-0.05
-0.01
-0.06
0.03
-0.005
0.0
0.02
0.045
-0.005
-0.06
-0.03
-0.005
-0.06
-0.03
-0.055
-0.01
0.005
-0.04
-0.005
-0.005
0.0
-0.025
-0.02
-0.07
-0.09
-0.07
-0.03
-0.035
-0.025
-0.01
0.005
-0.015
-0.045
-0.05
-0.07
-0.035
0.035
-0.03
0.03
0.015
0.005
-0.015
-0.02
-0.025
-0.02
-0.015
-0.02
-0.015
0.0
-0.045
-0.085
-0.05
0.04
-0.005
-0.015
-0.025
-0.05
-0.02
-0.02
-0.005
-0.005
-0.015
-0.015
0.0
-0.005
-0.015
-0.035
-0.025
-0.045
-0.03
0.035
-0.005
0.03
-0.03
-0.055
-0.045
0.015
0.0
0.005
-0.01
0.005
0.005
0.015
-0.05
-0.08
0.05
0.025
-0.015
0.03
0.01
-0.01
-0.05
-0.075
-0.06
-0.025
0.0
-0.025
-0.01
0.0
-0.045
-0.015
0.0
0.01
-0.06
-0.07
-0.005
-0.01
-0.085
-0.03
0.005
0.0
0.01
-0.025
-0.045
-0.01
-0.045
-0.025
-0.015
-0.01
-0.01
-0.015
-0.025
-0.065
-0.015
-0.025
-0.095
-0.015
0.025
-0.025
0.005
-0.045
-0.15
-0.04
0.06
0.005
-0.05
-0.05
-0.045
-0.02
-0.01
-0.005
-0.025
-0.01
-0.045
-0.105
-0.035
0.025
0.005
0.0
0.025
0.025
-0.005
0.01
0.0
0.02
0.015
0.015
0.02
-0.005
0.0
0.025
0.0
0.055
0.01
0.03
0.08
-0.005
-0.05
0.005
-0.04
-0.05
-0.025
-0.025
-0.1
-0.025
-0.005
-0.015
-0.065
-0.045
-0.03
-0.02
-0.06
-0.12
-0.045
-0.065
-0.025
-0.03
-0.065
-0.02
-0.04
-0.075
-0.08
-0.04
-0.07
-0.065
-0.045
-0.125
-0.175
-0.025
-0.06
-0.1
-0.05
-0.055
-0.025
-0.045
-0.045
-0.015
-0.01
0.01
0.055
0.075
0.11
0.115
0.155
0.27
0.285
0.325
0.41
0.38
0.41
0.395
0.34
0.31
0.295
0.235
0.105
0.005
-0.135
-0.245
-0.33
-0.35
-0.355
-0.305
-0.26
-0.195
-0.13
-0.135
-0.095
-0.125
-0.075
-0.15
-0.015
-0.025
-0.055
-0.035
-0.025
-0.095
-0.05
-0.045
-0.015
0.015
-0.05
-0.075
-0.07
-0.07
-0.04
-0.015
-0.015
-0.015
-0.015
0.025
0.01
-0.065
-0.065
-0.075
0.01
-0.06
0.01
0.015
-0.015
-0.01
-0.035
0.005
0.015
-0.005
-0.01
0.02
0.015
-0.01
0.0
0.01
0.0
-0.015
0.025
0.025
0.045
0.035
0.05
0.05
0.075
0.045
0.015
0.07
0.075
0.005
0.015
-0.01
0.025
0.075
0.085
0.095
0.115
0.14
0.135
0.115
0.135
0.125
0.06
0.125
0.12
0.15
0.135
0.185
0.165
0.135
0.14
0.165
0.205
0.17
0.175
0.21
0.2
0.21
0.235
0.27
0.26
0.23
0.23
0.235
0.24
0.225
0.21
0.2
0.165
0.205
0.265
0.235
0.235
0.24
0.24
0.21
0.2
0.225
0.195
0.225
0.22
0.135
0.13
0.17
0.085
0.145
0.15
0.135
0.14
0.105
0.04
0.08
0.09
0.1
0.055
-0.005
0.01
0.045
0.04
0.03
0.01
-0.005
-0.005
0.03
0.015
-0.005
0.015
-0.05
0.005
0.015
-0.03
-0.045
-0.025
-0.01
-0.015
0.005
-0.02
-0.025
-0.02
-0.005
-0.035
-0.07
-0.04
-0.055
-0.025
-0.045
-0.035
-0.04
0.03
0.01
-0.01
-0.025
-0.065
0.0
0.01
-0.04
-0.075
-0.01
-0.055
-0.025
-0.015
-0.035
-0.015
-0.025
0.01
0.04
0.04
0.0
-0.075
-0.025
-0.045
0.0
0.005
-0.03
-0.015
0.0
0.0
-0.015
-0.005
0.02
-0.02
-0.025
0.02
0.01
-0.055
-0.125
-0.05
0.045
0.035
0.005
-0.02
0.02
0.03
0.005
0.055
-0.01
0.0
0.015
-0.04
-0.005
-0.045
-0.035
0.025
0.0
-0.07
-0.025
0.015
-0.02
0.035
0.02
-0.02
0.015
0.01
-0.02
-0.03
-0.015
-0.06
-0.005
0.015
0.005
-0.01
-0.02
-0.025
-0.01
-0.04
-0.065
-0.02
-0.05
-0.035
0.04
0.005
-0.06
-0.08
-0.07
-0.035
0.0
0.025
-0.035
0.0
0.005
-0.025
-0.08
-0.025
0.02
-0.01
-0.005
-0.015
-0.025
-0.05
-0.045
-0.04
-0.02
0.03
0.005
-0.025
-0.02
-0.01
-0.1
-0.1
-0.07
0.035
0.03
0.04
0.005
-0.02
-0.01
0.0
-0.05
0.0
-0.05
-0.025
-0.055
-0.01
-0.03
-0.03
-0.02
0.02
0.0
-0.03
-0.075
-0.075
0.03
-0.005
-0.04
-0.05
0.03
0.025
0.005
0.005
0.015
0.07
0.07
0.015
0.035
0.065
0.06
0.045
0.06
0.055
0.015
0.025
0.01
-0.01
-0.02
0.005
-0.035
-0.05
-0.005
-0.015
-0.03
-0.065
-0.1
-0.145
0.01
0.025
-0.03
-0.03
-0.005
-0.11
-0.12
-0.03
-0.045
-0.065
-0.045
-0.125
-0.08
-0.02
-0.025
-0.07
-0.07
-0.095
-0.045
-0.025
-0.045
-0.06
-0.04
-0.055
-0.045
-0.035
-0.04
-0.075
-0.035
0.04
0.055
0.045
0.02
0.105
0.15
0.215
0.24
0.335
0.375
0.455
0.445
0.44
0.39
0.37
0.345
0.295
0.235
0.095
0.025
-0.1
-0.245
-0.415
-0.42
-0.32
-0.27
-0.22
-0.15
-0.2
-0.08
-0.07
-0.065
-0.075
-0.08
-0.07
-0.04
0.0
-0.045
-0.065
-0.03
-0.005
-0.05
0.01
-0.03
-0.055
-0.05
-0.05
-0.015
0.03
0.05
0.0
-0.04
-0.065
-0.05
-0.015
0.015
0.005
-0.03
0.015
0.035
0.025
0.01
0.015
0.035
0.03
0.09
0.065
-0.015
-0.025
0.03
0.065
0.095
0.055
0.075
0.09
0.085
0.1
0.095
0.075
0.055
0.125
0.125
0.065
0.095
0.1
0.1
0.115
0.175
0.16
0.155
0.145
0.07
0.15
0.18
0.17
0.19
0.21
0.215
0.2
0.19
0.175
0.235
0.225
0.165
0.195
0.16
0.14
0.265
0.265
0.295
0.295
0.25
0.23
0.255
0.235
0.205
0.22
0.26
0.26
0.24
0.19
0.2
0.285
0.255
0.185
0.255
0.255
0.21
0.21
0.22
0.2
0.2
0.175
0.145
0.155
0.16
0.155
0.13
0.07
0.08
0.1
0.085
0.025
-0.03
0.08
0.035
0.01
-0.03
0.105
0.095
0.06
0.02
0.005
0.005
-0.015
0.005
0.015
-0.01
0.015
-0.005
-0.04
0.025
0.045
-0.04
-0.015
0.045
0.03
0.015
-0.035
-0.02
-0.03
-0.035
0.005
-0.045
0.0
-0.015
0.05
0.02
0.02
-0.02
0.03
-0.085
0.005
0.06
0.035
0.0
0.03
0.015
0.005
-0.015
-0.01
0.01
0.04
-0.01
-0.02
0.025
-0.005
-0.015
0.03
0.035
-0.01
0.005
0.025
0.035
-0.01
-0.01
0.015
0.01
-0.03
-0.01
0.015
-0.07
0.025
0.075
0.03
0.075
0.045
0.015
0.045
-0.04
-0.07
0.04
0.045
0.015
-0.01
0.055
0.015
0.01
0.0
0.015
-0.03
-0.015
0.025
0.0
0.02
0.0
0.015
-0.005
0.03
0.015
-0.035
-0.01
0.05
-0.005
0.0
-0.04
0.0
-0.06
-0.02
-0.025
-0.005
0.0
0.01
0.0
-0.065
-0.05
0.055
0.03
-0.015
0.005
0.025
0.055
0.02
0.01
-0.015
-0.01
-0.045
-0.075
0.01
0.0
-0.06
-0.06
-0.035
0.05
0.0
0.025
0.015
0.0
0.0
-0.01
-0.065
0.01
0.015
-0.02
-0.035
-0.03
-0.015
-0.04
-0.045
0.025
-0.05
-0.08
-0.015
0.035
0.01
-0.015
0.025
0.01
-0.03
-0.025
-0.025
0.02
0.035
-0.035
-0.04
-0.005
-0.03
-0.06
-0.005
0.01
0.03
0.055
0.08
0.05
0.02
-0.005
0.045
0.01
0.085
0.065
0.06
0.035
0.005
0.0
0.09
0.06
0.02
-0.015
0.03
0.035
0.0
0.045
0.07
0.02
0.0
0.0
0.01
-0.005
-0.005
-0.09
0.0
0.015
-0.03
-0.055
0.005
0.01
-0.02
-0.015
0.0
-0.055
-0.08
-0.055
-0.045
0.005
0.0
0.0
0.015
-0.07
-0.08
-0.085
-0.035
0.01
-0.005
-0.07
-0.01
0.02
0.005
-0.03
-0.005
0.04
0.07
0.1
0.08
0.09
0.215
0.295
0.335
0.405
0.415
0.435
0.485
0.46
0.415
0.395
0.355
0.285
0.23
0.105
-0.01
-0.06
-0.235
-0.4
-0.395
-0.405
-0.21
-0.155
-0.155
-0.185
-0.135
-0.07
0.015
0.025
0.01
0.005
-0.055
-0.005
0.015
0.02
-0.005
-0.005
0.01
-0.005
0.02
0.01
0.01
-0.055
0.01
0.025
0.015
0.04
0.01
0.015
0.015
-0.045
0.02
0.075
0.04
0.06
-0.05
0.035
0.02
-0.04
0.06
0.05
0.055
0.05
0.085
0.085
0.08
0.07
0.03
0.08
0.075
0.045
0.035
0.105
0.08
0.065
0.065
0.09
0.02
0.115
0.155
0.125
0.115
0.14
0.13
0.12
0.105
0.12
0.105
0.135
0.12
0.105
0.15
0.09
0.12
0.18
0.17
0.195
0.195
0.18
0.205
0.24
0.2
0.21
0.22
0.235
0.24
0.23
0.235
0.22
0.22
0.245
0.295
0.28
0.24
0.25
0.27
0.315
0.26
0.22
0.26
0.305
0.285
0.285
0.3
0.285
0.26
0.29
0.27
0.235
0.275
0.305
0.305
0.225
0.25
0.28
0.25
0.26
0.28
0.265
0.19
0.19
0.23
0.145
0.125
0.12
0.135
0.185
0.14
0.13
0.08
0.05
0.07
0.12
0.105
0.095
0.07
0.035
0.1
0.1
0.07
0.03
-0.02
0.01
0.09
0.08
0.135
0.08
0.01
0.045
0.04
0.03
0.05
0.0
0.065
0.015
0.04
0.005
-0.015
0.015
0.065
0.115
0.07
0.045
0.05
0.045
0.055
0.065
0.08
0.0
0.0
0.075
-0.055
-0.05
0.115
0.13
0.115
0.075
0.105
0.08
0.08
0.005
0.0
0.1
0.09
0.08
0.11
0.08
0.06
0.015
0.05
0.06
0.0
0.05
0.0
0.085
0.08
0.045
0.07
0.075
0.055
0.06
0.095
0.04
0.01
-0.005
0.07
0.09
0.11
0.095
0.095
0.055
0.04
0.045
0.06
0.03
0.045
0.04
0.05
0.095
0.065
0.07
0.05
0.035
0.07
0.035
0.005
0.04
0.015
0.03
-0.04
0.07
0.04
-0.09
0.055
0.16
0.065
0.005
0.05
0.05
0.065
0.01
0.04
0.06
0.055
0.04
-0.015
0.015
0.055
0.055
0.04
0.04
0.02
-0.035
-0.045
0.035
0.09
0.055
0.075
0.045
0.005
0.02
-0.045
0.04
0.08
-0.02
0.005
0.08
0.105
0.075
0.03
-0.045
0.02
0.045
0.04
-0.005
0.04
0.07
0.065
0.085
0.035
0.065
0.12
0.12
0.065
0.1
0.045
0.105
0.11
0.12
0.085
0.105
0.09
0.06
0.07
0.08
0.06
0.065
0.075
-0.005
0.035
0.005
0.045
0.08
0.03
-0.005
-0.005
0.04
0.04
0.02
0.01
0.02
-0.03
-0.025
-0.03
-0.02
-0.015
0.01
0.015
0.005
0.005
-0.005
-0.04
-0.04
-0.085
-0.1
0.03
0.03
-0.02
-0.005
0.015
0.045
0.04
-0.005
-0.055
-0.04
0.04
-0.02
0.04
0.165
0.21
0.205
0.2
0.335
0.39
0.42
0.43
0.52
0.525
0.465
0.44
0.425
0.41
0.34
0.28
0.1
-0.07
-0.195
-0.325
-0.37
-0.36
-0.335
-0.26
-0.22
-0.21
-0.1
-0.09
-0.07
-0.045
-0.02
-0.055
-0.07
0.035
0.02
-0.005
0.025
0.01
-0.005
-0.02
0.05
0.005
0.05
0.04
0.065
0.05
0.005
-0.01
0.005
0.025
0.025
0.035
0.0
-0.015
0.03
0.02
0.065
0.095
0.04
-0.005
0.045
-0.02
0.03
0.08
0.105
0.07
0.055
0.075
0.03
0.025
0.0
0.095
0.085
0.095
0.09
0.095
0.11
0.09
0.11
0.105
0.05
0.07
0.13
0.09
0.14
0.105
0.075
0.095
0.06
0.1
0.17
0.135
0.185
0.205
0.185
0.165
0.185
0.235
0.205
0.125
0.165
0.24
0.21
0.195
0.185
0.205
0.26
0.245
0.22
0.215
0.235
0.3
0.23
0.265
0.27
0.205
0.225
0.165
0.255
0.31
0.305
0.265
0.235
0.315
0.315
0.3
0.25
0.25
0.26
0.295
0.25
0.275
0.265
0.27
0.265
0.26
0.23
0.23
0.215
0.19
0.19
0.17
0.185
0.21
0.15
0.145
0.12
0.08
0.01
0.085
0.095
0.055
0.075
0.09
0.045
0.045
0.06
0.085
0.055
0.045
0.03
0.035
0.065
0.08
0.02
0.03
0.015
0.035
0.03
0.005
0.015
0.015
0.015
-0.015
-0.01
-0.015
-0.01
0.04
0.005
0.02
0.045
0.03
0.005
0.055
0.02
0.01
-0.01
0.0
0.02
-0.005
0.015
0.105
0.045
0.035
0.04
0.035
0.02
0.015
0.05
0.0
0.015
0.045
0.055
0.05
0.05
0.03
0.025
0.02
0.02
-0.005
0.035
0.0
-0.025
0.055
0.065
0.055
0.03
0.03
-0.005
-0.045
0.025
0.075
0.06
0.01
0.015
-0.015
0.085
0.105
0.045
0.035
0.035
0.07
0.035
-0.02
-0.015
-0.01
0.035
0.035
0.0
0.005
0.01
-0.01
0.065
0.06
0.03
-0.015
-0.025
-0.015
-0.01
0.03
0.02
0.025
-0.04
-0.045
0.055
0.02
0.03
0.055
0.055
0.01
0.015
0.015
0.005
0.0
0.02
-0.055
-0.05
0.055
-0.025
-0.04
0.04
-0.015
-0.045
-0.015
0.105
0.045
-0.02
-0.01
0.03
-0.005
0.035
0.04
0.01
-0.01
-0.01
-0.01
0.005
0.02
-0.03
-0.04
0.045
0.03
0.015
0.05
0.05
0.07
0.07
0.05
0.05
0.03
-0.01
0.075
0.08
0.075
0.045
0.06
0.085
0.13
0.095
0.09
0.075
0.075
0.025
0.035
0.0
0.02
0.04
-0.015
-0.04
-0.015
0.005
0.0
-0.005
-0.03
0.02
0.015
-0.015
-0.06
-0.005
-0.015
-0.01
-0.02
-0.01
-0.03
-0.025
-0.03
-0.02
-0.04
-0.08
-0.07
0.0
-0.04
-0.025
0.0
-0.02
-0.045
-0.065
-0.03
-0.005
0.005
0.015
0.08
0.045
0.0
-0.03
0.025
0.11
0.24
0.315
0.4
0.465
0.44
0.455
0.475
0.395
0.415
0.325
0.295
0.335
0.275
0.075
-0.035
-0.16
-0.3
-0.35
-0.42
-0.31
-0.265
-0.235
-0.19
-0.185
-0.08
-0.035
-0.055
-0.04
-0.045
-0.15
-0.075
0.03
-0.015
0.01
0.015
-0.05
-0.005
0.025
0.0
-0.025
-0.01
0.045
0.005
0.0
0.035
0.015
-0.025
-0.025
0.02
0.01
0.015
-0.04
-0.005
0.075
0.04
0.03
0.035
0.06
-0.01
-0.055
0.005
0.085
0.04
0.01
0.06
0.06
0.075
0.04
0.025
0.035
0.055
0.065
0.04
0.06
0.05
0.025
0.075
0.065
0.07
0.03
0.04
0.1
0.11
0.1
0.125
0.12
0.12
0.12
0.155
0.135
0.115
0.145
0.09
0.1
0.155
0.14
0.115
0.2
0.18
0.215
0.18
0.07
0.19
0.265
0.225
0.18
0.18
0.21
0.22
0.22
0.25
0.225
0.25
0.23
0.205
0.235
0.285
0.27
0.265
0.265
0.25
0.23
0.245
0.255
0.29
0.26
0.225
0.23
0.24
0.26
0.23
0.24
0.21
0.145
0.115
0.175
0.22
0.17
0.17
0.125
0.065
0.15
0.155
0.12
0.12
0.115
0.065
0.07
0.055
0.05
0.065
0.05
0.05
0.06
0.005
-0.02
0.04
0.01
0.025
0.01
-0.05
-0.035
0.0
0.03
0.02
0.025
-0.005
0.02
0.025
-0.005
-0.1
0.0
0.005
-0.025
-0.015
-0.03
0.015
-0.01
-0.045
0.0
-0.015
-0.005
-0.035
-0.025
-0.035
0.03
0.015
0.005
0.03
0.065
-0.025
0.015
-0.005
0.0
-0.02
-0.02
-0.03
-0.02
0.04
0.025
0.01
0.025
-0.02
-0.035
-0.02
-0.01
-0.01
-0.005
-0.01
0.015
0.01
0.04
0.02
0.03
-0.005
0.005
0.03
0.005
-0.02
0.005
0.0
0.005
0.025
0.02
-0.015
0.01
-0.005
-0.03
-0.1
-0.04
-0.015
0.03
0.06
0.02
-0.01
-0.015
-0.045
-0.055
-0.05
0.015
0.015
-0.005
-0.005
0.0
0.025
-0.005
-0.085
-0.035
0.04
-0.02
-0.015
-0.015
0.005
-0.045
-0.045
-0.035
-0.035
0.01
-0.01
-0.06
0.02
0.0
-0.04
-0.07
-0.045
0.01
-0.025
0.005
0.0
-0.005
0.015
0.02
-0.005
-0.115
-0.025
-0.06
-0.02
0.025
0.025
0.06
0.055
0.04
0.035
0.02
0.045
0.07
0.04
0.055
0.075
0.055
0.06
0.005
-0.04
0.045
0.1
0.04
0.02
0.025
0.015
-0.01
-0.03
0.02
-0.04
-0.065
-0.035
-0.01
-0.05
-0.07
-0.07
-0.08
-0.015
0.0
-0.015
-0.03
-0.035
-0.07
-0.095
-0.035
-0.05
-0.08
-0.065
-0.13
-0.02
-0.02
-0.045
-0.06
-0.06
-0.055
-0.065
-0.07
-0.12
-0.085
-0.025
-0.05
-0.035
0.01
-0.055
-0.065
0.0
0.06
0.08
0.125
0.195
0.255
0.355
0.38
0.38
0.47
0.435
0.415
0.345
0.35
0.3
0.26
0.17
0.02
-0.1
-0.26
-0.365
-0.445
-0.46
-0.395
-0.31
-0.275
-0.165
-0.165
-0.115
-0.09
-0.08
-0.07
-0.09
-0.06
-0.035
-0.03
-0.085
-0.08
-0.035
-0.055
-0.035
-0.01
-0.05
-0.06
-0.035
0.01
-0.045
-0.075
-0.08
-0.06
0.025
0.01
-0.04
0.02
-0.025
-0.07
-0.015
0.03
-0.005
-0.06
-0.015
-0.01
-0.01
-0.045
-0.005
0.02
-0.025
0.02
0.025
0.05
-0.005
-0.005
0.035
0.005
0.03
0.09
0.07
0.04
-0.04
-0.005
0.075
0.01
0.03
0.08
0.085
0.075
0.08
0.085
0.085
0.045
0.055
0.095
0.09
0.125
0.11
0.04
0.1
0.13
0.105
0.145
0.135
0.125
0.095
0.125
0.11
0.105
0.135
0.195
0.18
0.19
0.18
0.17
0.22
0.24
0.215
0.22
0.2
0.19
0.205
0.18
0.175
0.245
0.205
0.19
0.24
0.22
0.18
0.27
0.225
0.24
0.225
0.22
0.205
0.11
0.13
0.3
0.235
0.19
0.14
0.135
0.11
0.1
0.115
0.145
0.1
0.09
0.07
0.09
0.045
0.015
0.045
0.03
0.075
0.085
0.01
0.01
0.02
-0.005
-0.005
-0.065
-0.04
-0.035
-0.03
-0.035
-0.05
-0.01
-0.015
-0.04
-0.075
-0.07
-0.09
-0.01
-0.005
-0.075
-0.025
-0.06
-0.025
-0.01
0.02
0.015
-0.07
-0.05
0.015
0.03
-0.04
-0.09
-0.03
-0.03
-0.03
-0.07
-0.08
0.005
0.01
-0.05
-0.085
-0.02
-0.02
-0.02
-0.06
-0.065
-0.01
-0.085
-0.04
0.02
0.0
-0.02
-0.02
-0.02
-0.045
-0.04
-0.08
-0.08
-0.05
0.015
0.03
0.005
-0.035
-0.04
-0.035
-0.015
-0.005
0.005
-0.03
-0.08
-0.005
-0.03
-0.07
-0.005
-0.08
-0.09
0.02
-0.035
-0.03
-0.025
0.005
-0.03
-0.035
0.005
0.01
-0.035
-0.095
-0.1
-0.06
-0.1
0.01
0.025
0.01
-0.08
-0.115
-0.04
-0.035
-0.025
-0.01
-0.035
-0.025
-0.085
-0.07
-0.035
-0.02
-0.045
-0.08
-0.08
-0.05
-0.04
-0.01
-0.07
-0.035
-0.065
-0.035
0.005
0.015
0.0
-0.015
-0.02
-0.005
0.015
0.04
-0.05
0.03
0.115
0.07
0.015
0.035
0.06
0.035
0.025
0.055
0.02
-0.015
-0.055
-0.05
-0.015
-0.035
-0.08
-0.06
-0.005
0.005
-0.05
-0.1
-0.065
-0.065
-0.05
-0.065
-0.1
-0.065
-0.02
-0.055
-0.095
-0.045
-0.055
-0.065
-0.06
-0.015
-0.045
-0.06
-0.09
-0.05
-0.06
-0.085
-0.085
-0.035
-0.055
-0.08
-0.11
-0.065
-0.1
-0.04
0.005
0.005
0.02
-0.02
0.075
0.15
0.215
0.33
0.345
0.345
0.395
0.465
0.48
0.4
0.355
0.33
0.305
0.21
0.06
-0.035
-0.14
-0.31
-0.435
-0.455
-0.4
-0.38
-0.32
-0.26
-0.24
-0.18
-0.14
-0.09
-0.14
-0.12
-0.065
-0.02
-0.095
-0.06
-0.045
-0.04
-0.06
-0.095
-0.115
-0.07
-0.01
-0.025
-0.05
-0.095
-0.06
0.01
-0.01
-0.04
-0.06
-0.045
-0.045
-0.02
-0.05
-0.02
-0.03
0.005
-0.025
-0.03
-0.015
0.0
-0.02
-0.02
-0.04
-0.005
-0.04
-0.03
0.005
0.02
0.045
0.015
-0.015
-0.065
-0.06
0.035
0.035
-0.02
0.045
0.075
0.07
0.065
0.045
0.05
0.065
0.015
0.015
0.03
0.04
0.07
0.04
0.085
0.14
0.11
0.1
0.095
0.13
0.08
0.15
0.125
0.045
0.135
0.07
0.19
0.185
0.18
0.12
0.165
0.21
0.16
0.15
0.2
0.205
0.215
0.145
0.13
0.21
0.17
0.175
0.25
0.295
0.225
0.245
0.195
0.17
0.235
0.23
0.19
0.175
0.22
0.22
0.215
0.15
0.185
0.19
0.16
0.175
0.205
0.145
0.095
0.07
0.135
0.18
0.14
0.04
0.08
0.075
0.035
0.0
0.035
0.08
0.055
0.025
0.03
0.01
-0.01
-0.015
-0.065
0.0
-0.02
0.01
0.01
-0.02
-0.03
-0.015
0.04
-0.025
-0.065
-0.045
-0.055
-0.035
-0.025
0.0
-0.075
-0.115
-0.015
-0.07
-0.02
0.02
-0.01
-0.015
-0.005
-0.05
-0.035
-0.04
-0.03
-0.065
-0.055
-0.07
-0.01
-0.01
-0.005
-0.065
-0.1
-0.01
0.02
-0.035
-0.035
-0.005
0.01
0.0
-0.01
-0.005
-0.03
-0.145
-0.1
0.0
-0.005
-0.005
0.01
-0.02
-0.045
-0.03
-0.005
0.02
0.005
0.045
-0.04
-0.04
-0.105
-0.05
-0.04
-0.015
-0.03
-0.04
-0.035
-0.05
-0.01
-0.045
-0.045
0.005
-0.025
-0.115
-0.06
-0.005
-0.03
-0.05
-0.03
0.025
0.005
-0.015
-0.005
-0.01
-0.015
-0.04
-0.025
-0.02
-0.05
-0.08
-0.015
-0.035
-0.015
-0.04
-0.055
-0.015
0.03
0.025
0.02
0.025
-0.01
0.01
0.035
0.055
0.035
0.01
-0.055
0.005
-0.06
-0.03
0.035
0.015
-0.01
0.0
-0.04
-0.025
-0.03
-0.025
-0.085
-0.12
-0.04
-0.07
-0.07
-0.085
-0.03
-0.03
-0.07
-0.06
-0.065
-0.08
-0.045
-0.035
-0.055
-0.03
-0.05
-0.09
-0.09
-0.07
-0.025
-0.055
-0.05
-0.06
-0.085
-0.075
-0.06
-0.055
-0.07
-0.06
-0.07
0.035
0.01
-0.025
0.055
0.24
0.225
0.335
0.405
0.41
0.415
0.445
0.425
0.435
0.375
0.315
0.335
0.25
0.02
0.0
-0.16
-0.315
-0.43
-0.525
-0.49
-0.41
-0.34
-0.24
-0.285
-0.165
-0.065
-0.055
-0.055
-0.08
-0.09
-0.075
-0.105
-0.03
-0.045
-0.055
-0.04
-0.04
-0.04
-0.055
-0.06
-0.045
-0.07
-0.065
-0.065
-0.015
-0.05
-0.04
-0.04
-0.035
-0.01
-0.025
-0.055
-0.145
-0.11
-0.06
-0.005
-0.015
-0.005
0.035
0.005
0.045
-0.02
-0.035
-0.03
-0.035
0.015
0.0
-0.02
0.065
0.035
0.015
0.01
0.025
0.04
0.02
0.055
0.01
-0.01
0.035
0.075
0.06
0.025
0.02
-0.015
0.06
0.095
0.005
-0.01
0.04
0.02
0.11
0.145
0.16
0.165
0.13
0.085
0.1
0.13
0.115
0.16
0.15
0.14
0.14
0.16
0.18
0.205
0.2
0.18
0.2
0.19
0.195
0.21
0.2
0.2
0.2
0.195
0.265
0.22
0.17
0.14
0.12
0.17
0.215
0.185
0.225
0.33
0.255
0.19
0.175
0.195
0.19
0.165
0.16
0.175
0.16
0.14
0.085
0.095
0.1
0.095
0.065
0.075
0.105
0.095
0.04
0.01
0.015
0.04
0.035
0.005
-0.08
-0.015
-0.05
-0.02
0.05
0.04
0.0
-0.055
-0.05
-0.01
-0.04
-0.09
0.035
0.005
-0.055
-0.055
-0.025
0.005
-0.03
-0.065
-0.04
-0.045
-0.085
-0.06
-0.005
0.035
-0.01
-0.025
0.0
0.0
-0.055
-0.12
-0.095
-0.015
-0.06
0.0
0.02
-0.08
-0.015
0.025
0.03
-0.025
-0.02
-0.04
-0.02
-0.055
-0.04
0.025
0.0
-0.015
-0.03
-0.035
-0.045
-0.02
-0.01
-0.02
-0.02
0.0
-0.015
-0.055
-0.075
-0.03
0.005
-0.02
-0.005
-0.025
-0.1
-0.025
0.04
-0.015
0.0
-0.02
-0.015
-0.04
-0.03
-0.08
-0.075
-0.075
-0.015
-0.025
-0.01
0.02
0.05
0.02
-0.03
-0.04
-0.04
0.0
-0.03
-0.03
-0.04
-0.05
-0.065
0.01
-0.04
-0.125
-0.065
0.025
0.01
-0.04
0.005
-0.005
-0.04
0.035
0.03
-0.03
0.025
0.03
-0.02
0.04
0.075
0.065
0.05
0.035
0.035
0.01
0.02
-0.01
-0.065
-0.03
-0.01
-0.05
-0.065
-0.03
-0.005
-0.025
-0.05
-0.035
-0.065
-0.075
-0.07
-0.07
-0.035
-0.025
-0.085
-0.065
-0.03
-0.07
-0.005
0.0
-0.065
-0.075
-0.08
-0.03
-0.02
-0.03
0.025
-0.035
-0.04
-0.07
-0.045
-0.075
-0.04
-0.04
-0.05
-0.03
0.025
0.09
0.08
0.14
0.205
0.245
0.305
0.385
0.4
0.4
0.49
0.495
0.465
0.415
0.355
0.295
0.15
0.045
-0.045
-0.18
-0.31
-0.435
-0.48
-0.4
-0.35
-0.255
-0.275
-0.26
-0.06
-0.04
-0.05
-0.08
-0.04
-0.025
-0.05
-0.05
-0.065
-0.075
-0.025
0.015
-0.05
-0.07
0.015
-0.03
-0.015
0.005
-0.035
-0.025
-0.005
-0.035
-0.08
0.0
0.01
-0.02
-0.035
-0.045
0.005
-0.015
-0.005
0.055
0.035
0.01
-0.025
0.015
0.035
-0.01
0.02
0.05
0.025
-0.01
-0.005
-0.005
0.04
0.0
-0.04
0.015
0.13
0.075
0.02
0.065
0.06
0.025
0.065
0.07
0.08
0.04
0.06
0.105
0.13
0.12
0.1
0.09
0.095
0.105
0.09
0.085
0.1
0.135
0.105
0.085
0.17
0.18
0.12
0.13
0.18
0.255
0.215
0.14
0.18
0.19
0.21
0.24
0.22
0.19
0.215
0.175
0.205
0.24
0.235
0.22
0.22
0.17
0.235
0.225
0.265
0.23
0.23
0.24
0.255
0.24
0.23
0.225
0.215
0.155
0.2
0.255
0.195
0.13
0.095
0.085
0.245
0.205
0.17
0.155
0.03
0.1
0.14
0.125
0.115
0.08
0.045
0.03
0.04
0.055
0.04
0.035
0.035
0.045
0.015
-0.025
0.05
0.005
-0.005
-0.02
0.04
0.095
0.01
0.0
0.025
0.005
-0.065
-0.005
0.005
-0.005
0.06
0.055
-0.03
-0.03
0.06
0.02
0.025
0.04
0.005
0.0
0.02
0.0
-0.06
0.04
0.025
0.025
0.05
0.04
0.01
0.07
0.065
0.055
0.0
0.005
0.03
0.005
-0.035
-0.02
0.075
0.085
0.005
0.105
0.09
0.06
0.06
0.045
0.03
-0.01
0.035
0.045
0.025
0.04
-0.01
0.03
0.09
0.06
0.01
0.01
0.02
-0.03
-0.025
0.065
0.11
0.11
0.025
-0.015
-0.075
0.01
0.05
0.05
0.05
0.035
0.015
0.02
0.075
0.015
-0.035
0.06
0.035
0.075
0.035
0.04
0.035
0.01
0.1
0.09
0.005
0.04
0.0
0.065
0.055
0.0
0.07
0.045
0.09
0.1
0.06
0.11
0.105
0.12
0.12
0.095
0.065
0.08
0.085
0.045
0.02
0.0
0.0
0.045
0.005
-0.015
0.0
0.085
0.035
0.025
0.025
0.01
0.05
0.0
0.015
0.02
0.02
-0.025
-0.05
-0.02
0.045
0.1
0.055
0.0
-0.025
0.07
0.0
0.02
0.055
0.015
-0.025
-0.015
0.075
0.05
0.005
0.04
0.085
0.13
0.15
0.095
0.1
0.225
0.36
0.425
0.49
0.55
0.625
0.585
0.585
0.565
0.515
0.47
0.425
0.415
0.205
0.025
-0.1
-0.26
-0.315
-0.35
-0.325
-0.295
-0.26
-0.17
-0.185
-0.14
-0.06
0.015
0.055
0.07
0.05
-0.02
0.055
0.015
-0.025
0.11
0.125
0.02
0.055
0.075
0.055
0.025
0.03
0.035
0.02
0.055
0.04
0.045
0.1
0.055
0.09
0.105
0.095
0.12
0.12
0.08
0.02
-0.055
0.03
0.145
0.155
0.09
0.025
0.095
0.11
0.085
0.13
0.135
0.105
0.13
0.11
0.08
0.085
0.125
0.145
0.145
0.14
0.17
0.165
0.135
0.08
0.165
0.21
0.175
0.155
0.17
0.125
0.145
0.205
0.165
0.175
0.175
0.15
0.195
0.235
0.255
0.22
0.235
0.24
0.24
0.2
0.115
0.305
0.28
0.22
0.3
0.265
0.285
0.3
0.275
0.29
0.36
0.205
0.21
0.24
0.36
0.365
0.305
0.27
0.25
0.27
0.215
0.285
0.35
0.335
0.33
0.25
0.175
0.225
0.34
0.36
0.27
0.265
0.27
0.245
0.255
0.245
0.23
0.225
0.24
0.195
0.2
0.2
0.17
0.175
0.155
0.185
0.135
0.065
0.085
0.105
0.055
0.125
0.185
0.15
0.105
0.09
0.055
0.095
0.11
0.1
0.1
0.075
0.075
0.045
0.08
0.095
0.05
0.07
0.105
0.075
0.045
0.1
0.1
0.085
0.12
0.07
0.055
0.12
0.08
0.08
0.065
0.135
0.095
0.065
0.05
0.05
0.12
0.11
0.095
0.08
0.075
0.105
0.12
0.09
0.09
0.09
0.12
0.135
0.145
0.125
0.155
0.12
0.165
0.105
0.03
0.1
0.125
0.11
0.125
0.095
0.18
0.155
0.135
0.09
0.1
0.14
0.08
0.105
0.095
0.095
0.06
0.065
0.1
0.165
0.13
0.08
0.1
0.125
0.055
0.105
0.215
0.125
0.115
0.15
0.09
0.105
0.185
0.14
0.1
0.095
0.08
0.11
0.13
0.205
0.16
0.065
0.095
0.22
0.185
0.17
0.12
0.145
0.14
0.11
0.075
0.105
0.115
0.095
0.09
0.065
-0.005
0.09
0.155
0.115
0.095
0.09
0.11
0.085
0.065
0.085
0.055
0.1
0.09
0.09
0.085
0.12
0.105
0.07
0.065
0.03
0.015
0.005
0.07
0.095
0.075
0.1
0.09
0.07
0.1
0.07
0.08
0.115
0.105
0.095
0.2
0.23
0.185
0.21
0.335
0.445
0.61
0.555
0.59
0.61
0.605
0.555
0.525
0.49
0.43
0.33
0.28
0.26
0.06
-0.16
-0.335
-0.295
-0.32
-0.285
-0.205
-0.175
-0.14
-0.105
-0.04
0.055
0.01
-0.04
0.095
0.04
0.07
0.085
0.08
0.14
0.075
0.1
0.11
0.095
0.08
0.1
0.125
0.09
0.09
0.1
0.09
0.085
0.07
0.125
0.145
0.09
0.08
0.13
0.1
0.155
0.13
0.07
0.0
0.11
0.17
0.195
0.15
0.06
0.095
0.17
0.12
0.11
0.145
0.175
0.14
0.11
0.15
0.19
0.155
0.16
0.085
0.15
0.2
0.21
0.18
0.21
0.195
0.195
0.205
0.21
0.235
0.225
0.17
0.11
0.24
0.21
0.205
0.27
0.255
0.205
0.22
0.21
0.275
0.25
0.235
0.27
0.295
0.3
0.3
0.29
0.28
0.28
0.235
0.31
0.26
0.33
0.325
0.29
0.305
0.325
0.37
0.355
0.275
0.33
0.315
0.29
0.28
0.315
0.315
0.305
0.285
0.28
0.265
0.31
0.31
0.265
0.265
0.28
0.325
0.235
0.265
0.26
0.27
0.245
0.21
0.16
0.195
0.225
0.17
0.14
0.14
0.145
0.075
0.14
0.14
0.11
0.115
0.15
0.11
0.125
0.1
0.085
0.06
-0.05
0.0
0.16
0.14
0.11
0.085
0.065
0.11
0.075
0.1
0.09
0.09
0.05
0.1
0.09
0.095
0.0
0.04
0.115
0.11
0.13
0.08
0.045
0.11
0.11
0.095
0.085
0.065
0.075
0.06
0.095
0.09
0.07
0.115
0.115
0.07
0.07
0.16
0.105
0.085
0.085
0.06
0.01
0.05
0.105
0.085
0.03
0.135
0.15
0.065
0.115
0.085
0.1
0.095
0.11
0.1
0.06
0.115
0.105
0.125
0.11
0.1
0.1
0.085
0.095
0.12
0.1
0.13
0.16
0.085
0.07
0.07
0.09
0.065
0.135
0.11
0.065
0.025
0.095
0.11
0.085
0.09
0.07
0.125
0.145
0.12
0.11
0.105
0.115
0.155
0.13
0.065
0.07
0.135
0.075
0.06
0.02
0.06
0.04
0.055
0.07
0.075
0.045
0.06
0.05
0.03
0.04
0.005
-0.03
-0.03
0.085
0.08
0.055
0.035
0.055
0.015
0.055
0.025
0.015
0.0
0.045
0.015
0.015
0.055
0.065
0.005
0.005
0.02
0.05
0.01
0.02
0.05
0.145
0.13
0.11
0.16
0.245
0.32
0.41
0.46
0.425
0.485
0.545
0.46
0.475
0.445
0.435
0.49
0.39
0.255
0.135
0.01
-0.165
-0.295
-0.36
-0.38
-0.37
-0.27
-0.17
-0.06
-0.065
-0.05
-0.005
0.01
0.01
0.015
-0.02
-0.015
-0.04
-0.045
0.05
-0.01
-0.06
0.01
0.085
0.065
0.04
-0.005
0.025
0.06
0.075
0.01
0.04
0.02
0.045
0.04
-0.1
0.035
0.065
0.025
0.055
0.065
0.045
0.075
0.04
0.025
0.055
0.095
0.09
0.045
0.025
0.035
0.07
0.01
0.045
0.085
0.06
0.06
0.055
0.06
0.075
0.015
0.04
0.145
0.095
0.085
0.14
0.13
0.11
0.08
0.125
0.135
0.08
0.065
0.155
0.14
0.15
0.06
0.135
0.245
0.215
0.19
0.155
0.175
0.19
0.19
0.13
0.17
0.17
0.165
0.22
0.255
0.245
0.205
0.265
0.25
0.21
0.195
0.265
0.285
0.23
0.285
0.28
0.21
0.205
0.275
0.31
0.23
0.23
0.26
0.205
0.25
0.26
0.25
0.195
0.2
0.18
0.19
0.195
0.165
0.145
0.195
0.245
0.19
0.145
0.13
0.115
0.095
0.015
0.06
0.095
0.055
0.085
0.075
0.06
0.06
0.105
0.115
0.05
0.0
0.01
0.01
0.015
0.01
-0.005
-0.045
-0.06
0.02
0.08
0.055
-0.005
-0.03
0.03
0.01
0.005
0.055
0.045
0.02
0.015
0.02
-0.005
0.025
0.02
-0.01
0.02
0.02
0.005
0.02
0.04
0.03
-0.015
-0.01
-0.025
-0.005
0.045
0.055
-0.035
-0.035
-0.05
-0.015
0.035
-0.03
-0.045
0.12
0.105
0.01
0.01
0.07
0.05
0.035
0.015
0.04
0.045
0.05
0.005
-0.02
0.03
0.02
0.02
-0.005
0.005
-0.005
0.055
0.065
0.04
-0.015
-0.025
0.025
0.025
0.065
0.005
0.01
0.0
0.035
-0.005
0.06
0.08
0.01
-0.005
-0.055
0.055
0.04
0.025
0.04
0.02
-0.02
0.045
0.065
0.055
0.045
0.05
0.08
0.065
0.085
0.11
0.065
0.055
0.08
0.05
-0.05
-0.02
-0.015
-0.06
-0.01
-0.045
-0.005
0.025
0.03
-0.015
-0.015
-0.055
-0.045
-0.05
-0.07
-0.07
-0.02
-0.04
0.025
-0.01
-0.03
-0.01
-0.03
-0.055
-0.045
-0.025
-0.035
-0.075
-0.075
-0.105
-0.04
-0.005
0.005
-0.01
-0.045
-0.035
-0.02
-0.005
-0.005
-0.03
0.035
0.045
0.135
0.21
0.295
0.36
0.42
0.455
0.43
0.485
0.485
0.44
0.415
0.37
0.365
0.325
0.195
0.085
-0.03
-0.215
-0.35
-0.37
-0.33
-0.26
-0.265
-0.265
-0.255
-0.175
-0.045
-0.055
-0.075
-0.055
-0.05
-0.065
-0.045
-0.035
-0.06
-0.06
-0.05
-0.04
-0.02
-0.03
-0.075
-0.03
-0.015
-0.02
-0.04
0.01
-0.02
-0.055
-0.02
0.005
0.01
-0.04
-0.075
-0.005
0.025
-0.03
-0.035
-0.06
0.005
-0.015
-0.02
0.015
0.0
0.01
0.04
0.025
-0.015
0.04
0.0
-0.075
-0.005
0.0
0.015
0.055
0.065
0.04
0.05
0.02
0.0
-0.005
0.055
0.08
0.01
0.02
0.005
0.115
0.085
0.09
0.095
0.055
0.08
0.1
0.1
0.095
0.07
0.06
0.145
0.15
0.095
0.13
0.105
0.105
0.155
0.16
0.135
0.07
0.17
0.24
0.205
0.18
0.185
0.145
0.205
0.21
0.21
0.24
0.225
0.145
0.17
0.22
0.215
0.2
0.19
0.195
0.205
0.145
0.205
0.205
0.195
0.18
0.155
0.18
0.11
0.135
0.155
0.135
0.125
0.14
0.085
0.045
0.1
0.085
0.025
0.02
0.02
0.075
0.035
0.01
0.015
-0.04
-0.095
-0.005
0.025
-0.04
-0.035
-0.04
-0.055
-0.045
0.01
0.025
-0.02
-0.065
-0.04
0.025
-0.035
-0.045
-0.07
-0.08
-0.09
-0.04
-0.01
-0.03
-0.035
-0.05
0.0
-0.065
-0.125
-0.065
-0.02
-0.02
-0.05
-0.025
-0.04
-0.005
-0.025
-0.025
-0.05
-0.075
-0.05
-0.045
-0.05
-0.025
-0.02
-0.08
-0.05
-0.005
0.005
-0.025
-0.055
-0.06
-0.055
-0.055
-0.05
-0.065
-0.01
0.0
-0.01
-0.065
-0.05
-0.065
0.0
0.01
-0.005
-0.065
-0.07
-0.025
-0.01
-0.005
0.015
-0.04
-0.035
0.0
-0.025
-0.025
-0.005
-0.04
-0.065
0.0
-0.015
-0.04
-0.05
-0.035
-0.065
-0.05
-0.01
0.01
0.0
-0.01
-0.05
-0.045
-0.05
-0.06
-0.075
-0.065
-0.085
-0.04
-0.01
-0.055
-0.03
-0.075
-0.035
0.03
-0.03
-0.045
0.015
-0.015
-0.02
-0.01
-0.02
-0.045
-0.02
-0.03
-0.09
-0.07
0.075
0.095
0.045
0.05
-0.02
0.035
0.08
0.025
-0.045
-0.11
-0.05
0.04
-0.005
-0.075
-0.07
-0.065
-0.105
-0.095
-0.07
-0.045
-0.025
-0.02
-0.035
-0.065
-0.04
-0.045
-0.105
-0.095
-0.04
-0.03
-0.09
-0.1
-0.095
-0.04
-0.04
-0.06
-0.095
-0.115
-0.085
-0.06
-0.065
-0.065
-0.1
-0.085
-0.05
-0.07
-0.075
-0.04
-0.075
-0.05
-0.015
0.04
0.07
0.08
0.06
0.205
0.29
0.325
0.31
0.32
0.37
0.42
0.38
0.275
0.305
0.285
0.225
0.095
0.005
-0.065
-0.175
-0.36
-0.375
-0.35
-0.31
-0.255
-0.21
-0.2
-0.135
-0.11
-0.105
-0.095
-0.1
-0.1
-0.15
-0.115
-0.085
-0.01
-0.005
-0.09
-0.1
-0.095
-0.09
0.005
0.0
-0.025
-0.105
-0.11
-0.05
-0.045
-0.115
-0.11
-0.06
-0.065
-0.01
0.01
-0.03
0.0
-0.005
-0.015
-0.005
-0.025
-0.025
-0.035
-0.035
-0.015
-0.04
-0.015
-0.02
-0.025
-0.015
-0.025
-0.035
-0.02
-0.02
-0.035
0.015
-0.005
0.03
-0.005
-0.005
-0.01
0.04
-0.015
-0.04
0.045
0.065
0.085
0.045
0.02
0.05
0.09
0.08
0.075
0.09
0.08
0.035
0.1
0.125
0.145
0.11
0.075
0.065
0.1
0.16
0.125
0.1
0.045
0.145
0.175
0.195
0.18
0.18
0.175
0.2
0.11
0.135
0.2
0.185
0.2
0.145
0.19
0.235
0.22
0.215
0.19
0.18
0.21
0.19
0.14
0.12
0.165
0.205
0.2
0.19
0.18
0.175
0.125
0.11
0.11
0.085
0.06
0.095
0.09
0.07
0.015
0.015
0.055
0.055
0.025
0.0
-0.09
-0.005
-0.05
-0.025
0.035
0.0
-0.025
-0.05
-0.05
-0.05
-0.015
-0.05
-0.025
-0.025
-0.035
-0.055
-0.08
-0.09
-0.085
-0.05
-0.035
-0.07
-0.095
-0.06
-0.06
-0.09
-0.04
-0.05
-0.1
-0.09
-0.075
-0.045
-0.07
-0.085
-0.045
-0.03
-0.085
-0.11
-0.025
0.0
-0.105
-0.15
-0.08
-0.04
-0.02
-0.07
-0.095
-0.1
-0.085
-0.035
-0.02
-0.045
-0.065
-0.055
-0.065
-0.11
-0.065
-0.015
-0.03
-0.02
-0.05
-0.08
-0.06
-0.085
-0.07
-0.1
-0.12
-0.05
-0.055
-0.025
-0.06
-0.08
-0.07
-0.035
-0.04
-0.065
-0.1
-0.075
-0.115
-0.07
-0.065
-0.06
-0.025
-0.05
-0.1
-0.085
-0.035
-0.015
-0.05
-0.055
-0.05
-0.04
-0.035
-0.06
-0.075
-0.095
-0.11
-0.085
-0.09
-0.11
-0.105
-0.06
-0.05
-0.04
-0.035
-0.03
-0.06
-0.085
-0.11
-0.17
-0.105
-0.04
-0.035
-0.05
-0.06
-0.12
-0.05
-0.125
-0.065
-0.05
-0.085
-0.08
-0.025
-0.065
-0.085
-0.05
-0.095
-0.085
-0.08
-0.07
-0.1
-0.11
-0.155
-0.08
-0.01
-0.07
-0.075
-0.04
-0.07
-0.07
-0.04
-0.12
-0.15
-0.085
-0.07
-0.035
-0.075
-0.065
-0.05
-0.09
-0.07
-0.055
-0.04
-0.07
-0.075
-0.035
-0.035
-0.07
-0.07
-0.04
-0.025
-0.05
-0.07
-0.095
-0.03
-0.04
-0.065
-0.06
-0.03
-0.015
-0.06
0.015
0.035
0.005
-0.02
-0.045
-0.025
-0.115
-0.05
-0.005
-0.015
-0.075
-0.055
-0.115
-0.15
-0.095
-0.02
-0.05
-0.095
-0.11
-0.115
-0.095
-0.1
-0.1
-0.095
-0.125
-0.185
-0.06
-0.095
-0.08
-0.045
-0.09
-0.095
-0.13
-0.125
-0.115
-0.09
-0.19
-0.145
-0.095
-0.095
-0.135
-0.085
-0.08
-0.135
-0.105
-0.075
-0.11
-0.085
-0.075
0.0
0.015
-0.025
0.025
0.07
0.175
0.22
0.295
0.33
0.34
0.37
0.355
0.295
0.31
0.315
0.26
0.2
0.065
-0.025
-0.11
-0.22
-0.375
-0.42
-0.375
-0.34
-0.295
-0.29
-0.205
-0.135
-0.145
-0.145
-0.16
-0.2
-0.085
-0.045
-0.02
-0.065
-0.08
-0.075
-0.07
-0.055
-0.055
-0.095
-0.1
-0.07
-0.11
-0.105
-0.09
-0.12
-0.12
-0.08
-0.03
-0.035
-0.13
-0.06
-0.07
-0.075
-0.105
-0.065
-0.07
-0.1
-0.03
-0.035
-0.02
-0.02
-0.055
-0.015
-0.105
-0.045
0.02
-0.02
-0.045
-0.03
-0.03
-0.025
-0.065
-0.025
0.005
-0.01
-0.005
0.025
0.03
-0.005
-0.015
0.01
0.025
0.0
0.04
0.04
0.005
0.07
0.07
0.0
0.005
0.005
0.095
0.11
0.05
0.03
-0.025
0.045
0.125
0.165
0.06
0.1
0.105
0.095
0.14
0.185
0.15
0.14
0.14
0.145
0.13
0.17
0.125
0.16
0.19
0.165
0.195
0.15
0.19
0.2
0.195
0.2
0.18
0.21
0.2
0.195
0.155
0.185
0.215
0.185
0.17
0.165
0.17
0.165
0.16
0.125
0.12
0.135
0.13
0.12
0.12
0.06
-0.07
0.0
0.1
0.05
0.055
0.02
0.025
0.075
0.01
-0.01
-0.005
-0.01
0.02
-0.035
-0.05
-0.03
-0.055
-0.05
-0.03
-0.05
-0.1
-0.105
-0.045
-0.03
-0.04
-0.04
-0.055
-0.085
-0.08
-0.075
-0.08
-0.04
-0.03
-0.08
-0.115
-0.08
-0.005
-0.04
-0.075
-0.095
-0.115
-0.16
-0.1
0.015
-0.025
-0.045
-0.06
-0.02
-0.035
-0.07
-0.05
-0.04
-0.08
-0.095
-0.095
-0.08
-0.025
-0.015
-0.045
-0.05
-0.03
-0.015
-0.08
-0.095
-0.055
-0.025
-0.05
0.0
-0.015
-0.06
-0.04
-0.045
-0.09
-0.04
-0.035
-0.055
-0.05
-0.05
-0.02
-0.04
-0.085
-0.09
-0.015
0.0
-0.035
-0.075
-0.09
0.005
0.02
-0.045
-0.085
-0.05
-0.015
-0.015
-0.03
-0.04
-0.05
-0.03
-0.06
-0.06
-0.05
-0.03
-0.075
-0.07
-0.07
-0.03
-0.03
-0.01
-0.04
-0.06
-0.05
-0.01
0.0
-0.04
-0.055
-0.04
-0.045
-0.03
0.01
-0.015
-0.035
-0.06
-0.04
-0.15
-0.17
-0.01
0.015
-0.02
-0.01
-0.08
-0.08
-0.065
-0.025
-0.03
-0.065
-0.075
0.005
-0.015
-0.085
0.0
-0.03
-0.08
-0.045
0.005
-0.015
-0.065
-0.065
-0.025
-0.06
-0.045
-0.03
-0.085
-0.015
0.0
-0.02
-0.085
-0.01
-0.07
-0.08
-0.17
-0.075
0.03
-0.035
-0.055
0.01
-0.035
-0.005
0.0
-0.055
-0.075
-0.025
0.005
-0.045
-0.055
-0.025
-0.035
0.04
0.03
0.035
0.005
0.01
-0.025
0.0
-0.08
0.0
0.055
0.095
0.06
0.015
0.03
0.075
0.02
0.015
0.0
-0.01
-0.035
-0.035
0.01
-0.02
-0.06
-0.05
-0.07
-0.07
-0.035
-0.02
-0.05
-0.065
-0.05
-0.04
-0.04
-0.04
-0.065
-0.16
-0.09
-0.02
-0.025
0.005
-0.02
-0.035
-0.035
-0.03
-0.015
-0.055
-0.125
-0.1
-0.095
-0.045
-0.015
-0.08
-0.045
0.005
-0.025
-0.045
-0.01
0.04
0.085
0.095
0.06
0.125
0.235
0.345
0.385
0.36
0.36
0.45
0.475
0.43
0.375
0.365
0.36
0.29
0.175
0.06
-0.065
-0.21
-0.365
-0.395
-0.345
-0.3
-0.29
-0.2
-0.125
-0.06
-0.065
-0.05
-0.07
-0.08
0.06
0.0
-0.01
-0.01
-0.02
-0.05
0.0
0.01
-0.08
-0.045
0.025
-0.02
-0.025
0.015
0.04
0.035
-0.025
-0.03
-0.005
-0.015
0.01
0.0
0.05
0.025
-0.005
-0.045
0.015
-0.025
0.005
0.025
0.015
0.02
0.065
0.115
0.045
0.02
0.035
0.01
0.025
0.07
0.065
0.015
0.085
0.065
0.1
0.135
0.09
0.075
0.095
-0.015
0.08
0.1
0.08
0.12
0.09
0.105
0.12
0.1
0.13
0.055
0.15
0.15
0.1
0.115
0.16
0.17
0.155
0.17
0.19
0.175
0.11
0.135
0.27
0.205
0.22
0.21
0.22
0.22
0.22
0.25
0.235
0.25
0.27
0.295
0.215
0.14
0.23
0.25
0.205
0.255
0.265
0.235
0.23
0.285
0.285
0.275
0.29
0.27
0.28
0.225
0.205
0.29
0.23
0.24
0.21
0.16
0.25
0.26
0.205
0.17
0.155
0.18
0.17
0.14
0.16
0.155
0.13
0.135
0.105
0.095
0.09
0.075
0.005
-0.015
0.115
0.115
0.07
0.12
0.105
0.04
0.065
0.05
0.06
0.065
0.025
-0.07
0.0
0.145
0.06
0.05
0.07
0.035
0.0
0.065
0.035
0.09
0.085
0.085
0.04
-0.005
0.015
0.045
0.07
0.06
0.075
0.095
0.065
0.01
0.035
0.01
-0.03
0.045
0.02
0.035
0.105
0.115
0.075
0.055
0.06
0.0
0.055
0.11
0.095
0.055
0.075
0.06
0.055
0.055
0.09
0.09
0.07
0.05
0.04
0.035
0.125
0.085
0.065
0.065
0.02
0.03
0.115
0.125
0.085
0.05
0.01
0.03
0.13
0.145
0.065
0.06
0.055
0.0
0.02
0.075
0.085
0.095
0.035
0.03
0.14
0.135
0.035
0.045
0.035
0.07
0.035
0.02
0.07
0.125
0.07
0.06
0.06
0.06
0.05
0.025
0.035
-0.01
0.09
0.08
0.005
0.04
0.045
0.08
0.04
0.06
0.095
0.11
0.06
0.04
0.07
0.1
0.07
0.07
0.055
0.07
0.04
0.04
0.025
0.065
0.025
0.03
0.065
0.075
0.01
0.075
0.065
0.075
0.095
0.085
0.08
0.065
0.06
0.055
0.045
0.135
0.105
0.04
0.135
0.12
0.115
0.16
0.15
0.135
0.125
0.06
0.075
0.17
0.145
0.1
0.075
0.11
0.09
0.07
0.075
0.135
0.105
0.105
0.08
0.055
0.085
0.105
0.06
0.065
0.085
0.07
0.085
0.075
0.04
-0.03
-0.035
0.08
0.085
0.085
0.075
0.055
0.015
0.07
0.04
0.02
0.035
0.08
0.055
0.07
0.1
0.09
0.06
0.09
0.05
0.035
0.08
0.065
0.1
0.135
0.175
0.165
0.175
0.255
0.33
0.36
0.49
0.52
0.455
0.495
0.525
0.505
0.475
0.44
0.38
0.365
0.295
0.255
0.09
-0.095
-0.275
-0.36
-0.3
-0.285
-0.27
-0.225
-0.1
-0.08
-0.05
0.01
0.025
0.045
0.055
0.06
0.05
0.02
0.105
0.13
0.085
0.085
0.065
0.04
0.0
0.055
0.075
0.1
0.125
0.115
0.095
0.105
0.05
0.11
0.1
0.09
0.13
0.09
0.09
0.105
0.09
0.105
0.12
0.105
0.095
0.105
0.115
0.065
0.095
0.15
0.145
0.17
0.155
0.1
0.135
0.13
0.11
0.13
0.11
0.065
0.15
0.165
0.13
0.13
0.12
0.165
0.2
0.2
0.205
0.155
0.125
0.2
0.24
0.185
0.23
0.245
0.22
0.22
0.255
0.225
0.215
0.215
0.225
0.21
0.215
0.265
0.275
0.245
0.275
0.285
0.285
0.28
0.28
0.25
0.265
0.315
0.25
0.355
0.32
0.305
0.335
0.335
0.305
0.32
0.295
0.285
0.355
0.315
0.285
0.245
0.29
0.27
0.295
0.345
0.36
0.34
0.325
0.315
0.31
0.3
0.255
0.26
0.235
0.235
0.245
0.225
0.21
0.175
0.115
0.095
0.13
0.15
0.165
0.175
0.09
0.14
0.145
0.16
0.125
0.13
0.12
0.14
0.115
0.055
0.06
0.075
0.07
0.07
0.085
0.04
0.025
0.065
0.01
0.065
0.1
0.07
0.055
0.065
0.07
0.065
0.105
0.085
0.1
0.0
-0.025
0.05
0.105
0.035
0.005
0.115
0.115
0.11
0.09
0.07
0.06
0.08
0.065
0.075
0.11
0.095
0.04
0.065
0.065
0.05
0.095
0.075
0.035
0.035
0.11
0.07
0.065
0.09
0.09
0.095
0.07
0.02
0.09
0.055
0.065
0.1
0.065
0.05
0.02
0.0
0.115
0.045
0.08
0.075
0.05
0.08
0.095
0.085
0.12
0.075
0.07
0.065
0.045
0.035
0.045
0.015
0.055
0.075
0.055
0.07
0.045
0.045
0.065
0.08
0.06
0.04
0.065
-0.02
0.01
0.045
0.04
0.055
0.03
0.0
0.07
0.055
0.0
0.025
0.015
0.03
0.045
0.065
0.055
0.01
0.035
0.045
0.01
0.01
0.03
0.05
0.065
0.06
0.065
0.04
0.01
0.045
0.03
0.065
0.035
-0.015
0.075
0.055
0.055
0.045
0.075
0.09
0.085
0.05
0.055
0.065
0.09
0.085
0.11
0.065
0.1
0.125
0.115
0.08
0.04
0.04
0.095
0.07
0.07
0.09
0.065
0.09
0.075
0.05
0.015
0.02
0.0
-0.01
-0.015
-0.03
0.025
-0.03
-0.045
0.04
0.015
0.025
-0.03
0.005
0.01
0.005
-0.03
-0.05
-0.025
-0.02
-0.035
0.02
0.02
-0.01
0.02
-0.005
0.015
-0.005
-0.075
0.035
0.01
-0.025
-0.02
0.075
0.045
0.05
0.065
0.06
0.09
0.215
0.27
0.375
0.42
0.475
0.44
0.51
0.505
0.41
0.42
0.395
0.34
0.235
0.125
0.18
0.105
-0.12
-0.31
-0.345
-0.32
-0.32
-0.24
-0.21
-0.175
-0.115
-0.095
-0.04
-0.035
-0.035
0.035
0.03
0.03
0.04
0.035
0.01
-0.01
0.035
0.035
0.01
0.0
0.03
-0.005
-0.015
0.005
-0.02
0.025
0.095
0.03
0.055
0.02
0.025
0.035
0.0
0.06
0.03
0.06
0.04
0.05
0.075
0.055
-0.01
0.025
0.025
0.06
0.1
0.1
0.09
0.075
0.085
0.07
0.025
0.03
0.125
0.13
0.09
0.09
0.085
0.105
0.07
0.09
0.08
0.09
0.09
0.11
0.13
0.13
0.14
0.12
0.13
0.145
0.14
0.18
0.16
0.155
0.105
0.185
0.175
0.17
0.245
0.18
0.18
0.23
0.26
0.225
0.24
0.21
0.215
0.27
0.175
0.175
0.215
0.275
0.265
0.245
0.265
0.29
0.29
0.265
0.27
0.28
0.29
0.275
0.21
0.23
0.285
0.27
0.24
0.285
0.3
0.295
0.295
0.275
0.27
0.22
0.18
0.19
0.125
0.115
0.195
0.225
0.2
0.14
0.095
0.02
0.11
0.235
0.115
0.105
0.12
0.085
0.085
0.055
0.075
0.055
0.04
0.03
0.015
0.035
0.08
0.025
-0.025
0.015
0.015
0.02
0.08
0.025
-0.01
-0.03
-0.035
0.06
0.03
0.025
0.0
0.055
0.025
0.005
0.0
0.035
0.02
0.005
-0.025
-0.07
-0.06
-0.07
-0.02
0.055
-0.04
-0.01
0.015
-0.025
-0.02
-0.02
0.01
-0.01
-0.08
-0.02
-0.015
-0.04
0.035
0.035
-0.02
0.0
0.005
0.04
0.015
-0.04
-0.055
0.015
-0.015
-0.03
-0.01
-0.055
-0.02
0.03
0.005
-0.005
-0.02
-0.01
-0.03
0.0
-0.005
-0.055
-0.08
0.03
0.04
-0.05
-0.065
-0.015
0.11
0.045
0.0
-0.03
-0.03
-0.03
-0.06
-0.015
0.02
0.015
-0.04
-0.005
-0.01
-0.05
-0.05
0.01
0.02
0.0
-0.04
-0.075
-0.03
-0.05
-0.085
-0.045
0.035
-0.01
-0.02
0.04
0.01
0.01
-0.01
-0.03
-0.04
-0.055
-0.04
-0.045
-0.04
-0.06
0.0
-0.02
-0.025
-0.1
-0.1
0.0
0.015
-0.08
-0.03
0.05
-0.01
-0.035
-0.045
0.0
-0.015
-0.015
-0.045
-0.035
-0.055
-0.05
-0.015
-0.005
-0.015
-0.035
-0.03
-0.02
-0.025
-0.025
-0.02
-0.03
-0.035
0.015
-0.025
-0.035
0.04
0.04
0.015
0.025
0.03
-0.005
0.025
0.025
0.02
0.04
0.05
0.035
-0.005
0.0
0.02
0.015
0.01
0.01
-0.07
-0.11
-0.05
0.065
0.0
-0.1
-0.11
-0.045
0.01
-0.005
-0.03
-0.095
-0.105
-0.115
-0.085
-0.02
-0.03
-0.06
-0.095
-0.08
-0.035
-0.065
-0.055
-0.085
-0.11
-0.11
-0.06
0.0
-0.01
-0.11
-0.13
-0.08
-0.09
-0.11
-0.065
-0.105
-0.065
-0.06
-0.06
0.005
0.045
0.055
0.02
0.05
0.16
0.195
0.295
0.365
0.355
0.37
0.335
0.32
0.35
0.32
0.245
0.175
0.14
0.075
-0.005
-0.12
-0.275
-0.37
-0.385
-0.345
-0.25
-0.21
-0.195
-0.175
-0.14
-0.11
-0.085
-0.11
-0.115
-0.09
-0.125
-0.135
-0.07
-0.035
-0.025
-0.035
-0.035
-0.045
-0.075
-0.105
-0.09
-0.07
-0.025
-0.015
-0.045
-0.035
-0.06
0.0
0.0
-0.045
-0.05
-0.05
-0.045
-0.02
-0.065
-0.04
-0.01
-0.02
-0.045
-0.055
-0.02
-0.035
-0.06
-0.005
-0.045
-0.11
-0.03
0.03
-0.02
-0.025
-0.03
0.0
0.05
0.0
-0.005
-0.04
-0.04
0.065
0.03
0.015
0.085
0.045
0.01
0.06
0.05
0.07
0.085
0.05
0.08
0.04
0.05
0.05
0.085
0.09
0.055
0.07
0.125
0.115
0.12
0.15
0.14
0.13
0.125
0.105
0.16
0.175
0.145
0.155
0.185
0.16
0.145
0.215
0.195
0.2
0.215
0.19
0.21
0.175
0.155
0.205
0.22
0.19
0.235
0.235
0.23
0.195
0.21
0.18
0.16
0.13
0.06
0.16
0.175
0.225
0.215
0.17
0.14
0.155
0.135
0.08
0.105
0.06
0.02
-0.02
0.055
0.095
0.055
0.085
0.04
0.025
-0.02
-0.005
-0.02
-0.025
-0.02
-0.07
-0.07
-0.005
-0.05
-0.045
-0.04
0.01
0.0
-0.02
-0.09
-0.045
-0.105
-0.095
-0.06
0.05
0.02
-0.01
-0.03
-0.05
-0.075
-0.085
-0.02
-0.03
-0.065
-0.045
-0.055
-0.105
-0.07
-0.035
-0.045
-0.06
-0.05
-0.095
-0.055
-0.045
-0.09
-0.055
-0.045
-0.03
-0.08
-0.045
-0.04
-0.095
-0.095
-0.005
-0.035
-0.04
-0.025
-0.075
-0.075
-0.025
-0.01
-0.015
-0.055
-0.03
-0.06
-0.065
-0.08
-0.105
-0.04
-0.03
-0.045
-0.055
-0.06
-0.06
-0.03
-0.065
-0.06
-0.065
-0.035
-0.085
-0.1
-0.075
-0.105
-0.145
-0.16
-0.05
-0.04
-0.09
-0.125
-0.11
-0.05
-0.07
-0.095
-0.125
-0.03
-0.13
-0.13
-0.12
-0.11
-0.12
-0.105
-0.1
-0.075
-0.07
-0.155
-0.165
-0.135
-0.16
-0.145
-0.17
-0.2
-0.115
-0.135
-0.115
-0.165
-0.22
-0.2
-0.135
-0.2
-0.23
-0.175
-0.2
-0.225
-0.215
-0.215
-0.2
-0.255
-0.235
-0.19
-0.22
-0.235
-0.265
-0.295
-0.255
-0.22
-0.25
-0.275
-0.285
-0.31
-0.285
-0.285
-0.3
-0.345
-0.3
-0.365
-0.34
-0.255
-0.32
-0.35
-0.405
-0.33
-0.3
-0.28
-0.23
-0.285
-0.275
-0.34
-0.31
-0.305
-0.28
-0.28
-0.3
-0.305
-0.34
-0.27
-0.29
-0.28
-0.32
-0.315
-0.325
-0.4
-0.385
-0.375
-0.33
-0.375
-0.445
-0.405
-0.395
-0.345
-0.43
-0.46
-0.425
-0.4
-0.445
-0.425
-0.43
-0.445
-0.535
-0.63
-0.585
-0.635
-0.66
-0.625
-0.64
-0.655
-0.685
-0.64
-0.66
-0.66
-0.66
-0.625
-0.605
-0.64
-0.695
-0.7
-0.645
-0.665
-0.715
-0.75
-0.805
-0.775
-0.78
-0.815
-0.775
-0.78
-0.77
-0.77
-0.785
-0.67
-0.695
-0.715
-0.755
-0.825
-0.84
-0.905
-0.98
-0.965
-1.14
-1.32
-1.47
-1.55
-1.65
-1.765
-1.855
-1.855
-1.855
-1.775
-1.75
-1.815
-1.87
-1.805
-1.77
-1.81
-1.845
-1.87
-1.905
-1.945
-1.975
-2.02
-2.07
-2.06
-2.025
-2.15
-2.205
-2.175
-2.2
-2.25
-2.29
-2.305
-2.33
-2.38
-2.385
-2.43
-2.45
-2.47
-2.51
-2.56
-2.555
-2.635
-2.695
-2.71
-2.71
-2.69
-2.78
-2.835
-2.82
-2.915
-2.89
-2.92
-2.91
-2.905
-2.93
-3.0
-3.06
-3.045
-3.105
-3.17
-3.235
-3.255
-3.315
-3.325
-3.345
-3.4
-3.46
-3.49
-3.525
-3.56
-3.57
-3.625
-3.65
-3.73
-3.76
-3.78
-3.805
-3.875
-3.88
-3.97
-3.975
-3.91
-3.97
-4.06
-4.095
-4.09
-4.145
-4.18
-4.28
-4.22
-4.165
-4.225
-4.27
-4.335
-4.345
-4.405
-4.415
-4.45
-4.55
-4.6
-4.575
-4.645
-4.62
-4.635
-4.74
-4.75
-4.75
-4.815
-4.885
-4.865
-4.915
-4.96
-4.955
-5.015
-5.035
-5.07
-5.1
-5.155
-5.2
-5.24
-5.285
-5.315
-5.35
-5.41
-5.425
-5.5
-5.51
-5.57
-5.635
-5.68
-5.665
-5.715
-5.84
-5.77
-5.815
-5.93
-5.945
-5.935
-6.005
-5.965
-6.07
-6.15
-6.115
-6.17
-6.22
-6.3
-6.225
-6.245
-6.32
-6.32
-6.355
-6.43
-6.445
-6.455
-6.52
-6.52
-6.535
-6.6
-6.64
-6.695
-6.635
-6.645
-6.68
-6.75
-6.785
-6.8
-6.805
-6.89
-6.86
-6.93
-6.945
-6.975
-6.975
-6.945
-7.025
-7.075
-7.09
-7.1
-7.14
-7.18
-7.185
-7.205
-7.23
-7.24
-7.25
-7.355
-7.405
-7.335
-7.305
-7.375
-7.425
-7.435
-7.465
-7.53
-7.53
-7.53
-7.555
-7.62
-7.615
-7.695
-7.745
-7.665
-7.745
-7.785
-7.77
-7.81
-7.855
-7.88
-7.925
-7.94
-7.965
-8.055
-8.04
-8.02
-8.08
-8.145
-8.165
-8.13
-8.18
-8.27
-8.27
-8.295
-8.305
-8.355
-8.34
-8.37
-8.39
-8.42
-8.495
-8.575
-8.55
-8.535
-8.525
-8.555
-8.635
-8.695
-8.75
-8.785
-8.73
-8.78
-8.805
-8.81
-8.885
-8.915
-8.955
-8.98
-9.015
-9.03
-9.09
-9.095
-9.11
-9.105
-9.125
-9.16
-9.21
-9.245
-9.25
-9.27
-9.285
-9.335
-9.36
-9.355
-9.41
-9.405
-9.395
-9.46
-9.48
-9.505
-9.53
-9.495
-9.525
-9.52
-9.565
-9.6
-9.645
-9.61
-9.585
-9.635
-9.655
-9.72
-9.715
-9.72
-9.8
-9.735
-9.76
-9.755
-9.67
-9.765
-9.79
-9.79
-9.815
-9.85
-9.835
-9.835
-9.87
-9.9
-9.9
-9.915
-9.94
-9.975
-9.965
-9.97
-10.05
-10.1
-10.055
-10.135
-10.195
-10.195
-10.205
-10.17
-10.2
-153.61
-153.68
-153.685
-153.695
-153.71
-153.725
-153.74
-153.77
-153.755
-153.75
-153.76
-153.775
-153.785
-153.77
-153.755
-153.77
-153.785
-153.76
-153.755
-153.81
-153.755
-153.805
-153.875
-153.875
-153.775
-153.685
-153.71
-153.775
-153.74
-153.71
-153.685
-153.665
-153.69
-153.665
-153.66
10.155
10.225
10.315
10.425
10.45
10.425
10.485
10.47
10.485
10.435
10.45
10.415
10.345
-10.14
-153.635
-153.74
-153.905
-154.07
-154.12
-154.155
-154.065
-153.945
-153.945
-153.94
-153.85
-153.83
-153.705
-153.715
-153.77
-153.755
-153.725
-153.76
-153.755
-153.72
-153.72
-153.715
-153.7
-153.72
-153.735
-153.74
-153.745
-153.68
-153.72
-153.705
-153.685
-153.7
-153.765
-153.81
-153.695
-153.63
-153.685
-153.7
-153.705
-153.685
-153.695
-153.66
-153.72
-153.72
-153.715
-153.63
-153.67
-153.675
-153.7
-153.69
-153.69
-153.695
-153.67
-153.67
-153.66
-153.7
-153.69
-153.675
-153.63
-153.635
-153.62
-153.66
-153.655
-153.63
-153.675
-10.225
-153.605
-153.615
-153.61
10.24
10.225
10.225
-153.625
-153.63
10.245
10.265
10.245
10.22
10.255
10.245
10.215
10.22
10.235
10.265
10.25
10.215
-153.615
10.3
10.375
10.345
10.32
10.32
10.29
10.31
10.33
10.31
10.3
10.26
10.32
10.465
10.365
10.335
10.345
10.385
10.315
10.345
10.435
10.405
10.38
10.38
10.385
10.38
10.375
10.395
10.34
10.36
10.32
10.345
10.35
10.385
10.35
10.33
10.31
10.255
10.27
10.295
10.285
10.28
10.245
10.235
10.265
-153.65
-10.235
-153.65
10.2
10.22
10.195
-10.235
-153.62
-153.63
-153.655
-153.64
-153.705
-153.65
-153.68
-153.645
-153.65
-153.635
-153.635
-10.215
-153.635
-153.685
-153.705
-153.7
-153.7
-153.705
-153.725
-153.65
-153.625
-153.61
-153.665
-153.7
-153.665
-153.655
-153.695
-153.725
-153.73
-153.655
-153.655
-153.675
-153.67
-153.705
-153.65
-153.615
-153.625
-153.67
-153.655
-153.63
-153.605
-153.63
-153.64
-153.66
-153.66
-153.65
-153.615
-153.665
-153.705
-153.755
-153.695
-10.225
-153.605
-153.615
-153.625
-153.65
-153.66
-153.655
-153.63
-153.655
-153.67
-153.65
-153.615
-153.63
-153.62
-153.63
-153.625
-153.65
-153.645
-153.635
-153.675
-153.655
-153.635
-153.65
-153.66
-10.24
-153.625
-153.68
-153.65
-153.64
-153.705
-153.71
-153.645
-153.645
-153.645
-153.65
-153.61
-153.625
-153.615
-153.635
-153.735
-153.67
-153.625
-153.625
-153.665
-153.675
-153.67
-153.635
-153.625
-153.655
-153.7
-153.69
-153.68
-153.69
-153.695
10.155
10.16
-153.665
-153.67
-153.69
-153.635
-153.605
-153.645
10.185
10.22
10.2
-153.65
-153.635
-10.225
-153.605
10.22
10.24
10.24
-153.625
-153.64
10.19
10.225
10.205
-10.195
-153.605
10.23
10.215
10.205
10.22
-153.635
-153.635
-10.24
-153.625
-153.715
-153.65
-153.66
-153.66
-10.225
-153.615
-153.67
-153.705
-153.69
-153.67
-10.22
-153.605
-153.655
-153.65
-153.64
-153.7
-153.735
-153.615
-153.645
-153.68
-153.675
-153.66
-153.625
-153.67
-153.68
-153.7
-153.655
-153.67
-153.685
-153.77
-153.655
-153.66
-153.655
-153.675
-153.7
-153.64
-10.235
-153.62
10.22
10.22
10.235
10.29
10.36
10.44
10.555
10.615
10.62
10.565
10.565
10.695
10.745
10.66
10.605
10.54
10.495
10.4
10.285
-153.67
-153.855
-154.055
-154.12
-154.05
-154.04
-154.015
-153.885
-153.79
-153.825
-153.755
-153.685
-153.68
-153.71
-153.755
-153.65
-153.625
-153.635
-153.675
-153.625
-10.215
-153.66
-153.63
-153.625
-153.62
-153.625
-153.625
-153.655
-153.625
-153.65
-153.63
-153.625
-153.62
-153.67
-153.63
-153.625
-153.67
-153.615
-153.61
-153.62
10.22
10.21
-153.625
-153.65
-153.68
-153.685
10.17
10.2
10.185
-10.225
-153.61
10.255
10.255
10.255
10.305
10.24
10.225
10.245
10.225
-153.615
10.245
10.27
10.28
10.29
10.37
-10.175
-153.615
10.17
10.2
10.225
10.25
10.235
10.28
10.265
10.23
10.265
10.24
10.245
10.215
10.265
10.26
10.28
10.3
10.265
10.33
10.325
10.325
10.33
10.31
10.315
10.31
10.33
10.345
10.34
10.295
10.36
10.39
10.35
10.35
10.34
10.395
10.35
10.38
10.335
10.295
10.365
10.405
10.38
10.325
10.33
10.42
10.415
10.37
10.355
10.345
10.34
10.36
10.345
10.325
10.3
10.34
10.365
10.265
10.205
10.255
10.29
10.2
10.295
10.235
10.21
10.285
10.23
10.205
-153.605
10.205
10.25
-153.62
-153.61
10.195
10.235
-153.665
-10.235
-153.605
-10.23
-153.615
-153.645
-153.63
-153.63
-153.675
-153.61
-10.22
-153.625
-153.63
-10.22
-153.615
-153.645
-153.645
-153.65
-153.655
-153.63
-153.665
-153.645
-153.645
-153.65
-10.24
-153.63
-153.625
-153.645
-153.645
-153.65
-153.68
-153.625
-153.62
-10.225
-153.625
-10.215
-153.615
-153.645
-153.72
-153.61
-10.205
-153.665
-153.62
10.215
10.19
-153.62
-153.625
-153.62
-153.625
-153.635
-153.685
-153.655
-153.65
-153.635
-153.625
-153.685
-153.66
10.235
10.195
-153.62
-10.23
-153.62
-153.665
-153.625
-153.645
-153.655
-153.64
-153.625
-153.66
-153.655
-153.61
-153.635
-153.625
-10.235
-153.62
-153.63
-153.62
-153.685
-153.785
-153.645
-10.235
-153.61
-153.61
-153.63
-153.615
-153.61
-153.655
-153.695
-153.675
-153.64
-153.645
-153.635
-153.65
-153.645
-153.64
-153.665
-153.655
-10.235
-153.605
-153.605
-153.645
-153.635
10.235
10.245
-153.645
-153.625
10.205
10.18
10.25
10.22
10.21
10.215
10.205
10.19
-153.61
-153.61
-153.63
-153.64
-153.61
-10.22
-153.645
-153.615
-153.685
-153.705
-153.72
-153.715
-153.62
-153.655
-153.665
-153.64
-153.685
-153.705
-153.685
-153.63
-153.645
-153.735
-153.655
-153.63
-153.685
-153.71
-153.685
-153.655
-153.67
-153.71
-153.68
-153.635
-153.69
-153.7
-153.715
-153.705
-153.715
-153.68
-153.675
-153.67
-153.7
-153.695
-153.685
-153.68
-153.68
-153.635
10.215
10.22
-153.645
-153.64
10.26
10.365
10.445
10.53
10.53
10.57
10.575
10.545
10.445
10.39
10.53
10.56
10.45
10.35
10.265
-153.675
-153.86
-154.015
-154.05
-154.05
-154.005
-153.985
-153.94
-153.85
-153.795
-153.78
-153.765
-153.715
-153.725
-153.715
-153.695
-153.685
-153.695
-153.71
-153.635
-153.665
-153.635
-153.66
-153.675
-153.71
-153.715
-153.695
-153.715
-153.705
-153.66
-153.665
-153.705
-153.71
-153.655
-153.64
-153.63
-153.685
-153.75
-153.635
-10.215
-153.66
-153.645
-153.645
-153.66
-153.65
-153.66
-153.66
-153.645
-153.665
-153.665
-10.215
-153.625
-153.67
-153.64
-153.61
-10.215
-153.635
-153.63
-153.61
-153.635
-153.65
-153.605
-10.23
-153.655
-153.675
10.16
10.24
-10.19
-153.615
-153.625
10.195
10.195
10.185
10.165
10.2
10.18
10.27
10.245
10.21
10.2
10.25
10.34
10.28
10.24
10.23
10.21
10.24
10.21
10.275
10.285
10.28
10.28
10.295
10.3
10.275
10.26
10.305
10.31
10.26
10.315
10.365
10.32
10.32
10.35
10.355
10.285
10.28
10.305
10.345
10.325
10.285
10.305
10.3
10.27
10.3
10.27
10.285
10.31
10.285
10.28
10.295
10.22
-153.63
-153.615
10.18
10.265
10.205
10.215
10.205
-153.61
-153.62
-153.66
-153.64
-153.645
-153.655
-153.65
-153.605
-153.605
-153.64
-153.68
-153.725
-153.645
-153.635
-153.665
-153.705
-153.705
-153.685
-153.705
-153.685
-153.685
-153.725
-153.7
-153.705
-153.695
-153.705
-153.76
-153.705
-153.61
-153.66
-153.7
-153.655
-153.685
-153.735
-153.75
-153.725
-153.67
-153.725
-153.66
-153.68
-153.705
-153.67
-153.655
-153.665
-153.69
-153.755
-153.705
-153.68
-153.685
-153.695
-153.73
-153.695
-153.705
-153.63
-153.655
-153.675
-153.68
-153.655
-153.67
-153.68
-153.715
-153.71
-153.67
-153.64
-153.705
-153.725
-153.75
-153.755
-153.665
-153.67
-153.725
-153.68
-153.71
-153.735
-153.655
-153.655
-153.665
-153.675
-153.73
-153.69
-153.7
-153.71
-153.735
-153.715
-153.68
-153.66
-153.62
-153.71
-153.755
-153.74
-153.705
-153.74
-153.745
-153.705
-153.735
-153.74
-153.68
-153.665
-153.68
-153.7
-153.7
-153.715
-153.75
-153.725
-153.765
-153.69
-153.72
-153.74
-153.67
-153.665
-153.66
-153.73
-153.7
-153.705
-153.69
-153.715
-153.66
-153.68
-153.7
-153.665
-153.695
-153.68
-153.685
-153.665
-153.65
-153.655
-153.655
-153.61
-153.65
-153.635
-153.66
-153.64
-153.69
-153.705
-153.76
-153.7
-153.64
-153.695
-153.73
-153.715
-153.705
-153.705
-153.72
-153.745
-153.76
-153.745
-153.73
-153.755
-153.81
-153.83
-153.725
-153.68
-153.78
-153.745
-153.715
-153.715
-153.75
-153.705
-153.755
-153.765
-153.755
-153.715
-153.765
-153.8
-153.795
-153.745
-153.76
-153.775
-153.735
-153.775
-153.73
-153.71
-153.74
-153.715
-153.71
-153.685
-153.65
-153.64
-153.635
10.195
10.26
10.35
10.395
10.425
10.505
10.51
10.53
10.55
10.51
10.48
10.445
10.41
10.265
-10.23
-153.71
-153.88
-153.99
-154.065
-154.075
-154.05
-154.04
-153.94
-153.875
-153.85
-153.82
-153.825
-153.825
-153.775
-153.715
-153.74
-153.77
-153.745
-153.74
-153.74
-153.735
-153.735
-153.765
-153.805
-153.76
-153.755
-153.8
-153.735
-153.725
-153.715
-153.755
-153.775
-153.695
-153.665
-153.72
-153.715
-153.71
-153.715
-153.715
-153.675
-153.7
-153.73
-153.765
-153.735
-153.7
-153.685
-153.72
-153.76
-153.695
-153.68
-153.655
-153.695
-153.66
-153.725
-153.7
-153.74
-153.73
-153.69
-153.72
-153.695
-153.65
-153.725
-153.725
-153.64
-153.645
-153.68
-153.69
-153.63
-153.63
-153.67
-153.68
-153.655
-153.63
-153.66
-153.745
-153.655
-153.655
-153.62
10.25
10.215
10.215
10.225
10.22
10.23
10.225
-153.615
-10.23
-153.605
10.275
10.31
10.3
10.25
10.33
10.34
10.26
10.275
10.29
10.34
10.33
10.335
10.29
10.245
10.275
10.35
10.35
10.305
10.29
10.335
10.315
10.315
10.315
10.315
10.29
10.355
10.27
10.265
10.345
10.3
-10.195
-153.61
10.235
10.22
10.225
10.2
10.185
-153.65
-153.63
-153.62
-153.645
-153.68
-153.665
-153.695
-153.655
-153.71
-153.76
-153.735
-153.67
-153.725
-153.7
-153.665
-153.71
-153.715
-153.83
-153.725
-153.725
-153.745
-153.73
-153.735
-153.715
-153.745
-153.74
-153.74
-153.735
-153.74
-153.745
-153.83
10.08
-153.725
-153.755
-153.77
-153.72
-153.73
-153.745
-153.735
-153.765
-153.74
-153.755
-153.72
-153.71
-153.75
-153.795
-153.785
-153.77
-153.79
-153.765
-153.73
-153.81
-153.715
-153.715
-153.755
-153.715
-153.695
-153.695
-153.765
-153.795
-153.765
-153.73
-153.76
-153.785
-153.765
-153.67
-153.71
-153.73
-153.765
-153.74
-153.73
-153.775
-153.785
-153.755
-153.695
-153.74
-153.71
-153.705
-153.73
-153.75
-153.735
-153.795
-153.73
-153.74
-153.755
-153.695
-153.72
-153.71
-153.685
-153.7
-153.73
-153.735
-153.745
-153.75
-153.73
-153.74
-153.755
-153.755
-153.77
-153.77
-153.755
-153.76
-153.725
-153.715
-153.74
-153.76
-153.785
-153.8
-153.82
-153.755
-153.725
-153.73
-153.7
-153.67
-153.7
-153.755
-153.735
-153.725
-153.71
-153.715
-153.76
-153.78
-153.69
-153.66
-153.685
-153.69
-153.71
-153.71
-153.645
-153.66
-153.66
-153.68
-153.725
-153.73
-153.7
-153.705
-153.745
-153.72
-153.71
-153.72
-153.745
-153.79
-153.735
-153.775
-153.77
-153.74
-153.76
-153.795
-153.75
-153.715
-153.815
-153.875
-153.75
-153.685
-153.745
-153.77
-153.745
-153.745
-153.75
-153.81
-153.775
-153.735
-153.75
-153.76
-153.75
-153.74
-153.765
-153.795
-153.79
-153.78
-153.745
-153.74
-153.755
-153.715
-153.64
-153.665
-153.67
-153.65
-153.61
10.51
10.565
10.58
10.62
10.73
10.705
10.7
10.62
10.615
10.605
10.585
-10.145
-153.61
-153.675
-153.735
-153.87
-154.035
-154.13
-154.085
-154.005
-153.925
-153.895
-153.875
-153.835
-153.79
-153.795
-153.785
-153.76
-153.78
-153.755
-153.745
-153.77
-153.765
-153.76
-153.775
-153.815
-153.765
-153.77
-153.72
-153.715
-153.75
-153.835
-153.84
-153.71
-153.675
-153.74
-153.71
-153.7
-153.7
-153.695
-153.71
-153.71
