# TIPE ECG 2021 - ECG-ID Database v1.0.0 par Physionet
# [Numéro de la personne, Période d'échantillonnage, Prénom, Age, Sexe, Date de l'enregistrement]
[28, 0.002, Michael, 44, H, 24.05.2005]
-1.04
-1.005
-1.06
-1.025
-1.035
-1.045
-0.98
-0.98
-1.015
-1.055
-1.005
-1.005
-1.01
-1.02
-1.01
-1.015
-1.01
-1.005
-0.995
-1.0
-1.005
-0.97
-1.005
-0.965
-0.955
-1.06
-1.06
-1.005
-0.985
-1.005
-1.01
-1.055
-1.06
-1.025
-1.0
-1.005
-1.03
-1.01
-1.035
-1.0
-1.005
-1.02
-1.035
-1.045
-1.03
-1.015
-1.0
-0.98
-1.005
-1.04
-1.06
-1.02
-1.02
-1.005
-1.05
-1.025
-1.025
-0.98
-1.03
-1.025
-1.05
-1.06
-1.035
-1.04
-1.035
-1.055
-1.07
-1.02
-1.045
-1.055
-1.035
-1.03
-1.055
-1.035
-1.0
-1.05
-1.005
-1.015
-1.085
-1.06
-0.995
-1.0
-1.01
-1.01
-1.025
-1.06
-1.06
-0.975
-1.03
-1.015
-1.065
-1.045
-1.02
-1.05
-1.055
-1.055
-1.04
-1.05
-0.985
-0.995
-1.025
-1.02
-1.05
-1.015
-1.03
-1.06
-1.08
-1.055
-1.065
-1.085
-1.015
-1.04
-1.065
-1.015
-1.04
-1.05
-1.02
-0.99
-1.045
-1.01
-1.03
-1.035
-1.03
-1.055
-1.0
-1.055
-1.06
-1.025
-0.96
-0.965
-0.93
-0.945
-0.95
-0.97
-0.955
-0.995
-0.98
-0.99
-0.985
-0.975
-0.985
-1.02
-1.06
-1.015
-1.035
-1.04
-1.0
-1.01
-1.06
-1.05
-1.025
-1.03
-1.065
-1.005
-1.03
-1.045
-1.02
-1.045
-1.055
-1.025
-1.015
-1.06
-1.06
-1.015
-1.055
-1.065
-1.015
-1.12
-1.115
-1.035
-1.05
-1.08
-1.1
-1.1
-1.14
-1.195
-1.155
-1.145
-1.155
-1.14
-1.115
-1.1
-0.975
-0.86
-0.775
-0.705
-0.6
-0.505
-0.43
-0.355
-0.33
-0.3
-0.295
-0.355
-0.475
-0.615
-0.745
-0.895
-1.02
-1.17
-1.215
-1.265
-1.255
-1.145
-1.08
-1.065
-1.045
-1.045
-1.05
-0.995
-1.0
-1.03
-1.065
-1.06
-1.035
-1.03
-1.01
-1.02
-1.03
-1.01
-1.035
-1.03
-0.985
-0.995
-1.075
-1.045
-1.01
-1.02
-1.03
-1.02
-1.03
-1.01
-1.03
-1.035
-1.05
-1.015
-0.985
-0.97
-1.0
-0.985
-0.98
-1.06
-1.005
-0.975
-0.98
-0.98
-0.93
-0.925
-0.965
-0.95
-0.985
-0.99
-0.995
-0.96
-0.955
-0.905
-0.915
-0.955
-0.92
-0.905
-0.935
-0.945
-0.925
-0.925
-0.935
-0.93
-0.905
-0.93
-0.87
-0.82
-0.885
-0.895
-0.905
-0.91
-0.925
-0.845
-0.765
-0.795
-0.765
-0.76
-0.79
-0.79
-0.78
-0.77
-0.815
-0.725
-0.73
-0.78
-0.755
-0.725
-0.715
-0.675
-0.675
-0.685
-0.705
-0.65
-0.665
-0.635
-0.645
-0.64
-0.685
-0.67
-0.665
-0.655
-0.725
-0.695
-0.635
-0.645
-0.695
-0.67
-0.71
-0.77
-0.785
-0.725
-0.775
-0.77
-0.785
-0.845
-0.84
-0.815
-0.905
-0.91
-0.865
-0.915
-0.965
-0.94
-0.975
-0.94
-0.96
-0.98
-0.98
-0.97
-0.94
-1.015
-0.98
-0.955
-0.965
-1.01
-1.05
-1.015
-1.035
-1.005
-1.02
-1.075
-1.055
-1.0
-1.005
-0.995
-0.965
-0.965
-1.015
-1.02
-0.99
-1.03
-1.01
-0.985
-1.01
-1.035
-1.015
-1.025
-1.035
-1.01
-1.005
-1.015
-0.995
-0.995
-1.0
-1.03
-1.03
-1.005
-0.97
-0.965
-1.005
-0.97
-0.99
-0.97
-1.015
-1.04
-1.06
-0.98
-1.05
-1.05
-0.98
-1.01
-0.975
-0.94
-0.96
-0.975
-0.985
-1.01
-1.01
-0.96
-0.995
-1.03
-1.05
-0.99
-1.015
-1.01
-0.99
-1.035
-1.01
-1.005
-1.0
-1.025
-0.98
-0.955
-0.96
-1.01
-1.005
-1.025
-1.03
-0.975
-1.015
-1.02
-1.0
-0.98
-1.005
-0.96
-0.955
-1.02
-1.0
-0.99
-1.005
-1.035
-1.005
-0.97
-0.96
-0.96
-0.985
-1.04
-1.015
-1.025
-0.995
-1.01
-1.0
-0.96
-1.015
-0.995
-1.005
-1.035
-1.045
-1.02
-1.03
-0.99
-0.965
-0.96
-1.035
-1.035
-0.955
-0.98
-1.02
-1.005
-1.005
-1.025
-0.98
-0.995
-1.005
-1.0
-0.985
-1.025
-1.015
-0.995
-1.005
-0.99
-0.97
-0.97
-0.995
-1.005
-0.975
-1.035
-0.99
-1.02
-1.045
-1.025
-0.995
-1.02
-1.025
-0.995
-1.035
-1.025
-0.99
-0.98
-1.0
-1.01
-1.025
-1.045
-1.065
-1.025
-0.985
-0.975
-1.0
-0.98
-1.01
-0.98
-0.955
-0.985
-0.985
-0.995
-0.965
-0.985
-0.98
-0.96
-0.955
-0.955
-0.875
-0.9
-0.925
-0.905
-0.91
-0.915
-0.955
-0.96
-0.98
-0.96
-0.975
-1.03
-1.0
-1.005
-1.05
-1.115
-1.025
-1.0
-0.965
-0.96
-0.975
-0.96
-0.975
-0.96
-0.99
-1.015
-1.035
-1.02
-1.02
-0.98
-0.95
-0.96
-0.99
-0.98
-1.0
-1.04
-1.015
-0.985
-1.035
-1.02
-1.035
-1.015
-1.04
-1.045
-1.085
-1.15
-1.135
-1.14
-1.12
-1.06
-0.995
-0.905
-0.865
-0.77
-0.76
-0.695
-0.585
-0.5
-0.395
-0.275
-0.29
-0.29
-0.305
-0.355
-0.52
-0.7
-0.8
-0.93
-1.065
-1.13
-1.115
-1.215
-1.2
-1.095
-1.1
-1.07
-1.075
-1.095
-1.04
-0.985
-0.99
-1.04
-0.995
-1.025
-1.005
-0.985
-0.99
-0.96
-0.975
-0.995
-0.995
-1.025
-0.97
-0.92
-0.955
-0.935
-0.985
-1.045
-1.03
-0.91
-0.95
-0.95
-0.945
-0.945
-0.96
-0.925
-0.975
-0.95
-0.955
-0.95
-0.985
-0.965
-0.975
-1.0
-0.985
-0.945
-0.94
-0.925
-0.92
-0.895
-0.945
-0.91
-0.955
-0.925
-0.95
-0.89
-0.905
-0.92
-0.91
-0.87
-0.84
-0.85
-0.845
-0.88
-0.92
-0.9
-0.855
-0.865
-0.88
-0.795
-0.835
-0.845
-0.82
-0.805
-0.83
-0.815
-0.855
-0.855
-0.77
-0.74
-0.75
-0.74
-0.745
-0.725
-0.72
-0.685
-0.72
-0.715
-0.69
-0.665
-0.675
-0.67
-0.65
-0.62
-0.61
-0.635
-0.65
-0.605
-0.59
-0.57
-0.595
-0.61
-0.64
-0.67
-0.64
-0.61
-0.635
-0.685
-0.715
-0.655
-0.675
-0.665
-0.675
-0.72
-0.75
-0.765
-0.805
-0.83
-0.805
-0.815
-0.845
-0.885
-0.895
-0.885
-0.935
-0.89
-0.895
-0.89
-0.915
-0.925
-0.92
-0.97
-0.91
-0.965
-0.965
-0.93
-0.955
-0.995
-0.965
-0.925
-0.98
-1.005
-0.96
-1.005
-1.01
-0.995
-1.0
-1.005
-0.995
-0.975
-0.96
-0.97
-0.985
-1.035
-0.99
-0.985
-0.965
-0.99
-0.95
-0.935
-0.93
-0.975
-0.95
-0.915
-0.945
-0.995
-0.985
-1.025
-1.025
-0.95
-0.975
-0.975
-0.945
-0.95
-0.96
-0.955
-0.97
-0.955
-0.925
-0.945
-0.99
-0.975
-0.945
-1.015
-1.04
-0.975
-0.925
-0.925
-0.945
-0.925
-0.98
-0.975
-0.935
-0.995
-0.97
-0.99
-0.945
-0.97
-1.0
-0.99
-0.965
-0.97
-0.975
-0.985
-0.98
-0.99
-0.945
-0.94
-0.92
-0.905
-0.935
-0.92
-0.945
-0.94
-0.985
-0.965
-0.965
-1.03
-1.02
-1.08
-0.985
-0.96
-0.92
-0.95
-0.95
-0.945
-0.935
-0.935
-0.935
-0.93
-0.95
-0.96
-0.99
-0.99
-0.97
-1.005
-1.025
-1.01
-0.98
-0.98
-1.005
-1.0
-1.02
-0.995
-0.98
-0.95
-0.97
-0.95
-0.935
-0.985
-0.97
-0.96
-0.97
-1.01
-0.975
-0.965
-0.98
-1.005
-1.015
-1.06
-0.98
-0.92
-0.93
-0.97
-0.935
-0.935
-1.0
-1.015
-0.96
-0.965
-0.94
-0.93
-0.955
-1.0
-0.99
-0.975
-0.965
-0.985
-1.015
-1.015
-0.945
-0.935
-0.925
-0.96
-1.005
-1.0
-1.015
-1.04
-0.93
-0.935
-0.945
-0.96
-0.975
-1.015
-0.975
-0.995
-0.925
-0.935
-0.965
-1.04
-1.01
-1.005
-0.965
-0.945
-0.96
-0.925
-0.95
-0.89
-0.84
-0.845
-0.86
-0.87
-0.91
-0.93
-0.95
-0.945
-0.96
-0.93
-0.95
-0.97
-0.975
-0.975
-0.965
-0.94
-1.01
-0.975
-0.995
-0.945
-0.945
-0.975
-0.97
-0.955
-0.975
-0.955
-0.98
-0.975
-0.995
-0.97
-0.975
-0.975
-0.995
-1.03
-1.045
-0.975
-0.985
-0.965
-0.955
-0.93
-0.965
-0.99
-1.01
-1.015
-1.05
-1.07
-1.09
-1.14
-1.145
-1.05
-1.03
-1.01
-0.91
-0.805
-0.71
-0.63
-0.6
-0.515
-0.375
-0.275
-0.235
-0.21
-0.19
-0.3
-0.41
-0.57
-0.705
-0.86
-1.01
-1.155
-1.145
-1.16
-1.15
-1.085
-1.06
-1.075
-1.02
-1.01
-0.97
-0.935
-0.98
-0.965
-0.94
-0.95
-1.015
-0.945
-0.96
-1.02
-0.96
-0.935
-0.935
-0.94
-0.94
-0.95
-0.97
-0.965
-0.93
-0.975
-0.945
-0.895
-0.945
-1.005
-0.995
-0.95
-0.9
-0.93
-0.895
-0.935
-0.935
-0.895
-0.905
-0.925
-0.9
-0.885
-0.925
-0.915
-0.925
-0.935
-0.91
-0.86
-0.85
-0.86
-0.86
-0.925
-0.91
-0.875
-0.855
-0.905
-0.93
-0.9
-0.83
-0.835
-0.83
-0.84
-0.87
-0.82
-0.87
-0.86
-0.805
-0.835
-0.85
-0.86
-0.87
-0.86
-0.77
-0.735
-0.75
-0.76
-0.73
-0.715
-0.745
-0.72
-0.7
-0.71
-0.725
-0.735
-0.7
-0.685
-0.645
-0.615
-0.645
-0.655
-0.625
-0.655
-0.595
-0.585
-0.615
-0.615
-0.575
-0.56
-0.56
-0.59
-0.58
-0.555
-0.595
-0.64
-0.67
-0.65
-0.63
-0.59
-0.645
-0.675
-0.66
-0.74
-0.735
-0.75
-0.735
-0.73
-0.745
-0.785
-0.82
-0.835
-0.835
-0.845
-0.84
-0.89
-0.955
-0.91
-0.9
-0.89
-0.9
-0.935
-0.925
-0.92
-0.9
-0.92
-0.92
-0.93
-0.92
-0.92
-0.93
-0.93
-0.94
-0.955
-0.975
-0.945
-0.94
-0.935
-0.9
-0.95
-0.975
-0.975
-0.97
-0.95
-0.94
-0.93
-0.96
-0.93
-0.895
-0.95
-0.925
-0.905
-0.9
-0.95
-0.985
-0.96
-0.945
-0.925
-0.915
-0.91
-0.925
-0.96
-0.965
-0.965
-0.89
-0.95
-0.965
-0.955
-0.9
-0.925
-0.92
-0.905
-0.93
-0.94
-0.93
-0.925
-0.945
-0.905
-0.9
-0.91
-0.89
-0.885
-0.92
-0.96
-0.92
-0.92
-0.91
-0.905
-0.91
-0.9
-0.89
-0.885
-0.92
-0.925
-0.915
-0.94
-0.97
-0.91
-0.945
-0.955
-0.915
-0.885
-0.925
-0.945
-0.925
-0.895
-0.94
-0.96
-0.92
-0.94
-0.925
-0.94
-0.985
-0.965
-0.91
-0.925
-1.0
-0.885
-0.88
-0.87
-0.945
-0.88
-0.92
-0.945
-0.95
-0.94
-0.92
-0.905
-0.925
-0.93
-0.915
-0.9
-0.955
-0.96
-0.915
-0.915
-0.925
-0.845
-0.9
-0.97
-0.915
-0.93
-0.955
-0.91
-0.91
-0.93
-0.955
-0.915
-0.91
-0.995
-0.98
-0.94
-0.965
-0.935
-0.925
-0.94
-0.93
-0.88
-0.895
-0.915
-0.935
-0.915
-1.0
-0.95
-0.91
-0.935
-0.945
-0.915
-0.9
-0.91
-0.92
-0.91
-0.965
-0.95
-0.925
-0.95
-0.925
-0.895
-0.915
-0.93
-0.925
-0.9
-0.965
-0.915
-0.855
-0.915
-0.97
-0.915
-0.93
-0.855
-0.9
-0.9
-0.885
-0.85
-0.825
-0.835
-0.88
-0.82
-0.83
-0.87
-0.86
-0.91
-0.935
-0.925
-0.885
-0.94
-0.955
-0.915
-0.88
-0.88
-0.9
-0.93
-0.93
-0.92
-0.92
-0.925
-0.91
-0.895
-0.91
-0.935
-0.935
-0.91
-0.935
-0.945
-0.955
-0.935
-0.95
-0.93
-0.92
-0.87
-0.905
-0.91
-0.93
-0.955
-0.95
-0.95
-0.945
-0.915
-1.03
-1.08
-1.04
-1.055
-1.11
-1.055
-1.02
-0.97
-0.875
-0.795
-0.655
-0.635
-0.575
-0.49
-0.4
-0.315
-0.23
-0.215
-0.165
-0.145
-0.22
-0.41
-0.59
-0.75
-0.905
-0.995
-1.07
-1.095
-1.08
-1.03
-0.99
-0.965
-0.96
-0.935
-0.975
-0.97
-0.94
-0.9
-0.885
-0.905
-0.895
-0.84
-0.87
-0.925
-0.955
-0.895
-0.84
-0.85
-0.89
-0.925
-0.92
-0.895
-0.91
-0.94
-0.935
-0.9
-0.92
-0.88
-0.815
-0.85
-0.845
-0.915
-0.875
-0.885
-0.915
-0.89
-0.875
-0.875
-0.835
-0.86
-0.82
-0.83
-0.84
-0.88
-0.86
-0.85
-0.845
-0.865
-0.825
-0.81
-0.85
-0.85
-0.76
-0.82
-0.835
-0.835
-0.835
-0.795
-0.76
-0.76
-0.775
-0.79
-0.765
-0.78
-0.78
-0.79
-0.765
-0.735
-0.72
-0.725
-0.705
-0.72
-0.7
-0.725
-0.68
-0.675
-0.67
-0.68
-0.66
-0.645
-0.655
-0.63
-0.67
-0.64
-0.605
-0.615
-0.6
-0.58
-0.56
-0.555
-0.55
-0.56
-0.57
-0.58
-0.555
-0.515
-0.555
-0.545
-0.52
-0.505
-0.52
-0.52
-0.545
-0.545
-0.545
-0.625
-0.615
-0.555
-0.545
-0.615
-0.64
-0.67
-0.64
-0.72
-0.725
-0.725
-0.745
-0.74
-0.71
-0.705
-0.78
-0.835
-0.81
-0.85
-0.845
-0.83
-0.85
-0.85
-0.83
-0.835
-0.845
-0.855
-0.905
-0.865
-0.85
-0.875
-0.94
-0.89
-0.86
-0.87
-0.85
-0.855
-0.855
-0.87
-0.86
-0.885
-0.885
-0.88
-0.855
-0.87
-0.915
-0.885
-0.9
-0.905
-0.915
-0.875
-0.92
-0.86
-0.845
-0.905
-0.915
-0.89
-0.845
-0.815
-0.81
-0.875
-0.88
-0.815
-0.82
-0.865
-0.86
-0.86
-0.875
-0.86
-0.88
-0.87
-0.85
-0.855
-0.84
-0.9
-0.86
-0.83
-0.835
-0.84
-0.865
-0.895
-0.875
-0.83
-0.805
-0.85
-0.9
-0.875
-0.875
-0.855
-0.835
-0.835
-0.88
-0.84
-0.87
-0.85
-0.85
-0.875
-0.865
-0.865
-0.86
-0.865
-0.84
-0.85
-0.89
-0.855
-0.885
-0.85
-0.875
-0.835
-0.855
-0.885
-0.875
-0.86
-0.845
-0.935
-0.885
-0.83
-0.85
-0.84
-0.805
-0.865
-0.875
-0.87
-0.84
-0.815
-0.85
-0.85
-0.87
-0.925
-0.88
-0.91
-0.88
-0.84
-0.87
-0.885
-0.86
-0.85
-0.825
-0.835
-0.865
-0.9
-0.89
-0.855
-0.855
-0.815
-0.81
-0.875
-0.915
-0.875
-0.865
-0.875
-0.86
-0.835
-0.815
-0.82
-0.825
-0.875
-0.88
-0.875
-0.865
-0.875
-0.875
-0.835
-0.875
-0.88
-0.885
-0.855
-0.87
-0.875
-0.86
-0.86
-0.86
-0.825
-0.845
-0.865
-0.855
-0.875
-0.87
-0.86
-0.865
-0.845
-0.825
-0.855
-0.885
-0.89
-0.86
-0.885
-0.87
-0.86
-0.84
-0.88
-0.875
-0.85
-0.835
-0.79
-0.84
-0.88
-0.825
-0.78
-0.77
-0.76
-0.73
-0.74
-0.755
-0.77
-0.765
-0.78
-0.795
-0.8
-0.83
-0.83
-0.82
-0.835
-0.845
-0.855
-0.835
-0.835
-0.835
-0.84
-0.87
-0.865
-0.84
-0.79
-0.86
-0.87
-0.825
-0.88
-0.865
-0.86
-0.88
-0.86
-0.85
-0.83
-0.83
-0.86
-0.865
-0.875
-0.885
-0.86
-0.84
-0.88
-0.82
-0.88
-0.88
-0.895
-0.885
-0.925
-0.965
-0.985
-1.0
-1.02
-0.915
-0.84
-0.755
-0.715
-0.59
-0.575
-0.46
-0.335
-0.325
-0.26
-0.155
-0.095
-0.06
-0.095
-0.215
-0.39
-0.52
-0.665
-0.835
-0.96
-1.0
-0.99
-0.99
-0.95
-0.945
-0.91
-0.89
-0.885
-0.905
-0.86
-0.84
-0.845
-0.79
-0.83
-0.84
-0.81
-0.78
-0.79
-0.82
-0.81
-0.815
-0.815
-0.815
-0.81
-0.775
-0.8
-0.81
-0.835
-0.86
-0.815
-0.79
-0.765
-0.755
-0.77
-0.81
-0.835
-0.785
-0.81
-0.8
-0.75
-0.675
-0.78
-0.765
-0.775
-0.775
-0.78
-0.755
-0.765
-0.755
-0.75
-0.72
-0.75
-0.745
-0.72
-0.73
-0.755
-0.73
-0.75
-0.74
-0.725
-0.69
-0.7
-0.75
-0.745
-0.705
-0.71
-0.68
-0.715
-0.65
-0.615
-0.62
-0.665
-0.64
-0.63
-0.655
-0.64
-0.6
-0.595
-0.605
-0.57
-0.565
-0.585
-0.53
-0.54
-0.565
-0.54
-0.51
-0.515
-0.545
-0.505
-0.49
-0.5
-0.46
-0.445
-0.475
-0.455
-0.43
-0.485
-0.415
-0.405
-0.465
-0.46
-0.46
-0.47
-0.43
-0.44
-0.45
-0.495
-0.465
-0.44
-0.475
-0.525
-0.53
-0.5
-0.56
-0.57
-0.56
-0.615
-0.62
-0.61
-0.625
-0.645
-0.665
-0.68
-0.705
-0.705
-0.69
-0.735
-0.73
-0.7
-0.695
-0.74
-0.745
-0.745
-0.75
-0.77
-0.795
-0.835
-0.81
-0.715
-0.73
-0.805
-0.79
-0.755
-0.765
-0.805
-0.825
-0.86
-0.795
-0.74
-0.75
-0.74
-0.765
-0.815
-0.82
-0.785
-0.775
-0.78
-0.79
-0.765
-0.77
-0.72
-0.795
-0.845
-0.78
-0.79
-0.765
-0.79
-0.775
-0.735
-0.77
-0.77
-0.785
-0.79
-0.74
-0.8
-0.785
-0.795
-0.795
-0.725
-0.755
-0.765
-0.73
-0.795
-0.8
-0.805
-0.75
-0.76
-0.75
-0.7
-0.785
-0.775
-0.71
-0.8
-0.795
-0.765
-0.78
-0.75
-0.775
-0.785
-0.77
-0.765
-0.77
-0.8
-0.8
-0.78
-0.755
-0.79
-0.78
-0.765
-0.755
-0.795
-0.755
-0.775
-0.805
-0.805
-0.77
-0.84
-0.785
-0.735
-0.745
-0.785
-0.785
-0.76
-0.75
-0.77
-0.785
-0.79
-0.76
-0.74
-0.75
-0.76
-0.845
-0.84
-0.77
-0.73
-0.735
-0.77
-0.765
-0.765
-0.8
-0.755
-0.785
-0.8
-0.775
-0.75
-0.75
-0.79
-0.805
-0.775
-0.755
-0.745
-0.755
-0.81
-0.805
-0.76
-0.81
-0.815
-0.73
-0.73
-0.78
-0.83
-0.79
-0.805
-0.78
-0.77
-0.785
-0.76
-0.76
-0.745
-0.785
-0.77
-0.775
-0.775
-0.85
-0.8
-0.74
-0.815
-0.8
-0.78
-0.77
-0.765
-0.805
-0.77
-0.775
-0.77
-0.785
-0.75
-0.735
-0.79
-0.795
-0.79
-0.78
-0.8
-0.755
-0.77
-0.82
-0.81
-0.775
-0.76
-0.75
-0.74
-0.74
-0.8
-0.79
-0.79
-0.79
-0.75
-0.785
-0.755
-0.765
-0.74
-0.78
-0.695
-0.645
-0.69
-0.715
-0.72
-0.735
-0.805
-0.765
-0.755
-0.72
-0.78
-0.775
-0.775
-0.805
-0.755
-0.775
-0.795
-0.745
-0.725
-0.755
-0.79
-0.82
-0.81
-0.8
-0.785
-0.78
-0.78
-0.685
-0.73
-0.74
-0.805
-0.795
-0.78
-0.74
-0.755
-0.77
-0.8
-0.8
-0.765
-0.75
-0.785
-0.8
-0.795
-0.815
-0.865
-0.84
-0.875
-0.88
-0.88
-0.87
-0.805
-0.735
-0.635
-0.585
-0.52
-0.42
-0.36
-0.29
-0.2
-0.18
-0.135
-0.09
-0.1
-0.175
-0.215
-0.34
-0.545
-0.665
-0.795
-0.935
-0.935
-0.925
-0.89
-0.915
-0.835
-0.83
-0.79
-0.785
-0.76
-0.79
-0.78
-0.77
-0.77
-0.79
-0.725
-0.735
-0.77
-0.775
-0.7
-0.755
-0.76
-0.76
-0.72
-0.74
-0.735
-0.725
-0.705
-0.77
-0.75
-0.755
-0.745
-0.755
-0.775
-0.76
-0.715
-0.76
-0.66
-0.655
-0.74
-0.715
-0.69
-0.7
-0.73
-0.7
-0.675
-0.685
-0.685
-0.62
-0.64
-0.72
-0.72
-0.72
-0.685
-0.695
-0.685
-0.665
-0.665
-0.665
-0.64
-0.685
-0.68
-0.67
-0.635
-0.63
-0.625
-0.645
-0.645
-0.615
-0.61
-0.65
-0.58
-0.59
-0.63
-0.585
-0.575
-0.575
-0.54
-0.515
-0.53
-0.56
-0.55
-0.53
-0.565
-0.47
-0.415
-0.455
-0.415
-0.42
-0.45
-0.465
-0.435
-0.41
-0.415
-0.385
-0.345
-0.405
-0.435
-0.395
-0.4
-0.42
-0.425
-0.37
-0.33
-0.31
-0.335
-0.4
-0.4
-0.42
-0.495
-0.42
-0.425
-0.45
-0.54
-0.49
-0.455
-0.45
-0.505
-0.49
-0.57
-0.58
-0.565
-0.575
-0.61
-0.62
-0.635
-0.665
-0.62
-0.635
-0.705
-0.71
-0.67
-0.72
-0.71
-0.665
-0.64
-0.63
-0.675
-0.71
-0.72
-0.73
-0.735
-0.73
-0.73
-0.7
-0.66
-0.69
-0.705
-0.74
-0.71
-0.705
-0.72
-0.695
-0.745
-0.74
-0.72
-0.735
-0.685
-0.735
-0.72
-0.725
-0.735
-0.745
-0.745
-0.695
-0.68
-0.71
-0.71
-0.69
-0.73
-0.735
-0.715
-0.745
-0.72
-0.68
-0.675
-0.705
-0.74
-0.74
-0.765
-0.71
-0.69
-0.71
-0.685
-0.67
-0.69
-0.72
-0.71
-0.675
-0.75
-0.72
-0.675
-0.675
-0.685
-0.675
-0.67
-0.68
-0.7
-0.725
-0.73
-0.705
-0.72
-0.74
-0.705
-0.615
-0.68
-0.695
-0.735
-0.725
-0.745
-0.715
-0.73
-0.745
-0.715
-0.715
-0.725
-0.7
-0.675
-0.705
-0.76
-0.74
-0.745
-0.69
-0.74
-0.695
-0.705
-0.675
-0.695
-0.745
-0.735
-0.695
-0.725
-0.735
-0.7
-0.705
-0.68
-0.685
-0.725
-0.74
-0.755
-0.74
-0.71
-0.715
-0.745
-0.71
-0.725
-0.74
-0.715
-0.715
-0.7
-0.695
-0.7
-0.7
-0.72
-0.71
-0.735
-0.725
-0.73
-0.7
-0.73
-0.71
-0.72
-0.72
-0.735
-0.7
-0.66
-0.685
-0.705
-0.73
-0.72
-0.69
-0.75
-0.77
-0.725
-0.71
-0.685
-0.71
-0.715
-0.75
-0.75
-0.73
-0.7
-0.72
-0.715
-0.71
-0.725
-0.72
-0.72
-0.755
-0.7
-0.73
-0.71
-0.69
-0.685
-0.66
-0.69
-0.69
-0.655
-0.67
-0.705
-0.665
-0.655
-0.64
-0.59
-0.635
-0.645
-0.63
-0.63
-0.7
-0.68
-0.665
-0.705
-0.69
-0.695
-0.7
-0.67
-0.72
-0.695
-0.675
-0.72
-0.745
-0.73
-0.7
-0.69
-0.735
-0.695
-0.695
-0.685
-0.72
-0.72
-0.72
-0.74
-0.725
-0.69
-0.725
-0.715
-0.71
-0.67
-0.66
-0.705
-0.77
-0.7
-0.72
-0.705
-0.73
-0.735
-0.74
-0.765
-0.875
-0.83
-0.83
-0.82
-0.785
-0.73
-0.665
-0.575
-0.49
-0.455
-0.43
-0.335
-0.23
-0.14
-0.03
0.01
-0.02
-0.005
-0.03
-0.185
-0.325
-0.47
-0.6
-0.76
-0.895
-0.89
-0.875
-0.915
-0.825
-0.78
-0.79
-0.8
-0.79
-0.76
-0.655
-0.61
-0.665
-0.7
-0.71
-0.725
-0.695
-0.705
-0.7
-0.65
-0.64
-0.63
-0.64
-0.66
-0.705
-0.705
-0.675
-0.67
-0.725
-0.665
-0.67
-0.65
-0.62
-0.66
-0.675
-0.645
-0.64
-0.67
-0.645
-0.64
-0.645
-0.6
-0.65
-0.6
-0.65
-0.69
-0.64
-0.635
-0.675
-0.65
-0.6
-0.56
-0.59
-0.61
-0.575
-0.615
-0.62
-0.62
-0.61
-0.62
-0.585
-0.59
-0.575
-0.555
-0.55
-0.595
-0.61
-0.575
-0.53
-0.545
-0.5
-0.52
-0.525
-0.525
-0.5
-0.505
-0.56
-0.535
-0.505
-0.49
-0.465
-0.43
-0.41
-0.43
-0.44
-0.44
-0.41
-0.375
-0.385
-0.37
-0.34
-0.34
-0.335
-0.335
-0.34
-0.325
-0.325
-0.345
-0.355
-0.3
-0.285
-0.305
-0.29
-0.285
-0.305
-0.32
-0.265
-0.36
-0.32
-0.335
-0.34
-0.335
-0.38
-0.42
-0.44
-0.44
-0.425
-0.455
-0.51
-0.56
-0.495
-0.48
-0.53
-0.575
-0.595
-0.57
-0.555
-0.575
-0.615
-0.625
-0.605
-0.595
-0.605
-0.635
-0.665
-0.645
-0.65
-0.605
-0.62
-0.625
-0.635
-0.625
-0.62
-0.63
-0.645
-0.705
-0.665
-0.655
-0.705
-0.665
-0.63
-0.61
-0.61
-0.665
-0.67
-0.67
-0.68
-0.655
-0.67
-0.67
-0.665
-0.68
-0.6
-0.625
-0.655
-0.645
-0.665
-0.665
-0.665
-0.63
-0.62
-0.66
-0.67
-0.655
-0.665
-0.665
-0.64
-0.675
-0.715
-0.66
-0.625
-0.61
-0.63
-0.65
-0.635
-0.655
-0.645
-0.665
-0.625
-0.615
-0.58
-0.61
-0.595
-0.61
-0.59
-0.65
-0.67
-0.625
-0.62
-0.645
-0.64
-0.67
-0.66
-0.665
-0.64
-0.65
-0.63
-0.645
-0.635
-0.595
-0.59
-0.66
-0.64
-0.625
-0.665
-0.655
-0.65
-0.655
-0.66
-0.64
-0.63
-0.685
-0.63
-0.63
-0.645
-0.66
-0.685
-0.615
-0.65
-0.595
-0.635
-0.635
-0.645
-0.61
-0.65
-0.66
-0.645
-0.68
-0.68
-0.64
-0.65
-0.665
-0.635
-0.625
-0.66
-0.63
-0.62
-0.635
-0.68
-0.58
-0.59
-0.62
-0.67
-0.675
-0.7
-0.675
-0.68
-0.67
-0.635
-0.63
-0.585
-0.595
-0.64
-0.645
-0.655
-0.66
-0.675
-0.68
-0.64
-0.64
-0.645
-0.63
-0.66
-0.68
-0.67
-0.65
-0.65
-0.635
-0.65
-0.62
-0.605
-0.635
-0.67
-0.645
-0.67
-0.66
-0.71
-0.67
-0.63
-0.69
-0.685
-0.63
-0.625
-0.61
-0.64
-0.63
-0.64
-0.605
-0.62
-0.615
-0.625
-0.655
-0.67
-0.62
-0.63
-0.65
-0.6
-0.585
-0.575
-0.545
-0.495
-0.55
-0.595
-0.565
-0.63
-0.615
-0.62
-0.585
-0.56
-0.55
-0.635
-0.61
-0.57
-0.64
-0.665
-0.675
-0.65
-0.615
-0.635
-0.62
-0.61
-0.635
-0.65
-0.655
-0.685
-0.655
-0.66
-0.655
-0.67
-0.555
-0.58
-0.67
-0.65
-0.665
-0.685
-0.64
-0.595
-0.615
-0.615
-0.64
-0.645
-0.66
-0.65
-0.67
-0.715
-0.745
-0.79
-0.805
-0.815
-0.785
-0.695
-0.59
-0.53
-0.46
-0.385
-0.3
-0.255
-0.205
-0.04
0.04
0.085
0.105
0.13
0.07
-0.03
-0.15
-0.32
-0.495
-0.61
-0.75
-0.775
-0.755
-0.715
-0.745
-0.74
-0.71
-0.68
-0.67
-0.615
-0.575
-0.61
-0.615
-0.665
-0.655
-0.59
-0.595
-0.62
-0.64
-0.615
-0.595
-0.615
-0.62
-0.625
-0.58
-0.62
-0.65
-0.63
-0.59
-0.52
-0.525
-0.56
-0.62
-0.615
-0.585
-0.565
-0.57
-0.58
-0.57
-0.52
-0.565
-0.56
-0.58
-0.6
-0.57
-0.57
-0.555
-0.555
-0.54
-0.56
-0.54
-0.505
-0.535
-0.585
-0.57
-0.505
-0.53
-0.555
-0.525
-0.525
-0.505
-0.515
-0.47
-0.475
-0.485
-0.51
-0.455
-0.475
-0.465
-0.43
-0.45
-0.475
-0.43
-0.45
-0.47
-0.425
-0.43
-0.44
-0.435
-0.405
-0.395
-0.385
-0.365
-0.375
-0.38
-0.335
-0.295
-0.295
-0.295
-0.3
-0.34
-0.335
-0.285
-0.27
-0.26
-0.275
-0.24
-0.225
-0.265
-0.245
-0.195
-0.225
-0.22
-0.235
-0.235
-0.225
-0.225
-0.24
-0.21
-0.24
-0.25
-0.23
-0.31
-0.335
-0.33
-0.37
-0.405
-0.425
-0.405
-0.4
-0.445
-0.46
-0.415
-0.475
-0.485
-0.45
-0.495
-0.5
-0.48
-0.485
-0.515
-0.54
-0.575
-0.555
-0.56
-0.565
-0.585
-0.58
-0.56
-0.575
-0.59
-0.615
-0.575
-0.55
-0.6
-0.56
-0.58
-0.59
-0.58
-0.59
-0.58
-0.605
-0.58
-0.59
-0.585
-0.59
-0.57
-0.58
-0.55
-0.56
-0.575
-0.585
-0.595
-0.655
-0.595
-0.555
-0.54
-0.55
-0.58
-0.585
-0.54
-0.565
-0.56
-0.57
-0.565
-0.615
-0.645
-0.625
-0.56
-0.565
-0.555
-0.54
-0.545
-0.56
-0.555
-0.57
-0.56
-0.58
-0.58
-0.545
-0.585
-0.575
-0.54
-0.58
-0.555
-0.55
-0.55
-0.535
-0.55
-0.565
-0.55
-0.47
-0.55
-0.635
-0.605
-0.61
-0.58
-0.545
-0.53
-0.56
-0.585
-0.575
-0.58
-0.58
-0.57
-0.58
-0.585
-0.585
-0.58
-0.575
-0.555
-0.555
-0.585
-0.575
-0.57
-0.57
-0.55
-0.585
-0.59
-0.55
-0.555
-0.535
-0.565
-0.605
-0.6
-0.58
-0.575
-0.58
-0.54
-0.55
-0.51
-0.555
-0.585
-0.615
-0.62
-0.6
-0.585
-0.56
-0.59
-0.59
-0.57
-0.49
-0.52
-0.56
-0.555
-0.56
-0.54
-0.525
-0.55
-0.585
-0.59
-0.6
-0.61
-0.59
-0.555
-0.575
-0.57
-0.585
-0.565
-0.58
-0.575
-0.585
-0.605
-0.55
-0.55
-0.555
-0.565
-0.565
-0.54
-0.55
-0.565
-0.565
-0.61
-0.635
-0.605
-0.585
-0.605
-0.56
-0.535
-0.56
-0.59
-0.6
-0.635
-0.6
-0.56
-0.57
-0.565
-0.54
-0.52
-0.505
-0.515
-0.49
-0.48
-0.455
-0.495
-0.48
-0.5
-0.495
-0.48
-0.505
-0.515
-0.52
-0.57
-0.545
-0.5
-0.54
-0.595
-0.57
-0.53
-0.54
-0.525
-0.545
-0.585
-0.545
-0.56
-0.595
-0.58
-0.54
-0.54
-0.54
-0.585
-0.63
-0.595
-0.545
-0.55
-0.565
-0.605
-0.595
-0.57
-0.565
-0.59
-0.6
-0.575
-0.545
-0.56
-0.62
-0.585
-0.565
-0.62
-0.68
-0.705
-0.69
-0.69
-0.715
-0.67
-0.61
-0.475
-0.385
-0.315
-0.285
-0.25
-0.135
-0.055
0.045
0.105
0.18
0.235
0.205
0.14
-0.06
-0.185
-0.335
-0.525
-0.67
-0.72
-0.72
-0.7
-0.655
-0.645
-0.66
-0.645
-0.59
-0.585
-0.55
-0.555
-0.56
-0.565
-0.515
-0.57
-0.57
-0.525
-0.545
-0.535
-0.52
-0.525
-0.535
-0.55
-0.505
-0.55
-0.545
-0.525
-0.525
-0.555
-0.515
-0.49
-0.545
-0.51
-0.52
-0.51
-0.495
-0.475
-0.475
-0.475
-0.42
-0.545
-0.545
-0.51
-0.5
-0.5
-0.5
-0.515
-0.505
-0.5
-0.495
-0.475
-0.5
-0.435
-0.38
-0.445
-0.435
-0.4
-0.47
-0.52
-0.435
-0.435
-0.5
-0.445
-0.47
-0.45
-0.39
-0.43
-0.43
-0.415
-0.39
-0.36
-0.39
-0.35
-0.345
-0.335
-0.355
-0.325
-0.37
-0.365
-0.34
-0.295
-0.325
-0.29
-0.29
-0.285
-0.225
-0.235
-0.255
-0.19
-0.2
-0.24
-0.245
-0.185
-0.17
-0.16
-0.205
-0.2
-0.21
-0.18
-0.145
-0.16
-0.175
-0.14
-0.145
-0.195
-0.19
-0.195
-0.24
-0.23
-0.215
-0.24
-0.22
-0.205
-0.245
-0.29
-0.285
-0.31
-0.335
-0.34
-0.37
-0.38
-0.39
-0.4
-0.415
-0.465
-0.415
-0.465
-0.48
-0.43
-0.435
-0.435
-0.475
-0.455
-0.51
-0.48
-0.505
-0.51
-0.52
-0.515
-0.51
-0.58
-0.535
-0.52
-0.52
-0.44
-0.475
-0.51
-0.52
-0.495
-0.535
-0.56
-0.525
-0.51
-0.52
-0.5
-0.525
-0.505
-0.58
-0.555
-0.545
-0.545
-0.515
-0.485
-0.49
-0.5
-0.485
-0.5
-0.505
-0.54
-0.49
-0.495
-0.48
-0.5
-0.535
-0.535
-0.5
-0.515
-0.505
-0.525
-0.51
-0.47
-0.49
-0.495
-0.535
-0.545
-0.51
-0.475
-0.52
-0.475
-0.445
-0.49
-0.45
-0.445
-0.525
-0.525
-0.5
-0.495
-0.505
-0.505
-0.5
-0.535
-0.485
-0.48
-0.49
-0.495
-0.5
-0.515
-0.52
-0.5
-0.495
-0.525
-0.555
-0.485
-0.485
-0.53
-0.53
-0.52
-0.505
-0.48
-0.465
-0.51
-0.485
-0.485
-0.495
-0.53
-0.49
-0.515
-0.535
-0.51
-0.5
-0.52
-0.5
-0.515
-0.475
-0.48
-0.495
-0.595
-0.545
-0.54
-0.515
-0.505
-0.465
-0.505
-0.53
-0.515
-0.5
-0.525
-0.5
-0.515
-0.545
-0.56
-0.46
-0.455
-0.5
-0.49
-0.485
-0.54
-0.51
-0.505
-0.5
-0.495
-0.51
-0.5
-0.505
-0.56
-0.495
-0.495
-0.505
-0.52
-0.545
-0.55
-0.5
-0.5
-0.49
-0.56
-0.535
-0.47
-0.455
-0.52
-0.535
-0.515
-0.45
-0.465
-0.485
-0.53
-0.515
-0.52
-0.505
-0.51
-0.555
-0.555
-0.465
-0.485
-0.5
-0.485
-0.49
-0.505
-0.495
-0.475
-0.475
-0.48
-0.435
-0.44
-0.415
-0.385
-0.42
-0.475
-0.45
-0.445
-0.475
-0.455
-0.425
-0.405
-0.49
-0.435
-0.48
-0.52
-0.5
-0.5
-0.5
-0.51
-0.49
-0.495
-0.445
-0.48
-0.515
-0.55
-0.525
-0.48
-0.485
-0.48
-0.475
-0.47
-0.48
-0.44
-0.485
-0.505
-0.525
-0.55
-0.56
-0.485
-0.47
-0.51
-0.56
-0.545
-0.49
-0.525
-0.525
-0.56
-0.565
-0.565
-0.61
-0.655
-0.65
-0.585
-0.55
-0.505
-0.445
-0.355
-0.26
-0.155
-0.07
0.015
0.14
0.235
0.185
0.245
0.3
0.265
0.095
-0.07
-0.235
-0.365
-0.54
-0.64
-0.7
-0.705
-0.64
-0.575
-0.58
-0.495
-0.51
-0.53
-0.515
-0.485
-0.515
-0.51
-0.47
-0.495
-0.475
-0.455
-0.47
-0.43
-0.5
-0.52
-0.47
-0.445
-0.46
-0.49
-0.48
-0.415
-0.415
-0.465
-0.44
-0.395
-0.44
-0.49
-0.47
-0.49
-0.42
-0.375
-0.41
-0.41
-0.455
-0.41
-0.445
-0.45
-0.465
-0.465
-0.46
-0.39
-0.365
-0.4
-0.365
-0.355
-0.42
-0.41
-0.41
-0.425
-0.465
-0.385
-0.365
-0.37
-0.395
-0.37
-0.4
-0.36
-0.36
-0.365
-0.36
-0.31
-0.335
-0.315
-0.295
-0.295
-0.32
-0.31
-0.325
-0.29
-0.265
-0.265
-0.25
-0.215
-0.255
-0.23
-0.225
-0.23
-0.205
-0.23
-0.215
-0.175
-0.145
-0.1
-0.115
-0.14
-0.105
-0.07
-0.135
-0.16
-0.12
-0.085
-0.09
-0.095
-0.105
-0.105
-0.125
-0.085
-0.03
-0.07
-0.09
-0.115
-0.12
-0.135
-0.05
-0.115
-0.135
-0.15
-0.19
-0.2
-0.23
-0.215
-0.26
-0.275
-0.3
-0.32
-0.315
-0.315
-0.335
-0.34
-0.31
-0.265
-0.335
-0.36
-0.365
-0.395
-0.39
-0.405
-0.43
-0.43
-0.4
-0.415
-0.45
-0.405
-0.43
-0.42
-0.41
-0.38
-0.415
-0.45
-0.475
-0.5
-0.445
-0.445
-0.395
-0.425
-0.415
-0.42
-0.39
-0.41
-0.415
-0.435
-0.42
-0.38
-0.38
-0.405
-0.47
-0.41
-0.42
-0.455
-0.42
-0.42
-0.405
-0.4
-0.41
-0.39
-0.405
-0.35
-0.38
-0.395
-0.415
-0.425
-0.445
-0.455
-0.415
-0.435
-0.435
-0.445
-0.465
-0.455
-0.37
-0.42
-0.4
-0.395
-0.375
-0.41
-0.455
-0.395
-0.37
-0.395
-0.39
-0.45
-0.38
-0.39
-0.42
-0.37
-0.39
-0.405
-0.41
-0.435
-0.395
-0.41
-0.39
-0.4
-0.395
-0.405
-0.42
-0.4
-0.41
-0.385
-0.375
-0.435
-0.47
-0.385
-0.345
-0.405
-0.4
-0.395
-0.4
-0.38
-0.425
-0.425
-0.455
-0.375
-0.405
-0.415
-0.465
-0.435
-0.43
-0.395
-0.37
-0.4
-0.4
-0.395
-0.405
-0.41
-0.43
-0.4
-0.475
-0.425
-0.41
-0.405
-0.345
-0.35
-0.4
-0.39
-0.4
-0.395
-0.445
-0.41
-0.405
-0.4
-0.41
-0.41
-0.415
-0.42
-0.38
-0.41
-0.395
-0.365
-0.4
-0.425
-0.42
-0.41
-0.415
-0.455
-0.455
-0.445
-0.38
-0.37
-0.365
-0.395
-0.42
-0.425
-0.46
-0.46
-0.365
-0.37
-0.39
-0.425
-0.405
-0.435
-0.385
-0.37
-0.385
-0.405
-0.37
-0.425
-0.415
-0.37
-0.345
-0.37
-0.385
-0.38
-0.335
-0.285
-0.29
-0.345
-0.33
-0.305
-0.34
-0.38
-0.425
-0.405
-0.405
-0.42
-0.395
-0.375
-0.445
-0.385
-0.405
-0.37
-0.39
-0.385
-0.41
-0.39
-0.395
-0.44
-0.425
-0.405
-0.395
-0.385
-0.39
-0.41
-0.425
-0.42
-0.41
-0.405
-0.395
-0.385
-0.395
-0.37
-0.38
-0.39
-0.45
-0.455
-0.42
-0.455
-0.465
-0.46
-0.525
-0.515
-0.535
-0.53
-0.475
-0.46
-0.315
-0.2
-0.15
-0.04
0.01
0.065
0.17
0.22
0.225
0.31
0.31
0.26
0.18
0.115
-0.1
-0.245
-0.32
-0.495
-0.6
-0.6
-0.625
-0.595
-0.535
-0.48
-0.39
-0.43
-0.425
-0.39
-0.405
-0.415
-0.425
-0.415
-0.385
-0.365
-0.365
-0.395
-0.415
-0.39
-0.37
-0.37
-0.325
-0.375
-0.385
-0.36
-0.375
-0.345
-0.355
-0.34
-0.37
-0.34
-0.335
-0.345
-0.35
-0.355
-0.325
-0.35
-0.315
-0.36
-0.36
-0.295
-0.28
-0.35
-0.37
-0.325
-0.325
-0.315
-0.315
-0.34
-0.3
-0.23
-0.295
-0.365
-0.305
-0.265
-0.29
-0.32
-0.325
-0.35
-0.335
-0.255
-0.275
-0.29
-0.255
-0.255
-0.26
-0.225
-0.185
-0.22
-0.23
-0.22
-0.185
-0.245
-0.195
-0.215
-0.205
-0.23
-0.21
-0.19
-0.13
-0.14
-0.135
-0.115
-0.08
-0.07
-0.05
-0.05
-0.065
-0.06
-0.035
-0.04
-0.07
-0.025
0.0
-0.02
0.0
-0.01
-0.025
-0.035
-0.04
0.005
0.015
0.01
0.035
0.02
-0.055
-0.025
-0.01
-0.025
-0.05
-0.145
-0.12
-0.165
-0.135
-0.195
-0.205
-0.165
-0.21
-0.265
-0.215
-0.255
-0.245
-0.275
-0.235
-0.25
-0.285
-0.28
-0.29
-0.335
-0.345
-0.35
-0.375
-0.34
-0.305
-0.32
-0.33
-0.325
-0.315
-0.335
-0.345
-0.36
-0.335
-0.36
-0.295
-0.33
-0.355
-0.375
-0.445
-0.4
-0.36
-0.375
-0.375
-0.355
-0.345
-0.34
-0.33
-0.34
-0.305
-0.365
-0.43
-0.375
-0.395
-0.39
-0.355
-0.355
-0.345
-0.365
-0.35
-0.345
-0.345
-0.345
-0.36
-0.34
-0.285
-0.305
-0.32
-0.325
-0.335
-0.345
-0.35
-0.335
-0.365
-0.35
-0.33
-0.35
-0.32
-0.28
-0.325
-0.39
-0.355
-0.31
-0.33
-0.35
-0.305
-0.36
-0.35
-0.36
-0.38
-0.345
-0.325
-0.335
-0.34
-0.31
-0.295
-0.32
-0.375
-0.32
-0.365
-0.365
-0.38
-0.315
-0.37
-0.34
-0.34
-0.32
-0.35
-0.34
-0.37
-0.315
-0.32
-0.34
-0.305
-0.375
-0.335
-0.33
-0.325
-0.32
-0.365
-0.36
-0.365
-0.37
-0.385
-0.33
-0.335
-0.34
-0.38
-0.375
-0.38
-0.36
-0.35
-0.35
-0.33
-0.325
-0.37
-0.34
-0.345
-0.34
-0.355
-0.34
-0.355
-0.375
-0.395
-0.32
-0.35
-0.335
-0.33
-0.33
-0.39
-0.385
-0.385
-0.39
-0.34
-0.3
-0.31
-0.355
-0.395
-0.37
-0.335
-0.325
-0.305
-0.37
-0.375
-0.33
-0.32
-0.355
-0.365
-0.385
-0.375
-0.385
-0.35
-0.385
-0.365
-0.285
-0.34
-0.34
-0.345
-0.365
-0.36
-0.37
-0.365
-0.32
-0.345
-0.355
-0.35
-0.33
-0.295
-0.335
-0.315
-0.29
-0.275
-0.245
-0.255
-0.25
-0.285
-0.325
-0.31
-0.285
-0.29
-0.29
-0.31
-0.37
-0.36
-0.37
-0.38
-0.395
-0.395
-0.375
-0.36
-0.375
-0.33
-0.33
-0.3
-0.29
-0.315
-0.355
-0.385
-0.385
-0.365
-0.355
-0.355
-0.36
-0.345
-0.315
-0.335
-0.355
-0.385
-0.365
-0.375
-0.315
-0.325
-0.385
-0.365
-0.36
-0.38
-0.43
-0.48
-0.5
-0.525
-0.455
-0.42
-0.425
-0.29
-0.22
-0.155
-0.07
0.005
0.025
0.17
0.2
0.265
0.32
0.34
0.38
0.28
0.14
0.025
-0.185
-0.27
-0.42
-0.505
-0.525
-0.535
-0.52
-0.48
-0.46
-0.425
-0.415
-0.36
-0.355
-0.34
-0.355
-0.33
-0.33
-0.33
-0.35
-0.36
-0.345
-0.32
-0.31
-0.335
-0.395
-0.35
-0.31
-0.315
-0.325
-0.32
-0.275
-0.3
-0.3
-0.325
-0.315
-0.28
-0.275
-0.335
-0.285
-0.295
-0.315
-0.275
-0.3
-0.32
-0.295
-0.265
-0.3
-0.265
-0.275
-0.27
-0.28
-0.265
-0.245
-0.27
-0.285
-0.28
-0.25
-0.23
-0.27
-0.25
-0.25
-0.24
-0.23
-0.27
-0.24
-0.23
-0.205
-0.2
-0.185
-0.21
-0.205
-0.19
-0.195
-0.205
-0.205
-0.145
-0.135
-0.145
-0.155
-0.15
-0.175
-0.155
-0.115
-0.12
-0.13
-0.05
-0.045
-0.045
-0.105
-0.075
-0.06
-0.04
0.03
-0.02
-0.01
0.005
-0.015
0.01
0.015
0.02
0.05
0.03
0.045
0.05
0.07
0.095
0.07
0.04
0.04
0.045
0.045
0.015
0.01
-0.025
-0.015
-0.07
-0.115
-0.085
-0.055
-0.11
-0.145
-0.15
-0.175
-0.19
-0.195
-0.185
-0.195
-0.21
-0.18
-0.245
-0.23
-0.26
-0.24
-0.275
-0.265
-0.25
-0.275
-0.3
-0.31
-0.305
-0.3
-0.29
-0.28
-0.33
-0.265
-0.27
-0.35
-0.335
-0.31
-0.33
-0.33
-0.34
-0.315
-0.325
-0.235
-0.315
-0.335
-0.345
-0.305
-0.3
-0.36
-0.325
-0.275
-0.31
-0.35
-0.355
-0.3
-0.275
-0.28
-0.33
-0.325
-0.295
-0.27
-0.305
-0.245
-0.305
-0.29
-0.28
-0.285
-0.3
-0.33
-0.295
-0.305
-0.31
-0.285
-0.265
-0.295
-0.28
-0.28
-0.265
-0.28
-0.28
-0.27
-0.275
-0.285
-0.31
-0.295
-0.295
-0.3
-0.32
-0.31
-0.33
-0.33
-0.305
-0.285
-0.27
-0.25
-0.3
-0.3
-0.35
-0.305
-0.305
-0.305
-0.28
-0.26
-0.285
-0.295
-0.33
-0.305
-0.33
-0.29
-0.26
-0.26
-0.28
-0.31
-0.315
-0.35
-0.295
-0.295
-0.3
-0.31
-0.295
-0.335
-0.29
-0.29
-0.27
-0.31
-0.315
-0.315
-0.29
-0.295
-0.31
-0.305
-0.27
-0.225
-0.295
-0.345
-0.325
-0.3
-0.335
-0.315
-0.26
-0.295
-0.34
-0.33
-0.27
-0.3
-0.315
-0.315
-0.315
-0.315
-0.28
-0.32
-0.275
-0.31
-0.34
-0.315
-0.315
-0.31
-0.315
-0.3
-0.265
-0.32
-0.285
-0.32
-0.32
-0.3
-0.295
-0.305
-0.3
-0.305
-0.275
-0.31
-0.285
-0.27
-0.265
-0.315
-0.335
-0.315
-0.32
-0.3
-0.3
-0.31
-0.29
-0.285
-0.28
-0.305
-0.26
-0.26
-0.265
-0.29
-0.32
-0.335
-0.29
-0.285
-0.255
-0.255
-0.25
-0.275
-0.215
-0.19
-0.225
-0.245
-0.225
-0.2
-0.3
-0.3
-0.29
-0.295
-0.275
-0.275
-0.245
-0.245
-0.275
-0.31
-0.325
-0.3
-0.325
-0.335
-0.3
-0.275
-0.28
-0.265
-0.275
-0.285
-0.295
-0.3
-0.305
-0.345
-0.31
-0.285
-0.31
-0.265
-0.285
-0.3
-0.295
-0.3
-0.3
-0.33
-0.295
-0.3
-0.32
-0.355
-0.33
-0.37
-0.41
-0.44
-0.445
-0.46
-0.43
-0.35
-0.295
-0.195
-0.09
-0.09
0.07
0.09
0.185
0.285
0.37
0.42
0.445
0.405
0.41
0.275
0.105
-0.03
-0.155
-0.285
-0.415
-0.46
-0.535
-0.45
-0.375
-0.34
-0.345
-0.34
-0.325
-0.355
-0.345
-0.285
-0.28
-0.275
-0.255
-0.22
-0.255
-0.24
-0.23
-0.27
-0.26
-0.295
-0.305
-0.28
-0.25
-0.31
-0.325
-0.23
-0.255
-0.275
-0.275
-0.225
-0.24
-0.245
-0.225
-0.25
-0.25
-0.185
-0.225
-0.25
-0.25
-0.32
-0.255
-0.255
-0.22
-0.185
-0.22
-0.22
-0.195
-0.24
-0.22
-0.235
-0.23
-0.17
-0.145
-0.195
-0.2
-0.19
-0.225
-0.2
-0.22
-0.16
-0.195
-0.18
-0.14
-0.11
-0.13
-0.14
-0.155
-0.17
-0.11
-0.155
-0.165
-0.095
-0.105
-0.085
-0.075
-0.045
-0.1
-0.065
-0.015
-0.08
-0.055
-0.015
-0.015
-0.005
-0.05
0.02
0.025
0.025
0.02
0.04
0.08
0.055
0.01
0.07
0.08
0.11
0.1
0.085
0.075
0.11
0.07
0.125
0.115
0.13
0.12
0.065
0.04
0.045
0.06
0.035
-0.02
-0.015
-0.055
-0.065
-0.075
-0.125
-0.095
-0.075
-0.095
-0.085
-0.155
-0.08
-0.165
-0.175
-0.11
-0.17
-0.265
-0.24
-0.23
-0.245
-0.265
-0.23
-0.245
-0.28
-0.25
-0.25
-0.26
-0.24
-0.225
-0.24
-0.26
-0.25
-0.275
-0.215
-0.25
-0.265
-0.31
-0.285
-0.31
-0.28
-0.275
-0.24
-0.23
-0.225
-0.26
-0.285
-0.295
-0.255
-0.245
-0.27
-0.2
-0.18
-0.155
-0.2
-0.25
-0.245
-0.28
-0.325
-0.3
-0.305
-0.305
-0.265
-0.235
-0.23
-0.27
-0.265
-0.255
-0.255
-0.27
-0.275
-0.23
-0.22
-0.225
-0.21
-0.19
-0.22
-0.19
-0.205
-0.245
-0.28
-0.3
-0.275
-0.265
-0.255
-0.235
-0.25
-0.215
-0.165
-0.22
-0.235
-0.24
-0.23
-0.255
-0.26
-0.255
-0.24
-0.225
-0.22
-0.2
-0.235
-0.195
-0.16
-0.225
-0.26
-0.255
-0.26
-0.27
-0.25
-0.25
-0.25
-0.27
-0.235
-0.25
-0.24
-0.235
-0.285
-0.245
-0.24
-0.22
-0.245
-0.235
-0.225
-0.24
-0.265
-0.225
-0.26
-0.275
-0.285
-0.24
-0.205
-0.2
-0.215
-0.255
-0.28
-0.275
-0.29
-0.23
-0.265
-0.28
-0.24
-0.215
-0.2
-0.175
-0.215
-0.23
-0.23
-0.24
-0.245
-0.28
-0.265
-0.205
-0.225
-0.2
-0.185
-0.265
-0.27
-0.26
-0.275
-0.285
-0.245
-0.23
-0.255
-0.23
-0.185
-0.195
-0.27
-0.24
-0.25
-0.26
-0.225
-0.22
-0.255
-0.285
-0.285
-0.26
-0.255
-0.245
-0.245
-0.24
-0.24
-0.21
-0.215
-0.25
-0.21
-0.25
-0.275
-0.3
-0.245
-0.24
-0.215
-0.275
-0.23
-0.24
-0.2
-0.24
-0.26
-0.27
-0.255
-0.23
-0.175
-0.215
-0.19
-0.195
-0.165
-0.175
-0.135
-0.1
-0.16
-0.21
-0.185
-0.12
-0.19
-0.215
-0.24
-0.24
-0.27
-0.18
-0.185
-0.2
-0.225
-0.215
-0.215
-0.235
-0.215
-0.255
-0.28
-0.235
-0.23
-0.235
-0.23
-0.18
-0.225
-0.225
-0.24
-0.225
-0.24
-0.275
-0.235
-0.32
-0.245
-0.235
-0.255
-0.25
-0.21
-0.24
-0.24
-0.255
-0.275
-0.26
-0.265
-0.305
-0.375
-0.39
-0.405
-0.405
-0.355
-0.33
-0.235
-0.11
-0.03
-0.02
0.06
0.16
0.235
0.305
0.43
0.495
0.545
0.54
0.445
0.38
0.24
0.025
-0.095
-0.215
-0.34
-0.375
-0.4
-0.375
-0.33
-0.265
-0.28
-0.3
-0.29
-0.26
-0.27
-0.26
-0.225
-0.185
-0.195
-0.24
-0.215
-0.23
-0.18
-0.185
-0.205
-0.2
-0.235
-0.285
-0.24
-0.19
-0.205
-0.2
-0.175
-0.21
-0.19
-0.205
-0.255
-0.18
-0.15
-0.155
-0.2
-0.19
-0.22
-0.21
-0.145
-0.195
-0.17
-0.175
-0.145
-0.155
-0.14
-0.14
-0.17
-0.18
-0.15
-0.175
-0.19
-0.135
-0.13
-0.14
-0.095
-0.125
-0.145
-0.13
-0.14
-0.14
-0.13
-0.1
-0.06
-0.07
-0.065
-0.055
-0.09
-0.065
-0.095
-0.095
-0.07
-0.065
-0.04
-0.055
0.005
-0.005
-0.05
-0.055
0.03
0.045
0.025
0.025
0.045
0.055
0.075
0.075
0.05
0.07
0.105
0.115
0.06
0.09
0.155
0.165
0.185
0.18
0.14
0.15
0.15
0.11
0.125
0.18
0.2
0.175
0.18
0.19
0.125
0.1
0.065
0.07
0.055
0.1
0.075
-0.01
0.015
0.035
-0.01
-0.1
-0.055
-0.035
-0.115
-0.12
-0.155
-0.09
-0.095
-0.095
-0.135
-0.165
-0.135
-0.16
-0.175
-0.17
-0.145
-0.185
-0.2
-0.19
-0.21
-0.225
-0.175
-0.175
-0.165
-0.17
-0.185
-0.175
-0.205
-0.21
-0.22
-0.22
-0.185
-0.22
-0.21
-0.205
-0.18
-0.165
-0.18
-0.175
-0.2
-0.19
-0.17
-0.18
-0.185
-0.21
-0.21
-0.155
-0.24
-0.22
-0.25
-0.175
-0.14
-0.19
-0.165
-0.165
-0.185
-0.165
-0.19
-0.22
-0.235
-0.26
-0.18
-0.16
-0.185
-0.105
-0.13
-0.145
-0.19
-0.205
-0.215
-0.17
-0.175
-0.195
-0.21
-0.175
-0.14
-0.16
-0.155
-0.14
-0.14
-0.16
-0.14
-0.185
-0.15
-0.17
-0.185
-0.21
-0.185
-0.225
-0.18
-0.195
-0.225
-0.195
-0.135
-0.17
-0.145
-0.2
-0.155
-0.15
-0.19
-0.19
-0.185
-0.2
-0.205
-0.175
-0.19
-0.185
-0.15
-0.19
-0.19
-0.16
-0.17
-0.21
-0.17
-0.155
-0.215
-0.165
-0.18
-0.195
-0.155
-0.17
-0.21
-0.225
-0.175
-0.16
-0.16
-0.15
-0.17
-0.24
-0.155
-0.14
-0.175
-0.24
-0.16
-0.17
-0.15
-0.19
-0.205
-0.23
-0.225
-0.195
-0.22
-0.17
-0.13
-0.16
-0.165
-0.185
-0.18
-0.185
-0.2
-0.205
-0.19
-0.165
-0.165
-0.185
-0.22
-0.195
-0.185
-0.205
-0.18
-0.21
-0.18
-0.19
-0.175
-0.165
-0.16
-0.175
-0.175
-0.185
-0.19
-0.195
-0.215
-0.17
-0.125
-0.12
-0.215
-0.215
-0.18
-0.175
-0.17
-0.175
-0.185
-0.18
-0.135
-0.185
-0.145
-0.15
-0.145
-0.225
-0.175
-0.175
-0.24
-0.19
-0.18
-0.155
-0.16
-0.195
-0.18
-0.17
-0.22
-0.245
-0.21
-0.195
-0.145
-0.17
-0.15
-0.15
-0.175
-0.185
-0.135
-0.145
-0.15
-0.105
-0.055
-0.09
-0.11
-0.125
-0.08
-0.11
-0.1
-0.14
-0.23
-0.15
-0.11
-0.155
-0.165
-0.16
-0.205
-0.23
-0.23
-0.135
-0.145
-0.15
-0.145
-0.165
-0.125
-0.145
-0.18
-0.21
-0.19
-0.225
-0.18
-0.19
-0.21
-0.16
-0.21
-0.185
-0.2
-0.17
-0.17
-0.195
-0.225
-0.155
-0.135
-0.195
-0.205
-0.21
-0.23
-0.31
-0.315
-0.345
-0.39
-0.27
-0.24
-0.23
-0.145
-0.06
0.02
0.085
0.205
0.25
0.295
0.39
0.51
0.575
0.55
0.56
0.545
0.35
0.175
0.045
-0.065
-0.21
-0.33
-0.37
-0.35
-0.305
-0.295
-0.27
-0.25
-0.22
-0.22
-0.15
-0.11
-0.16
-0.185
-0.155
-0.175
-0.16
-0.155
-0.18
-0.16
-0.16
-0.155
-0.155
-0.13
-0.15
-0.16
-0.165
-0.145
-0.16
-0.185
-0.145
-0.125
-0.08
-0.13
-0.14
-0.145
-0.135
-0.135
-0.125
-0.11
-0.115
-0.115
-0.115
-0.14
-0.175
-0.165
-0.14
-0.1
-0.12
-0.13
-0.08
-0.1
-0.08
-0.095
-0.08
-0.06
-0.07
-0.13
-0.11
-0.08
-0.05
-0.07
-0.095
-0.04
-0.08
-0.08
-0.09
-0.04
-0.055
-0.045
0.035
-0.015
-0.01
0.035
-0.005
-0.01
0.055
0.065
0.03
0.045
0.075
0.075
0.055
0.1
0.12
0.085
0.09
0.09
0.1
0.15
0.135
0.15
0.215
0.185
0.165
0.14
0.165
0.16
0.19
0.195
0.205
0.225
0.265
0.21
0.205
0.19
0.205
0.23
0.185
0.18
0.205
0.185
0.12
0.17
0.07
0.07
0.08
0.025
0.025
0.06
0.07
0.035
0.02
-0.01
-0.06
-0.075
-0.035
-0.075
-0.13
-0.105
-0.125
-0.125
-0.13
-0.11
-0.09
-0.125
-0.145
-0.155
-0.155
-0.12
-0.11
-0.145
-0.16
-0.105
-0.16
-0.13
-0.145
-0.175
-0.185
-0.115
-0.13
-0.18
-0.185
-0.175
-0.165
-0.175
-0.145
-0.15
-0.195
-0.075
-0.13
-0.15
-0.145
-0.125
-0.155
-0.15
-0.165
-0.15
-0.135
-0.11
-0.12
-0.125
-0.185
-0.175
-0.155
-0.12
-0.135
-0.15
-0.135
-0.125
-0.1
-0.16
-0.155
-0.125
-0.145
-0.17
-0.16
-0.155
-0.17
-0.1
-0.09
-0.13
-0.115
-0.135
-0.125
-0.12
-0.15
-0.135
-0.125
-0.075
-0.165
-0.14
-0.115
-0.12
-0.17
-0.16
-0.165
-0.18
-0.145
-0.145
-0.13
-0.125
-0.11
-0.13
-0.14
-0.14
-0.16
-0.19
-0.175
-0.095
-0.12
-0.11
-0.115
-0.125
-0.125
-0.08
-0.135
-0.18
-0.135
-0.12
-0.15
-0.14
-0.135
-0.155
-0.165
-0.12
-0.18
-0.145
-0.125
-0.11
-0.16
-0.175
-0.16
-0.16
-0.155
-0.14
-0.15
-0.15
-0.11
-0.1
-0.125
-0.165
-0.22
-0.18
-0.125
-0.12
-0.175
-0.205
-0.15
-0.105
-0.07
-0.12
-0.11
-0.13
-0.135
-0.105
-0.105
-0.165
-0.15
-0.115
-0.15
-0.15
-0.15
-0.15
-0.155
-0.14
-0.14
-0.165
-0.125
-0.105
-0.105
-0.165
-0.15
-0.155
-0.14
-0.11
-0.11
-0.15
-0.165
-0.15
-0.155
-0.11
-0.1
-0.145
-0.14
-0.13
-0.13
-0.155
-0.13
-0.185
-0.17
-0.14
-0.155
-0.14
-0.15
-0.16
-0.15
-0.15
-0.085
-0.15
-0.135
-0.11
-0.09
-0.115
-0.12
-0.145
-0.165
-0.16
-0.115
-0.12
-0.16
-0.14
-0.16
-0.175
-0.115
-0.12
-0.15
-0.165
-0.15
-0.105
-0.13
-0.16
-0.095
-0.135
-0.085
-0.075
-0.07
-0.105
-0.05
-0.035
-0.055
-0.08
-0.12
-0.115
0.01
-0.075
-0.125
-0.13
-0.105
-0.12
-0.14
-0.13
-0.12
-0.125
-0.13
-0.12
-0.125
-0.125
-0.105
-0.11
-0.135
-0.185
-0.12
-0.145
-0.095
-0.1
-0.16
-0.135
-0.105
-0.16
-0.105
-0.1
-0.075
-0.17
-0.195
-0.115
-0.135
-0.16
-0.14
-0.155
-0.16
-0.195
-0.21
-0.245
-0.28
-0.31
-0.305
-0.275
-0.21
-0.145
-0.14
-0.005
0.105
0.175
0.215
0.275
0.37
0.455
0.535
0.555
0.63
0.575
0.49
0.41
0.275
0.105
-0.035
-0.115
-0.245
-0.32
-0.3
-0.26
-0.185
-0.19
-0.19
-0.185
-0.2
-0.13
-0.115
-0.095
-0.08
-0.09
-0.145
-0.14
-0.09
-0.08
-0.095
-0.045
-0.105
-0.15
-0.145
-0.11
-0.115
-0.11
-0.085
-0.095
-0.075
-0.075
-0.085
-0.085
-0.105
-0.125
-0.13
-0.125
-0.05
-0.07
-0.1
-0.115
-0.095
-0.115
-0.08
-0.06
-0.09
-0.07
-0.07
-0.07
-0.07
-0.035
-0.025
-0.05
-0.075
-0.04
-0.065
-0.045
-0.035
-0.035
-0.005
-0.005
0.025
0.02
0.0
0.005
-0.02
-0.02
0.02
0.045
0.035
0.04
0.025
0.015
0.01
0.075
0.05
0.055
0.07
0.07
0.065
0.11
0.115
0.08
0.125
0.175
0.125
0.17
0.155
0.14
0.175
0.215
0.2
0.215
0.215
0.24
0.23
0.25
0.215
0.255
0.24
0.265
0.25
0.265
0.27
0.26
0.26
0.21
0.315
0.265
0.195
0.235
0.23
0.27
0.24
0.195
0.175
0.14
0.1
0.065
0.1
0.115
0.055
0.005
0.015
0.035
0.005
0.015
0.0
-0.07
-0.065
-0.045
-0.04
-0.085
-0.065
-0.06
-0.13
-0.085
-0.08
-0.105
-0.095
-0.05
-0.1
-0.11
-0.1
-0.075
-0.065
-0.12
-0.12
-0.14
-0.11
-0.09
-0.08
-0.06
-0.06
-0.09
-0.1
-0.1
-0.065
-0.08
-0.06
-0.055
-0.095
-0.08
-0.075
-0.075
-0.075
-0.055
-0.05
-0.095
-0.1
-0.07
-0.08
-0.105
-0.09
-0.11
-0.12
-0.07
-0.065
-0.13
-0.045
-0.09
-0.065
-0.075
-0.075
-0.08
-0.035
-0.06
-0.08
-0.03
-0.055
-0.07
-0.065
-0.1
-0.09
-0.095
-0.06
-0.075
-0.105
-0.05
-0.06
-0.055
-0.065
-0.08
-0.09
-0.09
-0.09
-0.085
-0.05
-0.08
-0.085
-0.1
-0.075
-0.085
-0.045
-0.085
-0.055
-0.06
-0.055
-0.085
-0.015
-0.075
-0.095
-0.115
-0.13
-0.095
-0.075
-0.055
-0.05
-0.08
-0.08
-0.055
-0.065
-0.105
-0.05
-0.095
-0.095
-0.1
-0.09
-0.055
-0.085
-0.085
-0.08
-0.115
-0.07
-0.065
-0.105
-0.08
-0.095
-0.1
-0.09
-0.09
-0.075
-0.065
-0.075
-0.095
-0.055
-0.16
-0.135
-0.125
-0.06
-0.105
-0.1
-0.1
-0.085
-0.09
-0.055
-0.06
-0.07
-0.045
-0.045
-0.1
-0.095
-0.05
-0.09
-0.115
-0.075
-0.09
-0.12
-0.055
-0.04
-0.045
-0.045
-0.075
-0.085
-0.1
-0.075
-0.035
-0.075
-0.115
-0.08
-0.095
-0.085
-0.085
-0.105
-0.085
-0.085
-0.07
-0.08
-0.075
-0.06
-0.065
-0.045
-0.085
-0.115
-0.075
-0.06
-0.08
-0.065
-0.055
-0.035
-0.065
-0.11
-0.095
-0.11
-0.11
-0.07
-0.11
-0.11
-0.09
0.015
-0.05
-0.075
-0.025
-0.04
-0.08
-0.115
-0.125
-0.08
-0.035
-0.025
-0.075
-0.015
0.03
0.02
0.055
0.0
-0.04
-0.02
0.005
0.025
-0.03
-0.07
-0.05
-0.1
-0.1
-0.125
-0.07
-0.045
-0.055
-0.035
-0.055
-0.05
-0.055
-0.105
-0.06
-0.08
-0.105
-0.1
-0.03
-0.03
-0.16
-0.145
-0.08
-0.085
-0.09
-0.095
-0.115
-0.08
-0.05
-0.05
-0.06
-0.115
-0.055
-0.075
-0.115
-0.155
-0.14
-0.13
-0.135
-0.19
-0.215
-0.185
-0.14
-0.13
-0.095
0.02
0.1
0.17
0.245
0.3
0.29
0.415
0.54
0.61
0.61
0.62
0.565
0.525
0.43
0.245
0.13
-0.03
-0.16
-0.25
-0.265
-0.285
-0.24
-0.185
-0.17
-0.17
-0.185
-0.11
-0.135
-0.15
-0.095
-0.085
-0.08
-0.02
-0.01
-0.055
-0.02
-0.07
-0.02
-0.03
-0.03
-0.06
-0.09
-0.055
-0.02
-0.045
-0.045
-0.01
0.005
-0.035
-0.025
-0.06
-0.065
-0.02
-0.025
-0.045
-0.05
-0.085
-0.095
-0.015
0.015
-0.035
-0.045
0.005
0.025
0.0
0.005
0.0
-0.015
-0.065
0.015
0.005
-0.02
0.02
0.035
0.01
0.01
0.05
0.06
0.05
0.025
0.04
0.03
0.055
0.055
0.055
0.085
0.105
0.09
0.085
0.075
0.08
0.105
0.115
0.125
0.18
0.13
0.13
0.16
0.205
0.165
0.125
0.175
0.24
0.255
0.215
0.22
0.29
0.205
0.25
0.225
0.22
0.225
0.27
0.305
0.305
0.27
0.28
0.245
0.265
0.315
0.35
0.28
0.32
0.335
0.345
0.335
0.295
0.27
0.255
0.265
0.25
0.21
0.25
0.21
0.16
0.18
0.135
0.09
0.095
0.06
0.02
0.06
0.075
0.07
0.035
0.015
0.005
-0.03
0.015
-0.045
-0.015
-0.035
-0.05
-0.04
-0.04
-0.02
-0.025
-0.045
-0.055
-0.05
-0.075
-0.05
-0.045
-0.03
-0.04
-0.08
-0.035
-0.11
-0.09
-0.05
-0.05
-0.03
-0.03
-0.055
-0.05
-0.055
-0.07
-0.09
-0.045
-0.02
-0.075
-0.07
-0.055
-0.07
-0.07
-0.01
-0.02
-0.06
-0.05
-0.045
-0.09
-0.04
-0.025
-0.055
-0.02
0.03
-0.055
-0.08
-0.055
-0.055
-0.075
-0.055
-0.05
0.02
-0.03
-0.055
-0.03
-0.06
-0.09
-0.055
-0.085
-0.035
-0.035
-0.025
-0.03
-0.055
-0.015
0.0
-0.04
-0.035
-0.03
-0.04
-0.065
-0.05
-0.015
-0.045
-0.07
-0.055
-0.055
-0.035
-0.065
-0.06
-0.02
0.005
-0.015
-0.03
-0.04
-0.1
-0.08
-0.035
-0.075
-0.035
-0.055
-0.065
0.005
-0.05
-0.075
-0.095
-0.085
-0.065
-0.035
-0.015
-0.01
-0.015
-0.07
-0.05
-0.07
-0.105
-0.035
-0.04
-0.075
-0.015
0.01
0.005
-0.07
-0.06
-0.095
-0.065
-0.025
-0.045
-0.06
-0.05
-0.035
-0.045
-0.05
-0.03
-0.055
-0.07
-0.05
-0.03
-0.04
-0.055
-0.03
-0.025
-0.015
-0.005
-0.065
-0.07
-0.075
-0.1
-0.115
-0.09
-0.075
-0.035
-0.03
-0.02
-0.025
-0.01
0.005
-0.05
-0.055
-0.02
-0.045
-0.025
0.015
-0.065
-0.08
-0.035
-0.06
-0.13
-0.095
-0.02
-0.055
-0.08
-0.06
-0.01
-0.06
-0.055
-0.08
-0.08
-0.03
-0.03
-0.05
-0.085
-0.08
-0.06
-0.065
-0.02
-0.045
-0.055
-0.035
-0.02
-0.025
-0.025
-0.06
-0.08
-0.035
-0.035
-0.07
-0.065
-0.035
-0.01
0.015
-0.035
0.0
-0.01
0.02
0.055
0.035
0.035
0.01
-0.08
-0.09
0.025
-0.015
-0.035
-0.035
-0.025
-0.03
-0.085
-0.02
-0.005
-0.045
-0.02
-0.05
-0.1
-0.07
-0.06
-0.085
-0.07
-0.035
-0.025
-0.055
-0.06
-0.055
-0.04
-0.03
-0.08
-0.065
-0.07
-0.02
-0.01
-0.04
-0.085
-0.04
-0.045
-0.05
-0.015
-0.065
-0.08
-0.105
-0.165
-0.155
-0.195
-0.22
-0.185
-0.14
-0.08
0.02
0.085
0.175
0.26
0.315
0.325
0.385
0.46
0.56
0.64
0.62
0.585
0.575
0.515
0.315
0.145
0.03
0.005
-0.13
-0.24
-0.245
-0.245
-0.19
-0.18
-0.2
-0.125
-0.1
-0.095
-0.07
-0.04
-0.025
-0.045
-0.04
-0.01
0.02
-0.005
-0.05
-0.035
-0.015
-0.055
0.01
-0.01
0.025
-0.05
-0.01
-0.025
-0.085
0.005
0.02
-0.025
-0.05
-0.005
0.025
-0.005
0.055
-0.03
-0.045
-0.005
0.045
0.025
0.01
-0.005
0.01
0.015
0.025
0.0
0.01
-0.02
-0.01
0.025
0.01
0.015
0.075
0.09
0.05
0.005
0.035
0.055
0.07
0.065
0.07
0.065
0.055
0.075
0.05
0.1
0.12
0.07
0.09
0.08
0.12
0.14
0.135
0.16
0.15
0.165
0.155
0.15
0.12
0.175
0.23
0.275
0.235
0.22
0.225
0.255
0.275
0.26
0.285
0.305
0.265
0.315
0.33
0.3
0.33
0.325
0.305
0.25
0.325
0.33
0.32
0.37
0.39
0.335
0.295
0.35
0.355
0.265
0.28
0.28
0.295
0.28
0.275
0.245
0.175
0.165
0.145
0.16
0.125
0.1
0.08
0.1
0.09
0.03
0.015
-0.01
0.0
0.025
0.025
-0.045
-0.035
0.02
0.01
-0.035
0.05
-0.02
-0.045
-0.055
-0.005
0.01
-0.04
0.025
0.0
-0.015
-0.01
-0.055
-0.07
-0.1
-0.015
-0.03
-0.03
0.0
-0.02
-0.055
-0.08
-0.05
-0.03
-0.04
-0.04
-0.05
-0.025
0.025
-0.005
-0.005
-0.025
-0.005
-0.055
-0.025
-0.025
-0.02
-0.015
0.005
-0.02
-0.055
-0.025
-0.045
-0.01
-0.065
-0.02
-0.05
-0.05
-0.005
-0.045
-0.05
-0.055
0.025
-0.03
-0.04
-0.035
-0.035
-0.025
0.005
-0.045
-0.03
0.0
0.0
-0.075
-0.05
-0.04
-0.04
-0.03
-0.015
-0.01
-0.03
0.015
0.005
-0.005
0.015
0.02
-0.02
-0.035
-0.02
-0.015
-0.045
-0.015
-0.05
-0.035
0.06
-0.015
-0.075
-0.065
-0.005
-0.03
-0.045
-0.035
-0.04
-0.05
-0.05
-0.07
-0.06
-0.035
0.0
-0.05
-0.07
-0.035
-0.06
-0.075
-0.06
-0.04
-0.035
0.015
-0.015
-0.04
-0.06
-0.025
-0.035
-0.035
-0.025
-0.045
-0.07
0.0
0.005
-0.055
-0.04
-0.05
-0.11
-0.085
-0.025
-0.015
-0.04
0.005
-0.02
-0.1
-0.065
0.02
0.01
-0.09
-0.02
-0.015
-0.04
0.015
-0.045
-0.04
-0.085
-0.06
-0.06
-0.05
-0.035
-0.05
-0.06
-0.05
-0.055
-0.065
-0.1
-0.04
-0.03
-0.015
-0.015
-0.03
-0.045
-0.025
-0.065
-0.085
-0.055
-0.045
-0.055
-0.035
-0.05
-0.085
-0.07
-0.08
-0.08
-0.06
-0.03
-0.035
0.005
-0.015
-0.025
-0.045
-0.045
-0.025
-0.015
-0.035
-0.055
-0.07
-0.06
-0.055
-0.045
-0.055
-0.005
-0.045
0.0
0.01
0.005
0.095
0.065
0.035
0.025
-0.01
-0.005
0.01
-0.01
-0.06
-0.05
-0.06
-0.07
-0.05
-0.05
-0.01
-0.07
-0.025
-0.06
-0.035
-0.02
-0.085
-0.11
-0.105
-0.015
0.03
-0.055
-0.035
-0.04
-0.065
-0.1
-0.07
-0.11
0.0
-0.03
-0.04
-0.04
-0.01
-0.02
-0.055
-0.04
-0.095
-0.065
-0.085
-0.13
-0.15
-0.185
-0.2
-0.18
-0.175
-0.135
-0.095
-0.02
0.065
0.145
0.18
0.315
0.375
0.435
0.495
0.59
0.61
0.6
0.65
0.575
0.42
0.31
0.17
0.045
-0.085
-0.21
-0.25
-0.245
-0.195
-0.165
-0.145
-0.075
-0.09
-0.085
-0.09
-0.01
-0.035
-0.035
-0.06
-0.06
-0.075
-0.025
-0.015
-0.03
-0.045
-0.02
-0.06
-0.06
-0.05
-0.025
-0.055
0.01
0.025
-0.01
-0.005
-0.015
-0.045
-0.015
-0.025
-0.035
-0.055
0.0
0.03
-0.035
-0.03
-0.005
-0.015
0.0
-0.04
-0.055
-0.015
0.02
-0.045
-0.045
0.02
0.045
0.03
0.015
0.05
0.03
0.04
0.07
0.07
0.01
-0.01
0.01
0.05
0.02
0.035
0.06
0.07
0.115
0.075
0.105
0.095
0.115
0.095
0.1
0.145
0.145
0.14
0.125
0.095
0.135
0.17
0.145
0.16
0.175
0.235
0.19
0.2
0.22
0.23
0.265
0.3
0.245
0.24
0.24
0.265
0.32
0.32
0.335
0.26
0.305
0.3
0.375
0.36
0.33
0.32
0.325
0.3
0.33
0.325
0.295
0.275
0.24
0.24
0.26
0.245
0.205
0.23
0.22
0.18
0.16
0.14
0.13
0.12
0.12
0.06
0.025
0.005
0.095
0.025
-0.03
0.0
-0.02
0.02
0.045
-0.015
-0.01
-0.025
-0.05
-0.02
-0.015
-0.015
-0.06
-0.06
-0.07
-0.1
-0.075
-0.03
-0.005
-0.015
-0.025
-0.04
-0.11
-0.075
-0.04
-0.015
-0.055
-0.015
-0.05
-0.085
-0.065
-0.005
-0.05
-0.07
-0.05
-0.03
-0.05
-0.07
-0.03
-0.01
-0.03
-0.045
-0.055
-0.055
-0.035
-0.045
-0.04
0.03
0.01
-0.03
-0.085
-0.055
-0.07
-0.07
-0.03
-0.05
-0.05
-0.01
-0.02
-0.005
0.04
0.03
-0.04
-0.02
-0.085
-0.065
-0.045
-0.025
-0.04
-0.085
-0.07
-0.01
-0.05
-0.055
-0.005
-0.05
-0.02
-0.03
-0.035
-0.02
-0.02
-0.025
-0.025
-0.025
-0.02
-0.045
-0.015
-0.045
-0.045
-0.035
-0.045
-0.015
-0.025
-0.025
0.01
-0.055
-0.085
-0.065
-0.01
-0.01
-0.035
-0.085
-0.07
-0.025
-0.065
-0.09
-0.025
0.005
-0.03
-0.065
-0.05
-0.055
-0.05
-0.005
-0.035
-0.08
-0.055
0.0
-0.025
-0.035
-0.03
-0.065
-0.08
-0.02
-0.035
-0.085
-0.025
0.01
-0.015
-0.02
-0.035
-0.05
-0.07
-0.08
0.005
-0.03
0.0
-0.045
-0.015
0.02
-0.035
-0.05
-0.07
-0.045
-0.04
-0.11
-0.07
-0.02
-0.025
-0.04
-0.065
-0.055
-0.055
-0.07
-0.045
-0.035
-0.025
-0.01
-0.04
-0.065
-0.06
-0.055
-0.025
-0.055
-0.065
-0.065
-0.095
-0.085
0.0
-0.02
-0.02
-0.06
-0.045
-0.055
-0.07
-0.06
-0.035
-0.035
-0.055
-0.08
-0.05
-0.065
-0.035
-0.025
-0.055
-0.065
-0.035
-0.03
-0.045
-0.055
-0.015
-0.025
0.035
0.055
0.025
0.035
0.065
0.01
0.01
-0.01
-0.025
-0.015
-0.01
0.015
0.0
0.02
-0.01
-0.015
-0.05
-0.075
-0.105
-0.055
-0.035
-0.035
-0.085
-0.075
-0.02
-0.045
-0.05
-0.005
-0.005
-0.025
-0.085
-0.03
-0.07
-0.06
-0.025
-0.025
-0.045
-0.05
-0.04
-0.04
-0.065
-0.055
-0.08
-0.045
-0.055
-0.08
-0.07
-0.095
-0.12
-0.2
-0.21
-0.195
-0.165
-0.14
-0.095
0.005
0.095
0.16
0.25
0.32
0.415
0.475
0.555
0.655
0.71
0.68
0.675
0.595
0.425
0.27
0.15
0.015
-0.11
-0.165
-0.18
-0.175
-0.145
-0.085
-0.08
-0.14
-0.085
-0.075
-0.095
-0.045
-0.025
-0.035
-0.02
0.0
-0.075
-0.075
-0.035
-0.05
-0.045
0.045
0.02
-0.025
-0.015
0.04
0.01
-0.05
-0.025
-0.005
-0.025
0.0
-0.02
0.015
-0.02
-0.065
-0.05
0.005
0.015
0.005
0.01
0.045
0.045
0.025
0.025
0.015
-0.03
-0.015
0.015
0.005
0.03
0.07
0.045
0.0
0.02
0.095
0.085
0.055
0.065
0.065
0.035
0.08
0.045
0.055
0.055
0.06
0.08
0.055
0.08
0.1
0.095
0.105
0.135
0.12
0.095
0.155
0.15
0.145
0.175
0.18
0.165
0.215
0.2
0.21
0.2
0.2
0.155
0.195
0.245
0.295
0.275
0.335
0.335
0.345
0.305
0.345
0.315
0.305
0.305
0.33
0.36
0.305
0.325
0.31
0.33
0.36
0.36
0.36
0.335
0.31
0.33
0.345
0.305
0.29
0.24
0.225
0.185
0.16
0.12
0.085
0.09
0.12
0.1
0.11
0.135
0.06
0.03
0.065
0.085
0.045
0.01
0.015
0.025
0.025
-0.005
-0.065
-0.07
-0.045
-0.045
-0.02
-0.01
-0.02
-0.02
0.035
-0.01
-0.1
-0.005
-0.005
-0.02
-0.04
-0.05
-0.03
0.0
-0.05
-0.02
-0.05
-0.015
-0.05
-0.04
-0.03
-0.01
-0.015
0.01
-0.015
-0.01
-0.04
-0.035
-0.03
-0.04
-0.095
-0.045
-0.015
-0.06
-0.025
-0.01
-0.03
-0.035
0.0
-0.025
-0.04
-0.045
0.01
-0.04
-0.03
0.02
-0.025
-0.045
-0.04
-0.025
-0.06
0.015
-0.02
-0.055
-0.025
0.02
-0.035
-0.02
0.01
-0.025
-0.03
0.01
0.0
-0.02
-0.015
-0.005
-0.085
-0.08
-0.03
-0.04
-0.035
0.015
-0.015
0.005
0.02
0.01
0.005
0.015
0.0
-0.04
-0.035
-0.01
-0.06
-0.065
-0.065
-0.015
-0.05
-0.03
-0.02
-0.03
-0.04
-0.01
-0.045
-0.035
-0.03
-0.02
-0.02
-0.005
-0.025
-0.075
-0.055
-0.025
-0.01
-0.05
-0.06
-0.045
-0.06
-0.055
-0.05
-0.085
-0.025
-0.02
-0.01
-0.04
-0.06
-0.045
-0.06
-0.035
0.0
0.015
0.01
-0.01
0.0
0.0
-0.045
-0.065
-0.03
-0.04
-0.035
-0.085
-0.085
0.03
0.005
-0.04
-0.045
-0.03
-0.035
-0.07
-0.055
0.015
-0.015
-0.035
-0.045
-0.055
-0.02
-0.02
-0.05
-0.035
-0.04
-0.05
0.015
0.045
-0.025
-0.03
-0.025
-0.105
-0.11
-0.04
-0.035
-0.08
-0.03
-0.04
-0.065
-0.025
-0.03
-0.04
-0.075
-0.07
-0.1
-0.11
-0.02
0.035
-0.005
-0.03
-0.01
-0.055
-0.015
0.015
0.03
-0.02
0.035
0.05
0.07
0.08
0.045
0.025
0.005
0.025
-0.005
-0.055
-0.01
-0.025
-0.005
-0.005
-0.005
-0.01
-0.015
-0.005
-0.03
-0.055
-0.04
-0.02
-0.04
-0.09
-0.055
-0.045
-0.07
-0.04
-0.05
-0.045
-0.035
-0.08
-0.025
-0.015
-0.02
-0.02
-0.02
-0.065
-0.065
-0.02
0.03
-0.005
0.005
-0.055
-0.07
-0.105
-0.12
-0.165
-0.265
-0.275
-0.18
-0.155
-0.075
-0.045
0.04
0.105
0.185
0.275
0.33
0.415
0.53
0.575
0.65
0.68
0.745
0.655
0.565
0.43
0.235
0.075
0.0
-0.105
-0.14
-0.185
-0.195
-0.16
-0.11
-0.1
-0.1
-0.08
-0.01
-0.045
-0.04
-0.02
0.01
-0.005
0.005
-0.01
-0.025
0.005
0.025
-0.015
-0.075
-0.045
-0.01
-0.03
-0.01
-0.025
-0.035
0.005
0.025
0.025
-0.01
-0.015
0.0
0.015
0.04
0.005
-0.01
-0.005
0.015
-0.01
0.05
0.02
0.01
0.0
0.065
0.07
0.005
0.005
0.05
0.025
0.0
0.055
0.065
0.09
0.075
0.075
0.045
0.055
0.11
0.07
0.06
0.07
0.005
0.04
0.055
0.12
0.09
0.12
0.14
0.11
0.125
0.13
0.125
0.15
0.14
0.165
0.155
0.19
0.2
0.175
0.22
0.24
0.215
0.26
0.28
0.255
0.225
0.27
0.29
0.31
0.315
0.335
0.31
0.305
0.3
0.305
0.34
0.385
0.36
0.31
0.33
0.355
0.35
0.315
0.34
0.29
0.325
0.405
0.37
0.33
0.305
0.275
0.225
0.22
0.18
0.22
0.19
0.17
0.155
0.165
0.145
0.15
0.085
0.115
0.105
0.055
0.035
0.055
0.05
0.05
0.05
0.045
0.025
0.03
-0.02
-0.015
-0.035
-0.01
0.025
0.025
-0.025
0.01
-0.005
0.02
0.02
-0.015
-0.05
-0.02
-0.04
-0.04
-0.04
-0.05
-0.04
-0.01
-0.01
-0.02
0.005
0.02
0.02
-0.03
-0.005
-0.005
-0.08
-0.06
-0.01
-0.035
0.0
0.02
0.0
-0.03
-0.01
-0.035
-0.05
-0.02
-0.03
-0.015
0.05
-0.005
-0.005
0.0
0.035
0.025
-0.04
-0.005
0.02
0.01
0.02
0.025
-0.015
0.01
0.005
0.0
-0.01
0.005
-0.015
-0.035
0.02
0.01
0.02
-0.01
0.015
0.0
-0.055
0.015
0.0
-0.015
0.03
0.01
-0.03
-0.005
-0.015
0.015
-0.01
-0.03
-0.03
0.0
0.01
-0.015
-0.035
-0.045
-0.025
0.01
-0.005
-0.025
0.025
-0.04
-0.01
0.01
-0.015
-0.02
-0.02
-0.06
-0.04
0.015
0.015
0.005
0.02
0.005
0.0
0.01
-0.005
-0.005
0.005
0.045
-0.045
-0.035
-0.03
-0.015
-0.03
-0.02
-0.04
-0.04
-0.045
0.0
0.01
-0.025
0.0
0.025
-0.01
0.01
-0.005
-0.025
-0.035
-0.04
-0.035
-0.01
0.015
-0.02
-0.005
-0.035
0.005
-0.03
-0.045
-0.035
-0.02
0.005
0.01
-0.005
-0.06
-0.045
0.025
-0.03
-0.035
-0.005
-0.01
0.015
-0.015
-0.065
-0.055
-0.045
-0.015
-0.02
-0.01
-0.005
-0.035
-0.04
-0.01
0.025
0.0
0.0
-0.075
-0.045
-0.04
-0.045
-0.065
-0.01
0.005
0.005
0.045
-0.025
-0.03
-0.02
0.0
0.075
0.055
0.05
0.115
0.06
0.03
0.06
-0.005
0.02
0.02
-0.02
0.035
0.01
-0.015
-0.035
-0.005
0.025
0.0
-0.02
-0.02
-0.04
-0.025
0.035
0.0
0.0
-0.025
-0.045
-0.065
-0.06
-0.02
-0.035
-0.05
-0.05
0.025
0.02
-0.01
0.04
-0.035
-0.04
-0.055
-0.045
-0.03
-0.035
-0.04
-0.075
-0.05
-0.045
-0.11
-0.175
-0.145
-0.16
-0.13
-0.065
-0.045
-0.005
0.13
0.175
0.26
0.31
0.4
0.49
0.58
0.67
0.715
0.69
0.68
0.605
0.515
0.36
0.21
0.055
-0.095
-0.165
-0.135
-0.155
-0.17
-0.14
-0.105
-0.09
-0.055
-0.06
-0.045
-0.01
0.005
0.005
-0.025
0.005
0.015
0.0
-0.06
-0.035
-0.05
0.025
0.005
0.0
0.005
0.03
-0.01
0.005
0.0
0.0
0.06
0.025
0.005
0.045
0.055
0.01
-0.005
-0.04
0.01
0.025
0.015
0.075
0.055
0.03
0.085
0.1
0.075
0.04
0.005
-0.005
0.03
0.095
0.05
0.04
0.065
0.08
0.085
0.065
0.06
0.06
0.09
0.08
0.075
0.09
0.12
0.125
0.11
0.1
0.1
0.13
0.145
0.155
0.17
0.145
0.15
0.165
0.12
0.18
0.205
0.195
0.21
0.215
0.22
0.24
0.27
0.28
0.24
0.265
0.295
0.28
0.31
0.32
0.33
0.355
0.385
0.375
0.355
0.355
0.36
0.35
0.315
0.375
0.365
0.35
0.365
0.4
0.34
0.33
0.35
0.355
0.33
0.35
0.37
0.3
0.215
0.25
0.245
0.25
0.225
0.185
0.185
0.14
0.16
0.18
0.14
0.11
0.1
0.095
0.075
0.05
0.065
0.05
0.085
0.045
0.065
0.03
0.01
0.05
0.02
0.02
0.05
0.035
0.015
0.01
0.04
0.045
0.055
0.01
0.025
0.0
0.0
0.005
-0.01
-0.035
0.015
0.025
-0.055
-0.05
0.01
0.0
0.02
0.04
0.025
0.015
0.01
0.005
-0.015
0.02
0.025
0.015
0.055
0.06
0.015
0.005
0.01
-0.03
-0.015
0.065
-0.01
0.01
0.02
0.04
0.03
0.045
0.025
-0.01
-0.01
0.01
0.005
-0.025
0.055
0.07
0.05
0.015
0.025
0.025
-0.02
0.025
0.01
-0.02
0.02
0.03
0.025
0.04
0.045
0.005
0.04
0.015
0.01
0.015
0.05
0.06
-0.015
0.005
0.015
0.0
-0.005
0.0
0.005
0.065
0.005
-0.015
-0.005
0.03
0.005
-0.02
0.005
0.02
0.065
0.04
0.025
0.0
0.025
0.03
0.04
0.02
0.0
0.015
0.04
0.055
0.06
-0.01
-0.02
0.045
-0.04
-0.055
0.02
0.015
0.01
0.04
0.055
0.04
-0.015
0.025
0.015
-0.01
0.01
-0.005
-0.025
0.04
0.035
0.0
0.0
-0.005
-0.015
-0.005
-0.03
-0.04
-0.035
0.015
0.04
0.055
-0.005
-0.005
0.01
0.005
0.045
0.045
0.01
0.045
0.025
0.005
0.045
-0.02
-0.02
-0.035
0.0
0.03
-0.03
-0.005
0.005
0.0
0.0
-0.02
-0.065
0.0
0.05
0.04
0.02
0.06
0.05
-0.005
-0.035
-0.06
-0.045
-0.045
0.025
0.04
0.025
0.015
0.045
0.11
0.105
0.035
0.055
0.1
0.065
0.015
0.05
0.075
0.035
0.015
-0.005
0.0
0.02
0.03
0.04
0.005
0.005
0.03
-0.01
-0.03
-0.04
0.0
-0.02
0.005
0.005
-0.015
-0.01
-0.01
0.02
0.035
0.005
0.01
-0.035
-0.035
0.025
0.0
-0.025
0.01
0.005
0.01
-0.01
-0.025
-0.005
-0.02
-0.045
-0.105
-0.15
-0.115
-0.08
-0.095
-0.095
-0.06
0.02
0.08
0.17
0.26
0.3
0.4
0.455
0.515
0.595
0.61
0.65
0.66
0.6
0.48
0.4
0.245
0.095
-0.07
-0.14
-0.22
-0.25
-0.195
-0.195
-0.16
-0.1
-0.025
-0.05
-0.065
-0.005
-0.02
0.005
0.035
0.01
-0.04
0.025
0.05
0.015
0.01
0.015
0.025
0.0
0.03
-0.02
-0.015
-0.005
0.015
0.06
-0.005
0.015
0.015
0.04
0.05
0.07
0.055
0.015
0.025
0.05
0.055
0.065
0.06
0.02
0.055
0.03
0.015
0.045
0.08
0.09
0.045
0.07
0.01
0.045
0.07
0.135
0.115
0.075
0.085
0.105
0.09
0.095
0.1
0.08
0.09
0.08
0.08
0.17
0.14
0.125
0.135
0.13
0.16
0.17
0.18
0.17
0.155
0.16
0.205
0.215
0.25
0.215
0.235
0.24
0.285
0.295
0.305
0.28
0.28
0.25
0.245
0.335
0.27
0.31
0.335
0.32
0.37
0.405
0.38
0.305
0.315
0.37
0.38
0.38
0.43
0.36
0.35
0.37
0.355
0.385
0.325
0.32
0.28
0.235
0.245
0.24
0.22
0.19
0.16
0.19
0.16
0.15
0.125
0.09
0.105
0.09
0.08
0.13
0.095
0.095
0.07
0.06
0.07
0.03
-0.01
0.0
0.02
0.09
0.0
-0.005
0.01
0.01
-0.01
0.01
-0.015
0.015
0.075
0.07
0.065
0.015
0.0
-0.015
-0.05
-0.035
-0.015
0.005
-0.01
-0.005
0.005
-0.005
0.02
0.005
0.04
-0.01
0.01
-0.005
0.02
0.035
-0.015
-0.035
-0.01
0.015
-0.045
-0.05
-0.03
0.04
0.06
0.06
0.03
0.025
0.03
-0.045
0.0
0.03
0.055
0.02
0.015
0.0
-0.035
0.0
0.045
0.015
0.025
0.03
0.005
0.0
0.025
0.1
0.05
0.02
0.02
0.005
0.015
-0.005
0.01
-0.025
-0.035
-0.01
0.04
-0.01
0.02
0.015
0.05
0.015
0.015
-0.005
0.025
0.0
-0.01
-0.005
0.01
0.0
0.0
0.01
-0.005
-0.01
0.03
0.02
0.01
0.015
-0.03
-0.06
-0.04
-0.01
-0.035
0.005
0.045
0.01
0.045
-0.02
-0.05
-0.045
0.015
0.01
0.04
0.04
0.005
0.01
0.04
0.03
-0.035
-0.045
0.03
0.01
-0.01
-0.015
0.025
-0.005
-0.03
-0.055
-0.02
-0.025
-0.005
0.01
0.0
-0.01
0.025
-0.005
0.01
0.005
-0.01
-0.035
-0.01
-0.035
-0.035
-0.01
0.045
0.02
0.045
-0.01
-0.015
-0.025
-0.03
-0.055
-0.02
-0.005
0.0
-0.025
-0.06
0.0
0.015
-0.035
0.04
0.005
-0.005
0.0
0.045
0.04
0.0
0.0
-0.025
-0.04
-0.01
-0.035
-0.08
0.0
0.01
0.045
0.02
0.04
0.05
0.06
0.03
0.07
0.03
0.02
0.065
0.035
0.02
0.015
-0.035
0.005
0.025
0.01
0.01
0.015
0.035
-0.025
-0.025
0.0
-0.005
-0.035
-0.025
0.0
-0.06
-0.025
0.0
-0.015
0.0
-0.02
-0.04
-0.02
-0.015
-0.005
-0.02
0.015
-0.005
-0.02
-0.045
-0.06
-0.04
-0.01
-0.055
-0.045
-0.04
-0.085
-0.11
-0.18
-0.12
-0.07
-0.095
-0.055
-0.005
0.09
0.2
0.305
0.39
0.385
0.38
0.48
0.52
0.62
0.705
0.68
0.615
0.465
0.3
0.17
0.045
-0.1
-0.205
-0.205
-0.185
-0.205
-0.19
-0.135
-0.105
-0.1
-0.13
-0.105
-0.01
0.01
0.025
0.005
-0.01
0.005
0.01
0.055
-0.025
-0.005
-0.03
-0.02
-0.005
0.0
-0.035
-0.015
0.045
0.04
0.02
-0.02
-0.005
-0.005
-0.025
0.0
0.0
0.055
0.075
0.04
0.03
-0.015
0.025
0.08
0.04
0.05
0.015
-0.02
0.02
0.04
0.055
0.055
0.025
0.04
0.08
0.03
0.025
0.065
0.08
0.13
0.09
0.055
0.03
0.08
0.085
0.08
0.105
0.145
0.105
0.13
0.135
0.095
0.09
0.095
0.115
0.18
0.19
0.17
0.15
0.2
0.185
0.14
0.15
0.195
0.245
0.24
0.31
0.265
0.265
0.28
0.29
0.275
0.3
0.305
0.305
0.31
0.365
0.335
0.345
0.335
0.34
0.35
0.335
0.36
0.35
0.34
0.355
0.37
0.325
0.32
0.34
0.29
0.285
0.265
0.23
0.225
0.215
0.25
0.285
0.28
0.165
0.105
0.08
0.145
0.1
0.08
0.09
0.09
0.08
0.075
0.04
0.025
0.05
0.06
0.02
0.0
0.065
0.09
0.065
0.025
-0.01
-0.03
-0.06
0.02
0.02
-0.01
0.015
-0.01
-0.06
0.01
0.05
-0.005
-0.055
-0.045
-0.02
-0.01
0.025
0.015
0.0
-0.035
0.01
-0.05
-0.05
-0.035
-0.035
0.005
-0.03
0.015
-0.005
-0.03
0.015
-0.01
-0.035
0.01
0.005
0.075
0.025
0.025
0.0
0.04
0.035
-0.015
0.01
-0.015
-0.025
-0.025
-0.02
0.02
0.0
0.035
0.02
-0.015
0.025
-0.03
-0.01
0.0
0.015
0.035
-0.005
-0.005
0.01
-0.04
-0.035
0.02
0.025
0.045
0.035
-0.03
-0.045
0.01
0.0
0.005
0.005
-0.045
-0.045
0.04
0.045
0.01
-0.055
-0.015
0.015
0.045
0.015
0.055
0.03
-0.005
-0.015
0.01
-0.025
0.035
-0.02
0.005
0.01
-0.01
-0.03
0.025
-0.015
-0.035
0.0
0.015
-0.005
-0.01
-0.025
-0.055
-0.01
-0.06
0.015
0.0
-0.025
-0.03
-0.035
0.015
-0.015
-0.015
-0.02
0.015
0.0
0.0
0.0
-0.03
-0.04
-0.01
0.035
0.005
-0.03
0.005
0.025
0.02
0.03
0.0
-0.01
0.02
-0.03
-0.04
-0.01
0.0
-0.02
0.01
-0.025
-0.03
-0.05
-0.025
-0.065
-0.05
0.01
0.03
0.045
0.0
0.055
0.07
-0.015
-0.085
-0.035
-0.05
-0.035
-0.005
-0.04
-0.03
-0.11
-0.035
0.02
0.07
0.1
0.1
0.085
0.045
0.055
0.065
0.065
0.07
0.075
0.065
0.035
0.02
0.02
0.065
0.04
0.015
0.02
0.025
-0.005
0.0
-0.01
-0.01
-0.015
-0.005
-0.035
-0.025
-0.01
-0.05
-0.065
-0.035
-0.005
-0.02
0.01
0.025
0.01
-0.03
-0.025
-0.025
-0.045
-0.035
-0.05
-0.115
-0.045
-0.03
0.0
0.035
-0.01
-0.08
-0.035
-0.01
0.01
-0.085
-0.13
-0.13
-0.16
-0.15
-0.1
-0.09
-0.065
-0.01
0.065
0.175
0.295
0.365
0.415
0.515
0.65
0.69
0.695
0.72
0.715
0.605
0.45
0.27
0.13
0.02
-0.16
-0.265
-0.265
-0.18
-0.13
-0.08
-0.125
-0.04
-0.015
0.02
-0.04
-0.04
-0.035
-0.045
-0.015
-0.03
-0.01
-0.015
0.0
0.0
0.02
0.005
0.005
0.025
-0.02
-0.05
0.03
0.05
0.0
-0.01
0.005
-0.06
-0.04
0.01
0.04
0.0
0.045
0.015
0.055
-0.005
-0.005
-0.015
0.025
0.075
-0.005
0.005
0.02
0.07
0.1
0.06
0.055
0.04
0.095
0.075
0.07
0.08
0.105
0.09
0.075
0.11
0.1
0.08
0.07
0.065
0.09
0.08
0.1
0.09
0.105
0.09
0.13
0.14
0.18
0.16
0.205
0.165
0.165
0.17
0.16
0.19
0.235
0.225
0.2
0.2
0.19
0.275
0.3
0.315
0.32
0.295
0.27
0.285
0.235
0.29
0.355
0.39
0.33
0.34
0.35
0.355
0.36
0.385
0.355
0.38
0.375
0.385
0.395
0.355
0.38
0.345
0.34
0.32
0.27
0.26
0.21
0.24
0.225
0.2
0.18
0.17
0.13
0.085
0.085
0.105
0.145
0.12
0.1
0.085
0.09
0.03
0.03
-0.01
0.0
0.015
0.03
0.03
0.035
0.035
0.005
0.05
0.02
-0.055
0.005
0.005
-0.015
-0.01
-0.005
0.02
0.015
0.01
-0.02
0.02
0.005
0.0
-0.03
0.015
0.035
0.0
-0.025
-0.055
-0.04
-0.005
0.025
0.03
-0.005
0.03
0.065
0.03
0.01
-0.045
-0.025
0.01
-0.01
0.035
0.005
-0.015
0.03
0.02
0.025
0.03
0.01
-0.005
-0.025
-0.065
-0.02
0.06
0.01
0.015
-0.005
0.035
0.045
-0.005
0.03
0.025
0.04
0.055
0.01
0.01
0.01
0.01
-0.02
-0.04
-0.02
0.0
0.0
0.03
-0.015
-0.005
-0.01
-0.005
0.02
0.05
-0.005
-0.03
0.005
0.02
0.04
0.03
0.005
-0.01
-0.01
-0.01
-0.015
0.005
0.07
0.055
0.015
0.015
0.01
0.02
-0.03
-0.035
-0.075
0.0
-0.03
-0.005
-0.005
0.015
0.03
0.03
-0.025
-0.025
0.005
-0.005
0.02
0.055
-0.035
-0.05
-0.015
-0.02
-0.045
0.005
-0.01
0.01
0.0
-0.01
0.02
0.02
0.01
0.01
-0.04
-0.01
-0.03
-0.025
0.0
0.045
0.025
0.005
0.0
0.02
-0.01
-0.015
0.01
-0.055
-0.095
-0.03
0.015
-0.015
-0.05
-0.025
-0.05
0.015
0.015
0.05
0.02
0.01
-0.015
0.0
-0.05
-0.02
-0.035
-0.055
-0.04
-0.025
0.005
0.03
0.02
0.035
0.045
0.025
0.025
0.075
0.08
0.065
0.09
0.075
0.065
0.085
0.055
0.015
-0.035
-0.035
-0.01
0.025
0.045
0.055
-0.01
0.015
-0.025
-0.02
0.015
0.015
0.015
-0.075
-0.06
-0.065
-0.04
-0.035
0.01
0.025
0.06
0.02
-0.015
-0.035
-0.065
0.015
-0.05
-0.025
-0.035
-0.02
0.005
0.04
-0.005
-0.03
0.01
-0.025
-0.01
-0.015
-0.04
-0.12
-0.165
-0.17
-0.205
-0.2
-0.13
-0.1
-0.05
-0.02
0.08
0.17
0.26
0.355
0.36
0.49
0.58
0.64
0.745
0.75
0.71
0.645
0.525
0.325
0.215
0.065
-0.04
-0.17
-0.185
-0.15
-0.11
-0.14
-0.065
-0.085
-0.09
-0.045
-0.03
0.025
-0.01
-0.005
0.005
-0.045
-0.03
-0.025
-0.045
-0.03
0.0
0.02
-0.01
-0.005
0.0
-0.03
0.03
-0.005
0.0
0.005
0.04
0.035
0.005
-0.02
0.045
0.02
-0.015
-0.015
0.015
0.045
0.09
0.07
0.045
0.005
-0.005
0.025
0.055
0.04
0.025
0.01
0.025
0.035
0.08
0.09
0.085
0.035
0.11
0.09
0.05
0.065
0.085
0.09
0.145
0.1
0.07
0.1
0.105
0.105
0.11
0.115
0.165
0.135
0.115
0.17
0.18
0.13
0.14
0.165
0.115
0.175
0.2
0.17
0.205
0.245
0.28
0.27
0.295
0.325
0.305
0.31
0.34
0.315
0.29
0.315
0.33
0.335
0.35
0.335
0.33
0.395
0.405
0.365
0.355
0.365
0.31
0.35
0.325
0.35
0.33
0.35
0.295
0.305
0.3
0.295
0.21
0.225
0.215
0.24
0.2
0.17
0.15
0.1
0.09
0.095
0.085
0.1
0.105
0.085
0.09
0.07
0.04
0.0
0.01
0.005
0.03
0.05
0.04
0.0
-0.015
0.01
0.045
0.02
0.025
0.025
0.015
-0.015
-0.01
-0.055
-0.015
-0.025
-0.015
-0.005
0.025
0.015
-0.07
-0.035
-0.02
-0.01
-0.02
0.015
0.015
0.01
0.005
-0.005
-0.01
0.01
0.015
-0.055
-0.025
0.05
0.025
0.02
0.02
-0.035
-0.04
0.0
0.035
0.005
0.01
0.045
0.005
0.04
0.015
0.005
-0.045
0.03
-0.02
0.0
0.01
0.025
0.03
0.025
-0.005
0.005
0.005
-0.005
0.005
-0.01
0.01
0.04
0.02
0.015
0.02
0.01
0.0
-0.02
-0.015
-0.03
-0.035
0.03
0.025
0.025
0.04
0.02
0.015
0.06
0.005
-0.035
-0.035
0.025
0.025
-0.01
-0.055
-0.035
-0.02
0.025
0.0
0.04
0.04
