# TIPE ECG 2021 - ECG-ID Database v1.0.0 par Physionet
# [N° de la personne, N° de l'enregistrement, Période d'échantillonnage, Prénom, Age, Sexe, Date de l'enregistrement]
[77, 1, 0.002, "Harry", 19, "H", "20.05.2005"]
0.125
0.12
0.195
0.18
0.15
0.15
0.22
0.26
0.28
0.28
0.225
0.21
0.185
0.135
0.155
0.19
0.185
0.18
0.2
0.26
0.27
0.27
0.265
0.15
0.19
0.225
0.225
0.25
0.24
0.21
0.2
0.195
0.225
0.28
0.2
0.16
0.2
0.235
0.245
0.27
0.285
0.275
0.275
0.195
0.155
0.225
0.18
0.175
0.235
0.235
0.165
0.14
0.215
0.195
0.19
0.19
0.14
0.175
0.155
0.155
0.17
0.2
0.2
0.195
0.16
0.175
0.16
0.185
0.185
0.145
0.16
0.165
0.175
0.155
0.165
0.145
0.145
0.125
0.125
0.14
0.165
0.185
0.16
0.17
0.14
0.145
0.215
0.315
0.44
0.455
0.475
0.51
0.57
0.645
0.73
0.715
0.73
0.7
0.72
0.71
0.685
0.695
0.53
0.3
0.265
0.215
0.11
0.05
0.065
0.11
0.15
0.175
0.17
0.19
0.18
0.105
0.095
0.17
0.18
0.17
0.225
0.17
0.19
0.225
0.27
0.23
0.24
0.22
0.19
0.155
0.195
0.225
0.24
0.21
0.17
0.225
0.26
0.27
0.25
0.25
0.28
0.245
0.25
0.305
0.3
0.22
0.26
0.28
0.3
0.285
0.28
0.33
0.28
0.265
0.33
0.3
0.29
0.28
0.325
0.31
0.285
0.26
0.3
0.29
0.285
0.31
0.385
0.35
0.3
0.34
0.37
0.36
0.35
0.375
0.385
0.41
0.43
0.525
0.55
0.42
0.355
0.385
0.395
0.355
0.37
0.4
0.435
0.475
0.54
0.485
0.4
0.41
0.395
0.385
0.37
0.365
0.3
0.305
0.355
0.34
0.275
0.255
0.275
0.305
0.28
0.265
0.275
0.27
0.245
0.23
0.205
0.215
0.2
0.2
0.23
0.235
0.24
0.185
0.155
0.165
0.185
0.125
0.06
0.13
0.155
0.21
0.25
0.235
0.225
0.17
0.12
0.13
0.155
0.12
0.135
0.125
0.13
0.13
0.155
0.145
0.14
0.115
0.13
0.165
0.195
0.145
0.165
0.24
0.17
0.145
0.145
0.14
0.095
0.14
0.175
0.225
0.235
0.205
0.175
0.125
0.125
0.135
0.115
0.12
0.12
0.16
0.17
0.175
0.21
0.175
0.16
0.195
0.205
0.215
0.21
0.17
0.21
0.225
0.195
0.2
0.15
0.165
0.23
0.215
0.135
0.12
0.09
0.09
0.14
0.2
0.255
0.22
0.225
0.195
0.21
0.21
0.15
0.19
0.195
0.19
0.175
0.22
0.205
0.21
0.205
0.235
0.19
0.215
0.23
0.215
0.205
0.2
0.225
0.17
0.195
0.2
0.18
0.195
0.2
0.18
0.165
0.165
0.155
0.14
0.15
0.18
0.225
0.22
0.21
0.27
0.185
0.185
0.11
0.07
0.09
0.105
0.16
0.11
0.07
0.155
0.145
0.13
0.145
0.175
0.215
0.185
0.145
0.145
0.135
0.135
0.175
0.115
0.105
0.135
0.125
0.08
0.025
0.035
0.1
0.13
0.15
0.23
0.325
0.375
0.41
0.4
0.49
0.54
0.595
0.67
0.685
0.705
0.695
0.665
0.705
0.735
0.68
0.545
0.37
0.24
0.18
0.155
0.085
0.085
0.04
0.055
0.125
0.15
0.135
0.12
0.16
0.135
0.125
0.12
0.13
0.175
0.18
0.17
0.15
0.18
0.185
0.15
0.17
0.195
0.19
0.165
0.145
0.16
0.18
0.185
0.195
0.2
0.28
0.25
0.205
0.19
0.24
0.25
0.215
0.23
0.185
0.14
0.16
0.18
0.185
0.185
0.235
0.28
0.325
0.28
0.23
0.215
0.26
0.26
0.275
0.295
0.25
0.255
0.285
0.275
0.22
0.28
0.305
0.3
0.335
0.345
0.355
0.36
0.385
0.4
0.425
0.36
0.335
0.33
0.335
0.305
0.315
0.36
0.37
0.355
0.395
0.39
0.36
0.41
0.405
0.375
0.395
0.405
0.32
0.325
0.42
0.425
0.34
0.26
0.195
0.19
0.22
0.25
0.225
0.245
0.21
0.155
0.18
0.195
0.155
0.17
0.18
0.205
0.17
0.16
0.12
0.115
0.085
0.085
0.09
0.11
0.14
0.165
0.205
0.13
0.085
0.11
0.09
0.04
0.05
0.13
0.12
0.11
0.11
0.125
0.125
0.12
0.105
0.1
0.125
0.125
0.11
0.115
0.135
0.11
0.045
-0.005
0.04
0.09
0.075
0.08
0.09
0.065
0.085
0.09
0.13
0.145
0.21
0.195
0.07
0.075
0.095
0.085
0.045
0.09
0.08
0.1
0.11
0.11
0.135
0.165
0.125
0.135
0.16
0.125
0.105
0.135
0.11
0.045
0.025
0.055
0.095
0.115
0.12
0.145
0.155
0.15
0.135
0.11
0.125
0.105
0.11
0.12
0.175
0.185
0.16
0.14
0.105
0.14
0.125
0.16
0.155
0.14
0.14
0.155
0.135
0.16
0.17
0.1
0.045
0.105
0.13
0.145
0.16
0.145
0.145
0.1
0.14
0.105
0.105
0.135
0.12
0.15
0.14
0.135
0.15
0.11
0.1
0.13
0.07
0.11
0.05
0.02
0.05
0.045
0.05
0.065
0.075
0.055
0.09
0.14
0.125
0.075
0.105
0.11
0.095
0.12
0.12
0.055
0.085
0.05
0.035
0.02
0.0
-0.005
0.015
0.04
0.08
0.11
0.2
0.295
0.385
0.415
0.495
0.53
0.585
0.685
0.73
0.755
0.73
0.695
0.69
0.7
0.655
0.485
0.32
0.24
0.165
0.125
0.1
0.045
0.0
-0.005
0.005
0.0
0.03
0.08
0.105
0.11
0.08
0.05
0.09
0.11
0.1
0.1
0.135
0.14
0.12
0.145
0.145
0.155
0.085
0.07
0.11
0.145
0.13
0.14
0.18
0.165
0.19
0.125
0.13
0.115
0.055
0.07
0.115
0.135
0.145
0.175
0.16
0.125
0.13
0.14
0.16
0.18
0.17
0.145
0.15
0.2
0.2
0.175
0.135
0.17
0.185
0.185
0.205
0.235
0.255
0.23
0.255
0.285
0.285
0.335
0.33
0.305
0.285
0.31
0.3
0.28
0.305
0.335
0.28
0.275
0.315
0.305
0.275
0.29
0.345
0.34
0.405
0.375
0.415
0.315
0.265
0.315
0.315
0.24
0.205
0.25
0.25
0.235
0.22
0.19
0.2
0.2
0.165
0.18
0.16
0.155
0.15
0.15
0.085
0.075
0.075
0.1
0.075
0.09
0.085
0.07
0.075
0.075
0.05
0.04
0.11
0.155
0.1
0.02
-0.005
0.04
0.045
0.045
-0.02
0.04
0.03
0.0
0.03
0.015
0.065
0.09
0.0
-0.02
0.02
0.02
0.05
0.025
0.0
0.01
0.015
0.01
0.045
0.04
0.045
0.07
0.06
0.045
0.05
0.065
-0.005
-0.015
0.055
0.03
0.015
0.05
0.05
0.005
0.03
0.055
0.075
0.075
0.08
0.05
0.045
0.085
0.075
0.05
0.085
0.06
0.02
-0.045
-0.025
0.02
0.035
-0.005
0.015
0.04
0.065
0.08
0.06
0.01
0.05
0.1
0.085
0.025
0.02
0.03
0.06
0.055
0.06
0.115
0.165
0.105
0.1
0.155
0.19
0.105
0.075
0.045
0.06
0.055
0.045
0.035
0.07
0.1
0.05
0.035
0.03
0.075
0.075
0.085
0.085
0.12
0.135
0.08
0.045
0.055
0.04
0.03
0.065
0.095
0.06
0.035
0.065
0.055
0.02
0.03
0.05
0.025
0.01
0.03
0.1
0.13
0.025
0.03
0.055
0.02
0.035
0.065
0.01
0.025
0.04
0.04
0.02
0.015
0.04
0.005
0.005
0.02
-0.015
-0.02
-0.02
-0.055
-0.065
-0.025
0.055
0.165
0.26
0.36
0.43
0.52
0.555
0.675
0.76
0.705
0.715
0.74
0.705
0.69
0.715
0.695
0.54
0.405
0.3
0.2
0.045
-0.025
-0.015
-0.065
-0.02
0.01
0.045
0.1
0.14
0.15
0.025
0.005
0.035
0.05
0.09
0.09
0.135
0.145
0.12
0.125
0.16
0.115
0.135
0.045
-0.025
0.01
0.055
0.065
0.06
0.09
0.1
0.135
0.13
0.125
0.15
0.15
0.145
0.16
0.12
0.105
0.145
0.155
0.115
0.09
0.14
0.12
0.115
0.16
0.19
0.195
0.215
0.185
0.23
0.15
0.12
0.195
0.15
0.15
0.16
0.175
0.215
0.21
0.21
0.22
0.28
0.275
0.28
0.295
0.29
0.325
0.33
0.37
0.35
0.315
0.32
0.29
0.225
0.26
0.28
0.305
0.39
0.38
0.335
0.305
0.265
0.3
0.32
0.345
0.315
0.235
0.21
0.23
0.22
0.23
0.255
0.225
0.21
0.195
0.195
0.18
0.185
0.135
0.11
0.095
0.105
0.145
0.12
0.105
0.055
0.04
0.075
0.075
0.04
0.04
0.07
0.095
0.145
0.07
0.03
0.045
0.06
0.065
0.075
0.065
0.055
0.055
0.06
0.09
0.09
0.1
0.08
0.055
0.065
0.075
0.04
0.045
0.055
0.09
0.11
0.135
0.105
0.095
0.065
0.065
0.075
0.08
0.055
0.045
0.085
0.105
0.115
0.1
0.1
0.085
0.11
0.145
0.09
0.1
0.135
0.125
0.07
0.075
0.035
0.05
0.06
0.075
0.105
0.1
0.1
0.155
0.13
0.105
0.1
0.105
0.115
0.12
0.055
0.08
0.135
0.135
0.16
0.14
0.175
0.14
0.07
0.095
0.115
0.035
0.06
0.09
0.105
0.115
0.105
0.105
0.045
0.06
0.065
0.07
0.075
0.09
0.115
0.135
0.125
0.155
0.17
0.135
0.08
0.055
0.095
0.115
0.125
0.12
0.15
0.18
0.22
0.17
0.145
0.17
0.145
0.095
0.055
0.085
0.105
0.105
0.125
0.12
0.15
0.155
0.17
0.165
0.105
0.075
0.085
0.055
0.075
0.08
0.095
0.11
0.105
0.095
0.065
0.08
0.105
0.08
0.11
0.14
0.135
0.175
0.16
0.125
0.105
0.15
0.155
0.14
0.095
0.06
0.06
0.065
0.05
0.03
0.065
0.04
0.045
0.035
0.025
0.07
0.15
0.21
0.305
0.345
0.44
0.54
0.645
0.76
0.8
0.84
0.935
0.925
0.87
0.845
0.8
0.765
0.61
0.475
0.38
0.335
0.305
0.19
0.04
0.03
0.065
0.1
0.11
0.12
0.145
0.11
0.055
0.09
0.11
0.11
0.115
0.135
0.12
0.1
0.15
0.175
0.145
0.135
0.155
0.17
0.155
0.2
0.165
0.145
0.185
0.21
0.23
0.23
0.145
0.13
0.19
0.27
0.15
0.205
0.215
0.195
0.19
0.155
0.15
0.125
0.155
0.16
0.21
0.21
0.225
0.215
0.245
0.265
0.245
0.2
0.225
0.255
0.26
0.26
0.3
0.26
0.285
0.325
0.34
0.305
0.32
0.405
0.4
0.31
0.31
0.365
0.405
0.405
0.435
0.455
0.44
0.405
0.4
0.425
0.415
0.385
0.41
0.41
0.395
0.38
0.395
0.41
0.39
0.37
0.36
0.395
0.425
0.42
0.39
0.385
0.325
0.32
0.34
0.315
0.31
0.375
0.335
0.22
0.195
0.16
0.19
0.16
0.165
0.205
0.22
0.205
0.19
0.195
0.23
0.225
0.195
0.16
0.18
0.185
0.175
0.155
0.135
0.125
0.15
0.17
0.195
0.22
0.22
0.19
0.135
0.125
0.165
0.175
0.2
0.155
0.16
0.21
0.235
0.17
0.155
0.175
0.195
0.205
0.165
0.15
0.165
0.155
0.175
0.23
0.21
0.2
0.185
0.17
0.19
0.165
0.16
0.16
0.175
0.225
0.19
0.205
0.265
0.28
0.205
0.105
0.125
0.17
0.18
0.195
0.19
0.18
0.15
0.15
0.175
0.18
0.145
0.15
0.175
0.195
0.2
0.255
0.225
0.185
0.19
0.16
0.195
0.24
0.255
0.19
0.175
0.16
0.155
0.185
0.18
0.13
0.175
0.215
0.22
0.185
0.185
0.205
0.235
0.205
0.165
0.18
0.185
0.18
0.195
0.18
0.19
0.22
0.215
0.23
0.215
0.195
0.215
0.23
0.21
0.235
0.21
0.25
0.235
0.255
0.25
0.195
0.205
0.24
0.23
0.225
0.24
0.255
0.255
0.24
0.245
0.22
0.235
0.27
0.24
0.23
0.255
0.22
0.25
0.29
0.315
0.295
0.21
0.12
0.105
0.115
0.14
0.185
0.19
0.18
0.205
0.165
0.15
0.195
0.175
0.19
0.25
0.265
0.225
0.13
0.11
0.135
0.2
0.2
0.2
0.21
0.22
0.215
0.215
0.23
0.16
0.09
0.085
0.12
0.115
0.195
0.24
0.275
0.315
0.385
0.48
0.585
0.715
0.795
0.9
0.935
0.99
1.035
1.025
1.035
1.015
0.945
0.72
0.545
0.49
0.455
0.34
0.175
0.135
0.125
0.125
0.175
0.13
0.15
0.225
0.235
0.17
0.205
0.225
0.215
0.16
0.195
0.195
0.235
0.22
0.215
0.22
0.225
0.23
0.225
0.245
0.26
0.245
0.25
0.255
0.26
0.26
0.255
0.275
0.295
0.265
0.21
0.2
0.225
0.23
0.295
0.325
0.355
0.365
0.25
0.305
0.33
0.24
0.27
0.295
0.34
0.32
0.295
0.285
0.28
0.26
0.27
0.32
0.32
0.36
0.37
0.345
0.375
0.375
0.375
0.415
0.415
0.425
0.445
0.425
0.415
0.38
0.415
0.42
0.455
0.485
0.4
0.44
0.455
0.475
0.465
0.475
0.53
0.495
0.445
0.47
0.56
0.555
0.465
0.395
0.4
0.43
0.38
0.405
0.395
0.32
0.355
0.335
0.31
0.295
0.325
0.335
0.32
0.305
0.315
0.28
0.245
0.23
0.28
0.3
0.295
0.265
0.305
0.25
0.18
0.175
0.185
0.185
0.205
0.275
0.21
0.205
0.135
0.165
0.205
0.21
0.23
0.225
0.24
0.24
0.225
0.215
0.18
0.165
0.165
0.2
0.215
0.215
0.23
0.195
0.2
0.215
0.21
0.2
0.2
0.21
0.21
0.23
0.215
0.2
0.185
0.185
0.205
0.24
0.23
0.245
0.22
0.205
0.2
0.215
0.32
0.245
0.21
0.21
0.2
0.225
0.275
0.26
0.24
0.245
0.26
0.275
0.27
0.25
0.255
0.265
0.27
0.225
0.195
0.23
0.25
0.245
0.22
0.205
0.225
0.26
0.23
0.26
0.265
0.175
0.16
0.21
0.21
0.185
0.205
0.25
0.24
0.175
0.18
0.18
0.18
0.195
0.22
0.24
0.26
0.275
0.265
0.25
0.225
0.205
0.22
0.235
0.25
0.225
0.22
0.235
0.265
0.255
0.26
0.265
0.245
0.275
0.31
0.265
0.235
0.22
0.185
0.2
0.215
0.195
0.255
0.29
0.35
0.26
0.205
0.23
0.225
0.225
0.275
0.3
0.275
0.28
0.28
0.295
0.29
0.24
0.22
0.27
0.305
0.285
0.3
0.31
0.285
0.28
0.305
0.295
0.275
0.27
0.255
0.24
0.24
0.195
0.2
0.2
0.215
0.23
0.2
0.205
0.215
0.2
0.205
0.21
0.205
0.255
0.22
0.215
0.235
0.235
0.255
0.275
0.275
0.265
0.255
0.195
0.15
0.19
0.225
0.16
0.165
0.155
0.16
0.23
0.275
0.285
0.365
0.455
0.55
0.605
0.655
0.775
0.905
0.985
0.99
0.96
0.96
0.97
0.945
0.885
0.735
0.52
0.44
0.32
0.24
0.215
0.14
0.11
0.125
0.16
0.175
0.175
0.195
0.23
0.18
0.225
0.255
0.315
0.275
0.24
0.25
0.275
0.28
0.295
0.26
0.215
0.225
0.275
0.31
0.285
0.275
0.28
0.27
0.285
0.27
0.315
0.305
0.235
0.265
0.295
0.315
0.335
0.35
0.35
0.31
0.34
0.32
0.29
0.31
0.36
0.395
0.38
0.33
0.365
0.335
0.28
0.325
0.325
0.33
0.34
0.36
0.38
0.415
0.425
0.485
0.5
0.45
0.405
0.32
0.355
0.38
0.395
0.39
0.39
0.42
0.475
0.495
0.485
0.52
0.52
0.5
0.495
0.555
0.54
0.485
0.57
0.5
0.415
0.45
0.45
0.46
0.46
0.445
0.485
0.48
0.51
0.515
0.45
0.43
0.455
0.415
0.38
0.345
0.36
0.38
0.36
0.29
0.275
0.3
0.29
0.285
0.33
0.395
0.38
0.245
0.2
0.23
0.24
0.23
0.25
0.245
0.255
0.24
0.205
0.195
0.19
0.16
0.18
0.22
0.225
0.225
0.225
0.215
0.245
0.235
0.215
0.24
0.28
0.245
0.195
0.215
0.245
0.26
0.27
0.3
0.29
0.28
0.3
0.23
0.18
0.22
0.26
0.325
0.19
0.15
0.23
0.27
0.27
0.205
0.23
0.27
0.27
0.27
0.25
0.245
0.245
0.245
0.205
0.24
0.215
0.255
0.26
0.24
0.275
0.295
0.28
0.27
0.275
0.31
0.3
0.28
0.365
0.3
0.275
0.22
0.17
0.235
0.235
0.29
0.255
0.235
0.23
0.26
0.255
0.29
0.24
0.235
0.305
0.29
0.215
0.205
0.215
0.21
0.18
0.18
0.22
0.245
0.33
0.36
0.355
0.26
0.245
0.275
0.22
0.22
0.3
0.27
0.23
0.235
0.255
0.295
0.285
0.25
0.255
0.265
0.24
0.25
0.285
0.25
0.275
0.315
0.27
0.245
0.255
0.27
0.305
0.31
0.34
0.335
0.315
0.32
0.31
0.28
0.28
0.235
0.24
0.275
0.32
0.31
0.285
0.265
0.24
0.225
0.19
0.185
0.205
0.215
0.255
0.255
0.22
0.18
0.225
0.245
0.235
0.26
0.265
0.28
0.285
0.255
0.26
0.25
0.25
0.22
0.195
0.17
0.21
0.23
0.2
0.245
0.23
0.2
0.205
0.165
0.195
0.245
0.275
0.345
0.43
0.46
0.49
0.58
0.71
0.81
0.85
0.925
0.955
0.955
0.915
0.885
0.89
0.87
0.78
0.58
0.475
0.42
0.355
0.315
0.235
0.145
0.15
0.235
0.21
0.245
0.25
0.195
0.2
0.235
0.305
0.29
0.265
0.31
0.265
0.275
0.275
0.26
0.295
0.3
0.28
0.335
0.35
0.335
0.315
0.245
0.275
0.275
0.325
0.385
0.37
0.32
0.335
0.35
0.295
0.245
0.27
0.265
0.26
0.27
0.295
0.305
0.31
0.305
0.34
0.35
0.39
0.38
0.36
0.37
0.345
0.325
0.36
0.37
0.415
0.445
0.445
0.475
0.45
0.355
0.405
0.385
0.42
0.415
0.385
0.4
0.44
0.475
0.495
0.5
0.54
0.49
0.43
0.48
0.435
0.43
0.44
0.44
0.465
0.515
0.55
0.495
0.5
0.555
0.5
0.47
0.48
0.42
0.45
0.51
0.455
0.41
0.405
0.41
0.4
0.32
0.37
0.375
0.33
0.35
0.315
0.325
0.34
0.37
0.385
0.315
0.21
0.245
0.27
0.255
0.22
0.185
0.235
0.245
0.265
0.305
0.265
0.29
0.275
0.265
0.28
0.29
0.29
0.295
0.32
0.285
0.21
0.215
0.275
0.29
0.25
0.23
0.26
0.25
0.24
0.245
0.22
0.22
0.27
0.245
0.23
0.315
0.3
0.285
0.26
0.26
0.23
0.255
0.27
0.26
0.27
0.275
0.3
0.26
0.26
0.24
0.265
0.285
0.36
0.29
0.235
0.26
0.22
0.22
0.255
0.25
0.26
0.245
0.28
0.325
0.315
0.33
0.33
0.305
0.275
0.25
0.22
0.235
0.24
0.285
0.24
0.28
0.29
0.315
0.32
0.27
0.25
0.26
0.275
0.285
0.245
0.225
0.26
0.23
0.25
0.25
0.265
0.25
0.255
0.26
0.27
0.26
0.265
0.315
0.365
0.365
0.275
0.285
0.32
0.325
0.31
0.32
0.31
0.29
0.28
0.285
0.29
0.285
0.31
0.285
0.265
0.3
0.295
0.25
0.26
0.31
0.32
0.34
0.345
0.325
0.295
0.265
0.31
0.355
0.33
0.285
0.35
0.28
0.205
0.215
0.255
0.28
0.26
0.275
0.305
0.3
0.255
0.27
0.265
0.26
0.215
0.195
0.28
0.235
0.255
0.295
0.315
0.315
0.28
0.275
0.23
0.245
0.24
0.26
0.275
0.28
0.265
0.255
0.22
0.22
0.205
0.16
0.135
0.195
0.25
0.415
0.46
0.57
0.61
0.69
0.72
0.825
0.905
0.895
0.89
0.915
0.885
0.91
0.92
0.83
0.67
0.545
0.435
0.355
0.27
0.245
0.205
0.22
0.175
0.19
0.235
0.21
0.215
0.275
0.285
0.295
0.33
0.33
0.31
0.31
0.365
0.35
0.31
0.295
0.25
0.295
0.295
0.305
0.345
0.365
0.36
0.365
0.35
0.385
0.34
0.24
0.25
0.3
0.29
0.265
0.31
0.31
0.315
0.35
0.365
0.395
0.39
0.39
0.32
0.27
0.31
0.335
0.345
0.395
0.405
0.395
0.41
0.43
0.355
0.335
0.425
0.43
0.4
0.42
0.46
0.465
0.475
0.5
0.515
0.465
0.43
0.4
0.405
0.43
0.435
0.46
0.49
0.53
0.555
0.53
0.485
0.465
0.51
0.515
0.485
0.485
0.52
0.51
0.525
0.545
0.525
0.51
0.52
0.515
0.49
0.485
0.475
0.475
0.44
0.415
0.43
0.445
0.385
0.34
0.315
0.265
0.31
0.37
0.335
0.295
0.265
0.25
0.255
0.285
0.3
0.265
0.225
0.27
0.295
0.285
0.295
0.235
0.19
0.225
0.26
0.3
0.315
0.28
0.28
0.205
0.2
0.235
0.25
0.28
0.275
0.28
0.29
0.245
0.265
0.24
0.195
0.225
0.24
0.26
0.26
0.31
0.295
0.245
0.27
0.24
0.265
0.27
0.32
0.3
0.3
0.275
0.285
0.27
0.27
0.305
0.24
0.245
0.27
0.295
0.295
0.295
0.27
0.22
0.23
0.235
0.24
0.245
0.245
0.255
0.28
0.32
0.315
0.285
0.225
0.245
0.29
0.3
0.26
0.24
0.27
0.315
0.37
0.255
0.23
0.25
0.24
0.24
0.295
0.275
0.25
0.245
0.295
0.305
0.3
0.31
0.32
0.295
0.205
0.165
0.225
0.23
0.23
0.24
0.305
0.285
0.255
0.25
0.195
0.16
0.22
0.25
0.275
0.265
0.24
0.31
0.33
0.26
0.28
0.295
0.325
0.325
0.275
0.265
0.31
0.325
0.335
0.34
0.305
0.285
0.305
0.3
0.245
0.255
0.31
0.27
0.235
0.25
0.24
0.26
0.29
0.32
0.35
0.39
0.385
0.23
0.26
0.265
0.25
0.255
0.225
0.215
0.265
0.305
0.335
0.295
0.295
0.24
0.25
0.24
0.24
0.21
0.225
0.295
0.29
0.315
0.27
0.29
0.285
0.235
0.21
0.21
0.225
0.21
0.25
0.225
0.225
0.27
0.24
0.23
0.21
0.215
0.19
0.23
0.295
0.395
0.475
0.525
0.56
0.66
0.77
0.84
0.915
1.005
1.08
1.09
1.045
1.04
1.07
1.035
0.975
0.77
0.66
0.59
0.47
0.355
0.28
0.245
0.27
0.245
0.24
0.285
0.335
0.365
0.33
0.385
0.465
0.395
0.295
0.285
0.33
0.31
0.35
0.325
0.355
0.405
0.32
0.26
0.27
0.31
0.365
0.355
0.375
0.395
0.41
0.4
0.415
0.4
0.41
0.36
0.365
0.38
0.33
0.35
0.415
0.39
0.435
0.47
0.445
0.45
0.46
0.405
0.375
0.38
0.39
0.415
0.455
0.41
0.445
0.49
0.46
0.49
0.55
0.495
0.48
0.485
0.5
0.495
0.51
0.53
0.55
0.535
0.59
0.63
0.595
0.665
0.61
0.61
0.62
0.58
0.63
0.57
0.585
0.565
0.56
0.605
0.595
0.65
0.65
0.565
0.56
0.625
0.635
0.6
0.64
0.61
0.6
0.555
0.605
0.6
0.555
0.565
0.43
0.485
0.555
0.465
0.52
0.52
0.465
0.535
0.6
0.535
0.585
0.41
0.395
0.38
0.445
0.475
0.43
0.43
0.48
0.5
0.455
0.425
0.31
0.375
0.4
0.43
0.415
0.44
0.455
0.455
0.435
0.415
0.41
0.405
0.425
0.48
0.46
0.345
0.38
0.42
0.445
0.495
0.43
0.47
0.515
0.48
0.505
0.455
0.435
0.385
0.46
0.455
0.435
0.43
0.445
0.44
0.515
0.515
0.52
0.505
0.43
0.51
0.48
0.48
0.455
0.405
0.47
0.505
0.5
0.53
0.445
0.395
0.415
0.49
0.525
0.385
0.395
0.44
0.485
0.52
0.58
0.505
0.545
0.56
0.505
0.54
0.49
0.3
0.425
0.43
0.365
0.485
0.455
0.51
0.53
0.5
0.515
0.52
0.415
0.445
0.415
0.5
0.5
0.43
0.4
0.41
0.455
0.485
0.475
0.465
0.48
0.435
0.435
0.41
0.355
0.405
0.455
0.485
0.56
0.595
0.465
0.575
0.51
0.535
0.405
0.43
0.41
0.475
0.46
0.46
0.465
0.465
0.41
0.49
0.55
0.495
0.465
0.515
0.46
0.43
0.48
0.455
0.415
0.475
0.44
0.44
0.47
0.51
0.405
0.39
0.41
0.39
0.48
0.535
0.55
0.39
0.425
0.455
0.26
0.3
0.325
0.305
0.365
0.38
0.355
0.41
0.38
0.39
0.36
0.38
0.39
0.41
0.34
0.4
0.345
0.335
0.335
0.33
0.3
0.26
0.325
0.4
0.54
0.675
0.715
0.83
1.0
1.05
1.175
1.215
1.24
1.22
1.16
1.12
1.17
1.03
0.865
0.665
0.56
0.5
0.39
0.305
0.34
0.295
0.245
0.24
0.205
0.355
0.335
0.4
0.43
0.435
0.32
0.3
0.39
0.41
0.47
0.36
0.345
0.405
0.375
0.445
0.49
0.43
0.44
0.365
0.29
0.305
0.31
0.35
0.32
0.315
0.35
0.415
0.43
0.42
0.43
0.41
0.385
0.42
0.43
0.425
0.36
0.395
0.4
0.4
0.39
0.4
0.385
0.405
0.375
0.35
0.435
0.38
0.4
0.385
0.34
0.33
0.275
0.315
0.355
0.315
0.28
0.27
0.285
0.27
0.21
0.15
0.215
0.205
0.215
0.24
0.215
0.24
0.455
0.57
0.675
0.905
1.245
1.495
1.71
2.0
2.215
2.37
2.555
2.795
3.15
3.405
3.715
3.95
4.195
4.375
4.64
4.92
4.99
5.08
5.185
5.43
5.67
5.985
6.265
6.485
6.715
6.945
7.15
7.385
7.65
7.865
8.105
8.33
8.545
8.77
8.95
9.11
9.24
9.375
9.495
9.52
9.61
9.675
9.795
9.845
9.915
10.005
10.105
10.115
10.115
10.115
10.115
10.115
10.11
10.115
10.115
10.115
10.115
10.105
10.11
10.115
9.93
9.635
9.455
9.275
9.0
8.82
8.66
8.53
8.39
8.2
8.075
7.98
7.785
7.575
7.535
7.445
7.335
7.255
7.065
6.96
6.84
6.79
6.715
6.625
6.515
6.38
6.355
6.315
6.195
6.065
5.925
5.825
5.83
5.755
5.615
5.495
5.485
5.41
5.37
5.27
5.19
5.155
5.055
4.975
4.93
4.84
4.815
4.815
4.75
4.715
4.64
4.575
4.475
4.335
4.305
4.3
4.24
4.23
4.225
4.21
4.205
4.195
4.125
4.04
4.005
3.885
3.9
3.855
3.85
3.79
3.745
3.735
3.69
3.655
3.65
3.64
3.595
3.51
3.47
3.465
3.41
3.41
3.42
3.405
3.355
3.335
3.28
3.215
3.21
3.18
3.165
3.17
3.125
3.11
3.07
3.005
2.985
2.99
2.99
2.905
2.89
2.88
2.875
2.87
2.845
2.835
2.85
2.805
2.82
2.825
2.77
2.75
2.755
2.69
2.665
2.635
2.56
2.5
2.605
2.61
2.46
2.455
2.485
2.415
2.38
2.365
2.375
2.455
2.475
2.505
2.53
2.63
2.695
2.78
2.87
2.895
2.935
2.95
2.985
3.035
3.005
2.965
2.92
2.78
2.585
2.41
2.21
2.11
2.05
2.02
2.005
1.96
1.935
1.93
1.92
1.95
1.995
2.04
2.035
1.98
1.98
1.985
1.955
1.925
1.93
1.935
1.925
1.87
1.915
1.91
1.91
1.9
1.885
1.855
1.9
1.91
1.915
1.845
1.855
1.82
1.805
1.77
1.74
1.74
1.735
1.72
1.75
1.765
1.79
1.8
1.82
1.785
1.76
1.745
1.69
1.585
1.7
1.685
1.645
1.685
1.63
1.625
1.655
1.665
1.605
1.62
1.625
1.66
1.665
1.565
1.55
1.605
1.605
1.625
1.615
1.635
1.63
1.59
1.595
1.615
1.645
1.595
1.595
1.61
1.595
1.595
1.57
1.58
1.565
1.53
1.52
1.495
1.495
1.515
1.49
1.425
1.43
1.44
1.45
1.455
1.44
1.37
1.355
1.34
1.35
1.37
1.345
1.295
1.29
1.225
1.225
1.2
1.2
1.23
1.225
1.21
1.165
1.16
1.17
1.2
1.15
1.05
1.02
1.015
1.005
1.065
1.025
1.0
1.025
1.03
1.025
1.055
0.985
1.025
1.01
0.945
0.965
0.99
1.005
0.965
0.975
0.91
0.92
0.9
0.88
0.91
0.88
0.875
0.885
0.925
0.915
0.94
0.92
0.92
0.89
0.865
0.905
0.865
0.88
0.905
0.895
0.835
0.845
0.83
0.85
0.83
0.845
0.85
0.845
0.82
0.875
0.835
0.775
0.775
0.81
0.83
0.85
0.87
0.825
0.86
0.84
0.775
0.74
0.755
0.79
0.74
0.71
0.71
0.71
0.73
0.715
0.705
0.745
0.67
0.715
0.73
0.735
0.72
0.685
0.72
0.7
0.71
0.715
0.69
0.695
0.75
0.75
0.705
0.745
0.68
0.65
0.63
0.67
0.7
0.725
0.68
0.69
0.705
0.745
0.705
0.71
0.645
0.69
0.675
0.61
0.615
0.65
0.66
0.625
0.615
0.62
0.61
0.575
0.64
0.69
0.68
0.685
0.67
0.61
0.6
0.605
0.645
0.6
0.54
0.555
0.575
0.445
0.49
0.495
0.53
0.53
0.485
0.535
0.57
0.605
0.55
0.555
0.64
0.595
0.575
0.6
0.64
0.605
0.515
0.505
0.515
0.485
0.485
0.475
0.47
0.515
0.56
0.595
0.65
0.77
0.885
0.97
0.96
1.08
1.21
1.305
1.395
1.37
1.355
1.3
1.305
1.265
1.18
0.965
0.79
0.72
0.635
0.51
0.46
0.45
0.415
0.45
0.46
0.485
0.445
0.43
0.445
0.455
0.475
0.555
0.605
0.55
0.525
0.485
0.44
0.46
0.51
0.545
0.545
0.535
0.535
0.475
0.42
0.475
0.495
0.565
0.53
0.515
0.57
0.545
0.58
0.48
0.435
0.48
0.515
0.49
0.5
0.525
0.565
0.595
0.67
0.675
0.495
0.495
0.52
0.53
0.55
0.535
0.59
0.58
0.58
0.565
0.545
0.54
0.605
0.58
0.615
0.61
0.59
0.63
0.655
0.66
0.57
0.61
0.595
0.65
0.655
0.65
0.685
0.695
0.745
0.71
0.66
0.67
0.615
0.64
0.655
0.635
0.66
0.675
0.685
0.705
0.63
0.63
0.66
0.655
0.64
0.63
0.51
0.51
0.59
0.535
0.535
0.51
0.545
0.555
0.515
0.525
0.555
0.475
0.435
0.44
0.445
0.415
0.435
0.4
0.355
0.385
0.375
0.385
0.37
0.355
0.295
0.315
0.32
0.3
0.305
0.315
0.335
0.35
0.335
0.295
0.28
0.31
0.265
0.315
0.33
0.29
0.385
0.375
0.3
0.24
0.285
0.315
0.28
0.305
0.265
0.305
0.295
0.295
0.33
0.3
0.255
0.325
0.345
0.36
0.395
0.33
0.235
0.24
0.295
0.28
0.25
0.255
0.28
0.305
0.28
0.29
0.32
0.365
0.315
0.265
0.26
0.325
0.215
0.205
0.25
0.265
0.285
0.305
0.31
0.315
0.27
0.26
0.275
0.285
0.215
0.22
0.23
0.255
0.3
0.295
0.335
0.28
0.275
0.275
0.245
0.31
0.33
0.33
0.38
0.335
0.305
0.315
0.295
0.28
0.275
0.245
0.265
0.295
0.26
0.25
0.29
0.32
0.275
0.28
0.285
0.275
0.25
0.26
0.31
0.31
0.315
0.295
0.255
0.265
0.245
0.3
0.235
0.225
0.255
0.265
0.285
0.3
0.325
0.315
0.255
0.2
0.19
0.185
0.205
0.185
0.235
0.255
0.275
0.28
0.19
0.175
0.255
0.245
0.2
0.19
0.22
0.19
0.16
0.16
0.22
0.255
0.225
0.12
0.05
0.08
0.14
0.11
0.25
0.27
0.26
0.44
0.54
0.62
0.685
0.855
0.925
1.035
0.985
1.025
1.05
1.055
0.98
0.915
0.765
0.585
0.415
0.355
0.295
0.22
0.125
0.12
0.15
0.095
0.035
0.075
0.13
0.155
0.165
0.125
0.135
0.205
0.155
0.135
0.14
0.19
0.135
0.1
0.145
0.135
0.17
0.11
0.125
0.115
0.11
0.155
0.14
0.22
0.16
0.035
0.1
0.15
0.145
0.155
0.14
0.155
0.155
0.175
0.1
0.085
0.145
0.205
0.26
0.17
0.14
0.16
0.2
0.17
0.115
0.145
0.115
0.11
0.17
0.19
0.205
0.165
0.23
0.215
0.215
0.245
0.265
0.245
0.28
0.305
0.245
0.245
0.295
0.22
0.2
0.215
0.26
0.315
0.34
0.32
0.335
0.305
0.27
0.285
0.335
0.34
0.31
0.305
0.31
0.355
0.355
0.245
0.2
0.21
0.215
0.21
0.215
0.245
0.245
0.24
0.2
0.2
0.18
0.12
0.135
0.15
0.14
0.135
0.11
0.115
0.145
0.15
0.115
0.04
0.09
0.135
0.13
0.1
0.045
0.005
0.0
0.015
0.045
0.115
0.08
0.08
0.1
0.045
0.085
0.085
-0.015
-0.03
0.015
0.005
-0.025
0.055
0.035
0.025
0.03
0.06
0.09
0.055
0.05
0.125
0.085
0.045
-0.015
-0.005
0.0
0.035
0.065
0.11
0.07
0.065
0.055
0.025
0.065
0.095
0.075
0.06
0.065
0.03
0.01
0.02
0.035
0.075
0.065
0.085
0.13
0.095
0.13
0.1
0.175
0.035
-0.02
0.01
0.05
0.03
0.01
0.03
0.06
0.12
0.07
0.03
0.095
0.105
0.13
0.11
0.11
0.135
0.115
0.065
0.095
0.12
0.08
0.055
0.13
0.105
0.08
0.08
0.085
0.12
0.15
0.18
0.13
0.075
0.135
0.09
0.115
0.155
0.175
0.155
0.085
0.125
0.1
0.1
0.07
0.11
0.105
0.135
0.155
0.13
0.105
0.08
0.09
0.05
0.045
0.065
0.11
0.155
0.1
-0.025
0.045
0.07
0.045
0.05
0.035
0.06
0.08
0.105
0.09
0.12
0.08
0.015
0.03
0.11
0.13
0.135
0.085
0.06
0.08
0.06
0.045
-0.015
-0.04
0.005
-0.01
0.04
0.12
0.23
0.405
0.525
0.525
0.59
0.8
0.89
0.865
0.88
0.93
0.93
0.91
0.95
0.81
0.58
0.44
0.375
0.28
0.165
0.01
-0.05
0.005
0.045
0.06
0.14
0.15
0.105
0.095
0.08
0.02
0.08
0.12
0.17
0.18
0.1
0.125
0.135
0.15
0.165
0.15
0.19
0.155
0.12
0.09
0.18
0.245
0.225
0.145
0.085
0.095
0.105
0.16
0.24
0.115
0.03
0.235
0.22
0.235
0.195
0.18
0.25
0.14
0.2
0.305
0.3
0.24
0.28
0.26
0.28
0.25
0.22
0.215
0.28
0.315
0.345
0.375
0.24
0.195
0.285
0.315
0.29
0.325
0.325
0.45
0.395
0.335
0.4
0.28
0.33
0.39
0.41
0.39
0.435
0.4
0.415
0.355
0.5
0.6
0.31
0.32
0.41
0.42
0.455
0.425
0.425
0.385
0.28
0.415
0.365
0.335
0.35
0.295
0.295
0.28
0.33
0.375
0.335
0.25
0.305
0.275
0.285
0.2
0.185
0.23
0.215
0.225
0.23
0.18
0.245
0.235
0.04
0.165
0.185
0.125
0.155
0.19
0.18
0.27
0.235
0.215
0.085
0.1
0.205
0.225
0.2
0.185
0.23
0.175
0.135
0.17
0.22
0.2
0.185
0.125
0.17
0.25
0.23
0.225
0.105
0.07
0.105
0.2
0.235
0.21
0.265
0.25
0.135
0.12
0.095
0.18
0.2
0.25
0.35
0.175
0.145
0.19
0.215
0.11
0.1
0.145
0.245
0.21
0.36
0.315
0.23
0.22
0.2
0.23
0.205
0.29
0.225
0.1
0.085
0.215
0.23
0.19
0.23
0.265
0.215
0.165
0.155
0.22
0.33
0.38
0.375
0.2
0.195
0.26
0.265
0.265
0.275
0.275
0.36
0.29
0.27
0.155
0.16
0.255
0.31
0.34
0.33
0.395
0.31
0.28
0.275
0.18
0.215
0.265
0.2
0.19
0.28
0.27
0.35
0.245
0.195
0.16
0.19
0.18
0.205
0.22
0.225
0.22
0.215
0.25
0.21
0.175
0.165
0.26
0.265
0.145
0.225
0.275
0.195
0.245
0.265
0.24
0.28
0.25
0.165
0.15
0.215
0.19
0.25
0.095
0.12
0.13
0.165
0.175
0.32
0.335
0.38
0.485
0.5
0.63
0.815
0.94
0.96
1.085
1.075
0.98
0.995
1.02
1.125
0.84
0.74
0.595
0.52
0.375
0.26
0.21
0.08
0.01
0.115
0.23
0.22
0.235
0.19
0.22
0.25
0.185
0.295
0.29
0.31
0.34
0.395
0.3
0.225
0.35
0.34
0.295
0.31
0.275
0.3
0.29
0.265
0.32
0.365
0.36
0.465
0.475
0.375
0.335
0.23
0.33
0.39
0.3
0.19
0.34
0.36
0.33
0.345
0.345
0.365
0.435
0.415
0.325
0.385
0.415
0.47
0.495
0.515
0.355
0.425
0.435
0.415
0.385
0.355
0.375
0.47
0.5
0.555
0.565
0.485
0.46
0.43
0.51
0.445
0.485
0.48
0.535
0.5
0.54
0.61
0.5
0.54
0.615
0.635
0.545
0.54
0.55
0.52
0.555
0.57
0.6
0.595
0.615
0.67
0.495
0.41
0.49
0.51
0.55
0.515
0.45
0.44
0.47
0.42
0.41
0.475
0.475
0.45
0.455
0.46
0.42
0.38
0.355
0.27
0.265
0.315
0.32
0.35
0.375
0.35
0.265
0.27
0.31
0.36
0.37
0.285
0.295
0.385
0.365
0.355
0.305
0.3
0.28
0.305
0.39
0.31
0.29
0.31
0.295
0.37
0.37
0.35
0.36
0.28
0.285
0.32
0.335
0.265
0.345
0.375
0.375
0.355
0.36
0.36
0.315
0.31
0.325
0.335
0.405
0.42
0.44
0.295
0.35
0.36
0.38
0.385
0.345
0.315
0.385
0.355
0.395
0.465
0.475
0.395
0.425
0.345
0.32
0.36
0.355
0.345
0.34
0.36
0.385
0.39
0.415
0.375
0.305
0.35
0.415
0.44
0.415
0.405
0.4
0.395
0.405
0.395
0.41
0.46
0.465
0.495
0.44
0.395
0.44
0.465
0.495
0.43
0.34
0.395
0.41
0.435
0.445
0.44
0.43
0.465
0.485
0.485
0.445
0.395
0.395
0.41
0.46
0.44
0.435
0.41
0.405
0.415
0.375
0.385
0.39
0.42
0.405
0.37
0.335
0.34
0.355
0.37
0.365
0.37
0.375
0.36
0.395
0.43
0.38
0.38
0.39
0.38
0.4
0.39
0.37
0.38
0.43
0.47
0.405
0.305
0.31
0.31
0.305
0.25
0.32
0.43
0.565
0.585
0.59
0.675
0.825
0.925
1.04
1.17
1.22
1.225
1.205
1.225
1.225
1.23
1.175
1.08
0.835
0.595
0.515
0.435
0.405
0.365
0.255
0.295
0.335
0.375
0.39
0.37
0.395
0.41
0.405
0.41
0.415
0.425
0.42
0.445
0.445
0.435
0.455
0.41
0.38
0.375
0.375
0.39
0.36
0.36
0.345
0.355
0.365
0.36
0.365
0.335
0.33
0.345
0.34
0.305
0.325
0.355
0.33
0.31
0.365
0.38
0.305
0.28
0.28
0.305
0.315
0.33
0.345
0.42
0.43
0.35
0.34
0.34
0.335
0.38
0.375
0.37
0.31
0.285
0.315
0.385
0.405
0.43
0.45
0.425
0.42
0.43
0.465
0.445
0.445
0.47
0.49
0.5
0.505
0.495
0.5
0.485
0.48
0.48
0.495
0.475
0.47
0.5
0.475
0.46
0.465
0.45
0.45
0.465
0.46
0.43
0.405
0.435
0.425
0.37
0.365
0.38
0.325
0.32
0.335
0.33
0.32
0.245
0.27
0.295
0.265
0.295
0.32
0.255
0.25
0.245
0.27
0.295
0.305
0.295
0.28
0.215
0.215
0.19
0.17
0.2
0.18
0.215
0.275
0.275
0.285
0.32
0.315
0.255
0.25
0.22
0.225
0.26
0.3
0.315
0.32
0.335
0.3
0.325
0.285
0.25
0.235
0.25
0.295
0.315
0.355
0.345
0.33
0.345
0.325
0.33
0.34
0.31
0.295
0.3
0.35
0.385
0.36
0.38
0.385
0.305
0.305
0.335
0.315
0.35
0.385
0.395
0.35
0.345
0.355
0.38
0.395
0.34
0.365
0.4
0.415
0.415
0.395
0.37
0.36
0.39
0.39
0.375
0.35
0.39
0.41
0.425
0.42
0.41
0.405
0.4
0.39
0.395
0.41
0.41
0.48
0.5
0.48
0.445
0.435
0.425
0.42
0.44
0.465
0.415
0.45
0.475
0.49
0.47
0.465
0.485
0.49
0.445
0.43
0.46
0.47
0.46
0.455
0.455
0.48
0.45
0.445
0.455
0.48
0.455
0.44
0.455
0.43
0.435
0.44
0.475
0.47
0.505
0.44
0.455
0.44
0.47
0.425
0.43
0.445
0.46
0.445
0.485
0.49
0.45
0.49
0.42
0.42
0.455
0.44
0.445
0.41
0.385
0.37
0.385
0.375
0.385
0.445
0.45
0.555
0.65
0.735
0.79
0.88
1.005
1.06
1.115
1.195
1.21
1.27
1.335
1.285
1.28
1.19
1.09
0.925
0.81
0.72
0.63
0.575
0.54
0.53
0.475
0.435
0.44
0.41
0.41
0.49
0.555
0.575
0.6
0.615
0.575
0.52
0.595
0.605
0.57
0.44
0.425
0.465
0.52
0.555
0.59
0.59
0.595
0.6
0.59
0.6
0.6
0.63
0.645
0.67
0.65
0.65
0.685
0.61
0.57
0.57
0.56
0.595
0.6
0.63
0.645
0.64
0.665
0.68
0.73
0.75
0.72
0.67
0.65
0.695
0.715
0.675
0.725
0.695
0.72
0.73
0.745
0.785
0.81
0.795
0.735
0.72
0.75
0.765
0.79
0.815
0.84
0.85
0.9
0.895
0.875
0.865
0.855
0.83
0.85
0.865
0.875
0.8
0.77
0.78
0.84
0.845
0.845
0.855
0.865
0.895
0.895
0.78
0.795
0.83
0.835
0.84
0.845
0.77
0.76
0.68
0.645
0.64
0.625
0.64
0.665
0.66
0.67
0.675
0.68
0.695
0.705
0.675
0.665
0.625
0.6
0.62
0.63
0.615
0.61
0.63
0.63
0.595
0.565
0.555
0.585
0.57
0.585
0.615
0.675
0.645
0.61
0.65
0.685
0.7
0.675
0.58
0.58
0.555
0.58
0.615
0.63
0.61
0.625
0.64
0.6
0.635
0.65
0.585
0.59
0.64
0.71
0.75
0.73
0.64
0.63
0.635
0.625
0.61
0.605
0.605
0.645
0.615
0.61
0.685
0.72
0.665
0.68
0.675
0.72
0.73
0.675
0.655
0.66
0.67
0.71
0.655
0.63
0.65
0.62
0.64
0.685
0.695
0.665
0.695
0.725
0.705
0.715
0.69
0.705
0.685
0.7
0.73
0.69
0.675
0.71
0.755
0.745
0.715
0.77
0.755
0.755
0.76
0.75
0.7
0.745
0.75
0.73
0.735
0.73
0.74
0.765
0.665
0.705
0.77
0.785
0.765
0.76
0.755
0.77
0.755
0.785
0.835
0.735
0.675
0.705
0.705
0.695
0.73
0.765
0.755
0.77
0.765
0.725
0.7
0.725
0.71
0.715
0.735
0.725
0.75
0.735
0.755
0.755
0.775
0.815
0.78
0.71
0.69
0.71
0.75
0.755
0.705
0.69
0.705
0.74
0.695
0.68
0.71
0.735
0.795
0.795
0.865
0.93
1.055
1.135
1.235
1.295
1.335
1.39
1.405
1.42
1.45
1.405
1.39
1.385
1.34
1.16
1.07
0.975
0.89
0.84
0.76
0.705
0.62
0.64
0.695
0.74
0.72
0.705
0.745
0.77
0.79
0.795
0.835
0.895
0.83
0.755
0.79
0.83
0.85
0.855
0.855
0.85
0.83
0.855
0.86
0.845
0.835
0.875
0.85
0.88
0.895
0.89
0.88
0.855
0.85
0.865
0.87
0.91
0.965
0.905
0.92
0.925
0.89
0.91
0.92
0.91
0.885
0.845
0.9
0.9
0.885
0.91
0.94
0.945
0.95
0.935
0.96
0.99
1.035
1.005
0.97
1.005
1.04
1.075
1.11
1.1
1.09
1.11
1.04
1.005
1.015
1.09
1.145
1.07
1.08
1.16
1.11
1.055
1.06
1.045
1.045
1.06
1.11
1.12
1.135
1.135
1.1
1.125
1.06
1.0
1.045
1.0
1.01
1.0
0.995
0.965
0.97
0.96
0.945
0.95
0.955
0.985
1.0
1.015
0.96
0.89
0.85
0.895
0.9
0.9
0.945
0.91
0.89
0.855
0.87
0.895
0.9
0.915
0.92
0.835
0.83
0.865
0.875
0.845
0.86
0.855
0.89
0.87
0.88
0.835
0.88
0.93
0.925
0.925
0.93
0.88
0.835
0.85
0.875
0.87
0.885
0.87
0.89
0.87
0.89
0.925
0.915
0.915
0.945
0.995
0.925
0.915
0.96
0.91
0.915
0.945
0.975
0.95
0.91
0.865
0.9
0.915
0.93
0.91
0.95
0.955
0.955
0.945
0.94
0.93
0.93
0.92
0.945
0.945
0.95
0.96
0.935
0.97
0.975
0.955
0.93
0.95
0.99
1.025
0.985
0.985
0.99
0.96
0.93
0.96
1.005
1.045
1.02
1.035
1.09
1.045
1.015
1.03
1.025
1.015
1.005
0.99
1.01
1.055
1.065
0.97
0.99
0.995
0.995
0.97
1.01
1.045
1.06
1.09
1.045
1.03
0.98
1.01
1.04
0.945
0.945
0.945
0.95
0.96
0.985
1.0
0.995
0.99
0.985
0.98
0.98
0.935
0.96
0.955
0.97
0.995
0.995
0.995
0.995
0.96
0.965
0.98
0.99
1.015
1.03
0.995
1.015
1.03
0.925
0.95
0.985
0.955
0.975
1.015
1.025
1.01
1.075
1.11
1.2
1.26
1.37
1.425
1.53
1.605
1.63
1.65
1.615
1.585
1.47
1.445
1.41
1.285
1.17
1.06
1.0
0.955
0.865
0.84
0.855
0.875
0.905
0.92
0.97
0.975
1.015
1.055
1.005
1.04
1.02
0.97
0.945
0.975
0.99
0.995
0.975
1.005
1.07
1.055
1.045
1.055
1.055
1.02
0.995
1.03
1.045
1.035
1.02
1.015
1.005
1.0
1.04
1.08
1.055
1.085
1.035
1.03
1.085
1.09
1.075
1.08
1.105
1.05
1.02
1.02
1.01
1.02
1.065
1.12
1.125
1.13
1.135
1.095
1.135
1.15
1.12
1.12
1.13
1.145
1.15
1.135
1.145
1.19
1.19
1.19
1.24
1.29
1.29
1.23
1.195
1.21
1.235
1.215
1.245
1.25
1.185
1.23
1.205
1.16
1.215
1.195
1.185
1.16
1.14
1.145
1.15
1.16
1.2
1.195
1.18
1.14
1.08
1.045
0.985
0.98
0.98
0.99
0.98
1.015
1.025
1.02
0.975
0.965
0.95
0.955
0.995
1.0
1.015
0.965
0.945
0.935
0.93
0.975
0.935
0.985
0.93
0.88
0.9
0.895
0.84
0.885
0.87
0.915
0.95
0.95
0.945
0.875
0.78
0.835
0.85
0.86
0.87
0.895
0.91
0.87
0.85
0.88
0.89
0.88
0.85
0.91
0.94
0.96
0.96
0.94
0.875
0.83
0.85
0.91
0.89
0.84
0.885
0.905
0.905
0.895
0.865
0.88
0.885
0.88
0.9
0.92
0.88
0.905
0.9
0.885
0.875
0.86
0.87
0.89
0.905
0.85
0.865
0.885
0.885
0.91
0.905
0.88
0.885
0.87
0.87
0.89
0.915
0.92
0.95
0.93
0.93
0.97
1.0
0.945
0.905
0.88
0.89
0.9
0.84
0.855
0.875
0.88
0.865
0.9
0.87
0.855
0.89
0.9
0.87
0.875
0.895
0.875
0.915
0.885
0.925
0.905
0.91
0.88
0.88
0.9
0.92
0.915
0.9
0.89
0.85
0.825
0.815
0.83
0.775
0.78
0.805
0.85
0.86
0.82
0.825
0.84
0.855
0.89
0.865
0.785
0.83
0.865
0.815
0.835
0.895
0.9
0.86
0.84
0.835
0.76
0.77
0.76
0.76
0.77
0.755
0.795
0.88
0.935
1.03
1.1
1.17
1.27
1.3
1.35
1.405
1.5
1.475
1.435
1.415
1.425
1.45
1.39
1.225
1.065
1.015
0.96
0.875
0.815
0.77
0.745
0.775
0.795
0.805
0.83
0.835
0.865
0.89
0.85
0.805
0.82
0.815
0.83
0.83
0.865
0.895
0.9
0.905
0.905
0.895
0.795
0.785
0.845
0.865
0.85
0.88
0.88
0.855
0.84
0.88
0.945
0.99
0.865
0.835
0.85
0.85
0.915
0.88
0.86
0.89
0.865
0.85
0.9
0.94
0.98
0.98
0.9
0.87
0.885
0.925
0.925
0.905
0.925
0.945
0.975
0.995
1.0
1.0
0.995
0.955
0.96
0.975
0.975
0.97
0.985
1.015
1.015
1.015
1.025
1.025
1.05
1.05
1.055
1.075
1.03
1.045
1.045
1.045
1.05
1.11
1.035
1.03
1.055
1.075
1.015
1.0
0.94
0.935
0.955
0.98
0.945
0.915
0.905
0.875
0.895
0.94
0.915
0.885
0.885
0.885
0.85
0.86
0.875
0.86
0.85
0.84
0.825
0.81
0.86
0.85
0.77
0.78
0.765
0.765
0.765
0.81
0.77
0.755
0.775
0.78
0.805
0.8
0.775
0.74
0.725
0.755
0.77
0.78
0.75
0.745
0.78
0.81
0.785
0.785
0.79
0.805
0.845
0.805
0.87
0.855
0.745
0.71
0.71
0.735
0.73
0.725
0.77
0.77
0.83
0.795
0.82
0.845
0.795
0.8
0.78
0.77
0.74
0.695
0.745
0.785
0.745
0.785
0.85
0.85
0.765
0.805
0.865
0.82
0.81
0.79
0.76
0.75
0.71
0.74
0.79
0.775
0.8
0.83
0.8
0.75
0.725
0.84
0.795
0.86
0.81
0.755
0.78
0.8
0.885
0.775
0.785
0.75
0.775
0.825
0.85
0.89
0.88
0.795
0.825
0.8
0.86
0.845
0.77
0.865
0.955
0.81
0.905
0.84
0.765
0.86
0.835
0.955
0.84
0.84
0.705
0.735
0.835
0.81
0.85
0.855
0.895
0.82
0.755
0.77
0.805
0.84
0.785
0.64
0.72
0.77
0.875
0.9
0.745
0.79
0.765
0.85
0.84
0.775
0.765
0.75
0.77
0.85
0.795
0.835
0.85
0.86
0.88
0.85
0.77
0.775
0.755
0.565
0.645
0.855
0.835
0.865
1.015
1.06
1.165
1.22
1.395
1.5
1.65
1.58
1.65
1.645
1.56
1.595
1.605
1.53
1.45
1.27
1.12
1.105
0.945
0.975
0.91
0.83
0.83
0.795
0.795
0.825
0.915
0.96
0.965
0.99
0.765
0.975
0.95
0.925
0.875
0.89
0.75
0.82
0.82
0.805
0.915
0.905
0.92
0.9
0.98
0.87
0.855
0.905
0.895
0.86
0.91
0.96
0.915
0.925
0.965
0.935
0.88
0.96
0.995
0.86
0.94
0.865
0.935
0.935
1.005
0.99
0.955
0.955
1.0
1.025
1.045
1.085
0.91
1.045
1.02
1.01
1.055
1.025
1.055
1.06
1.035
1.03
1.19
1.22
0.99
1.06
1.04
1.005
1.2
1.075
1.015
1.035
1.06
1.065
1.015
1.16
1.1
1.13
1.2
1.055
1.09
1.12
1.08
1.125
1.135
0.995
1.05
1.125
1.075
1.125
1.125
1.085
1.11
0.965
0.905
0.855
0.935
0.925
0.955
0.97
0.925
0.825
0.895
0.865
0.88
0.895
0.825
0.825
0.875
0.93
0.84
0.89
0.875
0.86
0.845
0.725
0.855
0.825
0.805
0.855
0.87
0.895
0.83
0.835
0.835
0.745
0.9
0.88
0.77
0.83
0.855
0.865
0.865
0.855
0.875
0.93
0.83
0.9
0.86
0.825
0.845
0.95
0.87
0.75
0.72
0.85
0.82
0.82
0.82
0.8
0.815
0.8
0.87
0.835
0.835
0.88
0.81
0.745
0.82
0.795
0.84
0.875
0.875
0.84
0.87
0.92
0.83
0.815
0.895
0.81
0.875
0.9
0.895
0.8
0.895
0.805
0.81
0.8
0.825
0.835
0.84
0.885
0.865
0.795
0.82
0.865
0.845
0.9
0.92
0.93
0.845
0.74
0.8
0.835
0.885
0.91
0.935
0.9
0.91
0.84
0.86
0.845
0.9
0.825
0.895
0.955
1.01
0.965
0.79
0.905
0.885
0.86
0.76
0.945
0.78
0.835
0.8
0.845
0.85
0.855
0.77
0.72
0.75
0.77
0.795
0.795
0.77
0.775
0.84
0.815
0.875
0.855
0.875
0.84
0.745
0.795
0.855
0.79
0.785
0.81
0.775
0.805
0.78
0.76
0.745
0.81
0.72
0.68
0.685
0.7
0.74
0.8
0.96
1.095
1.225
1.2
1.23
1.37
1.535
1.585
1.62
1.595
1.605
1.595
1.66
1.555
1.39
1.275
1.095
0.99
0.91
0.78
0.74
0.825
0.77
0.71
0.73
0.755
0.75
0.835
0.825
0.85
0.745
0.825
0.805
0.84
0.88
0.925
0.935
0.885
0.835
0.87
0.835
0.86
0.845
0.835
0.995
0.845
0.745
0.835
0.885
0.855
0.86
0.895
0.84
0.88
0.945
0.99
1.035
0.855
0.89
0.755
0.81
0.82
0.98
0.895
0.895
0.93
0.915
0.975
0.965
0.93
0.98
0.905
0.94
0.935
0.9
0.98
0.99
0.99
0.96
0.925
1.06
1.015
1.035
1.045
1.015
0.975
1.03
1.1
1.105
1.03
0.935
0.995
1.105
1.07
1.2
1.035
0.975
1.045
1.05
1.15
1.075
1.065
1.09
1.1
1.035
0.99
1.09
1.03
1.055
1.03
1.015
1.01
1.055
0.965
0.865
0.905
1.04
0.915
0.925
0.865
0.88
0.91
0.97
0.94
0.74
0.795
0.815
0.8
0.805
0.805
0.795
0.93
0.845
0.88
0.91
0.875
0.825
0.785
0.725
0.715
0.725
0.76
0.77
0.82
0.805
0.765
0.885
0.69
0.79
0.82
0.8
0.855
0.83
0.835
0.81
0.83
0.815
0.81
0.89
0.815
0.85
0.76
0.77
0.73
0.765
0.805
0.775
0.8
0.795
0.775
0.805
0.845
0.965
0.925
0.73
0.765
0.805
0.88
0.81
0.84
0.87
0.855
0.78
0.79
0.79
0.875
0.825
0.815
0.805
0.825
0.78
0.885
0.945
0.835
0.895
0.855
0.835
0.785
0.785
0.845
0.875
0.78
0.78
0.87
0.82
0.78
0.845
0.805
0.805
0.84
0.875
0.865
0.905
0.865
0.815
0.84
0.925
0.905
0.905
0.85
0.855
0.875
0.82
0.925
0.895
0.795
0.795
0.86
0.87
0.9
0.935
0.89
0.885
0.89
0.88
0.865
0.8
0.83
0.82
0.82
0.96
0.885
0.775
0.825
0.785
0.795
0.815
0.83
0.805
0.775
0.79
0.825
0.835
0.835
0.805
0.835
0.835
0.85
0.79
0.815
0.79
0.72
0.81
0.795
0.825
0.855
0.82
0.725
0.76
0.805
0.775
0.715
0.835
0.85
0.835
0.76
0.75
0.715
0.68
0.77
0.85
0.97
1.01
1.12
1.2
1.35
1.4
1.545
1.6
1.6
1.615
1.635
1.655
1.645
1.47
1.235
1.125
1.07
0.915
0.845
0.71
0.765
0.71
0.78
0.7
0.73
0.755
0.805
0.8
0.765
0.805
0.82
0.855
0.88
0.835
0.835
0.78
0.785
0.805
0.82
0.855
0.815
0.84
0.805
0.82
0.805
0.845
0.795
0.805
0.85
0.865
0.835
0.875
0.9
0.91
0.9
0.85
0.86
0.9
0.86
0.87
0.845
0.885
0.92
0.89
0.915
0.91
0.885
0.855
0.89
0.905
0.925
0.92
0.925
0.965
0.98
0.88
0.94
0.99
1.01
1.01
1.01
0.925
0.935
0.94
0.935
0.895
0.945
0.98
1.015
1.045
1.035
1.065
1.065
1.085
1.075
1.04
0.995
1.0
1.005
1.02
0.98
0.975
0.985
1.035
1.04
1.07
1.045
0.995
1.03
1.0
0.98
1.035
0.985
0.9
0.97
0.985
0.855
0.845
0.885
0.905
0.78
0.79
0.8
0.745
0.795
0.785
0.865
0.9
0.84
0.82
0.765
0.765
0.735
0.72
0.74
0.735
0.735
0.71
0.79
0.85
0.875
0.85
0.775
0.79
0.835
0.785
0.76
0.71
0.765
0.82
0.795
0.825
0.845
0.8
0.76
0.755
0.765
0.725
0.775
0.825
0.76
0.79
0.76
0.725
0.73
0.815
0.85
0.775
0.775
0.765
0.775
0.75
0.77
0.775
0.765
0.76
0.815
0.81
0.77
0.8
0.845
0.8
0.795
0.76
0.78
0.81
0.78
0.795
0.805
0.8
0.79
0.775
0.81
0.795
0.775
0.765
0.81
0.79
0.815
0.825
0.815
0.79
0.805
0.77
0.83
0.835
0.81
0.77
0.75
0.825
0.82
0.845
0.82
0.82
0.845
0.795
0.775
0.79
0.795
0.82
0.86
0.85
0.855
0.85
0.85
0.785
0.81
0.765
0.76
0.815
0.83
0.86
0.875
0.885
0.86
0.825
0.81
0.825
0.84
0.85
0.85
0.795
0.775
0.77
0.78
0.82
0.835
0.745
0.76
0.795
0.795
0.75
0.765
0.77
0.77
0.77
0.715
0.75
0.735
0.745
0.76
0.76
0.77
0.805
0.79
0.765
0.75
0.78
0.785
0.795
0.83
0.815
0.775
0.72
0.72
0.73
0.685
0.595
0.635
0.665
0.695
0.765
0.88
1.035
1.18
1.125
1.17
1.245
1.365
1.52
1.52
1.54
1.545
1.54
1.55
1.515
1.43
1.235
1.085
0.985
0.93
0.86
0.795
0.71
0.69
0.67
0.655
0.7
0.74
0.75
0.75
0.755
0.73
0.77
0.805
0.76
0.79
0.805
0.825
0.845
0.765
0.765
0.81
0.85
0.75
0.72
0.755
0.79
0.8
0.825
0.855
0.845
0.82
0.805
0.815
0.825
0.86
0.805
0.8
0.84
0.84
0.83
0.835
0.85
0.84
0.84
0.82
0.81
0.855
0.835
0.865
0.905
0.965
0.905
0.825
0.9
0.875
0.855
0.895
0.875
0.88
0.895
0.93
0.9
0.955
0.955
0.935
0.965
0.945
0.975
1.015
1.005
0.98
0.99
0.985
0.985
0.99
1.05
1.025
1.05
1.04
1.04
1.005
0.98
0.965
0.985
1.0
1.005
1.0
0.995
1.03
0.94
0.945
0.975
0.935
0.89
0.885
0.845
0.87
0.9
0.87
0.845
0.84
0.85
0.825
0.79
0.805
0.82
0.775
0.73
0.77
0.79
0.79
0.77
0.73
0.71
0.72
0.74
0.77
0.78
0.7
0.67
0.7
0.71
0.715
0.725
0.75
0.77
0.765
0.78
0.75
0.745
0.715
0.71
0.745
0.735
0.695
0.705
0.73
0.75
0.72
0.69
0.705
0.72
0.76
0.75
0.685
0.695
0.7
0.69
0.68
0.73
0.715
0.74
0.76
0.75
0.69
0.72
0.76
0.79
0.75
0.755
0.775
0.79
0.745
0.725
0.71
0.675
0.675
0.7
0.705
0.705
0.73
0.755
0.73
0.71
0.735
0.71
0.67
0.715
0.71
0.735
0.75
0.715
0.69
0.71
0.7
0.71
0.74
0.75
0.77
0.75
0.78
0.78
0.72
0.69
0.705
0.745
0.775
0.765
0.785
0.77
0.765
0.785
0.725
0.74
0.725
0.74
0.76
0.78
0.81
0.84
0.88
0.865
0.79
0.76
0.755
0.73
0.725
0.725
0.73
0.765
0.785
0.745
0.705
0.7
0.725
0.76
0.74
0.69
0.675
0.725
0.75
0.725
0.74
0.7
0.67
0.7
0.7
0.735
0.76
0.79
0.8
0.74
0.71
0.68
0.63
0.64
0.675
0.715
0.675
0.69
0.685
0.69
0.685
0.67
0.66
0.675
0.62
0.605
0.61
0.62
0.715
0.825
0.905
0.97
1.075
1.155
1.23
1.335
1.44
1.47
1.485
1.555
1.57
1.605
1.66
1.48
1.2
1.08
0.955
0.915
0.87
0.76
0.66
0.65
0.645
0.655
0.64
0.61
0.645
0.675
0.72
0.72
0.725
0.725
0.735
0.75
0.705
0.735
0.76
0.815
0.8
0.76
0.73
0.725
0.745
0.755
0.785
0.79
0.76
0.705
0.71
0.7
0.78
0.78
0.755
0.79
0.785
0.795
0.785
0.775
0.765
0.785
0.795
0.82
0.78
0.77
0.785
0.825
0.835
0.835
0.835
0.825
0.85
0.845
0.865
0.84
0.84
0.86
0.935
0.9
0.815
0.84
0.905
0.885
0.865
0.84
0.855
0.89
0.92
0.92
0.94
0.95
0.94
0.95
0.96
1.02
0.975
0.945
0.96
0.99
0.96
0.96
0.99
0.98
0.95
0.97
1.005
1.01
0.96
0.945
0.935
0.91
0.94
0.945
0.92
0.855
0.78
0.79
0.805
0.8
0.78
0.765
0.75
0.72
0.76
0.79
0.74
0.73
0.71
0.72
0.71
0.745
0.735
0.695
0.745
0.73
0.71
0.725
0.68
0.635
0.685
0.705
0.665
0.695
0.665
0.63
0.67
0.68
0.655
0.635
0.625
0.675
0.66
0.67
0.685
0.715
0.715
0.67
0.6
0.665
0.665
0.62
0.655
0.655
0.67
0.665
0.72
0.7
0.73
0.75
0.72
0.75
0.695
0.61
0.65
0.685
0.715
0.695
0.72
0.725
0.73
0.68
0.64
0.655
0.655
0.665
0.665
0.66
0.645
0.66
0.66
0.68
0.705
0.715
0.655
0.615
0.67
0.675
0.655
0.695
0.73
0.76
0.73
0.7
0.73
0.705
0.685
0.69
0.68
0.65
0.66
0.66
0.65
0.69
0.705
0.72
0.755
0.765
0.775
0.79
0.805
0.75
0.725
0.685
0.715
0.72
0.725
0.705
0.715
0.71
0.7
0.72
0.725
0.765
0.77
0.795
0.795
0.735
0.715
0.62
0.605
0.625
0.62
0.65
0.675
0.655
0.68
0.695
0.695
0.685
0.68
0.705
0.75
0.715
0.7
0.67
0.71
0.71
0.675
0.65
0.66
0.695
0.655
0.68
0.7
0.725
0.735
0.74
0.715
0.685
0.67
0.6
0.555
0.535
0.555
0.545
0.62
0.715
0.81
0.815
0.885
0.995
1.05
1.175
1.25
1.33
1.4
1.445
1.515
1.53
1.49
1.46
1.385
1.265
1.1
0.98
0.92
0.815
0.755
0.695
0.63
0.66
0.665
0.64
0.62
0.655
0.67
0.66
0.725
0.68
0.645
0.67
0.74
0.725
0.71
0.71
0.74
0.755
0.7
0.69
0.735
0.76
0.845
0.77
0.73
0.765
0.795
0.73
0.715
0.675
0.72
0.725
0.75
0.75
0.79
0.81
0.725
0.815
0.83
0.825
0.83
0.75
0.755
0.725
0.725
0.715
0.765
0.77
0.805
0.825
0.845
0.825
0.82
0.85
0.85
0.82
0.81
0.845
0.84
0.865
0.855
0.89
0.9
0.92
0.905
0.945
0.92
0.905
0.93
0.92
0.88
0.885
0.965
0.98
1.02
0.98
0.91
0.96
0.935
0.885
0.87
0.92
0.955
0.98
1.01
0.955
0.88
0.89
0.87
0.82
0.82
0.83
0.85
0.85
0.82
0.845
0.845
0.83
0.795
0.76
0.685
0.675
0.67
0.695
0.695
0.665
0.72
0.69
0.69
0.73
0.72
0.66
0.645
0.66
0.645
0.655
0.645
0.645
0.685
0.76
0.72
0.695
0.695
0.695
0.595
0.585
0.605
0.645
0.695
0.725
0.715
0.725
0.755
0.685
0.68
0.635
0.61
0.615
0.635
0.65
0.655
0.695
0.715
0.76
0.73
0.63
0.645
0.705
0.69
0.65
0.62
0.645
0.66
0.695
0.66
0.65
0.68
0.69
0.68
0.675
0.685
0.67
0.69
0.69
0.71
0.64
0.71
0.695
0.695
0.675
0.715
0.725
0.72
0.665
0.645
0.65
0.695
0.715
0.685
0.72
0.715
0.71
0.75
0.75
0.83
0.79
0.685
0.68
0.66
0.695
0.73
0.765
0.72
0.77
0.8
0.785
0.69
0.66
0.695
0.71
0.725
0.755
0.76
0.77
0.785
0.815
0.775
0.73
0.745
0.695
0.69
0.685
0.675
0.695
0.715
0.715
0.745
0.75
0.675
0.61
0.695
0.67
0.665
0.655
0.645
0.645
0.66
0.695
0.7
0.665
0.665
0.67
0.675
0.7
0.705
0.71
0.695
0.71
0.72
0.715
0.725
0.685
0.69
0.63
0.62
0.66
0.69
0.63
0.61
0.645
0.67
0.735
0.83
0.885
0.945
1.04
1.1
1.22
1.275
1.325
1.325
1.345
1.345
1.29
1.33
1.36
1.265
1.07
0.845
0.805
0.765
0.66
0.59
0.6
0.62
0.635
0.635
0.65
0.7
0.71
0.685
0.71
0.71
0.72
0.715
0.73
0.715
0.72
0.63
0.715
0.715
0.695
0.705
0.73
0.725
0.745
0.765
0.775
0.735
0.725
0.72
0.735
0.76
0.785
0.77
0.77
0.72
0.745
0.765
0.765
0.79
0.835
0.875
0.855
0.84
0.81
0.805
0.805
0.735
0.7
0.75
0.79
0.76
0.83
0.865
0.9
0.905
0.855
0.82
0.815
0.8
0.81
0.855
0.845
0.87
0.885
0.895
0.865
0.895
0.945
0.96
0.915
0.915
0.91
0.855
0.895
0.96
1.02
0.985
0.915
0.94
0.955
0.925
0.86
0.87
0.925
0.955
0.92
0.94
0.935
0.915
0.9
0.845
0.795
0.82
0.805
0.765
0.815
0.825
0.78
0.805
0.775
0.765
0.73
0.715
0.7
0.7
0.705
0.705
0.645
0.635
0.665
0.64
0.665
0.67
0.685
0.7
0.735
0.67
0.665
0.65
0.68
0.66
0.595
0.535
0.625
0.665
0.66
0.635
0.615
0.615
0.645
0.645
0.65
0.63
0.625
0.625
0.655
0.68
0.63
0.61
0.63
0.6
0.59
0.6
0.655
0.68
0.655
0.66
0.62
0.665
0.66
0.65
0.62
0.65
0.625
0.625
0.635
0.63
0.59
0.6
0.62
0.66
0.68
0.66
0.63
0.675
0.645
0.63
0.62
0.625
0.675
0.675
0.64
0.63
0.615
0.62
0.655
0.64
0.66
0.615
0.66
0.66
0.7
0.695
0.695
0.725
0.695
0.7
0.665
0.67
0.65
0.645
0.645
0.64
0.655
0.635
0.725
0.77
0.765
0.72
0.605
0.61
0.65
0.65
0.6
0.605
0.635
0.67
0.68
0.695
0.705
0.69
0.655
0.64
0.65
0.66
0.65
0.61
0.645
0.635
0.645
0.635
0.62
0.61
0.625
0.595
0.61
0.615
0.625
0.62
0.61
0.6
0.63
0.62
0.645
0.64
0.64
0.685
0.7
0.645
0.57
0.575
0.6
0.625
0.595
0.6
0.615
0.605
0.565
0.58
0.63
0.63
0.755
0.865
0.89
0.915
1.07
1.1
1.185
1.165
1.24
1.3
1.33
1.33
1.34
1.305
1.215
1.07
0.905
0.83
0.83
0.745
0.57
0.575
0.575
0.57
0.585
0.63
0.68
0.645
0.645
0.635
0.66
0.63
0.655
0.655
0.68
0.735
0.705
0.695
0.735
0.715
0.62
0.625
0.625
0.615
0.64
0.665
0.675
0.71
0.72
0.7
0.695
0.705
0.69
0.7
0.705
0.69
0.73
0.73
0.73
0.71
0.655
0.66
0.68
0.69
0.705
0.74
0.79
0.835
0.79
0.75
0.72
0.72
0.725
0.73
0.725
0.75
0.745
0.775
0.825
0.855
0.85
0.86
0.82
0.785
0.82
0.84
0.845
0.845
0.84
0.865
0.775
0.825
0.885
0.885
0.91
0.965
0.965
0.935
0.945
0.9
0.81
0.86
0.86
0.835
0.825
0.78
0.82
0.84
0.875
0.885
0.78
0.785
0.75
0.715
0.73
0.78
0.7
0.645
0.67
0.7
0.685
0.7
0.715
0.715
0.645
0.625
0.63
0.625
0.59
0.585
0.6
0.585
0.615
0.61
0.57
0.625
0.64
0.625
0.63
0.645
0.615
0.565
0.585
0.59
0.61
0.585
0.61
0.65
0.64
0.585
0.545
0.55
0.55
0.58
0.605
0.605
0.63
0.64
0.675
0.66
0.58
0.565
0.575
0.545
0.525
0.575
0.6
0.6
0.62
0.63
0.57
0.55
0.585
0.525
0.545
0.565
0.57
0.59
0.59
0.615
0.635
0.61
0.65
0.665
0.665
0.6
0.55
0.585
0.54
0.54
0.56
0.59
0.575
0.62
0.645
0.67
0.66
0.62
0.625
0.61
0.6
0.59
0.61
0.65
0.65
0.635
0.63
0.65
0.655
0.615
0.655
0.68
0.695
0.71
0.665
0.68
0.62
0.595
0.63
0.62
0.615
0.6
0.63
0.66
0.67
0.68
0.705
0.705
0.69
0.65
0.61
0.625
0.635
0.615
0.6
0.61
0.595
0.6
0.61
0.6
0.625
0.595
0.605
0.625
0.615
0.62
0.6
0.625
0.625
0.645
0.6
0.595
0.62
0.64
0.685
0.7
0.68
0.62
0.57
0.535
0.58
0.605
0.565
0.54
0.54
0.57
0.56
0.61
0.595
0.63
0.705
0.8
0.845
0.925
1.01
1.12
1.23
1.3
1.33
1.33
1.36
1.375
1.375
1.375
1.325
1.15
0.995
0.885
0.79
0.71
0.64
0.605
0.6
0.62
0.58
0.57
0.575
0.6
0.585
0.63
0.65
0.64
0.65
0.695
0.64
0.655
0.71
0.695
0.71
0.685
0.63
0.69
0.675
0.725
0.65
0.68
0.675
0.695
0.73
0.715
0.76
0.795
0.83
0.79
0.68
0.685
0.635
0.67
0.72
0.705
0.74
0.755
0.67
0.675
0.785
0.78
0.705
0.7
0.705
0.74
0.845
0.77
0.865
0.87
0.815
0.78
0.865
0.775
0.76
0.805
0.845
0.875
0.925
0.965
0.98
1.04
1.07
1.055
0.96
1.03
0.97
1.06
1.04
1.145
1.2
1.13
1.13
1.055
1.08
1.09
1.05
1.085
1.135
1.15
1.2
1.145
1.19
1.11
1.13
1.145
1.21
1.08
1.03
1.03
1.03
1.125
1.205
1.095
1.14
1.15
1.115
0.885
0.995
0.885
0.935
0.93
0.935
1.055
0.995
1.005
1.115
1.135
1.04
1.075
1.02
1.0
1.045
1.17
1.135
1.095
1.11
1.085
1.12
1.14
1.19
1.175
1.18
1.23
1.245
1.265
1.335
1.3
1.355
1.36
1.315
1.425
1.395
1.365
1.435
1.495
1.445
1.415
1.465
1.51
1.46
1.515
1.63
1.655
1.68
1.715
1.735
1.735
1.755
1.865
1.87
1.965
1.97
2.0
2.06
2.1
2.075
2.075
2.115
2.16
2.21
2.21
2.265
2.34
2.3
2.335
2.46
2.435
2.505
2.49
2.505
2.46
2.445
2.395
2.485
2.575
2.59
2.545
2.57
2.635
2.565
2.565
2.545
2.635
2.59
2.615
2.49
2.6
2.565
2.615
2.725
2.605
2.635
2.535
2.525
2.5
2.645
2.51
2.58
2.55
2.56
2.455
2.65
2.53
2.475
2.505
2.57
2.475
2.445
2.365
2.405
2.34
2.305
2.325
2.345
2.33
2.375
2.315
2.285
2.3
2.385
2.265
2.26
2.245
2.3
2.24
2.27
2.265
2.33
2.29
2.315
2.32
2.275
2.305
2.325
2.315
2.41
2.38
2.12
2.135
2.21
2.215
2.19
2.175
2.08
2.155
2.2
2.305
2.455
2.575
2.69
2.78
2.99
3.12
3.2
3.28
3.31
3.365
3.395
3.385
3.375
3.345
3.255
2.94
2.81
2.64
2.515
2.435
2.34
2.335
2.36
2.375
2.355
2.33
2.48
2.44
2.48
2.55
2.585
2.595
2.54
2.515
2.545
2.53
2.575
2.575
2.57
2.59
2.655
2.675
2.715
2.7
2.785
2.78
2.775
2.785
2.805
2.82
2.815
2.76
2.835
2.78
2.85
2.83
2.88
2.9
2.805
2.865
2.825
2.73
2.7
2.86
2.9
2.87
2.85
2.84
2.835
2.775
2.83
2.845
2.94
2.945
2.935
2.975
2.965
2.955
2.925
2.96
2.87
2.905
3.0
3.055
3.08
3.115
3.125
3.17
3.165
3.23
3.285
3.25
3.235
3.275
3.235
3.335
3.355
3.355
3.425
3.355
3.2
3.215
3.26
3.29
3.265
3.265
3.245
3.295
3.26
3.27
3.29
3.27
3.23
3.23
3.255
3.22
3.225
3.215
3.25
3.165
3.21
3.235
3.205
3.19
3.18
3.21
3.185
3.19
3.25
3.235
3.235
3.22
3.24
3.25
3.205
3.185
3.23
3.21
3.185
3.225
3.28
3.24
3.275
3.295
3.29
3.305
3.33
3.415
3.415
3.405
3.43
3.46
3.455
3.56
3.55
3.6
3.555
3.545
3.59
3.605
3.63
3.705
3.73
3.72
3.71
3.705
3.71
3.725
3.73
3.745
3.765
3.755
3.725
3.785
3.8
3.805
3.88
3.87
3.79
3.79
3.79
3.775
3.8
3.805
3.815
3.8
3.815
3.825
3.855
3.88
3.93
3.895
3.815
3.8
3.82
3.81
3.82
3.82
3.835
3.8
3.82
3.81
3.76
3.725
3.735
3.78
3.815
3.87
3.935
3.885
3.875
3.785
3.735
3.7
3.73
3.76
3.79
3.76
3.735
3.76
3.815
3.875
3.86
3.785
3.77
3.71
3.705
3.735
3.65
3.71
3.725
3.695
3.7
3.665
3.715
3.765
3.59
3.615
3.675
3.695
3.73
3.675
3.73
3.66
3.705
3.655
3.625
3.59
3.54
3.54
3.57
3.57
3.54
3.58
3.625
3.6
3.495
3.505
3.47
3.515
3.505
3.505
3.525
3.52
3.545
3.575
3.485
3.495
3.49
3.435
3.415
3.42
3.395
3.325
3.325
3.255
3.28
3.365
3.4
3.475
3.52
3.61
3.715
3.81
3.975
4.08
4.215
4.29
4.26
4.23
4.27
4.325
4.135
4.05
3.82
3.685
3.56
3.5
3.44
3.345
3.235
3.175
3.16
3.185
3.3
3.36
3.37
3.245
3.26
3.23
3.25
3.26
3.33
3.37
3.315
3.39
3.39
3.36
3.275
3.315
3.33
3.35
3.37
3.36
3.45
3.475
3.5
3.535
3.535
3.585
3.545
3.59
3.64
3.68
3.66
3.65
3.63
3.695
3.75
3.73
3.855
3.845
3.86
3.89
3.915
3.975
4.015
4.03
4.055
4.075
4.09
4.15
4.2
4.3
4.34
4.43
4.315
4.3
4.405
4.485
4.5
4.545
4.53
4.49
4.505
4.54
4.565
4.595
4.59
4.595
4.615
4.63
4.615
4.655
4.68
4.705
4.74
4.77
4.75
4.77
4.8
4.795
4.845
4.875
4.765
4.68
4.72
4.745
4.825
4.865
4.84
4.73
4.73
4.79
4.725
4.75
4.815
4.74
4.545
4.485
4.54
4.59
4.585
4.625
4.62
4.5
4.49
4.525
4.495
4.515
4.535
4.555
4.465
4.485
4.435
4.44
4.465
4.485
4.465
4.49
4.585
4.645
4.565
4.46
4.49
4.58
4.62
4.59
4.57
4.57
4.62
4.645
4.625
4.59
4.595
4.655
4.69
4.67
4.68
4.64
4.67
4.715
4.75
4.74
4.765
4.73
4.68
4.75
4.78
4.815
4.805
4.83
4.835
4.88
4.95
4.95
4.97
4.935
4.94
4.855
4.905
4.895
4.885
4.865
4.85
4.835
4.855
4.905
4.905
4.95
4.935
4.94
4.95
4.935
4.955
4.945
4.94
4.98
4.935
4.895
4.87
4.875
4.89
4.92
4.925
4.95
4.975
4.915
4.885
4.92
4.905
4.97
4.995
4.975
4.975
4.915
4.875
4.91
4.865
4.855
4.88
4.915
4.925
5.015
5.075
4.9
4.82
4.86
4.85
4.885
4.845
4.825
4.835
4.825
4.8
4.81
4.815
4.835
4.85
4.795
4.735
4.745
4.745
4.725
4.715
4.665
4.66
4.64
4.685
4.69
4.735
4.82
4.645
4.54
4.565
4.585
4.575
4.565
4.585
4.61
4.645
4.585
4.545
4.53
4.49
4.48
4.505
4.49
4.49
4.455
4.46
4.44
4.415
4.38
4.37
4.46
4.55
4.68
4.73
4.83
4.885
4.995
5.15
5.225
5.2
5.27
5.37
5.26
5.155
5.13
4.995
4.725
4.54
4.44
4.325
4.245
4.19
4.185
4.065
4.03
4.02
3.985
4.025
4.04
4.05
4.06
4.02
4.02
4.035
4.055
3.99
3.96
3.97
3.955
3.91
3.89
3.9
3.92
3.94
3.945
3.91
3.885
3.86
3.835
3.835
3.815
3.825
3.815
3.78
3.75
3.74
3.79
3.77
3.715
3.64
3.62
3.61
3.635
3.65
3.525
3.505
3.55
3.57
3.51
3.495
3.525
3.545
3.56
3.575
3.495
3.47
3.52
3.51
3.485
3.465
3.42
3.395
3.37
3.345
3.4
3.385
3.35
3.325
3.3
3.3
3.315
3.3
3.29
3.28
3.245
3.235
3.24
3.18
3.155
3.17
3.13
3.105
3.07
2.93
2.935
2.965
3.0
2.985
2.94
2.925
2.93
2.92
2.86
2.845
2.775
2.75
2.69
2.635
2.63
2.585
2.54
2.59
2.555
2.595
2.585
2.495
2.465
2.405
2.375
2.35
2.35
2.305
2.24
2.255
2.275
2.295
2.265
2.225
2.235
2.205
2.16
2.13
2.18
2.185
2.23
2.08
2.105
2.06
2.055
2.025
1.985
2.07
2.025
2.015
2.025
2.015
1.95
1.88
1.915
1.915
1.895
1.93
1.935
1.94
1.955
1.955
1.875
1.865
1.93
1.95
1.905
1.905
1.83
1.775
1.795
1.785
1.73
1.735
1.76
1.74
1.76
1.8
1.805
1.725
1.625
1.63
1.645
1.64
1.695
1.68
1.65
1.63
1.655
1.66
1.655
1.69
1.645
1.525
1.54
1.55
1.515
1.51
1.555
1.54
1.56
1.53
1.6
1.625
1.58
1.525
1.53
1.495
1.47
1.48
1.475
1.455
1.455
1.51
1.48
1.53
1.545
1.525
1.5
1.395
1.37
1.355
1.345
1.385
1.39
1.37
1.38
1.405
1.37
1.345
1.315
1.3
1.305
1.32
1.34
1.38
1.36
1.25
1.255
1.33
1.26
1.225
1.265
1.23
1.205
1.215
1.235
1.255
1.23
1.225
1.16
1.16
1.17
1.185
1.185
1.235
1.22
1.235
1.155
1.185
1.135
1.095
1.05
1.015
1.065
1.165
1.215
1.205
1.24
1.265
1.355
1.46
1.58
1.64
1.755
1.89
1.955
1.92
1.93
1.925
1.91
1.945
1.8
1.57
1.375
1.34
1.215
1.115
1.07
1.03
1.01
1.025
1.04
1.04
1.055
1.0
0.985
1.02
1.045
0.985
0.965
0.905
0.965
1.025
0.965
0.95
0.97
0.985
0.98
0.935
0.945
0.93
0.92
0.915
0.935
0.9
0.885
0.89
0.87
0.815
0.85
0.865
0.795
0.8
0.82
0.855
0.855
0.905
0.815
0.805
0.825
0.74
0.72
0.76
0.765
0.725
0.73
0.72
0.715
0.72
0.745
0.705
0.695
0.72
0.725
0.745
0.735
0.74
0.755
0.74
0.65
0.7
0.715
0.71
0.71
0.7
0.745
0.78
0.735
0.735
0.775
0.74
0.715
0.685
0.685
0.72
0.66
0.57
0.6
0.6
0.575
0.555
0.57
0.59
0.565
0.545
0.51
0.515
0.535
0.52
0.455
0.39
0.335
0.3
0.275
0.305
0.3
0.31
0.24
0.18
0.17
0.2
0.195
0.185
0.13
0.12
0.15
0.095
0.055
0.1
0.08
0.085
0.05
0.04
0.075
0.025
0.0
-0.08
-0.085
-0.035
-0.015
0.0
-0.035
-0.125
-0.115
-0.05
-0.03
-0.015
-0.07
-0.135
-0.145
-0.18
-0.175
-0.15
-0.125
-0.12
-0.115
-0.105
-0.095
-0.06
-0.095
-0.245
-0.23
-0.265
-0.175
-0.175
-0.205
-0.18
-0.245
-0.25
-0.24
-0.23
-0.245
-0.28
-0.245
-0.185
-0.265
-0.285
-0.3
-0.31
-0.27
-0.31
-0.295
-0.31
-0.33
-0.295
-0.29
-0.28
-0.36
-0.41
-0.4
-0.385
-0.335
-0.33
-0.34
-0.35
-0.36
-0.31
-0.32
-0.35
-0.385
-0.4
-0.365
-0.26
-0.29
-0.385
-0.325
-0.4
-0.39
-0.42
-0.44
-0.47
-0.455
-0.445
-0.385
-0.38
-0.4
-0.435
-0.445
-0.435
-0.45
-0.455
-0.435
-0.44
-0.455
-0.44
-0.42
-0.505
-0.54
-0.55
-0.545
-0.51
-0.515
-0.525
-0.57
-0.57
-0.53
-0.52
-0.53
-0.535
-0.495
-0.445
-0.455
-0.525
-0.585
-0.595
-0.63
-0.605
-0.61
-0.61
-0.58
-0.575
-0.54
-0.535
-0.585
-0.63
-0.69
-0.705
-0.72
-0.71
-0.725
-0.725
-0.7
-0.635
-0.675
-0.645
-0.565
-0.45
-0.4
-0.325
-0.23
-0.125
-0.06
0.0
-0.005
-0.005
0.03
0.025
0.0
-0.03
-0.115
-0.3
-0.395
-0.47
-0.515
-0.645
-0.775
-0.835
-0.82
-0.845
-0.795
-0.755
-0.78
-0.77
-0.765
-0.76
-0.76
-0.755
-0.745
-0.735
-0.705
-0.685
-0.65
-0.675
-0.695
-0.695
-0.76
-0.78
-0.79
-0.795
-0.765
-0.755
-0.74
-0.73
-0.715
-0.695
-0.79
-0.765
-0.765
-0.765
-0.77
-0.715
-0.695
-0.74
-0.705
-0.73
-0.705
-0.72
-0.77
-0.78
-0.775
-0.765
-0.715
-0.75
-0.695
-0.63
-0.71
-0.79
-0.76
-0.7
-0.7
-0.72
-0.69
-0.65
-0.665
-0.68
-0.69
-0.655
-0.725
-0.74
-0.705
-0.71
-0.68
-0.655
-0.64
-0.65
-0.62
-0.585
-0.64
-0.65
-0.68
-0.72
-0.645
-0.64
-0.665
-0.695
-0.69
-0.73
-0.765
-0.735
-0.74
-0.715
-0.75
-0.735
-0.775
-0.775
-0.78
-0.765
-0.775
-0.85
-0.895
-0.895
-0.86
-0.87
-0.86
-0.835
-0.875
-0.905
-0.91
-0.905
-0.935
-0.96
-0.935
-0.98
-0.98
-0.99
-1.01
-1.035
-1.02
-0.98
-0.96
-0.995
-0.99
-1.03
-1.015
-1.045
-1.01
-1.06
-1.11
-1.08
-1.065
-1.065
-1.07
-1.055
-1.07
-1.06
-1.04
-1.04
-1.04
-1.05
-1.1
-1.065
-1.075
-1.065
-1.025
-1.02
-1.045
-1.04
-1.055
-1.085
-1.115
-1.105
-1.09
-1.075
-1.065
-1.03
-1.055
-1.09
-1.065
-1.105
-1.11
-1.1
-1.09
-1.065
-1.06
-1.005
-1.04
-1.085
-1.115
-1.105
-1.125
-1.19
-1.16
-1.145
-1.12
-1.1
-1.065
-1.105
-1.135
-1.095
-1.035
-1.08
-1.055
-1.05
-1.1
-1.145
-1.195
-1.17
-1.16
-1.165
-1.16
-1.15
-1.12
-1.05
-1.115
-1.155
-1.13
-1.145
-1.17
-1.16
-1.13
-1.06
-1.06
-1.125
-1.17
-1.18
-1.185
-1.16
-1.165
-1.18
-1.165
-1.22
-1.22
-1.2
-1.205
-1.19
-1.245
-1.26
-1.255
-1.24
-1.215
-1.195
-1.21
-1.23
-1.33
-1.325
-1.325
-1.335
-1.35
-1.31
-1.31
-1.31
-1.275
-1.185
-1.255
-1.335
-1.325
-1.335
-1.325
-1.315
-1.315
-1.315
-1.295
-1.325
-1.4
-1.385
-1.405
-1.4
-1.41
-1.42
-1.325
-1.28
-1.345
-1.31
-1.21
-1.1
-1.02
-0.93
-0.875
-0.8
-0.745
-0.69
-0.67
-0.645
-0.69
-0.725
-0.77
-0.84
-0.99
-1.12
-1.2
-1.245
-1.265
-1.355
-1.48
-1.48
-1.445
-1.485
-1.46
-1.43
-1.44
-1.44
-1.47
-1.465
-1.435
-1.385
-1.32
-1.295
-1.26
-1.29
-1.39
-1.43
-1.4
-1.425
-1.445
-1.465
-1.46
-1.45
-1.41
-1.41
-1.43
-1.42
-1.415
-1.39
-1.35
-1.34
-1.325
-1.365
-1.425
-1.41
-1.42
-1.415
-1.41
-1.415
-1.435
-1.41
-1.395
-1.41
-1.44
-1.455
-1.445
-1.43
-1.4
-1.375
-1.385
-1.365
-1.32
-1.265
-1.3
-1.39
-1.42
-1.41
-1.405
-1.385
-1.36
-1.365
-1.39
-1.36
-1.33
-1.31
-1.295
-1.25
-1.23
-1.295
-1.295
-1.28
-1.325
-1.38
-1.335
-1.32
-1.33
-1.335
-1.39
-1.4
-1.405
