# TIPE ECG 2021 - ECG-ID Database v1.0.0 par Physionet
# [N° de la personne, N° de l'enregistrement, Période d'échantillonnage, Prénom, Age, Sexe, Date de l'enregistrement]
[78, 1, 0.002, "Juan", 34, "H", "20.05.2005"]
-1.17
-1.2
-1.23
-1.195
-1.22
-1.205
-1.2
-1.19
-1.19
-1.205
-1.21
-1.2
-1.205
-1.2
-1.21
-1.185
-1.195
-1.24
-1.185
-1.19
-1.2
-1.175
-1.185
-1.185
-1.195
-1.18
-1.195
-1.17
-1.175
-1.195
-1.22
-1.2
-1.205
-1.205
-1.19
-1.2
-1.205
-1.21
-1.19
-1.19
-1.175
-1.195
-1.165
-1.16
-1.2
-1.19
-1.18
-1.2
-1.195
-1.175
-1.175
-1.18
-1.18
-1.19
-1.185
-1.185
-1.165
-1.18
-1.195
-1.185
-1.185
-1.18
-1.21
-1.185
-1.2
-1.205
-1.195
-1.185
-1.18
-1.175
-1.18
-1.165
-1.15
-1.165
-1.16
-1.2
-1.17
-1.185
-1.185
-1.2
-1.21
-1.18
-1.16
-1.185
-1.185
-1.18
-1.185
-1.19
-1.195
-1.195
-1.19
-1.19
-1.195
-1.17
-1.16
-1.175
-1.185
-1.18
-1.215
-1.2
-1.195
-1.165
-1.16
-1.165
-1.185
-1.17
-1.145
-1.19
-1.185
-1.19
-1.18
-1.185
-1.165
-1.16
-1.155
-1.175
-1.17
-1.155
-1.16
-1.14
-1.165
-1.16
-1.15
-1.145
-1.135
-1.125
-1.115
-1.12
-1.105
-1.11
-1.1
-1.11
-1.09
-1.115
-1.105
-1.11
-1.135
-1.095
-1.09
-1.13
-1.13
-1.155
-1.17
-1.17
-1.165
-1.175
-1.16
-1.17
-1.185
-1.205
-1.135
-1.14
-1.18
-1.19
-1.195
-1.18
-1.195
-1.18
-1.18
-1.17
-1.175
-1.18
-1.2
-1.18
-1.18
-1.18
-1.195
-1.155
-1.16
-1.175
-1.18
-1.175
-1.17
-1.195
-1.195
-1.21
-1.185
-1.185
-1.205
-1.19
-1.195
-1.22
-1.245
-1.25
-1.28
-1.315
-1.355
-1.385
-1.38
-1.365
-1.315
-1.225
-1.125
-0.975
-0.825
-0.71
-0.555
-0.45
-0.29
-0.17
-0.11
-0.165
-0.24
-0.285
-0.38
-0.435
-0.51
-0.695
-0.815
-0.865
-0.925
-0.945
-0.985
-1.015
-1.015
-1.09
-1.1
-1.12
-1.135
-1.125
-1.12
-1.14
-1.13
-1.155
-1.15
-1.15
-1.165
-1.16
-1.175
-1.15
-1.14
-1.175
-1.155
-1.18
-1.16
-1.155
-1.165
-1.175
-1.185
-1.17
-1.145
-1.15
-1.175
-1.19
-1.155
-1.17
-1.175
-1.155
-1.17
-1.185
-1.145
-1.15
-1.16
-1.155
-1.155
-1.15
-1.16
-1.165
-1.135
-1.13
-1.16
-1.15
-1.155
-1.155
-1.155
-1.15
-1.14
-1.13
-1.135
-1.135
-1.15
-1.15
-1.13
-1.145
-1.12
-1.14
-1.14
-1.14
-1.13
-1.125
-1.135
-1.115
-1.12
-1.115
-1.115
-1.12
-1.11
-1.115
-1.09
-1.105
-1.085
-1.08
-1.1
-1.07
-1.075
-1.085
-1.06
-1.09
-1.06
-1.055
-1.05
-1.065
-1.035
-1.045
-1.045
-1.04
-1.03
-1.01
-1.015
-0.98
-0.97
-1.005
-0.995
-1.005
-1.0
-1.0
-0.985
-0.97
-0.985
-1.005
-0.985
-0.94
-0.945
-1.005
-0.98
-0.965
-0.975
-0.98
-0.98
-0.975
-0.98
-1.015
-1.02
-1.02
-1.02
-1.025
-1.035
-1.025
-1.015
-1.045
-1.07
-1.055
-1.055
-1.06
-1.07
-1.09
-1.14
-1.085
-1.095
-1.1
-1.105
-1.085
-1.055
-1.065
-1.13
-1.125
-1.125
-1.12
-1.115
-1.085
-1.12
-1.145
-1.13
-1.135
-1.12
-1.12
-1.115
-1.115
-1.1
-1.13
-1.095
-1.12
-1.135
-1.1
-1.115
-1.105
-1.135
-1.1
-1.135
-1.115
-1.125
-1.11
-1.115
-1.13
-1.115
-1.1
-1.12
-1.115
-1.13
-1.14
-1.13
-1.13
-1.14
-1.09
-1.095
-1.11
-1.12
-1.115
-1.13
-1.115
-1.105
-1.105
-1.105
-1.105
-1.13
-1.135
-1.15
-1.09
-1.095
-1.105
-1.12
-1.09
-1.115
-1.11
-1.115
-1.13
-1.135
-1.12
-1.105
-1.125
-1.115
-1.075
-1.09
-1.095
-1.115
-1.105
-1.12
-1.095
-1.105
-1.105
-1.11
-1.115
-1.105
-1.11
-1.125
-1.12
-1.105
-1.1
-1.105
-1.1
-1.125
-1.115
-1.105
-1.1
-1.1
-1.085
-1.115
-1.105
-1.11
-1.1
-1.105
-1.12
-1.115
-1.085
-1.1
-1.1
-1.105
-1.095
-1.09
-1.115
-1.09
-1.115
-1.115
-1.105
-1.105
-1.11
-1.11
-1.085
-1.145
-1.115
-1.125
-1.12
-1.135
-1.095
-1.1
-1.105
-1.09
-1.095
-1.095
-1.115
-1.12
-1.12
-1.105
-1.1
-1.11
-1.115
-1.1
-1.1
-1.085
-1.105
-1.1
-1.09
-1.11
-1.1
-1.13
-1.12
-1.11
-1.11
-1.1
-1.095
-1.11
-1.095
-1.09
-1.085
-1.09
-1.08
-1.09
-1.08
-1.085
-1.09
-1.065
-1.085
-1.085
-1.055
-1.075
-1.06
-1.095
-1.09
-1.06
-1.035
-1.025
-1.055
-1.045
-1.03
-1.015
-1.02
-1.04
-1.015
-1.02
-1.01
-1.025
-1.045
-1.02
-1.06
-1.085
-1.085
-1.095
-1.1
-1.08
-1.08
-1.08
-1.08
-1.08
-1.085
-1.085
-1.1
-1.07
-1.105
-1.125
-1.115
-1.08
-1.095
-1.11
-1.1
-1.1
-1.09
-1.08
-1.11
-1.105
-1.08
-1.095
-1.12
-1.105
-1.115
-1.105
-1.13
-1.135
-1.125
-1.1
-1.115
-1.105
-1.1
-1.105
-1.11
-1.115
-1.145
-1.125
-1.175
-1.16
-1.23
-1.27
-1.29
-1.325
-1.325
-1.305
-1.25
-1.15
-1.015
-0.88
-0.74
-0.585
-0.445
-0.335
-0.21
-0.11
-0.085
-0.105
-0.16
-0.235
-0.33
-0.375
-0.465
-0.635
-0.745
-0.8
-0.865
-0.88
-0.905
-0.95
-0.98
-0.995
-1.025
-1.065
-1.09
-1.075
-1.085
-1.09
-1.075
-1.07
-1.065
-1.09
-1.1
-1.11
-1.095
-1.115
-1.11
-1.11
-1.125
-1.11
-1.07
-1.1
-1.125
-1.105
-1.11
-1.1
-1.085
-1.105
-1.105
-1.1
-1.105
-1.125
-1.105
-1.11
-1.11
-1.11
-1.11
-1.095
-1.115
-1.11
-1.08
-1.11
-1.1
-1.12
-1.08
-1.09
-1.1
-1.115
-1.09
-1.085
-1.09
-1.075
-1.07
-1.09
-1.1
-1.085
-1.085
-1.125
-1.11
-1.085
-1.095
-1.09
-1.04
-1.075
-1.065
-1.075
-1.085
-1.05
-1.06
-1.06
-1.065
-1.09
-1.055
-1.075
-1.045
-1.025
-1.015
-1.05
-1.045
-1.03
-1.015
-1.035
-1.03
-1.025
-0.995
-0.99
-0.99
-1.01
-1.015
-0.995
-0.965
-0.995
-0.995
-0.96
-0.975
-0.99
-0.955
-0.94
-0.925
-0.925
-0.93
-0.91
-0.95
-0.925
-0.945
-0.935
-0.935
-0.93
-0.935
-0.94
-0.885
-0.915
-0.935
-0.95
-0.955
-0.95
-0.97
-0.965
-0.975
-0.99
-0.95
-0.945
-0.96
-0.98
-0.98
-0.995
-0.995
-1.01
-0.995
-1.01
-1.03
-1.03
-1.02
-1.05
-1.06
-1.045
-1.04
-1.035
-1.055
-1.055
-1.035
-1.06
-1.055
-1.065
-1.07
-1.065
-1.045
-1.065
-1.07
-1.085
-1.085
-1.08
-1.08
-1.075
-1.075
-1.085
-1.055
-1.075
-1.08
-1.07
-1.06
-1.075
-1.05
-1.05
-1.075
-1.085
-1.075
-1.07
-1.07
-1.075
-1.08
-1.065
-1.04
-1.055
-1.075
-1.09
-1.04
-1.06
-1.07
-1.06
-1.065
-1.08
-1.08
-1.085
-1.075
-1.08
-1.08
-1.07
-1.07
-1.06
-1.075
-1.075
-1.06
-1.095
-1.095
-1.065
-1.055
-1.09
-1.075
-1.065
-1.08
-1.07
-1.07
-1.045
-1.05
-1.075
-1.075
-1.055
-1.06
-1.05
-1.065
-1.06
-1.07
-1.07
-1.075
-1.06
-1.07
-1.08
-1.055
-1.06
-1.075
-1.07
-1.07
-1.075
-1.055
-1.085
-1.09
-1.065
-1.08
-1.075
-1.06
-1.065
-1.045
-1.05
-1.06
-1.06
-1.07
-1.065
-1.055
-1.06
-1.07
-1.065
-1.06
-1.065
-1.07
-1.08
-1.085
-1.065
-1.06
-1.07
-1.07
-1.07
-1.105
-1.05
-1.075
-1.085
-1.085
-1.065
-1.075
-1.075
-1.07
-1.075
-1.07
-1.075
-1.06
-1.085
-1.07
-1.055
-1.045
-1.04
-1.06
-1.07
-1.065
-1.065
-1.095
-1.065
-1.07
-1.09
-1.07
-1.06
-1.065
-1.07
-1.08
-1.085
-1.07
-1.06
-1.06
-1.09
-1.09
-1.09
-1.08
-1.07
-1.065
-1.07
-1.07
-1.075
-1.08
-1.08
-1.055
-1.05
-1.085
-1.075
-1.08
-1.055
-1.065
-1.06
-1.06
-1.075
-1.085
-1.085
-1.075
-1.045
-1.055
-1.065
-1.045
-1.07
-1.07
-1.045
-1.045
-1.025
-1.035
-1.035
-1.045
-1.03
-1.025
-1.025
-1.01
-1.005
-1.0
-1.0
-0.98
-0.995
-1.0
-0.995
-0.995
-0.985
-0.995
-1.02
-1.03
-1.03
-1.03
-1.04
-1.05
-1.075
-1.07
-1.075
-1.08
-1.05
-1.045
-1.055
-1.065
-1.075
-1.08
-1.07
-1.06
-1.065
-1.065
-1.07
-1.08
-1.07
-1.07
-1.09
-1.095
-1.085
-1.08
-1.095
-1.09
-1.065
-1.085
-1.1
-1.095
-1.105
-1.09
-1.095
-1.09
-1.085
-1.105
-1.085
-1.105
-1.1
-1.09
-1.105
-1.135
-1.16
-1.185
-1.21
-1.24
-1.27
-1.3
-1.295
-1.295
-1.21
-1.115
-1.02
-0.865
-0.685
-0.535
-0.38
-0.24
-0.085
0.005
0.02
-0.035
-0.1
-0.13
-0.245
-0.295
-0.4
-0.545
-0.69
-0.765
-0.805
-0.85
-0.9
-0.925
-0.97
-0.97
-1.01
-1.045
-1.045
-1.07
-1.06
-1.055
-1.08
-1.095
-1.075
-1.095
-1.085
-1.085
-1.075
-1.075
-1.09
-1.095
-1.09
-1.11
-1.095
-1.105
-1.11
-1.1
-1.07
-1.105
-1.115
-1.105
-1.1
-1.11
-1.1
-1.105
-1.1
-1.1
-1.11
-1.105
-1.115
-1.095
-1.11
-1.1
-1.11
-1.09
-1.085
-1.085
-1.105
-1.085
-1.095
-1.09
-1.11
-1.1
-1.095
-1.08
-1.085
-1.08
-1.085
-1.065
-1.08
-1.095
-1.09
-1.07
-1.08
-1.075
-1.08
-1.085
-1.095
-1.07
-1.08
-1.09
-1.09
-1.075
-1.065
-1.06
-1.03
-1.06
-1.06
-1.055
-1.05
-1.05
-1.065
-1.03
-1.035
-1.02
-1.005
-1.015
-1.05
-1.005
-1.015
-1.015
-0.98
-0.99
-0.98
-0.98
-0.98
-0.98
-0.99
-0.955
-0.93
-0.935
-0.935
-0.935
-0.93
-0.925
-0.93
-0.915
-0.94
-0.925
-0.915
-0.92
-0.91
-0.905
-0.92
-0.905
-0.915
-0.925
-0.925
-0.92
-0.93
-0.94
-0.945
-0.945
-0.965
-0.965
-0.96
-0.97
-0.985
-1.015
-0.985
-0.99
-1.0
-1.0
-1.02
-1.005
-1.035
-1.025
-1.04
-1.03
-1.02
-1.055
-1.095
-1.07
-1.025
-1.035
-1.01
-1.03
-1.065
-1.055
-1.08
-1.08
-1.06
-1.055
-1.055
-1.065
-1.06
-1.04
-1.05
-1.075
-1.055
-1.065
-1.065
-1.055
-1.07
-1.055
-1.045
-1.06
-1.06
-1.055
-1.06
-1.04
-1.04
-1.055
-1.055
-1.055
-1.065
-1.045
-1.055
-1.045
-1.045
-1.065
-1.07
-1.05
-1.055
-1.015
-1.03
-1.05
-1.035
-1.065
-1.06
-1.06
-1.035
-1.045
-1.03
-1.04
-1.05
-1.06
-1.06
-1.04
-1.03
-1.035
-1.045
-1.025
-1.05
-1.03
-1.055
-1.04
-1.04
-1.04
-1.05
-1.035
-1.03
-1.03
-1.04
-1.035
-1.035
-1.04
-1.045
-1.045
-1.05
-1.025
-1.03
-1.02
-1.035
-1.06
-1.035
-1.035
-1.035
-1.045
-1.04
-1.05
-1.05
-1.035
-1.04
-1.045
-1.03
-1.045
-1.05
-1.05
-1.045
-1.02
-1.025
-1.03
-1.025
-1.04
-1.025
-1.025
-1.025
-1.015
-1.05
-1.065
-1.045
-1.04
-1.045
-1.025
-1.05
-1.045
-1.05
-1.02
-1.035
-1.04
-1.06
-1.04
-1.02
-1.015
-1.02
-1.055
-1.04
-1.03
-1.05
-1.05
-1.06
-1.045
-1.045
-1.05
-1.07
-1.08
-1.05
-1.035
-1.045
-1.045
-1.045
-1.045
-1.005
-1.035
-1.065
-1.06
-1.05
-1.03
-1.055
-1.055
-1.05
-1.055
-1.075
-1.05
-1.045
-1.055
-1.06
-1.04
-1.035
-1.04
-1.075
-1.045
-1.055
-1.05
-1.055
-1.055
-1.045
-1.065
-1.05
-1.07
-1.06
-1.04
-1.07
-1.035
-1.07
-1.045
-1.045
-1.045
-1.065
-1.055
-1.05
-1.045
-1.02
-1.035
-1.035
-1.035
-1.035
-1.07
-1.025
-1.055
-1.035
-1.01
-1.025
-1.03
-1.015
-1.02
-1.02
-1.0
-1.005
-0.99
-0.98
-0.99
-0.985
-0.985
-0.96
-0.995
-0.99
-1.0
-0.975
-0.98
-0.97
-0.945
-1.005
-1.0
-0.975
-1.015
-1.025
-1.06
-1.05
-1.04
-1.06
-1.045
-1.035
-1.05
-1.055
-1.065
-1.05
-1.06
-1.065
-1.035
-1.055
-1.06
-1.05
-1.07
-1.07
-1.09
-1.095
-1.08
-1.075
-1.055
-1.045
-1.07
-1.06
-1.07
-1.06
-1.06
-1.04
-1.085
-1.09
-1.055
-1.065
-1.06
-1.085
-1.07
-1.07
-1.085
-1.085
-1.1
-1.13
-1.165
-1.185
-1.25
-1.27
-1.305
-1.285
-1.28
-1.21
-1.09
-0.97
-0.835
-0.645
-0.47
-0.295
-0.145
-0.005
0.095
0.11
0.075
0.005
-0.05
-0.165
-0.235
-0.345
-0.49
-0.615
-0.715
-0.755
-0.825
-0.865
-0.875
-0.93
-0.945
-0.965
-1.02
-1.015
-1.015
-1.025
-1.05
-1.02
-1.035
-1.035
-1.045
-1.07
-1.065
-1.065
-1.07
-1.07
-1.075
-1.065
-1.065
-1.085
-1.075
-1.07
-1.07
-1.07
-1.075
-1.095
-1.075
-1.07
-1.075
-1.06
-1.06
-1.1
-1.075
-1.08
-1.095
-1.07
-1.07
-1.065
-1.06
-1.07
-1.04
-1.065
-1.075
-1.075
-1.08
-1.065
-1.06
-1.06
-1.075
-1.085
-1.075
-1.07
-1.06
-1.075
-1.075
-1.06
-1.065
-1.065
-1.04
-1.04
-1.04
-1.04
-1.03
-1.045
-0.985
-1.04
-1.06
-1.03
-1.02
-1.05
-1.05
-1.025
-1.015
-1.025
-1.03
-1.03
-1.04
-0.995
-1.0
-0.995
-0.995
-1.01
-0.995
-1.005
-0.985
-0.975
-0.975
-0.945
-0.95
-0.965
-0.96
-0.94
-0.935
-0.93
-0.91
-0.905
-0.925
-0.915
-0.895
-0.925
-0.94
-0.915
-0.89
-0.905
-0.9
-0.9
-0.885
-0.885
-0.89
-0.895
-0.885
-0.885
-0.915
-0.915
-0.935
-0.925
-0.915
-0.9
-0.9
-0.92
-0.92
-0.92
-0.935
-0.945
-0.975
-0.985
-0.985
-0.98
-0.965
-0.995
-1.0
-1.005
-1.015
-1.02
-1.035
-1.03
-1.025
-1.04
-1.03
-1.03
-1.045
-1.04
-1.045
-1.035
-1.065
-1.06
-1.035
-1.04
-1.05
-1.045
-1.055
-1.05
-1.045
-1.055
-1.065
-1.07
-1.06
-1.065
-1.065
-1.055
-1.06
-1.045
-1.02
-1.05
-1.045
-1.045
-1.05
-1.05
-1.05
-1.035
-1.045
-1.055
-1.045
-1.035
-1.065
-1.06
-1.025
-1.01
-1.055
-1.065
-1.06
-1.06
-1.07
-1.075
-1.06
-1.075
-1.05
-1.05
-1.065
-1.075
-1.06
-1.07
-1.06
-1.06
-1.065
-1.065
-1.055
-1.06
-1.045
-1.065
-1.045
-1.055
-1.06
-1.065
-1.055
-1.06
-1.045
-1.065
-1.065
-1.05
-1.04
-1.045
-1.045
-1.06
-1.065
-1.06
-1.055
-1.045
-1.05
-1.04
-1.04
-1.07
-1.07
-1.06
-1.055
-1.06
-1.06
-1.045
-1.055
-1.055
-1.065
-1.065
-1.07
-1.045
-1.04
-1.06
-1.05
-1.05
-1.065
-1.05
-1.05
-1.03
-1.04
-1.055
-1.055
-1.055
-1.04
-1.05
-1.075
-1.075
-1.035
-1.065
-1.085
-1.09
-1.05
-1.055
-1.075
-1.045
-1.055
-1.055
-1.05
-1.07
-1.065
-1.055
-1.08
-1.035
-1.065
-1.055
-1.055
-1.065
-1.065
-1.08
-1.05
-1.055
-1.065
-1.05
-1.055
-1.075
-1.04
-1.06
-1.08
-1.075
-1.06
-1.07
-1.075
-1.075
-1.055
-1.075
-1.07
-1.08
-1.085
-1.05
-1.06
-1.07
-1.075
-1.075
-1.07
-1.05
-1.05
-1.085
-1.06
-1.08
-1.08
-1.1
-1.09
-1.075
-1.08
-1.035
-1.08
-1.07
-1.07
-1.055
-1.07
-1.09
-1.095
-1.085
-1.065
-1.09
-1.09
-1.075
-1.06
-1.045
-1.07
-1.075
-1.07
-1.065
-1.04
-1.055
-1.04
-1.025
-1.05
-1.06
-1.05
-1.055
-1.035
-1.045
-1.01
-1.005
-0.985
-0.94
-1.0
-0.985
-0.98
-0.995
-1.01
-1.005
-0.98
-1.01
-1.015
-1.0
-0.98
-1.005
-1.0
-1.01
-1.03
-1.035
-1.03
-1.045
-1.05
-1.04
-1.055
-1.05
-1.07
-1.05
-1.03
-1.03
-1.035
-1.025
-1.015
-1.03
-1.03
-1.055
-1.035
-1.06
-1.04
-1.045
-1.05
-1.035
-1.035
-1.01
-1.01
-1.005
-0.98
-0.985
-0.98
-0.98
-0.98
-0.96
-0.985
-0.98
-0.96
-0.96
-0.95
-0.95
-0.96
-0.98
-1.03
-1.04
-1.09
-1.125
-1.16
-1.14
-1.135
-1.085
-0.995
-0.85
-0.7
-0.535
-0.375
-0.185
-0.065
0.09
0.195
0.245
0.205
0.12
0.065
-0.04
-0.12
-0.21
-0.365
-0.495
-0.57
-0.63
-0.665
-0.7
-0.74
-0.78
-0.815
-0.84
-0.85
-0.86
-0.865
-0.835
-0.85
-0.885
-0.865
-0.85
-0.92
-0.905
-0.9
-0.91
-0.92
-0.915
-0.915
-0.895
-0.92
-0.91
-0.9
-0.91
-0.9
-0.92
-0.925
-0.92
-0.915
-0.915
-0.91
-0.905
-0.905
-0.905
-0.93
-0.92
-0.94
-0.92
-0.885
-0.905
-0.905
-0.895
-0.905
-0.93
-0.935
-0.915
-0.92
-0.89
-0.935
-0.91
-0.91
-0.92
-0.92
-0.905
-0.93
-0.92
-0.895
-0.875
-0.905
-0.885
-0.865
-0.88
-0.89
-0.885
-0.89
-0.87
-0.87
-0.88
-0.87
-0.855
-0.83
-0.84
-0.85
-0.845
-0.85
-0.86
-0.85
-0.855
-0.845
-0.81
-0.81
-0.835
-0.825
-0.83
-0.81
-0.82
-0.81
-0.805
-0.79
-0.785
-0.795
-0.785
-0.77
-0.75
-0.76
-0.76
-0.77
-0.745
-0.74
-0.75
-0.72
-0.72
-0.725
-0.705
-0.715
-0.7
-0.7
-0.73
-0.715
-0.695
-0.73
-0.715
-0.68
-0.715
-0.74
-0.73
-0.735
-0.72
-0.71
-0.735
-0.75
-0.75
-0.79
-0.77
-0.77
-0.78
-0.79
-0.785
-0.785
-0.79
-0.8
-0.83
-0.81
-0.8
-0.825
-0.85
-0.83
-0.83
-0.845
-0.84
-0.85
-0.845
-0.855
-0.87
-0.86
-0.845
-0.88
-0.885
-0.885
-0.875
-0.85
-0.855
-0.86
-0.87
-0.88
-0.85
-0.85
-0.865
-0.875
-0.88
-0.875
-0.885
-0.865
-0.875
-0.885
-0.88
-0.87
-0.885
-0.87
-0.875
-0.86
-0.88
-0.87
-0.865
-0.87
-0.875
-0.875
-0.87
-0.885
-0.875
-0.855
-0.875
-0.885
-0.9
-0.865
-0.875
-0.87
-0.86
-0.86
-0.925
-0.9
-0.89
-0.885
-0.855
-0.865
-0.84
-0.865
-0.845
-0.86
-0.885
-0.88
-0.885
-0.87
-0.86
-0.88
-0.87
-0.875
-0.885
-0.86
-0.86
-0.85
-0.835
-0.87
-0.84
-0.85
-0.86
-0.86
-0.86
-0.88
-0.845
-0.865
-0.855
-0.82
-0.82
-0.835
-0.835
-0.85
-0.86
-0.85
-0.86
-0.85
-0.845
-0.825
-0.845
-0.865
-0.825
-0.84
-0.87
-0.855
-0.845
-0.855
-0.84
-0.85
-0.845
-0.86
-0.865
-0.865
-0.835
-0.87
-0.86
-0.865
-0.83
-0.85
-0.865
-0.86
-0.855
-0.87
-0.865
-0.855
-0.85
-0.86
-0.855
-0.865
-0.865
-0.855
-0.885
-0.86
-0.865
-0.83
-0.885
-0.85
-0.85
-0.875
-0.87
-0.855
-0.865
-0.865
-0.875
-0.85
-0.885
-0.865
-0.865
-0.87
-0.865
-0.87
-0.885
-0.86
-0.88
-0.89
-0.835
-0.85
-0.87
-0.865
-0.855
-0.875
-0.89
-0.85
-0.85
-0.84
-0.86
-0.865
-0.86
-0.875
-0.87
-0.875
-0.89
-0.88
-0.875
-0.855
-0.86
-0.855
-0.88
-0.88
-0.85
-0.85
-0.87
-0.855
-0.85
-0.85
-0.85
-0.85
-0.835
-0.875
-0.88
-0.85
-0.86
-0.84
-0.835
-0.845
-0.84
-0.83
-0.83
-0.825
-0.835
-0.81
-0.815
-0.83
-0.8
-0.805
-0.81
-0.805
-0.79
-0.76
-0.775
-0.75
-0.8
-0.795
-0.8
-0.795
-0.78
-0.79
-0.81
-0.785
-0.81
-0.825
-0.825
-0.835
-0.835
-0.815
-0.8
-0.875
-0.845
-0.855
-0.86
-0.85
-0.845
-0.85
-0.845
-0.87
-0.85
-0.87
-0.84
-0.845
-0.89
-0.875
-0.88
-0.865
-0.865
-0.86
-0.85
-0.855
-0.865
-0.88
-0.865
-0.86
-0.87
-0.875
-0.885
-0.88
-0.905
-0.895
-0.875
-0.885
-0.885
-0.895
-0.885
-0.93
-0.94
-0.975
-1.02
-1.075
-1.095
-1.07
-1.075
-1.01
-0.935
-0.8
-0.645
-0.48
-0.285
-0.12
0.025
0.17
0.265
0.34
0.31
0.265
0.18
0.07
-0.01
-0.1
-0.8
-0.815
-0.825
-0.83
-0.84
-0.85
-0.84
-0.865
-0.865
-0.87
-0.875
-0.875
-0.86
-0.875
-0.885
-0.865
-0.89
-0.875
-0.89
-0.9
-0.855
-0.875
-0.88
-0.895
-0.885
-0.885
-0.885
-0.88
-0.875
-0.87
-0.87
-0.91
-0.875
-0.905
-0.89
-0.89
-0.89
-0.87
-0.89
-0.9
-0.885
-0.87
-0.88
-0.9
-0.905
-0.92
-0.89
-0.89
-0.925
-0.92
-0.915
-0.915
-0.925
-0.93
-0.925
-0.91
-0.915
-0.915
-0.92
-0.94
-0.905
-0.915
-0.92
-0.9
-0.91
-0.905
-0.91
-0.93
-0.905
-0.895
-0.89
-0.895
-0.895
-0.89
-0.89
-0.875
-0.87
-0.88
-0.875
-0.86
-0.865
-0.855
-0.855
-0.86
-0.835
-0.84
-0.855
-0.88
-0.82
-0.825
-0.81
-0.8
-0.81
-0.81
-0.785
-0.77
-0.78
-0.76
-0.755
-0.77
-0.785
-0.79
-0.775
-0.745
-0.755
-0.775
-0.755
-0.755
-0.76
-0.765
-0.77
-0.775
-0.775
-0.775
-0.77
-0.785
-0.805
-0.82
-0.815
-0.81
-0.83
-0.825
-0.845
-0.845
-0.865
-0.875
-0.865
-0.885
-0.895
-0.885
-0.89
-0.9
-0.91
-0.905
-0.885
-0.915
-0.915
-0.905
-0.925
-0.955
-0.93
-0.93
-0.935
-0.92
-0.945
-0.95
-0.94
-0.95
-0.945
-0.955
-0.96
-0.94
-0.945
-0.955
-0.92
-0.94
-0.94
-0.95
-0.945
-0.955
-0.93
-0.935
-0.945
-0.935
-0.95
-0.965
-0.945
-0.94
-0.945
-0.95
-0.95
-0.945
-0.935
-0.92
-0.96
-0.97
-0.93
-0.935
-0.96
-0.94
-0.93
-0.935
-0.945
-0.945
-0.945
-0.925
-0.935
-0.95
-0.96
-0.98
-0.96
-0.95
-0.94
-0.955
-0.94
-0.96
-0.96
-0.955
-0.95
-0.94
-0.95
-0.94
-0.96
-0.96
-0.945
-0.955
-0.955
-0.97
-0.93
-0.965
-0.95
-0.955
-0.95
-0.95
-0.955
-0.94
-0.94
-0.965
-0.955
-0.96
-0.955
-0.945
-0.955
-0.95
-0.96
-0.97
-0.93
-0.945
-0.95
-0.925
-0.945
-0.945
-0.955
-0.915
-0.95
-0.95
-0.935
-0.955
-0.965
-0.965
-0.955
-0.96
-0.945
-0.94
-0.95
-1.0
-0.95
-0.94
-0.93
-0.955
-0.98
-0.975
-0.965
-0.94
-0.95
-0.955
-0.935
-0.945
-0.93
-0.96
-0.97
-0.945
-0.95
-0.955
-0.955
-0.93
-0.955
-0.975
-0.955
-0.98
-0.95
-0.96
-0.95
-0.945
-0.955
-0.96
-0.96
-0.95
-0.965
-0.96
-0.97
-0.975
-0.97
-0.975
-0.955
-0.955
-0.955
-0.965
-0.97
-0.98
-0.95
-0.965
-0.985
-0.95
-0.95
-1.005
-0.96
-0.945
-0.92
-0.945
-0.95
-0.95
-0.94
-0.945
-0.975
-0.945
-0.95
-0.945
-0.94
-0.95
-0.955
-0.965
-0.955
-0.965
-0.96
-0.95
-0.95
-0.95
-0.935
-0.945
-0.93
-0.935
-0.93
-0.915
-0.91
-0.91
-0.88
-0.91
-0.91
-0.905
-0.9
-0.89
-0.9
-0.85
-0.85
-0.88
-0.87
-0.87
-0.885
-0.885
-0.885
-0.89
-0.87
-0.86
-0.86
-0.875
-0.885
-0.89
-0.92
-0.915
-0.925
-0.93
-0.95
-0.94
-0.93
-0.945
-0.93
-0.945
-0.94
-0.945
-0.94
-0.92
-0.93
-0.935
-0.94
-0.925
-0.935
-0.945
-0.95
-0.95
-0.96
-0.95
-0.94
-0.945
-0.915
-0.92
-0.96
-0.97
-0.945
-0.94
-0.945
-0.96
-0.955
-0.95
-0.955
-0.98
-0.975
-0.99
-1.02
-1.05
-1.065
-1.12
-1.145
-1.13
-1.13
-1.08
-1.025
-0.9
-0.74
-0.59
-0.44
-0.285
-0.145
0.01
0.115
0.185
0.155
0.1
0.065
-0.055
-0.155
-0.25
-0.39
-0.5
-0.58
-0.6
-0.655
-0.705
-0.74
-0.775
-0.805
-0.815
-0.835
-0.845
-0.865
-0.87
-0.865
-0.875
-0.865
-0.87
-0.89
-0.89
-0.885
-0.9
-0.875
-0.885
-0.905
-0.895
-0.905
-0.875
-0.895
-0.92
-0.9
-0.895
-0.905
-0.9
-0.885
-0.905
-0.885
-0.885
-0.88
-0.89
-0.88
-0.885
-0.89
-0.88
-0.89
-0.885
-0.875
-0.87
-0.865
-0.895
-0.895
-0.885
-0.88
-0.88
-0.875
-0.835
-0.865
-0.855
-0.845
-0.865
-0.85
-0.85
-0.84
-0.83
-0.83
-0.845
-0.85
-0.875
-0.84
-0.825
-0.835
-0.815
-0.84
-0.83
-0.815
-0.83
-0.795
-0.79
-0.805
-0.815
-0.8
-0.805
-0.8
-0.795
-0.79
-0.785
-0.755
-0.775
-0.77
-0.75
-0.735
-0.76
-0.76
-0.735
-0.745
-0.735
-0.72
-0.715
-0.72
-0.725
-0.7
-0.695
-0.685
-0.66
-0.67
-0.67
-0.64
-0.635
-0.66
-0.665
-0.65
-0.65
-0.635
-0.625
-0.625
-0.64
-0.645
-0.62
-0.63
-0.645
-0.65
-0.625
-0.635
-0.635
-0.635
-0.64
-0.645
-0.645
-0.69
-0.665
-0.67
-0.66
-0.68
-0.695
-0.705
-0.725
-0.715
-0.72
-0.715
-0.725
-0.735
-0.73
-0.745
-0.73
-0.755
-0.765
-0.75
-0.765
-0.765
-0.78
-0.785
-0.775
-0.77
-0.775
-0.78
-0.76
-0.765
-0.775
-0.805
-0.775
-0.78
-0.77
-0.77
-0.79
-0.775
-0.765
-0.775
-0.77
-0.78
-0.765
-0.76
-0.76
-0.735
-0.77
-0.805
-0.765
-0.78
-0.775
-0.765
-0.755
-0.76
-0.775
-0.765
-0.765
-0.77
-0.795
-0.765
-0.775
-0.78
-0.76
-0.765
-0.75
-0.755
-0.77
-0.76
-0.765
-0.765
-0.775
-0.78
-0.775
-0.765
-0.76
-0.78
-0.77
-0.745
-0.76
-0.775
-0.75
-0.755
-0.765
-0.775
-0.765
-0.76
-0.785
-0.77
-0.765
-0.78
-0.785
-0.77
-0.76
-0.765
-0.77
-0.755
-0.75
-0.76
-0.755
-0.76
-0.745
-0.775
-0.775
-0.76
-0.78
-0.74
-0.74
-0.75
-0.755
-0.77
-0.76
-0.745
-0.755
-0.77
-0.745
-0.77
-0.78
-0.755
-0.75
-0.745
-0.77
-0.74
-0.75
-0.75
-0.74
-0.755
-0.76
-0.775
-0.765
-0.775
-0.755
-0.77
-0.76
-0.73
-0.735
-0.755
-0.77
-0.775
-0.76
-0.745
-0.775
-0.77
-0.765
-0.765
-0.76
-0.73
-0.755
-0.77
-0.78
-0.78
-0.76
-0.735
-0.735
-0.78
-0.765
-0.745
-0.76
-0.77
-0.77
-0.78
-0.75
-0.785
-0.77
-0.745
-0.755
-0.765
-0.785
-0.78
-0.765
-0.755
-0.755
-0.765
-0.755
-0.76
-0.77
-0.745
-0.76
-0.77
-0.76
-0.77
-0.785
-0.765
-0.76
-0.78
-0.77
-0.76
-0.76
-0.765
-0.76
-0.76
-0.765
-0.765
-0.765
-0.76
-0.77
-0.775
-0.775
-0.78
-0.765
-0.75
-0.735
-0.725
-0.72
-0.725
-0.71
-0.73
-0.735
-0.73
-0.73
-0.715
-0.715
-0.705
-0.705
-0.695
-0.69
-0.69
-0.68
-0.71
-0.705
-0.675
-0.695
-0.695
-0.695
-0.7
-0.695
-0.705
-0.71
-0.73
-0.73
-0.755
-0.76
-0.77
-0.76
-0.755
-0.755
-0.775
-0.75
-0.77
-0.775
-0.77
-0.765
-0.755
-0.77
-0.77
-0.76
-0.76
-0.765
-0.775
-0.77
-0.78
-0.775
-0.76
-0.76
-0.775
-0.785
-0.78
-0.76
-0.79
-0.795
-0.78
-0.76
-0.76
-0.77
-0.77
-0.775
-0.795
-0.82
-0.845
-0.875
-0.91
-0.935
-0.935
-1.005
-0.965
-0.885
-0.82
-0.68
-0.52
-0.36
-0.21
-0.015
0.12
0.255
0.34
0.4
0.37
0.29
0.25
0.15
0.065
-0.05
-0.185
-0.32
-0.37
-0.44
-0.49
-0.515
-0.58
-0.62
-0.65
-0.665
-0.68
-0.685
-0.69
-0.7
-0.725
-0.725
-0.755
-0.725
-0.715
-0.74
-0.75
-0.745
-0.735
-0.77
-0.745
-0.745
-0.77
-0.765
-0.77
-0.76
-0.76
-0.775
-0.77
-0.765
-0.765
-0.765
-0.75
-0.77
-0.755
-0.76
-0.765
-0.75
-0.75
-0.76
-0.77
-0.745
-0.76
-0.775
-0.77
-0.76
-0.745
-0.74
-0.745
-0.755
-0.76
-0.77
-0.76
-0.725
-0.75
-0.715
-0.735
-0.76
-0.73
-0.725
-0.76
-0.74
-0.74
-0.75
-0.735
-0.735
-0.755
-0.74
-0.72
-0.735
-0.725
-0.725
-0.73
-0.715
-0.715
-0.705
-0.695
-0.69
-0.705
-0.71
-0.7
-0.69
-0.705
-0.69
-0.685
-0.695
-0.685
-0.67
-0.66
-0.63
-0.63
-0.645
-0.655
-0.63
-0.64
-0.625
-0.63
-0.62
-0.61
-0.615
-0.6
-0.6
-0.605
-0.58
-0.555
-0.565
-0.595
-0.585
-0.575
-0.585
-0.575
-0.58
-0.57
-0.6
-0.565
-0.57
-0.58
-0.59
-0.575
-0.585
-0.6
-0.595
-0.615
-0.625
-0.625
-0.645
-0.65
-0.65
-0.65
-0.66
-0.665
-0.69
-0.67
-0.665
-0.685
-0.705
-0.695
-0.7
-0.705
-0.705
-0.71
-0.715
-0.735
-0.745
-0.745
-0.715
-0.735
-0.73
-0.74
-0.755
-0.715
-0.72
-0.73
-0.725
-0.72
-0.735
-0.73
-0.755
-0.73
-0.72
-0.74
-0.735
-0.735
-0.725
-0.74
-0.74
-0.73
-0.72
-0.715
-0.75
-0.725
-0.735
-0.735
-0.72
-0.725
-0.74
-0.745
-0.71
-0.73
-0.73
-0.735
-0.73
-0.735
-0.71
-0.73
-0.72
-0.75
-0.745
-0.735
-0.755
-0.76
-0.745
-0.73
-0.74
-0.745
-0.74
-0.745
-0.745
-0.72
-0.72
-0.73
-0.725
-0.755
-0.73
-0.75
-0.73
-0.725
-0.73
-0.725
-0.73
-0.74
-0.745
-0.75
-0.75
-0.735
-0.72
-0.715
-0.705
-0.745
-0.74
-0.745
-0.745
-0.75
-0.74
-0.725
-0.72
-0.735
-0.735
-0.765
-0.77
-0.76
-0.77
-0.77
-0.76
-0.765
-0.76
-0.76
-0.75
-0.76
-0.765
-0.745
-0.76
-0.745
-0.75
-0.745
-0.765
-0.75
-0.755
-0.745
-0.75
-0.74
-0.72
-0.75
-0.735
-0.745
-0.735
-0.745
-0.75
-0.74
-0.73
-0.73
-0.755
-0.75
-0.75
-0.74
-0.735
-0.745
-0.755
-0.75
-0.755
-0.765
-0.76
-0.72
-0.74
-0.73
-0.725
-0.745
-0.73
-0.735
-0.76
-0.74
-0.74
-0.74
-0.715
-0.71
-0.755
-0.755
-0.77
-0.74
-0.745
-0.745
-0.745
-0.755
-0.745
-0.755
-0.745
-0.73
-0.75
-0.77
-0.755
-0.75
-0.76
-0.76
-0.75
-0.74
-0.745
-0.745
-0.735
-0.75
-0.755
-0.75
-0.735
-0.765
-0.76
-0.75
-0.71
-0.72
-0.735
-0.695
-0.72
-0.715
-0.705
-0.7
-0.7
-0.705
-0.705
-0.7
-0.705
-0.69
-0.67
-0.685
-0.675
-0.68
-0.665
-0.67
-0.685
-0.675
-0.645
-0.66
-0.685
-0.67
-0.675
-0.685
-0.69
-0.705
-0.72
-0.73
-0.75
-0.72
-0.725
-0.74
-0.73
-0.725
-0.745
-0.76
-0.77
-0.755
-0.77
-0.76
-0.76
-0.745
-0.755
-0.77
-0.76
-0.76
-0.76
-0.765
-0.765
-0.77
-0.785
-0.78
-0.73
-0.75
-0.75
-0.75
-0.765
-0.78
-0.75
-0.76
-0.78
-0.77
-0.775
-0.78
-0.795
-0.825
-0.86
-0.89
-0.94
-0.955
-1.0
-0.98
-0.99
-0.955
-0.835
-0.67
-0.53
-0.375
-0.17
-0.03
0.09
0.25
0.38
0.435
0.385
0.26
0.22
0.105
0.03
-0.085
-0.24
-0.335
-0.415
-0.465
-0.505
-0.545
-0.585
-0.635
-0.66
-0.68
-0.705
-0.695
-0.74
-0.745
-0.745
-0.725
-0.745
-0.755
-0.78
-0.77
-0.8
-0.77
-0.78
-0.785
-0.76
-0.76
-0.75
-0.755
-0.795
-0.785
-0.785
-0.8
-0.8
-0.79
-0.775
-0.78
-0.79
-0.79
-0.76
-0.78
-0.79
-0.785
-0.78
-0.765
-0.77
-0.795
-0.76
-0.78
-0.77
-0.775
-0.78
-0.785
-0.785
-0.78
-0.765
-0.775
-0.775
-0.745
-0.74
-0.785
-0.775
-0.775
-0.74
-0.785
-0.77
-0.765
-0.76
-0.76
-0.79
-0.77
-0.78
-0.77
-0.78
-0.755
-0.77
-0.79
-0.745
-0.74
-0.745
-0.75
-0.725
-0.72
-0.73
-0.735
-0.72
-0.725
-0.71
-0.71
-0.715
-0.71
-0.7
-0.695
-0.7
-0.675
-0.68
-0.67
-0.66
-0.66
-0.665
-0.66
-0.65
-0.665
-0.65
-0.64
-0.645
-0.62
-0.63
-0.615
-0.625
-0.605
-0.62
-0.61
-0.625
-0.6
-0.59
-0.615
-0.595
-0.6
-0.615
-0.61
-0.635
-0.6
-0.615
-0.625
-0.625
-0.62
-0.635
-0.665
-0.655
-0.65
-0.66
-0.69
-0.69
-0.675
-0.695
-0.73
-0.69
-0.675
-0.715
-0.72
-0.73
-0.72
-0.73
-0.745
-0.745
-0.75
-0.755
-0.77
-0.755
-0.755
-0.76
-0.795
-0.77
-0.775
-0.76
-0.745
-0.765
-0.795
-0.775
-0.775
-0.76
-0.78
-0.77
-0.785
-0.78
-0.78
-0.77
-0.755
-0.775
-0.785
-0.78
-0.765
-0.78
-0.765
-0.77
-0.765
-0.785
-0.765
-0.775
-0.775
-0.77
-0.765
-0.735
-0.77
-0.77
-0.765
-0.78
-0.76
-0.76
-0.79
-0.78
-0.76
-0.77
-0.775
-0.77
-0.765
-0.78
-0.79
-0.795
-0.765
-0.775
-0.785
-0.78
-0.785
-0.785
-0.75
-0.735
-0.76
-0.755
-0.76
-0.765
-0.785
-0.77
-0.775
-0.765
-0.79
-0.775
-0.755
-0.755
-0.78
-0.765
-0.755
-0.765
-0.745
-0.77
-0.785
-0.79
-0.775
-0.79
-0.78
-0.77
-0.79
-0.77
-0.78
-0.78
-0.79
-0.755
-0.76
-0.755
-0.77
-0.785
-0.775
-0.77
-0.79
-0.775
-0.775
-0.795
-0.8
-0.77
-0.78
-0.795
-0.775
-0.775
-0.78
-0.775
-0.805
-0.785
-0.775
-0.785
-0.78
-0.78
-0.79
-0.795
-0.785
-0.79
-0.81
-0.79
-0.8
-0.78
-0.77
-0.78
-0.77
-0.785
-0.77
-0.79
-0.785
-0.775
-0.78
-0.805
-0.78
-0.78
-0.8
-0.785
-0.805
-0.805
-0.77
-0.815
-0.785
-0.78
-0.79
-0.81
-0.805
-0.795
-0.795
-0.79
-0.785
-0.795
-0.785
-0.775
-0.79
-0.8
-0.79
-0.78
-0.78
-0.785
-0.77
-0.775
-0.775
-0.785
-0.83
-0.795
-0.79
-0.76
-0.78
-0.77
-0.785
-0.77
-0.75
-0.765
-0.76
-0.755
-0.755
-0.77
-0.74
-0.75
-0.75
-0.715
-0.72
-0.685
-0.72
-0.725
-0.715
-0.71
-0.72
-0.72
-0.71
-0.725
-0.725
-0.705
-0.72
-0.725
-0.745
-0.745
-0.755
-0.785
-0.79
-0.805
-0.77
-0.78
-0.82
-0.775
-0.78
-0.8
-0.8
-0.79
-0.805
-0.805
-0.81
-0.81
-0.815
-0.82
-0.815
-0.81
-0.825
-0.815
-0.835
-0.8
-0.805
-0.815
-0.815
-0.825
-0.82
-0.835
-0.825
-0.82
-0.8
-0.825
-0.815
-0.825
-0.835
-0.83
-0.85
-0.885
-0.915
-0.93
-0.97
-1.03
-1.05
-1.02
-1.01
-0.955
-0.85
-0.7
-0.55
-0.38
-0.22
-0.05
0.105
0.255
0.365
0.345
0.295
0.23
0.16
0.02
-0.065
-0.17
-0.31
-0.435
-0.5
-0.52
-0.565
-0.63
-0.65
-0.675
-0.71
-0.71
-0.745
-0.77
-0.775
-0.795
-0.81
-0.8
-0.795
-0.805
-0.795
-0.81
-0.82
-0.82
-0.815
-0.815
-0.825
-0.815
-0.81
-0.83
-0.83
-0.815
-0.83
-0.835
-0.82
-0.845
-0.83
-0.825
-0.805
-0.815
-0.815
-0.815
-0.825
-0.815
-0.805
-0.8
-0.81
-0.81
-0.805
-0.825
-0.82
-0.825
-0.805
-0.815
-0.815
-0.805
-0.815
-0.805
-0.82
-0.815
-0.805
-0.8
-0.805
-0.8
-0.815
-0.805
-0.775
-0.81
-0.825
-0.815
-0.8
-0.795
-0.79
-0.765
-0.78
-0.76
-0.8
-0.795
-0.785
-0.77
-0.775
-0.785
-0.765
-0.77
-0.755
-0.77
-0.74
-0.735
-0.75
-0.74
-0.745
-0.74
-0.73
-0.72
-0.71
-0.69
-0.705
-0.71
-0.715
-0.675
-0.685
-0.695
-0.68
-0.675
-0.675
-0.645
-0.64
-0.65
-0.625
-0.635
-0.655
-0.64
-0.625
-0.66
-0.655
-0.64
-0.645
-0.65
-0.615
-0.61
-0.65
-0.64
-0.635
-0.625
-0.645
-0.645
-0.64
-0.665
-0.675
-0.675
-0.695
-0.685
-0.69
-0.685
-0.685
-0.69
-0.705
-0.72
-0.73
-0.71
-0.74
-0.76
-0.75
-0.735
-0.765
-0.775
-0.765
-0.77
-0.775
-0.77
-0.78
-0.785
-0.785
-0.77
-0.76
-0.8
-0.785
-0.765
-0.79
-0.78
-0.795
-0.78
-0.775
-0.79
-0.78
-0.775
-0.78
-0.77
-0.765
-0.785
-0.795
-0.785
-0.78
-0.795
-0.775
-0.765
-0.75
-0.785
-0.785
-0.78
-0.805
-0.79
-0.79
-0.785
-0.785
-0.785
-0.805
-0.775
-0.785
-0.79
-0.79
-0.785
-0.795
-0.79
-0.785
-0.785
-0.805
-0.785
-0.795
-0.765
-0.775
-0.785
-0.795
-0.775
-0.77
-0.785
-0.795
-0.795
-0.795
-0.8
-0.79
-0.78
-0.795
-0.81
-0.77
-0.78
-0.775
-0.78
-0.795
-0.795
-0.78
-0.775
-0.785
-0.78
-0.78
-0.785
-0.775
-0.8
-0.795
-0.785
-0.775
-0.765
-0.78
-0.775
-0.79
-0.78
-0.795
-0.785
-0.775
-0.79
-0.79
-0.8
-0.8
-0.795
-0.79
-0.785
-0.8
-0.795
-0.78
-0.77
-0.77
-0.79
-0.795
-0.775
-0.78
-0.77
-0.77
-0.79
-0.765
-0.78
-0.8
-0.79
-0.78
-0.8
-0.8
-0.795
-0.8
-0.815
-0.775
-0.775
-0.765
-0.795
-0.785
-0.77
-0.79
-0.785
-0.785
-0.775
-0.8
-0.77
-0.795
-0.795
-0.775
-0.785
-0.785
-0.785
-0.79
-0.8
-0.785
-0.775
-0.8
-0.8
-0.795
-0.795
-0.78
-0.795
-0.785
-0.81
-0.795
-0.785
-0.795
-0.785
-0.8
-0.78
-0.8
-0.805
-0.795
-0.77
-0.79
-0.785
-0.79
-0.775
-0.81
-0.8
-0.79
-0.77
-0.77
-0.79
-0.77
-0.785
-0.785
-0.77
-0.78
-0.77
-0.74
-0.75
-0.76
-0.79
-0.76
-0.76
-0.74
-0.74
-0.745
-0.72
-0.715
-0.715
-0.71
-0.72
-0.715
-0.71
-0.71
-0.745
-0.75
-0.72
-0.715
-0.71
-0.72
-0.74
-0.755
-0.77
-0.77
-0.76
-0.785
-0.78
-0.795
-0.795
-0.79
-0.8
-0.765
-0.775
-0.785
-0.77
-0.795
-0.785
-0.785
-0.785
-0.765
-0.785
-0.815
-0.805
-0.805
-0.8
-0.805
-0.785
-0.805
-0.805
-0.82
-0.805
-0.835
-0.79
-0.795
-0.79
-0.79
-0.795
-0.79
-0.795
-0.815
-0.835
-0.875
-0.895
-0.93
-0.97
-1.02
-1.015
-1.02
-0.97
-0.88
-0.795
-0.64
-0.51
-0.34
-0.155
-0.01
0.13
0.285
0.385
0.38
0.325
0.255
0.16
0.055
-0.015
-0.145
-0.275
-0.385
-0.44
-0.495
-0.53
-0.565
-0.605
-0.64
-0.665
-0.71
-0.73
-0.77
-0.725
-0.725
-0.745
-0.765
-0.77
-0.765
-0.775
-0.77
-0.755
-0.805
-0.805
-0.795
-0.8
-0.79
-0.795
-0.81
-0.775
-0.78
-0.79
-0.805
-0.79
-0.8
-0.81
-0.78
-0.8
-0.805
-0.785
-0.795
-0.79
-0.81
-0.8
-0.77
-0.77
-0.775
-0.775
-0.785
-0.785
-0.78
-0.765
-0.775
-0.775
-0.77
-0.82
-0.775
-0.8
-0.775
-0.78
-0.77
-0.775
-0.785
-0.775
-0.785
-0.745
-0.77
-0.76
-0.74
-0.75
-0.75
-0.75
-0.735
-0.765
-0.74
-0.745
-0.75
-0.76
-0.74
-0.715
-0.735
-0.705
-0.725
-0.725
-0.73
-0.725
-0.725
-0.715
-0.71
-0.695
-0.69
-0.705
-0.695
-0.69
-0.68
-0.665
-0.665
-0.665
-0.665
-0.655
-0.64
-0.63
-0.59
-0.62
-0.635
-0.62
-0.605
-0.6
-0.605
-0.6
-0.605
-0.58
-0.61
-0.58
-0.595
-0.575
-0.605
-0.57
-0.565
-0.585
-0.58
-0.575
-0.595
-0.6
-0.595
-0.595
-0.605
-0.615
-0.615
-0.62
-0.645
-0.635
-0.655
-0.67
-0.665
-0.67
-0.675
-0.675
-0.695
-0.7
-0.69
-0.69
-0.715
-0.72
-0.7
-0.695
-0.725
-0.72
-0.73
-0.755
-0.705
-0.725
-0.745
-0.74
-0.715
-0.73
-0.72
-0.74
-0.75
-0.74
-0.755
-0.71
-0.72
-0.725
-0.745
-0.755
-0.73
-0.74
-0.72
-0.73
-0.74
-0.74
-0.73
-0.755
-0.745
-0.735
-0.73
-0.75
-0.74
-0.72
-0.72
-0.735
-0.74
-0.74
-0.72
-0.73
-0.705
-0.74
-0.72
-0.73
-0.725
-0.735
-0.75
-0.74
-0.74
-0.74
-0.745
-0.735
-0.75
-0.73
-0.735
-0.725
-0.725
-0.735
-0.735
-0.73
-0.745
-0.73
-0.74
-0.715
-0.735
-0.735
-0.75
-0.74
-0.735
-0.75
-0.735
-0.755
-0.745
-0.72
-0.735
-0.73
-0.74
-0.74
-0.71
-0.7
-0.72
-0.72
-0.74
-0.73
-0.745
-0.72
-0.72
-0.71
-0.725
-0.735
-0.75
-0.745
-0.765
-0.745
-0.71
-0.735
-0.71
-0.73
-0.765
-0.745
-0.73
-0.74
-0.73
-0.72
-0.745
-0.745
-0.725
-0.7
-0.765
-0.745
-0.745
-0.715
-0.72
-0.745
-0.735
-0.725
-0.72
-0.715
-0.71
-0.75
-0.73
-0.735
-0.76
-0.725
-0.735
-0.73
-0.725
-0.745
-0.74
-0.73
-0.725
-0.735
-0.74
-0.74
-0.725
-0.735
-0.715
-0.715
-0.725
-0.755
-0.735
-0.74
-0.765
-0.74
-0.74
-0.725
-0.72
-0.72
-0.725
-0.74
-0.735
-0.75
-0.74
-0.74
-0.73
-0.72
-0.745
-0.73
-0.73
-0.75
-0.71
-0.725
-0.715
-0.705
-0.72
-0.72
-0.705
-0.68
-0.705
-0.715
-0.665
-0.715
-0.705
-0.705
-0.705
-0.69
-0.66
-0.68
-0.68
-0.665
-0.66
-0.66
-0.64
-0.645
-0.65
-0.645
-0.665
-0.66
-0.66
-0.645
-0.685
-0.68
-0.66
-0.675
-0.675
-0.68
-0.695
-0.71
-0.715
-0.705
-0.735
-0.7
-0.735
-0.715
-0.71
-0.73
-0.73
-0.72
-0.715
-0.735
-0.73
-0.745
-0.735
-0.73
-0.745
-0.725
-0.745
-0.725
-0.745
-0.72
-0.745
-0.75
-0.71
-0.73
-0.745
-0.73
-0.725
-0.735
-0.73
-0.735
-0.75
-0.76
-0.74
-0.76
-0.795
-0.815
-0.845
-0.885
-0.915
-0.98
-0.96
-0.925
-0.86
-0.765
-0.625
-0.49
-0.34
-0.205
-0.045
0.09
0.23
0.37
0.39
0.335
0.275
0.145
0.08
-0.025
-0.085
-0.25
-0.37
-0.46
-0.475
-0.51
-0.55
-0.605
-0.6
-0.615
-0.66
-0.675
-0.675
-0.665
-0.66
-0.695
-0.68
-0.705
-0.7
-0.7
-0.725
-0.73
-0.695
-0.725
-0.73
-0.73
-0.74
-0.715
-0.715
-0.74
-0.73
-0.74
-0.715
-0.725
-0.74
-0.715
-0.715
-0.725
-0.74
-0.715
-0.74
-0.705
-0.715
-0.72
-0.725
-0.72
-0.72
-0.725
-0.705
-0.705
-0.72
-0.71
-0.72
-0.725
-0.705
-0.69
-0.695
-0.705
-0.73
-0.7
-0.72
-0.725
-0.73
-0.705
-0.715
-0.68
-0.695
-0.68
-0.675
-0.69
-0.69
-0.685
-0.71
-0.67
-0.675
-0.7
-0.69
-0.67
-0.695
-0.665
-0.68
-0.675
-0.68
-0.67
-0.65
-0.655
-0.645
-0.615
-0.65
-0.65
-0.64
-0.67
-0.6
-0.64
-0.59
-0.58
-0.59
-0.61
-0.595
-0.575
-0.58
-0.555
-0.555
-0.555
-0.565
-0.56
-0.55
-0.545
-0.54
-0.55
-0.545
-0.535
-0.505
-0.52
-0.525
-0.52
-0.525
-0.525
-0.525
-0.515
-0.525
-0.535
-0.545
-0.55
-0.54
-0.545
-0.53
-0.55
-0.54
-0.56
-0.58
-0.615
-0.56
-0.585
-0.565
-0.595
-0.595
-0.605
-0.615
-0.625
-0.605
-0.64
-0.635
-0.655
-0.615
-0.635
-0.66
-0.65
-0.675
-0.665
-0.655
-0.66
-0.66
-0.67
-0.655
-0.655
-0.64
-0.655
-0.655
-0.685
-0.68
-0.67
-0.68
-0.705
-0.67
-0.64
-0.655
-0.645
-0.655
-0.655
-0.665
-0.675
-0.665
-0.655
-0.665
-0.675
-0.67
-0.655
-0.645
-0.675
-0.69
-0.67
-0.67
-0.67
-0.65
-0.66
-0.66
-0.65
-0.645
-0.67
-0.66
-0.635
-0.635
-0.65
-0.675
-0.66
-0.65
-0.66
-0.675
-0.68
-0.665
-0.64
-0.655
-0.67
-0.65
-0.655
-0.64
-0.655
-0.635
-0.655
-0.655
-0.645
-0.665
-0.66
-0.62
-0.63
-0.65
-0.675
-0.65
-0.65
-0.655
-0.655
-0.655
-0.62
-0.625
-0.66
-0.63
-0.655
-0.625
-0.655
-0.63
-0.64
-0.625
-0.64
-0.65
-0.665
-0.64
-0.64
-0.63
-0.66
-0.63
-0.65
-0.625
-0.645
-0.63
-0.625
-0.63
-0.615
-0.61
-0.625
-0.65
-0.655
-0.645
-0.645
-0.645
-0.635
-0.63
-0.585
-0.63
-0.63
-0.635
-0.635
-0.65
-0.645
-0.62
-0.635
-0.63
-0.64
-0.645
-0.625
-0.635
-0.635
-0.63
-0.62
-0.63
-0.62
-0.645
-0.64
-0.635
-0.64
-0.62
-0.625
-0.625
-0.635
-0.635
-0.61
-0.63
-0.63
-0.615
-0.62
-0.64
-0.645
-0.65
-0.595
-0.63
-0.635
-0.615
-0.6
-0.63
-0.64
-0.63
-0.625
-0.595
-0.615
-0.615
-0.61
-0.655
-0.615
-0.6
-0.595
-0.595
-0.61
-0.605
-0.595
-0.565
-0.585
-0.605
-0.57
-0.575
-0.56
-0.585
-0.56
-0.57
-0.585
-0.55
-0.54
-0.53
-0.53
-0.52
-0.57
-0.57
-0.55
-0.555
-0.535
-0.54
-0.57
-0.56
-0.54
-0.57
-0.595
-0.585
-0.605
-0.605
-0.6
-0.6
-0.605
-0.61
-0.62
-0.625
-0.615
-0.61
-0.62
-0.61
-0.605
-0.615
-0.605
-0.605
-0.595
-0.615
-0.615
-0.605
-0.615
-0.62
-0.61
-0.605
-0.605
-0.63
-0.61
-0.615
-0.625
-0.63
-0.635
-0.625
-0.63
-0.635
-0.585
-0.62
-0.62
-0.64
-0.68
-0.725
-0.735
-0.745
-0.79
-0.84
-0.81
-0.79
-0.75
-0.665
-0.54
-0.375
-0.22
-0.105
0.025
0.165
0.33
0.395
0.44
0.41
0.345
0.27
0.205
0.14
0.03
-0.16
-0.23
-0.275
-0.345
-0.39
-0.41
-0.445
-0.5
-0.505
-0.525
-0.555
-0.545
-0.56
-0.56
-0.555
-0.585
-0.575
-0.595
-0.61
-0.6
-0.575
-0.59
-0.6
-0.61
-0.6
-0.605
-0.615
-0.605
-0.635
-0.59
-0.605
-0.6
-0.595
-0.58
-0.615
-0.605
-0.6
-0.595
-0.59
-0.61
-0.605
-0.595
-0.595
-0.62
-0.61
-0.6
-0.595
-0.605
-0.6
-0.605
-0.575
-0.585
-0.59
-0.575
-0.585
-0.58
-0.605
-0.595
-0.57
-0.58
-0.59
-0.585
-0.595
-0.59
-0.565
-0.575
-0.59
-0.56
-0.565
-0.565
-0.565
-0.575
-0.565
-0.545
-0.565
-0.56
-0.555
-0.565
-0.555
-0.555
-0.54
-0.545
-0.545
-0.55
-0.56
-0.53
-0.535
-0.54
-0.515
-0.515
-0.515
-0.525
-0.52
-0.49
-0.51
-0.48
-0.455
-0.46
-0.475
-0.475
-0.47
-0.43
-0.415
-0.455
-0.445
-0.44
-0.425
-0.425
-0.415
-0.415
-0.41
-0.425
-0.415
-0.405
-0.415
-0.4
-0.43
-0.415
-0.405
-0.4
-0.405
-0.44
-0.435
-0.44
-0.425
-0.43
-0.44
-0.43
-0.445
-0.455
-0.46
-0.455
-0.495
-0.48
-0.48
-0.485
-0.515
-0.505
-0.515
-0.505
-0.54
-0.525
-0.515
-0.51
-0.52
-0.52
-0.545
-0.545
-0.53
-0.55
-0.555
-0.55
-0.55
-0.565
-0.545
-0.555
-0.565
-0.57
-0.55
-0.55
-0.56
-0.55
-0.57
-0.56
-0.545
-0.565
-0.57
-0.575
-0.56
-0.53
-0.555
-0.555
-0.555
-0.56
-0.55
-0.565
-0.575
-0.53
-0.575
-0.575
-0.56
-0.545
-0.525
-0.545
-0.545
-0.54
-0.535
-0.53
-0.555
-0.565
-0.54
-0.53
-0.57
-0.545
-0.56
-0.56
-0.555
-0.545
-0.545
-0.54
-0.55
-0.555
-0.545
-0.555
-0.555
-0.565
-0.545
-0.56
-0.55
-0.555
-0.535
-0.535
-0.54
-0.57
-0.565
-0.56
-0.535
-0.535
-0.54
-0.555
-0.54
-0.55
-0.545
-0.55
-0.545
-0.55
-0.555
-0.55
-0.545
-0.555
-0.55
-0.565
-0.56
-0.54
-0.54
-0.54
-0.535
-0.53
-0.535
-0.54
-0.535
-0.545
-0.53
-0.525
-0.525
-0.545
-0.51
-0.53
-0.55
-0.54
-0.54
-0.52
-0.535
-0.555
-0.545
-0.57
-0.545
-0.53
-0.535
-0.535
-0.54
-0.535
-0.55
-0.535
-0.53
-0.535
-0.54
-0.535
-0.545
-0.54
-0.54
-0.535
-0.535
-0.555
-0.55
-0.545
-0.55
-0.55
-0.535
-0.52
-0.53
-0.555
-0.55
-0.525
-0.545
-0.55
-0.56
-0.54
-0.55
-0.54
-0.525
-0.53
-0.55
-0.57
-0.56
-0.55
-0.56
-0.59
-0.51
-0.535
-0.59
-0.55
-0.56
-0.545
-0.535
-0.53
-0.54
-0.545
-0.55
-0.535
-0.545
-0.55
-0.535
-0.555
-0.565
-0.535
-0.515
-0.52
-0.525
-0.515
-0.5
-0.495
-0.5
-0.53
-0.515
-0.515
-0.495
-0.5
-0.49
-0.465
-0.46
-0.465
-0.485
-0.48
-0.475
-0.515
-0.475
-0.475
-0.48
-0.485
-0.505
-0.48
-0.505
-0.505
-0.5
-0.505
-0.51
-0.52
-0.525
-0.525
-0.55
-0.535
-0.55
-0.545
-0.56
-0.55
-0.56
-0.565
-0.535
-0.58
-0.56
-0.525
-0.58
-0.57
-0.58
-0.555
-0.545
-0.555
-0.55
-0.565
-0.555
-0.55
-0.56
-0.575
-0.575
-0.58
-0.565
-0.56
-0.58
-0.575
-0.56
-0.565
-0.59
-0.58
-0.585
-0.595
-0.615
-0.65
-0.715
-0.745
-0.8
-0.79
-0.77
-0.715
-0.64
-0.535
-0.365
-0.18
-0.01
0.11
0.29
0.445
0.535
0.61
0.62
0.525
0.48
0.39
0.295
0.2
0.065
-0.09
-0.19
-0.25
-0.295
-0.34
-0.37
-0.395
-0.445
-0.46
-0.48
-0.475
-0.48
-0.515
-0.52
-0.535
-0.52
-0.53
-0.51
-0.56
-0.56
-0.545
-0.555
-0.565
-0.565
-0.55
-0.56
-0.56
-0.545
-0.555
-0.555
-0.56
-0.545
-0.555
-0.55
-0.525
-0.55
-0.55
-0.57
-0.575
-0.555
-0.565
-0.585
-0.56
-0.54
-0.54
-0.55
-0.53
-0.56
-0.535
-0.53
-0.52
-0.545
-0.54
-0.54
-0.53
-0.555
-0.545
-0.525
-0.545
-0.535
-0.54
-0.545
-0.545
-0.53
-0.54
-0.535
-0.545
-0.505
-0.515
-0.55
-0.515
-0.515
-0.525
-0.515
-0.515
-0.525
-0.51
-0.49
-0.505
-0.525
-0.5
-0.49
-0.485
-0.48
-0.475
-0.465
-0.485
-0.475
-0.47
-0.465
-0.46
-0.455
-0.45
-0.45
-0.43
-0.435
-0.43
-0.41
-0.41
-0.425
-0.405
-0.39
-0.4
-0.415
-0.405
-0.39
-0.38
-0.36
-0.37
-0.365
-0.35
-0.375
-0.37
-0.37
-0.355
-0.35
-0.37
-0.355
-0.335
-0.36
-0.365
-0.36
-0.385
-0.39
-0.385
-0.39
-0.39
-0.42
-0.405
-0.41
-0.415
-0.41
-0.43
-0.425
-0.435
-0.435
-0.475
-0.46
-0.465
-0.475
-0.475
-0.465
-0.49
-0.485
-0.485
-0.5
-0.505
-0.5
-0.5
-0.495
-0.505
-0.5
-0.495
-0.515
-0.505
-0.5
-0.52
-0.5
-0.5
-0.5
-0.5
-0.515
-0.51
-0.51
-0.505
-0.495
-0.515
-0.505
-0.495
-0.54
-0.52
-0.51
-0.525
-0.47
-0.495
-0.505
-0.5
-0.51
-0.525
-0.52
-0.495
-0.51
-0.505
-0.495
-0.525
-0.505
-0.52
-0.51
-0.49
-0.48
-0.505
-0.51
-0.545
-0.515
-0.525
-0.5
-0.49
-0.5
-0.505
-0.5
-0.485
-0.52
-0.525
-0.5
-0.48
-0.51
-0.51
-0.485
-0.51
-0.515
-0.535
-0.515
-0.5
-0.475
-0.49
-0.49
-0.485
-0.505
-0.5
-0.485
-0.515
-0.505
-0.5
-0.49
-0.505
-0.5
-0.49
-0.49
-0.495
-0.51
-0.505
-0.495
-0.505
-0.49
-0.5
-0.48
-0.48
-0.495
-0.495
-0.485
-0.51
-0.475
-0.495
-0.515
-0.495
-0.47
-0.495
-0.495
-0.49
-0.495
-0.5
-0.52
-0.475
-0.495
-0.5
-0.5
-0.5
-0.505
-0.485
-0.485
-0.505
-0.49
-0.49
-0.48
-0.48
-0.48
-0.51
-0.495
-0.49
-0.495
-0.5
-0.495
-0.485
-0.5
-0.49
-0.48
-0.495
-0.525
-0.505
-0.465
-0.495
-0.485
-0.48
-0.485
-0.52
-0.505
-0.51
-0.52
-0.52
-0.515
-0.5
-0.5
-0.495
-0.495
-0.51
-0.495
-0.44
-0.49
-0.5
-0.49
-0.485
-0.495
-0.49
-0.5
-0.495
-0.505
-0.505
-0.51
-0.53
-0.5
-0.49
-0.495
-0.495
-0.49
-0.48
-0.475
-0.5
-0.49
-0.485
-0.495
-0.5
-0.495
-0.485
-0.47
-0.45
-0.47
-0.485
-0.465
-0.455
-0.46
-0.47
-0.455
-0.485
-0.465
-0.455
-0.465
-0.435
-0.465
-0.45
-0.43
-0.42
-0.415
-0.42
-0.415
-0.425
-0.435
-0.44
-0.43
-0.41
-0.43
-0.415
-0.435
-0.425
-0.44
-0.475
-0.485
-0.45
-0.45
-0.46
-0.47
-0.475
-0.485
-0.51
-0.465
-0.455
-0.495
-0.5
-0.48
-0.505
-0.505
-0.495
-0.49
-0.485
-0.48
-0.495
-0.53
-0.52
-0.495
-0.5
-0.5
-0.5
-0.5
-0.495
-0.515
-0.46
-0.475
-0.49
-0.51
-0.52
-0.52
-0.505
-0.495
-0.52
-0.515
-0.52
-0.56
-0.595
-0.65
-0.67
-0.69
-0.74
-0.735
-0.7
-0.625
-0.525
-0.415
-0.25
-0.07
0.1
0.25
0.39
0.57
0.705
0.7
0.665
0.57
0.505
0.42
0.33
0.23
0.06
-0.035
-0.115
-0.165
-0.195
-0.25
-0.295
-0.32
-0.355
-0.38
-0.375
-0.39
-0.415
-0.41
-0.415
-0.425
-0.39
-0.385
-0.425
-0.435
-0.445
-0.425
-0.385
-0.41
-0.44
-0.455
-0.45
-0.44
-0.43
-0.43
-0.435
-0.44
-0.44
-0.435
-0.465
-0.45
-0.415
-0.43
-0.41
-0.425
-0.425
-0.43
-0.43
-0.41
-0.44
-0.415
-0.425
-0.4
-0.415
-0.43
-0.43
-0.415
-0.44
-0.425
-0.435
-0.415
-0.43
-0.425
-0.42
-0.42
-0.425
-0.415
-0.405
-0.405
-0.395
-0.42
-0.405
-0.41
-0.41
-0.43
-0.41
-0.375
-0.41
-0.385
-0.38
-0.405
-0.42
-0.395
-0.37
-0.375
-0.37
-0.375
-0.36
-0.36
-0.365
-0.38
-0.37
-0.37
-0.34
-0.325
-0.335
-0.33
-0.355
-0.32
-0.3
-0.305
-0.29
-0.31
-0.31
-0.32
-0.27
-0.29
-0.275
-0.275
-0.265
-0.28
-0.25
-0.23
-0.23
-0.25
-0.255
-0.245
-0.25
-0.24
-0.25
-0.215
-0.215
-0.225
-0.25
-0.25
-0.235
-0.235
-0.205
-0.24
-0.275
-0.265
-0.28
-0.27
-0.275
-0.28
-0.275
-0.29
-0.32
-0.295
-0.325
-0.325
-0.325
-0.33
-0.335
-0.37
-0.375
-0.375
-0.355
-0.375
-0.355
-0.355
-0.35
-0.375
-0.38
-0.36
-0.385
-0.395
-0.395
-0.38
-0.38
-0.385
-0.405
-0.395
-0.385
-0.395
-0.38
-0.385
-0.4
-0.39
-0.38
-0.395
-0.405
-0.415
-0.4
-0.39
-0.375
-0.4
-0.365
-0.4
-0.395
-0.36
-0.375
-0.375
-0.405
-0.41
-0.405
-0.41
-0.415
-0.395
-0.395
-0.385
-0.39
-0.375
-0.38
-0.38
-0.4
-0.39
-0.405
-0.405
-0.41
-0.39
-0.395
-0.4
-0.395
-0.4
-0.39
-0.39
-0.385
-0.38
-0.38
-0.39
-0.39
-0.385
-0.405
-0.405
-0.385
-0.39
-0.41
-0.415
-0.41
-0.4
-0.39
-0.375
-0.4
-0.395
-0.4
-0.365
-0.38
-0.385
-0.405
-0.395
-0.39
-0.395
-0.395
-0.4
-0.4
-0.385
-0.39
-0.395
-0.395
-0.405
-0.36
-0.4
-0.415
-0.4
-0.385
-0.385
-0.385
-0.375
-0.39
-0.4
-0.395
-0.4
-0.4
-0.405
-0.41
-0.39
-0.41
-0.415
-0.38
-0.415
-0.4
-0.4
-0.395
-0.375
-0.4
-0.405
-0.39
-0.395
-0.395
-0.395
-0.405
-0.395
-0.405
-0.405
-0.385
-0.4
-0.4
-0.4
-0.405
-0.425
-0.42
-0.4
-0.425
-0.385
-0.39
-0.395
-0.385
-0.41
-0.41
-0.41
-0.41
-0.425
-0.395
-0.415
-0.4
-0.4
-0.385
-0.405
-0.385
-0.405
-0.42
-0.415
-0.4
-0.415
-0.405
-0.4
-0.405
-0.405
-0.41
-0.415
-0.39
-0.405
-0.41
-0.415
-0.41
-0.41
-0.42
-0.415
-0.395
-0.405
-0.4
-0.42
-0.375
-0.44
-0.395
-0.41
-0.395
-0.42
-0.425
-0.425
-0.405
-0.395
-0.4
-0.405
-0.405
-0.385
-0.385
-0.375
-0.365
-0.38
-0.38
-0.4
-0.38
-0.375
-0.37
-0.355
-0.37
-0.385
-0.355
-0.355
-0.345
-0.33
-0.325
-0.325
-0.33
-0.33
-0.33
-0.31
-0.345
-0.36
-0.365
-0.36
-0.34
-0.34
-0.345
-0.355
-0.395
-0.38
-0.405
-0.4
-0.39
-0.39
-0.385
-0.38
-0.385
-0.4
-0.375
-0.415
-0.41
-0.405
-0.415
-0.415
-0.42
-0.43
-0.39
-0.41
-0.415
-0.4
-0.4
-0.43
-0.41
-0.41
-0.42
-0.42
-0.42
-0.41
-0.43
-0.415
-0.42
-0.435
-0.425
-0.415
-0.425
-0.44
-0.435
-0.43
-0.49
-0.51
-0.525
-0.58
-0.6
-0.635
-0.63
-0.62
-0.575
-0.505
-0.34
-0.195
-0.045
0.105
0.315
0.47
0.63
0.74
0.81
0.765
0.66
0.62
0.505
0.425
0.325
0.19
0.035
-0.045
-0.095
-0.16
-0.18
-0.215
-0.265
-0.29
-0.34
-0.345
-0.345
-0.365
-0.38
-0.38
-0.415
-0.395
-0.425
-0.415
-0.39
-0.44
-0.415
-0.43
-0.42
-0.425
-0.405
-0.435
-0.43
-0.42
-0.425
-0.415
-0.425
-0.435
-0.415
-0.435
-0.405
-0.42
-0.43
-0.42
-0.425
-0.435
-0.44
-0.435
-0.415
-0.415
-0.415
-0.425
-0.43
-0.43
-0.425
-0.42
-0.415
-0.405
-0.425
-0.41
-0.41
-0.405
-0.415
-0.415
-0.415
-0.43
-0.415
-0.4
-0.405
-0.415
-0.43
-0.405
-0.395
-0.41
-0.405
-0.415
-0.4
-0.385
-0.4
-0.4
-0.405
-0.38
-0.4
-0.395
-0.395
-0.38
-0.38
-0.35
-0.39
-0.37
-0.385
-0.37
-0.345
-0.345
-0.36
-0.335
-0.34
-0.33
-0.335
-0.32
-0.31
-0.32
-0.31
-0.305
-0.32
-0.28
-0.29
-0.285
-0.265
-0.275
-0.265
-0.245
-0.265
-0.26
-0.25
-0.25
-0.25
-0.24
-0.23
-0.25
-0.215
-0.23
-0.235
-0.25
-0.24
-0.235
-0.25
-0.24
-0.245
-0.24
-0.26
-0.285
-0.265
-0.295
-0.265
-0.285
-0.29
-0.285
-0.29
-0.31
-0.325
-0.32
-0.31
-0.32
-0.345
-0.35
-0.345
-0.345
-0.35
-0.365
-0.345
-0.36
-0.38
-0.4
-0.38
-0.385
-0.39
-0.4
-0.385
-0.37
-0.375
-0.375
-0.39
-0.39
-0.39
-0.385
-0.375
-0.385
-0.4
-0.39
-0.375
-0.395
-0.39
-0.385
-0.39
-0.395
-0.37
-0.375
-0.4
-0.39
-0.39
-0.39
-0.39
-0.4
-0.38
-0.4
-0.39
-0.41
-0.415
-0.375
-0.395
-0.4
-0.38
-0.395
-0.375
-0.36
-0.375
-0.395
-0.395
-0.395
-0.415
-0.405
-0.395
-0.39
-0.39
-0.38
-0.375
-0.38
-0.37
-0.37
-0.395
-0.4
-0.395
-0.395
-0.375
-0.365
-0.39
-0.36
-0.39
-0.385
-0.385
-0.39
-0.38
-0.385
-0.395
-0.375
-0.405
-0.42
-0.39
-0.4
-0.39
-0.37
-0.39
-0.395
-0.385
-0.385
-0.375
-0.37
-0.38
-0.385
-0.385
-0.395
-0.385
-0.405
-0.375
-0.39
-0.375
-0.365
-0.38
-0.39
-0.38
-0.38
-0.405
-0.395
-0.395
-0.37
-0.36
-0.395
-0.42
-0.395
-0.38
-0.37
-0.375
-0.375
-0.385
-0.4
-0.385
-0.38
-0.395
-0.39
-0.395
-0.385
-0.39
-0.41
-0.39
-0.395
-0.38
-0.39
-0.375
-0.39
-0.375
-0.385
-0.395
-0.395
-0.39
-0.395
-0.4
-0.37
-0.415
-0.415
-0.365
-0.37
-0.4
-0.415
-0.405
-0.38
-0.375
-0.385
-0.385
-0.38
-0.38
-0.4
-0.385
-0.41
-0.385
-0.385
-0.395
-0.385
-0.375
-0.375
-0.385
-0.385
-0.395
-0.36
-0.405
-0.4
-0.38
-0.38
-0.4
-0.39
-0.395
-0.39
-0.385
-0.385
-0.385
-0.375
-0.385
-0.37
-0.4
-0.41
-0.36
-0.405
-0.395
-0.38
-0.395
-0.39
-0.365
-0.36
-0.345
-0.35
-0.345
-0.365
-0.355
-0.335
-0.325
-0.34
-0.35
-0.345
-0.335
-0.335
-0.325
-0.325
-0.31
-0.315
-0.325
-0.27
-0.29
-0.325
-0.315
-0.32
-0.32
-0.33
-0.33
-0.32
-0.305
-0.315
-0.325
-0.36
-0.37
-0.375
-0.37
-0.365
-0.36
-0.355
-0.365
-0.375
-0.4
-0.38
-0.365
-0.37
-0.38
-0.36
-0.395
-0.41
-0.375
-0.4
-0.375
-0.4
-0.415
-0.39
-0.41
-0.41
-0.4
-0.4
-0.4
-0.43
-0.415
-0.425
-0.415
-0.395
-0.4
-0.42
-0.415
-0.41
-0.415
-0.42
-0.435
-0.48
-0.5
-0.535
-0.575
-0.595
-0.625
-0.62
-0.59
-0.535
-0.44
-0.275
-0.12
0.06
0.205
0.385
0.54
0.705
0.8
0.795
0.735
0.69
0.64
0.51
0.415
0.295
0.145
0.035
-0.06
-0.08
-0.135
-0.14
-0.22
-0.26
-0.295
-0.32
-0.325
-0.36
-0.355
-0.355
-0.355
-0.37
-0.38
-0.385
-0.38
-0.405
-0.41
-0.42
-0.39
-0.405
-0.39
-0.39
-0.405
-0.425
-0.4
-0.42
-0.4
-0.415
-0.425
-0.42
-0.415
-0.41
-0.43
-0.42
-0.42
-0.415
-0.41
-0.4
-0.4
-0.405
-0.42
-0.39
-0.37
-0.42
-0.415
-0.41
-0.415
-0.42
-0.43
-0.4
-0.41
-0.41
-0.385
-0.395
-0.39
-0.395
-0.405
-0.415
-0.38
-0.385
-0.41
-0.385
-0.385
-0.395
-0.395
-0.395
-0.4
-0.39
-0.37
-0.375
-0.385
-0.375
-0.36
-0.355
-0.38
-0.375
-0.35
-0.35
-0.365
-0.375
-0.355
-0.335
-0.345
-0.355
-0.335
-0.345
-0.325
-0.305
-0.29
-0.32
-0.305
-0.305
-0.305
-0.27
-0.27
-0.275
-0.26
-0.26
-0.255
-0.245
-0.25
-0.255
-0.245
-0.235
-0.23
-0.225
-0.2
-0.235
-0.205
-0.215
-0.22
-0.22
-0.225
-0.215
-0.19
-0.225
-0.205
-0.22
-0.22
-0.235
-0.23
-0.255
-0.24
-0.27
-0.255
-0.265
-0.225
-0.255
-0.275
-0.295
-0.295
-0.3
-0.31
-0.31
-0.315
-0.33
-0.325
-0.305
-0.35
-0.355
-0.33
-0.33
-0.34
-0.34
-0.35
-0.355
-0.385
-0.385
-0.37
-0.355
-0.37
-0.385
-0.37
-0.36
-0.35
-0.39
-0.375
-0.36
-0.36
-0.36
-0.37
-0.38
-0.37
-0.37
-0.37
-0.36
-0.365
-0.35
-0.36
-0.35
-0.37
-0.37
-0.355
-0.365
-0.36
-0.39
-0.37
-0.365
-0.385
-0.38
-0.37
-0.375
-0.365
-0.365
-0.37
-0.365
-0.385
-0.34
-0.375
-0.385
-0.36
-0.365
-0.335
-0.355
-0.37
-0.365
-0.36
-0.355
-0.375
-0.36
-0.375
-0.4
-0.38
-0.36
-0.35
-0.39
-0.365
-0.385
-0.365
-0.36
-0.365
-0.35
-0.375
-0.37
-0.355
-0.365
-0.36
-0.38
-0.375
-0.37
-0.38
-0.365
-0.37
-0.355
-0.36
-0.355
-0.365
-0.375
-0.37
-0.35
-0.36
-0.345
-0.385
-0.375
-0.39
-0.36
-0.36
-0.37
-0.355
-0.365
-0.36
-0.36
-0.335
-0.36
-0.375
-0.38
-0.385
-0.37
-0.33
-0.36
-0.36
-0.355
-0.38
-0.36
-0.37
-0.375
-0.375
-0.39
-0.375
-0.375
-0.37
-0.365
-0.375
-0.365
-0.37
-0.375
-0.375
-0.345
-0.365
-0.37
-0.345
-0.375
-0.385
-0.385
-0.36
-0.39
-0.365
-0.365
-0.34
-0.375
-0.365
-0.355
-0.4
-0.4
-0.38
-0.355
-0.395
-0.36
-0.37
-0.37
-0.38
-0.39
-0.37
-0.38
-0.355
-0.38
-0.385
-0.375
-0.4
-0.4
-0.395
-0.37
-0.375
-0.375
-0.38
-0.38
-0.395
-0.36
-0.35
-0.375
-0.385
-0.375
-0.37
-0.38
-0.38
-0.385
-0.36
-0.37
-0.37
-0.36
-0.355
-0.345
-0.36
-0.36
-0.34
-0.345
-0.365
-0.36
-0.325
-0.32
-0.36
-0.365
-0.335
-0.345
-0.35
-0.335
-0.31
-0.315
-0.29
-0.28
-0.305
-0.3
-0.29
-0.305
-0.325
-0.305
-0.29
-0.3
-0.3
-0.31
-0.3
-0.32
-0.33
-0.355
-0.35
-0.375
-0.36
-0.355
-0.36
-0.375
-0.37
-0.36
-0.385
-0.395
-0.38
-0.38
-0.39
-0.39
-0.395
-0.35
-0.345
-0.38
-0.39
-0.395
-0.395
-0.38
-0.365
-0.38
-0.37
-0.38
-0.37
-0.34
-0.4
-0.415
-0.39
-0.395
-0.395
-0.39
-0.39
-0.4
-0.415
-0.43
-0.45
-0.495
-0.52
-0.57
-0.595
-0.58
-0.59
-0.58
-0.515
-0.395
-0.25
-0.09
0.105
0.27
0.405
0.525
0.685
0.76
0.775
0.68
0.62
0.565
0.46
0.365
0.24
0.11
0.005
-0.105
-0.135
-0.15
-0.195
-0.22
-0.24
-0.27
-0.31
-0.325
-0.33
-0.36
-0.35
-0.355
-0.365
-0.33
-0.37
-0.37
-0.375
-0.365
-0.4
-0.365
-0.395
-0.395
-0.395
-0.385
-0.39
-0.415
-0.39
-0.37
-0.36
-0.375
-0.405
-0.395
-0.4
-0.4
-0.395
-0.39
-0.39
-0.38
-0.395
-0.38
-0.365
-0.37
-0.37
-0.395
-0.365
-0.365
-0.365
-0.375
-0.385
-0.385
-0.385
-0.37
-0.385
-0.375
-0.375
-0.365
-0.37
-0.37
-0.35
-0.35
-0.38
-0.36
-0.375
-0.355
-0.335
-0.34
-0.34
-0.37
-0.35
-0.35
-0.365
-0.36
-0.35
-0.335
-0.365
-0.33
-0.35
-0.315
-0.335
-0.355
-0.33
-0.335
-0.31
-0.305
-0.29
-0.295
-0.31
-0.315
-0.265
-0.265
-0.265
-0.275
-0.26
-0.24
-0.235
-0.25
-0.25
-0.275
-0.225
-0.24
-0.225
-0.205
-0.205
-0.22
-0.21
-0.185
-0.18
-0.185
-0.19
-0.185
-0.19
-0.195
-0.2
-0.16
-0.2
-0.205
-0.18
-0.165
-0.175
-0.19
-0.185
-0.195
-0.21
-0.185
-0.23
-0.225
-0.225
-0.25
-0.245
-0.235
-0.235
-0.285
-0.27
-0.295
-0.275
-0.3
-0.295
-0.305
-0.3
-0.29
-0.295
-0.325
-0.345
-0.325
-0.33
-0.325
-0.33
-0.335
-0.35
-0.325
-0.355
-0.34
-0.33
-0.35
-0.355
-0.34
-0.355
-0.335
-0.325
-0.35
-0.35
-0.365
-0.335
-0.335
-0.325
-0.34
-0.355
-0.34
-0.355
-0.345
-0.34
-0.325
-0.35
-0.345
-0.325
-0.345
-0.34
-0.335
-0.325
-0.335
-0.325
-0.345
-0.345
-0.35
-0.35
-0.345
-0.325
-0.35
-0.345
-0.36
-0.335
-0.325
-0.32
-0.35
-0.37
-0.35
-0.355
-0.355
-0.36
-0.32
-0.34
-0.35
-0.335
-0.34
-0.345
-0.365
-0.345
-0.31
-0.335
-0.335
-0.325
-0.325
-0.36
-0.365
-0.345
-0.33
-0.315
-0.35
-0.32
-0.345
-0.335
-0.33
-0.335
-0.335
-0.34
-0.33
-0.355
-0.345
-0.34
-0.32
-0.325
-0.325
-0.335
-0.33
-0.35
-0.35
-0.325
-0.32
-0.31
-0.335
-0.34
-0.33
-0.32
-0.335
-0.345
-0.335
-0.34
-0.335
-0.36
-0.365
-0.335
-0.345
-0.32
-0.325
-0.33
-0.345
-0.37
-0.335
-0.315
-0.33
-0.365
-0.34
-0.335
-0.345
-0.355
-0.34
-0.305
-0.34
-0.33
-0.34
-0.345
-0.35
-0.345
-0.335
-0.355
-0.35
-0.34
-0.345
-0.32
-0.34
-0.35
-0.355
-0.34
-0.35
-0.335
-0.35
-0.365
-0.34
-0.325
-0.32
-0.345
-0.325
-0.325
-0.325
-0.315
-0.31
-0.38
-0.36
-0.33
-0.33
-0.325
-0.34
-0.37
-0.33
-0.325
-0.345
-0.36
-0.345
-0.335
-0.335
-0.34
-0.325
-0.32
-0.325
-0.335
-0.325
-0.325
-0.315
-0.325
-0.325
-0.33
-0.315
-0.315
-0.31
-0.31
-0.305
-0.315
-0.29
-0.29
-0.31
-0.29
-0.31
-0.295
-0.29
-0.255
-0.245
-0.25
-0.25
-0.265
-0.27
-0.26
-0.265
-0.28
-0.26
-0.255
-0.285
-0.28
-0.275
-0.29
-0.305
-0.35
-0.335
-0.335
-0.325
-0.33
-0.33
-0.355
-0.335
-0.345
-0.345
-0.33
-0.32
-0.34
-0.35
-0.34
-0.35
-0.34
-0.35
-0.32
-0.355
-0.345
-0.35
-0.33
-0.345
-0.335
-0.335
-0.345
-0.35
-0.35
-0.345
-0.34
-0.34
-0.365
-0.33
-0.33
-0.37
-0.35
-0.355
-0.39
-0.4
-0.445
-0.45
-0.475
-0.53
-0.565
-0.54
-0.525
-0.48
-0.395
-0.245
-0.075
0.08
0.18
0.355
0.465
0.62
0.695
0.71
0.67
0.605
0.53
0.43
0.39
0.27
0.125
0.02
-0.07
-0.075
-0.125
-0.155
-0.185
-0.21
-0.255
-0.26
-0.285
-0.285
-0.305
-0.31
-0.33
-0.345
-0.3
-0.31
-0.305
-0.325
-0.355
-0.355
-0.325
-0.33
-0.345
-0.365
-0.345
-0.35
-0.37
-0.335
-0.35
-0.36
-0.37
-0.365
-0.395
-0.375
-0.36
-0.35
-0.335
-0.355
-0.385
-0.375
-0.37
-0.38
-0.375
-0.36
-0.365
-0.38
-0.365
-0.35
-0.355
-0.38
-0.36
-0.35
-0.355
-0.365
-0.38
-0.365
-0.355
-0.365
-0.365
-0.355
-0.38
-0.36
-0.35
-0.335
-0.34
-0.345
-0.36
-0.35
-0.355
-0.35
-0.34
-0.32
-0.365
-0.355
-0.33
-0.33
-0.325
-0.335
-0.325
-0.32
-0.31
-0.305
-0.33
-0.3
-0.295
-0.33
-0.315
-0.295
-0.29
-0.28
-0.255
-0.28
-0.27
-0.26
-0.245
-0.25
-0.235
-0.24
-0.22
-0.235
-0.21
-0.215
-0.21
-0.2
-0.205
-0.21
-0.215
-0.195
-0.175
-0.175
-0.185
-0.185
-0.195
-0.185
-0.175
-0.165
-0.175
-0.18
-0.175
-0.2
-0.2
-0.2
-0.21
-0.22
-0.205
-0.21
-0.22
-0.235
-0.25
-0.225
-0.255
-0.25
-0.29
-0.29
-0.28
-0.265
-0.285
-0.295
-0.335
-0.305
-0.31
-0.32
-0.32
-0.325
-0.31
-0.31
-0.31
-0.3
-0.315
-0.34
-0.35
-0.345
-0.33
-0.345
-0.33
-0.305
-0.31
-0.315
-0.33
-0.335
-0.335
-0.33
-0.335
-0.34
-0.325
-0.33
-0.34
-0.36
-0.34
-0.335
-0.345
-0.35
-0.35
-0.335
-0.335
-0.345
-0.34
-0.35
-0.345
-0.34
-0.34
-0.33
-0.345
-0.34
-0.335
-0.325
-0.355
-0.345
-0.34
-0.34
-0.345
-0.355
-0.36
-0.35
-0.38
-0.345
-0.35
-0.34
-0.345
-0.34
-0.325
-0.34
-0.34
-0.345
-0.34
-0.33
-0.335
-0.345
-0.335
-0.33
-0.335
-0.365
-0.36
-0.34
-0.34
-0.315
-0.34
-0.335
-0.36
-0.34
-0.345
-0.35
-0.36
-0.365
-0.35
-0.34
-0.32
-0.325
-0.32
-0.335
-0.345
-0.35
-0.345
-0.345
-0.355
-0.35
-0.36
-0.355
-0.36
-0.35
-0.32
-0.315
-0.315
-0.335
-0.34
-0.35
-0.335
-0.335
-0.33
-0.35
-0.365
-0.345
-0.345
-0.335
-0.325
-0.33
-0.345
-0.325
-0.32
-0.35
-0.35
-0.35
-0.33
-0.34
-0.355
-0.33
-0.33
-0.335
-0.335
-0.325
-0.345
-0.345
-0.35
-0.335
-0.335
-0.32
-0.325
-0.34
-0.33
-0.345
-0.375
-0.35
-0.31
-0.325
-0.33
-0.355
-0.335
-0.345
-0.33
-0.34
-0.345
-0.37
-0.365
-0.32
-0.32
-0.34
-0.35
-0.3
-0.305
-0.335
-0.345
-0.35
-0.345
-0.355
-0.36
-0.345
-0.345
-0.35
-0.32
-0.345
-0.305
-0.33
-0.34
-0.32
-0.325
-0.33
-0.33
-0.345
-0.33
-0.325
-0.34
-0.335
-0.34
-0.31
-0.32
-0.3
-0.28
-0.295
-0.315
-0.335
-0.315
-0.29
-0.255
-0.27
-0.275
-0.27
-0.265
-0.255
-0.255
-0.24
-0.28
-0.285
-0.275
-0.26
-0.29
-0.26
-0.27
-0.285
-0.29
-0.29
-0.325
-0.325
-0.35
-0.315
-0.32
-0.325
-0.325
-0.32
-0.34
-0.335
-0.34
-0.34
-0.335
-0.35
-0.34
-0.345
-0.34
-0.335
-0.335
-0.36
-0.365
-0.34
-0.33
-0.36
-0.335
-0.325
-0.315
-0.35
-0.33
-0.335
-0.345
-0.33
-0.335
-0.335
-0.325
-0.355
-0.325
-0.36
-0.325
-0.35
-0.365
-0.4
-0.44
-0.5
-0.51
-0.535
-0.56
-0.535
-0.475
-0.405
-0.265
-0.095
0.07
0.205
0.37
0.525
0.66
0.785
0.855
0.82
0.73
0.675
0.595
0.5
0.43
0.27
0.155
0.04
-0.02
-0.035
-0.075
-0.135
-0.165
-0.185
-0.24
-0.25
-0.24
-0.27
-0.27
-0.305
-0.33
-0.335
-0.29
-0.265
-0.325
-0.315
-0.33
-0.33
-0.325
-0.315
-0.34
-0.325
-0.325
-0.31
-0.32
-0.32
-0.35
-0.33
-0.33
-0.34
-0.335
-0.345
-0.335
-0.32
-0.325
-0.32
-0.325
-0.34
-0.315
-0.32
-0.32
-0.31
-0.33
-0.31
-0.345
-0.305
-0.325
-0.32
-0.32
-0.31
-0.32
-0.31
-0.325
-0.34
-0.325
-0.305
-0.32
-0.31
-0.305
-0.32
-0.295
-0.285
-0.32
-0.315
-0.305
-0.32
-0.315
-0.3
-0.315
-0.33
-0.34
-0.315
-0.325
-0.315
-0.255
-0.275
-0.29
-0.27
-0.275
-0.275
-0.275
-0.27
-0.265
-0.26
-0.26
-0.265
-0.25
-0.235
-0.245
-0.24
-0.225
-0.22
-0.24
-0.215
-0.175
-0.18
-0.2
-0.19
-0.195
-0.175
-0.165
-0.16
-0.155
-0.155
-0.145
-0.145
-0.145
-0.14
-0.145
-0.175
-0.125
-0.15
-0.135
-0.125
-0.12
-0.125
-0.13
-0.135
-0.145
-0.165
-0.155
-0.145
-0.155
-0.19
-0.2
-0.17
-0.195
-0.22
-0.215
-0.205
-0.19
-0.235
-0.245
-0.23
-0.24
-0.255
-0.255
-0.275
-0.265
-0.25
-0.28
-0.285
-0.285
-0.275
-0.275
-0.28
-0.29
-0.27
-0.29
-0.31
-0.285
-0.295
-0.295
-0.29
-0.305
-0.325
-0.32
-0.28
-0.285
-0.3
-0.3
-0.285
-0.29
-0.28
-0.275
-0.275
-0.29
-0.29
-0.295
-0.305
-0.32
-0.31
-0.295
-0.27
-0.29
-0.295
-0.295
-0.28
-0.295
-0.305
-0.29
-0.29
-0.28
-0.285
-0.295
-0.275
-0.315
-0.31
-0.29
-0.29
-0.3
-0.29
-0.275
-0.29
-0.295
-0.295
-0.295
-0.3
-0.31
-0.28
-0.285
-0.285
-0.29
-0.29
-0.275
-0.28
-0.285
-0.3
-0.275
-0.29
-0.28
-0.265
-0.275
-0.275
-0.27
-0.28
-0.275
-0.275
-0.26
-0.26
-0.275
-0.28
-0.29
-0.29
-0.27
-0.265
-0.255
-0.295
-0.26
-0.255
-0.255
-0.265
-0.255
-0.26
-0.26
-0.285
-0.29
-0.265
-0.265
-0.295
-0.265
-0.265
-0.27
-0.29
-0.28
-0.285
-0.25
-0.3
-0.285
-0.27
-0.26
-0.28
-0.265
-0.265
-0.275
-0.275
-0.28
-0.265
-0.275
-0.285
-0.275
-0.28
-0.28
-0.265
-0.28
-0.28
-0.275
-0.29
-0.285
-0.28
-0.3
-0.265
-0.27
-0.275
-0.28
-0.275
-0.27
-0.285
-0.26
-0.275
-0.285
-0.28
-0.265
-0.26
-0.285
-0.3
-0.27
-0.25
-0.275
-0.285
-0.295
-0.275
-0.28
-0.26
-0.265
-0.28
-0.29
-0.285
-0.285
-0.285
-0.29
-0.29
-0.3
-0.31
-0.31
-0.28
-0.29
-0.29
-0.285
-0.295
-0.3
-0.26
-0.3
-0.31
-0.27
-0.31
-0.3
-0.295
-0.27
-0.285
-0.255
-0.295
-0.285
-0.28
-0.27
-0.26
-0.27
-0.26
-0.255
-0.265
-0.24
-0.255
-0.24
-0.225
-0.23
-0.23
-0.24
-0.215
-0.255
-0.215
-0.235
-0.225
-0.235
-0.24
-0.225
-0.22
-0.235
-0.205
-0.24
-0.23
-0.245
-0.26
-0.28
-0.325
-0.305
-0.29
-0.285
-0.33
-0.325
-0.325
-0.315
-0.32
-0.355
-0.325
-0.365
-0.375
-0.385
-0.39
-0.405
-0.395
-0.395
-0.425
-0.43
-0.42
-0.42
-0.435
-0.435
-0.46
-0.44
-0.445
-0.475
-0.465
-0.475
-0.475
-0.475
-0.495
-0.505
-0.525
-0.53
-0.53
-0.54
-0.575
-0.575
-0.6
-0.665
-0.7
-0.75
-0.805
-0.835
-0.845
-0.845
-0.795
-0.72
-0.6
-0.445
-0.27
-0.09
0.05
0.15
0.33
0.43
0.46
0.41
0.325
0.265
0.175
0.065
-0.07
-0.19
-0.335
-0.425
-0.485
-0.54
-0.6
-0.675
-0.755
-0.73
-0.765
-0.815
-0.815
-0.835
-0.84
-0.84
-0.875
-0.885
-0.88
-0.88
-0.885
-0.905
-0.93
-0.93
-0.92
-0.93
-0.95
-0.955
-0.945
-0.95
-0.945
-0.95
-0.96
-0.96
-0.96
-0.96
-0.96
-0.965
-0.985
-0.98
-0.985
-0.98
-0.985
-0.985
-0.995
-1.02
-0.995
-1.005
-1.01
-0.99
-0.975
-1.035
-1.015
-1.01
-0.99
-1.005
-1.01
-1.015
-1.0
-0.995
-0.995
-1.025
-1.01
-1.02
-1.01
-1.0
-1.01
-1.03
-1.0
-0.98
-1.0
-1.015
-0.98
-0.985
-0.98
-0.945
-0.97
-0.96
-0.945
-0.94
-0.94
-0.95
-0.93
-0.92
-0.925
-0.895
-0.885
-0.885
-0.905
-0.89
-0.88
-0.87
-0.85
-0.83
-0.81
-0.825
-0.82
-0.8
-0.78
-0.755
-0.755
-0.75
-0.73
-0.705
-0.705
-0.695
-0.675
-0.65
-0.65
-0.645
-0.63
-0.635
-0.61
-0.595
-0.58
-0.585
-0.605
-0.605
-0.555
-0.575
-0.59
-0.585
-0.585
-0.565
-0.56
-0.585
-0.58
-0.575
-0.585
-0.595
-0.605
-0.595
-0.59
-0.6
-0.63
-0.57
-0.615
-0.6
-0.605
-0.61
-0.61
-0.63
-0.63
-0.62
-0.615
-0.61
-0.61
-0.605
-0.59
-0.595
-0.61
-0.61
-0.595
-0.59
-0.585
-0.58
-0.59
-0.56
-0.58
-0.57
-0.56
-0.555
-0.53
-0.545
-0.555
-0.575
-0.555
-0.535
-0.52
-0.54
-0.545
-0.545
-0.525
-0.485
-0.525
-0.535
-0.525
-0.5
-0.51
-0.515
-0.54
-0.515
-0.49
-0.5
-0.51
-0.475
-0.515
-0.5
-0.47
-0.475
-0.46
-0.455
-0.475
-0.48
-0.475
-0.485
-0.47
-0.445
-0.47
-0.45
-0.45
-0.47
-0.49
-0.45
-0.44
-0.44
-0.44
-0.445
-0.43
-0.45
-0.435
-0.425
-0.435
-0.42
-0.42
-0.415
-0.41
-0.425
-0.405
-0.41
-0.415
-0.405
-0.41
-0.395
-0.385
-0.385
-0.4
-0.385
-0.41
-0.39
-0.33
-0.36
-0.375
-0.355
-0.375
-0.375
-0.375
-0.39
-0.37
-0.35
-0.37
-0.375
-0.375
-0.36
-0.375
-0.37
-0.345
-0.35
-0.345
-0.355
-0.345
-0.345
-0.335
-0.34
-0.35
-0.335
-0.36
-0.345
-0.35
-0.35
-0.345
-0.33
-0.355
-0.36
-0.355
-0.36
-0.35
-0.36
-0.345
-0.33
-0.335
-0.325
-0.34
-0.335
-0.325
-0.345
-0.345
-0.335
-0.34
-0.33
-0.315
-0.32
-0.305
-0.31
-0.34
-0.305
-0.315
-0.325
-0.32
-0.32
-0.32
-0.32
-0.305
-0.315
-0.31
-0.295
-0.285
-0.315
-0.305
-0.29
-0.285
-0.3
-0.295
-0.325
-0.285
-0.275
-0.3
-0.3
-0.31
-0.295
-0.295
-0.33
-0.305
-0.29
-0.285
-0.3
-0.275
-0.27
-0.28
-0.27
-0.295
-0.3
-0.285
-0.27
-0.27
-0.27
-0.265
-0.27
-0.265
-0.29
-0.255
-0.235
-0.26
-0.24
-0.245
-0.235
-0.26
-0.215
-0.23
-0.225
-0.195
-0.195
-0.19
-0.175
-0.205
-0.195
-0.185
-0.22
-0.225
-0.2
-0.21
-0.205
-0.21
-0.215
-0.25
-0.22
-0.245
-0.255
-0.255
-0.265
-0.24
-0.25
-0.27
-0.255
-0.245
-0.255
-0.305
-0.285
-0.29
-0.295
-0.26
-0.27
-0.265
-0.275
-0.285
-0.285
-0.285
-0.3
-0.255
-0.275
-0.29
-0.285
-0.295
-0.28
-0.27
-0.295
-0.29
-0.275
-0.285
-0.265
-0.275
-0.29
-0.27
-0.265
-0.325
-0.325
-0.35
-0.365
-0.43
-0.45
-0.495
-0.49
-0.48
-0.435
-0.375
-0.245
-0.095
0.055
0.265
0.44
0.57
0.74
0.865
0.965
0.935
0.87
0.82
0.725
0.65
0.53
0.42
0.285
0.19
0.12
0.075
0.01
-0.055
-0.105
-0.12
-0.17
-0.205
-0.21
-0.21
-0.235
-0.21
-0.23
-0.23
-0.24
-0.235
-0.235
-0.265
-0.275
-0.27
-0.285
-0.285
-0.265
-0.25
-0.245
-0.23
-0.245
-0.26
-0.27
-0.255
-0.28
-0.28
-0.275
-0.28
-0.28
-0.265
-0.265
-0.3
-0.27
-0.275
-0.275
-0.26
-0.275
-0.275
-0.255
-0.245
-0.28
-0.28
-0.255
-0.26
-0.235
-0.27
-0.29
-0.28
-0.26
-0.255
-0.25
-0.255
-0.275
-0.26
-0.245
-0.27
-0.26
-0.26
-0.26
-0.235
-0.24
-0.235
-0.24
-0.255
-0.25
-0.245
-0.22
-0.25
-0.255
-0.225
-0.2
-0.23
-0.215
-0.19
-0.19
-0.195
-0.2
-0.195
-0.2
-0.195
-0.19
-0.2
-0.18
-0.165
-0.16
-0.16
-0.16
-0.155
-0.17
-0.13
-0.115
-0.125
-0.135
-0.125
-0.125
-0.11
-0.09
-0.105
-0.09
-0.105
-0.085
-0.08
-0.09
-0.08
-0.075
-0.08
-0.075
-0.08
-0.075
-0.09
-0.08
-0.07
-0.065
-0.07
-0.095
-0.075
-0.08
-0.105
-0.105
-0.115
-0.12
-0.13
-0.12
-0.13
-0.14
-0.145
-0.175
-0.14
-0.16
-0.185
-0.21
-0.22
-0.19
-0.2
-0.185
-0.215
-0.195
-0.19
-0.21
-0.245
-0.235
-0.21
-0.205
-0.23
-0.24
-0.225
-0.215
-0.23
-0.215
-0.225
-0.23
-0.225
-0.215
-0.225
-0.245
-0.235
-0.235
-0.225
-0.215
-0.225
-0.24
-0.25
-0.235
-0.225
-0.23
-0.255
-0.24
-0.22
-0.21
-0.26
-0.23
-0.22
-0.23
-0.245
-0.225
-0.23
-0.235
-0.25
-0.255
-0.245
-0.225
-0.235
-0.225
-0.23
-0.235
-0.245
-0.25
-0.225
-0.22
-0.23
-0.24
-0.25
-0.24
-0.25
-0.24
-0.23
-0.225
-0.22
-0.245
-0.225
-0.24
-0.235
-0.205
-0.235
-0.235
-0.225
-0.25
-0.245
-0.25
-0.24
-0.25
-0.22
-0.245
-0.235
-0.245
-0.25
-0.24
-0.24
-0.265
-0.22
-0.225
-0.235
-0.22
-0.23
-0.215
-0.215
-0.235
-0.245
-0.22
-0.225
-0.24
-0.225
-0.2
-0.245
-0.225
-0.24
-0.25
-0.225
-0.23
-0.24
-0.21
-0.22
-0.24
-0.21
-0.24
-0.24
-0.245
-0.225
-0.235
-0.26
-0.23
-0.24
-0.225
-0.25
-0.23
-0.21
-0.26
-0.235
-0.23
-0.215
-0.23
-0.22
-0.22
-0.225
-0.225
-0.24
-0.23
-0.24
-0.235
-0.24
-0.225
-0.22
-0.23
-0.235
-0.235
-0.215
-0.225
-0.255
-0.255
-0.225
-0.225
-0.23
-0.26
-0.255
-0.245
-0.225
-0.235
-0.225
-0.22
-0.225
-0.24
-0.26
-0.21
-0.23
-0.22
-0.235
-0.24
-0.225
-0.235
-0.23
-0.21
-0.225
-0.225
-0.195
-0.23
-0.23
-0.265
-0.265
-0.22
-0.23
-0.23
-0.235
-0.22
-0.215
-0.215
-0.2
-0.215
-0.23
-0.21
-0.23
-0.21
-0.2
-0.235
-0.225
-0.185
-0.205
-0.2
-0.2
-0.22
-0.21
-0.19
-0.18
-0.18
-0.175
-0.17
-0.15
-0.175
-0.165
-0.14
-0.165
-0.165
-0.165
-0.145
-0.14
-0.125
-0.145
-0.14
-0.175
-0.16
-0.13
-0.12
-0.145
-0.145
-0.155
-0.17
-0.16
-0.2
-0.2
-0.205
-0.215
-0.185
-0.19
-0.205
-0.2
-0.2
-0.21
-0.23
-0.225
-0.23
-0.21
-0.225
-0.225
-0.215
-0.225
-0.235
-0.22
-0.23
-0.23
-0.225
-0.225
-0.235
-0.22
-0.235
-0.23
-0.25
-0.24
-0.235
-0.225
-0.21
-0.235
-0.235
-0.23
-0.23
-0.24
-0.245
-0.26
-0.26
-0.33
-0.35
-0.415
-0.41
-0.435
-0.405
-0.41
-0.36
-0.31
-0.19
-0.01
0.13
0.315
0.49
0.645
0.76
0.885
0.98
0.95
0.89
0.81
0.705
0.63
0.55
0.435
0.305
0.185
0.105
0.075
0.05
-0.015
-0.065
-0.105
-0.15
-0.15
-0.16
-0.16
-0.21
-0.18
-0.2
-0.225
-0.18
-0.195
-0.2
-0.225
-0.255
-0.235
-0.21
-0.205
-0.235
-0.25
-0.24
-0.205
-0.235
-0.22
-0.235
-0.225
-0.195
-0.21
-0.225
-0.21
-0.22
-0.23
-0.23
-0.235
-0.26
-0.205
-0.19
-0.19
-0.225
-0.225
-0.195
-0.245
-0.22
-0.195
-0.195
-0.225
-0.21
-0.22
-0.21
-0.195
-0.2
-0.22
-0.23
-0.21
-0.2
-0.19
-0.21
-0.18
-0.2
-0.195
-0.205
-0.185
-0.21
-0.215
-0.195
-0.175
-0.18
-0.175
-0.21
-0.185
-0.205
-0.16
-0.175
-0.16
-0.15
-0.145
-0.16
-0.17
-0.15
-0.16
-0.15
-0.16
-0.16
-0.11
-0.135
-0.125
-0.1
-0.1
-0.1
-0.09
-0.115
-0.1
-0.085
-0.09
-0.095
-0.05
-0.065
-0.055
-0.04
-0.04
-0.05
-0.045
-0.045
-0.035
-0.03
-0.03
-0.04
-0.05
-0.035
-0.03
-0.025
-0.03
-0.025
-0.03
-0.02
-0.04
-0.07
-0.065
-0.025
-0.035
-0.08
-0.075
-0.08
-0.055
-0.07
-0.085
-0.08
-0.1
-0.105
-0.1
-0.125
-0.125
-0.125
-0.14
-0.165
-0.145
-0.14
-0.155
-0.15
-0.155
-0.18
-0.18
-0.175
-0.165
-0.19
-0.165
-0.18
-0.18
-0.17
-0.2
-0.17
-0.17
-0.175
-0.185
-0.185
-0.18
-0.195
-0.165
-0.155
-0.205
-0.195
-0.175
-0.19
-0.19
-0.18
-0.205
-0.195
-0.18
-0.185
-0.17
-0.175
-0.21
-0.205
-0.185
-0.18
-0.185
-0.21
-0.19
-0.19
-0.175
-0.17
-0.185
-0.175
-0.175
-0.18
-0.19
-0.185
-0.195
-0.19
-0.17
-0.185
-0.195
-0.195
-0.195
-0.17
-0.175
-0.17
-0.18
-0.18
-0.19
-0.19
-0.18
-0.175
-0.19
-0.185
-0.16
-0.165
-0.165
-0.17
-0.17
-0.17
-0.17
-0.175
-0.155
-0.185
-0.17
-0.16
-0.175
-0.215
-0.18
-0.2
-0.16
-0.17
-0.165
-0.165
-0.19
-0.19
-0.19
-0.195
-0.185
-0.175
-0.175
-0.17
-0.19
-0.165
-0.185
-0.165
-0.16
-0.175
-0.165
-0.17
-0.155
-0.175
-0.18
-0.18
-0.185
-0.165
-0.16
-0.175
-0.145
-0.155
-0.15
-0.13
-0.145
-0.11
-0.14
-0.145
-0.17
-0.165
-0.145
-0.13
-0.13
-0.115
-0.12
-0.135
-0.115
-0.13
-0.15
-0.135
-0.115
-0.14
-0.15
-0.155
-0.1
-0.14
-0.115
-0.1
-0.15
-0.125
-0.11
-0.11
-0.12
-0.12
-0.115
-0.115
-0.08
-0.135
-0.095
-0.09
-0.105
-0.125
-0.125
-0.125
-0.09
-0.1
-0.075
-0.105
-0.115
-0.09
-0.085
-0.09
-0.1
-0.1
-0.115
-0.105
-0.125
-0.09
-0.07
-0.08
-0.085
-0.115
-0.115
-0.105
-0.085
-0.11
-0.12
-0.12
-0.125
-0.095
-0.09
-0.1
-0.085
-0.09
-0.105
-0.095
-0.08
-0.09
-0.095
-0.105
-0.095
-0.08
-0.055
-0.06
-0.05
-0.08
-0.065
-0.06
-0.02
-0.045
-0.055
-0.035
-0.065
-0.025
-0.03
-0.005
-0.025
-0.005
0.02
-0.01
-0.03
0.02
0.0
0.01
0.005
0.015
0.035
-0.005
-0.02
0.01
-0.01
-0.05
-0.05
-0.065
-0.08
-0.085
-0.06
-0.075
-0.08
-0.06
-0.095
-0.08
-0.045
-0.065
-0.075
-0.065
-0.07
-0.065
-0.075
-0.075
-0.075
-0.075
-0.085
-0.08
-0.08
-0.075
-0.085
-0.07
-0.075
-0.085
-0.08
-0.06
-0.065
-0.07
-0.07
-0.08
-0.075
-0.085
-0.085
-0.06
-0.07
-0.11
-0.125
-0.17
-0.18
-0.205
-0.275
-0.29
-0.255
-0.205
-0.155
-0.025
0.125
0.31
0.495
0.66
0.81
0.945
1.075
1.145
1.155
1.075
1.005
0.92
0.83
0.76
0.6
0.435
0.37
0.29
0.27
0.22
0.12
0.115
0.05
0.05
0.005
-0.005
0.0
-0.015
-0.025
-0.04
-0.045
-0.05
-0.065
-0.045
-0.065
-0.06
-0.045
-0.095
-0.085
-0.07
-0.07
-0.06
-0.085
-0.075
-0.075
-0.065
-0.08
-0.065
-0.07
-0.09
-0.1
-0.055
-0.1
-0.085
-0.085
-0.075
-0.065
-0.045
-0.07
-0.075
-0.08
-0.065
-0.07
-0.045
-0.075
-0.075
-0.05
-0.08
-0.075
-0.07
-0.09
-0.07
-0.08
-0.08
-0.07
-0.065
-0.05
-0.04
-0.07
-0.08
-0.085
-0.065
-0.08
-0.045
-0.065
-0.04
-0.04
-0.055
-0.025
-0.015
-0.045
-0.025
-0.03
-0.02
-0.02
-0.02
-0.03
-0.035
0.005
-0.005
-0.005
0.01
0.0
0.005
-0.01
0.005
0.0
0.01
0.03
0.02
0.06
0.02
0.04
0.04
0.05
0.035
0.045
0.065
0.075
0.045
0.08
0.105
0.1
0.08
0.095
0.12
0.11
0.09
0.105
0.1
0.105
0.095
0.105
0.125
0.1
0.095
0.105
0.095
0.09
0.075
0.105
0.095
0.055
0.06
0.045
0.065
0.04
0.06
0.035
0.03
0.005
-0.005
-0.005
-0.01
0.0
-0.01
-0.02
0.005
-0.005
-0.035
-0.055
-0.04
-0.025
-0.045
-0.04
-0.065
-0.06
-0.055
-0.06
-0.075
-0.055
-0.045
-0.06
-0.075
-0.055
-0.06
-0.07
-0.045
-0.095
-0.085
-0.08
-0.065
-0.075
-0.045
-0.045
-0.05
-0.08
-0.055
-0.07
-0.095
-0.045
-0.055
-0.07
-0.06
-0.065
-0.065
-0.06
-0.07
-0.09
-0.055
-0.06
-0.05
