# TIPE ECG 2021 - ECG-ID Database v1.0.0 par Physionet
# [Numéro de la personne, Période d'échantillonnage, Prénom, Age, Sexe, Date de l'enregistrement]
[29, 0.002, James, 40, H, 12.05.2005]
0.06
0.075
0.065
0.135
0.055
0.06
0.065
0.06
0.02
0.065
0.085
0.085
0.045
0.095
0.065
0.04
0.045
0.03
0.025
0.015
0.05
0.05
0.055
0.055
0.1
0.075
0.065
0.08
0.045
0.015
0.005
0.03
0.08
0.1
0.105
0.06
0.005
0.06
0.035
0.055
0.035
0.03
0.02
0.08
0.09
0.08
0.07
0.105
0.075
0.09
0.035
-0.01
0.025
0.055
0.04
0.095
0.12
0.09
0.055
0.055
0.1
0.105
0.115
0.125
0.115
0.085
0.11
0.085
0.07
0.05
0.04
0.03
0.095
0.09
0.13
0.09
0.155
0.14
0.09
0.135
0.145
0.085
0.115
0.13
0.085
0.15
0.12
0.095
0.15
0.105
0.11
0.105
0.045
0.11
0.16
0.14
0.135
0.125
0.13
0.1
0.165
0.2
0.19
0.195
0.18
0.195
0.195
0.195
0.2
0.16
0.115
0.145
0.16
0.17
0.17
0.16
0.095
0.095
0.12
0.14
0.15
0.135
0.145
0.175
0.095
0.125
0.145
0.165
0.15
0.185
0.145
0.11
0.085
0.14
0.15
0.12
0.065
0.09
0.095
0.055
0.06
0.07
0.11
0.155
0.16
0.12
0.13
0.095
0.09
0.135
0.155
0.125
0.175
0.225
0.21
0.21
0.225
0.28
0.39
0.4
0.48
0.545
0.635
0.76
0.885
1.025
1.1
0.975
0.875
0.71
0.61
0.48
0.365
0.26
0.22
0.22
0.245
0.205
0.245
0.245
0.24
0.19
0.21
0.195
0.2
0.18
0.23
0.16
0.155
0.16
0.105
0.11
0.165
0.16
0.14
0.115
0.075
0.04
0.055
0.055
0.075
0.09
0.15
0.11
0.075
0.09
0.08
0.08
0.08
0.11
0.1
0.085
0.13
0.075
0.11
0.1
0.095
0.065
0.085
0.11
0.11
0.11
0.14
0.095
0.125
0.13
0.125
0.1
0.12
0.125
0.125
0.145
0.135
0.155
0.145
0.135
0.175
0.155
0.12
0.105
0.105
0.125
0.17
0.155
0.14
0.115
0.115
0.075
0.12
0.14
0.21
0.215
0.225
0.255
0.215
0.175
0.235
0.175
0.165
0.16
0.23
0.25
0.225
0.235
0.255
0.305
0.23
0.27
0.255
0.21
0.25
0.295
0.31
0.35
0.34
0.325
0.29
0.315
0.335
0.335
0.395
0.365
0.315
0.335
0.345
0.395
0.32
0.365
0.365
0.28
0.265
0.355
0.375
0.37
0.375
0.295
0.3
0.305
0.32
0.25
0.205
0.215
0.295
0.29
0.195
0.195
0.175
0.205
0.215
0.205
0.16
0.175
0.165
0.16
0.155
0.17
0.145
0.125
0.125
0.13
0.095
0.13
0.17
0.13
0.15
0.115
0.1
0.055
0.04
0.05
0.04
0.145
0.125
0.095
0.09
0.12
0.115
0.125
0.09
0.06
0.055
0.085
0.06
0.07
0.095
0.1
0.06
0.07
0.135
0.105
0.1
0.165
0.09
0.015
0.085
0.11
0.1
0.105
0.135
0.14
0.09
0.055
0.015
0.055
0.055
0.085
0.05
0.015
0.05
0.055
0.07
0.085
0.125
0.12
0.02
0.075
0.125
0.14
0.145
0.115
0.14
0.15
0.085
0.135
0.095
0.1
0.085
0.105
0.15
0.1
0.16
0.13
0.14
0.125
0.12
0.115
0.09
0.055
0.09
0.1
0.1
0.115
0.15
0.19
0.145
0.1
0.09
0.125
0.095
0.03
0.045
0.125
0.12
0.085
0.1
0.145
0.05
0.07
0.05
0.075
0.035
0.105
0.105
0.105
0.09
0.045
0.045
0.095
0.12
0.11
0.09
0.135
0.1
0.12
0.075
0.055
0.045
0.08
0.065
0.09
0.145
0.21
0.14
0.15
0.175
0.17
0.195
0.175
0.14
0.115
0.12
0.13
0.155
0.135
0.175
0.125
0.12
0.105
0.035
0.085
0.07
0.05
0.14
0.15
0.105
0.08
0.055
0.01
0.045
0.025
0.085
0.065
0.085
0.05
0.08
0.09
0.065
0.08
0.07
0.045
0.11
0.065
0.02
0.085
0.09
-0.015
0.0
0.0
0.06
0.015
0.05
0.12
0.12
0.095
0.14
0.095
0.075
0.08
0.12
0.135
0.265
0.34
0.425
0.5
0.565
0.69
0.75
0.875
1.0
0.94
0.815
0.66
0.61
0.505
0.365
0.16
0.14
0.15
0.075
0.075
0.09
0.095
0.155
0.11
0.135
0.1
0.09
0.105
0.09
0.02
0.0
0.04
0.01
-0.01
-0.04
-0.065
0.005
0.08
0.055
0.04
0.015
-0.04
0.055
0.01
-0.005
0.0
-0.02
0.065
0.09
0.085
0.08
-0.01
0.04
0.07
0.095
0.075
0.0
-0.005
0.015
0.01
0.045
0.025
0.035
0.03
0.07
0.045
0.03
0.03
0.02
0.03
0.045
0.035
0.06
0.04
0.055
0.005
0.035
0.06
0.085
0.135
0.1
0.06
0.07
0.07
0.025
0.04
0.105
0.045
0.045
0.05
0.08
0.07
0.045
0.08
0.095
0.14
0.07
0.14
0.14
0.16
0.165
0.16
0.16
0.11
0.115
0.135
0.145
0.15
0.15
0.195
0.245
0.205
0.2
0.25
0.19
0.195
0.25
0.24
0.225
0.25
0.25
0.235
0.245
0.225
0.185
0.185
0.255
0.215
0.165
0.26
0.29
0.265
0.265
0.26
0.245
0.225
0.24
0.23
0.2
0.255
0.26
0.215
0.235
0.185
0.125
0.14
0.115
0.12
0.14
0.175
0.105
0.1
0.11
0.13
0.09
0.095
0.12
0.075
0.025
0.12
0.125
0.03
0.04
0.02
0.0
0.045
0.02
0.05
0.01
0.035
0.02
0.035
0.075
0.04
0.03
0.06
0.035
-0.015
0.005
0.045
0.045
0.005
0.025
0.03
-0.025
0.005
-0.02
0.0
-0.055
-0.03
0.05
0.01
0.055
0.04
0.02
0.05
0.015
-0.02
-0.04
-0.04
-0.05
-0.03
0.025
-0.02
-0.02
-0.04
0.005
0.005
-0.005
0.01
-0.01
-0.015
-0.02
-0.035
-0.055
-0.015
-0.01
-0.03
-0.02
0.01
0.045
0.02
-0.03
-0.06
-0.12
-0.075
-0.04
-0.05
-0.05
-0.025
0.015
0.0
-0.015
-0.065
-0.05
0.025
-0.03
-0.075
0.03
0.025
-0.06
-0.045
-0.025
-0.06
-0.045
0.015
-0.015
-0.03
0.005
0.005
-0.035
-0.045
0.045
-0.035
-0.12
-0.045
-0.055
-0.025
-0.045
-0.07
-0.09
-0.04
-0.035
-0.035
0.005
-0.005
-0.015
-0.05
-0.03
-0.02
-0.025
-0.035
0.005
-0.005
-0.01
-0.04
-0.015
-0.035
-0.075
-0.02
0.0
-0.05
-0.03
-0.05
-0.035
-0.04
-0.03
-0.02
-0.005
0.035
0.095
0.075
0.065
-0.025
0.01
0.005
-0.03
-0.05
-0.05
-0.05
0.06
0.01
0.015
-0.01
-0.035
-0.045
-0.06
-0.05
-0.025
-0.01
-0.05
-0.04
-0.045
-0.04
-0.045
-0.035
-0.095
-0.095
-0.07
-0.085
-0.08
-0.045
-0.095
-0.105
-0.065
-0.085
-0.07
-0.04
-0.005
-0.065
-0.025
0.0
-0.105
-0.11
-0.065
-0.04
-0.015
-0.1
0.0
0.01
-0.025
-0.065
-0.045
0.005
0.005
0.11
0.16
0.22
0.38
0.455
0.535
0.65
0.755
0.95
0.965
0.85
0.69
0.535
0.455
0.305
0.18
0.125
0.085
0.08
0.08
0.055
0.09
0.055
0.08
0.025
-0.025
-0.065
-0.095
-0.085
-0.03
-0.09
-0.07
-0.065
-0.04
-0.035
-0.03
-0.045
-0.095
-0.07
-0.065
-0.095
-0.07
-0.06
-0.09
-0.115
-0.17
-0.12
-0.1
-0.09
-0.09
-0.055
-0.045
-0.05
-0.02
-0.03
-0.035
-0.05
-0.1
-0.1
-0.1
-0.12
-0.115
-0.085
-0.035
-0.065
-0.08
-0.04
-0.07
-0.035
-0.05
-0.05
-0.07
-0.03
-0.015
0.0
-0.06
-0.035
-0.055
-0.055
-0.065
-0.05
-0.015
-0.075
-0.05
-0.045
-0.055
-0.005
-0.05
-0.02
-0.045
-0.04
-0.03
0.02
0.06
0.035
0.03
0.065
-0.015
-0.01
-0.065
-0.035
-0.015
-0.01
0.07
0.07
0.04
0.045
0.065
0.06
0.085
0.085
0.13
0.125
0.13
0.095
0.09
0.13
0.105
0.06
0.13
0.155
0.17
0.185
0.21
0.215
0.2
0.195
0.13
0.135
0.175
0.165
0.165
0.19
0.18
0.19
0.185
0.185
0.095
0.11
0.115
0.055
0.075
0.15
0.115
0.115
0.09
0.09
0.05
0.04
0.05
0.06
0.03
-0.01
-0.025
-0.025
-0.025
-0.025
-0.025
0.01
-0.005
0.0
-0.03
-0.01
-0.06
-0.025
-0.015
-0.05
-0.09
-0.035
-0.03
-0.08
-0.02
-0.03
-0.09
-0.12
-0.08
-0.04
-0.01
-0.035
-0.06
-0.115
-0.07
-0.025
-0.035
-0.025
-0.01
-0.015
-0.065
-0.07
-0.12
-0.085
-0.03
-0.025
-0.05
-0.065
-0.03
-0.08
-0.07
-0.055
-0.055
-0.07
-0.075
-0.065
-0.055
-0.025
-0.05
-0.055
-0.05
-0.105
-0.105
-0.085
-0.075
-0.065
-0.015
-0.045
-0.05
-0.1
-0.09
-0.125
-0.05
-0.07
-0.07
-0.01
-0.01
-0.045
-0.085
-0.125
-0.165
-0.145
-0.155
-0.13
-0.07
-0.045
-0.045
-0.095
-0.08
-0.105
-0.12
-0.06
-0.085
-0.085
-0.03
-0.09
-0.1
-0.115
-0.045
-0.01
-0.045
0.0
-0.135
-0.09
-0.11
-0.14
-0.095
-0.15
-0.1
-0.15
-0.11
-0.065
-0.095
-0.095
-0.1
-0.15
-0.135
-0.115
-0.095
-0.13
-0.12
-0.105
-0.115
-0.155
-0.095
-0.11
-0.09
-0.065
-0.055
-0.115
-0.095
-0.09
-0.045
-0.1
-0.085
-0.06
-0.115
-0.105
-0.08
-0.085
-0.065
-0.085
-0.11
-0.035
-0.015
-0.015
-0.025
-0.09
-0.08
-0.095
-0.08
-0.06
-0.06
-0.055
-0.005
-0.05
-0.1
-0.03
-0.1
-0.14
-0.11
-0.095
-0.105
-0.115
-0.075
-0.1
-0.115
-0.08
-0.095
-0.105
-0.105
-0.095
-0.085
-0.08
-0.1
-0.1
-0.12
-0.12
-0.115
-0.125
-0.125
-0.155
-0.11
-0.11
-0.115
-0.1
-0.105
-0.115
-0.185
-0.17
-0.075
-0.065
-0.08
-0.07
-0.065
-0.075
-0.055
-0.04
-0.04
-0.02
0.06
0.175
0.2
0.225
0.32
0.47
0.57
0.7
0.895
0.965
0.92
0.8
0.65
0.535
0.38
0.185
0.155
0.02
-0.05
-0.03
0.005
-0.02
-0.045
0.01
0.01
-0.045
-0.075
-0.11
-0.07
-0.15
-0.135
-0.135
-0.125
-0.105
-0.11
-0.145
-0.135
-0.055
-0.075
-0.065
-0.095
-0.085
-0.13
-0.03
-0.095
-0.09
-0.13
-0.15
-0.125
-0.12
-0.095
-0.16
-0.135
-0.035
-0.04
-0.1
-0.1
-0.11
-0.095
-0.11
-0.1
-0.085
-0.06
-0.055
-0.03
-0.08
-0.065
-0.035
-0.1
-0.03
-0.045
-0.045
-0.08
-0.06
-0.095
-0.095
-0.04
-0.01
-0.06
-0.005
-0.075
-0.07
-0.055
-0.055
-0.03
0.005
0.005
-0.055
-0.085
-0.065
-0.055
-0.035
0.0
0.035
0.025
0.035
0.015
0.0
-0.02
-0.005
-0.015
-0.015
0.065
0.065
0.045
0.1
0.145
0.1
0.06
0.06
0.085
0.085
0.075
0.12
0.15
0.185
0.19
0.175
0.15
0.2
0.165
0.15
0.165
0.225
0.175
0.205
0.17
0.2
0.23
0.22
0.255
0.205
0.21
0.205
0.195
0.205
0.19
0.165
0.14
0.115
0.105
0.095
0.155
0.145
0.13
0.13
0.14
0.125
0.06
0.05
0.055
0.03
0.04
0.03
0.035
0.08
0.08
0.055
0.03
0.015
0.005
0.015
-0.005
0.02
-0.01
0.03
0.0
-0.05
-0.025
-0.04
-0.1
-0.065
-0.005
0.0
0.025
-0.005
0.01
-0.07
-0.08
-0.045
0.0
0.0
0.05
0.01
0.04
0.0
0.025
0.03
0.005
-0.065
-0.055
-0.04
0.01
-0.04
-0.015
-0.06
-0.035
-0.075
-0.045
-0.005
0.015
-0.015
-0.025
-0.005
0.0
-0.035
-0.03
-0.07
-0.035
-0.015
-0.01
-0.05
-0.03
-0.03
-0.02
-0.025
0.0
-0.035
-0.05
0.0
-0.025
0.0
-0.055
-0.07
-0.05
-0.07
-0.02
-0.005
-0.03
-0.02
0.025
-0.025
-0.015
-0.01
-0.025
0.0
0.0
-0.025
-0.025
-0.005
0.0
-0.005
-0.015
-0.025
-0.015
-0.025
-0.01
0.0
0.01
-0.01
-0.025
-0.005
0.03
0.06
0.025
-0.04
-0.01
-0.01
-0.03
-0.07
-0.06
-0.01
0.06
0.015
0.01
0.0
0.035
0.005
0.05
0.035
0.07
0.015
-0.025
-0.04
-0.045
-0.025
0.045
0.02
0.02
0.015
-0.01
-0.005
0.025
0.005
-0.01
0.04
0.02
-0.005
0.065
-0.005
0.015
0.025
0.045
-0.025
0.015
0.01
-0.015
-0.02
0.03
0.06
0.06
0.125
0.14
0.15
0.105
0.06
0.03
0.06
0.065
0.08
0.04
-0.01
0.005
0.015
0.0
0.01
0.015
0.01
-0.015
-0.015
0.02
0.055
-0.005
0.015
0.05
0.065
0.025
0.02
0.005
-0.025
-0.03
0.055
0.01
-0.01
0.0
0.04
0.005
-0.01
0.005
0.045
0.035
0.03
0.005
-0.005
0.015
-0.035
0.02
0.085
0.04
0.015
0.025
0.08
0.07
0.065
0.16
0.265
0.285
0.305
0.4
0.465
0.505
0.56
0.76
0.965
0.985
0.88
0.73
0.59
0.535
0.365
0.185
0.12
0.085
0.07
0.045
0.07
0.07
0.04
-0.03
0.05
0.06
0.085
0.025
0.02
-0.005
-0.005
0.025
-0.02
-0.055
-0.05
-0.045
-0.055
-0.03
-0.05
0.015
0.0
-0.04
-0.02
-0.03
-0.02
0.005
0.03
0.015
0.03
0.045
0.015
0.01
0.0
-0.015
-0.04
-0.035
-0.025
0.045
0.0
0.005
0.005
-0.085
-0.04
0.015
-0.035
-0.03
0.05
0.05
0.03
0.08
0.035
-0.04
-0.075
-0.095
-0.03
0.015
0.025
0.03
0.045
0.005
-0.045
0.0
0.025
0.02
0.03
0.055
0.07
0.06
0.09
0.09
0.02
0.035
-0.04
-0.05
-0.01
0.065
0.055
0.07
0.095
0.105
0.07
0.065
0.1
0.14
0.07
0.115
0.13
0.145
0.105
0.165
0.11
0.12
0.17
0.125
0.16
0.17
0.18
0.255
0.225
0.215
0.24
0.225
0.255
0.24
0.2
0.26
0.23
0.225
0.235
0.265
0.22
0.265
0.26
0.155
0.165
0.185
0.215
0.23
0.235
0.24
0.2
0.15
0.17
0.17
0.17
0.145
0.145
0.135
0.075
0.09
0.07
0.07
0.085
-0.04
0.0
0.075
0.085
0.06
0.0
-0.03
0.005
0.09
0.045
-0.01
-0.065
-0.03
-0.015
0.015
-0.03
0.01
-0.01
0.01
0.0
-0.005
0.005
-0.005
-0.035
0.06
-0.04
-0.005
-0.015
0.0
-0.035
-0.075
-0.01
0.03
-0.04
-0.015
-0.01
-0.075
-0.07
-0.02
-0.05
-0.015
0.04
0.015
0.01
0.015
-0.03
-0.125
-0.075
-0.075
-0.055
-0.065
-0.025
0.005
-0.025
-0.005
0.02
-0.075
-0.075
-0.07
-0.065
-0.105
-0.07
-0.03
-0.01
-0.02
0.005
0.015
0.025
-0.015
-0.01
-0.055
-0.03
-0.035
-0.07
0.02
0.025
-0.015
-0.025
-0.025
-0.035
-0.065
-0.025
0.01
-0.01
0.045
0.01
0.04
0.04
-0.005
-0.01
-0.05
0.015
0.075
-0.015
-0.05
-0.02
0.015
-0.03
-0.055
-0.045
-0.005
0.02
-0.025
-0.02
-0.015
-0.015
-0.005
-0.025
0.0
0.0
-0.04
-0.01
0.015
0.01
0.045
0.015
-0.01
0.005
-0.035
-0.085
-0.055
-0.065
-0.005
0.0
-0.025
0.05
0.07
0.0
0.02
-0.05
-0.06
-0.02
-0.01
-0.03
-0.01
0.05
0.015
-0.01
0.025
-0.035
-0.03
0.015
0.0
0.015
0.005
0.02
-0.02
-0.045
-0.01
0.0
0.045
0.085
0.125
0.135
0.095
0.085
0.03
0.065
0.075
0.025
0.075
0.11
0.085
-0.03
-0.025
0.0
-0.02
0.015
-0.01
-0.01
-0.03
0.0
-0.01
0.015
-0.025
-0.025
-0.02
-0.035
0.025
-0.015
-0.025
-0.01
-0.005
-0.025
-0.045
-0.01
0.06
0.01
-0.045
-0.1
-0.095
-0.025
0.0
-0.01
0.025
0.025
0.005
-0.04
-0.025
-0.055
-0.035
0.015
0.045
0.06
0.01
-0.01
0.025
0.03
0.11
0.185
0.225
0.305
0.415
0.515
0.65
0.79
0.93
1.03
0.94
0.775
0.595
0.535
0.435
0.275
0.165
0.09
0.05
0.12
0.13
0.065
0.09
0.055
0.06
0.02
-0.02
0.02
-0.005
-0.025
-0.04
-0.085
-0.03
-0.075
-0.075
-0.08
-0.05
-0.055
-0.07
-0.02
-0.025
-0.06
-0.045
-0.01
-0.03
-0.015
-0.015
-0.04
-0.06
-0.065
-0.035
-0.075
-0.04
-0.025
-0.065
-0.09
-0.05
-0.025
0.015
0.045
-0.065
-0.02
-0.025
0.005
-0.065
-0.1
-0.015
-0.005
-0.03
-0.025
-0.035
-0.065
-0.02
-0.035
-0.03
-0.01
0.035
0.02
-0.005
-0.07
-0.05
-0.01
0.045
0.02
-0.03
-0.005
-0.03
0.005
0.025
0.05
0.04
0.02
0.07
0.04
0.06
0.045
0.03
-0.02
0.04
0.065
0.075
0.025
0.08
0.11
0.08
0.13
0.075
0.085
0.125
0.145
0.07
0.155
0.195
0.21
0.22
0.155
0.125
0.115
0.185
0.145
0.125
0.175
0.26
0.25
0.27
0.295
0.235
0.235
0.205
0.23
0.21
0.195
0.26
0.215
0.215
0.26
0.225
0.25
0.25
0.165
0.15
0.165
0.225
0.15
0.12
0.135
0.11
0.075
0.17
0.11
0.135
0.09
0.05
0.095
0.08
0.035
0.085
0.02
0.04
0.06
0.045
0.07
0.07
0.025
-0.02
-0.015
-0.01
-0.005
0.01
-0.025
-0.015
0.05
0.04
0.035
0.01
0.05
0.025
-0.035
-0.03
-0.005
-0.045
0.01
-0.015
0.015
-0.02
-0.015
-0.07
-0.075
0.0
-0.025
-0.025
0.0
-0.035
-0.025
-0.005
0.01
0.0
-0.01
-0.025
-0.025
-0.07
0.005
0.02
0.01
0.01
0.05
-0.065
-0.065
-0.035
-0.045
-0.05
0.015
0.04
-0.025
-0.05
-0.005
-0.05
-0.06
-0.055
-0.04
-0.07
-0.06
-0.055
-0.05
-0.03
0.0
-0.04
-0.065
-0.065
-0.005
0.015
-0.025
-0.055
0.0
-0.035
-0.05
-0.055
-0.035
-0.03
-0.075
0.025
0.035
0.015
-0.04
-0.095
-0.045
-0.045
-0.005
-0.075
-0.065
-0.01
-0.005
0.015
-0.02
-0.055
-0.015
0.02
0.005
-0.03
-0.05
-0.035
-0.01
-0.015
0.025
-0.015
0.02
-0.01
-0.04
-0.03
-0.065
-0.1
-0.055
-0.055
-0.04
-0.055
-0.08
-0.075
-0.045
-0.065
-0.06
-0.04
-0.025
-0.065
-0.045
0.01
0.02
-0.075
-0.065
-0.055
-0.04
-0.005
-0.02
-0.025
-0.05
0.005
-0.005
-0.065
-0.06
-0.04
-0.06
-0.02
-0.005
0.01
0.01
-0.005
-0.02
-0.03
-0.045
-0.035
-0.06
-0.05
-0.02
-0.025
-0.01
0.015
-0.005
-0.045
0.03
-0.02
-0.025
0.04
0.07
0.055
0.035
0.12
0.085
0.1
0.04
0.045
0.025
0.04
0.025
0.045
0.045
0.025
0.005
0.0
0.01
0.065
0.025
-0.025
-0.025
-0.025
-0.005
0.05
-0.01
0.005
0.0
-0.06
-0.04
-0.01
0.055
0.095
0.02
0.04
-0.01
-0.04
-0.06
-0.06
-0.05
0.005
-0.025
0.0
-0.045
-0.075
-0.035
-0.025
0.005
-0.005
-0.03
-0.01
0.03
0.04
0.025
0.11
0.035
0.03
-0.035
-0.015
0.04
0.11
0.125
0.2
0.285
0.405
0.49
0.63
0.75
0.92
1.07
1.05
0.905
0.47
0.345
0.2
0.1
0.085
0.1
0.155
0.105
0.125
0.12
0.09
0.015
-0.01
-0.035
-0.06
-0.05
-0.03
-0.055
-0.045
-0.05
-0.03
-0.08
-0.09
-0.03
0.0
0.04
-0.07
-0.085
-0.015
-0.035
-0.01
-0.05
-0.045
-0.06
-0.055
-0.065
-0.045
-0.035
-0.015
-0.055
-0.065
-0.06
-0.09
-0.035
-0.02
-0.035
-0.045
-0.045
-0.015
0.0
0.015
-0.01
-0.03
-0.015
-0.055
-0.08
-0.015
-0.02
-0.005
0.02
0.015
0.0
-0.01
0.0
0.015
-0.045
-0.005
0.01
0.0
0.005
0.035
0.03
0.01
0.015
0.015
0.02
0.01
-0.005
0.06
0.045
0.02
0.04
0.08
0.09
0.14
0.11
0.1
0.125
0.1
0.075
0.05
0.06
0.05
0.075
0.085
0.085
0.175
0.155
0.17
0.185
0.13
0.16
0.18
0.13
0.17
0.175
0.25
0.285
0.23
0.22
0.22
0.215
0.24
0.195
0.21
0.315
0.27
0.22
0.21
0.25
0.23
0.325
0.35
0.25
0.26
0.285
0.245
0.235
0.21
0.19
0.18
0.19
0.195
0.17
0.21
0.11
0.055
0.075
0.08
0.115
0.09
0.045
0.085
0.09
0.075
0.135
0.085
0.065
0.075
0.06
0.0
0.03
0.06
-0.02
-0.015
0.08
0.11
0.095
0.05
0.03
0.005
-0.005
-0.005
0.035
0.03
0.14
0.12
0.015
0.08
0.07
0.015
0.0
-0.03
-0.025
-0.02
0.08
0.065
-0.02
0.045
0.09
0.025
0.02
0.03
0.055
0.05
0.05
0.12
0.035
0.055
0.02
-0.01
0.05
-0.025
-0.02
-0.01
0.035
0.01
0.035
0.035
0.075
0.025
0.025
0.035
0.02
0.025
0.045
0.055
-0.005
0.04
0.025
-0.045
-0.06
-0.005
-0.015
0.02
0.04
0.05
0.055
0.06
0.08
0.055
0.06
0.08
0.055
0.06
0.1
0.03
0.055
0.08
0.07
0.045
0.03
0.03
-0.01
0.0
0.035
-0.015
0.055
0.075
0.07
0.075
0.075
0.035
0.05
0.06
0.065
0.085
0.075
0.03
0.005
0.02
0.04
0.075
0.105
0.15
0.115
0.05
0.045
0.06
0.015
-0.02
0.0
0.025
0.01
-0.02
0.04
0.025
0.05
0.105
0.06
0.005
0.065
0.04
0.02
0.045
0.055
0.025
0.045
0.095
0.065
0.03
0.06
0.105
0.08
0.045
0.01
0.025
0.0
0.065
0.025
0.025
0.055
0.055
0.065
0.105
0.08
0.105
0.135
0.165
0.11
0.115
0.115
0.12
0.04
0.095
0.07
0.06
0.075
0.125
0.11
0.145
0.125
0.095
0.065
0.075
0.05
0.015
0.05
0.06
0.035
0.0
0.06
0.065
0.07
0.11
0.1
0.1
0.06
0.085
0.065
0.045
0.07
0.045
0.05
0.05
0.02
0.045
0.085
0.09
0.02
0.01
0.03
0.095
0.175
0.175
0.06
0.09
0.085
0.05
0.04
0.115
0.1
0.135
0.18
0.18
0.225
0.315
0.405
0.53
0.61
0.695
0.775
0.96
0.99
0.865
0.735
0.565
0.52
0.4
0.28
0.155
0.155
0.075
0.085
0.08
0.075
0.12
0.13
0.065
0.055
0.035
0.05
0.04
0.045
0.06
0.075
0.085
0.065
0.06
0.04
0.07
0.025
-0.005
0.07
0.065
0.055
0.09
0.075
0.035
0.045
0.08
0.09
0.04
0.07
0.095
0.125
0.15
0.11
0.025
0.095
0.075
-0.005
0.0
0.095
0.04
-0.005
0.015
0.065
0.09
0.095
0.09
0.085
0.055
0.08
0.08
0.065
0.09
0.125
0.09
0.09
0.055
0.09
0.075
0.13
0.15
0.135
0.14
0.145
0.145
0.14
0.11
0.135
0.105
0.1
0.115
0.13
0.15
0.135
0.125
0.11
0.125
0.12
0.155
0.21
0.17
0.19
0.235
0.26
0.16
0.175
0.225
0.24
0.215
0.22
0.26
0.245
0.315
0.36
0.27
0.23
0.245
0.255
0.32
0.31
0.3
0.325
0.305
0.325
0.38
0.36
0.37
0.275
0.335
0.345
0.315
0.405
0.395
0.38
0.295
0.275
0.31
0.27
0.27
0.295
0.31
0.29
0.27
0.295
0.235
0.195
0.19
0.215
0.245
0.26
0.25
0.21
0.175
0.15
0.185
0.2
0.185
0.145
0.15
0.165
0.165
0.145
0.085
0.17
0.145
0.1
0.02
0.04
0.12
0.14
0.1
0.095
0.13
0.165
0.09
0.1
0.11
0.1
0.105
0.1
0.115
0.045
0.055
0.08
0.115
0.135
0.135
0.04
0.075
0.065
0.04
0.065
0.11
0.1
0.11
0.125
0.025
0.045
0.115
0.145
0.125
0.1
0.095
0.045
0.03
0.08
0.045
0.005
0.085
0.105
0.115
0.14
0.12
0.06
0.025
0.025
0.055
0.075
0.09
0.105
0.14
0.085
0.05
0.01
0.09
0.14
0.115
0.09
0.1
0.1
0.085
0.09
0.135
0.085
0.105
0.08
0.095
0.07
0.105
0.105
0.07
0.015
0.02
0.055
0.07
0.045
0.035
0.11
0.12
0.095
0.08
0.08
0.13
0.065
0.085
0.085
0.075
0.07
0.085
0.105
0.055
0.06
0.08
0.06
0.07
0.075
0.04
0.08
0.095
0.12
0.115
0.065
0.065
0.03
0.07
0.055
-0.01
0.055
0.1
0.095
0.07
0.065
0.065
-0.02
0.08
0.045
0.065
0.11
0.115
0.11
0.065
0.07
0.055
0.06
0.085
0.04
0.025
0.075
0.1
0.08
0.12
0.115
0.07
0.05
0.115
0.17
0.14
0.16
0.145
0.16
0.08
0.13
0.155
0.13
0.105
0.11
0.12
0.105
0.13
0.08
0.08
0.07
0.06
0.07
0.05
0.02
0.005
0.025
0.075
0.045
0.06
0.09
0.08
0.05
0.075
0.075
0.005
0.05
0.065
0.07
0.055
0.04
0.06
0.055
0.065
0.075
0.04
0.05
0.05
0.085
0.055
0.045
0.09
0.11
0.09
0.095
0.105
0.15
0.23
0.235
0.29
0.33
0.385
0.56
0.565
0.695
0.92
1.04
1.06
0.905
0.76
0.65
0.56
0.41
0.255
0.18
0.12
0.205
0.23
0.155
0.16
0.16
0.14
0.12
0.04
0.035
0.035
0.02
0.07
0.02
0.045
0.075
0.075
0.055
0.005
0.005
-0.04
0.02
0.09
0.085
0.015
0.03
-0.02
-0.035
0.015
-0.005
0.045
0.11
0.115
0.105
0.045
0.075
0.085
0.015
0.045
-0.04
-0.015
0.045
0.08
0.05
0.045
0.07
0.05
0.09
0.055
-0.015
0.06
0.065
0.055
0.07
0.09
0.125
0.07
0.07
0.035
0.02
0.07
0.08
0.08
0.06
0.065
0.045
0.07
0.08
0.07
0.07
0.095
0.16
0.15
0.18
0.15
0.115
0.155
0.13
0.11
0.12
0.11
0.15
0.17
0.19
0.185
0.155
0.175
0.145
0.16
0.195
0.165
0.19
0.19
0.2
0.255
0.24
0.22
0.27
0.205
0.21
0.195
0.28
0.3
0.24
0.26
0.255
0.31
0.295
0.305
0.29
0.29
0.3
0.29
0.305
0.28
0.24
0.26
0.285
0.305
0.265
0.32
0.315
0.3
0.25
0.205
0.21
0.18
0.195
0.215
0.24
0.265
0.23
0.195
0.155
0.21
0.135
0.15
0.15
0.1
0.06
0.125
0.16
0.16
0.135
0.125
0.12
0.15
0.075
0.085
0.065
0.08
0.065
0.08
0.08
0.115
0.085
0.09
0.05
0.04
0.025
0.07
0.12
0.105
0.03
0.08
0.065
0.055
0.02
0.02
0.015
0.06
0.025
0.06
0.085
0.085
0.11
0.1
0.08
0.075
0.07
0.06
0.035
0.025
0.055
0.02
0.055
0.045
0.075
0.085
0.08
0.125
0.09
0.04
0.07
0.08
0.01
0.03
0.045
0.075
0.025
0.065
0.075
0.07
0.105
0.1
0.08
0.05
0.015
-0.025
0.06
0.095
0.08
0.015
0.07
0.05
0.06
0.055
0.03
0.07
0.09
0.07
0.045
0.07
0.0
0.035
0.06
0.02
0.05
0.01
0.04
0.065
0.04
0.05
0.09
0.04
0.0
0.06
0.105
0.05
0.02
0.07
0.075
0.045
0.06
0.04
0.055
0.045
-0.01
-0.005
0.04
0.035
0.02
0.045
0.055
0.09
0.015
-0.005
0.07
0.05
0.095
0.075
0.07
0.06
0.065
0.075
0.075
0.045
0.07
0.04
0.06
0.015
0.065
0.045
0.055
0.055
0.01
0.035
0.055
0.055
0.02
0.065
0.015
0.04
0.095
0.08
0.09
0.12
0.105
0.085
0.13
0.1
0.14
0.1
0.12
0.09
0.065
0.095
0.1
0.08
0.1
0.065
0.04
0.035
0.055
0.01
0.035
0.015
0.04
0.02
0.06
0.07
0.01
-0.015
0.015
0.005
0.07
0.07
0.03
0.015
0.05
0.08
0.06
0.01
0.07
-0.02
-0.005
0.035
0.035
-0.01
0.075
-0.045
0.04
0.01
-0.035
0.005
0.025
0.065
0.075
0.02
0.06
0.065
0.105
0.175
0.26
0.265
0.355
0.435
0.505
0.63
0.81
0.955
1.07
1.065
0.93
0.8
0.665
0.51
0.36
0.25
0.14
0.125
0.06
0.105
0.12
0.155
0.155
0.105
0.04
0.07
0.1
0.08
0.015
-0.045
-0.04
0.01
0.04
0.055
0.11
0.07
-0.02
0.015
0.02
-0.01
-0.055
-0.04
-0.045
-0.02
-0.035
-0.015
0.025
0.05
0.045
0.035
-0.015
0.015
0.025
0.055
0.015
-0.02
0.04
0.045
-0.005
-0.005
-0.03
0.0
0.01
-0.05
-0.01
0.0
0.08
0.02
0.0
0.085
0.09
0.04
-0.025
-0.02
-0.03
0.02
0.055
0.025
0.07
0.05
0.05
0.04
0.05
0.08
0.055
0.065
0.1
0.08
0.04
0.12
0.05
0.065
0.115
0.13
0.145
0.145
0.125
0.12
0.075
0.105
0.075
0.07
0.11
0.115
0.14
0.185
0.185
0.165
0.19
0.245
0.19
0.155
0.15
0.15
0.21
0.215
0.24
0.26
0.21
0.175
0.185
0.19
0.22
0.23
0.24
0.265
0.265
0.295
0.35
0.36
0.29
0.205
0.22
0.225
0.215
0.255
0.25
0.27
0.275
0.21
0.18
0.185
0.215
0.235
0.21
0.205
0.245
0.205
0.125
0.15
0.1
0.12
0.1
0.115
0.15
0.115
0.08
0.15
0.08
0.105
0.025
0.07
0.065
0.015
0.105
0.12
0.06
0.05
0.06
0.025
0.035
0.02
0.0
0.02
0.025
0.065
0.09
0.13
0.03
0.015
0.045
0.015
0.035
0.025
0.04
0.0
0.015
0.005
0.035
0.09
0.0
-0.025
0.005
-0.005
0.01
0.04
0.0
0.0
0.085
0.05
0.08
0.04
0.005
0.01
0.02
0.005
-0.03
0.01
0.05
-0.005
-0.03
-0.015
0.025
0.03
0.02
0.045
0.03
0.02
0.02
0.04
0.02
-0.005
-0.08
0.015
0.04
-0.005
0.04
-0.01
-0.015
0.045
-0.005
0.02
0.1
0.055
0.06
0.0
0.015
-0.01
0.05
0.01
0.005
0.015
0.05
-0.02
0.01
0.025
0.01
0.03
0.1
0.07
0.065
0.05
0.07
0.03
0.015
0.025
0.01
0.02
0.055
0.02
0.06
0.02
0.025
0.0
0.075
0.065
0.01
0.005
0.08
0.045
0.075
0.055
0.065
0.08
0.075
0.06
0.07
0.03
0.025
-0.03
0.015
-0.02
0.005
0.045
0.035
0.03
0.075
0.05
0.04
0.03
0.045
0.09
0.075
0.05
0.08
0.025
0.03
0.065
0.075
0.025
0.07
0.15
0.12
0.115
0.205
0.145
0.12
0.11
0.12
0.095
0.125
0.1
0.09
0.075
0.13
0.1
0.12
0.14
0.105
0.155
0.145
0.085
0.065
0.085
0.105
0.11
0.05
0.07
0.08
0.055
0.07
0.12
0.115
0.065
0.075
0.025
0.08
0.11
0.07
0.12
0.07
0.055
0.1
0.135
0.12
0.085
0.07
0.08
0.08
0.125
0.095
0.09
0.135
0.185
0.185
0.155
0.085
0.11
0.125
0.155
0.29
0.32
0.35
0.43
0.525
0.64
0.78
0.905
1.025
1.055
0.95
0.85
0.715
0.595
0.545
0.375
0.185
0.17
0.155
0.17
0.185
0.165
0.105
0.125
0.155
0.17
0.165
0.17
0.195
0.135
0.08
0.08
0.07
0.17
0.14
0.095
0.07
0.1
0.05
0.06
0.125
0.14
0.08
0.115
0.14
0.11
0.065
0.125
0.115
0.155
0.135
0.175
0.13
0.145
0.2
0.19
0.125
0.21
0.11
0.14
0.135
0.14
0.13
0.205
0.185
0.19
0.205
0.14
0.14
0.12
0.145
0.13
0.135
0.18
0.13
0.165
0.185
0.25
0.21
0.23
0.225
0.19
0.16
0.195
0.21
0.185
0.22
0.145
0.21
0.19
0.16
0.185
0.215
0.245
0.21
0.23
0.235
0.255
0.215
0.2
0.265
0.24
0.19
0.26
0.255
0.245
0.28
0.355
0.335
0.325
0.34
0.345
0.27
0.34
0.355
0.345
0.335
0.335
0.29
0.345
0.385
0.385
0.385
0.41
0.405
0.415
0.415
0.44
0.395
0.415
0.38
0.35
0.355
0.39
0.41
0.395
0.39
0.425
0.385
0.36
0.33
0.38
0.345
0.34
0.37
0.41
0.375
0.34
0.3
0.265
0.31
0.34
0.255
0.235
0.255
0.3
0.285
0.26
0.225
0.215
0.23
0.17
0.27
0.3
0.26
0.18
0.155
0.175
0.17
0.19
0.12
0.205
0.285
0.255
0.18
0.175
0.21
0.225
0.22
0.225
0.19
0.17
0.25
0.24
0.195
0.185
0.19
0.205
0.18
0.18
0.16
0.165
0.18
0.185
0.21
0.16
0.205
0.245
0.245
0.22
0.21
0.15
0.16
0.25
0.21
0.22
0.19
0.17
0.205
0.2
0.185
0.23
0.29
0.255
0.245
0.22
0.235
0.2
0.155
0.22
0.18
0.23
0.23
0.275
0.27
0.21
0.225
0.245
0.235
0.225
0.24
0.25
0.265
0.245
0.23
0.275
0.31
0.295
0.29
0.255
0.21
0.24
0.24
0.245
0.22
0.265
0.275
0.225
0.245
0.265
0.205
0.215
0.255
0.23
0.27
0.24
0.225
0.22
0.225
0.25
0.265
0.305
0.305
0.245
0.225
0.275
0.25
0.215
0.225
0.22
0.265
0.255
0.24
0.245
0.28
0.34
0.25
0.205
0.255
0.255
0.2
0.18
0.24
0.225
0.215
0.215
0.215
0.23
0.22
0.25
0.28
0.285
0.265
0.315
0.345
0.305
0.245
0.305
0.295
0.215
0.28
0.325
0.31
0.3
0.355
0.375
0.235
0.22
0.245
0.24
0.205
0.14
0.22
0.265
0.235
0.23
0.22
0.215
0.26
0.225
0.225
0.25
0.275
0.23
0.19
0.215
0.18
0.245
0.225
0.2
0.21
0.23
0.245
0.225
0.195
0.17
0.18
0.24
0.25
0.22
0.205
0.26
0.33
0.3
0.27
0.29
0.225
0.27
0.265
0.34
0.415
0.54
0.61
0.65
0.695
0.785
0.815
0.935
1.05
1.025
0.98
0.93
0.805
0.785
0.59
0.405
0.285
0.325
0.35
0.29
0.265
0.285
0.26
0.255
0.265
0.25
0.235
0.26
0.27
0.24
0.27
0.28
0.265
0.27
0.245
0.28
0.23
0.235
0.225
0.23
0.26
0.27
0.285
0.26
0.275
0.325
0.28
0.24
0.265
0.255
0.29
0.33
0.335
0.32
0.295
0.315
0.33
0.295
0.34
0.265
0.22
0.275
0.305
0.27
0.32
0.325
0.295
0.31
0.365
0.305
0.265
0.33
0.305
0.295
0.31
0.38
0.335
0.32
0.29
0.275
0.36
0.33
0.34
0.365
0.34
0.315
0.305
0.335
0.345
0.345
0.33
0.39
0.375
0.345
0.35
0.33
0.35
0.365
0.345
0.345
0.415
0.415
0.415
0.445
0.425
0.43
0.46
0.455
0.435
0.36
0.435
0.5
0.46
0.47
0.51
0.515
0.54
0.535
0.48
0.485
0.48
0.48
0.515
0.56
0.49
0.45
0.53
0.525
0.5
0.5
0.555
0.56
0.48
0.46
0.505
0.51
0.495
0.545
0.49
0.48
0.52
0.49
0.46
0.4
0.405
0.385
0.375
0.305
0.335
0.345
0.345
0.345
0.335
0.39
0.43
0.34
0.4
0.36
0.325
0.3
0.325
0.32
0.34
0.325
0.32
0.335
0.365
0.35
0.26
0.26
0.305
0.345
0.25
0.22
0.255
0.225
0.28
0.285
0.29
0.245
0.235
0.25
0.275
0.285
0.275
0.33
0.305
0.24
0.22
0.23
0.255
0.25
0.24
0.245
0.25
0.205
0.225
0.22
0.305
0.3
0.335
0.305
0.29
0.29
0.23
0.27
0.285
0.25
0.25
0.25
0.275
0.29
0.305
0.265
0.265
0.245
0.225
0.185
0.23
0.245
0.305
0.275
0.295
0.31
0.25
0.255
0.29
0.235
0.22
0.255
0.3
0.275
0.3
0.28
0.26
0.235
0.255
0.265
0.24
0.255
0.29
0.25
0.255
0.245
0.235
0.27
0.29
0.24
0.23
0.23
0.225
0.235
0.265
0.28
0.25
0.25
0.265
0.285
0.22
0.285
0.25
0.25
0.27
0.235
0.215
0.23
0.275
0.27
0.265
0.265
0.29
0.285
0.23
0.29
0.27
0.26
0.295
0.305
0.27
0.245
0.29
0.26
0.215
0.275
0.295
0.3
0.22
0.26
0.245
0.335
0.295
0.325
0.33
0.345
0.34
0.32
0.31
0.29
0.27
0.335
0.345
0.275
0.285
0.26
0.26
0.295
0.31
0.25
0.195
0.29
0.275
0.27
0.25
0.23
0.23
0.235
0.215
0.215
0.235
0.24
0.265
0.29
0.26
0.3
0.235
0.26
0.245
0.27
0.255
0.255
0.245
0.23
0.205
0.21
0.19
0.225
0.215
0.195
0.24
0.27
0.3
0.345
0.26
0.315
0.29
0.3
0.33
0.435
0.46
0.53
0.695
0.715
0.865
0.98
1.075
1.245
1.16
1.015
0.93
0.865
0.78
0.66
0.48
0.435
0.39
0.37
0.405
0.395
0.375
0.34
0.35
0.305
0.26
0.215
0.19
0.215
0.205
0.225
0.265
0.26
0.205
0.245
0.24
0.22
0.245
0.255
0.255
0.22
0.245
0.23
0.23
0.27
0.28
0.205
0.21
0.235
0.245
0.18
0.275
0.27
0.205
0.165
0.225
0.195
0.205
0.225
0.21
0.21
0.275
0.26
0.29
0.235
0.225
0.23
0.265
0.27
0.225
0.24
0.265
0.27
0.25
0.23
0.235
0.215
0.205
0.23
0.26
0.23
0.275
0.25
0.26
0.215
0.27
0.28
0.27
0.23
0.2
0.23
0.305
0.26
0.235
0.24
0.255
0.295
0.3
0.305
0.295
0.26
0.32
0.32
0.315
0.31
0.315
0.315
0.325
0.365
0.37
0.38
0.365
0.33
0.39
0.44
0.305
0.345
0.4
0.425
0.445
0.425
0.435
0.45
0.405
0.39
0.435
0.415
0.46
0.42
0.43
0.44
0.435
0.465
0.435
0.405
0.37
0.4
0.38
0.395
0.375
0.4
0.39
0.395
0.365
0.34
0.355
0.3
0.355
0.33
0.325
0.315
0.355
0.32
0.26
0.24
0.3
0.25
0.285
0.24
0.245
0.27
0.32
0.28
0.3
0.265
0.25
0.25
0.28
0.24
0.23
0.195
0.225
0.195
0.22
0.23
0.23
0.235
0.255
0.25
0.22
0.25
0.255
0.21
0.225
0.215
0.26
0.23
0.225
0.21
0.205
0.22
0.23
0.26
0.23
0.245
0.18
0.2
0.225
0.215
0.26
0.245
0.24
0.18
0.175
0.21
0.215
0.235
0.185
0.23
0.215
0.18
0.24
0.255
0.235
0.245
0.22
0.16
0.25
0.23
0.22
0.26
0.17
0.23
0.25
0.25
0.215
0.245
0.225
0.2
0.175
0.18
0.205
0.235
0.225
0.2
0.195
0.21
0.22
0.185
0.2
0.205
0.23
0.24
0.205
0.205
0.15
0.185
0.205
0.18
0.195
0.25
0.26
0.225
0.235
0.26
0.205
0.225
0.245
0.225
0.21
0.2
0.175
0.2
0.23
0.225
0.205
0.175
0.155
0.225
0.215
0.255
0.28
0.23
0.185
0.23
0.235
0.235
0.145
0.125
0.155
0.235
0.24
0.23
0.24
0.225
0.16
0.17
0.225
0.175
0.145
0.115
0.225
0.22
0.23
0.26
0.2
0.185
0.19
0.22
0.22
0.245
0.265
0.255
0.26
0.27
0.22
0.29
0.275
0.245
0.225
0.25
0.265
0.27
0.275
0.24
0.205
0.2
0.16
0.175
0.23
0.225
0.23
0.19
0.185
0.195
0.14
0.18
0.255
0.21
0.18
0.215
0.215
0.195
0.175
0.175
0.13
0.125
0.16
0.135
0.14
0.185
0.19
0.19
0.24
0.205
0.165
0.205
0.17
0.12
0.155
0.185
0.175
0.16
0.23
0.14
0.145
0.225
0.2
0.215
0.405
0.52
0.585
0.655
0.775
0.85
0.995
1.185
1.23
1.09
1.01
0.835
0.705
0.565
0.445
0.335
0.205
0.255
0.265
0.265
0.285
0.3
0.27
0.195
0.26
0.205
0.155
0.16
0.11
0.115
0.14
0.13
0.055
0.08
0.14
0.11
0.125
0.115
0.13
0.145
0.145
0.12
0.095
0.15
0.1
0.06
0.115
0.135
0.115
0.085
0.09
0.11
0.15
0.145
0.105
0.07
0.11
0.115
0.13
0.135
0.13
0.145
0.145
0.1
0.12
0.135
0.085
0.13
0.13
0.135
0.18
0.155
0.145
0.13
0.195
0.15
0.15
0.13
0.11
0.12
0.18
0.15
0.165
0.195
0.135
0.145
0.155
0.19
0.14
0.125
0.185
0.195
0.17
0.215
0.235
0.18
0.2
0.2
0.14
0.125
0.19
0.21
0.185
0.21
0.245
0.24
0.225
0.245
0.22
0.25
0.285
0.245
0.23
0.25
0.27
0.285
0.315
0.325
0.29
0.315
0.32
0.295
0.345
0.345
0.3
0.32
0.345
0.36
0.32
0.4
0.41
0.37
0.415
0.36
0.29
0.315
0.345
0.355
0.35
0.335
0.295
0.32
0.335
0.325
0.25
0.255
0.275
0.25
0.19
0.25
0.195
0.21
0.195
0.205
0.2
0.125
0.135
0.16
0.155
0.15
0.16
0.155
0.105
0.11
0.1
0.1
0.125
0.095
0.08
0.105
0.08
0.095
0.12
0.19
0.115
0.15
0.165
0.14
0.09
0.135
0.105
0.125
0.125
0.1
0.11
0.105
0.085
0.095
0.1
0.145
0.16
0.145
0.065
0.14
0.17
0.14
0.16
0.17
0.125
0.15
0.085
0.045
0.105
0.07
0.095
0.13
0.115
0.085
0.075
0.075
0.075
0.06
0.115
0.065
0.095
0.11
0.125
0.125
0.125
0.095
0.09
0.1
0.09
0.065
0.085
0.075
0.07
0.06
0.09
0.125
0.15
0.095
0.03
0.08
0.08
0.08
0.085
0.105
0.095
0.07
0.04
0.095
0.11
0.105
0.1
0.11
0.08
0.055
0.03
0.095
0.075
0.085
0.08
0.08
0.07
0.075
0.035
0.035
0.08
0.09
0.11
0.085
0.09
0.09
0.07
0.085
0.095
0.1
0.07
0.085
0.065
0.07
0.035
0.045
-0.02
0.025
0.075
0.005
0.025
0.045
0.03
0.035
0.08
0.065
0.06
0.04
0.025
0.03
0.06
0.085
0.02
0.03
0.075
0.09
0.05
0.08
0.075
0.065
0.03
0.005
0.035
0.065
0.06
0.055
0.085
0.085
0.035
0.075
0.05
0.075
0.11
0.115
0.125
0.085
0.04
0.015
0.09
0.08
0.1
0.09
0.055
0.06
0.055
0.05
0.015
0.035
0.065
0.02
0.035
0.035
0.03
0.015
0.035
-0.015
-0.03
-0.015
-0.005
0.03
-0.03
-0.025
-0.005
0.025
0.03
0.0
-0.035
-0.04
-0.045
-0.04
-0.03
-0.005
-0.03
-0.02
-0.035
-0.045
0.01
0.035
-0.015
0.015
0.02
-0.015
0.0
0.02
0.035
0.01
0.005
-0.015
0.005
0.065
0.155
0.265
0.295
0.34
0.445
0.505
0.64
0.77
0.95
1.04
0.965
0.83
0.68
0.595
0.46
0.305
0.175
0.085
0.015
0.05
0.125
0.095
0.08
0.095
0.08
0.055
0.06
0.055
-0.01
0.055
0.025
-0.055
-0.05
-0.04
-0.03
-0.005
-0.02
-0.035
-0.025
0.015
0.025
-0.005
-0.015
-0.045
-0.085
-0.085
0.0
-0.005
0.005
-0.005
0.005
-0.025
-0.03
-0.02
-0.015
-0.01
-0.025
0.005
-0.06
-0.015
0.01
0.04
-0.03
0.005
0.03
0.01
0.015
-0.01
-0.01
-0.01
0.04
0.05
0.065
0.055
0.01
0.015
0.025
0.005
-0.005
0.01
-0.01
0.02
0.015
0.025
0.05
0.065
0.04
0.07
0.015
0.025
0.085
0.1
0.015
0.04
-0.01
0.03
0.025
0.06
0.1
0.115
0.115
0.12
0.11
0.125
0.12
0.115
0.095
0.075
0.12
0.17
0.185
0.135
0.195
0.175
0.18
0.225
0.215
0.145
0.19
0.18
0.18
0.205
0.205
0.2
0.225
0.28
0.26
0.255
0.23
0.225
0.2
0.23
0.245
0.27
0.26
0.265
0.215
0.2
0.195
0.25
0.24
0.215
0.22
0.2
0.155
0.18
0.165
0.16
0.14
0.145
0.105
0.12
0.125
0.17
0.105
0.09
0.075
0.03
0.025
0.085
0.07
0.12
0.1
0.05
-0.035
0.0
0.045
0.07
0.025
0.045
0.06
0.03
0.025
-0.015
0.015
0.02
0.05
0.045
0.015
0.005
-0.005
0.0
-0.005
0.015
-0.01
0.02
0.005
0.005
0.055
0.02
-0.015
-0.015
0.03
-0.01
-0.005
0.0
0.005
-0.01
-0.005
-0.045
-0.02
0.04
0.105
0.085
0.045
-0.005
-0.065
-0.045
-0.025
0.0
-0.015
-0.03
-0.01
0.03
-0.025
-0.015
-0.015
0.0
0.035
0.045
0.0
0.02
-0.015
-0.03
0.005
-0.03
0.02
0.01
0.03
0.01
0.0
-0.04
-0.02
-0.035
-0.06
-0.045
-0.045
-0.035
0.055
0.055
0.01
0.035
0.03
-0.005
-0.05
-0.02
-0.055
0.01
0.04
0.055
0.04
0.015
0.0
0.0
0.0
-0.02
-0.055
-0.02
-0.005
-0.025
-0.035
0.01
0.07
-0.025
-0.035
0.04
0.005
-0.035
-0.005
-0.01
-0.015
0.0
-0.01
-0.05
0.0
-0.005
-0.035
-0.035
-0.02
0.0
-0.01
0.03
0.01
-0.005
-0.015
-0.04
-0.05
-0.025
0.025
0.0
0.005
0.02
0.0
0.0
-0.065
-0.035
0.0
0.015
0.065
0.005
0.01
0.04
0.035
0.0
-0.015
0.005
-0.02
0.02
0.05
-0.01
0.035
0.01
0.035
0.02
0.03
0.075
0.075
0.025
0.065
0.11
0.11
0.045
0.065
0.07
0.065
0.035
0.035
0.055
0.08
0.055
0.02
0.02
0.015
0.02
-0.015
-0.015
-0.08
-0.065
-0.055
0.01
0.04
-0.025
0.02
-0.01
-0.01
-0.02
-0.03
-0.005
-0.02
-0.035
0.0
0.02
-0.03
-0.025
0.02
-0.005
-0.05
0.0
0.005
-0.005
-0.01
-0.025
-0.025
-0.01
-0.03
0.005
-0.01
0.015
0.025
0.025
0.005
0.105
0.195
0.245
0.3
0.34
0.47
0.615
0.73
0.835
1.04
1.055
0.875
0.735
0.585
0.495
0.37
0.265
0.14
0.09
0.08
0.075
0.09
0.045
0.06
0.06
0.04
0.07
-0.005
-0.04
-0.08
-0.06
-0.01
-0.025
-0.035
-0.055
-0.085
-0.065
-0.035
-0.01
-0.025
-0.02
-0.05
-0.02
-0.05
-0.005
-0.015
-0.035
-0.07
-0.075
-0.02
-0.035
-0.075
-0.06
-0.015
-0.08
-0.105
-0.02
-0.035
-0.05
-0.01
0.025
0.0
0.005
0.04
0.0
-0.02
-0.04
0.015
0.03
0.025
0.03
-0.005
0.0
0.0
-0.02
-0.01
0.02
0.04
-0.035
0.015
0.05
0.0
0.025
0.025
0.015
0.035
0.075
0.055
0.03
0.105
0.115
0.095
0.035
0.025
0.075
0.065
0.09
0.125
0.125
0.11
0.1
0.075
0.12
0.16
0.14
0.19
0.205
0.135
0.155
0.2
0.215
0.205
0.185
0.225
0.145
0.21
0.24
0.23
0.255
0.245
0.205
0.23
0.29
0.255
0.275
0.285
0.335
0.38
0.3
0.285
0.34
0.31
0.29
0.3
0.275
0.235
0.265
0.24
0.26
0.29
0.27
0.23
0.275
0.22
0.22
0.21
0.265
0.21
0.205
0.165
0.165
0.205
0.165
0.175
0.13
0.185
0.165
0.14
0.13
0.13
0.06
0.08
0.085
0.065
0.115
0.145
0.15
0.155
0.105
0.1
0.04
0.05
0.07
0.1
0.025
0.04
0.065
0.15
0.07
0.06
0.075
0.055
0.065
0.08
0.075
0.09
0.09
0.14
0.125
0.15
0.095
0.05
0.045
0.085
0.09
0.08
0.04
0.085
0.075
0.09
0.065
0.05
0.045
0.055
0.085
0.075
0.08
0.045
0.065
0.09
0.07
0.08
0.08
0.065
0.085
0.065
0.085
0.08
0.065
0.075
0.05
0.05
0.08
0.04
0.02
0.06
0.07
0.15
0.16
0.165
0.04
0.07
0.085
0.07
0.095
0.095
0.06
0.07
0.105
0.065
0.06
0.075
0.115
0.1
0.01
0.1
0.09
0.145
0.085
0.11
0.125
0.13
0.06
0.055
0.095
0.125
0.08
0.115
0.175
0.115
0.06
0.105
0.07
0.075
0.055
0.075
0.125
0.07
0.045
0.07
0.085
0.07
0.105
0.13
0.11
0.09
0.075
0.085
0.13
0.13
0.095
0.125
0.08
0.025
0.06
0.11
0.08
0.06
0.105
0.145
0.135
0.155
0.115
0.065
0.13
0.11
0.11
0.095
0.1
0.08
0.125
0.175
0.2
0.155
0.135
0.1
0.09
0.17
0.18
0.115
0.125
0.17
0.18
0.095
0.11
0.13
0.095
0.115
0.11
0.08
0.125
0.15
0.1
0.09
0.07
0.045
0.02
0.07
0.07
0.07
0.025
-0.005
-0.005
0.095
0.06
0.075
-0.01
0.02
0.07
0.03
0.02
0.02
-0.01
0.01
0.095
0.105
0.035
0.02
0.025
0.035
0.025
0.01
0.045
0.025
0.08
0.05
0.09
0.08
0.075
0.085
0.16
0.24
0.225
0.325
0.475
0.565
0.66
0.775
0.88
1.0
0.93
0.74
0.625
0.525
0.415
0.295
0.11
0.025
0.045
0.02
0.04
0.035
-0.035
0.01
0.06
0.015
0.045
0.03
-0.02
-0.095
-0.03
-0.015
-0.03
-0.04
-0.015
-0.015
-0.005
0.02
0.025
0.0
-0.035
-0.02
-0.045
-0.06
-0.025
-0.045
-0.03
0.005
-0.02
-0.02
0.03
0.0
0.005
0.035
-0.02
-0.05
0.01
0.02
0.01
-0.015
-0.045
-0.05
0.005
0.045
-0.01
-0.03
-0.025
-0.005
0.02
0.015
-0.02
-0.04
-0.02
-0.025
-0.02
0.005
0.005
0.04
0.0
-0.025
0.06
0.05
-0.035
-0.03
0.015
-0.01
0.03
-0.01
-0.055
-0.025
0.0
0.025
0.035
0.065
0.07
0.095
0.055
0.025
0.01
0.04
0.09
0.085
0.08
0.125
0.13
0.14
0.125
0.155
0.12
0.095
0.09
0.14
0.16
0.15
0.19
0.195
0.205
0.205
0.195
0.195
0.205
0.13
0.095
0.155
0.215
0.25
0.195
0.24
0.2
0.205
0.225
0.24
0.225
0.255
0.265
0.26
0.225
0.19
0.18
0.155
0.205
0.225
0.165
0.145
0.135
0.115
0.13
0.145
0.125
0.15
0.115
0.12
0.1
0.115
0.085
0.09
0.075
0.125
0.07
0.04
0.04
0.05
0.05
-0.005
-0.01
0.015
0.035
0.02
-0.025
-0.025
0.01
-0.01
-0.025
-0.01
0.035
0.045
0.07
0.07
0.03
-0.02
-0.025
-0.01
0.025
0.015
0.005
0.01
0.025
0.025
0.015
-0.01
0.01
-0.055
0.035
0.005
0.005
-0.05
0.01
0.055
0.015
0.06
0.065
0.01
0.035
0.04
0.03
-0.005
0.02
0.035
-0.045
-0.075
-0.02
0.015
0.055
0.08
0.04
-0.005
0.015
0.04
0.05
0.03
0.01
0.0
0.03
0.085
0.09
0.1
0.105
0.085
-0.015
0.03
0.05
0.0
0.005
0.02
0.06
0.12
0.115
0.0
-0.01
0.025
0.035
0.065
-0.015
0.045
0.115
0.135
0.11
0.065
0.035
0.005
-0.045
-0.05
0.025
0.025
0.05
0.065
0.06
0.04
-0.01
0.0
-0.01
-0.015
-0.025
0.04
0.085
-0.04
-0.045
-0.04
-0.075
-0.05
0.01
-0.02
-0.035
-0.01
0.01
-0.02
0.01
-0.015
-0.02
-0.05
-0.035
-0.02
-0.035
-0.015
0.005
-0.04
0.005
-0.04
-0.005
0.04
0.045
0.0
0.045
0.04
0.035
0.045
0.045
-0.045
-0.035
-0.045
-0.06
-0.12
-0.065
-0.02
0.01
0.035
-0.03
-0.115
-0.1
-0.08
-0.09
-0.125
-0.05
-0.035
-0.03
-0.07
-0.07
-0.105
-0.14
-0.1
-0.125
-0.09
-0.035
0.0
-0.03
-0.015
-0.115
-0.13
-0.015
-0.015
-0.085
-0.1
-0.075
-0.07
-0.16
-0.14
-0.075
-0.07
-0.06
-0.075
-0.08
-0.02
0.02
0.04
0.065
0.055
0.085
0.145
0.23
0.23
0.31
0.425
0.49
0.53
0.71
0.685
0.61
0.525
0.475
0.42
0.225
0.17
0.0
-0.04
-0.03
-0.065
-0.05
-0.025
-0.03
-0.065
-0.04
-0.04
-0.055
-0.095
-0.085
-0.055
-0.055
-0.075
-0.06
-0.065
-0.1
-0.11
-0.05
-0.095
-0.085
-0.05
-0.06
-0.075
-0.065
-0.01
-0.06
-0.085
-0.115
-0.06
0.0
-0.055
-0.04
-0.07
-0.095
-0.09
-0.095
-0.115
-0.095
-0.085
-0.095
-0.015
-0.03
-0.06
-0.05
-0.07
-0.1
-0.015
-0.01
-0.025
-0.04
-0.025
-0.07
-0.05
-0.055
-0.045
-0.035
-0.005
-0.065
-0.095
-0.075
-0.06
-0.08
-0.01
-0.025
-0.03
-0.035
-0.01
-0.035
-0.015
0.015
-0.01
-0.035
-0.055
-0.055
-0.055
-0.025
-0.02
0.035
0.05
-0.045
0.025
0.005
0.015
0.035
0.03
0.075
0.135
0.075
0.085
0.07
0.07
0.035
0.08
0.11
0.145
0.155
0.13
0.11
0.085
0.06
0.0
0.145
0.16
0.195
0.195
0.13
0.17
0.15
0.195
0.16
0.095
0.125
0.06
0.135
0.1
0.065
0.125
0.165
0.165
0.175
0.125
0.045
0.03
0.06
0.05
0.04
0.04
0.02
0.02
0.065
0.025
-0.04
-0.035
0.0
-0.025
-0.03
-0.025
-0.015
-0.045
-0.04
-0.065
-0.07
-0.125
-0.09
-0.08
-0.06
-0.06
-0.04
-0.095
-0.065
-0.075
-0.12
-0.135
-0.09
-0.055
-0.065
-0.12
-0.105
-0.04
-0.06
-0.145
-0.145
-0.065
-0.115
-0.145
-0.165
-0.1
-0.085
-0.15
-0.15
-0.115
-0.145
-0.14
-0.115
-0.085
-0.105
-0.115
-0.125
-0.115
-0.12
-0.13
-0.145
-0.105
-0.18
-0.17
-0.12
-0.095
-0.085
-0.13
-0.18
-0.18
-0.125
-0.13
-0.12
-0.145
-0.175
-0.17
-0.135
-0.14
-0.13
-0.12
-0.12
-0.13
-0.175
-0.17
-0.11
-0.095
-0.13
-0.145
-0.135
-0.145
-0.12
-0.13
-0.095
-0.11
-0.135
-0.115
-0.13
-0.15
-0.12
-0.09
-0.1
-0.115
-0.15
-0.13
-0.065
-0.125
-0.185
-0.115
-0.105
-0.215
-0.16
-0.2
-0.175
-0.135
-0.085
-0.14
-0.16
-0.19
-0.155
-0.1
-0.14
-0.055
-0.09
-0.11
-0.09
-0.12
-0.125
-0.12
-0.125
-0.17
-0.13
-0.09
-0.15
-0.115
-0.065
-0.12
-0.13
-0.125
-0.07
-0.08
-0.055
-0.035
-0.105
-0.08
-0.075
-0.095
-0.065
-0.055
-0.09
-0.09
-0.12
-0.135
-0.17
-0.1
-0.025
-0.155
-0.235
-0.205
-0.22
-0.195
-0.11
-0.065
-0.09
-0.125
-0.11
-0.21
-0.21
-0.17
-0.15
-0.175
-0.11
-0.13
-0.195
-0.165
-0.095
-0.12
-0.19
-0.175
-0.15
-0.16
-0.165
-0.1
-0.155
-0.195
-0.175
-0.15
-0.155
-0.15
-0.14
-0.1
-0.075
-0.08
-0.1
-0.035
-0.04
-0.01
-0.01
0.095
0.12
0.13
0.205
0.305
0.375
0.455
0.61
0.67
0.64
0.5
0.37
0.285
0.135
0.04
-0.05
-0.09
-0.105
-0.16
-0.1
-0.055
-0.09
-0.09
-0.085
-0.11
-0.125
-0.135
-0.11
-0.125
-0.14
-0.15
-0.185
-0.2
-0.15
-0.17
-0.14
-0.155
-0.21
-0.2
-0.14
-0.125
-0.115
-0.14
-0.145
-0.165
-0.155
-0.12
-0.14
-0.15
-0.195
-0.13
-0.145
-0.115
-0.155
-0.21
-0.19
-0.11
-0.12
-0.19
-0.14
-0.13
-0.145
-0.14
-0.125
-0.1
-0.09
-0.155
-0.13
-0.115
-0.185
-0.165
-0.205
-0.195
-0.2
-0.195
-0.255
-0.16
-0.09
-0.12
-0.145
-0.11
-0.13
-0.145
-0.14
-0.11
-0.155
-0.16
-0.165
-0.185
-0.14
-0.1
-0.09
-0.115
-0.16
-0.125
-0.11
-0.04
-0.055
-0.09
-0.13
-0.11
-0.085
-0.07
-0.075
-0.09
-0.08
0.025
-0.005
-0.055
-0.035
-0.105
-0.04
-0.05
-0.02
0.03
-0.005
0.005
-0.01
0.015
-0.005
0.005
0.05
0.0
-0.01
-0.03
0.025
0.05
0.025
0.01
0.06
0.05
0.04
0.115
0.075
0.09
0.035
-0.02
-0.07
-0.08
0.0
-0.015
0.015
0.005
-0.045
-0.06
-0.03
-0.045
-0.06
-0.06
-0.06
-0.16
-0.11
-0.07
-0.075
-0.12
-0.13
-0.08
-0.155
-0.095
-0.11
-0.165
-0.165
-0.17
-0.22
-0.205
-0.13
-0.115
-0.105
-0.13
-0.165
-0.155
-0.18
-0.215
-0.145
-0.17
-0.17
-0.135
-0.1
-0.11
-0.12
-0.125
-0.09
-0.195
-0.205
-0.2
-0.18
-0.155
-0.125
-0.2
-0.175
-0.18
-0.15
-0.14
-0.205
-0.21
-0.17
-0.195
-0.2
-0.18
-0.185
-0.17
-0.235
-0.205
-0.205
-0.165
-0.125
-0.15
-0.155
-0.18
-0.14
-0.19
-0.235
-0.195
-0.185
-0.17
-0.2
-0.18
-0.15
-0.15
-0.17
-0.175
-0.165
-0.2
-0.195
-0.18
-0.14
-0.15
-0.15
-0.13
-0.12
-0.16
-0.165
-0.19
-0.18
-0.17
-0.17
-0.15
-0.135
-0.17
-0.155
-0.21
-0.27
-0.19
-0.16
-0.165
-0.155
-0.175
-0.135
-0.175
-0.2
-0.16
-0.15
-0.125
-0.15
-0.16
-0.14
-0.17
-0.13
-0.185
-0.215
-0.19
-0.265
-0.215
-0.2
-0.215
-0.19
-0.185
-0.125
-0.14
-0.135
-0.18
-0.11
-0.195
-0.205
-0.23
-0.25
-0.19
-0.18
-0.165
-0.135
-0.16
-0.135
-0.185
-0.21
-0.17
-0.145
-0.15
-0.185
-0.18
-0.2
-0.175
-0.1
-0.185
-0.155
-0.15
-0.17
-0.125
-0.165
-0.195
-0.18
-0.17
-0.155
-0.155
-0.175
-0.15
-0.13
-0.155
-0.095
-0.09
-0.085
-0.06
-0.08
-0.115
-0.115
-0.1
-0.145
-0.175
-0.18
-0.155
-0.16
-0.175
-0.155
-0.125
-0.165
-0.15
-0.15
-0.16
-0.15
-0.185
-0.235
-0.255
-0.225
-0.16
-0.175
-0.18
-0.15
-0.16
-0.21
-0.2
-0.185
-0.19
-0.16
-0.195
-0.225
-0.225
-0.23
-0.19
-0.18
-0.155
-0.185
-0.17
-0.24
-0.165
-0.16
-0.17
-0.11
-0.14
-0.12
-0.065
-0.06
-0.065
-0.005
0.1
0.16
0.27
0.37
0.455
0.545
0.715
0.735
0.74
0.595
0.485
0.385
0.3
0.215
0.075
-0.045
-0.075
-0.145
-0.115
-0.1
-0.1
-0.12
-0.095
-0.07
-0.095
-0.095
-0.155
-0.19
-0.19
-0.205
-0.25
-0.195
-0.17
-0.2
-0.2
-0.19
-0.185
-0.205
-0.175
-0.165
-0.21
-0.22
-0.165
-0.235
-0.175
-0.17
-0.165
-0.165
-0.205
-0.19
-0.17
-0.235
-0.2
-0.185
-0.23
-0.18
-0.175
-0.155
-0.2
-0.195
-0.205
-0.205
-0.225
-0.22
-0.205
-0.16
-0.155
-0.145
-0.15
-0.17
-0.19
-0.19
-0.2
-0.175
-0.19
-0.17
-0.155
-0.2
-0.21
-0.185
-0.19
-0.12
-0.125
-0.175
-0.165
-0.14
-0.14
-0.14
-0.145
-0.17
-0.175
-0.135
-0.14
-0.135
-0.09
-0.1
-0.13
-0.115
-0.09
-0.07
-0.125
-0.075
-0.11
-0.05
-0.05
-0.1
-0.11
-0.095
-0.035
-0.05
-0.055
-0.05
-0.04
0.0
-0.01
-0.01
0.035
0.01
-0.03
0.005
0.0
0.01
0.045
-0.015
0.05
0.025
0.04
0.045
0.055
0.045
0.055
0.03
0.04
0.035
0.03
0.115
0.015
-0.02
0.015
-0.025
-0.04
-0.065
-0.045
-0.035
-0.075
-0.03
-0.065
-0.065
-0.055
-0.07
-0.08
-0.075
-0.085
-0.14
-0.125
-0.1
-0.135
-0.12
-0.135
-0.17
-0.205
-0.17
-0.14
-0.13
-0.155
-0.145
-0.155
-0.16
-0.14
-0.215
-0.195
-0.205
-0.215
-0.185
-0.17
-0.175
-0.205
-0.155
-0.155
-0.225
-0.24
-0.225
-0.195
-0.2
-0.195
-0.21
-0.18
-0.165
-0.185
-0.2
-0.16
-0.17
-0.21
-0.215
-0.165
-0.225
-0.205
-0.18
-0.16
-0.185
-0.155
-0.135
-0.185
-0.145
-0.215
-0.19
-0.21
-0.195
-0.2
-0.215
-0.195
-0.21
-0.2
-0.26
-0.245
-0.205
-0.19
-0.17
-0.165
-0.165
-0.16
-0.23
-0.26
-0.25
-0.22
-0.19
-0.175
-0.21
-0.18
-0.225
-0.225
-0.215
-0.245
-0.21
-0.15
-0.19
-0.19
-0.205
-0.2
-0.19
-0.165
-0.155
-0.155
-0.185
-0.22
-0.245
-0.19
-0.165
-0.145
-0.17
-0.205
-0.175
-0.145
-0.16
-0.15
-0.19
-0.23
-0.175
-0.22
-0.23
-0.185
-0.135
-0.175
-0.125
-0.165
-0.135
-0.24
-0.205
-0.205
-0.185
-0.14
-0.205
-0.18
-0.185
-0.195
-0.15
-0.135
-0.165
-0.185
-0.23
-0.245
-0.235
-0.225
-0.245
-0.195
-0.18
-0.205
-0.2
-0.235
-0.215
-0.225
-0.165
-0.185
-0.24
-0.145
-0.195
-0.215
-0.195
-0.205
-0.23
-0.205
-0.2
-0.22
-0.195
-0.17
-0.21
-0.195
-0.18
-0.215
-0.16
-0.145
-0.135
-0.12
-0.185
-0.155
-0.205
-0.215
-0.22
-0.2
-0.155
-0.115
-0.1
-0.065
-0.115
-0.1
-0.13
-0.095
-0.105
-0.165
-0.185
-0.17
-0.14
-0.125
-0.115
-0.145
-0.195
-0.135
-0.14
-0.19
-0.19
-0.18
-0.125
-0.195
-0.18
-0.13
-0.18
-0.17
-0.185
-0.205
-0.21
-0.19
-0.17
-0.21
-0.18
-0.205
-0.255
-0.28
-0.26
-0.28
-0.205
-0.185
-0.215
-0.165
-0.195
-0.19
-0.19
-0.17
-0.205
-0.225
-0.215
-0.19
-0.18
-0.14
-0.1
-0.185
-0.15
-0.205
-0.12
-0.065
0.02
0.06
0.14
0.225
0.37
0.49
0.605
0.75
0.855
0.79
0.62
0.485
0.365
0.26
0.19
0.025
-0.065
-0.1
-0.08
-0.07
-0.075
-0.055
-0.075
-0.13
-0.135
-0.2
-0.24
-0.225
-0.23
-0.225
-0.205
-0.19
-0.215
-0.26
-0.235
-0.23
-0.22
-0.265
-0.305
-0.235
-0.2
-0.2
-0.235
-0.18
-0.17
-0.185
-0.165
-0.22
-0.215
-0.17
-0.21
-0.245
-0.265
-0.245
-0.21
-0.215
-0.23
-0.215
-0.215
-0.175
-0.15
-0.235
-0.24
-0.21
-0.245
-0.2
-0.19
-0.235
-0.2
-0.215
-0.13
-0.14
-0.105
-0.16
-0.225
-0.215
-0.185
-0.23
-0.225
-0.225
-0.2
-0.22
-0.185
-0.1
-0.09
-0.16
-0.13
-0.14
-0.14
-0.14
-0.145
-0.185
-0.18
-0.17
-0.145
-0.16
-0.135
-0.165
-0.205
-0.105
-0.075
-0.06
-0.11
-0.13
-0.145
-0.11
-0.07
-0.085
-0.1
-0.02
-0.035
-0.07
-0.04
-0.045
0.0
0.01
0.045
0.06
0.005
-0.06
0.0
0.015
0.045
0.04
0.015
0.03
0.035
0.01
0.02
0.045
0.06
0.06
0.085
0.075
0.055
-0.015
0.0
0.065
-0.005
-0.02
0.01
-0.015
0.015
0.04
0.045
-0.03
-0.1
-0.095
-0.07
-0.07
-0.06
-0.12
-0.115
-0.045
-0.125
-0.085
-0.095
-0.145
-0.13
-0.095
-0.115
-0.115
-0.11
-0.12
-0.165
-0.175
-0.155
-0.125
-0.14
-0.11
-0.13
-0.175
-0.21
-0.19
-0.195
-0.2
-0.16
-0.21
-0.16
-0.185
-0.105
-0.145
-0.19
-0.145
-0.155
-0.13
-0.12
-0.145
-0.16
-0.17
-0.14
-0.145
-0.14
-0.185
-0.18
-0.16
-0.19
-0.175
-0.19
-0.115
-0.12
-0.15
-0.21
-0.165
-0.165
-0.165
-0.205
-0.15
-0.135
-0.175
-0.155
-0.155
-0.165
-0.17
-0.205
-0.175
-0.19
-0.215
-0.24
-0.145
-0.155
-0.21
-0.2
-0.18
-0.18
-0.195
-0.215
-0.185
-0.18
-0.16
-0.16
-0.19
-0.22
-0.2
-0.195
-0.14
-0.13
-0.205
-0.16
-0.155
-0.1
-0.145
-0.16
-0.165
-0.2
-0.14
-0.22
-0.235
-0.16
-0.125
-0.155
-0.15
-0.165
-0.165
-0.175
-0.195
-0.17
-0.2
-0.22
-0.13
-0.12
-0.125
-0.155
-0.16
-0.14
-0.19
-0.15
-0.205
-0.195
-0.175
-0.205
-0.155
-0.2
-0.22
-0.225
-0.205
-0.175
-0.155
-0.155
-0.135
-0.14
-0.14
-0.18
-0.19
-0.22
-0.19
-0.14
-0.18
-0.185
-0.185
-0.175
-0.185
-0.155
-0.15
-0.16
-0.15
-0.135
-0.145
-0.13
-0.145
-0.16
-0.21
-0.145
-0.17
-0.15
-0.205
-0.185
-0.175
-0.145
-0.155
-0.155
-0.145
-0.18
-0.175
-0.125
-0.15
-0.17
-0.17
-0.155
-0.115
-0.08
-0.12
-0.125
-0.19
-0.18
-0.15
-0.135
-0.17
-0.17
-0.125
-0.155
-0.1
-0.095
-0.065
-0.07
-0.055
-0.12
-0.155
-0.09
-0.09
-0.04
-0.085
-0.1
-0.18
-0.19
-0.195
-0.145
-0.07
-0.075
-0.075
-0.11
-0.135
-0.165
-0.205
-0.165
-0.16
-0.18
-0.185
-0.17
-0.15
-0.17
-0.2
-0.17
-0.155
-0.105
-0.135
-0.155
-0.15
-0.14
-0.17
-0.165
-0.155
-0.175
-0.18
-0.22
-0.21
-0.245
-0.185
-0.14
-0.165
-0.14
-0.16
-0.11
-0.095
-0.1
-0.16
-0.195
-0.195
-0.13
-0.115
-0.095
-0.05
0.075
0.09
0.2
0.28
0.285
0.39
0.57
0.77
0.86
0.805
0.67
0.595
0.475
0.35
0.21
0.1
-0.05
-0.155
-0.115
-0.095
-0.06
-0.11
-0.14
-0.13
-0.165
-0.14
-0.12
-0.215
-0.22
-0.215
-0.23
-0.17
-0.15
-0.18
-0.235
-0.24
-0.19
-0.205
-0.215
-0.18
-0.275
-0.26
-0.185
-0.23
-0.175
-0.14
-0.205
-0.175
-0.185
-0.145
-0.16
-0.195
-0.195
-0.155
-0.165
-0.14
-0.145
-0.14
-0.18
-0.22
-0.235
-0.175
-0.185
-0.195
-0.135
-0.15
-0.205
-0.175
-0.23
-0.215
-0.21
-0.22
-0.23
-0.145
-0.145
-0.11
-0.115
-0.17
-0.19
-0.14
-0.145
-0.19
-0.18
-0.17
-0.165
-0.16
-0.12
-0.095
-0.175
-0.16
-0.145
-0.095
-0.09
-0.15
-0.1
-0.105
-0.15
-0.11
-0.115
-0.08
-0.155
-0.105
-0.12
-0.115
-0.1
-0.03
-0.03
-0.04
-0.06
-0.01
-0.075
-0.06
-0.005
-0.01
-0.055
0.05
0.025
0.02
0.045
0.04
-0.025
0.02
0.06
0.055
0.065
0.08
0.085
0.09
0.06
0.04
0.035
0.07
0.04
0.05
-0.005
0.08
0.055
0.04
0.045
0.05
0.03
0.035
0.01
-0.015
-0.01
-0.01
-0.015
-0.045
-0.05
-0.03
-0.1
-0.06
-0.065
-0.055
-0.065
-0.065
-0.05
-0.105
-0.075
-0.085
-0.115
-0.16
-0.12
-0.145
-0.14
-0.12
-0.11
-0.11
-0.11
-0.135
-0.18
-0.17
-0.145
-0.19
-0.14
-0.17
-0.115
-0.205
-0.17
-0.16
-0.185
-0.16
-0.16
-0.165
-0.205
-0.17
-0.155
-0.14
-0.165
-0.135
-0.155
-0.15
-0.195
-0.205
-0.17
-0.175
-0.155
-0.16
-0.125
-0.12
-0.155
-0.22
-0.245
-0.215
-0.175
-0.155
-0.145
-0.14
-0.12
-0.095
-0.195
-0.215
-0.185
-0.195
-0.15
-0.165
-0.205
-0.19
-0.12
-0.17
-0.19
-0.165
-0.205
-0.195
-0.185
-0.135
-0.19
-0.17
-0.145
-0.175
-0.16
-0.145
-0.195
-0.155
-0.16
-0.135
-0.175
-0.155
-0.175
-0.165
-0.215
-0.22
-0.215
-0.18
-0.15
-0.12
-0.155
-0.16
-0.11
-0.185
-0.2
-0.19
-0.155
-0.225
-0.18
-0.185
-0.14
-0.105
-0.135
-0.18
-0.205
-0.23
-0.185
-0.135
-0.11
-0.095
-0.175
-0.16
-0.17
-0.145
-0.215
-0.235
-0.235
-0.19
-0.18
-0.175
-0.17
-0.155
-0.15
-0.145
-0.185
-0.14
-0.2
-0.185
-0.12
-0.14
-0.135
-0.155
-0.185
-0.19
-0.205
-0.235
-0.21
-0.17
-0.14
-0.115
-0.135
-0.18
-0.2
-0.175
-0.23
-0.175
-0.175
-0.18
-0.14
-0.185
-0.145
-0.135
-0.16
-0.145
-0.16
-0.19
-0.165
-0.14
-0.135
-0.17
-0.17
-0.13
-0.115
-0.14
-0.095
-0.105
-0.15
-0.175
-0.13
-0.13
-0.125
-0.1
-0.12
-0.11
-0.1
-0.16
-0.165
-0.09
-0.1
-0.095
-0.125
-0.11
-0.09
-0.105
-0.11
-0.135
-0.125
-0.075
-0.075
-0.06
-0.105
-0.12
-0.08
-0.11
-0.165
-0.18
-0.215
-0.235
-0.14
-0.12
-0.13
-0.105
-0.13
-0.185
-0.135
-0.14
-0.17
-0.155
-0.16
-0.16
-0.135
-0.14
-0.11
-0.09
-0.11
-0.135
-0.19
-0.2
-0.14
-0.16
-0.12
-0.095
-0.17
-0.185
-0.145
-0.115
-0.165
-0.135
-0.09
-0.12
-0.135
-0.105
-0.175
-0.145
-0.04
0.06
0.09
0.225
0.315
0.42
0.475
0.615
0.74
0.86
0.835
0.645
0.515
0.43
0.375
0.22
0.06
-0.03
-0.1
-0.095
-0.015
-0.01
-0.04
-0.055
-0.085
-0.095
-0.09
-0.145
-0.145
-0.15
-0.15
-0.21
-0.195
-0.135
-0.165
-0.185
-0.17
-0.185
-0.225
-0.115
-0.17
-0.19
-0.195
-0.13
-0.15
-0.21
-0.18
-0.155
-0.19
-0.17
-0.155
-0.17
-0.205
-0.135
-0.135
-0.17
-0.15
-0.16
-0.135
-0.155
-0.175
-0.19
-0.195
-0.18
-0.11
-0.1
-0.095
-0.11
-0.105
-0.105
-0.16
-0.22
-0.165
-0.095
-0.14
-0.2
-0.145
-0.145
-0.215
-0.16
-0.16
-0.135
-0.11
-0.055
-0.12
-0.135
-0.135
-0.075
-0.145
-0.125
-0.125
-0.135
-0.105
-0.08
-0.07
-0.065
-0.055
-0.08
-0.125
-0.04
-0.03
-0.025
-0.025
-0.015
-0.04
-0.04
-0.105
-0.055
-0.055
-0.015
-0.025
-0.055
-0.035
-0.005
0.055
0.04
0.015
0.045
0.05
0.08
0.085
0.065
0.1
0.09
0.095
0.135
0.105
0.145
0.105
0.085
0.13
0.085
0.08
0.04
0.045
0.085
0.105
0.09
0.105
0.125
0.09
0.105
0.085
0.115
0.04
0.035
0.035
-0.025
0.015
0.005
-0.025
-0.06
-0.03
-0.025
0.02
-0.015
-0.03
0.0
-0.04
-0.07
-0.11
-0.15
-0.05
-0.085
-0.07
-0.12
-0.08
-0.09
-0.08
-0.16
-0.165
-0.125
-0.12
-0.11
-0.095
-0.15
-0.135
-0.16
-0.115
-0.075
-0.07
-0.105
-0.14
-0.105
-0.095
-0.1
-0.14
-0.155
-0.16
-0.135
-0.105
-0.115
-0.12
-0.09
-0.09
-0.1
-0.115
-0.14
-0.095
-0.12
-0.12
-0.125
-0.135
-0.19
-0.15
-0.12
-0.105
-0.11
-0.135
-0.09
-0.115
-0.155
-0.105
-0.105
-0.11
-0.085
-0.1
-0.185
-0.16
-0.105
-0.13
-0.06
-0.105
-0.13
-0.085
-0.145
-0.135
-0.115
-0.09
-0.12
-0.11
-0.085
-0.095
-0.1
-0.16
-0.06
-0.07
-0.135
-0.105
-0.115
-0.105
-0.09
-0.08
-0.065
-0.08
-0.08
-0.06
-0.1
-0.095
-0.11
-0.205
-0.17
-0.215
-0.225
-0.29
-0.38
-0.445
-0.525
-0.525
-0.45
-0.49
-0.49
-0.46
-0.475
-0.405
-0.425
-0.455
-0.525
-0.46
-0.45
-0.455
-0.45
-0.445
-0.455
-0.42
-0.415
-0.465
-0.425
-0.42
-0.37
-0.41
-0.45
-0.425
-0.415
-0.37
-0.335
-0.375
-0.36
-0.355
-0.365
-0.35
-0.315
-0.295
-0.305
-0.285
-0.22
-0.235
-0.23
-0.27
-0.22
-0.195
-0.18
-0.18
-0.175
-0.22
-0.24
-0.25
-0.215
-0.22
-0.19
-0.18
-0.185
-0.125
-0.155
-0.2
-0.165
-0.16
-0.165
-0.14
-0.185
-0.18
-0.185
-0.115
-0.11
-0.085
-0.11
-0.115
-0.11
-0.095
-0.035
-0.06
-0.06
0.03
-0.08
-0.095
-0.105
-0.085
-0.085
-0.09
-0.09
-0.145
-0.135
-0.105
-0.135
-0.125
-0.06
-0.07
-0.09
-0.085
-0.125
-0.1
-0.045
-0.05
-0.125
-0.135
-0.095
-0.135
-0.11
-0.105
-0.225
-0.15
-0.12
-0.11
-0.145
-0.125
-0.09
-0.115
-0.12
-0.22
-0.18
-0.15
-0.125
-0.1
-0.11
-0.07
-0.075
-0.115
-0.105
-0.095
-0.145
-0.09
0.0
0.08
0.13
0.17
0.275
0.36
0.505
0.62
0.695
0.825
0.87
0.745
0.59
0.465
0.38
0.25
0.125
0.05
-0.11
-0.025
-0.015
-0.035
-0.04
-0.005
-0.02
-0.015
-0.005
-0.045
-0.17
-0.115
-0.09
-0.095
-0.14
-0.14
-0.12
-0.185
-0.165
-0.08
-0.165
-0.11
-0.085
-0.09
-0.09
-0.085
-0.135
-0.115
-0.135
-0.13
-0.145
-0.11
-0.065
-0.065
-0.1
-0.06
-0.075
-0.065
-0.115
-0.12
-0.12
-0.05
-0.035
-0.075
-0.065
0.0
-0.11
-0.075
-0.095
-0.045
-0.07
-0.09
-0.08
-0.05
-0.055
-0.08
-0.105
-0.09
-0.105
-0.04
-0.045
-0.125
-0.1
-0.06
-0.055
-0.03
-0.065
-0.055
-0.005
0.01
-0.02
-0.04
-0.065
-0.055
-0.03
0.005
-0.04
-0.04
-0.01
0.0
0.0
-0.015
0.005
0.015
-0.01
0.04
0.03
0.025
-0.005
0.005
0.045
0.08
0.04
0.1
0.13
0.095
0.065
0.16
0.125
0.095
0.12
0.17
0.15
0.165
0.185
0.19
0.145
0.12
0.165
0.18
0.175
0.175
0.175
0.185
0.165
0.205
0.195
0.11
0.155
0.17
0.165
0.18
0.16
0.19
0.135
0.085
0.13
0.16
0.145
0.05
0.05
0.055
0.035
0.085
0.08
0.045
0.045
0.055
-0.015
-0.025
0.005
0.04
0.045
0.02
-0.005
-0.02
-0.035
-0.045
-0.02
-0.04
-0.04
-0.06
-0.06
-0.01
-0.03
-0.035
-0.07
-0.05
-0.045
-0.055
-0.045
-0.04
-0.075
-0.01
-0.02
-0.01
-0.05
-0.1
-0.11
-0.11
-0.075
-0.015
-0.03
-0.07
-0.075
-0.055
-0.04
-0.05
-0.095
-0.105
-0.06
-0.05
-0.055
-0.08
-0.04
-0.035
-0.035
-0.02
-0.11
-0.075
-0.045
-0.01
0.0
-0.045
-0.06
-0.065
-0.055
-0.08
-0.1
-0.105
-0.05
-0.05
-0.05
-0.05
-0.04
-0.03
-0.04
-0.055
-0.04
-0.055
-0.08
-0.005
-0.06
-0.035
-0.05
-0.075
-0.075
-0.03
-0.075
-0.055
-0.055
-0.055
-0.085
-0.05
-0.025
-0.025
-0.075
-0.08
-0.025
-0.01
-0.02
-0.01
0.035
0.035
-0.025
-0.045
-0.02
-0.075
-0.105
-0.05
-0.055
-0.04
-0.04
-0.03
0.01
-0.03
-0.05
-0.07
-0.09
-0.08
-0.035
-0.01
-0.045
-0.045
-0.04
-0.045
-0.04
-0.04
-0.02
-0.065
-0.025
-0.07
-0.065
-0.03
-0.025
-0.02
-0.01
-0.045
-0.02
-0.07
-0.04
-0.045
-0.095
-0.03
0.0
-0.085
-0.005
0.045
0.005
-0.03
-0.065
-0.01
-0.04
0.035
0.1
0.105
0.09
0.01
0.04
0.025
0.025
0.07
0.025
-0.035
0.01
0.055
0.0
-0.04
-0.045
-0.01
-0.025
-0.025
-0.06
-0.03
0.005
-0.04
0.005
-0.01
-0.085
-0.095
-0.02
0.0
-0.025
-0.005
0.005
0.01
-0.02
-0.005
-0.07
-0.03
-0.05
-0.035
-0.025
-0.025
-0.045
-0.13
-0.095
-0.02
0.02
-0.005
-0.025
-0.025
-0.005
-0.005
0.0
-0.01
-0.01
-0.015
0.04
0.085
0.09
0.125
0.195
0.205
0.305
0.445
0.51
0.63
0.71
0.9
1.005
0.935
0.78
0.645
0.47
0.36
0.26
0.195
0.065
0.09
0.105
0.05
0.09
0.13
0.08
0.035
-0.05
-0.02
-0.02
0.0
-0.04
0.035
0.01
-0.05
-0.04
-0.04
-0.05
-0.05
-0.01
-0.07
-0.065
-0.02
-0.005
-0.03
-0.075
-0.05
-0.065
-0.095
-0.015
-0.02
-0.045
-0.045
-0.07
0.0
0.01
0.0
-0.02
-0.01
-0.045
-0.03
-0.035
0.005
-0.01
0.05
-0.02
-0.04
-0.045
-0.03
0.04
0.055
0.005
0.025
0.01
0.06
-0.035
-0.045
-0.085
-0.045
-0.005
0.025
-0.02
-0.03
-0.045
-0.025
0.0
-0.02
-0.025
-0.015
-0.01
0.06
0.055
0.035
0.1
0.045
0.04
0.025
0.055
0.045
0.045
0.04
0.07
0.11
0.09
0.05
0.07
0.09
0.105
0.155
0.16
0.1
0.08
0.175
0.175
0.12
0.155
0.15
0.18
0.18
0.18
0.145
0.17
0.215
0.21
0.17
0.195
0.215
0.25
0.175
0.235
0.265
0.215
0.215
0.21
0.155
0.195
0.185
0.195
0.175
0.25
0.235
0.17
0.155
0.18
0.16
0.16
0.185
0.145
0.1
0.155
0.12
0.115
0.05
0.035
0.015
0.025
0.07
0.065
0.06
0.105
0.08
0.05
0.045
-0.035
0.01
0.01
-0.01
-0.005
-0.02
0.035
0.03
0.02
0.015
0.02
0.01
0.02
-0.035
-0.055
-0.035
-0.03
-0.02
0.01
0.015
0.075
0.04
-0.015
0.025
-0.065
-0.065
-0.095
-0.025
-0.01
-0.055
-0.035
-0.03
0.005
-0.015
0.01
0.02
0.04
-0.015
-0.01
0.005
-0.04
-0.055
-0.08
-0.05
0.0
-0.045
0.025
0.03
0.02
0.005
-0.01
-0.02
-0.005
-0.07
-0.035
-0.045
-0.04
-0.03
0.01
0.015
0.05
0.035
0.02
0.025
-0.05
-0.065
-0.035
-0.015
0.015
0.035
-0.035
-0.04
-0.025
-0.045
-0.005
0.01
0.03
0.01
0.005
0.005
0.04
-0.035
-0.05
-0.015
-0.07
-0.01
0.0
0.025
-0.055
0.01
-0.005
-0.04
-0.025
0.0
0.03
0.08
0.02
0.01
0.02
-0.02
0.01
-0.03
-0.055
-0.09
-0.095
0.0
0.035
0.055
-0.02
0.015
0.055
0.03
-0.01
0.035
0.005
0.015
-0.01
0.025
0.045
0.055
0.015
0.025
0.105
0.11
0.05
0.08
0.075
0.03
0.1
0.095
0.035
0.025
0.07
0.04
0.035
0.07
0.065
0.07
0.08
0.07
0.02
0.005
0.025
0.0
-0.03
0.005
0.045
-0.03
-0.02
0.06
0.05
0.055
-0.02
0.0
0.01
-0.015
0.01
0.01
-0.005
0.01
0.005
-0.025
-0.015
-0.035
0.005
0.045
-0.01
0.01
-0.015
-0.07
-0.075
-0.03
0.03
-0.025
0.005
0.055
0.065
0.03
0.045
0.04
0.07
0.205
0.27
0.31
0.35
0.5
0.575
0.64
0.82
0.97
1.025
0.83
0.65
0.525
0.45
0.295
0.185
0.065
0.01
0.045
0.055
0.03
0.065
0.05
0.025
0.07
0.085
0.04
0.0
-0.01
-0.04
-0.03
-0.045
-0.02
-0.02
-0.065
-0.015
0.015
-0.02
-0.02
-0.03
-0.055
-0.04
-0.01
-0.015
0.0
-0.01
-0.05
-0.015
0.0
0.01
-0.025
-0.035
-0.06
-0.05
0.01
-0.025
-0.025
-0.01
-0.005
0.01
-0.015
-0.03
0.015
-0.005
-0.005
0.03
0.015
0.01
-0.05
-0.01
0.025
0.06
0.05
-0.07
-0.015
0.015
-0.02
0.015
0.055
0.085
0.05
0.065
0.055
0.065
0.05
0.05
0.035
0.095
0.105
0.025
-0.015
0.02
-0.045
0.07
0.085
0.03
0.035
0.035
0.085
0.09
0.175
0.09
0.09
0.14
0.13
0.115
0.155
0.09
0.1
0.115
0.12
0.125
0.14
0.19
0.245
0.235
0.17
0.21
0.19
0.19
0.155
0.2
0.22
0.245
0.265
0.24
0.225
0.25
0.31
0.26
0.245
0.245
0.165
0.175
0.205
0.235
0.245
0.255
0.23
0.235
0.215
0.185
0.12
0.13
0.21
0.155
0.15
0.165
0.145
0.16
0.155
0.095
0.1
0.11
0.065
0.06
0.105
0.065
0.02
0.075
0.035
0.055
0.03
0.065
0.0
-0.035
0.01
0.01
0.03
0.04
-0.09
0.0
0.0
0.01
-0.01
-0.055
-0.045
0.0
-0.015
-0.025
-0.035
-0.02
0.03
0.085
0.025
0.01
-0.005
-0.02
0.005
-0.06
-0.015
-0.055
-0.02
0.015
-0.01
-0.02
-0.02
0.005
-0.01
0.015
0.005
0.02
-0.05
-0.03
-0.05
-0.01
0.0
0.0
-0.01
-0.025
-0.005
0.01
0.01
0.055
0.055
0.065
-0.005
-0.005
-0.05
-0.06
-0.05
-0.05
0.015
0.025
0.0
0.015
0.02
-0.015
-0.03
-0.015
0.035
0.0
-0.015
-0.025
-0.005
-0.005
-0.015
0.0
-0.015
-0.025
0.015
-0.05
-0.01
0.0
0.0
0.015
-0.015
-0.05
-0.01
-0.015
0.005
0.015
0.0
-0.02
-0.005
-0.04
0.035
0.01
0.045
0.01
-0.025
-0.06
-0.04
-0.055
-0.035
-0.08
-0.04
-0.055
-0.055
-0.035
-0.04
0.0
0.07
0.04
0.015
-0.01
0.0
-0.035
-0.035
-0.055
-0.025
-0.05
-0.05
-0.01
0.01
0.005
0.08
-0.055
-0.015
0.01
0.015
0.015
0.05
0.045
0.015
-0.01
0.035
0.035
0.03
-0.01
-0.02
-0.005
0.06
-0.035
-0.025
-0.055
-0.04
-0.06
-0.09
-0.025
-0.04
-0.06
-0.045
-0.04
0.0
-0.105
-0.07
-0.025
-0.04
-0.095
-0.095
-0.06
-0.005
-0.07
-0.08
-0.095
-0.07
-0.06
-0.01
-0.035
-0.065
-0.06
-0.04
-0.045
-0.08
-0.04
-0.04
-0.03
-0.02
0.0
-0.085
-0.02
-0.01
0.035
0.015
0.075
0.155
0.13
0.26
0.37
0.47
0.56
0.66
0.825
0.92
0.915
0.77
0.605
0.505
0.43
0.26
0.16
0.095
0.105
0.115
-0.01
-0.005
0.02
0.01
-0.025
-0.115
-0.065
-0.04
-0.06
-0.075
-0.07
-0.055
-0.035
-0.05
-0.08
-0.135
-0.11
-0.035
-0.07
-0.075
-0.04
-0.04
-0.065
-0.09
-0.055
-0.105
-0.055
-0.02
-0.075
-0.095
-0.065
-0.12
-0.09
-0.07
-0.09
-0.065
-0.095
-0.07
-0.05
-0.025
0.015
-0.055
-0.07
-0.05
-0.07
-0.1
-0.05
-0.04
-0.05
-0.08
-0.06
-0.075
-0.06
-0.06
-0.02
0.01
-0.03
-0.065
-0.06
-0.03
-0.055
-0.09
-0.08
-0.06
-0.04
0.015
0.045
-0.01
-0.02
0.015
0.01
-0.035
-0.045
-0.075
-0.045
0.025
0.06
0.035
0.04
0.08
0.085
0.04
0.045
0.06
-0.005
0.07
0.065
0.08
0.105
0.085
0.085
0.095
0.09
0.065
0.055
0.055
0.155
0.195
0.19
0.15
0.14
0.18
0.19
0.205
0.2
0.18
0.175
0.165
0.165
0.185
0.225
0.17
0.18
0.18
0.21
0.18
0.17
0.205
0.22
0.205
0.19
0.145
0.145
0.175
0.15
0.095
0.08
0.125
0.11
0.05
0.035
0.02
0.075
0.1
0.045
0.04
0.085
0.03
0.015
0.02
0.065
0.015
0.005
0.01
-0.035
-0.055
-0.05
-0.04
-0.03
-0.01
0.03
0.035
-0.01
-0.025
0.005
0.015
-0.07
-0.045
-0.035
-0.045
-0.055
-0.045
-0.075
-0.005
0.045
0.055
0.02
-0.05
-0.045
-0.03
-0.085
-0.095
-0.075
-0.06
-0.02
-0.015
-0.025
0.015
0.025
0.01
-0.04
-0.07
-0.085
-0.04
-0.035
0.0
0.02
-0.055
-0.03
-0.03
-0.05
-0.03
0.0
-0.04
-0.065
-0.035
-0.015
0.005
-0.005
-0.045
-0.015
0.005
-0.07
-0.045
-0.05
-0.025
-0.06
0.0
-0.055
-0.035
-0.085
-0.02
-0.04
-0.02
0.005
-0.005
-0.045
-0.07
-0.05
-0.015
-0.05
-0.055
-0.035
-0.025
-0.075
-0.03
-0.025
0.035
-0.01
-0.025
-0.05
-0.025
-0.02
-0.025
-0.07
-0.01
-0.025
-0.085
-0.075
-0.03
-0.035
-0.065
-0.045
-0.055
-0.035
0.005
0.035
0.02
0.0
0.005
-0.02
-0.095
-0.14
-0.105
-0.05
-0.045
-0.04
-0.035
-0.015
0.03
-0.035
-0.03
0.02
0.0
-0.025
0.015
-0.015
0.0
0.0
0.025
0.035
0.005
-0.02
-0.025
0.01
0.065
0.065
-0.01
0.0
-0.065
-0.09
-0.035
-0.06
-0.115
-0.04
-0.015
-0.035
-0.03
-0.03
-0.07
-0.11
-0.085
-0.1
-0.065
-0.075
-0.06
-0.05
-0.03
-0.015
-0.035
-0.025
-0.12
-0.105
-0.095
-0.085
-0.015
-0.02
-0.065
-0.05
-0.04
-0.04
-0.06
-0.06
-0.12
-0.08
-0.065
-0.055
-0.02
0.005
-0.04
0.01
0.18
0.225
0.275
0.35
0.48
0.585
0.63
0.82
0.885
0.915
0.8
0.67
0.525
0.395
0.275
0.17
0.045
0.02
0.035
-0.025
-0.04
-0.03
-0.03
0.015
0.01
-0.035
-0.035
-0.045
-0.065
-0.105
-0.12
-0.105
-0.125
-0.095
-0.115
-0.105
-0.14
-0.11
-0.07
-0.125
-0.12
-0.115
-0.115
-0.065
-0.085
-0.095
-0.075
-0.07
-0.075
-0.085
-0.1
-0.12
-0.125
-0.09
-0.09
-0.1
-0.12
-0.08
-0.115
-0.135
-0.13
-0.05
-0.055
-0.065
-0.06
-0.105
-0.14
-0.09
-0.085
-0.11
-0.065
-0.085
-0.12
-0.1
-0.1
-0.115
-0.145
-0.1
-0.09
-0.105
-0.085
-0.08
-0.105
-0.045
-0.005
-0.07
-0.07
-0.095
-0.12
-0.035
-0.02
-0.06
-0.05
-0.02
-0.075
-0.06
-0.005
-0.035
-0.055
-0.055
0.01
0.005
-0.02
-0.015
-0.015
-0.025
-0.01
0.05
-0.015
0.045
0.05
0.025
0.0
0.035
0.05
0.07
0.045
0.09
0.08
0.115
0.095
0.065
0.075
0.105
0.085
0.115
0.115
0.095
0.09
0.15
0.075
0.06
0.085
0.065
0.08
0.095
0.11
0.095
