# TIPE ECG 2021 - ECG-ID Database v1.0.0 par Physionet
# [Numéro de la personne, Période d'échantillonnage, Prénom, Age, Sexe, Date de l'enregistrement]
[29, 0.002, James, 40, H, 12.05.2005]
-0.135
-0.09
-0.075
-0.085
-0.115
-0.075
-0.06
-0.05
-0.07
-0.075
-0.105
-0.11
-0.095
-0.095
-0.1
-0.055
-0.03
-0.045
-0.055
-0.02
-0.11
-0.12
-0.045
-0.055
-0.09
-0.065
-0.08
-0.055
-0.045
-0.07
-0.05
-0.07
-0.055
-0.035
-0.08
-0.07
-0.035
-0.07
-0.065
0.035
-0.045
-0.05
-0.12
-0.1
-0.115
-0.04
-0.025
-0.065
-0.095
-0.065
-0.05
-0.065
-0.085
-0.065
0.025
-0.025
-0.065
-0.05
-0.04
-0.075
-0.12
-0.02
-0.04
-0.085
-0.06
-0.025
-0.07
-0.035
-0.025
-0.01
-0.05
-0.075
-0.025
-0.075
-0.035
-0.02
-0.05
-0.055
-0.025
-0.015
-0.12
-0.045
-0.04
-0.075
-0.055
-0.03
-0.005
-0.04
-0.05
-0.035
-0.055
-0.055
0.005
-0.075
-0.055
-0.02
-0.07
-0.04
-0.05
-0.07
-0.115
-0.06
-0.03
-0.065
-0.065
-0.04
-0.03
0.02
0.025
-0.035
-0.135
-0.07
-0.075
-0.07
-0.015
-0.015
-0.02
-0.01
-0.04
-0.085
-0.045
-0.045
-0.03
-0.07
-0.075
-0.055
-0.04
-0.085
-0.035
-0.045
-0.055
-0.06
-0.085
-0.115
-0.03
0.01
-0.03
-0.03
-0.045
-0.085
-0.055
-0.05
-0.06
-0.035
-0.035
-0.03
-0.05
0.025
0.01
-0.03
-0.06
-0.04
-0.055
-0.075
-0.06
0.025
0.02
-0.01
0.0
-0.07
-0.045
-0.065
-0.005
-0.055
-0.015
0.04
-0.04
0.025
0.015
-0.035
0.0
0.0
0.0
-0.035
0.015
-0.02
0.05
0.02
0.0
0.02
-0.04
0.0
-0.025
-0.005
-0.025
-0.01
-0.04
-0.075
-0.03
-0.04
-0.025
-0.04
-0.045
-0.03
0.01
-0.02
-0.04
-0.035
-0.02
-0.065
-0.105
-0.095
-0.09
-0.025
-0.055
-0.085
-0.045
-0.03
-0.07
-0.085
-0.07
-0.04
-0.035
0.01
0.035
0.03
-0.065
-0.02
0.01
-0.01
0.105
0.17
0.2
0.295
0.405
0.475
0.58
0.715
0.84
0.805
0.77
0.735
0.55
0.45
0.38
0.245
0.105
0.05
-0.015
-0.07
-0.03
-0.04
-0.035
-0.04
-0.005
-0.05
-0.07
-0.05
-0.095
-0.145
-0.16
-0.155
-0.18
-0.105
-0.09
-0.11
-0.105
-0.11
-0.09
-0.135
-0.175
-0.135
-0.135
-0.085
-0.1
-0.13
-0.12
-0.095
-0.145
-0.105
-0.1
-0.09
-0.12
-0.135
-0.12
-0.135
-0.12
-0.08
-0.1
-0.12
-0.085
-0.1
-0.12
-0.05
-0.095
-0.155
-0.105
-0.04
-0.05
-0.115
-0.125
-0.13
-0.13
-0.09
-0.05
-0.04
-0.1
-0.06
-0.075
-0.09
-0.06
-0.045
-0.04
-0.08
-0.08
-0.07
-0.065
-0.04
-0.11
-0.115
-0.1
-0.075
-0.045
-0.01
-0.025
-0.07
-0.03
0.005
-0.04
-0.005
-0.05
-0.05
0.005
0.025
0.015
0.005
0.01
0.05
-0.035
0.025
0.01
0.01
0.055
0.04
0.09
0.06
0.0
0.105
0.015
0.105
0.08
0.12
0.07
0.06
0.105
0.105
0.115
0.175
0.11
0.13
0.085
0.105
0.095
0.15
0.185
0.145
0.105
0.095
0.1
0.1
0.09
0.135
0.12
0.145
0.16
0.135
0.105
0.07
0.075
0.085
0.065
0.02
0.09
0.09
0.0
0.08
0.045
0.065
0.05
0.03
0.035
0.025
-0.065
-0.035
-0.055
0.015
0.045
0.03
-0.015
-0.025
-0.05
-0.07
-0.05
0.005
-0.01
-0.06
-0.055
0.02
-0.09
-0.04
-0.01
-0.05
0.0
0.015
-0.07
-0.055
-0.06
-0.03
0.01
-0.02
-0.05
-0.075
-0.09
-0.005
-0.02
0.0
-0.02
-0.09
-0.015
-0.05
-0.04
-0.075
-0.035
-0.01
-0.005
-0.005
-0.06
-0.04
-0.015
-0.07
-0.035
-0.075
0.0
-0.045
-0.05
-0.06
-0.02
-0.095
-0.05
-0.04
-0.025
0.0
0.02
0.035
0.045
0.0
-0.025
-0.01
-0.01
-0.09
-0.09
-0.07
-0.04
-0.045
-0.04
-0.01
-0.04
-0.02
-0.03
-0.035
-0.035
-0.06
0.015
-0.03
-0.015
-0.02
-0.01
-0.06
-0.05
-0.04
-0.065
-0.08
-0.05
-0.02
-0.035
-0.085
0.045
0.02
-0.03
0.005
-0.045
-0.015
-0.025
-0.045
-0.03
-0.04
-0.02
-0.025
-0.055
-0.06
-0.005
-0.015
0.045
-0.025
-0.065
-0.04
-0.025
-0.08
-0.08
-0.075
-0.06
-0.04
0.02
-0.025
-0.065
-0.025
-0.005
-0.005
-0.025
-0.045
-0.115
0.015
-0.005
-0.035
-0.015
-0.065
-0.06
-0.025
-0.035
-0.045
-0.05
-0.06
0.005
0.03
0.015
0.005
-0.04
-0.125
-0.05
-0.035
-0.005
0.0
0.05
-0.015
-0.065
-0.055
0.005
-0.065
-0.015
-0.005
-0.02
0.01
0.025
0.03
0.04
0.035
0.035
0.02
0.04
0.015
0.0
0.045
0.055
0.06
0.045
0.025
0.045
0.025
-0.02
0.03
0.03
0.03
0.045
0.085
0.07
0.075
0.04
0.02
0.015
0.035
0.005
-0.005
-0.02
-0.02
0.015
-0.07
-0.05
-0.045
0.015
0.035
-0.04
-0.015
-0.035
-0.01
-0.095
-0.05
-0.02
-0.045
-0.035
0.02
-0.055
-0.045
-0.005
-0.07
-0.05
-0.025
-0.04
-0.09
-0.035
0.05
0.05
0.055
0.035
0.01
0.015
0.0
0.005
0.065
0.145
0.225
0.26
0.34
0.42
0.535
0.655
0.78
0.905
0.95
0.83
0.695
0.555
0.485
0.34
0.235
0.135
0.085
0.09
0.05
0.045
0.065
0.085
0.075
0.03
0.015
0.045
0.055
0.0
-0.085
-0.14
-0.03
-0.02
-0.05
-0.11
-0.08
-0.005
-0.045
-0.065
-0.055
-0.105
-0.105
-0.03
0.025
-0.015
-0.05
-0.04
-0.055
-0.06
-0.055
-0.065
-0.085
-0.02
0.045
-0.02
-0.09
-0.02
-0.025
-0.015
-0.01
-0.04
-0.045
-0.025
-0.05
-0.045
-0.02
-0.015
-0.06
-0.1
-0.01
-0.015
-0.005
0.0
0.05
-0.01
-0.09
-0.1
-0.09
-0.045
0.01
-0.055
-0.04
0.03
0.01
0.01
-0.035
-0.015
-0.02
-0.02
0.015
-0.045
-0.05
0.05
0.0
-0.005
-0.005
0.02
0.03
0.055
0.005
0.035
-0.03
0.03
0.1
0.06
-0.02
0.09
0.1
0.065
0.08
0.055
0.045
0.08
0.13
0.14
0.14
0.14
0.15
0.125
0.11
0.185
0.155
0.19
0.205
0.185
0.165
0.185
0.145
0.155
0.185
0.2
0.12
0.195
0.195
0.25
0.195
0.205
0.14
0.14
0.205
0.195
0.13
0.13
0.145
0.14
0.12
0.09
0.105
0.17
0.155
0.13
0.09
0.085
0.06
0.03
0.12
0.075
0.05
0.085
0.095
0.04
0.09
0.015
0.025
0.025
0.01
0.01
-0.025
-0.045
0.025
0.01
0.005
-0.015
-0.005
0.08
0.07
-0.005
-0.085
-0.02
0.055
0.02
-0.055
-0.025
-0.035
0.01
-0.065
-0.02
0.015
0.02
-0.04
-0.07
-0.045
-0.02
-0.025
-0.005
-0.005
-0.01
-0.02
-0.065
-0.065
0.005
0.03
0.015
0.03
0.02
-0.015
-0.005
-0.035
0.005
-0.07
-0.06
-0.03
-0.045
-0.025
0.01
-0.005
-0.01
-0.07
-0.03
-0.03
0.0
-0.025
-0.035
0.025
-0.045
-0.03
-0.02
-0.045
-0.035
-0.03
-0.025
-0.05
-0.03
0.02
0.0
-0.015
0.02
0.025
-0.035
-0.02
-0.06
-0.05
-0.035
-0.095
-0.025
-0.005
-0.035
-0.025
0.0
-0.005
-0.065
-0.05
-0.035
-0.06
-0.065
-0.005
0.03
-0.08
-0.125
-0.035
-0.065
-0.07
-0.015
-0.025
0.03
-0.02
-0.03
-0.075
-0.085
-0.005
-0.04
-0.03
-0.01
-0.015
0.02
0.015
-0.03
-0.06
-0.03
-0.08
-0.07
-0.04
-0.085
-0.055
0.0
0.005
-0.015
-0.1
-0.085
-0.03
-0.065
0.005
-0.01
-0.06
-0.07
0.03
-0.05
0.0
0.02
-0.04
-0.085
-0.04
-0.01
-0.005
-0.065
-0.015
0.015
0.01
0.005
-0.085
-0.04
0.035
0.065
0.075
0.065
0.0
0.06
0.035
0.015
0.025
0.045
0.06
0.03
0.02
-0.01
0.015
0.005
-0.04
0.015
0.05
0.065
0.03
0.0
0.01
-0.03
-0.045
-0.015
-0.065
-0.085
-0.05
-0.03
0.015
-0.015
0.005
-0.02
-0.09
-0.085
-0.01
0.045
-0.065
-0.08
-0.025
-0.005
-0.055
-0.035
-0.08
-0.045
-0.06
-0.015
-0.02
0.01
0.03
0.0
-0.06
-0.02
-0.015
0.005
-0.015
-0.055
0.01
0.04
0.155
0.215
0.24
0.255
0.46
0.465
0.56
0.735
0.84
0.94
0.87
0.75
0.605
0.495
0.43
0.265
0.13
0.015
0.03
0.03
0.035
0.055
0.075
0.0
0.015
0.015
0.015
0.005
-0.025
-0.045
-0.005
-0.05
-0.07
-0.12
-0.08
-0.08
-0.08
-0.08
-0.05
0.0
-0.05
-0.125
-0.085
-0.09
-0.095
-0.06
0.045
0.03
-0.05
-0.035
-0.095
-0.05
-0.07
-0.075
-0.04
-0.01
-0.04
-0.045
-0.1
-0.035
-0.095
-0.05
-0.045
-0.03
-0.035
-0.055
-0.12
-0.085
-0.08
-0.005
0.005
0.005
0.0
-0.015
-0.055
-0.055
-0.14
-0.06
-0.045
-0.06
-0.04
-0.005
-0.03
-0.035
-0.065
-0.03
-0.04
-0.07
-0.015
0.005
0.02
-0.035
-0.045
-0.03
-0.055
-0.005
0.045
-0.015
0.0
0.015
-0.01
0.035
0.055
0.015
0.01
0.015
0.015
0.04
0.07
0.055
0.045
0.015
0.055
0.095
0.055
0.09
0.105
0.1
0.06
0.095
0.115
0.12
0.12
0.11
0.085
0.145
0.145
0.095
0.15
0.15
0.19
0.16
0.11
0.12
0.115
0.11
0.105
0.195
0.145
0.125
0.115
0.145
0.125
0.14
0.07
0.08
0.065
0.04
0.04
0.065
0.095
0.075
0.075
0.015
-0.02
0.055
0.045
0.005
0.025
0.03
-0.02
-0.06
0.015
-0.03
-0.115
-0.03
-0.025
-0.03
-0.03
0.0
-0.04
-0.03
-0.06
-0.1
-0.07
-0.05
-0.07
-0.08
-0.085
-0.055
-0.035
-0.035
-0.03
-0.055
-0.03
-0.075
-0.1
-0.12
-0.115
-0.1
-0.105
-0.05
-0.055
-0.045
-0.085
-0.035
-0.035
-0.1
-0.16
-0.075
-0.11
-0.09
-0.05
-0.09
-0.13
-0.05
-0.065
-0.065
-0.12
-0.065
-0.06
-0.055
-0.05
-0.06
-0.085
-0.135
-0.09
-0.11
-0.1
-0.06
-0.075
-0.045
-0.085
-0.115
-0.07
-0.075
-0.135
-0.105
-0.045
-0.065
-0.1
-0.055
-0.04
-0.11
-0.12
-0.05
-0.045
-0.13
-0.095
-0.065
-0.135
-0.13
-0.055
-0.075
-0.09
-0.045
-0.075
-0.02
-0.035
-0.065
-0.07
-0.095
-0.085
-0.11
-0.095
-0.145
-0.13
-0.09
-0.045
-0.035
-0.09
-0.09
-0.095
-0.16
-0.1
-0.1
-0.11
-0.075
-0.06
-0.095
-0.095
-0.105
-0.05
-0.095
-0.08
-0.08
-0.095
0.01
-0.075
-0.14
-0.155
-0.105
-0.075
-0.125
-0.08
-0.075
-0.13
-0.09
-0.075
-0.11
-0.075
-0.08
-0.105
-0.1
-0.1
-0.075
-0.11
-0.12
-0.12
-0.115
-0.04
-0.065
-0.095
-0.085
-0.04
-0.02
-0.05
-0.01
0.01
-0.015
-0.05
-0.025
-0.035
-0.035
-0.085
-0.04
-0.07
-0.035
0.01
-0.05
-0.055
-0.05
-0.055
-0.095
-0.09
-0.1
-0.16
-0.1
-0.135
-0.12
-0.085
-0.09
-0.11
-0.105
-0.085
-0.08
-0.14
-0.175
-0.115
-0.16
-0.12
-0.115
-0.115
-0.105
-0.165
-0.145
-0.16
-0.115
-0.065
-0.105
-0.125
-0.09
-0.105
-0.14
-0.145
-0.075
-0.105
-0.075
-0.085
-0.025
-0.065
-0.04
0.06
0.17
0.165
0.26
0.32
0.46
0.535
0.665
0.845
0.87
0.715
0.59
0.445
0.345
0.175
0.06
0.0
-0.025
-0.045
-0.045
-0.04
-0.02
0.02
-0.015
-0.12
-0.065
-0.135
-0.115
-0.12
-0.11
-0.16
-0.19
-0.135
-0.065
-0.14
-0.13
-0.13
-0.105
-0.13
-0.125
-0.185
-0.195
-0.14
-0.155
-0.175
-0.16
-0.155
-0.125
-0.05
-0.105
-0.145
-0.165
-0.165
-0.195
-0.145
-0.095
-0.09
-0.125
-0.125
-0.13
-0.175
-0.145
-0.125
-0.145
-0.125
-0.13
-0.085
-0.035
-0.105
-0.125
-0.135
-0.15
-0.14
-0.15
-0.09
-0.07
-0.095
-0.085
-0.095
-0.09
-0.07
-0.105
-0.095
-0.06
-0.105
-0.11
-0.11
-0.1
-0.095
-0.095
-0.085
-0.055
-0.06
-0.145
-0.035
-0.035
-0.01
0.03
-0.03
-0.08
-0.08
-0.03
-0.01
-0.015
-0.065
-0.05
0.03
0.065
0.05
0.04
-0.01
0.025
0.125
0.015
0.0
0.085
0.085
0.08
0.065
0.04
0.065
0.105
0.08
0.035
0.055
0.145
0.14
0.13
0.13
0.115
0.135
0.105
0.1
0.095
0.095
0.13
0.14
0.19
0.12
0.12
0.125
0.11
0.03
0.065
0.0
0.045
0.065
0.05
0.045
0.06
0.075
0.01
-0.015
-0.04
-0.015
0.03
0.05
0.015
0.045
-0.075
-0.085
-0.13
-0.055
-0.06
-0.025
-0.06
-0.05
-0.065
-0.055
-0.165
-0.075
-0.07
-0.095
-0.155
-0.085
-0.08
-0.07
-0.095
-0.09
-0.13
-0.1
-0.11
-0.055
-0.065
-0.075
-0.135
-0.165
-0.145
-0.12
-0.16
-0.13
-0.12
-0.12
-0.11
-0.045
-0.11
-0.14
-0.115
-0.095
-0.09
-0.095
-0.12
-0.1
-0.115
-0.07
-0.105
-0.08
-0.135
-0.13
-0.115
-0.125
-0.13
-0.085
-0.11
-0.08
-0.125
-0.025
-0.08
-0.11
-0.175
-0.145
-0.13
-0.125
-0.12
-0.115
-0.075
-0.065
-0.075
-0.065
-0.075
-0.08
-0.09
-0.2
-0.165
-0.055
-0.07
-0.09
-0.08
-0.095
-0.115
-0.075
-0.08
-0.11
-0.125
-0.075
-0.095
-0.125
-0.04
-0.06
-0.095
-0.12
-0.095
-0.13
-0.105
-0.065
-0.125
-0.065
-0.1
-0.085
-0.12
-0.145
-0.135
-0.145
-0.13
-0.11
-0.13
-0.105
-0.135
-0.075
-0.09
-0.135
-0.125
-0.085
-0.14
-0.085
-0.04
-0.125
-0.12
-0.14
-0.13
-0.075
-0.08
-0.135
-0.055
-0.055
-0.05
-0.06
-0.07
-0.13
-0.1
-0.06
-0.09
-0.16
-0.125
-0.125
-0.09
-0.065
-0.045
0.0
-0.01
-0.025
-0.03
-0.025
-0.02
-0.075
-0.09
-0.015
-0.04
-0.07
-0.065
-0.08
-0.12
-0.08
-0.035
-0.08
-0.15
-0.16
-0.08
-0.105
-0.085
-0.06
-0.15
-0.18
-0.095
-0.13
-0.135
-0.12
-0.11
-0.11
-0.12
-0.1
-0.125
-0.115
-0.07
-0.13
-0.145
-0.12
-0.08
-0.12
-0.07
-0.09
-0.09
-0.13
-0.15
-0.12
-0.125
-0.095
-0.025
-0.05
-0.08
-0.08
-0.09
-0.07
-0.065
0.06
0.14
0.125
0.23
0.36
0.47
0.44
0.62
0.78
0.805
0.775
0.625
0.46
0.475
0.255
0.085
0.025
-0.095
-0.11
-0.03
-0.04
-0.005
0.0
-0.05
-0.055
-0.05
-0.06
-0.12
-0.15
-0.13
-0.115
-0.15
-0.16
-0.14
-0.125
-0.145
-0.125
-0.105
-0.15
-0.11
-0.195
-0.175
-0.165
-0.155
-0.145
-0.12
-0.13
-0.13
-0.14
-0.07
-0.125
-0.125
-0.14
-0.135
-0.08
-0.14
-0.155
-0.14
-0.16
-0.12
-0.065
-0.125
-0.11
-0.16
-0.165
-0.16
-0.155
-0.145
-0.075
-0.08
-0.11
-0.115
-0.07
-0.075
-0.085
-0.145
-0.085
-0.085
-0.1
-0.09
-0.09
-0.08
-0.12
-0.11
-0.115
-0.085
-0.065
-0.065
-0.075
-0.085
-0.105
-0.05
-0.015
-0.065
-0.065
-0.035
-0.075
-0.105
-0.05
0.035
-0.05
-0.005
0.0
-0.015
-0.005
0.04
0.005
-0.035
0.01
0.04
-0.01
0.03
0.055
0.045
0.07
0.01
0.06
0.07
0.06
0.105
0.095
0.07
0.105
0.115
0.135
0.085
0.075
0.08
0.135
0.15
0.165
0.165
0.125
0.11
0.08
0.125
0.13
0.075
0.13
0.155
0.095
0.055
0.085
0.08
0.05
0.115
0.0
0.04
0.06
0.05
0.035
0.02
0.07
-0.015
-0.01
-0.045
-0.025
-0.03
0.0
-0.04
0.005
-0.015
-0.095
-0.035
-0.11
-0.095
-0.075
-0.14
-0.11
-0.085
-0.075
-0.06
-0.06
-0.02
-0.08
-0.12
-0.115
-0.185
-0.14
-0.115
-0.1
-0.075
-0.115
-0.115
-0.085
-0.115
-0.15
-0.095
-0.06
-0.13
-0.025
-0.105
-0.075
-0.115
-0.115
-0.09
-0.11
-0.085
-0.075
-0.125
-0.125
-0.115
-0.09
-0.095
-0.105
-0.095
-0.13
-0.1
-0.105
-0.11
-0.1
-0.07
-0.125
-0.12
-0.09
-0.155
-0.17
-0.12
-0.12
-0.05
-0.07
-0.095
-0.14
-0.115
-0.075
-0.08
-0.1
-0.08
-0.035
-0.095
-0.13
-0.09
-0.12
-0.13
-0.1
-0.075
-0.135
-0.095
-0.12
-0.09
-0.05
-0.085
-0.13
-0.09
-0.105
-0.13
-0.135
-0.085
-0.055
-0.12
-0.11
-0.085
-0.1
-0.135
-0.085
-0.095
-0.06
-0.145
-0.135
-0.105
-0.075
-0.13
-0.135
-0.065
-0.125
-0.065
-0.105
-0.105
-0.11
-0.06
-0.09
-0.085
-0.135
-0.09
-0.075
-0.14
-0.175
-0.13
-0.16
-0.08
-0.075
-0.08
-0.12
-0.14
-0.115
-0.105
-0.09
-0.06
-0.085
-0.095
-0.095
-0.07
-0.08
-0.07
-0.08
-0.12
-0.1
-0.065
-0.04
-0.055
-0.135
-0.105
-0.055
-0.07
-0.06
-0.035
0.005
-0.035
-0.005
-0.015
-0.045
0.01
-0.02
-0.07
-0.08
-0.05
-0.02
-0.025
-0.035
-0.06
-0.07
-0.05
-0.02
-0.06
-0.135
-0.14
-0.1
-0.04
-0.06
-0.1
-0.115
-0.085
-0.13
-0.155
-0.085
-0.13
-0.06
-0.06
-0.065
-0.1
-0.09
-0.135
-0.125
-0.095
-0.1
-0.08
-0.065
-0.115
-0.14
-0.13
-0.12
-0.095
-0.135
-0.13
-0.09
-0.095
-0.105
-0.015
-0.02
-0.045
-0.03
0.0
-0.01
0.085
0.13
0.145
0.265
0.43
0.52
0.565
0.72
0.91
0.855
0.755
0.62
0.44
0.42
0.265
0.045
0.015
-0.04
-0.08
0.005
0.005
0.0
-0.02
-0.025
0.02
-0.025
-0.11
-0.06
-0.08
-0.105
-0.12
-0.155
-0.14
-0.14
-0.085
-0.125
-0.14
-0.1
-0.14
-0.095
-0.1
-0.125
-0.115
-0.105
-0.115
-0.115
-0.115
-0.095
-0.16
-0.175
-0.11
-0.135
-0.145
-0.085
-0.065
-0.105
-0.09
-0.085
-0.205
-0.22
-0.155
-0.12
-0.085
-0.055
-0.04
-0.105
-0.07
-0.05
-0.13
-0.1
-0.065
-0.105
-0.145
-0.09
-0.135
-0.155
-0.085
-0.095
-0.08
-0.045
-0.065
-0.035
-0.09
-0.115
-0.095
-0.085
-0.105
-0.095
-0.065
-0.04
-0.045
-0.03
-0.045
-0.055
-0.03
-0.01
-0.025
-0.01
-0.06
-0.04
-0.03
-0.06
0.005
0.055
0.0
0.02
-0.02
0.07
0.03
0.04
0.05
0.005
0.01
0.085
0.115
0.04
0.085
0.115
0.08
0.07
0.08
0.09
0.11
0.16
0.145
0.155
0.185
0.115
0.085
0.1
0.165
0.14
0.095
0.205
0.17
0.135
0.16
0.155
0.075
0.105
0.11
0.08
0.065
0.105
0.11
0.1
0.065
0.055
0.035
0.065
0.03
0.0
0.03
0.02
0.01
0.05
0.055
0.01
-0.045
-0.045
-0.035
-0.03
-0.04
0.005
-0.09
-0.09
-0.025
-0.05
-0.095
-0.08
-0.04
-0.075
-0.05
-0.045
-0.065
-0.105
-0.065
-0.165
-0.075
-0.1
-0.115
-0.08
-0.045
-0.12
-0.14
-0.14
-0.125
-0.06
-0.08
-0.085
-0.1
-0.135
-0.115
-0.095
-0.1
-0.065
-0.135
-0.13
-0.125
-0.125
-0.13
-0.095
-0.07
-0.105
-0.09
-0.095
-0.065
-0.14
-0.105
-0.09
-0.105
-0.135
-0.09
-0.065
-0.085
-0.14
-0.11
-0.145
-0.125
-0.1
-0.095
-0.14
-0.105
-0.105
-0.08
-0.055
-0.06
-0.12
-0.17
-0.09
-0.09
-0.13
-0.105
-0.095
-0.055
-0.095
-0.1
-0.05
-0.045
-0.085
-0.065
-0.115
-0.085
-0.095
-0.115
-0.065
-0.095
-0.09
-0.075
-0.09
-0.165
-0.11
-0.035
-0.09
-0.08
-0.07
-0.06
-0.12
-0.09
-0.09
-0.08
-0.075
-0.09
-0.12
-0.16
-0.105
-0.085
-0.145
-0.125
-0.12
-0.11
-0.1
-0.09
-0.035
-0.11
-0.1
-0.09
-0.065
-0.095
-0.17
-0.135
-0.075
-0.08
-0.13
-0.075
-0.105
-0.075
-0.085
-0.055
-0.07
-0.09
-0.15
-0.105
-0.05
-0.055
-0.025
-0.04
-0.075
-0.09
-0.07
-0.12
-0.09
-0.085
-0.075
-0.1
-0.03
-0.005
-0.02
-0.01
0.005
0.0
-0.03
-0.025
0.04
0.03
-0.04
-0.08
-0.06
-0.08
-0.085
-0.08
-0.095
-0.105
-0.065
-0.065
-0.035
-0.055
-0.03
-0.07
-0.115
-0.17
-0.13
-0.08
-0.1
-0.105
-0.1
-0.115
-0.115
-0.12
-0.105
-0.135
-0.085
-0.03
-0.115
-0.075
-0.03
-0.17
-0.125
-0.105
-0.08
-0.135
-0.15
-0.115
-0.11
-0.09
-0.025
-0.01
-0.06
-0.06
-0.07
-0.105
-0.075
0.015
0.08
0.16
0.26
0.3
0.365
0.49
0.59
0.755
0.925
0.93
0.795
0.67
0.455
0.335
0.195
0.05
0.02
-0.025
-0.015
-0.015
0.01
-0.015
-0.05
0.015
0.005
-0.045
-0.05
-0.115
-0.075
-0.095
-0.14
-0.16
-0.135
-0.15
-0.155
-0.15
-0.095
-0.085
-0.11
-0.08
-0.095
-0.09
-0.115
-0.15
-0.135
-0.17
-0.145
-0.11
-0.09
-0.09
-0.065
-0.1
-0.095
-0.15
-0.105
-0.11
-0.11
-0.065
-0.115
-0.095
-0.085
-0.1
-0.095
-0.145
-0.145
-0.095
-0.135
-0.17
-0.12
-0.06
-0.03
-0.145
-0.165
-0.095
-0.04
-0.075
-0.09
-0.1
-0.05
-0.06
-0.065
-0.055
-0.055
-0.14
-0.05
-0.075
-0.075
-0.04
-0.035
-0.045
-0.06
-0.01
-0.025
-0.035
-0.05
-0.055
-0.045
-0.025
0.015
0.0
0.02
0.0
-0.04
-0.01
0.01
-0.05
-0.11
-0.005
0.095
0.09
0.05
0.105
0.055
0.06
0.065
0.085
0.07
0.055
0.095
0.055
0.125
0.105
0.065
0.09
0.135
0.115
0.165
0.155
0.175
0.165
0.175
0.14
0.17
0.16
0.09
0.155
0.09
0.075
0.12
0.12
0.115
0.135
0.165
0.14
0.12
0.095
0.035
0.01
0.045
0.075
0.08
0.01
-0.02
0.0
0.035
0.035
0.0
0.02
0.03
0.01
-0.04
-0.045
-0.05
-0.08
-0.035
-0.04
-0.08
-0.085
-0.06
-0.03
-0.045
-0.01
-0.07
-0.07
-0.14
-0.09
-0.12
-0.04
-0.025
-0.08
-0.07
-0.09
-0.12
-0.095
-0.07
-0.06
-0.105
-0.095
-0.09
-0.115
-0.105
-0.105
-0.095
-0.07
-0.125
-0.12
-0.095
-0.075
-0.08
-0.07
-0.085
-0.11
-0.065
-0.06
-0.095
-0.135
-0.09
-0.08
-0.075
-0.1
-0.1
-0.09
-0.155
-0.125
-0.1
-0.08
-0.05
-0.06
-0.025
-0.1
-0.11
-0.105
-0.06
-0.07
-0.09
-0.14
-0.155
-0.06
-0.115
-0.075
-0.07
0.0
-0.03
0.005
-0.095
-0.115
-0.125
-0.115
-0.085
-0.14
-0.085
-0.055
-0.065
-0.115
-0.04
-0.08
-0.07
-0.065
-0.035
-0.04
-0.015
-0.095
-0.055
-0.045
-0.14
-0.125
-0.08
-0.105
-0.115
-0.095
-0.055
-0.05
-0.06
-0.05
-0.095
-0.115
-0.035
-0.085
-0.08
-0.075
-0.095
-0.145
-0.055
-0.015
-0.07
-0.095
-0.075
-0.07
-0.075
-0.075
-0.09
-0.07
-0.09
-0.11
-0.115
-0.05
-0.035
0.01
-0.03
-0.125
-0.045
-0.04
-0.03
-0.035
-0.075
-0.035
-0.01
-0.08
-0.11
-0.08
-0.045
-0.04
-0.015
-0.06
-0.07
-0.065
-0.005
-0.02
0.08
0.05
-0.02
-0.035
0.01
0.025
0.025
-0.025
0.025
-0.005
-0.03
-0.04
-0.01
-0.055
-0.04
-0.02
-0.12
-0.06
-0.085
-0.065
-0.095
-0.045
-0.075
-0.03
-0.03
-0.065
-0.06
-0.07
-0.045
-0.075
-0.095
-0.03
-0.04
-0.06
-0.06
-0.09
-0.085
-0.09
-0.095
-0.11
-0.035
-0.02
-0.015
-0.065
-0.115
-0.1
-0.085
-0.12
-0.08
-0.02
-0.025
-0.06
-0.035
-0.025
-0.005
0.025
0.07
0.2
0.245
0.355
0.435
0.515
0.605
0.74
0.93
0.93
0.75
0.68
0.545
0.455
0.35
0.17
0.04
0.025
0.005
-0.045
-0.04
-0.035
0.02
0.03
0.045
-0.05
-0.01
-0.09
-0.1
-0.145
-0.05
0.02
-0.03
-0.01
-0.09
-0.045
-0.065
-0.055
-0.075
-0.15
-0.13
-0.11
-0.025
-0.105
-0.135
-0.08
-0.09
-0.1
-0.085
-0.085
-0.13
-0.095
-0.02
-0.05
-0.08
-0.08
-0.06
-0.105
-0.03
-0.07
-0.145
-0.07
-0.06
-0.13
-0.055
-0.05
-0.1
-0.065
0.0
-0.07
-0.075
-0.03
-0.025
-0.085
-0.05
-0.055
-0.055
-0.055
-0.005
-0.04
-0.065
-0.02
-0.035
-0.055
-0.06
-0.03
-0.035
-0.02
0.01
0.005
0.02
-0.045
-0.045
-0.01
0.01
0.03
-0.01
-0.045
-0.025
-0.01
0.005
0.085
0.07
0.0
0.035
0.1
0.065
0.06
0.095
0.02
0.0
0.085
0.13
0.125
0.155
0.2
0.175
0.115
0.11
0.1
0.14
0.14
0.205
0.21
0.19
0.19
0.18
0.165
0.22
0.165
0.17
0.195
0.195
0.175
0.185
0.205
0.18
0.18
0.17
0.2
0.15
0.135
0.185
0.125
0.125
0.18
0.115
0.11
0.085
0.085
0.13
0.105
0.125
0.12
0.085
0.055
0.085
0.035
-0.065
-0.055
0.03
0.02
0.03
0.04
0.05
0.01
-0.005
0.0
-0.045
-0.045
0.005
-0.005
0.025
-0.075
-0.075
-0.065
-0.07
-0.095
-0.07
-0.005
-0.02
-0.02
0.0
-0.025
-0.08
-0.105
-0.07
-0.075
-0.065
-0.085
-0.025
-0.02
-0.02
-0.025
-0.06
-0.02
-0.075
-0.085
-0.085
-0.05
-0.04
-0.015
-0.04
-0.015
-0.015
-0.08
-0.065
-0.025
-0.065
-0.065
-0.055
-0.095
-0.05
-0.06
-0.04
-0.075
-0.075
-0.04
-0.055
-0.095
-0.045
-0.06
-0.1
-0.11
-0.03
-0.01
-0.045
-0.075
-0.06
-0.08
0.005
0.04
-0.055
-0.03
-0.04
-0.035
-0.03
-0.06
-0.025
-0.045
-0.015
-0.03
-0.055
0.025
-0.015
-0.065
-0.04
0.005
-0.005
-0.055
-0.055
-0.04
-0.025
-0.06
-0.095
-0.055
-0.07
-0.075
-0.085
-0.05
-0.015
0.005
-0.03
-0.005
-0.02
-0.04
-0.03
-0.07
-0.14
-0.085
-0.05
-0.045
-0.06
-0.015
-0.01
-0.075
-0.035
-0.005
-0.01
-0.1
-0.03
-0.005
0.005
-0.06
-0.03
-0.09
-0.025
-0.07
-0.035
-0.005
-0.015
-0.01
-0.07
0.005
0.005
0.035
-0.045
-0.02
-0.035
0.03
0.07
0.095
0.025
0.025
0.0
0.005
0.055
0.025
0.025
-0.025
0.04
-0.025
0.02
-0.02
0.0
-0.035
-0.035
-0.045
-0.05
-0.1
-0.01
-0.07
-0.02
-0.01
0.01
-0.005
-0.125
-0.055
-0.07
-0.04
-0.04
-0.105
-0.05
-0.05
-0.03
-0.025
-0.065
-0.035
-0.07
-0.08
-0.02
-0.08
-0.02
-0.045
-0.1
-0.095
-0.045
0.01
-0.025
0.05
0.095
0.01
-0.005
-0.05
-0.01
0.095
0.165
0.25
0.35
0.46
0.53
0.655
0.835
0.945
0.885
0.75
0.685
0.565
0.485
0.25
0.145
0.025
-0.045
0.02
0.065
0.1
0.035
0.015
-0.025
-0.015
0.02
-0.005
-0.02
-0.06
-0.085
-0.055
-0.025
-0.085
-0.08
-0.015
-0.07
-0.05
-0.065
-0.06
-0.05
-0.01
-0.09
-0.125
-0.125
-0.1
-0.09
-0.06
-0.04
-0.04
-0.075
-0.09
-0.1
-0.125
-0.1
-0.035
-0.035
-0.005
-0.06
-0.085
-0.07
0.01
-0.105
-0.085
-0.095
-0.01
-0.025
-0.015
-0.05
-0.065
-0.09
-0.065
-0.05
-0.06
-0.055
-0.09
-0.045
-0.015
-0.03
-0.045
-0.045
-0.01
-0.03
-0.08
-0.06
0.075
-0.015
-0.11
-0.065
0.04
-0.025
-0.015
-0.04
0.015
0.0
0.05
0.035
-0.005
0.035
0.065
0.03
0.01
0.015
0.03
0.01
0.04
0.085
0.06
0.05
0.1
0.115
0.05
0.06
0.12
0.105
0.135
0.16
0.07
0.125
0.105
0.145
0.11
0.16
0.125
0.165
0.14
0.085
0.18
0.185
0.21
0.14
0.14
0.205
0.215
0.135
0.205
0.185
0.17
0.18
0.195
0.165
0.15
0.13
0.125
0.18
0.085
0.045
0.07
0.11
0.095
0.095
0.095
0.035
-0.045
0.025
0.075
0.07
0.075
0.075
0.025
0.0
0.02
-0.02
-0.1
-0.045
-0.005
-0.025
-0.065
-0.045
-0.01
0.045
0.025
-0.035
-0.035
-0.05
-0.065
-0.05
-0.05
-0.025
-0.025
-0.055
-0.09
-0.07
-0.035
-0.04
-0.01
-0.015
-0.03
-0.055
-0.07
-0.095
-0.005
-0.045
-0.1
0.05
-0.04
-0.1
-0.045
-0.02
-0.045
-0.065
-0.06
-0.085
-0.085
-0.035
-0.04
-0.035
0.0
-0.03
-0.035
-0.045
-0.035
-0.09
-0.06
-0.025
-0.02
-0.045
-0.04
-0.055
-0.06
-0.055
0.01
-0.02
-0.065
0.0
-0.04
-0.02
-0.035
-0.005
-0.045
-0.055
-0.035
-0.05
-0.045
0.015
0.045
0.05
0.015
0.01
0.01
-0.03
-0.075
-0.05
-0.03
0.01
-0.025
-0.015
0.005
-0.03
-0.075
-0.025
-0.01
-0.01
-0.035
0.005
-0.005
0.005
0.035
-0.01
-0.065
-0.01
0.02
-0.01
-0.025
-0.005
0.01
-0.02
0.01
-0.04
-0.035
-0.04
-0.005
-0.075
-0.015
0.07
0.02
-0.005
0.005
-0.02
-0.03
0.025
0.01
-0.06
-0.04
0.04
-0.01
-0.015
0.01
-0.025
0.0
0.025
0.005
0.065
0.075
-0.005
0.02
-0.055
-0.025
-0.045
0.025
0.045
0.005
0.035
0.075
0.07
0.09
0.095
0.115
0.03
-0.045
0.025
0.1
0.04
0.03
0.06
0.02
-0.035
-0.005
-0.065
-0.045
-0.06
-0.02
0.02
-0.015
0.045
-0.025
-0.015
-0.015
0.0
-0.02
0.005
-0.055
-0.005
0.08
0.035
0.0
-0.025
0.005
-0.01
-0.005
0.02
-0.065
-0.055
0.02
0.045
-0.02
-0.065
-0.02
-0.05
-0.015
0.02
0.015
-0.02
0.06
0.0
0.025
0.08
0.1
0.145
0.22
0.345
0.4
0.46
0.595
0.665
0.835
0.91
0.91
0.77
0.7
0.605
0.51
0.345
0.215
0.09
0.06
0.05
0.125
0.135
0.045
0.01
-0.005
-0.03
0.03
-0.01
-0.02
-0.005
0.02
-0.065
-0.005
0.01
-0.06
-0.005
-0.005
-0.04
-0.04
-0.005
-0.02
-0.055
-0.05
-0.025
-0.065
0.005
0.035
0.01
-0.025
0.005
-0.01
-0.07
-0.045
-0.005
-0.02
0.0
0.0
0.035
-0.015
-0.01
0.02
-0.025
-0.03
-0.02
-0.045
-0.005
0.02
0.035
-0.015
0.03
0.025
-0.02
-0.015
0.015
-0.005
0.005
0.08
0.05
0.08
0.04
0.03
0.005
0.025
0.02
0.005
0.05
0.04
0.09
0.125
0.015
0.015
0.0
0.06
0.09
0.065
0.105
0.115
0.09
0.11
0.08
0.075
0.1
0.085
0.065
0.09
0.145
0.16
0.15
0.165
0.175
0.18
0.19
0.16
0.115
0.165
0.16
0.185
0.185
0.205
0.26
0.22
0.18
0.19
0.215
0.21
0.235
0.275
0.26
0.24
0.285
0.255
0.255
0.26
0.235
0.23
0.29
0.21
0.195
0.26
0.25
0.225
0.23
0.19
0.215
0.175
0.18
0.24
0.22
0.14
0.15
0.145
0.14
0.11
0.13
0.105
0.16
0.155
0.17
0.075
0.09
0.015
0.025
0.04
0.075
0.05
0.105
0.105
0.05
0.08
0.07
0.03
0.005
0.075
-0.01
0.015
0.04
0.065
0.035
0.025
0.025
0.045
0.04
0.0
0.03
-0.025
0.045
-0.025
0.07
0.01
0.06
-0.045
-0.02
-0.015
-0.065
0.04
0.03
0.04
0.02
-0.015
-0.015
-0.01
-0.025
-0.01
-0.05
-0.055
0.045
0.015
0.03
0.09
0.03
-0.05
0.01
0.065
-0.02
-0.005
-0.01
-0.03
-0.03
0.015
-0.02
0.0
0.06
0.055
0.035
-0.015
0.01
0.0
-0.015
0.025
0.03
-0.03
-0.02
0.015
0.02
0.015
0.04
0.01
0.0
0.005
0.04
0.02
0.05
-0.045
-0.03
0.015
0.025
0.005
0.03
0.015
0.035
0.01
0.015
0.025
-0.02
-0.055
0.03
0.025
0.015
0.005
-0.03
0.02
0.025
-0.02
-0.035
-0.025
0.05
-0.025
-0.01
0.02
0.035
0.035
0.03
-0.005
0.025
-0.025
0.015
-0.01
0.015
0.005
-0.025
-0.005
0.065
0.05
0.01
0.06
0.04
0.03
0.015
0.02
-0.035
0.005
-0.085
-0.035
-0.01
0.05
-0.01
0.05
0.075
0.105
0.105
0.065
0.045
0.03
0.035
0.095
0.105
0.075
0.105
0.125
0.07
0.05
0.05
0.005
0.01
0.07
0.07
0.045
0.05
0.095
0.09
0.055
0.03
0.035
0.01
0.04
-0.02
0.04
0.055
-0.02
-0.04
-0.03
-0.1
-0.085
-0.05
-0.005
0.01
0.015
0.005
-0.015
-0.005
-0.01
-0.005
-0.02
0.005
0.04
0.02
0.04
0.045
0.065
0.06
0.125
0.045
-0.025
-0.045
0.06
0.1
0.275
0.31
0.405
0.43
0.555
0.645
0.765
0.94
0.96
0.865
0.785
0.6
0.485
0.4
0.25
0.155
0.015
0.03
0.1
0.14
0.11
0.09
0.03
-0.03
-0.035
0.005
0.005
-0.03
-0.07
-0.035
-0.045
-0.055
-0.125
-0.065
-0.045
-0.045
-0.075
-0.035
-0.07
-0.055
-0.02
-0.05
-0.035
-0.045
0.005
-0.05
-0.115
-0.06
-0.025
0.0
-0.075
-0.035
-0.055
-0.04
-0.05
-0.025
-0.045
-0.05
-0.015
-0.065
-0.05
-0.065
-0.005
0.0
-0.045
-0.06
-0.1
-0.055
0.01
-0.04
-0.035
-0.005
0.005
-0.05
-0.005
-0.005
0.04
-0.06
-0.005
0.02
-0.045
0.0
0.02
-0.01
-0.01
0.03
0.005
0.065
0.07
0.045
0.01
-0.035
0.01
0.04
0.035
0.03
0.06
0.09
0.09
0.08
0.1
0.115
0.06
0.065
0.085
0.07
0.095
0.085
0.11
0.1
0.11
0.115
0.13
0.145
0.14
0.165
0.165
0.165
0.135
0.18
0.235
0.31
0.22
0.255
0.245
0.185
0.195
0.205
0.23
0.255
0.225
0.235
0.215
0.23
0.245
0.27
0.18
0.205
0.245
0.25
0.19
0.145
0.12
0.17
0.15
0.115
0.13
0.185
0.165
0.135
0.11
0.1
0.11
0.125
0.105
0.055
0.0
0.075
0.095
0.025
0.05
-0.015
-0.005
0.05
0.115
0.025
-0.02
0.04
0.02
0.03
0.04
0.065
0.005
0.01
-0.005
-0.005
-0.005
0.015
0.01
0.02
0.095
0.02
0.005
0.03
0.015
0.005
0.04
0.035
0.005
0.025
0.065
-0.015
-0.01
0.025
0.005
-0.035
-0.015
0.015
0.02
0.04
0.025
0.035
0.02
0.0
-0.055
-0.025
-0.015
-0.005
0.01
0.025
0.045
0.0
0.08
-0.04
-0.06
0.035
0.04
0.055
0.015
0.025
0.055
0.02
0.015
0.055
0.08
0.015
0.06
0.04
-0.05
-0.01
-0.01
0.0
0.005
0.045
0.045
0.025
0.085
0.08
0.03
0.065
0.095
0.03
0.05
0.005
0.045
0.045
0.075
0.055
0.06
0.06
0.025
-0.005
0.0
0.08
-0.03
0.025
0.12
0.035
0.085
0.1
0.045
-0.05
-0.025
-0.02
-0.035
-0.025
0.06
0.025
0.03
0.03
0.015
-0.02
0.05
0.015
-0.06
-0.015
0.105
0.08
0.045
0.065
0.09
0.025
0.03
0.065
0.07
0.055
0.09
0.01
0.03
0.065
0.02
0.035
0.03
0.015
-0.02
0.035
0.055
0.05
0.055
0.065
0.095
0.115
0.12
0.13
0.13
0.11
0.14
0.16
0.115
0.125
0.095
0.08
0.05
0.045
0.045
0.055
0.05
0.045
0.02
0.065
0.035
0.015
0.06
-0.01
0.05
0.08
0.1
0.085
0.02
0.0
0.005
0.03
0.025
-0.01
0.015
0.03
0.02
0.02
0.03
0.06
0.045
0.08
0.065
0.065
0.05
0.055
0.08
0.085
0.125
0.09
0.125
0.125
0.13
0.125
0.06
0.19
0.305
0.325
0.36
0.47
0.555
0.64
0.695
0.865
0.965
0.93
0.9
0.755
0.63
0.53
0.315
0.22
0.17
0.115
0.095
0.17
0.13
0.13
0.16
0.14
0.085
0.065
0.045
0.045
0.055
0.1
0.12
0.09
0.025
0.02
0.04
-0.02
0.06
0.03
0.06
0.095
0.05
0.04
0.02
0.065
0.045
0.135
0.05
-0.045
0.02
0.05
0.08
0.085
0.02
0.05
0.03
0.075
0.095
0.045
-0.01
0.05
0.04
0.055
0.04
0.02
0.0
0.025
0.03
0.02
0.005
0.105
0.075
0.075
0.045
0.06
0.04
0.05
0.085
0.055
0.05
0.06
0.06
0.07
0.065
0.105
0.11
0.08
0.085
0.105
0.055
0.115
0.08
0.125
0.13
0.115
0.075
0.09
0.115
0.075
0.09
0.125
0.145
0.125
0.135
0.175
0.21
0.23
0.18
0.175
0.15
0.14
0.18
0.22
0.28
0.26
0.25
0.23
0.23
0.225
0.19
0.28
0.265
0.27
0.315
0.31
0.205
0.225
0.295
0.26
0.245
0.285
0.28
0.29
0.29
0.25
0.2
0.29
0.3
0.24
0.285
0.3
0.27
0.275
0.22
0.245
0.185
0.185
0.2
0.125
0.15
0.19
0.195
0.225
0.205
0.135
0.15
0.145
0.195
0.15
0.065
0.16
0.14
0.095
0.095
0.05
0.085
0.115
0.135
0.095
0.115
0.13
0.105
0.105
0.08
0.05
0.09
0.105
0.055
0.055
0.09
0.115
0.105
0.095
-0.01
0.015
0.085
0.05
0.12
0.105
0.1
0.105
0.08
0.095
0.105
0.03
0.08
0.06
0.03
0.015
0.085
0.06
0.175
0.12
0.045
0.045
0.045
0.0
0.055
0.085
0.105
0.065
0.09
0.075
0.065
0.05
0.045
0.105
0.07
0.055
0.05
0.045
0.02
0.005
0.07
0.07
0.07
0.085
0.075
0.025
0.04
0.065
0.07
0.08
0.12
0.0
0.055
0.055
0.1
0.065
0.075
0.08
0.075
0.07
0.07
0.07
0.115
0.08
0.025
0.045
0.02
0.1
0.095
0.045
0.08
0.035
0.0
0.045
0.03
0.05
0.115
0.045
0.045
0.085
0.1
0.045
-0.01
0.065
0.085
0.055
0.065
0.045
0.015
0.105
0.09
0.075
0.075
0.06
0.025
0.025
0.08
0.085
0.045
0.075
0.08
0.05
0.085
0.065
0.06
0.035
0.16
0.07
0.04
0.005
0.0
0.055
0.08
0.11
0.07
0.09
0.11
0.095
0.155
0.145
0.07
0.065
0.11
0.075
0.12
0.145
0.1
0.095
0.13
0.11
0.085
0.06
0.065
0.075
0.07
0.07
0.055
0.045
0.01
0.035
0.02
0.05
0.055
0.055
0.06
0.03
0.1
0.075
0.075
0.075
0.025
0.03
0.01
0.035
0.045
0.055
0.045
0.005
0.025
0.005
-0.01
0.045
0.045
0.0
-0.01
0.055
0.045
0.09
0.095
0.105
0.065
0.055
0.115
0.13
0.235
0.315
0.375
0.5
0.54
0.62
0.73
0.905
1.0
0.995
0.905
0.805
0.675
0.53
0.405
0.32
0.17
0.15
0.115
0.07
0.11
0.155
0.115
0.08
0.115
0.095
0.05
0.0
0.025
-0.035
-0.055
0.005
0.015
0.05
0.06
0.02
0.0
-0.05
-0.045
0.0
0.0
-0.005
0.02
0.02
0.02
-0.01
-0.02
0.015
0.03
-0.03
-0.025
0.0
-0.005
0.02
0.065
-0.01
-0.02
0.035
0.02
-0.06
-0.01
0.05
-0.015
-0.01
-0.005
-0.005
-0.015
0.03
0.02
0.02
0.025
0.015
0.005
-0.025
-0.005
-0.02
-0.015
0.03
0.035
0.015
0.035
0.055
0.03
0.025
0.055
0.055
0.035
0.04
-0.02
-0.005
0.04
0.065
0.085
0.05
0.07
0.025
0.065
0.035
0.02
0.05
0.08
0.045
0.1
0.09
0.08
0.145
0.13
0.1
0.125
0.12
0.14
0.08
0.13
0.165
0.185
0.17
0.13
0.165
0.14
0.16
0.21
0.215
0.235
0.19
0.215
0.2
0.135
0.15
0.205
0.23
0.25
0.245
0.21
0.215
0.19
0.205
0.22
0.155
0.21
0.18
0.185
0.2
0.16
0.16
0.125
0.17
0.13
0.1
0.07
0.09
0.1
0.145
0.145
0.16
0.11
0.1
0.095
0.105
0.055
0.01
0.06
0.02
0.035
0.0
0.035
0.01
0.005
0.005
-0.005
0.045
0.02
0.04
0.015
-0.025
-0.06
-0.02
0.005
0.02
0.0
-0.02
0.07
0.05
0.02
-0.015
0.025
-0.01
-0.04
-0.05
0.0
0.005
0.0
0.04
0.01
-0.01
-0.02
-0.07
-0.035
-0.01
0.055
0.045
0.04
-0.01
0.02
0.035
-0.04
-0.035
-0.015
-0.065
-0.005
-0.01
0.015
-0.02
-0.035
-0.035
-0.025
-0.055
-0.06
0.025
0.005
-0.04
-0.08
-0.05
-0.01
0.03
0.0
-0.035
-0.045
-0.005
-0.01
0.0
0.03
-0.03
-0.015
-0.02
-0.01
-0.025
0.01
-0.02
-0.02
-0.015
-0.05
-0.035
0.01
0.035
-0.005
-0.04
-0.035
0.0
-0.005
0.01
0.0
0.015
-0.005
-0.075
-0.03
-0.07
-0.045
-0.005
-0.02
0.035
-0.005
-0.01
-0.01
-0.035
-0.03
-0.03
-0.05
-0.055
-0.085
-0.01
0.005
-0.045
-0.035
-0.015
-0.03
-0.06
-0.06
-0.02
-0.025
-0.005
-0.025
-0.01
-0.015
0.02
-0.065
-0.02
-0.03
0.02
-0.01
-0.02
-0.03
-0.005
-0.06
-0.055
-0.055
-0.03
-0.04
-0.035
-0.06
-0.01
0.0
0.0
-0.035
0.01
0.045
0.05
0.04
0.05
0.055
0.015
0.045
0.065
0.045
0.03
0.01
0.045
-0.02
0.005
-0.01
-0.01
-0.06
0.015
0.0
-0.06
-0.075
-0.005
-0.035
-0.065
-0.025
0.005
-0.02
-0.045
-0.02
-0.015
-0.025
-0.04
-0.03
-0.095
-0.12
-0.075
-0.08
-0.03
0.04
-0.01
-0.03
0.015
-0.06
-0.065
-0.045
-0.03
-0.05
-0.045
0.005
0.025
0.02
-0.01
-0.035
0.04
0.04
0.095
0.18
0.23
0.255
0.345
0.505
0.565
0.655
0.82
1.0
1.06
0.915
0.76
0.52
0.5
0.36
0.235
0.1
0.065
0.125
0.105
0.075
0.115
0.095
-0.02
-0.01
0.06
0.0
-0.06
-0.005
0.01
-0.06
-0.06
-0.035
-0.07
-0.065
0.015
0.0
-0.065
-0.085
-0.04
0.02
0.01
-0.055
-0.04
-0.09
-0.025
-0.025
-0.05
-0.035
-0.025
-0.055
-0.035
-0.01
0.005
-0.075
-0.025
-0.1
0.005
-0.015
-0.07
-0.03
-0.03
0.025
-0.03
-0.02
-0.025
0.01
0.005
0.015
-0.005
-0.03
-0.05
-0.01
0.02
-0.025
-0.01
-0.035
-0.02
0.025
0.06
0.025
0.005
-0.025
-0.045
0.03
-0.015
-0.02
0.005
0.04
0.045
0.0
0.08
0.105
0.055
0.06
0.035
0.03
0.045
0.065
0.085
0.065
0.075
0.075
0.08
0.085
0.09
0.085
0.12
0.135
0.13
0.16
0.09
0.08
0.135
0.135
0.16
0.15
0.175
0.225
0.185
0.2
0.215
0.22
0.225
0.25
0.225
0.215
0.225
0.27
0.28
0.205
0.24
0.21
0.195
0.215
0.265
0.21
0.22
0.255
0.27
0.205
0.2
0.175
0.21
0.14
0.145
0.135
0.155
0.18
0.14
0.105
0.145
0.14
0.11
0.08
0.12
0.065
0.1
0.095
0.07
0.07
0.08
0.01
0.09
0.095
0.025
0.05
0.055
0.085
0.04
0.0
0.05
0.045
0.02
0.005
-0.015
0.025
0.04
0.085
0.015
0.055
0.075
0.025
-0.045
0.0
-0.005
0.005
0.04
0.085
-0.005
0.01
0.035
-0.015
-0.06
-0.015
-0.015
0.015
0.065
0.075
0.005
0.0
-0.025
0.01
-0.025
0.01
0.015
-0.02
-0.01
0.04
0.07
0.025
-0.005
-0.025
-0.04
0.01
0.015
0.005
0.0
0.035
0.025
0.075
0.01
-0.03
0.035
0.0
-0.005
0.01
0.02
0.005
0.015
0.02
0.025
0.02
0.035
0.015
-0.025
-0.06
0.025
0.025
0.02
0.01
-0.015
0.0
0.01
0.04
0.04
0.06
-0.005
0.02
-0.02
-0.045
-0.05
-0.03
0.025
-0.015
0.045
-0.03
0.015
0.02
0.0
-0.005
0.03
0.025
0.005
-0.035
-0.015
0.06
0.04
-0.01
-0.045
-0.05
0.02
0.02
-0.075
-0.01
0.025
-0.035
0.015
0.02
0.005
0.08
0.03
-0.02
-0.005
-0.005
-0.005
-0.02
0.04
0.01
0.015
0.0
-0.01
0.01
-0.01
0.02
-0.03
0.015
0.09
0.13
0.13
0.15
0.135
0.04
0.08
0.015
0.06
0.07
0.06
0.05
0.045
-0.005
0.005
0.045
0.035
0.03
-0.05
-0.035
0.03
0.07
0.035
-0.01
0.04
-0.015
0.0
-0.015
-0.08
-0.01
-0.025
0.015
-0.005
-0.025
0.01
-0.05
-0.045
-0.065
-0.035
-0.02
0.035
0.01
0.015
-0.025
-0.025
0.0
0.0
0.005
-0.02
0.035
0.085
0.045
0.04
0.075
0.08
0.035
0.115
0.19
0.225
0.32
0.45
0.455
0.575
0.755
0.885
0.99
0.93
0.775
0.6
0.53
0.4
0.25
0.115
0.06
0.08
0.06
0.095
0.095
0.14
0.095
0.025
0.03
-0.025
-0.03
-0.04
0.02
0.02
-0.07
-0.045
-0.01
-0.01
-0.01
-0.045
-0.045
-0.05
0.005
-0.075
-0.09
-0.1
-0.025
-0.01
0.015
-0.03
-0.08
-0.08
-0.055
-0.045
-0.05
-0.045
-0.03
-0.01
0.0
-0.015
0.0
-0.055
-0.01
-0.02
-0.08
-0.045
-0.03
-0.045
0.035
0.01
0.03
0.0
-0.025
0.03
0.035
-0.03
0.0
-0.045
0.01
0.01
-0.005
-0.04
0.005
-0.05
-0.06
-0.055
0.02
0.07
0.0
0.02
0.075
-0.005
-0.025
0.0
0.025
0.07
0.04
0.045
0.09
0.1
0.075
-0.02
0.055
0.05
0.045
0.1
0.105
0.115
0.045
0.075
0.09
0.06
0.14
0.1
0.04
0.125
0.145
0.12
0.155
0.155
0.15
0.15
0.175
0.215
0.21
0.105
0.155
0.25
0.245
0.175
0.195
0.17
0.165
0.175
0.23
0.255
0.25
0.2
0.225
0.225
0.18
0.19
0.185
0.185
0.135
0.18
0.17
0.15
0.175
0.19
0.13
0.12
0.135
0.135
0.07
0.115
0.16
0.04
0.025
0.06
0.08
0.03
0.045
0.005
0.015
0.025
0.07
0.015
0.025
0.04
-0.005
-0.055
-0.035
-0.015
-0.025
-0.01
0.04
-0.03
-0.07
-0.04
0.02
-0.03
-0.01
0.02
0.035
0.055
-0.005
-0.06
-0.06
-0.055
-0.1
-0.01
-0.05
-0.025
-0.045
0.03
0.005
-0.1
-0.055
0.0
-0.035
-0.025
-0.035
-0.045
-0.1
0.015
0.005
-0.025
-0.01
-0.045
-0.075
-0.025
-0.03
-0.02
-0.03
0.04
-0.02
-0.03
-0.035
-0.02
-0.055
-0.035
-0.035
-0.045
-0.065
-0.035
-0.025
-0.045
0.005
-0.015
-0.055
-0.075
-0.065
-0.075
-0.065
-0.06
-0.03
0.005
-0.035
-0.02
-0.045
-0.065
-0.025
-0.045
-0.025
0.03
-0.01
-0.02
0.01
-0.055
-0.055
-0.065
-0.1
-0.025
-0.05
-0.025
-0.03
-0.01
0.02
-0.01
-0.04
-0.055
-0.09
-0.055
0.0
0.05
0.035
0.0
-0.035
-0.075
-0.07
-0.11
-0.04
-0.075
-0.075
-0.07
-0.045
-0.035
0.05
-0.005
-0.02
-0.05
-0.085
-0.09
-0.065
-0.02
-0.04
-0.01
-0.005
-0.055
-0.035
-0.02
0.0
0.0
0.005
-0.005
0.02
0.0
-0.04
-0.05
-0.055
-0.005
0.04
0.035
0.03
0.045
0.025
0.085
0.06
0.075
0.045
0.015
0.025
0.02
0.09
0.04
0.01
0.0
0.025
-0.01
0.015
0.045
0.02
-0.045
-0.015
-0.045
-0.045
-0.015
-0.005
-0.03
-0.075
-0.005
-0.03
-0.04
0.01
-0.03
-0.025
-0.03
-0.005
0.0
-0.065
-0.06
-0.08
-0.025
-0.005
-0.015
-0.03
-0.065
-0.04
-0.06
-0.065
-0.04
-0.06
-0.01
0.05
0.025
-0.03
0.0
0.01
0.03
0.075
0.065
0.165
0.255
0.335
0.4
0.49
0.65
0.71
0.79
0.935
0.88
0.775
0.585
0.575
0.475
0.255
0.095
0.05
-0.015
0.025
0.06
0.04
0.04
0.1
0.13
0.045
0.05
-0.02
-0.15
-0.105
-0.15
-0.06
-0.055
0.005
-0.07
-0.055
-0.05
-0.05
-0.08
-0.035
-0.065
-0.07
-0.055
-0.065
-0.06
-0.06
-0.065
-0.03
-0.055
-0.11
-0.1
-0.055
-0.02
-0.075
0.005
0.035
-0.055
-0.025
-0.035
-0.055
-0.065
-0.09
-0.035
-0.01
-0.005
0.0
-0.08
-0.11
-0.1
-0.015
-0.035
-0.09
0.0
-0.025
0.005
-0.005
0.02
-0.01
-0.07
-0.105
-0.035
-0.02
0.0
-0.015
-0.01
0.02
-0.005
-0.03
-0.08
0.0
0.035
-0.015
-0.025
0.005
-0.01
-0.025
0.055
0.075
-0.015
0.005
0.06
0.02
0.06
0.09
0.055
0.035
0.085
0.055
0.02
0.06
0.13
0.1
0.075
0.085
0.12
0.135
0.125
0.08
0.035
0.115
0.14
0.145
0.185
0.16
0.175
0.185
0.225
0.11
0.14
0.18
0.145
0.195
0.23
0.22
0.185
0.17
0.16
0.185
0.175
0.155
0.16
0.19
0.14
0.145
0.15
0.13
0.16
0.035
0.065
0.185
0.125
0.1
0.11
0.115
0.065
0.115
0.07
0.0
-0.025
0.005
0.045
0.04
0.075
0.06
0.06
0.035
0.015
-0.085
-0.06
-0.005
0.025
0.01
0.03
0.085
-0.02
-0.075
-0.03
-0.035
0.005
-0.035
-0.04
0.005
-0.03
0.025
-0.09
-0.065
0.0
-0.015
-0.06
-0.03
-0.03
0.015
0.0
-0.025
-0.045
-0.07
-0.02
0.02
-0.01
-0.015
-0.09
-0.05
0.0
-0.045
-0.055
-0.05
-0.035
-0.045
-0.02
-0.005
-0.035
-0.03
0.05
0.015
0.015
-0.045
-0.03
-0.025
-0.05
-0.03
-0.03
0.035
0.01
0.02
-0.07
0.01
-0.025
-0.01
0.005
-0.035
-0.03
0.015
-0.01
-0.005
-0.02
-0.005
-0.035
-0.035
-0.01
-0.02
-0.05
0.015
0.035
0.055
-0.02
-0.035
-0.065
-0.045
-0.04
-0.015
-0.045
-0.015
0.005
-0.045
-0.05
-0.01
-0.055
-0.05
-0.015
-0.03
-0.005
-0.005
-0.03
-0.04
-0.04
-0.025
-0.035
0.0
-0.045
-0.055
-0.07
0.015
0.015
-0.015
0.0
-0.01
-0.03
-0.03
0.015
-0.02
-0.05
-0.025
-0.04
0.0
-0.05
-0.025
-0.015
0.025
0.0
0.02
-0.05
0.005
0.04
0.035
0.08
0.1
0.105
0.1
0.04
-0.01
0.03
0.045
0.035
0.025
0.06
0.095
0.06
0.065
0.04
0.03
-0.04
0.045
0.025
-0.035
-0.065
-0.05
-0.02
0.01
0.005
-0.01
-0.04
-0.02
-0.045
-0.015
-0.005
0.005
-0.005
-0.025
-0.09
-0.04
-0.025
0.005
-0.005
-0.035
-0.055
-0.04
-0.075
-0.05
-0.05
-0.075
-0.02
0.03
0.06
0.045
0.02
0.055
-0.005
-0.035
0.03
-0.02
0.055
0.175
0.245
0.28
0.365
0.47
0.495
0.575
0.78
0.96
1.035
0.895
0.695
0.52
0.485
0.335
0.195
0.055
0.025
-0.015
0.09
0.095
0.07
0.085
0.045
-0.02
0.0
0.045
-0.015
-0.035
-0.06
-0.005
-0.015
0.005
-0.03
-0.035
-0.085
-0.075
-0.07
-0.05
-0.03
0.03
-0.055
-0.01
0.015
-0.05
-0.1
-0.08
-0.055
-0.05
-0.08
-0.06
-0.035
-0.08
-0.03
-0.035
-0.05
-0.045
-0.04
-0.035
0.015
0.03
-0.02
-0.075
-0.065
-0.075
-0.055
-0.025
-0.075
-0.03
0.03
-0.065
-0.09
-0.03
-0.035
-0.01
0.015
0.005
0.005
-0.045
-0.01
-0.01
0.0
-0.02
-0.035
-0.025
-0.035
-0.04
-0.045
-0.005
0.035
-0.025
0.015
0.085
0.065
0.015
0.035
0.035
0.025
0.025
0.02
0.05
0.065
0.035
0.045
0.07
0.03
0.075
0.045
0.13
0.125
0.135
0.05
0.115
0.105
0.085
0.115
0.17
0.16
0.115
0.18
0.21
0.17
0.155
0.185
0.21
0.19
0.2
0.14
0.145
0.19
0.225
0.21
0.16
0.16
0.165
0.14
0.16
0.165
0.16
0.16
0.18
0.205
0.15
0.175
0.13
0.145
0.15
0.11
0.085
0.105
0.075
0.08
0.08
0.075
-0.01
0.005
0.025
0.05
0.075
0.09
0.035
0.03
0.055
0.035
0.02
0.035
0.02
-0.02
0.04
0.015
0.0
-0.005
-0.015
-0.05
-0.05
0.015
0.01
-0.005
0.03
0.015
0.005
0.02
0.05
-0.01
-0.03
-0.05
-0.04
0.07
0.025
0.06
-0.07
-0.035
-0.02
-0.02
-0.035
-0.03
-0.01
-0.01
-0.01
0.015
-0.005
-0.08
0.0
0.005
0.005
-0.095
-0.04
-0.015
0.005
0.01
0.025
0.03
0.03
-0.015
-0.025
-0.03
-0.02
-0.02
0.025
0.04
0.015
-0.03
0.015
-0.04
-0.02
0.01
0.005
0.01
0.0
0.025
0.02
0.01
-0.015
0.0
-0.045
-0.045
0.005
0.015
0.015
0.0
0.025
0.06
0.025
-0.06
0.005
-0.03
-0.04
-0.005
0.065
0.025
-0.02
0.005
0.005
-0.02
0.015
0.03
0.0
-0.005
0.0
0.01
0.01
0.05
0.035
-0.015
-0.045
-0.06
-0.035
-0.035
0.01
-0.025
-0.025
0.055
0.065
0.055
0.05
0.0
0.01
0.01
0.02
-0.005
-0.045
-0.035
-0.01
0.005
-0.01
0.015
0.055
0.105
0.135
0.07
0.1
0.04
0.07
0.1
0.095
0.08
0.01
0.035
0.055
0.01
-0.02
-0.015
0.01
-0.02
-0.02
0.02
-0.02
-0.025
0.005
0.06
0.01
0.03
0.01
-0.03
-0.015
-0.01
-0.045
-0.035
-0.035
-0.06
-0.02
0.035
-0.045
-0.005
-0.015
-0.06
-0.11
-0.045
-0.01
0.015
0.04
0.05
-0.075
-0.095
-0.005
0.025
0.055
0.005
-0.01
0.065
0.05
0.08
0.17
0.26
0.295
0.365
0.5
0.54
0.665
0.795
0.94
0.955
0.89
0.755
0.61
0.545
0.42
0.285
0.17
0.08
0.085
0.105
0.11
0.11
0.105
0.055
0.07
0.075
0.04
0.02
-0.02
-0.005
-0.08
-0.03
0.045
-0.01
-0.02
-0.02
0.005
-0.005
-0.03
-0.02
-0.025
-0.025
-0.04
-0.06
-0.045
-0.045
-0.02
-0.015
-0.02
-0.045
-0.025
-0.05
-0.045
-0.08
-0.03
0.03
-0.05
-0.035
-0.02
-0.02
-0.07
-0.045
-0.045
-0.05
0.0
0.02
0.02
-0.025
-0.015
0.045
0.0
-0.015
-0.055
-0.045
0.04
0.01
-0.01
-0.04
0.01
0.02
0.01
0.015
0.015
-0.025
-0.04
0.03
0.015
0.0
0.015
0.005
0.04
0.0
0.035
0.035
0.055
0.055
0.06
0.055
0.07
0.075
0.025
0.07
0.11
0.06
0.085
0.1
0.1
0.12
0.135
0.09
0.115
0.145
0.15
0.14
0.18
0.16
0.155
0.16
0.17
0.18
0.175
0.185
0.19
0.16
0.175
0.16
0.175
0.26
0.23
0.2
0.185
0.195
0.205
0.175
0.22
0.245
0.21
0.175
0.17
0.225
0.24
0.195
0.165
0.19
0.2
0.205
0.15
0.185
0.195
0.115
0.08
0.1
0.135
0.06
0.135
0.155
0.09
0.11
0.08
0.08
0.105
0.075
0.09
0.04
0.11
0.085
0.095
0.075
0.07
0.04
0.045
-0.02
-0.045
-0.01
0.05
0.035
0.12
0.135
0.035
0.08
0.095
0.03
0.02
0.01
0.085
0.09
0.055
0.05
0.08
0.035
0.035
-0.03
0.02
0.06
0.055
0.07
0.055
0.045
0.035
0.035
0.065
-0.005
0.015
0.045
0.065
0.075
0.035
0.035
0.01
0.01
0.015
0.01
0.03
0.045
0.05
0.04
0.085
0.025
0.015
0.055
0.08
0.02
-0.02
-0.02
0.06
0.06
0.1
0.095
0.035
0.025
0.09
0.02
0.01
0.04
0.07
0.075
0.025
0.03
0.085
0.05
0.045
0.045
0.045
0.05
0.065
0.05
0.08
0.11
0.06
0.035
0.03
0.03
0.085
0.035
0.05
0.01
-0.015
0.04
0.065
0.0
0.045
0.045
0.045
0.035
0.055
0.025
0.08
0.05
0.11
0.035
0.065
0.105
0.06
0.1
0.12
0.135
0.12
0.17
0.155
0.135
0.115
0.1
0.105
0.115
0.17
0.105
0.08
0.135
0.095
0.045
0.005
0.06
-0.02
0.11
0.06
0.03
0.05
0.065
0.045
0.035
0.04
0.06
0.045
0.0
0.05
0.08
0.07
0.065
0.035
0.025
0.02
0.0
0.03
0.035
0.06
0.055
0.02
0.01
0.025
0.01
-0.035
0.09
0.09
0.105
0.11
0.17
0.155
0.1
0.045
0.015
0.115
0.165
0.255
0.29
0.445
0.54
0.66
0.74
0.9
1.03
1.055
0.855
0.71
0.595
0.515
0.375
0.21
0.145
0.09
0.06
0.14
0.14
0.075
0.11
0.105
0.115
0.03
0.105
-0.005
-0.035
-0.01
-0.02
-0.015
0.005
-0.005
0.015
-0.005
0.055
0.01
-0.005
0.0
-0.065
0.0
0.02
0.0
0.035
0.015
0.0
-0.03
-0.055
0.0
-0.025
0.005
-0.035
0.03
0.055
-0.02
-0.02
-0.01
-0.005
-0.03
0.005
0.05
0.075
0.025
-0.03
0.015
0.03
0.015
0.02
0.05
0.015
0.01
0.04
0.05
0.005
0.0
0.025
-0.005
0.015
0.05
0.04
0.025
0.05
0.055
0.055
0.065
0.09
0.07
0.02
0.11
0.055
0.095
0.08
0.095
0.115
0.095
0.07
0.09
0.085
0.04
0.035
0.14
0.12
0.085
0.135
0.195
0.14
0.135
0.14
0.16
0.17
0.165
0.195
0.2
0.2
0.19
0.195
0.215
0.155
0.18
0.235
0.27
0.245
0.255
0.245
0.25
0.24
0.25
0.255
0.27
0.24
0.25
0.31
0.275
0.24
0.265
0.235
0.235
0.175
0.2
0.185
0.22
0.25
0.185
0.175
0.245
0.205
0.22
0.205
0.215
0.065
0.17
0.235
0.105
0.045
0.13
0.155
0.12
0.06
0.06
0.06
0.09
0.11
0.12
0.1
0.055
0.035
0.045
0.045
0.03
0.085
0.05
0.075
0.115
0.08
0.02
-0.03
0.03
-0.02
0.02
0.02
0.085
0.015
0.015
0.055
0.08
0.04
0.04
0.05
0.02
0.045
0.06
0.05
0.02
-0.005
0.01
0.04
0.005
0.03
-0.035
0.015
0.01
-0.005
0.01
0.08
0.1
-0.01
0.005
0.025
0.035
0.055
0.05
-0.01
0.01
-0.045
-0.015
0.035
0.065
0.03
0.04
0.055
0.06
0.01
0.045
0.07
0.03
-0.03
-0.015
-0.01
-0.015
-0.005
0.025
0.035
0.005
0.055
0.0
-0.04
0.02
0.005
0.025
0.065
0.035
0.065
-0.02
0.01
-0.03
-0.035
0.0
-0.015
-0.07
-0.005
0.01
-0.025
0.04
0.04
0.01
0.01
-0.01
0.005
-0.005
-0.015
0.08
0.025
0.055
0.09
0.07
0.07
0.06
0.055
0.13
0.115
0.08
0.055
0.04
0.06
0.075
0.095
0.07
0.04
0.045
0.015
0.11
0.03
0.035
0.025
-0.035
-0.02
-0.02
-0.035
-0.035
-0.005
-0.02
-0.015
-0.02
0.02
0.0
-0.05
-0.045
-0.025
-0.01
-0.04
0.055
-0.04
-0.02
-0.015
-0.045
-0.03
-0.04
0.025
0.03
-0.02
-0.05
-0.085
-0.05
-0.025
-0.04
-0.01
0.015
0.015
0.03
0.09
-0.035
0.075
0.055
0.12
0.115
0.195
0.26
0.35
0.435
0.565
0.655
0.8
0.935
1.05
0.945
0.795
0.59
0.51
0.39
0.255
0.12
0.05
0.085
0.13
0.06
0.09
0.115
0.045
0.06
0.07
0.065
0.06
-0.045
-0.03
-0.005
-0.005
-0.09
-0.065
-0.05
-0.005
-0.04
0.0
0.015
0.02
-0.07
-0.03
-0.055
-0.025
-0.03
-0.045
-0.045
0.03
-0.005
-0.065
-0.03
-0.055
-0.035
-0.03
0.005
0.015
-0.04
0.0
-0.015
-0.005
-0.03
-0.12
-0.075
-0.04
0.0
0.01
0.02
0.01
0.01
0.005
-0.025
-0.035
-0.04
0.035
-0.015
0.015
0.015
0.005
0.045
0.0
-0.025
-0.04
0.015
-0.035
-0.06
0.05
0.045
-0.005
0.01
0.065
0.005
0.045
0.13
0.03
0.055
0.065
0.045
0.04
0.1
0.05
0.065
0.11
0.085
0.085
0.06
0.075
0.075
0.12
0.155
0.095
0.11
0.11
0.145
0.155
0.145
0.17
0.16
0.135
0.15
0.15
0.15
0.145
0.14
0.16
0.205
0.18
0.19
0.19
0.215
0.175
0.18
0.185
0.2
0.15
0.175
0.22
0.155
0.155
0.215
0.18
0.16
0.165
0.165
0.12
0.165
0.135
0.08
0.095
0.095
0.065
0.105
0.085
0.06
0.035
0.055
0.085
0.09
0.08
0.05
0.015
-0.005
-0.03
-0.1
0.015
-0.005
0.015
-0.055
0.05
0.05
-0.03
-0.055
-0.03
-0.095
-0.085
-0.04
-0.02
-0.045
-0.025
-0.005
-0.04
-0.025
-0.045
-0.085
-0.04
-0.07
-0.085
-0.08
-0.035
-0.055
-0.03
-0.02
0.01
-0.045
-0.08
-0.045
-0.055
-0.075
-0.045
0.005
-0.04
-0.065
-0.02
-0.035
-0.045
-0.025
0.01
-0.025
-0.04
-0.075
-0.08
-0.085
-0.095
-0.065
-0.065
-0.06
-0.065
-0.06
-0.04
-0.025
-0.045
-0.13
-0.06
-0.02
-0.05
-0.01
-0.055
-0.065
-0.06
-0.1
-0.11
-0.09
-0.105
-0.065
-0.085
-0.045
-0.065
-0.025
0.015
-0.105
-0.145
-0.09
-0.11
-0.11
-0.035
0.0
-0.045
-0.06
-0.04
-0.125
-0.06
-0.05
-0.065
-0.09
-0.085
-0.035
-0.105
-0.09
-0.1
-0.08
-0.105
-0.095
-0.09
-0.055
0.015
0.025
0.01
-0.055
-0.065
-0.04
-0.015
0.015
-0.005
-0.01
0.025
0.01
-0.04
-0.065
-0.025
-0.08
-0.07
-0.035
-0.07
-0.08
-0.055
-0.1
-0.095
-0.1
-0.07
-0.105
-0.115
-0.115
-0.11
-0.09
-0.075
-0.13
-0.135
-0.175
-0.125
-0.135
-0.105
-0.09
-0.105
-0.12
-0.065
-0.045
-0.09
-0.13
-0.11
-0.145
-0.115
-0.12
-0.11
-0.085
-0.03
-0.03
-0.08
-0.065
-0.02
-0.13
-0.11
-0.12
-0.055
0.08
0.195
0.245
0.36
0.38
0.53
0.6
0.735
0.92
0.885
0.745
0.645
0.445
0.395
0.23
0.09
0.01
-0.015
0.005
-0.015
0.005
0.065
0.02
-0.005
-0.01
-0.065
-0.08
-0.1
-0.135
-0.12
-0.135
-0.125
-0.125
-0.095
-0.085
-0.085
-0.13
-0.085
-0.165
-0.155
-0.135
-0.11
-0.11
-0.12
-0.14
-0.135
-0.115
-0.13
-0.07
-0.095
-0.085
-0.125
-0.16
-0.095
-0.11
-0.155
-0.105
-0.085
-0.125
-0.13
-0.09
-0.12
-0.075
-0.04
-0.1
-0.1
-0.095
-0.125
-0.105
-0.115
-0.08
-0.12
-0.105
-0.07
-0.045
-0.11
-0.135
-0.12
-0.135
-0.16
-0.115
-0.02
-0.035
-0.05
-0.02
-0.08
-0.085
-0.065
-0.06
-0.09
-0.095
-0.02
0.01
-0.03
-0.04
-0.035
-0.01
0.04
-0.015
0.02
-0.02
-0.02
-0.02
0.015
0.02
0.045
0.035
-0.015
0.005
0.025
0.115
0.11
0.055
0.075
0.09
0.05
0.005
0.06
0.065
0.085
0.19
0.15
0.135
0.15
0.15
0.125
0.12
0.135
0.165
0.08
0.135
0.11
0.135
0.14
0.175
0.08
0.08
0.115
0.085
0.115
0.16
0.13
0.075
0.055
0.105
0.09
0.015
0.06
0.085
0.075
0.105
0.045
0.065
-0.005
-0.065
-0.055
0.005
0.005
-0.01
0.02
0.035
-0.005
-0.03
-0.02
-0.055
-0.085
-0.035
-0.025
-0.065
-0.08
-0.085
-0.075
-0.09
-0.065
-0.05
-0.01
-0.055
-0.09
-0.09
-0.07
-0.035
-0.04
-0.07
-0.015
-0.085
-0.12
-0.065
-0.06
-0.095
-0.055
-0.11
-0.08
-0.03
-0.03
-0.09
-0.02
-0.075
-0.155
-0.105
-0.025
-0.02
-0.105
-0.12
-0.08
-0.06
-0.07
-0.08
-0.05
-0.05
-0.06
-0.025
-0.055
-0.08
-0.06
-0.06
-0.08
-0.035
-0.045
-0.095
-0.065
0.0
-0.04
-0.09
-0.085
-0.055
-0.07
-0.09
-0.08
-0.075
-0.055
-0.045
-0.045
-0.015
-0.025
-0.02
-0.005
-0.14
-0.055
-0.115
-0.075
-0.065
-0.085
-0.045
-0.07
-0.09
-0.08
-0.035
0.005
-0.065
0.025
0.025
-0.03
-0.085
-0.045
-0.085
-0.075
-0.075
-0.05
-0.075
0.015
-0.02
0.0
-0.025
0.03
0.005
0.005
0.0
-0.005
-0.01
-0.01
0.045
-0.025
0.01
0.075
0.015
-0.04
-0.035
-0.015
-0.015
-0.02
-0.02
-0.03
-0.035
-0.06
-0.115
-0.11
-0.015
-0.055
-0.055
-0.045
-0.085
-0.06
-0.03
-0.035
-0.08
-0.09
-0.05
-0.075
-0.085
-0.025
-0.075
-0.05
-0.075
-0.095
-0.075
-0.055
-0.1
-0.06
-0.045
-0.065
-0.06
-0.015
0.035
0.015
0.0
-0.015
-0.02
0.02
0.05
0.05
0.14
0.2
0.265
0.315
0.37
0.505
0.615
0.765
0.93
0.885
0.76
0.63
0.525
0.365
0.19
0.075
-0.065
-0.05
-0.025
0.04
0.02
0.07
-0.005
-0.03
-0.07
-0.035
-0.025
-0.03
-0.08
-0.055
-0.045
-0.015
-0.08
-0.105
-0.11
-0.12
-0.065
-0.11
-0.08
-0.06
-0.05
-0.035
-0.03
-0.065
-0.09
-0.055
-0.1
-0.115
-0.08
-0.035
-0.06
-0.1
-0.085
-0.11
-0.05
-0.03
-0.015
-0.1
-0.02
-0.035
-0.06
-0.08
-0.06
-0.02
-0.045
-0.025
-0.045
-0.035
-0.005
-0.045
-0.035
-0.05
-0.065
-0.09
-0.095
-0.02
-0.06
-0.01
-0.045
-0.045
-0.025
-0.01
0.005
-0.075
-0.03
-0.035
-0.05
-0.055
-0.005
0.005
0.0
-0.06
-0.005
-0.01
0.01
0.035
0.04
0.035
0.07
-0.005
0.03
0.08
0.085
0.075
0.0
0.065
0.07
0.095
0.095
0.115
0.13
0.05
0.12
0.08
0.08
0.1
0.155
0.195
0.125
0.14
0.18
0.18
0.21
0.12
0.08
0.195
0.145
0.14
0.185
0.195
0.15
0.205
0.16
0.165
0.12
0.145
0.165
0.125
0.155
0.155
0.145
0.11
0.12
0.145
0.08
0.065
0.085
0.095
0.1
0.085
0.08
0.12
0.015
0.02
0.03
-0.015
-0.04
0.01
0.01
0.005
0.025
-0.005
-0.01
-0.06
-0.03
-0.07
-0.04
-0.025
0.005
-0.01
-0.02
-0.025
-0.015
-0.045
-0.025
-0.055
-0.065
-0.09
-0.07
-0.045
-0.07
-0.045
-0.07
-0.045
-0.055
-0.065
-0.09
-0.045
-0.025
-0.015
-0.015
-0.005
-0.03
-0.075
-0.135
-0.085
-0.07
-0.035
-0.035
-0.035
-0.065
-0.025
-0.075
-0.105
-0.06
-0.055
-0.09
-0.045
-0.01
-0.005
-0.025
-0.09
-0.06
-0.035
-0.055
-0.07
-0.09
-0.07
-0.06
-0.05
-0.07
-0.095
-0.06
-0.06
-0.055
-0.06
-0.06
-0.055
-0.015
-0.06
-0.055
-0.01
-0.11
-0.05
-0.055
-0.04
-0.085
-0.09
-0.12
-0.06
-0.06
-0.06
-0.04
-0.06
-0.07
-0.065
-0.06
-0.045
-0.075
-0.05
-0.02
-0.03
-0.085
-0.05
-0.035
-0.085
-0.095
-0.035
-0.085
-0.06
-0.025
-0.025
-0.07
-0.065
-0.08
-0.055
-0.075
-0.045
0.05
0.05
-0.035
0.05
0.02
-0.005
0.01
-0.04
-0.02
0.0
-0.015
-0.055
-0.055
-0.06
-0.095
-0.04
-0.01
-0.05
-0.14
-0.045
-0.075
-0.025
-0.045
-0.05
-0.085
-0.06
-0.095
-0.115
-0.04
-0.075
-0.095
-0.055
-0.09
-0.055
-0.13
-0.11
-0.115
-0.115
-0.05
-0.04
-0.09
-0.09
-0.07
-0.075
-0.07
-0.06
-0.005
-0.085
-0.055
-0.025
-0.065
-0.05
-0.025
-0.01
0.075
0.14
0.22
0.27
0.41
0.52
0.55
0.71
0.865
0.87
0.7
0.605
0.465
0.395
0.215
0.1
0.03
-0.005
-0.04
0.015
-0.005
-0.02
-0.055
-0.045
-0.06
-0.015
-0.04
-0.095
-0.13
-0.11
-0.115
-0.125
-0.05
-0.06
-0.1
-0.125
-0.155
-0.145
-0.095
-0.145
-0.15
-0.15
-0.17
-0.11
-0.095
-0.09
-0.115
-0.155
-0.105
-0.155
-0.125
-0.075
-0.085
-0.14
-0.12
-0.065
-0.06
-0.095
-0.135
-0.15
-0.13
-0.1
-0.11
-0.13
-0.12
-0.08
-0.105
-0.1
-0.085
-0.12
-0.11
-0.125
-0.135
-0.1
-0.055
-0.06
-0.055
-0.12
-0.055
-0.07
-0.055
-0.06
-0.105
-0.075
-0.02
-0.035
-0.085
-0.07
-0.06
-0.055
-0.045
-0.015
-0.005
-0.09
-0.025
-0.015
-0.05
-0.075
-0.01
-0.04
-0.03
-0.005
-0.02
-0.015
-0.015
-0.07
0.02
0.015
0.0
0.0
0.075
0.065
0.01
0.02
0.085
0.04
0.0
0.035
0.115
0.09
0.11
0.11
0.065
0.05
0.135
0.115
0.08
0.125
0.115
0.09
0.085
0.09
0.095
0.065
0.115
0.15
0.125
0.115
0.03
0.045
0.045
0.09
0.08
0.065
0.06
0.045
-0.005
0.02
-0.025
0.0
-0.025
-0.03
0.01
-0.04
0.04
0.005
-0.02
-0.015
-0.06
-0.095
-0.06
-0.075
-0.075
-0.01
-0.035
-0.08
-0.08
-0.04
-0.065
-0.05
-0.12
-0.07
-0.135
-0.125
-0.055
-0.055
-0.09
-0.1
-0.12
-0.11
-0.065
-0.11
-0.06
-0.165
-0.13
-0.1
-0.065
-0.03
-0.065
-0.1
-0.085
-0.13
-0.155
-0.12
-0.175
-0.13
-0.1
-0.105
-0.075
-0.07
-0.095
-0.1
-0.07
-0.11
-0.075
-0.11
-0.175
-0.15
-0.145
-0.12
-0.095
-0.12
-0.13
-0.105
-0.085
-0.09
-0.08
-0.065
-0.085
-0.105
-0.135
-0.125
-0.135
-0.165
-0.115
-0.1
-0.11
-0.095
-0.1
-0.105
-0.095
-0.095
-0.085
-0.12
-0.12
-0.18
-0.165
-0.09
-0.185
-0.15
-0.08
-0.095
-0.145
-0.1
-0.125
-0.075
-0.09
-0.135
-0.155
-0.11
-0.135
-0.145
-0.135
-0.125
-0.11
-0.11
-0.15
-0.145
-0.125
-0.14
-0.12
-0.12
-0.13
-0.135
-0.145
-0.11
-0.135
-0.07
-0.12
-0.145
-0.125
-0.14
-0.085
-0.065
-0.12
-0.105
-0.035
-0.005
-0.075
-0.09
-0.075
-0.06
-0.07
-0.065
-0.075
-0.11
-0.105
-0.085
-0.08
-0.095
-0.09
-0.105
-0.115
-0.115
-0.115
-0.09
-0.13
-0.15
-0.185
-0.15
-0.165
-0.155
-0.11
-0.13
-0.17
-0.135
-0.165
-0.135
-0.155
-0.145
-0.185
-0.2
-0.125
-0.095
-0.145
-0.135
-0.11
-0.135
-0.17
-0.16
-0.125
-0.195
-0.175
-0.125
-0.12
-0.07
-0.065
-0.145
-0.165
-0.105
-0.135
-0.085
-0.06
0.03
0.12
0.22
0.345
0.46
0.53
0.645
0.81
0.89
0.845
0.685
0.565
0.425
0.37
0.19
0.085
-0.04
-0.085
-0.085
-0.01
-0.015
-0.035
-0.05
-0.05
-0.12
-0.13
-0.08
-0.075
-0.17
-0.155
-0.185
-0.185
-0.195
-0.155
-0.22
-0.19
-0.175
-0.145
-0.175
-0.13
-0.15
-0.175
-0.175
-0.22
-0.22
-0.19
-0.18
-0.175
-0.145
-0.12
-0.1
-0.165
-0.13
-0.15
-0.225
-0.185
-0.175
-0.14
-0.18
-0.21
-0.19
-0.16
-0.125
-0.16
-0.175
-0.155
-0.135
-0.105
-0.115
-0.22
-0.155
-0.175
-0.115
-0.14
-0.155
-0.16
-0.15
-0.15
-0.16
-0.12
-0.1
-0.14
-0.155
-0.08
-0.12
-0.155
-0.11
-0.14
-0.155
-0.145
-0.115
-0.08
-0.075
-0.12
-0.14
-0.11
-0.065
-0.03
-0.045
-0.135
-0.09
-0.075
-0.095
-0.11
-0.035
-0.015
-0.065
-0.055
-0.085
0.01
0.005
-0.015
0.03
0.01
-0.01
0.035
0.02
0.01
0.02
-0.005
0.03
0.085
0.08
0.05
0.055
0.1
0.06
0.01
0.05
0.06
0.105
0.12
0.075
0.135
0.05
0.04
0.035
0.02
0.04
0.075
0.02
0.035
0.005
0.0
-0.07
-0.02
-0.03
-0.045
-0.06
0.0
-0.035
-0.02
-0.015
-0.045
-0.025
-0.09
-0.165
-0.115
-0.115
-0.12
-0.13
-0.095
-0.12
-0.105
-0.13
-0.115
-0.125
-0.135
-0.115
-0.125
-0.13
-0.18
-0.135
-0.13
-0.155
-0.155
-0.215
-0.165
-0.1
-0.08
-0.115
-0.145
-0.205
-0.19
-0.13
-0.15
-0.135
-0.2
-0.17
-0.1
-0.07
-0.105
-0.14
-0.1
-0.155
-0.14
-0.16
-0.19
-0.14
-0.125
-0.145
-0.14
-0.08
-0.145
-0.17
-0.155
-0.15
-0.185
-0.17
-0.155
-0.14
-0.175
-0.14
-0.155
-0.2
-0.125
-0.135
-0.145
-0.07
-0.095
-0.165
-0.14
-0.12
-0.175
-0.14
-0.17
-0.155
-0.11
-0.135
-0.165
-0.2
-0.19
-0.165
-0.27
-0.19
-0.13
-0.135
-0.16
-0.13
-0.12
-0.14
-0.14
-0.115
-0.115
-0.165
-0.16
-0.175
-0.155
-0.125
-0.11
-0.11
-0.155
-0.24
-0.215
-0.2
-0.175
-0.17
-0.145
-0.15
-0.12
-0.11
-0.155
-0.125
-0.115
-0.14
-0.2
-0.19
-0.2
-0.185
-0.145
-0.15
-0.135
-0.145
-0.145
-0.12
-0.09
-0.165
-0.145
-0.115
-0.13
-0.205
-0.16
-0.19
-0.205
-0.16
-0.14
-0.14
-0.14
-0.115
-0.125
-0.085
-0.04
-0.05
-0.05
-0.09
-0.06
-0.085
-0.05
-0.12
-0.065
-0.07
-0.125
-0.09
-0.105
-0.175
-0.155
-0.205
-0.16
-0.135
-0.11
-0.17
-0.155
-0.165
-0.2
-0.17
-0.175
-0.225
-0.16
-0.13
-0.135
-0.135
-0.11
-0.185
-0.195
-0.165
-0.2
-0.245
-0.195
-0.13
-0.14
-0.18
-0.15
-0.21
-0.155
-0.165
-0.225
-0.135
-0.12
-0.16
-0.145
-0.115
-0.1
-0.17
-0.19
-0.185
-0.14
-0.055
0.07
0.115
0.145
0.185
0.325
0.385
0.57
0.74
0.865
0.795
0.755
0.625
0.46
0.405
0.3
0.07
0.02
-0.045
-0.085
-0.05
-0.035
-0.04
-0.06
-0.115
-0.155
-0.15
-0.14
-0.215
-0.195
-0.155
-0.15
-0.225
-0.19
-0.21
-0.225
-0.22
-0.175
-0.195
-0.24
-0.255
-0.195
-0.17
-0.125
-0.185
-0.21
-0.27
-0.21
-0.18
-0.21
-0.165
-0.1
-0.155
-0.16
-0.19
-0.26
-0.225
-0.145
-0.2
-0.225
-0.2
-0.13
-0.175
-0.18
-0.18
-0.195
-0.185
-0.155
-0.135
-0.19
-0.19
-0.15
-0.15
-0.185
-0.17
-0.22
-0.205
-0.2
-0.2
-0.165
-0.18
-0.115
-0.13
-0.17
-0.21
-0.165
-0.16
-0.155
-0.125
-0.15
-0.145
-0.1
-0.115
-0.11
-0.12
-0.095
-0.115
-0.115
-0.14
-0.135
-0.12
-0.055
-0.09
-0.105
-0.045
-0.085
-0.085
-0.08
-0.025
-0.06
-0.055
-0.05
-0.025
0.0
0.005
-0.005
0.045
0.005
0.005
0.005
0.065
0.02
0.075
0.06
0.05
0.075
0.09
-0.005
0.015
0.09
0.08
0.085
0.02
0.025
0.09
0.055
0.01
0.04
0.05
0.075
0.04
0.085
0.035
0.075
0.045
-0.02
-0.065
-0.04
-0.03
-0.055
-0.025
-0.08
-0.03
-0.095
-0.06
-0.075
-0.06
-0.1
-0.1
-0.11
-0.11
-0.085
-0.08
-0.11
-0.15
-0.13
-0.12
-0.125
-0.17
-0.12
-0.085
-0.065
-0.095
-0.17
-0.165
-0.175
-0.185
-0.21
-0.16
-0.18
-0.14
-0.125
-0.14
-0.125
-0.155
-0.14
-0.115
-0.11
-0.17
-0.165
-0.145
-0.135
-0.125
-0.21
-0.185
-0.215
-0.15
-0.155
-0.18
-0.14
-0.14
-0.15
-0.13
-0.165
-0.175
-0.165
-0.17
-0.12
-0.175
-0.165
-0.175
-0.13
-0.13
-0.15
-0.155
-0.225
-0.22
-0.13
-0.185
-0.155
-0.15
-0.165
-0.215
-0.185
-0.15
-0.185
-0.19
-0.165
-0.145
-0.155
-0.16
-0.16
-0.175
-0.145
-0.22
-0.22
-0.175
-0.145
-0.15
-0.1
-0.16
-0.17
-0.115
-0.105
-0.23
-0.195
-0.21
-0.225
-0.185
-0.11
-0.095
-0.205
-0.125
-0.155
-0.185
-0.215
-0.155
-0.21
-0.22
-0.165
-0.12
-0.135
-0.165
-0.19
-0.155
-0.205
-0.19
-0.15
-0.21
-0.195
-0.19
-0.17
-0.13
-0.185
-0.18
-0.15
-0.18
-0.145
-0.15
-0.165
-0.13
-0.125
-0.115
-0.13
-0.17
-0.205
-0.17
-0.205
-0.155
-0.065
-0.115
-0.14
-0.15
-0.115
-0.12
-0.165
-0.15
-0.18
-0.13
-0.13
-0.14
-0.175
-0.19
-0.16
-0.09
-0.085
-0.05
-0.135
-0.175
-0.075
-0.075
-0.1
-0.095
-0.035
-0.085
-0.11
-0.12
-0.07
-0.1
-0.12
-0.15
-0.105
-0.12
-0.135
-0.135
-0.12
-0.135
-0.085
-0.115
-0.13
-0.12
-0.105
-0.12
-0.135
-0.18
-0.13
-0.155
-0.16
-0.13
-0.12
-0.125
-0.165
-0.115
-0.075
-0.075
-0.125
-0.17
-0.15
-0.155
-0.21
-0.19
-0.18
-0.1
-0.125
-0.145
-0.105
-0.075
-0.05
-0.075
-0.09
-0.085
-0.08
0.005
0.095
0.14
0.235
0.275
0.395
0.5
0.605
0.73
0.845
0.785
0.685
0.525
0.465
0.3
0.105
-0.03
-0.07
-0.075
-0.045
-0.05
-0.025
-0.075
-0.105
-0.08
-0.1
-0.1
-0.09
-0.05
-0.105
-0.095
-0.15
-0.145
-0.145
-0.115
-0.205
-0.205
-0.16
-0.13
-0.115
-0.14
-0.11
-0.14
-0.14
-0.15
-0.135
-0.07
-0.085
-0.13
-0.125
-0.105
-0.125
-0.145
-0.115
-0.135
-0.155
-0.095
-0.11
-0.075
-0.07
-0.095
-0.15
-0.175
-0.11
-0.125
-0.09
-0.065
-0.075
-0.12
-0.105
-0.11
-0.16
-0.12
-0.085
-0.1
-0.05
-0.035
-0.04
-0.04
-0.04
0.015
-0.19
-0.105
-0.045
-0.08
-0.125
-0.07
-0.035
-0.065
-0.09
-0.065
-0.065
-0.045
-0.01
-0.02
0.015
-0.02
-0.075
-0.03
-0.045
-0.08
-0.075
-0.04
-0.03
0.0
0.035
0.055
0.035
0.055
-0.005
0.0
-0.01
0.02
0.065
0.075
0.09
0.1
0.115
0.105
0.1
0.13
0.075
0.075
0.095
0.1
0.15
0.17
0.16
0.14
0.175
0.115
0.11
0.135
0.16
0.12
0.095
0.165
0.13
0.13
0.1
0.035
0.04
0.11
0.1
0.07
0.07
0.085
0.095
0.035
0.035
0.025
0.005
-0.06
0.0
0.005
0.01
0.0
-0.015
0.01
0.03
-0.05
-0.06
-0.04
-0.13
-0.1
-0.08
-0.005
-0.035
-0.05
-0.08
-0.055
-0.125
-0.105
-0.1
-0.035
-0.065
-0.105
-0.105
-0.09
-0.07
-0.1
-0.1
-0.115
-0.065
-0.05
-0.085
-0.09
-0.04
-0.12
-0.115
-0.11
-0.035
-0.155
-0.105
-0.085
-0.045
-0.08
-0.115
-0.115
-0.105
-0.13
-0.13
-0.095
-0.115
-0.065
-0.035
-0.07
-0.05
-0.09
-0.105
-0.115
-0.16
-0.145
-0.085
-0.12
-0.115
-0.055
-0.08
-0.095
-0.075
-0.145
-0.13
-0.095
-0.105
-0.065
-0.065
-0.115
-0.095
-0.065
-0.055
-0.11
-0.105
-0.145
-0.105
-0.125
-0.075
-0.075
-0.07
-0.12
-0.125
-0.14
-0.115
-0.085
-0.09
-0.095
-0.09
-0.11
-0.095
-0.11
-0.11
-0.115
-0.17
-0.135
-0.13
-0.11
-0.06
-0.04
-0.08
-0.06
-0.11
-0.115
-0.125
-0.1
-0.135
-0.16
-0.115
-0.095
-0.105
-0.105
-0.115
-0.13
-0.11
-0.075
-0.075
-0.09
-0.075
-0.1
-0.1
-0.095
-0.105
-0.09
-0.08
-0.065
-0.16
-0.125
-0.065
-0.11
-0.165
-0.14
-0.12
-0.135
-0.125
-0.085
-0.035
-0.05
-0.05
-0.09
-0.115
-0.1
-0.105
-0.095
-0.05
-0.095
-0.105
-0.11
-0.075
-0.04
-0.05
-0.035
-0.01
-0.075
-0.055
-0.02
-0.025
-0.085
0.02
-0.025
-0.03
-0.07
-0.06
-0.05
-0.025
-0.015
-0.08
-0.11
-0.08
-0.12
-0.045
-0.105
-0.135
-0.06
-0.085
-0.1
-0.115
-0.11
-0.105
-0.19
-0.13
-0.065
-0.13
-0.06
-0.09
-0.12
-0.13
-0.12
-0.1
-0.12
-0.115
-0.125
-0.11
-0.13
-0.125
-0.135
-0.175
-0.12
-0.08
-0.07
-0.09
-0.035
-0.1
-0.075
-0.045
-0.01
-0.05
0.01
0.125
0.175
0.23
0.355
0.42
0.53
0.68
0.785
0.895
0.855
0.685
0.56
0.475
0.315
0.125
0.09
0.02
-0.03
-0.045
-0.005
-0.055
-0.04
0.01
0.01
-0.065
-0.065
-0.085
-0.13
-0.14
-0.07
-0.115
-0.145
-0.15
-0.12
-0.125
-0.105
-0.095
-0.14
-0.125
-0.175
-0.145
-0.14
-0.155
-0.115
-0.185
-0.14
-0.18
-0.15
-0.1
-0.06
-0.085
-0.11
-0.12
-0.14
-0.14
-0.115
-0.12
-0.13
-0.185
-0.115
-0.14
-0.12
-0.155
-0.135
-0.16
-0.125
-0.12
-0.135
-0.12
-0.055
-0.155
-0.12
-0.14
-0.11
-0.1
-0.08
-0.1
-0.165
-0.12
-0.09
-0.045
-0.075
-0.045
-0.1
-0.125
-0.125
-0.135
-0.135
-0.09
-0.08
-0.065
-0.045
-0.065
-0.035
-0.09
-0.025
-0.06
-0.085
-0.045
-0.06
-0.07
-0.03
-0.015
0.0
0.0
0.0
-0.015
0.005
0.04
0.005
0.015
0.03
0.045
0.0
0.03
0.045
0.065
0.08
0.055
0.06
0.1
0.125
0.125
0.075
0.08
0.085
0.12
0.095
0.085
0.12
0.165
0.105
0.06
0.065
0.085
0.115
0.115
0.095
0.115
0.105
0.16
0.085
0.05
0.045
0.04
0.04
0.005
-0.01
0.07
0.04
0.0
0.02
0.0
-0.04
-0.05
0.0
-0.035
-0.045
-0.03
-0.055
-0.07
-0.06
-0.05
-0.075
-0.08
-0.105
-0.01
-0.045
-0.04
-0.05
-0.14
-0.13
-0.09
-0.105
-0.13
-0.1
-0.125
-0.115
-0.075
-0.045
-0.07
-0.065
-0.035
-0.09
-0.1
-0.09
-0.16
-0.135
-0.09
-0.095
-0.11
-0.12
-0.145
-0.12
-0.085
-0.095
-0.12
-0.095
-0.035
-0.065
-0.13
-0.105
-0.075
-0.105
-0.13
-0.165
-0.18
-0.105
-0.09
-0.055
-0.095
-0.095
-0.2
-0.18
-0.13
-0.165
-0.145
-0.08
-0.055
-0.085
-0.135
-0.13
-0.12
-0.13
-0.085
-0.12
-0.12
-0.1
-0.08
-0.09
-0.095
-0.095
-0.115
-0.105
-0.1
-0.13
-0.145
-0.095
-0.06
-0.07
-0.095
-0.05
-0.085
-0.07
-0.09
-0.2
-0.14
-0.16
-0.15
-0.155
-0.165
-0.135
-0.11
-0.115
-0.13
-0.095
-0.115
-0.14
-0.06
-0.075
-0.1
-0.105
-0.175
-0.18
-0.105
-0.115
-0.145
-0.195
-0.15
-0.095
-0.08
-0.145
-0.125
-0.1
-0.12
-0.115
-0.13
-0.11
-0.075
-0.065
-0.04
-0.135
-0.1
-0.155
-0.195
-0.205
-0.155
-0.115
-0.095
-0.07
-0.12
-0.125
-0.155
-0.15
-0.13
-0.14
-0.15
-0.09
-0.065
-0.08
-0.085
-0.135
-0.12
-0.15
-0.15
-0.07
-0.135
-0.11
-0.05
0.015
-0.04
0.005
-0.06
-0.08
-0.015
-0.09
-0.075
-0.06
-0.03
-0.04
-0.075
-0.08
-0.095
-0.1
-0.125
-0.135
-0.16
-0.06
-0.08
-0.09
-0.09
-0.065
-0.14
-0.135
-0.165
-0.155
-0.145
-0.045
-0.045
-0.13
-0.125
-0.11
-0.105
-0.17
-0.145
-0.135
-0.135
-0.155
-0.155
-0.135
-0.1
-0.12
-0.085
-0.15
-0.135
-0.15
-0.16
-0.105
-0.1
-0.085
-0.05
-0.09
-0.105
-0.13
-0.095
-0.055
0.115
0.135
0.185
0.295
0.385
0.475
0.6
0.755
0.92
0.89
0.745
0.66
0.565
0.48
0.335
0.175
0.02
-0.025
-0.025
-0.005
0.0
0.065
0.06
0.005
-0.015
-0.05
-0.075
-0.1
-0.115
-0.2
-0.185
-0.135
-0.11
-0.11
-0.12
-0.165
-0.155
-0.135
-0.16
-0.11
-0.095
-0.12
-0.17
-0.125
-0.135
-0.16
-0.15
-0.12
-0.155
-0.145
-0.14
-0.085
-0.18
-0.12
-0.105
-0.175
-0.17
-0.1
-0.095
-0.135
-0.15
-0.13
-0.105
-0.095
-0.11
-0.16
-0.12
-0.1
-0.15
-0.095
-0.065
-0.06
-0.145
-0.07
-0.105
-0.1
-0.085
-0.14
-0.1
-0.125
-0.13
-0.13
-0.1
-0.12
-0.105
-0.07
-0.075
-0.085
-0.03
-0.105
-0.115
-0.055
-0.07
-0.015
-0.085
-0.055
0.075
-0.035
-0.07
-0.035
-0.065
0.025
0.005
-0.055
0.03
-0.02
-0.03
0.0
0.02
0.05
0.07
0.075
0.045
0.04
0.09
0.04
0.055
0.005
0.08
0.105
0.14
0.155
0.105
0.125
0.155
0.12
0.115
0.115
0.105
0.08
0.14
0.14
0.2
0.125
0.15
0.08
0.11
0.13
0.105
0.105
0.145
0.13
0.1
0.065
0.075
0.04
0.065
0.075
0.06
0.035
0.055
0.005
0.015
0.01
0.025
-0.01
0.015
0.0
-0.075
-0.1
-0.075
-0.02
-0.025
-0.015
-0.055
-0.105
-0.07
-0.065
-0.125
-0.05
-0.005
-0.095
-0.045
-0.03
-0.055
-0.07
-0.06
-0.085
-0.07
-0.085
-0.09
-0.07
-0.04
-0.12
-0.11
-0.09
-0.105
-0.095
-0.1
-0.065
-0.045
-0.03
-0.04
-0.085
-0.125
-0.135
-0.09
-0.14
-0.185
-0.03
-0.06
-0.1
-0.1
-0.1
-0.105
-0.055
-0.07
-0.065
-0.08
-0.13
-0.125
-0.13
-0.085
-0.085
-0.115
-0.06
-0.12
-0.075
-0.095
-0.08
-0.095
-0.115
-0.11
-0.07
-0.095
-0.075
-0.065
-0.06
-0.075
-0.08
-0.055
-0.13
-0.095
-0.06
-0.1
-0.13
-0.05
-0.075
-0.085
-0.04
-0.045
-0.085
-0.055
-0.075
-0.12
-0.1
-0.05
-0.03
-0.055
-0.1
-0.085
-0.14
-0.095
-0.08
-0.135
-0.13
-0.075
-0.05
-0.095
-0.055
0.0
-0.135
-0.105
-0.08
-0.06
-0.04
-0.075
-0.105
-0.085
-0.045
-0.075
-0.09
-0.09
-0.07
-0.12
-0.055
-0.12
-0.095
-0.085
-0.03
