# TIPE ECG 2021 - ECG-ID Database v1.0.0 par Physionet
# [N° de la personne, N° de l'enregistrement, Période d'échantillonnage, Prénom, Age, Sexe, Date de l'enregistrement]
[84, 2, 0.002, "Zack", 23, "H", "21.05.2005"]
0.835
1.115
1.485
1.35
1.02
1.42
1.69
1.14
1.07
1.255
1.22
1.245
1.095
1.31
1.67
1.57
1.22
1.24
1.25
1.455
1.685
0.94
1.045
1.47
1.615
1.785
1.235
1.31
1.26
1.475
1.31
1.58
1.57
1.305
1.55
1.815
1.685
1.71
1.395
1.435
1.505
1.26
1.495
1.48
1.4
1.31
1.655
1.695
1.53
1.515
1.63
1.685
1.595
1.74
1.57
1.46
1.47
1.47
1.42
1.405
1.76
1.38
1.63
1.845
1.63
1.215
1.57
1.92
1.63
1.625
1.38
1.285
1.68
1.53
1.35
1.455
1.725
1.54
1.62
1.77
2.05
1.73
1.595
1.515
1.515
1.405
1.805
1.715
1.705
1.34
1.66
1.66
1.975
1.92
1.815
1.835
1.705
1.73
1.765
1.91
2.135
2.455
2.45
2.31
2.145
2.49
2.77
2.85
2.61
2.36
1.99
1.19
1.335
0.615
0.51
1.035
1.045
1.175
1.375
1.545
0.85
1.14
1.52
1.345
1.37
1.625
1.725
1.45
1.75
2.34
1.97
1.59
2.015
1.845
2.115
2.51
2.23
2.64
2.315
2.395
2.29
2.05
1.7
1.89
2.13
2.45
2.59
2.555
2.43
2.09
2.36
2.37
2.545
2.285
2.22
2.485
2.125
2.375
2.41
2.57
2.345
2.755
2.585
1.84
2.355
2.56
2.43
2.24
2.46
2.815
2.75
2.5
2.59
2.465
2.205
2.415
2.845
2.635
2.46
2.38
2.565
2.635
2.495
2.61
2.885
3.01
2.735
2.85
2.465
2.665
2.335
2.525
2.645
2.885
2.935
2.9
2.965
2.77
2.53
3.21
3.295
2.635
2.545
2.855
2.785
3.015
3.11
2.67
2.885
2.93
3.095
2.98
2.88
2.8
3.05
2.885
2.38
2.675
2.47
2.41
2.48
2.58
2.875
2.86
2.855
2.38
2.65
2.865
2.46
2.325
2.285
2.055
2.265
1.88
1.875
2.435
3.015
2.84
2.64
2.5
2.035
2.44
2.57
2.025
2.3
2.135
2.14
2.05
2.175
2.415
2.64
2.49
2.285
2.46
1.88
1.815
2.055
2.36
2.62
2.51
2.21
2.31
2.245
1.84
1.595
1.83
2.295
2.62
2.11
2.18
1.78
2.32
2.0
1.845
1.915
1.95
2.05
2.01
1.895
2.18
2.09
2.005
2.07
2.385
2.14
1.59
1.855
1.605
2.135
1.785
2.195
2.19
1.9
1.905
2.105
1.895
1.255
1.355
1.56
1.785
2.205
2.19
1.77
1.585
1.77
1.82
2.115
2.22
2.15
1.625
0.955
1.45
2.2
1.355
1.59
1.805
1.845
1.81
1.595
1.815
1.97
1.435
1.7
1.47
1.955
2.09
1.875
1.545
1.49
1.83
1.655
1.445
1.085
1.73
2.485
2.65
1.655
1.02
1.44
1.575
1.53
1.36
1.83
1.895
1.59
1.57
1.485
2.03
1.885
1.445
1.345
2.025
1.66
1.36
0.94
1.145
1.58
1.71
1.615
1.275
1.735
1.825
1.26
1.445
1.25
1.51
1.82
1.745
1.99
1.535
1.525
1.4
1.55
1.455
1.655
1.475
1.14
1.56
1.72
1.815
1.495
1.875
1.51
1.75
1.525
1.29
1.3
1.535
1.42
1.335
1.535
1.94
1.89
1.41
1.795
2.245
1.41
0.895
1.835
2.15
2.405
2.265
2.18
2.04
2.465
1.9
1.77
2.27
1.905
1.515
1.49
0.74
0.875
0.515
0.225
0.56
0.49
0.21
0.255
0.2
0.63
1.11
1.455
0.865
1.13
0.745
1.23
1.64
1.575
1.165
1.33
1.36
1.725
1.2
1.52
1.54
1.155
1.335
1.82
1.39
1.33
1.885
2.035
2.05
1.63
1.495
2.005
0.975
1.145
1.455
1.895
1.42
1.46
1.98
2.3
2.46
1.49
1.25
1.345
1.28
1.86
1.94
1.52
1.54
1.575
1.735
1.52
1.5
1.815
2.3
2.065
1.335
1.025
1.13
1.555
1.075
2.075
2.135
2.015
1.99
2.345
2.015
1.815
1.535
1.285
1.485
1.44
2.01
2.01
2.05
2.25
1.795
1.97
1.96
2.485
1.77
1.1
2.345
2.105
1.635
1.5
1.845
2.54
2.145
2.15
1.855
2.145
1.645
1.99
1.95
2.21
1.94
2.435
2.025
1.87
1.94
1.535
2.025
1.72
2.005
1.685
1.515
1.615
1.64
1.345
2.095
1.86
1.47
1.59
1.675
1.86
1.615
1.26
0.89
2.075
1.73
1.345
1.975
1.63
1.3
1.315
1.715
1.81
1.22
1.21
1.45
1.54
1.6
1.025
0.99
1.85
1.32
1.635
1.56
0.925
1.22
1.285
1.23
1.295
1.14
1.705
1.63
1.16
1.165
1.21
1.96
1.69
1.295
1.37
1.175
1.335
1.3
1.83
1.53
1.17
1.53
0.905
1.325
1.33
1.08
1.615
1.78
1.445
1.53
1.37
1.05
1.485
1.37
1.46
1.6
1.45
1.76
1.5
1.51
0.665
1.19
1.07
1.775
1.655
1.41
1.375
1.28
1.2
1.6
1.225
1.28
1.715
2.1
1.17
0.72
1.405
1.675
1.145
0.81
1.965
2.055
1.425
1.32
1.25
1.135
1.29
1.185
1.345
1.525
1.575
1.64
1.535
1.24
1.33
1.54
1.785
1.3
0.605
1.19
1.995
1.67
1.635
1.83
1.43
0.79
1.62
1.845
0.315
0.785
1.395
2.035
1.58
1.115
1.47
1.125
1.615
1.355
0.81
1.87
1.305
0.915
1.24
1.535
1.41
1.795
1.37
1.705
1.17
1.44
1.12
1.07
1.555
1.765
1.275
0.855
1.04
1.095
1.625
1.065
1.735
1.76
1.355
1.39
1.045
1.65
1.62
1.08
1.505
1.58
1.275
1.15
1.44
2.105
1.09
0.865
1.745
1.27
1.3
1.59
1.14
1.525
1.445
1.59
1.52
1.945
1.835
1.665
2.01
2.045
2.21
2.38
2.295
2.295
1.78
1.34
0.63
0.435
0.925
0.435
-0.245
-0.16
0.59
0.68
-0.03
0.335
0.71
0.585
-0.01
-0.125
1.075
1.005
1.045
0.89
1.385
1.365
1.29
1.31
1.47
1.54
0.835
1.27
1.395
1.555
1.45
1.52
1.44
1.415
1.455
1.34
1.365
1.475
1.34
1.785
1.865
1.425
1.17
0.935
1.695
2.035
1.54
0.985
0.975
1.78
1.88
1.47
1.365
1.43
1.465
1.48
1.465
1.49
1.32
1.455
1.495
1.34
1.415
1.965
1.44
1.8
1.965
1.61
1.465
1.515
1.78
1.755
1.575
1.43
1.785
1.795
1.47
1.805
1.48
1.22
1.155
2.025
2.11
2.115
1.995
1.905
1.91
1.63
1.815
1.85
1.91
1.915
1.865
1.905
2.01
1.86
1.465
1.865
2.055
1.975
2.05
1.9
1.915
1.835
1.83
1.675
1.755
1.795
1.79
1.655
1.23
1.58
1.76
1.545
1.31
1.15
1.33
1.15
1.305
1.3
1.205
1.345
1.64
1.37
0.93
0.955
1.195
0.94
0.695
0.95
1.135
0.55
0.685
1.005
1.43
1.165
0.705
0.61
0.755
0.675
0.76
0.885
0.77
0.7
0.635
0.59
0.8
0.705
0.675
0.61
0.63
0.69
0.505
0.415
0.5
0.595
0.61
0.78
0.74
0.455
0.665
1.125
0.86
0.1
0.21
0.17
0.475
0.54
0.785
0.455
0.185
0.19
0.32
0.43
0.3
0.26
0.09
0.345
0.44
0.165
0.225
0.395
0.37
0.47
0.305
0.175
0.23
0.425
0.285
0.21
0.12
0.05
0.09
0.24
0.6
0.425
0.695
0.385
0.225
0.06
0.325
0.195
0.045
0.13
0.275
0.195
0.055
-0.345
0.095
0.655
0.365
0.23
0.06
-0.08
0.21
0.365
0.11
0.16
0.14
0.15
0.0
0.16
0.24
0.185
-0.195
-0.18
0.08
0.36
0.51
-0.005
0.005
0.045
-0.135
-0.075
0.1
0.04
0.04
-0.24
-0.185
0.215
-0.11
0.1
0.085
-0.1
0.06
0.005
-0.14
-0.1
-0.06
-0.205
-0.095
-0.135
0.215
-0.205
-0.435
-0.07
0.05
0.205
-0.175
0.07
0.345
0.045
-0.435
-0.285
-0.155
-0.125
-0.265
-0.09
-0.05
-0.115
0.095
-0.06
-0.19
-0.08
-0.47
-0.125
0.015
-0.055
0.195
-0.645
-0.26
0.24
-0.01
-0.055
0.55
0.355
0.115
-0.08
0.43
0.345
0.27
0.88
0.535
0.13
-0.08
0.215
-0.165
-0.64
-0.96
-0.925
-1.045
-1.32
-0.955
-1.055
-1.185
-1.4
-1.385
-1.105
-1.045
-1.035
-0.92
-0.545
-0.665
-0.835
-0.6
-0.33
-0.235
-0.32
-0.085
-0.08
-0.135
-0.275
-0.115
-0.325
-0.225
0.29
0.19
0.13
0.03
0.115
0.205
-0.05
-0.035
0.14
-0.085
0.085
0.115
0.14
-0.07
0.155
0.08
-0.165
-0.095
0.015
0.06
0.1
0.045
0.055
0.19
-0.11
0.04
0.13
0.05
0.15
0.195
-0.025
0.07
0.225
0.235
0.13
0.26
0.325
0.305
0.22
0.18
0.215
0.295
0.315
0.33
0.315
0.305
0.335
0.435
0.465
0.42
0.43
0.495
0.495
0.57
0.605
0.625
0.67
0.53
0.61
0.67
0.61
0.515
0.53
0.605
0.605
0.57
0.555
0.505
0.445
0.42
0.295
0.34
0.355
0.29
0.21
0.195
0.13
-0.005
-0.04
-0.105
-0.105
-0.22
-0.285
-0.36
-0.43
-0.505
-0.56
-0.6
-0.705
-0.75
-0.815
-0.82
-0.89
-0.93
-0.955
-1.02
-1.09
-1.135
-1.21
-1.21
-1.235
-1.315
-1.395
-1.415
-1.425
-1.49
-1.505
-1.58
-1.605
-1.61
-1.685
-1.65
-1.64
-1.64
-1.6
-1.65
-1.605
-1.67
-1.665
-1.655
-1.665
-1.71
-1.725
-1.75
-1.78
-1.79
-1.805
-1.835
-1.875
-1.815
-1.86
-1.89
-1.91
-1.855
-1.875
-1.915
-1.895
-1.865
-1.88
-1.845
-1.835
-1.895
-1.895
-1.885
-1.92
-1.97
-1.99
-1.995
-1.95
-1.94
-1.9
-1.91
-1.94
-1.825
-1.78
-1.735
-1.74
-1.725
-1.67
-1.685
-1.69
-1.635
-1.68
-1.645
-1.625
-1.605
-1.565
-1.595
-1.63
-1.625
-1.58
-1.545
-1.555
-1.555
-1.56
-1.59
-1.49
-1.48
-1.6
-1.495
-1.5
-1.59
-1.53
-1.52
-1.435
-1.455
-1.435
-1.475
-1.415
-1.42
-1.41
-1.37
-1.38
-1.4
-1.395
-1.415
-1.445
-1.43
-1.42
-1.465
-1.47
-1.475
-1.465
-1.405
-1.42
-1.47
-1.48
-1.425
-1.305
-1.375
-1.51
-1.46
-1.445
-1.43
-1.4
-1.395
-1.41
-1.46
-1.41
-1.45
-1.43
-1.47
-1.42
-1.415
-1.39
-1.41
-1.445
-1.475
-1.425
-1.435
-1.46
-1.38
-1.37
-1.335
-1.36
-1.36
-1.34
-1.315
-1.405
-1.43
-1.425
-1.415
-1.415
-1.385
-1.295
-1.31
-1.285
-1.265
-1.21
-1.125
-1.015
-0.955
-0.86
-0.795
-0.755
-0.74
-0.73
-0.75
-1.01
-1.55
-2.025
-2.245
-2.42
-2.485
-2.47
-2.465
-2.505
-2.485
-2.465
-2.35
-2.26
-2.21
-2.16
-2.065
-1.985
-1.93
-1.88
-1.775
-1.67
-1.68
-1.645
-1.61
-1.54
-1.455
-1.43
-1.405
-1.415
-1.385
-1.375
-1.365
-1.385
-1.35
-1.35
-1.405
-1.335
-1.36
-1.32
-1.325
-1.325
-1.275
-1.26
-1.365
-1.3
-1.31
-1.31
-1.27
-1.27
-1.24
-1.265
-1.24
-1.3
-1.29
-1.3
-1.225
-1.265
-1.32
-1.225
-1.215
-1.225
-1.215
-1.23
-1.215
-1.185
-1.17
-1.17
-1.215
-1.145
-1.14
-1.14
-1.155
-1.1
-1.125
-1.145
-1.15
-1.07
-1.06
-1.02
-1.05
-0.99
-0.995
-1.06
-1.01
-0.985
-0.955
-0.96
-0.96
-0.94
-0.89
-0.925
-0.98
-0.96
-0.885
-0.855
-0.91
-0.885
-0.905
-0.875
-0.78
-0.77
-0.8
-0.79
-0.8
-0.765
-0.795
-0.875
-0.92
-0.935
-0.9
-0.89
-0.91
-0.93
-1.01
-0.985
-1.01
-1.035
-1.05
-1.145
-1.195
-1.125
-1.14
-1.135
-1.17
-1.155
-1.16
-1.17
-1.23
-1.275
-1.285
-1.27
-1.29
-1.29
-1.25
-1.22
-1.325
-1.275
-1.255
-1.21
-1.275
-1.23
-1.195
-1.195
-1.26
-1.225
-1.25
-1.29
-1.23
-1.19
-1.235
-1.175
-1.175
-1.215
-1.205
-1.22
-1.24
-1.265
-1.245
-1.22
-1.2
-1.22
-1.275
-1.29
-1.245
-1.215
-1.185
-1.24
-1.16
-1.185
-1.195
-1.175
-1.13
-1.12
-1.18
-1.145
-1.105
-1.175
-1.205
-1.14
-1.075
-1.09
-1.13
-1.185
-1.15
-1.18
-1.145
-1.17
-1.105
-1.12
-1.11
-1.04
-1.06
-1.07
-1.06
-1.06
-1.095
-1.08
-1.08
-1.005
-1.07
-1.095
-1.1
-1.08
-1.07
-1.015
-1.03
-1.045
-1.04
-1.025
-1.04
-1.015
-1.065
-1.075
-1.115
-0.95
-0.905
-0.99
-1.05
-1.065
-1.07
-0.995
-1.03
-1.015
-1.045
-1.035
-1.075
-1.03
-1.07
-1.07
-1.07
-1.065
-1.09
-1.075
-1.1
-1.055
-1.135
-1.145
-1.205
-1.075
-1.055
-1.08
-1.12
-1.135
-1.1
-1.105
-1.1
-1.13
-1.085
-1.095
-1.08
-1.05
-1.105
-1.1
-1.05
-1.02
-1.04
-1.03
-1.09
-1.14
-1.075
-1.04
-1.035
-1.075
-1.095
-1.12
-1.1
-1.05
-1.07
-1.085
-1.09
-1.11
-1.055
-1.005
-1.045
-1.055
-0.985
-1.01
-1.035
-0.91
-0.745
-0.6
-0.505
-0.43
-0.315
-0.25
-0.275
-0.355
-0.42
-0.77
-1.32
-1.815
-1.96
-2.13
-2.095
-1.97
-2.145
-2.16
-2.145
-2.08
-1.93
-1.905
-1.79
-1.725
-1.67
-1.605
-1.5
-1.425
-1.35
-1.35
-1.255
-1.175
-1.155
-1.115
-1.06
-0.995
-0.98
-1.015
-1.0
-1.03
-1.035
-0.995
-0.98
-1.0
-0.995
-0.99
-1.04
-0.98
-0.97
-0.97
-0.945
-0.96
-0.93
-0.96
-0.995
-0.96
-0.94
-0.92
-0.94
-0.94
-0.9
-0.88
-0.975
-0.95
-0.945
-0.87
-0.855
-0.86
-0.83
-0.84
-0.89
-0.84
-0.865
-0.88
-0.875
-0.865
-0.885
-0.86
-0.825
-0.8
-0.785
-0.755
-0.75
-0.725
-0.72
-0.75
-0.74
-0.745
-0.765
-0.73
-0.56
-0.565
-0.6
-0.645
-0.615
-0.545
-0.585
-0.595
-0.575
-0.545
-0.57
-0.585
-0.55
-0.53
-0.5
-0.445
-0.435
-0.475
-0.495
-0.515
-0.5
-0.485
-0.525
-0.575
-0.545
-0.55
-0.63
-0.655
-0.645
-0.675
-0.715
-0.755
-0.725
-0.745
-0.815
-0.845
-0.83
-0.88
-0.94
-0.925
-0.83
-0.865
-0.985
-1.025
-1.02
-0.975
-1.035
-1.0
-1.025
-1.045
-1.05
-1.015
-1.015
-1.03
-1.115
-1.035
-1.045
-1.085
-1.125
-1.145
-1.08
-1.065
-1.03
-1.05
-1.08
-1.065
-1.1
-1.06
-1.065
-1.06
-1.08
-1.105
-1.1
-1.11
-1.115
-1.13
-1.16
-1.165
-1.11
-1.005
-0.995
-1.095
-1.12
-1.055
-1.045
-1.095
-1.05
-1.055
-1.065
-1.055
-1.08
-1.085
-1.13
-1.19
-1.145
-1.065
-1.085
-1.135
-1.18
-1.17
-1.085
-1.05
-1.115
-1.14
-1.175
-1.175
-1.155
-1.09
-1.04
-1.125
-1.115
-1.045
-1.025
-1.055
-1.04
-1.145
-1.135
-1.075
-1.065
-1.09
-1.07
-1.06
-1.025
-1.03
-1.035
-1.105
-1.035
-1.01
-1.07
-1.02
-0.94
-1.095
-1.03
-1.015
-1.04
-1.04
-1.0
-1.08
-1.06
-1.06
-0.99
-1.045
-1.08
-1.055
-0.98
-0.985
-1.05
-1.09
-1.095
-1.08
-1.08
-1.125
-1.12
-1.085
-1.095
-1.1
-1.1
-1.11
-1.155
-1.12
-1.115
-1.16
-1.105
-1.125
-1.11
-1.08
-1.1
-1.09
-1.12
-1.1
-1.11
-1.11
-1.145
-1.175
-1.115
-1.115
-1.14
-1.095
-1.125
-1.215
-1.085
-1.08
-1.075
-1.005
-1.075
-1.105
-1.1
-1.105
-1.135
-1.14
-1.03
-1.085
-1.075
-0.995
-0.965
-0.925
-0.87
-0.8
-0.715
-0.585
-0.46
-0.345
-0.335
-0.3
-0.315
-0.335
-0.555
-1.01
-1.435
-1.85
-2.08
-2.26
-2.28
-2.19
-2.17
-2.25
-2.12
-2.065
-1.995
-1.915
-1.87
-1.685
-1.665
-1.605
-1.555
-1.475
-1.375
-1.31
-1.265
-1.23
-1.18
-1.18
-1.08
-1.055
-1.03
-1.005
-1.04
-1.0
-0.955
-1.02
-0.985
-0.92
-0.915
-0.91
-0.915
-0.945
-0.98
-0.965
-0.975
-0.975
-0.945
-0.945
-0.925
-0.945
-0.95
-0.87
-0.86
-0.88
-0.915
-0.895
-0.875
-0.87
-0.855
-0.85
-0.855
-0.885
-0.875
-0.835
-0.84
-0.81
-0.8
-0.84
-0.815
-0.77
-0.77
-0.775
-0.795
-0.72
-0.75
-0.785
-0.755
-0.695
-0.705
-0.675
-0.665
-0.61
-0.565
-0.62
-0.65
-0.635
-0.575
-0.555
-0.545
-0.505
-0.48
-0.45
-0.44
-0.45
-0.44
-0.44
-0.41
-0.455
-0.44
-0.425
-0.415
-0.41
-0.405
-0.385
-0.395
-0.455
-0.425
-0.47
-0.41
-0.505
-0.55
-0.48
-0.56
-0.615
-0.64
-0.65
-0.66
-0.67
-0.655
-0.68
-0.715
-0.765
-0.855
-0.9
-0.87
-0.785
-0.88
-0.935
-0.935
-0.95
-0.97
-0.93
-0.945
-0.93
-0.915
-0.94
-0.935
-0.975
-1.015
-1.05
-1.055
-1.03
-0.985
-0.975
-0.975
-1.015
-1.09
-1.02
-1.07
-1.115
-1.055
-1.065
-1.095
-1.12
-1.115
-1.085
-1.03
-1.06
-1.02
-1.045
-1.07
-1.045
-1.045
-1.07
-1.085
-1.07
-1.075
-1.055
-1.05
-1.07
-1.03
-1.085
-1.1
-1.08
-1.08
-1.13
-1.145
-1.09
-1.025
-1.015
-1.07
-1.075
-0.975
-1.01
-1.095
-1.075
-1.075
-1.015
-1.01
-1.085
-1.055
-1.06
-1.02
-0.98
-1.01
-0.995
-1.06
-1.065
-1.02
-1.065
-0.95
-0.89
-0.935
-0.96
-0.99
-0.975
-1.0
-0.97
-0.98
-0.99
-0.975
-0.95
-0.965
-0.95
-0.98
-0.965
-0.97
-0.94
-0.95
-0.98
-0.925
-0.91
-0.94
-0.94
-0.9
-0.945
-0.965
-0.9
-0.87
-0.895
-0.915
-0.915
-0.915
-0.975
-0.965
-0.945
-0.93
-0.94
-0.98
-0.93
-0.915
-0.915
-1.005
-1.095
-1.03
-0.93
-0.94
-0.985
-1.025
-1.065
-0.97
-0.935
-1.0
-0.985
-0.985
-0.96
-0.995
-1.005
-1.03
-1.045
-1.03
-1.06
-1.08
-0.965
-1.0
-1.02
-1.0
-0.94
-0.975
-0.99
-0.99
-0.985
-1.02
-1.015
-1.045
-1.0
-0.98
-0.95
-0.95
-0.945
-1.015
-0.925
-0.83
-0.84
-0.775
-0.72
-0.615
-0.48
-0.38
-0.335
-0.23
-0.195
-0.205
-0.245
-0.375
-0.79
-1.315
-1.785
-1.99
-2.095
-2.125
-2.115
-2.135
-2.08
-2.1
-2.06
-1.96
-1.845
-1.845
-1.68
-1.565
-1.51
-1.485
-1.365
-1.285
-1.205
-1.2
-1.14
-1.13
-1.11
-1.015
-0.935
-0.935
-0.9
-0.925
-0.955
-0.945
-0.88
-0.865
-0.905
-0.92
-0.895
-0.865
-0.89
-0.92
-0.88
-0.84
-0.88
-0.84
-0.845
-0.86
-0.855
-0.86
-0.81
-0.795
-0.87
-0.9
-0.79
-0.815
-0.82
-0.85
-0.8
-0.77
-0.75
-0.77
-0.77
-0.745
-0.75
-0.76
-0.74
-0.75
-0.74
-0.74
-0.715
-0.66
-0.7
-0.67
-0.66
-0.69
-0.675
-0.635
-0.55
-0.62
-0.7
-0.585
-0.52
-0.5
-0.51
-0.46
-0.43
-0.48
-0.44
-0.425
-0.38
-0.4
-0.375
-0.32
-0.395
-0.395
-0.37
-0.34
-0.355
-0.32
-0.35
-0.315
-0.325
-0.315
-0.41
-0.405
-0.35
-0.35
-0.37
-0.385
-0.445
-0.47
-0.46
-0.52
-0.55
-0.555
-0.585
-0.605
-0.62
-0.675
-0.695
-0.69
-0.685
-0.755
-0.775
-0.805
-0.845
-0.865
-0.86
-0.82
-0.845
-0.865
-0.92
-0.925
-0.885
-0.92
-0.96
-0.9
-0.93
-0.915
-0.94
-0.92
-0.88
-0.955
-0.91
-0.935
-0.94
-0.91
-0.965
-0.97
-0.925
-0.93
-0.875
-0.91
-0.93
-0.92
-0.95
-0.89
-0.905
-0.905
-0.965
-0.935
-0.925
-0.94
-0.925
-0.945
-0.895
-0.86
-0.885
-0.945
-0.89
-0.88
-0.9
-0.895
-0.9
-0.885
-0.865
-0.825
-0.855
-0.815
-0.825
-0.815
-0.815
-0.825
-0.82
-0.835
-0.825
-0.855
-0.845
-0.87
-0.905
-0.875
-0.8
-0.845
-0.885
-0.885
-0.86
-0.84
-0.815
-0.825
-0.84
-0.815
-0.86
-0.79
-0.84
-0.795
-0.775
-0.755
-0.77
-0.815
-0.825
-0.81
-0.82
-0.815
-0.83
-0.83
-0.825
-0.855
-0.89
-0.895
-0.885
-0.88
-0.975
-0.935
-0.805
-0.815
-0.84
-0.85
-0.845
-0.865
-0.89
-0.885
-0.85
-0.84
-0.895
-0.88
-0.9
-0.945
-0.91
-0.925
-0.915
-0.905
-0.905
-0.91
-0.905
-0.86
-0.86
-0.885
-0.9
-0.905
-0.91
-0.9
-0.915
-0.905
-0.92
-0.915
-0.9
-0.885
-0.86
-0.9
-0.895
-0.865
-0.885
-0.875
-0.805
-0.715
-0.765
-0.755
-0.595
-0.46
-0.38
-0.29
-0.19
-0.155
-0.12
-0.095
-0.13
-0.16
-0.51
-1.04
-1.595
-1.815
-1.965
-1.97
-2.03
-1.985
-1.98
-1.995
-1.955
-1.92
-1.81
-1.705
-1.61
-1.595
-1.51
-1.46
-1.365
-1.2
-1.12
-1.075
-1.035
-0.965
-0.93
-0.895
-0.87
-0.85
-0.84
-0.84
-0.825
-0.86
-0.845
-0.835
-0.85
-0.805
-0.765
-0.805
-0.73
-0.74
-0.705
-0.715
-0.68
-0.74
-0.725
-0.73
-0.705
-0.67
-0.675
-0.695
-0.74
-0.71
-0.705
-0.74
-0.66
-0.69
-0.66
-0.675
-0.7
-0.665
-0.605
-0.64
-0.64
-0.645
-0.61
-0.605
-0.585
-0.625
-0.63
-0.595
-0.595
-0.57
-0.54
-0.535
-0.545
-0.51
-0.515
-0.45
-0.435
-0.43
-0.4
-0.34
-0.385
-0.4
-0.345
-0.34
-0.33
-0.325
-0.265
-0.28
-0.245
-0.255
-0.3
-0.29
-0.23
-0.23
-0.19
-0.205
-0.25
-0.285
-0.225
-0.195
-0.205
-0.235
-0.255
-0.23
-0.275
-0.26
-0.285
-0.32
-0.345
-0.445
-0.445
-0.44
-0.45
-0.515
-0.55
-0.565
-0.55
-0.56
-0.585
-0.615
-0.67
-0.69
-0.645
-0.65
-0.715
-0.74
-0.67
-0.725
-0.735
-0.765
-0.755
-0.745
-0.77
-0.73
-0.78
-0.795
-0.8
-0.8
-0.775
-0.785
-0.815
-0.77
-0.89
-0.84
-0.765
-0.77
-0.77
-0.775
-0.81
-0.81
-0.795
-0.765
-0.72
-0.755
-0.8
-0.79
-0.785
-0.765
-0.83
-0.81
-0.82
-0.795
-0.78
-0.78
-0.81
-0.765
-0.77
-0.795
-0.83
-0.805
-0.795
-0.805
-0.775
-0.745
-0.825
-0.79
-0.745
-0.695
-0.72
-0.825
-0.815
-0.8
-0.8
-0.75
-0.735
-0.715
-0.74
-0.715
-0.725
-0.725
-0.72
-0.74
-0.72
-0.7
-0.725
-0.695
-0.635
-0.655
-0.705
-0.71
-0.695
-0.735
-0.73
-0.7
-0.715
-0.705
-0.695
-0.675
-0.7
-0.69
-0.675
-0.695
-0.66
-0.65
-0.66
-0.65
-0.61
-0.665
-0.64
-0.645
-0.685
-0.685
-0.685
-0.675
-0.715
-0.7
-0.69
-0.755
-0.845
-0.795
-0.755
-0.765
-0.805
-0.72
-0.685
-0.69
-0.725
-0.735
-0.73
-0.7
-0.755
-0.78
-0.755
-0.765
-0.76
-0.725
-0.77
-0.71
-0.765
-0.77
-0.72
-0.735
-0.715
-0.75
-0.735
-0.755
-0.765
-0.755
-0.755
-0.775
-0.81
-0.8
-0.73
-0.73
-0.785
-0.755
-0.765
-0.77
-0.79
-0.775
-0.765
-0.715
-0.67
-0.655
-0.68
-0.645
-0.61
-0.58
-0.33
-0.275
-0.27
-0.145
-0.065
0.02
0.08
0.09
0.035
-0.215
-0.63
-1.125
-1.55
-1.76
-1.82
-1.875
-1.89
-1.9
-1.88
-1.845
-1.73
-1.65
-1.66
-1.525
-1.385
-1.38
-1.275
-1.235
-1.135
-0.995
-0.915
-0.85
-0.885
-0.85
-0.825
-0.75
-0.715
-0.68
-0.66
-0.675
-0.665
-0.67
-0.66
-0.69
-0.6
-0.62
-0.66
-0.65
-0.63
-0.545
-0.565
-0.575
-0.595
-0.65
-0.645
-0.65
-0.64
-0.585
-0.55
-0.535
-0.565
-0.6
-0.56
-0.53
-0.595
-0.59
-0.515
-0.54
-0.515
-0.49
-0.495
-0.5
-0.52
-0.51
-0.505
-0.49
-0.475
-0.505
-0.475
-0.46
-0.455
-0.45
-0.435
-0.425
-0.4
-0.395
-0.365
-0.345
-0.33
-0.3
-0.325
-0.27
-0.255
-0.3
-0.32
-0.265
-0.155
-0.22
-0.185
-0.165
-0.085
-0.135
-0.14
-0.11
-0.105
-0.1
-0.105
-0.1
-0.085
-0.11
-0.12
-0.105
-0.105
-0.175
-0.19
-0.165
-0.195
-0.175
-0.21
-0.23
-0.245
-0.27
-0.29
-0.375
-0.37
-0.375
-0.42
-0.45
-0.48
-0.495
-0.45
-0.51
-0.54
-0.555
-0.545
-0.555
-0.56
-0.57
-0.61
-0.59
-0.605
-0.64
-0.705
-0.69
-0.645
-0.675
-0.66
-0.7
-0.66
-0.665
-0.66
-0.605
-0.67
-0.65
-0.7
-0.67
-0.625
-0.655
-0.645
-0.64
-0.645
-0.665
-0.655
-0.65
-0.645
-0.645
-0.675
-0.65
-0.68
-0.665
-0.68
-0.675
-0.655
-0.66
-0.68
-0.625
-0.63
-0.66
-0.7
-0.67
-0.64
-0.595
-0.695
-0.71
-0.68
-0.675
-0.65
-0.675
-0.635
-0.65
-0.66
-0.645
-0.67
-0.675
-0.625
-0.625
-0.62
-0.59
-0.63
-0.63
-0.505
-0.545
-0.58
-0.56
-0.64
-0.55
-0.54
-0.615
-0.61
-0.63
-0.64
-0.575
-0.635
-0.625
-0.595
-0.58
-0.585
-0.555
-0.58
-0.57
-0.57
-0.58
-0.545
-0.58
-0.565
-0.56
-0.52
-0.54
-0.55
-0.565
-0.585
-0.59
-0.585
-0.53
-0.51
-0.505
-0.5
-0.51
-0.555
-0.555
-0.59
-0.615
-0.62
-0.675
-0.68
-0.645
-0.47
-0.54
-0.625
-0.67
-0.66
-0.665
-0.645
-0.595
-0.625
-0.62
-0.605
-0.66
-0.65
-0.62
-0.665
-0.68
-0.635
-0.62
-0.615
-0.61
-0.61
-0.615
-0.605
-0.645
-0.645
-0.625
-0.62
-0.645
-0.685
-0.7
-0.69
-0.66
-0.625
-0.605
-0.63
-0.68
-0.685
-0.72
-0.63
-0.535
-0.565
-0.55
-0.505
-0.49
-0.45
-0.32
-0.24
-0.125
-0.02
0.09
0.15
0.2
0.205
0.18
-0.065
-0.48
-0.99
-1.46
-1.65
-1.695
-1.72
-1.75
-1.725
-1.725
-1.705
-1.655
-1.52
-1.5
-1.39
-1.29
-1.25
-1.17
-1.115
-1.035
-0.96
-0.84
-0.785
-0.74
-0.7
-0.675
-0.665
-0.615
-0.565
-0.505
-0.6
-0.625
-0.56
-0.515
-0.54
-0.49
-0.505
-0.54
-0.56
-0.53
-0.505
-0.515
-0.5
-0.505
-0.535
-0.49
-0.42
-0.445
-0.48
-0.47
-0.5
-0.485
-0.42
-0.465
-0.485
-0.445
-0.43
-0.44
-0.455
-0.435
-0.41
-0.375
-0.405
-0.415
-0.405
-0.375
-0.355
-0.35
-0.395
-0.31
-0.36
-0.41
-0.38
-0.33
-0.285
-0.24
-0.245
-0.27
-0.175
-0.165
-0.2
-0.21
-0.19
-0.225
-0.2
-0.155
-0.115
0.015
-0.055
-0.085
-0.03
0.08
-0.02
-0.02
0.03
-0.015
-0.065
-0.07
-0.025
-0.01
-0.05
-0.025
-0.025
0.015
0.04
0.005
-0.04
-0.05
-0.115
-0.12
-0.105
-0.12
-0.115
-0.17
-0.225
-0.2
-0.25
-0.34
-0.36
-0.385
-0.39
-0.405
-0.435
-0.415
-0.435
-0.465
-0.47
-0.45
-0.49
-0.555
-0.51
-0.58
-0.465
-0.475
-0.515
-0.525
-0.555
-0.58
-0.605
-0.545
-0.54
-0.535
-0.525
-0.535
-0.555
-0.595
-0.56
-0.565
-0.555
-0.545
-0.525
-0.58
-0.535
-0.51
-0.555
-0.59
-0.575
-0.6
-0.595
-0.54
-0.535
-0.57
-0.57
-0.555
-0.58
-0.6
-0.595
-0.58
-0.58
-0.525
-0.56
-0.535
-0.56
-0.545
-0.51
-0.5
-0.555
-0.58
-0.575
-0.575
-0.625
-0.545
-0.545
-0.54
-0.485
-0.53
-0.535
-0.5
-0.485
-0.51
-0.505
-0.48
-0.465
-0.49
-0.44
-0.435
-0.46
-0.47
-0.485
-0.515
-0.49
-0.51
-0.49
-0.515
-0.495
-0.51
-0.535
-0.485
-0.495
-0.48
-0.47
-0.51
-0.45
-0.43
-0.39
-0.4
-0.425
-0.42
-0.39
-0.405
-0.485
-0.47
-0.4
-0.47
-0.44
-0.42
-0.425
-0.49
-0.49
-0.47
-0.45
-0.505
-0.545
-0.5
-0.5
-0.52
-0.52
-0.53
-0.525
-0.545
-0.525
-0.545
-0.545
-0.49
-0.495
-0.53
-0.525
-0.54
-0.52
-0.525
-0.515
-0.6
-0.525
-0.495
-0.415
-0.51
-0.545
-0.515
-0.52
-0.555
-0.515
-0.545
-0.585
-0.535
-0.485
-0.49
-0.515
-0.545
-0.55
-0.54
-0.57
-0.5
-0.505
-0.49
-0.505
-0.505
-0.44
-0.41
-0.41
-0.375
-0.33
-0.205
-0.135
0.025
0.115
0.13
0.15
0.205
0.205
0.205
0.115
-0.35
-0.9
-1.345
-1.51
-1.565
-1.65
-1.645
-1.625
-1.63
-1.595
-1.595
-1.535
-1.475
-1.32
-1.265
-1.165
-1.11
-1.065
-0.97
-0.905
-0.8
-0.675
-0.635
-0.61
-0.58
-0.57
-0.525
-0.49
-0.495
-0.485
-0.43
-0.42
-0.44
-0.42
-0.38
-0.41
-0.43
-0.385
-0.44
-0.38
-0.36
-0.385
-0.4
-0.365
-0.385
-0.35
-0.38
-0.415
-0.345
-0.33
-0.34
-0.33
-0.285
-0.305
-0.34
-0.32
-0.28
-0.285
-0.295
-0.315
-0.29
-0.26
-0.29
-0.295
-0.255
-0.275
-0.28
-0.25
-0.21
-0.24
-0.215
-0.18
-0.185
-0.19
-0.16
-0.16
-0.15
-0.13
-0.115
-0.04
-0.005
0.01
-0.035
0.03
0.075
0.0
0.01
0.01
0.105
0.095
0.075
0.08
0.115
0.125
0.14
0.125
0.155
0.14
0.185
0.17
0.11
0.13
0.16
0.155
0.1
0.02
0.07
0.125
0.07
0.04
0.005
-0.075
-0.085
-0.11
-0.115
-0.125
-0.18
-0.215
-0.225
-0.235
-0.255
-0.29
-0.35
-0.315
-0.27
-0.305
-0.37
-0.355
-0.375
-0.39
-0.395
-0.38
-0.39
-0.445
-0.41
-0.48
-0.39
-0.42
-0.48
-0.445
-0.45
-0.445
-0.435
-0.445
-0.47
-0.45
-0.46
-0.44
-0.425
-0.385
-0.41
-0.375
-0.405
-0.435
-0.505
-0.49
-0.44
-0.46
-0.46
-0.435
-0.44
-0.435
-0.41
-0.43
-0.465
-0.48
-0.465
-0.4
-0.47
-0.455
-0.46
-0.45
-0.47
-0.475
-0.41
-0.44
-0.435
-0.42
-0.41
-0.44
-0.46
-0.43
-0.385
-0.36
-0.405
-0.44
-0.415
-0.385
-0.4
-0.4
-0.415
-0.39
-0.375
-0.43
-0.45
-0.43
-0.395
-0.385
-0.34
-0.32
-0.295
-0.39
-0.36
-0.34
-0.345
-0.35
-0.39
-0.39
-0.39
-0.335
-0.345
-0.38
-0.405
-0.45
-0.455
-0.335
-0.385
-0.305
-0.345
-0.355
-0.35
-0.345
-0.29
-0.36
-0.355
-0.36
-0.37
-0.39
-0.41
-0.39
-0.41
-0.415
-0.425
-0.42
-0.455
-0.4
-0.445
-0.435
-0.4
-0.43
-0.41
-0.44
-0.46
-0.44
-0.485
-0.48
-0.425
-0.47
-0.47
-0.43
-0.465
-0.44
-0.455
-0.48
-0.48
-0.395
-0.45
-0.43
-0.435
-0.43
-0.45
-0.465
-0.465
-0.505
-0.46
-0.45
-0.455
-0.475
-0.46
-0.46
-0.38
-0.385
-0.425
-0.365
-0.315
-0.285
-0.27
-0.22
-0.16
-0.055
0.085
0.135
0.215
0.27
0.275
0.29
0.31
0.135
-0.295
-0.87
-1.19
-1.4
-1.515
-1.545
-1.555
-1.56
-1.55
-1.51
-1.445
-1.405
-1.35
-1.22
-1.115
-0.995
-1.035
-0.985
-0.84
-0.665
-0.735
-0.715
-0.635
-0.525
-0.57
-0.485
-0.385
-0.47
-0.325
-0.3
-0.36
-0.375
-0.405
-0.355
-0.375
-0.36
-0.355
-0.33
-0.355
-0.36
-0.345
-0.345
-0.345
-0.36
-0.32
-0.3
-0.315
-0.365
-0.29
-0.265
-0.27
-0.3
-0.305
-0.245
-0.315
-0.28
-0.265
-0.24
-0.255
-0.235
-0.18
-0.21
-0.225
-0.19
-0.205
-0.255
-0.28
-0.155
-0.225
-0.18
-0.165
-0.185
-0.17
-0.145
-0.135
-0.175
-0.125
-0.095
-0.09
-0.065
-0.045
0.0
-0.015
0.015
0.06
0.07
0.1
0.055
0.07
0.06
0.15
0.11
0.14
0.095
0.105
0.185
0.175
0.16
0.175
0.18
0.19
0.165
0.115
0.08
0.105
0.09
0.055
0.05
0.045
0.02
0.005
-0.02
-0.08
-0.12
-0.08
-0.18
-0.19
-0.235
-0.255
-0.275
-0.24
-0.245
-0.25
-0.275
-0.325
-0.34
-0.325
-0.355
-0.37
-0.34
-0.3
-0.375
-0.36
-0.335
-0.36
-0.385
-0.395
-0.375
-0.415
-0.38
-0.37
-0.42
-0.46
-0.4
-0.445
-0.4
-0.46
-0.455
-0.45
-0.395
-0.405
-0.4
-0.41
-0.415
-0.42
-0.37
-0.385
-0.38
-0.41
-0.38
-0.365
-0.445
-0.45
-0.5
-0.475
-0.44
-0.38
-0.37
-0.355
-0.425
-0.42
-0.39
-0.41
-0.41
-0.405
-0.41
-0.41
-0.41
-0.385
-0.405
-0.385
-0.405
-0.4
-0.445
-0.38
-0.34
-0.37
-0.43
-0.355
-0.325
-0.4
-0.375
-0.365
-0.355
-0.37
-0.41
-0.405
-0.375
-0.24
-0.26
-0.365
-0.36
-0.35
-0.37
-0.4
-0.375
-0.34
-0.3
-0.34
-0.29
-0.31
-0.265
-0.295
-0.375
-0.35
-0.325
-0.35
-0.39
-0.345
-0.335
-0.31
-0.305
-0.29
-0.275
-0.305
-0.285
-0.28
-0.325
-0.29
-0.405
-0.405
-0.37
-0.395
-0.465
-0.405
-0.41
-0.41
-0.39
-0.4
-0.41
-0.42
-0.39
-0.455
-0.42
-0.335
-0.39
-0.415
-0.43
-0.435
-0.4
-0.44
-0.415
-0.435
-0.4
-0.425
-0.47
-0.42
-0.38
-0.395
-0.415
-0.385
-0.365
-0.38
-0.435
-0.445
-0.42
-0.405
-0.39
-0.43
-0.41
-0.4
-0.385
-0.355
-0.35
-0.295
-0.345
-0.3
-0.295
-0.235
-0.125
0.07
0.115
0.195
0.275
0.34
0.35
0.345
0.345
0.09
-0.3
-0.855
-1.245
-1.37
-1.365
-1.34
-1.435
-1.49
-1.51
-1.455
-1.375
-1.27
-1.225
-1.17
-0.995
-0.985
-0.89
-0.815
-0.66
-0.605
-0.56
-0.55
-0.515
-0.445
-0.42
-0.4
-0.4
-0.37
-0.31
-0.325
-0.34
-0.315
-0.36
-0.325
-0.31
-0.33
-0.345
-0.385
-0.325
-0.235
-0.27
-0.28
-0.245
-0.275
-0.27
-0.245
-0.25
-0.25
-0.245
-0.26
-0.28
-0.275
-0.23
-0.215
-0.2
-0.17
-0.24
-0.27
-0.23
-0.175
-0.195
-0.145
-0.17
-0.16
-0.17
-0.15
-0.155
-0.14
-0.13
-0.125
-0.11
-0.135
-0.165
-0.12
-0.045
-0.115
-0.07
0.01
0.03
0.03
0.055
0.065
0.07
0.095
0.135
0.145
0.135
0.12
0.11
0.16
0.09
0.13
0.25
0.2
0.23
0.235
0.21
0.2
0.23
0.165
0.2
0.23
0.23
0.165
0.185
0.17
0.15
0.135
0.07
0.04
0.025
0.01
-0.015
-0.065
-0.1
-0.095
-0.07
-0.07
-0.13
-0.165
-0.22
-0.21
-0.26
-0.265
-0.27
-0.275
-0.245
-0.27
-0.24
-0.29
-0.275
-0.29
-0.32
-0.285
-0.285
-0.35
-0.33
-0.39
-0.335
-0.31
-0.335
-0.335
-0.355
-0.375
-0.335
-0.33
-0.345
-0.32
-0.355
-0.325
-0.345
-0.34
-0.37
-0.38
-0.355
-0.38
-0.415
-0.395
-0.43
-0.39
-0.33
-0.33
-0.315
-0.33
-0.36
-0.345
-0.35
-0.38
-0.345
-0.335
-0.315
-0.315
-0.335
-0.325
-0.365
-0.33
-0.335
-0.36
-0.32
-0.31
-0.31
-0.355
-0.33
-0.33
-0.325
-0.355
-0.35
-0.315
-0.33
-0.295
-0.25
-0.28
-0.365
-0.31
-0.315
-0.325
-0.31
-0.305
-0.3
-0.325
-0.325
-0.305
-0.315
-0.31
-0.265
-0.265
-0.29
-0.28
-0.27
-0.28
-0.27
-0.265
-0.22
-0.215
-0.215
-0.225
-0.245
-0.225
-0.275
-0.275
-0.275
-0.275
-0.275
-0.265
-0.25
-0.27
-0.335
-0.305
-0.27
-0.215
-0.27
-0.355
-0.315
-0.3
-0.35
-0.37
-0.35
-0.325
-0.345
-0.345
-0.345
-0.3
-0.31
-0.35
-0.335
-0.35
-0.345
-0.305
-0.35
-0.375
-0.32
-0.315
-0.38
-0.41
-0.38
-0.355
-0.325
-0.315
-0.4
-0.335
-0.36
-0.33
-0.3
-0.33
-0.37
-0.34
-0.37
-0.3
-0.325
-0.36
-0.315
-0.315
-0.355
-0.33
-0.35
-0.29
-0.29
-0.23
-0.215
-0.12
-0.08
0.045
0.17
0.235
0.34
0.395
0.44
0.455
0.52
0.365
-0.065
-0.545
-1.095
-1.27
-1.4
-1.44
-1.43
-1.435
-1.41
-1.375
-1.36
-1.255
-1.195
-1.14
-1.015
-0.94
-0.88
-0.775
-0.685
-0.6
-0.505
-0.465
-0.38
-0.4
-0.435
-0.41
-0.385
-0.35
-0.27
-0.23
-0.245
-0.275
-0.245
-0.26
-0.22
-0.21
-0.235
-0.26
-0.24
-0.24
-0.22
-0.21
-0.18
-0.21
-0.295
-0.28
-0.255
-0.215
-0.145
-0.135
-0.14
-0.14
-0.145
-0.15
-0.12
-0.11
-0.14
-0.145
-0.155
-0.125
-0.17
-0.115
-0.12
-0.175
-0.105
-0.075
-0.035
-0.065
-0.05
-0.045
-0.035
-0.025
-0.01
0.0
-0.03
0.015
0.05
0.06
0.095
0.07
0.02
0.105
0.185
0.145
0.15
0.14
0.165
0.24
0.28
0.27
0.26
0.27
0.295
0.28
0.305
0.24
0.205
0.275
0.32
0.255
0.27
0.305
0.305
0.305
0.3
0.255
0.235
0.225
0.225
0.185
0.14
0.13
0.075
0.015
-0.025
0.02
-0.095
-0.09
0.005
-0.09
-0.12
-0.075
-0.17
-0.18
-0.155
-0.175
-0.195
-0.23
-0.23
-0.25
-0.215
-0.24
-0.265
-0.27
-0.275
-0.315
-0.285
-0.27
-0.24
-0.245
-0.265
-0.25
-0.27
-0.275
-0.255
-0.275
-0.3
-0.345
-0.24
-0.21
-0.285
-0.325
-0.35
-0.31
-0.295
-0.3
-0.285
-0.31
-0.29
-0.27
-0.31
-0.31
-0.305
-0.3
-0.295
-0.275
-0.275
-0.225
-0.25
-0.285
-0.255
-0.275
-0.24
-0.295
-0.275
-0.27
-0.315
-0.31
-0.29
-0.315
-0.235
-0.23
-0.295
-0.29
-0.265
-0.215
-0.245
-0.28
-0.27
-0.285
-0.255
-0.265
-0.285
-0.235
-0.225
-0.225
-0.24
-0.225
-0.195
-0.21
-0.22
-0.215
-0.26
-0.295
-0.225
-0.185
-0.185
-0.165
-0.2
-0.225
-0.155
-0.13
-0.195
-0.185
-0.18
-0.215
-0.225
-0.16
-0.13
-0.16
-0.15
-0.15
-0.215
-0.165
-0.18
-0.17
-0.22
-0.225
-0.24
-0.225
-0.22
-0.255
-0.275
-0.27
-0.27
-0.295
-0.275
-0.255
-0.275
-0.305
-0.255
-0.215
-0.215
-0.255
-0.27
-0.27
-0.23
-0.22
-0.255
-0.275
-0.265
-0.275
-0.28
-0.27
-0.22
-0.275
-0.29
-0.295
-0.275
-0.255
-0.27
-0.285
-0.29
-0.24
-0.275
-0.305
-0.26
-0.24
-0.265
-0.27
-0.29
-0.32
-0.295
-0.285
-0.285
-0.275
-0.22
-0.185
-0.205
-0.145
-0.125
-0.07
0.01
0.14
0.245
0.385
0.435
0.51
0.565
0.59
0.54
0.28
-0.115
-0.68
-1.075
-1.265
-1.245
-1.325
-1.37
-1.345
-1.355
-1.375
-1.29
-1.19
-1.16
-1.025
-0.97
-0.865
-0.815
-0.71
-0.585
-0.565
-0.49
-0.405
-0.37
-0.34
-0.305
-0.28
-0.245
-0.235
-0.23
-0.21
-0.2
-0.19
-0.175
-0.17
-0.165
-0.14
-0.14
-0.19
-0.105
-0.145
-0.125
-0.075
-0.105
-0.165
-0.16
-0.115
-0.13
-0.095
-0.135
-0.115
-0.12
-0.13
-0.085
-0.095
-0.095
-0.105
-0.07
-0.015
-0.11
-0.09
-0.05
-0.08
-0.06
-0.055
-0.005
-0.015
0.0
0.015
0.005
0.03
0.06
0.05
0.05
0.065
0.045
0.08
0.06
0.08
0.17
0.17
0.19
0.175
0.19
0.225
0.285
0.27
0.26
0.295
0.3
0.265
0.355
0.335
0.355
0.345
0.32
0.3
0.325
0.335
0.395
0.37
0.385
0.33
0.305
0.34
0.335
0.33
0.285
0.25
0.235
0.18
0.22
0.14
0.15
0.175
0.115
0.025
0.03
0.025
-0.035
-0.05
-0.035
-0.03
-0.085
-0.135
-0.15
-0.125
-0.18
-0.18
-0.19
-0.205
-0.18
-0.16
-0.19
-0.225
-0.22
-0.2
-0.17
-0.135
-0.265
-0.225
-0.165
-0.18
-0.23
-0.26
-0.24
-0.23
-0.235
-0.22
-0.25
-0.23
-0.21
-0.195
-0.235
-0.195
-0.25
-0.265
-0.305
-0.19
-0.195
-0.27
-0.27
-0.265
-0.27
-0.245
-0.26
-0.235
-0.21
-0.205
-0.24
-0.175
-0.2
-0.25
-0.26
-0.25
-0.225
-0.23
-0.22
-0.195
-0.225
-0.245
-0.265
-0.27
-0.22
-0.21
-0.185
-0.195
-0.22
-0.185
-0.18
-0.275
-0.215
-0.14
-0.205
-0.175
-0.215
-0.275
-0.175
-0.21
-0.205
-0.205
-0.215
-0.18
-0.17
-0.17
-0.16
-0.155
-0.12
-0.15
-0.195
-0.17
-0.185
-0.185
-0.22
-0.195
-0.16
-0.15
-0.155
-0.16
-0.1
-0.115
-0.135
-0.17
-0.135
-0.15
-0.12
-0.11
-0.105
-0.1
-0.11
-0.135
-0.155
-0.14
-0.15
-0.185
-0.175
-0.175
-0.225
-0.205
-0.215
-0.16
-0.195
-0.23
-0.255
-0.24
-0.195
-0.235
-0.245
-0.19
-0.235
-0.235
-0.29
-0.25
-0.205
-0.2
-0.175
-0.215
-0.195
-0.23
-0.205
-0.25
-0.21
-0.255
-0.235
-0.245
-0.175
-0.21
-0.26
-0.275
-0.245
-0.215
-0.205
-0.205
-0.225
-0.265
-0.26
-0.245
-0.235
-0.21
-0.205
-0.26
-0.28
-0.27
-0.185
-0.195
-0.105
-0.07
-0.09
-0.05
0.06
0.12
0.19
0.265
0.4
0.47
0.545
0.545
0.63
0.535
0.16
-0.265
-0.83
-1.15
-1.21
-1.28
-1.32
-1.315
-1.33
-1.37
-1.275
-1.195
-1.115
-1.105
-0.97
-0.865
-0.82
-0.77
-0.635
-0.535
-0.47
-0.4
-0.36
-0.325
-0.315
-0.235
-0.22
-0.175
-0.135
-0.2
-0.215
-0.15
-0.155
-0.18
-0.25
-0.17
-0.085
-0.14
-0.085
-0.115
-0.115
-0.13
-0.115
-0.08
-0.09
-0.12
-0.095
-0.08
-0.08
-0.085
-0.095
-0.145
-0.105
-0.045
-0.08
-0.085
-0.025
-0.045
-0.055
-0.06
-0.02
-0.035
0.005
0.035
0.02
0.015
0.025
0.015
0.045
0.045
0.015
0.06
0.09
0.135
0.05
0.085
0.1
0.115
0.115
0.1
0.15
0.19
0.255
0.28
0.275
0.31
0.315
0.265
0.265
0.34
0.355
0.36
0.39
0.365
0.375
0.36
0.355
0.37
0.375
0.395
0.385
0.345
0.325
0.405
0.38
0.4
0.35
0.36
0.325
0.27
0.235
0.215
0.19
0.155
0.14
0.12
0.08
0.025
0.015
0.005
-0.045
-0.065
-0.025
-0.03
-0.13
-0.09
-0.085
-0.09
-0.135
-0.15
-0.15
-0.12
-0.105
-0.145
-0.09
-0.155
-0.185
-0.12
-0.105
-0.15
-0.27
-0.245
-0.195
-0.255
-0.245
-0.22
-0.19
-0.2
-0.2
-0.215
-0.175
-0.2
-0.22
-0.19
-0.205
-0.17
-0.18
-0.23
-0.2
-0.21
-0.21
-0.23
-0.235
-0.205
-0.18
-0.135
-0.18
-0.26
-0.245
-0.215
-0.2
-0.185
-0.175
-0.185
-0.185
-0.145
-0.15
-0.2
-0.23
-0.175
-0.195
-0.26
-0.24
-0.215
-0.215
-0.195
-0.175
-0.17
-0.195
-0.215
-0.15
-0.195
-0.135
-0.175
-0.21
-0.185
-0.21
-0.2
-0.165
-0.175
-0.16
-0.15
-0.16
-0.14
-0.15
-0.17
-0.18
-0.175
-0.13
-0.14
-0.11
-0.045
-0.13
-0.125
-0.12
-0.16
-0.17
-0.13
-0.13
-0.15
-0.13
-0.115
-0.115
-0.11
-0.1
-0.12
-0.115
-0.105
-0.065
-0.095
-0.1
-0.13
-0.135
-0.095
-0.12
-0.13
-0.14
-0.12
-0.155
-0.17
-0.21
-0.22
-0.15
-0.165
-0.145
-0.13
-0.125
-0.17
-0.235
-0.23
-0.2
-0.205
-0.205
-0.2
-0.195
-0.185
-0.22
-0.25
-0.245
-0.175
-0.215
-0.2
-0.19
-0.21
-0.19
-0.19
-0.22
-0.22
-0.2
-0.22
-0.205
-0.2
-0.23
-0.215
-0.22
-0.215
-0.225
-0.195
-0.2
-0.24
-0.235
-0.15
-0.155
-0.18
-0.17
-0.175
-0.165
-0.14
-0.1
-0.05
0.03
0.17
0.31
0.345
0.4
0.535
0.56
0.545
0.565
0.495
0.245
-0.3
-0.81
-1.095
-1.24
-1.315
-1.34
-1.35
-1.305
-1.275
-1.255
-1.225
-1.16
-1.075
-1.0
-0.93
-0.805
-0.8
-0.745
-0.605
-0.535
-0.47
-0.36
-0.345
-0.27
-0.205
-0.165
-0.175
-0.18
-0.165
-0.16
-0.175
-0.15
-0.16
-0.15
-0.11
-0.11
-0.11
-0.09
-0.12
-0.125
-0.12
-0.03
0.005
-0.06
-0.05
-0.045
-0.06
-0.04
-0.04
-0.055
-0.03
-0.05
-0.03
0.0
-0.055
-0.065
-0.07
-0.03
0.01
0.04
0.03
-0.02
-0.025
0.03
0.055
0.11
0.055
0.065
0.145
0.135
0.1
0.045
0.085
0.13
0.155
0.12
0.155
0.175
0.155
0.14
0.215
0.315
0.295
0.315
0.325
0.32
0.33
0.305
0.35
0.37
0.405
0.435
0.405
0.395
0.365
0.42
0.42
0.395
0.44
0.475
0.435
0.415
0.41
0.41
0.42
0.35
0.325
0.35
0.29
0.255
0.265
0.25
0.175
0.17
0.245
0.115
0.13
0.13
0.08
0.015
0.01
0.015
-0.005
-0.07
-0.07
-0.055
-0.05
-0.095
-0.145
-0.135
-0.14
-0.16
-0.155
-0.135
-0.13
-0.11
-0.13
-0.105
-0.105
-0.095
-0.15
-0.18
-0.165
-0.15
-0.14
-0.135
-0.155
-0.18
-0.195
-0.155
-0.175
-0.19
-0.165
-0.2
-0.2
-0.15
-0.135
-0.15
-0.205
-0.21
-0.23
-0.235
-0.155
-0.185
-0.19
-0.205
-0.16
-0.13
-0.11
-0.16
-0.135
-0.145
-0.13
-0.15
-0.15
-0.16
-0.15
-0.145
-0.205
-0.205
-0.13
-0.14
-0.17
-0.18
-0.13
-0.16
-0.15
-0.125
-0.16
-0.15
-0.12
-0.095
-0.135
-0.16
-0.15
-0.16
-0.14
-0.145
-0.13
-0.13
-0.15
-0.13
-0.09
-0.07
-0.165
-0.165
-0.155
-0.065
-0.075
-0.075
-0.13
-0.12
-0.2
-0.07
-0.045
-0.11
-0.1
-0.11
-0.13
-0.1
-0.07
-0.09
-0.05
-0.035
-0.05
-0.14
-0.12
-0.14
-0.1
-0.095
-0.04
-0.035
-0.045
-0.08
-0.075
-0.09
-0.135
-0.115
-0.05
-0.045
-0.09
-0.19
-0.17
-0.175
-0.15
-0.18
-0.165
-0.15
-0.095
-0.155
-0.12
-0.225
-0.18
-0.14
-0.18
-0.15
-0.21
-0.105
-0.14
-0.155
-0.225
-0.17
-0.17
-0.15
-0.17
-0.15
-0.185
-0.215
-0.195
-0.165
-0.16
-0.18
-0.2
-0.19
-0.19
-0.23
-0.245
-0.26
-0.18
-0.115
-0.145
-0.19
-0.22
-0.155
-0.125
-0.1
-0.115
-0.07
-0.07
-0.015
0.06
0.135
0.245
0.31
0.36
0.455
0.51
0.565
0.62
0.565
0.28
-0.1
-0.65
-1.02
-1.16
-1.23
-1.28
-1.255
-1.25
-1.28
-1.2
-1.06
-1.035
-1.01
-0.91
-0.825
-0.74
-0.75
-0.695
-0.51
-0.42
-0.315
-0.265
-0.3
-0.24
-0.225
-0.145
-0.15
-0.09
-0.095
-0.095
-0.11
-0.14
-0.125
-0.085
-0.075
-0.135
-0.085
-0.09
-0.065
-0.06
0.015
-0.045
-0.05
-0.075
-0.07
-0.04
-0.045
-0.075
-0.06
-0.05
-0.015
0.05
-0.02
-0.03
-0.02
-0.005
0.085
0.055
0.035
0.03
0.055
0.05
0.03
0.02
0.02
0.02
0.06
0.12
0.055
0.065
0.11
0.15
0.17
0.12
0.2
0.19
0.195
0.195
0.195
0.225
0.295
0.29
0.3
0.265
0.245
0.3
0.315
0.34
0.355
0.34
0.405
0.39
0.375
0.36
0.38
0.44
0.395
0.415
0.5
0.435
0.455
0.375
0.37
0.385
0.355
0.375
0.35
0.335
0.37
0.32
0.26
0.215
0.175
0.185
0.19
0.15
0.125
0.135
0.1
0.035
0.095
0.045
0.005
-0.09
-0.02
-0.035
-0.055
-0.055
-0.045
-0.065
-0.09
-0.05
-0.06
-0.09
-0.155
-0.155
-0.125
-0.09
-0.11
-0.115
-0.07
-0.06
-0.14
-0.16
-0.155
-0.135
-0.145
-0.15
-0.12
-0.17
-0.145
-0.16
-0.145
-0.085
-0.11
-0.13
-0.18
-0.115
-0.14
-0.12
-0.125
-0.105
-0.115
-0.13
-0.1
-0.135
-0.115
-0.125
-0.11
-0.135
-0.145
-0.11
-0.13
-0.12
-0.12
-0.12
-0.165
-0.125
-0.135
-0.095
-0.095
-0.135
-0.165
-0.135
-0.11
-0.115
-0.13
-0.12
-0.16
-0.105
-0.105
-0.125
-0.125
-0.125
-0.09
-0.08
-0.11
-0.105
-0.105
-0.125
-0.13
-0.12
-0.055
-0.06
-0.075
-0.095
-0.05
-0.055
-0.005
-0.04
-0.065
-0.095
-0.05
-0.135
-0.145
-0.09
-0.085
-0.065
-0.04
-0.025
-0.075
-0.075
-0.075
-0.08
-0.045
-0.025
-0.035
-0.055
-0.02
-0.03
-0.045
-0.04
-0.06
-0.105
-0.06
-0.065
-0.015
0.02
0.035
-0.045
-0.145
-0.085
-0.11
-0.13
-0.13
-0.1
-0.12
-0.145
-0.16
-0.1
-0.095
-0.105
-0.115
-0.075
-0.105
-0.135
-0.125
-0.11
-0.15
-0.145
-0.145
-0.12
-0.12
-0.13
-0.14
-0.115
-0.105
-0.145
-0.15
-0.18
-0.15
-0.125
-0.105
-0.095
-0.13
-0.09
-0.095
-0.09
-0.165
-0.2
-0.14
-0.135
-0.165
-0.165
-0.14
-0.135
-0.045
-0.12
-0.08
-0.045
-0.03
-0.035
0.11
0.2
0.32
0.37
0.475
0.53
0.645
0.645
0.635
0.64
0.49
0.065
-0.415
-0.865
-1.055
-1.145
-1.195
-1.225
-1.225
-1.2
-1.135
-1.06
-1.075
-0.975
-0.885
-0.765
-0.715
-0.66
-0.59
-0.5
-0.425
-0.305
-0.305
-0.355
-0.37
-0.225
-0.21
-0.12
-0.035
-0.02
-0.03
-0.03
-0.05
-0.045
-0.035
-0.035
-0.025
-0.015
-0.075
-0.055
-0.08
-0.01
-0.03
-0.025
0.0
0.035
0.065
0.065
0.025
0.03
0.06
0.04
0.005
-0.04
0.005
0.04
0.08
-0.005
0.02
0.07
-0.015
0.125
0.065
0.07
0.065
0.07
0.08
0.105
0.135
0.085
0.115
0.155
0.13
0.135
0.18
0.175
0.175
0.185
0.29
0.245
0.195
0.225
0.225
0.28
0.355
0.35
0.385
0.375
0.425
0.39
0.45
0.42
0.41
0.475
0.445
0.445
0.46
0.43
0.425
0.465
0.495
0.435
0.435
0.45
0.45
0.44
0.37
0.345
0.4
0.33
0.33
0.29
0.255
0.265
0.27
0.185
0.125
0.12
0.115
0.125
0.135
0.125
0.075
0.045
0.025
0.005
0.0
-0.01
0.005
-0.055
-0.08
-0.11
-0.085
-0.105
-0.01
-0.03
-0.065
-0.095
-0.095
-0.075
-0.08
-0.135
-0.105
-0.115
-0.13
-0.125
-0.145
-0.11
-0.125
-0.205
-0.135
-0.105
-0.09
-0.115
-0.135
-0.105
-0.13
-0.16
-0.115
-0.085
-0.14
-0.15
-0.155
-0.195
-0.165
-0.11
-0.105
-0.09
-0.095
-0.1
-0.075
-0.065
-0.11
-0.1
-0.11
-0.09
-0.115
-0.135
-0.08
-0.1
-0.16
-0.105
-0.115
-0.105
-0.125
-0.15
-0.13
-0.145
-0.14
-0.115
-0.155
-0.145
-0.08
-0.035
-0.045
-0.145
-0.075
-0.055
-0.1
-0.105
-0.095
-0.07
-0.065
-0.055
-0.105
-0.1
-0.095
-0.1
-0.09
-0.11
-0.03
-0.025
-0.06
-0.065
-0.09
-0.09
-0.08
-0.055
-0.035
-0.06
-0.075
-0.07
-0.07
-0.09
-0.07
-0.09
-0.105
-0.075
-0.09
-0.045
-0.05
0.035
0.045
-0.015
0.035
-0.01
-0.035
-0.065
-0.075
-0.05
-0.065
-0.07
0.03
0.045
-0.01
-0.03
0.0
-0.065
-0.09
-0.095
-0.095
-0.115
-0.1
-0.12
-0.16
-0.1
-0.13
-0.15
-0.115
-0.095
-0.08
-0.07
-0.08
-0.13
-0.145
-0.115
-0.17
-0.165
-0.13
-0.11
-0.15
-0.105
-0.12
-0.08
-0.1
-0.065
-0.05
-0.09
-0.12
-0.11
-0.125
-0.16
-0.18
-0.13
-0.165
-0.1
-0.105
-0.105
-0.1
-0.115
-0.095
-0.11
-0.085
-0.07
-0.03
-0.05
-0.04
0.065
0.11
0.215
0.345
0.425
0.515
0.585
0.605
0.685
0.695
0.605
0.395
-0.04
-0.67
-1.045
-1.19
-1.25
-1.205
-1.19
-1.23
-1.205
-1.105
-1.055
-0.98
-0.875
-0.8
-0.82
-0.685
-0.58
-0.5
-0.415
-0.44
-0.335
-0.235
-0.215
-0.2
-0.16
-0.12
-0.065
-0.055
-0.06
-0.055
-0.03
-0.025
-0.045
-0.025
-0.035
-0.005
0.005
-0.01
-0.05
-0.045
-0.1
-0.07
-0.025
-0.005
0.01
0.065
0.015
-0.03
0.065
0.055
0.025
0.025
0.045
0.11
0.12
0.075
0.11
0.065
0.09
0.12
0.06
0.08
0.075
0.08
0.095
0.14
0.14
0.135
0.115
0.145
0.165
0.165
0.175
0.19
0.23
0.235
0.25
0.24
0.305
0.295
0.295
0.32
0.34
0.37
0.345
0.4
0.44
0.425
0.42
0.43
0.45
0.425
0.455
0.485
0.485
0.47
0.505
0.525
0.51
0.485
0.51
0.495
0.495
0.485
0.415
0.395
0.47
0.45
0.41
0.34
0.325
0.29
0.275
0.3
0.24
0.165
0.15
0.125
0.11
0.115
0.105
0.085
0.06
0.085
0.065
0.035
0.05
0.01
-0.015
-0.015
-0.06
-0.04
-0.085
-0.06
-0.045
-0.08
-0.06
-0.08
-0.085
-0.05
-0.025
-0.04
-0.115
-0.13
-0.1
-0.08
-0.135
-0.09
-0.085
-0.115
-0.145
-0.075
-0.115
-0.08
-0.055
-0.085
-0.11
-0.11
-0.105
-0.09
-0.085
-0.11
-0.155
-0.09
-0.03
-0.065
-0.1
-0.095
-0.075
-0.105
-0.105
-0.075
-0.085
-0.095
-0.095
-0.06
-0.06
-0.095
-0.1
-0.105
-0.045
-0.03
-0.045
-0.075
-0.05
-0.06
-0.06
-0.06
-0.095
-0.11
-0.105
-0.155
-0.115
-0.085
-0.095
-0.08
-0.065
-0.05
-0.075
-0.09
-0.09
-0.095
-0.095
-0.105
-0.13
-0.08
-0.075
-0.04
-0.03
-0.01
0.045
0.01
-0.015
-0.01
-0.065
-0.07
-0.06
-0.04
-0.025
-0.03
-0.04
0.0
-0.015
0.015
-0.025
-0.05
0.005
-0.005
-0.025
-0.05
-0.04
-0.025
-0.01
-0.045
-0.065
-0.01
0.015
-0.015
-0.025
-0.035
-0.02
-0.025
-0.025
-0.05
-0.06
-0.06
-0.065
-0.05
-0.02
-0.05
-0.055
-0.04
-0.005
-0.025
-0.07
-0.15
-0.115
-0.17
-0.145
-0.085
-0.105
-0.115
-0.105
-0.12
-0.1
-0.115
-0.07
-0.025
-0.06
-0.105
-0.065
-0.095
-0.125
-0.105
-0.07
-0.09
-0.125
-0.14
-0.06
-0.025
-0.09
-0.125
-0.085
-0.115
-0.12
-0.09
-0.055
-0.08
-0.07
-0.125
-0.09
-0.08
-0.165
-0.145
-0.045
0.035
0.11
0.205
0.245
0.305
0.41
0.46
0.53
0.69
0.7
0.645
0.64
0.46
0.01
-0.565
-0.95
-1.115
-1.2
-1.26
-1.27
-1.245
-1.215
-1.13
-1.095
-1.04
-0.985
-0.9
-0.81
-0.68
-0.605
-0.65
-0.53
-0.375
-0.315
-0.245
-0.195
-0.14
-0.13
-0.145
-0.14
-0.105
-0.095
-0.04
-0.01
-0.02
-0.035
-0.005
-0.01
0.07
0.015
-0.025
-0.04
0.015
0.015
-0.025
0.06
0.045
0.02
0.01
0.015
0.005
0.04
0.065
0.05
0.075
0.08
0.11
0.09
0.115
0.115
0.12
0.07
0.1
0.1
0.11
0.135
0.145
0.12
0.115
0.14
0.15
0.165
0.14
0.17
0.23
0.205
0.22
0.205
0.245
0.24
0.295
0.265
0.3
0.39
0.41
0.375
0.38
0.39
0.4
0.415
0.375
0.46
0.475
0.505
0.49
0.5
0.475
0.505
0.54
0.545
0.52
0.555
0.545
0.54
0.53
0.5
0.54
0.515
0.475
0.455
0.48
0.405
0.32
0.3
0.37
0.39
0.39
0.315
0.205
0.22
0.235
0.23
0.195
0.135
0.14
0.12
0.095
0.06
0.035
0.025
-0.005
-0.04
-0.065
-0.045
0.01
0.05
0.025
-0.02
-0.03
-0.03
0.015
-0.035
-0.05
-0.035
-0.085
-0.11
0.0
-0.03
-0.08
0.015
-0.09
-0.05
-0.04
-0.005
-0.02
-0.04
-0.075
-0.04
-0.06
-0.08
-0.08
-0.105
-0.065
-0.08
-0.085
-0.065
0.005
-0.06
-0.075
-0.08
-0.08
-0.055
-0.09
-0.045
-0.045
-0.11
-0.11
-0.12
-0.12
-0.045
-0.035
-0.055
0.0
0.005
-0.03
-0.07
-0.045
-0.035
-0.03
-0.04
-0.05
-0.045
-0.065
-0.035
-0.04
-0.055
-0.035
-0.085
-0.095
-0.105
-0.05
-0.055
-0.02
-0.025
-0.035
-0.01
-0.015
-0.055
-0.045
-0.065
-0.03
0.015
-0.04
0.0
0.005
-0.055
-0.03
-0.005
0.01
0.01
-0.015
0.03
-0.015
0.035
0.015
0.0
0.005
-0.05
-0.04
0.03
0.0
-0.015
-0.01
0.055
0.065
0.04
0.0
0.01
0.005
0.005
-0.025
-0.025
0.05
0.0
-0.02
0.02
0.025
-0.015
-0.05
-0.1
-0.07
-0.04
-0.045
-0.055
-0.1
-0.035
-0.01
-0.045
-0.07
-0.075
-0.065
-0.065
-0.03
-0.055
-0.07
-0.025
-0.035
-0.09
-0.07
-0.15
-0.09
-0.095
-0.135
-0.045
-0.065
-0.08
-0.04
-0.06
-0.06
-0.08
-0.12
-0.055
-0.065
-0.055
-0.1
-0.12
-0.09
-0.135
-0.18
-0.155
-0.05
-0.035
0.0
-0.065
-0.005
-0.02
0.02
0.025
0.1
0.125
0.215
0.3
0.47
0.505
0.605
0.69
0.665
0.75
0.685
0.4
-0.06
-0.625
-0.96
-1.16
-1.17
-1.11
-1.1
-1.165
-1.16
-1.13
-1.1
-1.005
-0.94
-0.86
-0.765
-0.66
-0.615
-0.545
-0.375
-0.315
-0.235
-0.19
-0.23
-0.165
-0.13
-0.075
-0.09
-0.05
-0.03
0.0
-0.045
0.01
-0.06
-0.06
0.015
0.0
-0.02
-0.03
-0.025
0.005
0.04
0.11
0.08
0.055
0.005
0.065
0.09
0.065
0.025
0.025
0.07
0.085
0.085
0.065
0.035
0.03
0.055
0.095
0.13
0.085
0.08
0.125
0.2
0.17
0.17
0.18
0.17
0.16
0.155
0.17
0.225
0.18
0.17
0.21
0.23
0.19
0.245
0.28
0.26
0.31
0.3
0.305
0.335
0.34
0.39
0.385
0.36
0.405
0.44
0.445
0.445
0.5
0.505
0.525
0.505
0.46
0.53
0.515
0.505
0.505
0.545
0.545
0.535
0.535
0.53
0.485
0.465
0.335
0.325
0.385
0.335
0.33
0.28
0.245
0.19
0.22
0.215
0.175
0.12
0.075
0.085
0.1
0.08
0.08
0.095
0.08
0.005
0.0
0.015
0.01
-0.02
0.0
-0.02
-0.045
0.005
0.005
-0.04
-0.04
-0.025
-0.02
-0.09
-0.09
-0.07
-0.025
-0.06
-0.01
-0.105
-0.04
-0.045
-0.055
-0.075
-0.05
-0.045
-0.05
-0.02
-0.02
-0.07
-0.12
-0.09
-0.095
-0.155
-0.15
-0.05
-0.045
-0.06
-0.01
-0.015
-0.06
-0.045
-0.065
-0.05
-0.02
-0.055
-0.035
-0.065
-0.055
-0.03
-0.055
-0.08
-0.09
-0.085
-0.07
-0.065
-0.075
-0.065
-0.02
-0.07
-0.07
-0.07
-0.035
-0.03
-0.08
-0.015
-0.005
-0.04
-0.025
0.055
-0.025
-0.055
-0.05
-0.035
-0.02
0.005
-0.035
-0.105
-0.075
-0.075
-0.075
0.02
0.02
0.015
-0.045
-0.04
0.0
-0.015
-0.005
0.015
0.0
0.01
-0.045
-0.065
-0.04
-0.015
0.0
-0.03
-0.035
0.03
0.06
0.025
0.05
0.075
0.02
0.015
-0.01
0.1
0.02
0.035
0.04
0.025
0.04
-0.025
-0.05
0.005
-0.015
0.0
-0.005
-0.015
-0.035
-0.035
-0.05
-0.095
-0.055
-0.07
-0.015
0.015
-0.035
-0.025
-0.055
-0.015
-0.045
-0.065
-0.04
-0.035
-0.06
-0.025
-0.03
-0.065
-0.065
-0.11
-0.125
-0.075
-0.05
-0.09
-0.1
-0.075
-0.115
-0.085
-0.095
-0.085
-0.1
-0.055
-0.055
-0.105
-0.06
-0.09
-0.065
-0.065
-0.075
-0.09
-0.08
-0.08
-0.04
-0.095
-0.02
0.06
0.015
0.015
0.085
0.215
0.35
0.465
0.515
0.57
0.635
0.66
0.685
0.725
0.625
0.305
-0.15
-0.71
-0.975
-1.085
-1.135
-1.16
-1.165
-1.19
-1.165
-1.12
-1.07
-0.945
-0.92
-0.775
-0.66
-0.61
-0.545
-0.48
-0.41
-0.315
-0.265
-0.25
-0.17
-0.135
-0.115
-0.08
-0.05
-0.02
0.015
-0.015
-0.005
-0.03
0.01
-0.015
-0.025
-0.06
0.06
0.035
-0.025
0.02
0.0
-0.065
0.055
0.0
0.0
0.015
0.075
0.055
0.1
0.105
0.06
0.025
0.01
0.105
0.125
0.13
0.07
0.045
0.12
0.07
0.115
0.105
0.17
0.165
0.205
0.205
0.165
0.135
0.12
0.115
0.135
0.185
0.285
0.32
0.27
0.27
0.23
0.285
0.305
0.295
0.265
0.305
0.37
0.385
0.39
0.4
0.395
0.42
0.45
0.455
0.46
0.505
0.505
0.505
0.495
0.525
0.575
0.53
0.51
0.535
0.46
0.475
0.495
0.455
0.455
0.455
0.445
0.425
0.4
0.38
0.355
0.35
0.25
0.255
0.195
0.28
0.31
0.265
0.2
0.205
0.15
0.085
0.05
0.025
0.045
0.07
0.02
0.005
0.0
-0.08
-0.06
-0.015
-0.005
-0.005
-0.025
-0.085
-0.085
-0.055
-0.065
-0.06
-0.095
-0.07
-0.085
0.005
-0.035
-0.105
-0.075
-0.05
-0.09
-0.11
-0.095
-0.11
-0.08
-0.09
-0.09
-0.035
0.01
-0.045
-0.09
0.0
-0.06
-0.085
-0.06
-0.07
-0.075
-0.08
-0.075
-0.075
-0.06
-0.065
-0.065
-0.07
-0.075
-0.035
-0.065
-0.08
-0.075
0.045
-0.04
-0.155
-0.11
-0.095
-0.095
-0.115
-0.115
-0.095
-0.08
-0.05
-0.075
-0.07
-0.065
-0.02
0.0
-0.025
-0.08
-0.085
-0.065
-0.015
-0.01
-0.045
-0.04
-0.04
-0.035
-0.02
-0.035
-0.045
-0.04
-0.005
0.0
-0.035
-0.02
0.01
-0.025
-0.025
-0.07
-0.035
-0.015
-0.045
0.005
-0.03
-0.05
-0.03
0.01
-0.045
-0.04
-0.005
0.035
0.03
0.04
0.025
0.065
0.03
0.02
0.035
0.01
0.025
0.015
-0.005
0.0
0.035
0.03
-0.01
-0.03
0.025
0.065
-0.015
-0.015
-0.02
0.005
-0.08
-0.05
-0.09
-0.05
-0.095
-0.08
-0.03
-0.035
-0.005
-0.005
-0.06
-0.08
-0.075
-0.095
-0.06
-0.04
0.005
-0.055
-0.065
-0.095
-0.065
-0.035
-0.07
-0.09
-0.05
-0.065
-0.07
-0.09
-0.15
-0.08
-0.09
-0.115
-0.105
-0.085
-0.07
-0.045
-0.06
-0.075
-0.02
-0.02
-0.03
-0.07
-0.065
-0.075
-0.085
-0.07
-0.05
-0.025
0.08
0.155
0.205
0.3
0.405
0.46
0.535
0.76
0.725
0.68
0.8
0.77
0.335
-0.14
-0.735
-0.995
-1.115
-1.14
-1.15
-1.16
-1.17
-1.16
-1.065
-1.04
-1.03
-0.915
-0.795
-0.715
-0.635
-0.595
-0.505
-0.39
-0.295
-0.205
-0.19
-0.16
-0.175
-0.145
-0.09
-0.06
-0.045
-0.035
-0.045
-0.045
0.02
0.015
0.02
0.03
0.03
0.035
0.025
0.03
0.01
0.03
0.11
0.055
0.045
0.03
0.05
0.1
0.095
0.08
0.05
0.07
0.105
0.095
0.105
0.105
0.11
0.125
0.21
0.175
0.195
0.125
0.185
0.175
0.125
0.135
0.145
0.19
0.19
0.17
0.22
0.24
0.235
0.255
0.24
0.235
0.27
0.295
0.305
0.315
0.415
0.38
0.37
0.38
0.39
0.42
0.47
0.465
0.445
0.465
0.455
0.515
0.505
0.505
0.5
0.52
0.56
0.56
0.585
0.57
0.615
0.565
0.535
0.565
0.54
0.5
0.475
0.45
0.445
0.42
0.445
0.435
0.345
0.315
0.295
0.315
0.32
0.285
0.25
0.225
0.18
0.185
0.155
0.08
0.05
0.06
0.05
0.035
0.09
0.115
0.08
0.025
0.025
-0.015
0.0
-0.005
-0.01
-0.03
-0.03
-0.01
-0.015
-0.06
-0.085
-0.025
-0.045
-0.07
-0.065
-0.045
0.015
-0.07
-0.035
-0.06
-0.05
-0.02
-0.06
-0.09
-0.065
-0.035
-0.045
-0.025
-0.01
0.01
-0.015
-0.025
0.015
-0.015
-0.015
-0.035
-0.085
-0.075
-0.04
0.015
-0.075
-0.045
-0.045
-0.075
-0.085
-0.07
-0.04
-0.04
0.005
0.035
-0.01
-0.04
-0.07
-0.07
-0.06
-0.025
-0.005
-0.02
-0.105
-0.085
-0.025
-0.005
-0.01
-0.05
-0.015
0.025
0.03
0.0
-0.035
-0.02
-0.045
0.025
0.0
-0.04
-0.035
0.005
0.02
0.055
0.03
0.0
0.025
0.05
0.015
-0.02
0.005
0.02
-0.02
-0.015
0.045
0.005
-0.01
-0.01
-0.03
-0.025
0.03
0.03
0.04
0.105
0.065
0.045
0.05
0.07
0.055
0.09
0.04
0.015
0.02
0.02
0.03
0.055
0.08
0.035
0.015
0.015
0.025
-0.015
0.01
-0.04
-0.05
-0.01
0.025
0.02
-0.055
-0.1
-0.085
-0.075
-0.085
-0.06
-0.045
-0.015
-0.025
-0.04
-0.04
-0.06
-0.05
-0.04
-0.03
-0.005
-0.045
-0.05
-0.105
-0.08
-0.035
-0.03
-0.075
0.0
-0.06
-0.09
-0.08
-0.03
-0.04
-0.03
-0.01
0.0
0.03
-0.03
-0.11
-0.065
-0.05
0.0
-0.045
-0.025
0.015
0.05
0.125
0.15
0.25
0.34
0.425
0.55
0.62
0.695
0.67
0.64
0.68
0.53
0.15
-0.37
-0.715
-0.94
-1.075
-1.145
-1.185
-1.185
-1.155
-1.11
-1.035
-1.0
-0.94
-0.83
-0.81
-0.725
-0.62
-0.545
-0.49
-0.395
-0.305
-0.235
-0.175
-0.14
-0.15
-0.105
-0.01
-0.055
-0.055
-0.025
0.025
0.01
0.035
-0.01
-0.02
0.015
0.045
0.045
0.055
0.095
0.085
0.085
0.09
0.07
0.085
0.1
0.12
0.095
0.125
0.135
0.06
0.06
0.055
0.085
0.115
0.13
0.135
0.105
0.125
0.13
0.16
0.17
0.195
0.215
0.185
0.19
0.13
0.19
0.22
0.22
0.24
0.25
0.25
0.21
0.29
0.305
0.29
0.245
0.27
0.315
0.35
0.4
0.405
0.465
0.415
0.445
0.455
0.465
0.465
0.485
0.53
0.555
0.555
0.545
0.545
0.575
0.58
0.555
0.555
0.55
0.535
0.565
0.535
0.555
0.59
0.505
0.495
0.5
0.525
0.42
0.41
0.41
0.38
0.295
0.28
0.26
0.275
0.265
0.245
0.21
0.15
0.165
0.13
0.12
0.105
0.085
0.045
0.055
0.05
0.0
-0.005
0.035
0.035
0.075
0.075
0.02
-0.035
-0.035
-0.025
-0.025
-0.015
-0.035
-0.015
-0.005
-0.035
0.005
0.015
0.0
0.045
-0.03
-0.02
-0.03
-0.06
-0.055
-0.045
-0.045
-0.055
-0.025
-0.04
-0.065
-0.065
-0.05
-0.09
-0.09
-0.05
-0.055
-0.07
0.03
0.025
0.03
-0.005
-0.005
0.015
0.045
0.0
0.005
-0.015
-0.07
-0.075
-0.05
-0.025
-0.04
-0.035
-0.06
0.03
-0.02
-0.03
-0.035
-0.015
-0.05
-0.015
0.005
0.0
-0.04
-0.015
-0.04
-0.045
0.015
0.01
-0.05
-0.04
-0.005
0.005
-0.005
-0.035
0.025
0.065
0.03
0.015
0.015
0.025
0.045
0.06
0.03
0.005
0.025
0.045
0.055
0.0
-0.035
0.035
0.03
-0.015
-0.005
0.03
0.06
0.05
0.065
0.105
0.08
0.06
0.07
0.08
0.06
0.035
-0.025
-0.005
0.06
0.125
0.075
0.0
0.04
0.065
0.01
0.02
0.05
0.06
-0.005
0.005
0.035
0.05
-0.03
-0.05
-0.07
-0.045
-0.025
-0.025
-0.025
-0.025
-0.025
-0.02
-0.025
-0.02
-0.005
-0.06
-0.025
-0.03
0.01
-0.005
-0.03
-0.015
-0.01
-0.03
-0.03
-0.07
-0.06
-0.05
-0.02
-0.035
-0.015
-0.025
-0.055
-0.07
-0.07
-0.06
-0.04
-0.02
0.0
0.035
-0.06
-0.04
-0.01
-0.05
-0.05
0.015
0.125
0.265
0.26
0.285
0.45
0.51
0.575
0.625
0.725
0.76
0.73
0.685
0.465
0.04
-0.53
-0.88
-1.04
-1.095
-1.155
-1.145
-1.095
-1.165
-1.065
-0.99
-0.915
-0.855
-0.725
-0.63
-0.615
-0.535
-0.42
-0.34
-0.255
-0.185
-0.185
-0.125
-0.16
-0.065
-0.005
-0.04
-0.01
-0.05
-0.035
-0.03
0.06
0.045
0.035
0.03
0.045
0.065
0.08
0.15
0.105
0.05
0.065
0.09
0.055
0.05
0.055
0.045
0.08
0.105
0.14
0.155
0.125
0.145
0.145
0.09
0.12
0.055
0.11
0.16
0.16
0.14
0.19
0.2
0.225
0.175
0.165
0.25
0.22
0.21
0.2
0.215
0.255
0.285
0.265
0.275
0.295
0.245
0.26
0.375
0.38
0.395
0.35
0.34
0.375
0.425
0.385
0.45
0.46
0.455
0.49
0.47
0.52
0.455
0.545
0.495
0.535
0.55
0.515
0.545
0.565
0.515
0.53
0.59
0.55
0.505
0.505
0.53
0.515
0.395
0.4
0.37
0.315
0.29
0.26
0.195
0.25
0.275
0.26
0.265
0.21
0.15
0.155
0.13
0.095
0.11
0.085
0.05
0.045
0.03
0.025
-0.03
-0.02
-0.02
0.0
-0.045
0.01
0.06
0.01
0.025
-0.005
-0.055
-0.055
-0.06
-0.05
-0.025
0.03
-0.025
-0.08
-0.035
-0.015
-0.03
-0.025
-0.065
-0.03
0.005
-0.025
-0.04
-0.045
-0.04
-0.025
-0.005
-0.045
-0.075
-0.075
-0.085
-0.07
-0.06
-0.035
0.01
-0.01
-0.01
-0.035
-0.01
-0.06
-0.095
-0.015
0.0
-0.06
-0.055
0.005
-0.01
-0.035
-0.05
-0.01
-0.03
-0.03
-0.045
-0.03
-0.015
0.01
0.045
-0.04
-0.09
-0.08
-0.045
-0.02
-0.005
0.02
0.01
-0.015
-0.01
0.0
-0.015
0.005
0.0
-0.025
0.005
-0.035
-0.055
0.005
0.105
0.05
-0.005
-0.04
-0.01
0.06
0.035
0.0
0.025
0.05
0.005
-0.04
0.0
0.0
0.015
0.015
0.075
0.01
0.05
0.105
0.145
0.075
0.02
0.035
0.06
0.055
0.065
0.03
0.035
0.045
0.02
-0.02
0.005
0.035
-0.02
0.095
0.105
0.045
0.055
0.03
-0.03
-0.005
0.01
-0.055
-0.045
-0.02
0.0
-0.05
-0.07
-0.025
-0.11
-0.055
-0.05
-0.065
-0.02
0.02
-0.01
-0.02
-0.025
-0.06
-0.035
-0.02
-0.08
-0.06
-0.005
-0.03
-0.105
-0.135
-0.09
-0.07
-0.06
-0.06
-0.04
-0.035
-0.02
-0.06
-0.08
-0.05
0.055
-0.03
-0.02
-0.01
-0.01
-0.01
0.015
-0.03
0.09
0.09
0.135
0.24
0.305
0.45
0.54
0.68
0.735
0.745
0.735
0.71
0.62
0.275
-0.205
-0.765
-0.985
-1.045
-1.09
-1.12
-1.135
-1.125
-1.12
-1.07
-1.01
-0.92
-0.835
-0.76
-0.67
-0.615
-0.49
-0.43
-0.355
-0.255
-0.175
-0.145
-0.135
-0.145
-0.09
-0.03
-0.005
0.0
0.0
0.0
0.045
0.05
0.05
0.07
0.05
0.075
0.085
0.03
-0.015
0.01
0.105
0.1
-0.01
0.01
0.105
0.12
0.05
0.06
0.135
0.095
0.02
0.14
0.16
0.07
0.095
0.08
0.095
0.14
0.15
0.16
0.15
0.13
0.15
0.165
0.185
0.22
0.205
0.18
0.21
0.255
0.235
0.24
0.27
0.285
0.28
0.325
0.315
0.345
0.32
0.325
0.3
0.415
0.38
0.375
0.415
0.465
0.425
0.43
0.48
0.525
0.48
0.515
0.495
0.49
0.59
0.61
0.545
0.54
0.585
0.6
0.55
0.56
0.555
0.52
0.52
0.455
0.51
0.51
0.435
0.44
0.365
0.38
0.345
0.325
0.265
0.28
0.26
0.245
0.14
0.125
0.08
0.125
0.115
0.02
0.08
0.1
0.065
0.04
0.04
0.08
0.105
-0.045
-0.08
-0.045
0.01
0.01
-0.03
-0.005
-0.005
0.0
0.02
0.005
0.0
-0.03
-0.005
-0.045
-0.095
-0.13
-0.025
0.045
-0.055
-0.025
-0.055
-0.08
-0.015
-0.055
-0.035
-0.045
-0.005
-0.045
-0.03
-0.045
-0.025
-0.045
-0.09
-0.085
-0.02
-0.02
-0.045
-0.035
-0.02
-0.04
-0.05
-0.02
-0.045
-0.015
0.035
-0.055
-0.07
-0.055
-0.02
0.02
-0.03
0.005
-0.035
-0.07
-0.06
-0.03
0.005
-0.03
0.005
-0.025
-0.03
-0.055
-0.085
-0.08
-0.06
-0.02
-0.02
-0.015
0.045
-0.02
-0.04
-0.02
-0.02
0.025
-0.01
-0.035
-0.03
0.03
0.03
-0.01
0.03
0.085
0.03
-0.005
-0.015
0.105
0.045
0.025
0.015
-0.005
0.01
0.035
0.07
-0.015
-0.04
0.01
-0.025
-0.02
-0.025
0.055
0.1
0.09
0.07
0.08
0.095
0.105
0.09
0.035
0.055
0.065
0.045
0.08
0.04
0.065
0.035
0.02
0.02
0.005
-0.03
-0.01
0.03
0.0
-0.04
-0.055
-0.065
-0.045
0.0
0.04
-0.005
0.005
-0.015
-0.06
-0.045
0.05
-0.035
-0.055
-0.045
-0.065
-0.05
-0.04
-0.04
-0.03
-0.045
-0.015
-0.04
-0.05
-0.045
-0.065
-0.03
0.015
-0.015
0.0
-0.005
-0.015
-0.035
-0.045
-0.015
0.0
-0.015
-0.045
-0.08
-0.07
-0.065
-0.065
-0.02
0.0
0.0
0.045
0.055
0.145
0.185
0.235
0.435
0.5
0.575
0.655
0.68
0.725
0.78
0.765
0.62
0.105
-0.46
-0.95
-0.97
-1.085
-1.145
-1.18
-1.105
-1.145
-1.135
-1.075
-0.96
-0.85
-0.825
-0.675
-0.6
-0.605
-0.55
-0.42
-0.33
-0.25
-0.22
-0.215
-0.17
-0.12
-0.03
0.025
0.015
-0.015
0.025
0.065
0.07
0.015
0.015
0.03
0.04
0.055
0.11
0.035
0.025
0.045
0.075
0.04
0.05
0.105
0.15
0.145
0.1
0.15
0.175
0.105
0.16
0.165
0.15
0.125
0.18
0.11
0.08
0.15
0.175
0.17
0.19
0.17
0.185
0.205
0.205
0.205
0.215
0.23
0.195
0.255
0.275
0.265
0.26
0.265
0.33
0.34
0.395
0.375
0.425
0.45
0.345
0.365
0.41
0.415
0.43
0.505
0.525
0.46
0.51
0.56
0.575
0.615
0.575
0.595
0.605
0.585
0.56
0.545
0.56
0.595
0.55
0.58
0.6
0.555
0.55
0.54
0.51
0.545
0.505
0.475
0.43
0.39
0.36
0.36
0.325
0.265
0.28
0.26
0.24
0.285
0.22
0.205
0.16
0.19
0.135
0.065
0.03
0.055
0.04
0.02
0.03
0.055
0.045
0.08
0.06
-0.005
-0.03
0.025
0.005
-0.01
-0.02
-0.06
0.0
-0.01
-0.01
-0.005
-0.015
-0.015
-0.015
-0.035
0.02
0.04
-0.02
-0.015
-0.02
-0.04
-0.03
-0.01
-0.045
0.02
0.02
-0.005
-0.03
-0.025
0.0
-0.005
-0.03
0.0
0.03
-0.005
0.045
0.005
-0.035
0.055
0.035
0.045
-0.025
-0.065
-0.03
-0.055
-0.03
-0.075
-0.015
0.02
0.015
-0.02
0.02
-0.01
-0.025
0.03
0.0
-0.015
-0.035
-0.025
0.02
0.005
-0.035
0.015
0.005
-0.005
-0.045
-0.01
0.015
0.025
0.03
0.07
0.035
0.0
0.05
0.09
0.085
0.075
0.05
0.055
0.025
0.065
0.07
0.04
0.06
0.04
0.045
0.08
0.035
0.005
0.03
0.065
0.05
0.035
0.06
0.13
0.045
-0.01
0.015
0.04
0.06
0.08
0.065
0.105
0.115
0.095
0.07
0.095
0.07
0.02
0.015
0.015
0.0
-0.015
-0.005
-0.02
0.015
0.0
-0.015
0.01
0.02
-0.035
0.04
-0.015
0.025
-0.045
-0.01
0.04
0.0
-0.01
-0.025
-0.025
-0.01
-0.01
-0.02
-0.055
-0.045
-0.04
0.0
-0.015
-0.055
-0.04
-0.07
-0.065
-0.075
-0.125
-0.08
-0.01
0.07
-0.005
0.035
0.005
0.015
0.035
0.0
-0.02
-0.04
0.035
0.04
0.085
0.12
0.155
0.26
0.37
0.44
0.485
0.56
0.675
0.685
0.695
0.705
0.65
0.305
-0.24
-0.74
-0.96
-1.045
-1.145
-1.185
-1.145
-1.1
-1.1
-1.035
-0.98
-0.98
-0.895
-0.78
-0.65
-0.595
-0.555
-0.465
-0.34
-0.24
-0.215
-0.17
-0.135
-0.125
-0.11
-0.03
0.03
0.05
0.01
0.0
0.05
-0.03
-0.005
0.04
0.07
0.09
0.055
0.03
0.065
0.065
0.05
0.115
0.09
0.08
0.12
0.12
0.125
0.155
0.13
0.12
0.145
0.135
0.135
0.165
0.14
0.11
0.105
0.115
0.18
0.185
0.2
0.15
0.125
0.115
0.165
0.2
0.235
0.185
0.22
0.22
0.215
0.29
0.28
0.3
0.27
0.295
0.295
0.385
0.38
0.355
0.435
0.43
0.41
0.435
0.46
0.495
0.455
0.445
0.5
0.51
0.53
0.545
0.53
0.55
0.555
0.53
0.56
0.57
0.565
0.6
0.565
0.525
0.55
0.57
0.565
0.53
0.465
0.445
0.41
0.41
0.375
0.375
0.395
0.365
0.335
0.32
0.235
0.15
0.225
0.23
0.095
0.12
0.125
0.105
0.115
0.095
0.045
0.06
0.045
0.04
0.05
0.03
-0.045
-0.02
-0.045
0.02
-0.05
0.02
0.085
0.015
-0.005
0.035
0.01
0.04
0.01
0.0
0.025
-0.03
0.0
-0.04
-0.045
-0.04
-0.02
-0.035
-0.025
0.0
-0.065
-0.04
-0.005
-0.08
-0.035
-0.075
-0.03
-0.01
0.005
0.03
0.015
-0.06
-0.07
-0.05
-0.015
-0.04
0.0
0.015
-0.025
-0.04
-0.005
-0.015
-0.01
-0.105
0.045
0.035
-0.06
-0.04
-0.015
-0.02
-0.02
-0.015
0.03
0.045
-0.005
0.005
-0.02
-0.035
-0.005
0.01
-0.06
-0.035
-0.055
-0.045
0.065
0.025
-0.01
0.035
0.01
-0.005
-0.01
0.035
0.02
0.04
0.09
0.05
0.02
0.045
0.025
0.03
0.04
0.035
0.055
0.02
0.0
0.03
0.05
0.04
0.07
0.06
0.045
0.065
0.045
0.02
0.02
0.08
0.055
0.065
0.06
0.075
0.05
0.065
0.095
0.065
0.075
0.06
0.04
0.07
0.08
0.015
0.02
-0.015
0.015
-0.015
-0.04
-0.085
-0.055
-0.01
-0.065
-0.01
0.04
0.06
-0.015
-0.025
0.005
-0.02
-0.005
-0.015
0.015
0.015
-0.04
-0.045
-0.04
-0.05
-0.04
-0.015
0.0
-0.015
-0.065
-0.06
-0.09
-0.11
-0.07
0.0
-0.06
-0.04
-0.025
0.035
0.055
0.05
0.005
-0.035
0.0
0.015
0.015
0.045
0.065
0.065
0.08
0.145
0.22
0.255
0.385
0.49
0.595
0.675
0.71
0.785
0.845
0.755
0.405
-0.025
-0.635
-0.935
-1.0
-1.06
-1.09
-1.125
-1.135
-1.165
-1.045
-0.905
-0.825
-0.785
-0.685
-0.61
-0.555
-0.49
-0.47
-0.39
-0.285
-0.205
-0.145
-0.135
-0.105
-0.045
0.01
0.035
0.04
0.025
0.005
0.01
0.05
0.04
0.04
0.045
0.03
-0.01
-0.025
0.065
0.11
0.06
0.08
0.1
0.075
0.13
0.135
0.09
0.17
0.135
0.065
0.075
0.04
0.085
0.13
0.135
0.135
0.145
0.13
0.19
0.205
0.175
0.19
0.195
0.19
0.185
0.19
0.24
0.22
0.205
0.22
0.19
0.215
0.245
0.255
0.265
0.275
0.33
0.39
0.385
0.415
0.415
0.415
0.395
0.365
0.42
0.47
0.485
0.445
0.47
0.515
0.455
0.495
0.5
0.58
0.625
0.565
0.595
0.62
0.6
0.59
0.54
0.53
0.545
0.495
0.51
0.505
0.515
0.535
0.445
0.405
0.455
0.42
0.385
0.345
0.32
0.3
0.23
0.21
0.205
0.24
0.16
0.09
0.11
0.095
0.075
0.05
0.04
0.08
0.09
0.06
0.055
0.02
0.04
0.035
0.005
-0.025
0.015
0.02
0.05
0.03
0.025
0.0
-0.035
-0.045
-0.01
0.02
0.03
0.02
-0.035
-0.02
-0.045
0.01
-0.035
-0.03
0.025
0.005
0.015
-0.01
-0.065
-0.04
0.015
-0.015
0.04
0.04
-0.005
-0.01
0.0
-0.005
-0.055
-0.055
-0.035
-0.045
-0.155
-0.07
0.015
-0.03
0.0
0.055
0.04
-0.005
-0.005
-0.005
-0.015
0.015
0.03
0.03
0.03
-0.025
-0.015
-0.005
0.06
0.02
-0.015
-0.015
0.015
0.045
-0.01
-0.02
-0.01
-0.025
0.005
0.03
0.03
0.065
0.03
-0.005
0.04
0.025
0.04
0.05
0.055
0.03
0.04
0.065
0.02
0.01
0.035
0.02
0.09
0.06
0.025
0.08
0.095
0.1
0.05
0.11
0.135
0.1
0.06
0.065
0.045
0.015
0.055
0.05
0.085
0.13
0.12
0.07
0.115
0.065
-0.005
0.01
0.015
0.01
0.01
-0.02
-0.035
-0.045
0.0
0.0
0.035
0.065
0.05
0.065
-0.005
-0.005
0.03
-0.02
-0.05
-0.055
-0.025
-0.01
-0.02
-0.04
-0.045
-0.055
-0.055
-0.065
-0.03
-0.095
-0.035
-0.03
0.04
0.03
0.015
-0.025
-0.015
-0.04
-0.03
-0.035
-0.08
-0.025
-0.025
0.0
0.01
0.05
0.035
0.045
0.05
0.035
0.105
0.17
0.27
0.34
0.395
0.51
0.705
0.74
0.775
0.78
0.82
0.725
0.31
-0.2
-0.73
-0.945
-1.02
-1.02
-1.12
-1.13
-1.155
-1.145
-1.035
-0.96
-0.905
-0.8
-0.675
-0.625
-0.575
-0.505
-0.465
-0.27
-0.205
-0.16
-0.1
-0.09
-0.12
-0.075
-0.025
0.02
0.055
0.04
0.06
0.03
0.05
0.045
0.055
0.015
0.02
0.12
0.12
0.075
0.07
0.1
0.12
0.105
0.06
0.035
0.08
0.095
0.08
0.1
0.09
0.15
0.18
0.11
0.145
0.15
0.115
0.135
0.145
0.13
0.2
0.195
0.175
0.14
0.155
0.2
0.2
0.18
0.25
0.25
0.28
0.28
0.245
0.26
0.255
0.3
0.28
0.325
0.36
0.36
0.36
0.355
0.39
0.375
0.425
0.465
0.49
0.5
0.545
0.555
0.55
0.52
0.52
0.565
0.57
0.54
0.555
0.585
0.545
0.55
0.56
0.56
0.56
0.625
0.545
0.585
0.51
0.49
0.475
0.45
0.435
0.4
0.415
0.34
0.33
0.31
0.255
0.235
0.23
0.215
0.19
0.135
0.145
0.145
0.11
0.025
-0.02
0.035
0.05
0.025
0.05
0.04
0.025
-0.02
-0.07
-0.005
-0.01
-0.04
0.05
0.05
0.025
-0.05
-0.025
-0.025
-0.02
0.005
0.005
-0.025
-0.01
-0.06
-0.04
0.0
-0.025
-0.015
0.02
0.005
-0.05
-0.075
-0.05
-0.03
-0.05
-0.075
-0.075
0.0
-0.025
-0.04
-0.04
-0.035
-0.03
-0.04
-0.06
-0.055
-0.035
-0.01
-0.04
-0.035
0.025
-0.015
-0.015
0.03
-0.005
-0.055
-0.06
-0.01
0.01
0.02
-0.045
-0.095
-0.1
-0.055
-0.025
-0.035
-0.055
-0.03
-0.055
-0.04
-0.005
-0.02
0.005
0.045
0.06
0.02
-0.005
0.03
0.085
0.045
0.03
0.0
0.04
-0.015
0.035
0.085
-0.005
-0.035
-0.015
0.05
0.03
0.01
-0.005
0.03
0.065
0.055
0.085
0.045
0.055
0.105
0.065
0.05
0.045
0.04
-0.025
-0.005
-0.02
-0.03
0.02
0.01
-0.015
0.01
0.085
0.1
0.025
0.005
0.03
0.005
-0.03
-0.05
-0.045
0.025
0.01
-0.035
-0.03
0.01
-0.005
-0.03
-0.035
-0.035
-0.04
-0.055
0.02
-0.03
-0.01
-0.095
-0.115
-0.07
-0.055
-0.015
-0.045
-0.065
-0.055
-0.065
-0.065
-0.055
-0.07
-0.095
-0.08
-0.065
-0.06
-0.055
-0.03
-0.04
-0.01
-0.035
-0.06
-0.055
-0.04
0.005
0.045
0.155
0.2
0.3
0.42
0.55
0.615
0.635
0.77
0.815
0.855
0.75
0.41
-0.045
-0.58
-0.945
-1.14
-1.19
-1.22
-1.205
-1.215
-1.195
-1.155
-1.055
-1.025
-0.885
-0.745
-0.655
-0.57
-0.56
-0.44
-0.395
-0.335
-0.28
-0.26
-0.265
-0.215
-0.13
-0.055
0.015
0.01
0.005
0.02
0.035
0.005
0.055
0.05
0.055
0.03
0.0
-0.01
0.02
0.02
0.065
0.07
0.035
-0.005
0.045
0.02
0.02
0.08
0.11
0.09
0.05
0.11
0.095
0.065
0.07
0.105
0.095
0.11
0.14
0.12
0.1
0.135
0.145
0.145
0.155
0.16
0.195
0.2
0.195
0.275
0.24
0.23
0.23
0.25
0.215
0.295
0.295
0.27
0.31
0.39
0.405
0.41
0.38
0.4
0.39
0.455
0.44
0.435
0.44
0.485
0.465
0.49
0.53
0.54
0.58
0.575
0.51
0.555
0.625
0.595
0.57
0.525
0.515
0.49
0.475
0.46
0.465
0.465
0.43
0.4
0.375
0.34
0.355
0.325
0.315
0.235
0.19
0.175
0.17
0.09
0.1
0.075
0.12
0.09
0.08
0.07
0.11
0.085
-0.01
0.025
0.045
-0.025
0.005
-0.015
-0.015
-0.02
-0.04
-0.1
-0.09
-0.05
0.02
-0.07
-0.085
-0.055
-0.07
-0.12
-0.07
-0.035
-0.03
-0.035
-0.01
-0.07
-0.08
-0.105
-0.095
-0.125
-0.06
-0.045
-0.075
-0.04
-0.04
-0.06
-0.06
-0.005
-0.04
-0.09
-0.075
-0.04
-0.01
-0.085
-0.025
-0.03
-0.07
-0.08
-0.085
-0.055
-0.04
-0.11
-0.115
-0.09
-0.055
-0.065
-0.025
-0.05
0.02
-0.015
-0.04
-0.05
-0.075
-0.09
-0.07
-0.08
-0.055
-0.065
-0.09
-0.06
0.0
0.005
-0.02
0.04
0.005
0.02
0.045
-0.015
-0.05
-0.045
0.02
0.05
0.04
0.035
0.01
-0.01
-0.1
-0.075
-0.045
-0.01
-0.03
-0.035
-0.035
0.01
0.035
0.06
0.04
0.055
0.06
0.065
0.015
-0.01
0.015
0.065
0.04
0.025
0.065
0.045
0.025
0.015
0.01
0.005
-0.015
0.035
-0.05
-0.045
-0.06
-0.02
-0.05
-0.085
-0.035
-0.03
-0.08
-0.06
-0.085
-0.06
-0.105
-0.06
-0.06
-0.055
-0.055
-0.05
-0.04
-0.035
-0.07
-0.045
-0.055
-0.075
-0.075
-0.055
-0.1
-0.07
-0.065
-0.045
-0.105
-0.055
-0.07
-0.08
-0.06
-0.06
-0.07
-0.05
-0.05
-0.035
-0.01
-0.03
-0.05
-0.065
-0.065
-0.075
-0.065
-0.045
0.035
0.03
0.085
0.185
0.405
0.46
0.515
0.67
0.71
0.75
0.735
0.715
0.555
0.115
-0.37
-0.875
-1.085
-1.15
-1.195
-1.175
-1.185
-1.21
-1.165
-1.09
-0.995
-0.985
-0.885
-0.755
-0.695
-0.675
-0.63
-0.485
-0.29
-0.28
-0.23
-0.17
-0.16
-0.16
-0.11
-0.055
-0.03
0.0
0.025
0.02
0.01
-0.005
-0.01
-0.005
