# TIPE ECG 2021 - ECG-ID Database v1.0.0 par Physionet
# [Numéro de la personne, Période d'échantillonnage, Prénom, Age, Sexe, Date de l'enregistrement]
[30, 0.002, Long, 28, H, 13.05.2005]
-0.07
-0.17
-0.17
-0.135
-0.165
-0.145
-0.125
-0.115
-0.155
-0.15
-0.12
-0.12
-0.135
-0.13
-0.17
-0.145
-0.13
-0.17
-0.17
-0.105
-0.12
-0.165
-0.125
-0.165
-0.145
-0.11
-0.11
-0.155
-0.18
-0.12
-0.11
-0.14
-0.115
-0.12
-0.16
-0.17
-0.19
-0.195
-0.165
-0.11
-0.13
-0.105
-0.13
-0.15
-0.13
-0.115
-0.19
-0.14
-0.17
-0.115
-0.105
-0.125
-0.16
-0.175
-0.15
-0.115
-0.15
-0.205
-0.16
-0.175
-0.165
-0.13
-0.15
-0.175
-0.135
-0.13
-0.13
-0.155
-0.16
-0.145
-0.14
-0.145
-0.17
-0.155
-0.14
-0.155
-0.11
-0.13
-0.115
-0.145
-0.16
-0.2
-0.15
-0.155
-0.15
-0.125
-0.135
-0.125
-0.14
-0.17
-0.16
-0.145
-0.17
-0.195
-0.2
-0.135
-0.125
-0.195
-0.135
-0.11
-0.14
-0.165
-0.16
-0.135
-0.135
-0.14
-0.145
-0.175
-0.16
-0.13
-0.125
-0.145
-0.115
-0.155
-0.18
-0.17
-0.17
-0.195
-0.175
-0.15
-0.185
-0.225
-0.15
-0.135
-0.14
-0.135
-0.165
-0.145
-0.115
-0.155
-0.14
-0.125
-0.115
-0.17
-0.16
-0.175
-0.145
-0.13
-0.13
-0.12
-0.15
-0.17
-0.165
-0.16
-0.115
-0.12
-0.14
-0.115
-0.11
-0.14
-0.105
-0.15
-0.195
-0.16
-0.135
-0.14
-0.13
-0.13
-0.145
-0.16
-0.13
-0.125
-0.14
-0.155
-0.12
-0.12
-0.145
-0.12
-0.15
-0.145
-0.155
-0.14
-0.105
-0.07
-0.075
-0.075
-0.075
-0.035
-0.045
-0.06
-0.095
-0.055
-0.08
-0.1
-0.03
-0.025
-0.09
-0.1
-0.08
-0.055
-0.08
-0.05
-0.07
-0.11
-0.095
-0.09
-0.055
-0.065
-0.08
-0.08
-0.095
-0.065
-0.07
-0.1
-0.15
-0.135
-0.13
-0.15
-0.14
-0.135
-0.17
-0.16
-0.14
-0.11
-0.14
-0.205
-0.135
-0.115
-0.105
-0.105
-0.115
-0.105
-0.135
-0.17
-0.15
-0.12
-0.11
-0.135
-0.12
-0.135
-0.19
-0.2
-0.23
-0.265
-0.25
-0.295
-0.325
-0.275
-0.25
-0.145
0.0
0.1
0.1
0.23
0.43
0.57
0.695
0.85
0.99
1.18
1.345
1.485
1.51
1.505
1.47
1.3
1.01
0.83
0.53
0.2
-0.01
-0.045
-0.085
-0.15
-0.17
-0.135
-0.13
-0.09
-0.1
-0.185
-0.145
-0.09
-0.07
-0.1
-0.1
-0.045
-0.04
-0.05
-0.07
-0.14
-0.135
-0.055
-0.075
-0.12
-0.135
-0.1
-0.09
-0.06
-0.03
-0.08
-0.09
-0.085
-0.095
-0.1
-0.075
-0.065
-0.045
-0.07
-0.07
-0.105
-0.03
-0.045
-0.07
-0.05
-0.045
-0.045
-0.025
-0.05
-0.055
-0.015
-0.03
-0.015
-0.025
-0.015
0.0
-0.04
-0.06
-0.045
0.01
0.005
-0.015
0.04
0.005
0.01
0.025
0.055
0.045
0.08
0.05
0.05
0.06
0.09
0.03
0.05
0.12
0.1
0.06
0.1
0.09
0.135
0.165
0.105
0.115
0.135
0.175
0.2
0.245
0.27
0.25
0.245
0.335
0.305
0.3
0.32
0.29
0.305
0.335
0.345
0.315
0.355
0.44
0.4
0.335
0.425
0.425
0.365
0.395
0.445
0.39
0.41
0.405
0.39
0.4
0.415
0.41
0.385
0.37
0.385
0.3
0.335
0.295
0.235
0.225
0.225
0.21
0.165
0.155
0.18
0.15
0.065
0.075
0.06
0.065
0.055
0.05
0.025
0.045
0.045
0.0
-0.035
-0.015
0.01
-0.01
0.005
-0.02
-0.045
-0.065
-0.08
-0.01
0.0
-0.005
-0.015
-0.03
-0.03
-0.06
-0.065
-0.04
-0.035
-0.025
-0.045
-0.06
-0.07
-0.025
-0.05
-0.04
-0.025
-0.035
-0.015
-0.03
-0.05
-0.025
-0.02
-0.04
-0.025
-0.035
-0.05
-0.05
-0.075
-0.02
-0.03
-0.025
0.01
-0.035
-0.1
-0.085
-0.025
-0.01
-0.05
-0.065
-0.095
-0.07
-0.015
-0.02
0.005
-0.02
-0.05
-0.065
-0.05
0.025
-0.025
-0.015
-0.015
0.035
-0.035
-0.075
-0.06
-0.03
-0.05
-0.025
-0.03
-0.04
-0.045
0.005
0.015
-0.01
-0.01
-0.025
-0.005
-0.02
-0.015
0.01
0.0
-0.045
-0.035
-0.035
-0.02
-0.01
0.02
-0.02
-0.015
-0.015
-0.02
0.005
0.0
-0.06
-0.055
-0.03
-0.02
-0.015
-0.025
-0.055
0.0
0.015
-0.01
-0.015
-0.025
0.005
-0.01
-0.01
-0.025
-0.005
-0.005
0.005
0.0
0.0
-0.005
-0.055
-0.045
-0.015
0.015
-0.005
0.0
-0.005
-0.04
-0.015
-0.005
0.015
0.015
-0.015
-0.04
-0.05
-0.03
0.0
-0.025
-0.025
-0.01
0.005
-0.005
-0.01
-0.015
0.005
0.0
-0.005
-0.065
-0.07
-0.045
-0.025
0.0
0.01
-0.005
0.035
-0.025
-0.04
-0.025
-0.055
-0.015
-0.03
0.005
0.015
0.005
-0.02
0.005
-0.005
-0.05
-0.065
-0.005
-0.035
-0.03
0.005
-0.01
-0.04
-0.025
0.005
-0.045
-0.05
0.005
-0.005
-0.005
-0.015
-0.05
-0.07
-0.05
-0.055
-0.01
-0.005
0.04
0.055
0.0
-0.005
-0.01
-0.075
-0.065
-0.06
0.005
0.0
0.03
0.005
-0.025
-0.02
-0.03
-0.01
0.02
0.025
-0.02
0.015
0.025
0.005
0.005
0.06
0.055
0.045
0.03
0.045
0.025
0.035
-0.015
0.01
0.04
0.055
0.045
-0.025
0.025
0.045
0.06
0.025
0.025
0.04
0.035
0.035
0.04
0.005
-0.005
0.02
0.0
-0.03
-0.035
-0.05
-0.025
-0.02
-0.035
-0.06
-0.06
-0.055
-0.04
-0.045
-0.05
-0.065
-0.05
-0.04
-0.035
-0.07
-0.05
-0.035
-0.09
-0.06
0.015
-0.04
-0.1
-0.05
-0.005
-0.055
-0.135
-0.12
-0.165
-0.21
-0.215
-0.265
-0.2
-0.15
-0.115
0.0
0.125
0.175
0.315
0.48
0.675
0.785
0.895
1.05
1.21
1.38
1.535
1.59
1.635
1.605
1.48
1.25
1.065
0.725
0.395
0.155
0.065
0.005
0.0
-0.025
-0.02
-0.02
-0.035
-0.015
-0.045
-0.04
0.015
0.04
0.005
0.03
0.02
-0.01
0.005
0.02
-0.015
0.025
0.01
-0.01
0.01
0.01
0.005
-0.01
-0.005
0.0
-0.015
-0.075
-0.045
-0.005
-0.01
0.005
0.045
0.02
0.045
0.035
0.025
0.01
0.035
0.01
0.0
0.035
0.045
0.06
0.07
0.025
0.04
0.075
0.055
0.06
0.06
0.055
0.075
0.07
0.075
0.09
0.07
0.1
0.095
0.095
0.11
0.1
0.12
0.13
0.14
0.11
0.115
0.11
0.135
0.15
0.195
0.17
0.185
0.22
0.17
0.185
0.2
0.21
0.22
0.23
0.26
0.275
0.245
0.25
0.315
0.335
0.34
0.325
0.345
0.325
0.38
0.42
0.395
0.385
0.4
0.41
0.385
0.415
0.47
0.47
0.475
0.485
0.47
0.48
0.49
0.45
0.465
0.465
0.47
0.46
0.47
0.44
0.45
0.425
0.42
0.345
0.335
0.37
0.33
0.28
0.305
0.3
0.245
0.21
0.175
0.17
0.14
0.095
0.09
0.15
0.15
0.105
0.075
0.065
0.08
0.08
0.02
0.005
0.02
0.0
0.04
0.02
-0.015
-0.02
-0.005
0.005
-0.015
-0.03
0.005
0.0
0.01
0.01
0.03
0.01
0.005
-0.03
-0.02
0.005
-0.01
-0.07
-0.025
0.025
-0.005
-0.02
-0.01
-0.015
-0.005
-0.01
0.0
-0.025
-0.03
-0.02
-0.01
-0.02
-0.005
-0.045
-0.045
-0.01
-0.01
-0.03
-0.015
-0.02
0.03
0.01
-0.03
-0.05
-0.035
-0.005
0.01
-0.025
-0.01
0.01
-0.04
-0.045
-0.03
-0.015
-0.02
0.0
0.0
-0.035
0.0
0.005
0.015
0.03
0.035
-0.05
-0.08
-0.04
-0.035
-0.015
-0.01
0.005
-0.015
-0.01
0.005
-0.025
-0.005
-0.005
-0.02
-0.005
-0.05
-0.055
-0.005
0.015
0.01
-0.035
0.005
0.0
-0.005
-0.02
-0.03
-0.005
0.0
-0.015
-0.03
-0.065
-0.04
-0.03
-0.005
0.005
-0.025
-0.03
0.02
0.045
0.015
-0.015
-0.03
-0.06
-0.065
-0.015
-0.01
-0.035
-0.04
-0.03
-0.045
0.01
0.035
0.005
-0.01
-0.07
-0.045
-0.055
-0.015
-0.005
-0.03
-0.02
0.005
0.005
-0.04
-0.03
0.0
-0.075
-0.035
-0.025
-0.03
-0.025
-0.035
-0.03
-0.025
-0.01
0.015
-0.035
-0.03
-0.045
-0.01
-0.055
-0.05
-0.04
0.0
-0.005
-0.03
-0.045
-0.055
-0.025
-0.09
-0.055
-0.035
-0.01
-0.01
-0.03
-0.04
-0.035
-0.025
-0.035
-0.05
-0.065
-0.02
-0.015
-0.055
-0.025
-0.015
-0.035
-0.035
-0.055
-0.035
0.0
-0.015
0.005
-0.01
0.0
-0.025
-0.025
-0.03
-0.03
-0.02
-0.055
-0.035
-0.025
-0.01
-0.005
0.02
0.04
-0.06
-0.075
-0.09
-0.03
-0.03
-0.06
-0.055
-0.005
-0.11
-0.045
0.0
0.01
-0.01
-0.055
-0.025
-0.045
-0.045
-0.025
-0.005
-0.045
-0.02
0.0
-0.04
-0.025
-0.005
-0.035
-0.01
0.03
-0.005
-0.035
0.01
-0.01
-0.06
-0.015
0.01
-0.04
-0.05
-0.01
-0.035
-0.035
0.0
0.01
-0.02
-0.025
-0.005
-0.03
-0.01
0.015
0.055
0.005
-0.005
-0.03
-0.035
0.01
0.015
0.04
0.055
0.03
0.05
0.015
-0.005
0.005
-0.03
0.015
0.02
-0.03
-0.01
0.07
0.055
0.005
0.0
0.05
-0.005
-0.03
0.0
-0.015
0.005
-0.01
-0.025
0.0
-0.04
-0.065
-0.085
-0.1
-0.09
-0.075
-0.075
-0.035
-0.025
-0.04
-0.06
-0.05
-0.05
-0.08
-0.07
-0.085
-0.045
-0.06
-0.12
-0.055
-0.035
-0.065
-0.075
-0.065
-0.085
-0.06
-0.135
-0.15
-0.19
-0.18
-0.245
-0.3
-0.25
-0.195
-0.09
0.015
0.145
0.245
0.365
0.45
0.645
0.785
0.945
1.1
1.325
1.505
1.565
1.68
1.685
1.595
1.48
1.295
1.055
0.685
0.385
0.19
0.06
-0.01
-0.045
-0.07
-0.065
-0.025
-0.025
-0.05
-0.045
-0.055
-0.04
0.0
-0.005
-0.035
-0.02
-0.05
-0.02
-0.005
-0.04
-0.055
-0.04
-0.035
-0.035
0.01
0.02
-0.055
-0.085
-0.045
0.025
-0.005
-0.025
-0.025
-0.05
-0.065
-0.04
-0.025
-0.01
-0.005
-0.035
-0.015
0.02
0.02
-0.03
-0.01
0.025
0.005
0.03
0.025
0.04
0.035
0.045
0.05
0.06
0.03
0.065
0.01
-0.005
0.04
0.04
0.07
0.1
0.1
0.13
0.145
0.095
0.07
0.085
0.135
0.11
0.09
0.125
0.125
0.105
0.11
0.135
0.155
0.185
0.19
0.19
0.18
0.18
0.185
0.21
0.25
0.255
0.245
0.255
0.285
0.3
0.325
0.34
0.32
0.315
0.335
0.345
0.34
0.375
0.4
0.425
0.45
0.41
0.42
0.455
0.46
0.44
0.46
0.485
0.445
0.435
0.445
0.445
0.445
0.435
0.425
0.435
0.4
0.415
0.395
0.36
0.36
0.325
0.27
0.275
0.275
0.28
0.255
0.215
0.18
0.115
0.12
0.14
0.115
0.11
0.09
0.065
0.025
0.05
0.03
0.035
0.065
0.07
0.08
-0.005
-0.035
-0.03
-0.025
-0.04
-0.015
-0.085
-0.065
-0.015
-0.035
-0.065
0.005
0.005
0.02
0.01
-0.005
-0.02
0.005
0.005
-0.02
-0.03
-0.005
-0.045
-0.05
-0.04
-0.025
-0.03
-0.01
-0.015
-0.035
-0.035
-0.035
-0.05
-0.015
-0.025
-0.06
-0.065
-0.035
-0.04
-0.03
-0.02
0.005
-0.03
-0.02
-0.015
-0.065
-0.035
0.015
-0.01
-0.02
-0.055
-0.05
-0.08
-0.035
-0.045
0.01
-0.02
-0.01
-0.055
-0.05
-0.06
-0.06
-0.035
-0.045
-0.05
-0.03
-0.015
0.01
-0.015
-0.035
-0.03
-0.045
-0.07
-0.02
-0.03
-0.01
-0.015
-0.015
-0.015
0.0
-0.04
-0.025
-0.04
-0.02
-0.035
-0.06
-0.025
0.065
0.0
-0.035
-0.05
-0.025
-0.09
-0.065
-0.03
-0.045
-0.04
-0.03
-0.075
-0.045
-0.005
-0.045
-0.035
-0.025
-0.01
-0.05
-0.07
-0.005
-0.05
-0.045
-0.055
-0.05
-0.06
-0.045
-0.05
-0.055
-0.015
-0.035
-0.05
-0.05
-0.035
-0.03
-0.03
-0.055
-0.05
-0.045
-0.05
-0.015
-0.015
-0.05
-0.1
-0.09
-0.05
-0.05
-0.055
-0.025
-0.04
-0.06
-0.08
-0.045
-0.035
-0.035
-0.04
-0.03
-0.03
-0.025
-0.03
-0.035
-0.08
-0.09
-0.075
-0.075
-0.055
-0.08
-0.065
-0.03
-0.05
-0.045
-0.045
-0.06
-0.045
-0.05
-0.06
-0.025
-0.07
-0.045
-0.06
-0.045
-0.075
-0.06
-0.065
-0.05
-0.035
-0.035
-0.125
-0.065
-0.04
-0.02
-0.035
-0.055
-0.055
-0.09
-0.08
-0.045
-0.08
-0.075
-0.09
-0.06
-0.035
-0.065
-0.03
-0.05
-0.05
-0.035
-0.075
-0.08
-0.045
-0.05
-0.045
-0.035
-0.055
-0.06
-0.075
-0.055
-0.055
-0.03
-0.06
-0.025
-0.055
-0.07
-0.055
-0.075
-0.055
-0.035
-0.045
-0.05
-0.025
-0.045
-0.06
-0.07
-0.035
-0.06
-0.045
-0.03
-0.09
-0.045
0.015
-0.02
-0.065
-0.02
-0.045
-0.045
-0.06
-0.06
-0.06
-0.015
0.025
0.01
-0.02
0.02
0.01
0.01
0.04
0.045
-0.02
-0.035
0.045
0.005
0.0
0.0
-0.01
-0.045
-0.005
0.045
0.035
-0.01
-0.015
-0.005
0.03
0.005
-0.025
-0.04
0.02
0.025
-0.025
-0.07
-0.04
-0.03
-0.065
-0.08
-0.095
-0.09
-0.085
-0.06
-0.09
-0.08
-0.06
-0.04
-0.08
-0.085
-0.095
-0.06
-0.075
-0.08
-0.075
-0.04
-0.1
-0.07
-0.06
-0.045
-0.095
-0.145
-0.13
-0.11
-0.12
-0.125
-0.185
-0.225
-0.285
-0.3
-0.295
-0.25
-0.155
-0.055
0.045
0.21
0.295
0.37
0.545
0.71
0.86
1.005
1.18
1.35
1.52
1.635
1.73
1.7
1.585
1.43
1.23
0.95
0.53
0.275
0.1
0.025
0.025
-0.05
-0.12
-0.075
-0.06
-0.05
-0.07
-0.085
-0.07
-0.005
-0.005
-0.06
-0.065
-0.005
-0.02
-0.005
-0.03
-0.105
-0.05
-0.03
-0.015
-0.035
-0.035
-0.005
-0.035
-0.04
-0.03
-0.04
-0.015
0.01
-0.04
-0.065
-0.065
-0.03
-0.025
-0.04
-0.02
-0.04
-0.015
-0.015
-0.01
0.01
-0.06
-0.025
0.0
0.01
0.01
0.015
0.055
0.03
0.005
0.0
-0.005
0.015
0.01
0.055
0.07
0.065
0.04
0.035
0.065
0.11
0.12
0.045
0.04
0.08
0.07
0.07
0.105
0.155
0.145
0.165
0.125
0.135
0.16
0.175
0.155
0.185
0.17
0.2
0.21
0.18
0.21
0.25
0.22
0.235
0.33
0.3
0.28
0.305
0.31
0.335
0.335
0.37
0.36
0.37
0.41
0.4
0.42
0.4
0.41
0.415
0.44
0.465
0.45
0.485
0.46
0.42
0.47
0.48
0.43
0.4
0.4
0.405
0.36
0.345
0.33
0.33
0.345
0.31
0.295
0.255
0.245
0.235
0.205
0.17
0.16
0.145
0.115
0.105
0.105
0.045
0.04
0.04
0.055
0.08
0.02
-0.025
-0.015
0.035
0.055
0.035
-0.04
-0.045
-0.02
-0.025
-0.005
-0.035
-0.02
-0.03
-0.055
-0.075
-0.03
-0.035
-0.035
-0.025
-0.04
-0.06
-0.03
-0.05
-0.085
-0.045
-0.005
-0.02
-0.05
-0.03
-0.035
-0.035
0.0
-0.04
-0.03
-0.045
-0.07
-0.08
-0.03
-0.04
-0.05
-0.05
-0.06
-0.065
-0.075
-0.04
-0.005
-0.01
-0.015
-0.04
-0.065
-0.06
-0.05
-0.035
-0.035
-0.035
-0.035
-0.04
-0.04
-0.04
-0.05
-0.085
-0.05
-0.015
-0.01
-0.01
-0.055
-0.045
-0.045
-0.04
-0.035
-0.005
-0.05
-0.045
-0.05
-0.04
-0.025
-0.05
-0.025
-0.03
-0.035
-0.06
-0.08
-0.055
-0.12
-0.065
0.0
-0.06
-0.07
-0.04
-0.01
-0.025
-0.035
-0.045
-0.055
-0.035
-0.04
-0.05
-0.045
-0.02
-0.045
-0.05
-0.03
-0.03
-0.03
-0.045
-0.045
-0.04
-0.04
-0.035
-0.07
-0.05
-0.035
-0.035
-0.04
0.005
0.025
-0.035
-0.06
-0.06
-0.07
-0.06
-0.015
-0.035
-0.05
-0.05
-0.065
-0.075
-0.095
-0.05
-0.09
-0.145
0.015
-0.01
-0.035
-0.045
-0.03
-0.01
-0.01
-0.015
-0.04
-0.055
-0.095
-0.105
-0.075
-0.03
-0.015
-0.055
-0.04
-0.055
-0.065
-0.015
-0.03
-0.045
-0.06
-0.065
-0.045
-0.03
-0.05
-0.09
-0.1
-0.035
-0.01
-0.085
-0.03
-0.04
-0.025
-0.03
-0.08
-0.06
-0.045
-0.03
-0.015
-0.05
-0.085
-0.065
-0.075
-0.025
-0.025
-0.04
-0.05
-0.03
-0.055
-0.11
-0.07
-0.005
-0.03
-0.035
-0.055
-0.035
-0.09
-0.035
-0.015
-0.05
-0.065
-0.065
-0.055
-0.03
0.0
-0.035
-0.035
-0.03
-0.045
-0.04
-0.03
-0.05
-0.055
-0.045
-0.04
-0.07
-0.085
-0.05
-0.04
0.0
-0.04
-0.045
-0.045
-0.035
-0.05
-0.03
-0.09
-0.06
-0.02
-0.04
-0.07
-0.04
-0.045
-0.02
-0.03
-0.1
-0.065
-0.025
-0.085
-0.035
-0.03
-0.035
-0.05
-0.05
-0.04
-0.055
-0.03
-0.04
-0.015
-0.03
-0.04
-0.035
-0.03
-0.035
-0.035
-0.055
-0.085
-0.035
-0.015
-0.015
-0.02
-0.01
-0.06
-0.025
-0.005
-0.05
-0.02
-0.005
-0.01
0.02
0.02
0.015
-0.025
0.025
0.06
-0.025
0.0
0.025
0.025
0.03
0.015
0.025
0.03
0.03
0.02
0.025
-0.005
-0.01
0.015
0.04
-0.015
-0.005
-0.02
-0.02
-0.01
-0.04
-0.015
0.025
-0.035
-0.07
-0.06
-0.1
-0.055
-0.015
-0.05
-0.075
-0.09
-0.1
-0.05
-0.06
-0.055
-0.06
-0.06
-0.085
-0.085
-0.09
-0.105
-0.055
-0.03
-0.07
-0.025
-0.04
-0.1
-0.055
-0.065
-0.095
-0.185
-0.185
-0.19
-0.275
-0.28
-0.28
-0.25
-0.21
-0.07
0.07
0.185
0.225
0.35
0.53
0.695
0.86
0.995
1.155
1.385
1.545
1.68
1.72
1.735
1.615
1.46
1.21
0.95
0.61
0.31
0.195
0.105
0.005
-0.04
-0.03
-0.07
-0.075
-0.05
-0.035
-0.045
-0.025
-0.025
0.005
-0.035
-0.06
0.01
-0.015
-0.005
-0.04
-0.045
-0.055
-0.015
-0.035
-0.025
-0.01
-0.025
-0.025
-0.05
-0.03
-0.015
-0.015
-0.045
-0.08
-0.04
-0.01
0.005
-0.04
-0.015
0.01
0.015
0.005
0.0
0.0
0.005
0.03
0.025
0.0
0.005
0.04
-0.025
0.005
0.08
0.05
0.045
0.035
0.065
0.04
0.045
0.04
0.04
0.04
0.13
0.08
0.04
0.045
0.05
0.095
0.065
0.1
0.075
0.12
0.12
0.135
0.155
0.17
0.13
0.125
0.135
0.15
0.175
0.205
0.21
0.16
0.2
0.265
0.255
0.23
0.26
0.29
0.285
0.31
0.3
0.31
0.34
0.335
0.365
0.375
0.4
0.365
0.345
0.385
0.435
0.45
0.46
0.425
0.47
0.45
0.455
0.51
0.49
0.435
0.455
0.46
0.425
0.435
0.42
0.375
0.4
0.375
0.35
0.345
0.345
0.29
0.265
0.28
0.245
0.23
0.215
0.13
0.12
0.155
0.14
0.08
0.085
0.06
0.025
0.045
0.03
-0.01
0.045
0.085
0.03
0.005
0.015
0.015
-0.035
-0.025
0.0
-0.005
-0.05
-0.015
-0.025
-0.03
-0.04
-0.075
-0.025
-0.03
-0.045
-0.025
-0.03
-0.02
-0.07
-0.065
-0.04
-0.01
-0.01
-0.04
-0.035
-0.07
-0.055
-0.02
-0.025
-0.04
-0.03
-0.035
-0.06
-0.03
-0.03
-0.045
-0.065
-0.025
-0.06
-0.025
-0.015
-0.04
-0.02
-0.065
-0.06
-0.03
-0.045
-0.03
-0.035
-0.045
-0.035
-0.03
-0.05
-0.065
-0.065
-0.035
-0.035
-0.02
-0.015
0.0
-0.045
-0.065
-0.05
-0.035
-0.035
-0.02
-0.02
-0.04
-0.045
-0.055
-0.085
-0.01
-0.06
-0.06
-0.05
-0.035
-0.03
-0.045
-0.045
-0.03
-0.055
-0.04
-0.035
-0.045
-0.095
-0.03
-0.025
-0.085
-0.11
-0.065
-0.005
-0.005
-0.04
-0.065
-0.045
-0.01
-0.06
-0.035
-0.01
-0.06
-0.08
-0.055
-0.025
-0.015
-0.035
-0.065
-0.045
-0.075
-0.09
-0.125
-0.065
-0.03
-0.03
-0.025
-0.05
-0.045
-0.085
-0.095
-0.07
-0.06
-0.055
-0.035
-0.07
-0.065
-0.055
-0.025
-0.045
-0.025
-0.07
-0.075
-0.065
-0.035
-0.04
-0.045
-0.04
-0.05
-0.07
-0.065
-0.095
-0.15
-0.075
-0.02
-0.065
-0.085
-0.015
-0.015
-0.055
-0.105
-0.06
-0.04
-0.025
-0.01
-0.04
-0.085
-0.04
-0.05
-0.065
-0.065
-0.075
-0.09
-0.07
-0.045
-0.055
-0.055
-0.06
-0.07
-0.09
-0.08
-0.075
-0.045
-0.065
-0.045
0.005
-0.055
-0.065
-0.065
-0.07
-0.08
-0.04
-0.02
-0.015
-0.05
-0.05
-0.075
-0.015
-0.05
-0.06
-0.035
-0.04
-0.045
-0.075
-0.055
-0.07
-0.04
-0.01
-0.035
-0.05
-0.065
-0.04
-0.065
-0.055
-0.04
-0.09
-0.025
-0.03
-0.045
-0.05
-0.075
-0.05
-0.055
-0.035
-0.03
-0.06
-0.04
-0.04
-0.055
-0.05
-0.02
-0.06
-0.1
-0.075
-0.05
-0.05
-0.025
-0.04
-0.01
-0.02
-0.05
-0.055
-0.04
-0.05
-0.075
-0.03
-0.025
-0.025
-0.08
-0.025
0.0
0.0
-0.03
0.0
-0.01
-0.04
0.015
0.065
0.02
-0.025
0.015
0.035
0.005
0.0
-0.005
-0.015
0.005
0.015
0.01
-0.015
0.02
0.005
-0.045
0.005
-0.005
-0.025
0.01
0.04
0.02
-0.045
-0.02
-0.015
-0.015
-0.05
-0.03
-0.075
-0.065
-0.03
-0.125
-0.095
-0.04
-0.085
-0.105
-0.1
-0.015
-0.07
-0.07
-0.065
-0.07
-0.05
-0.065
-0.095
-0.13
-0.115
-0.075
-0.02
-0.005
-0.095
-0.085
-0.08
-0.15
-0.165
-0.135
-0.175
-0.225
-0.23
-0.275
-0.26
-0.215
-0.105
0.025
0.165
0.215
0.315
0.485
0.67
0.835
0.98
1.12
1.34
1.515
1.605
1.655
1.71
1.615
1.47
1.27
0.985
0.575
0.29
0.145
0.05
-0.015
-0.02
-0.04
-0.115
-0.06
-0.055
-0.045
-0.06
-0.06
-0.04
-0.045
-0.02
-0.05
-0.02
-0.02
-0.045
-0.055
-0.025
-0.04
-0.065
-0.07
-0.03
-0.04
-0.025
-0.02
-0.035
0.0
-0.07
-0.075
-0.105
-0.01
0.03
-0.045
-0.045
-0.01
-0.025
0.005
-0.02
0.005
-0.01
-0.03
-0.035
0.01
0.01
0.025
0.0
0.015
0.02
0.01
0.04
0.02
-0.01
0.015
0.025
0.045
0.005
0.015
0.07
0.085
0.02
0.055
0.1
0.11
0.07
0.06
0.06
0.065
0.11
0.09
0.085
0.1
0.115
0.13
0.135
0.15
0.155
0.175
0.17
0.175
0.155
0.17
0.205
0.215
0.23
0.275
0.25
0.225
0.28
0.285
0.265
0.295
0.355
0.35
0.345
0.365
0.375
0.38
0.365
0.355
0.37
0.4
0.375
0.41
0.465
0.435
0.4
0.49
0.505
0.44
0.375
0.41
0.44
0.45
0.45
0.41
0.375
0.365
0.365
0.345
0.265
0.295
0.27
0.245
0.235
0.195
0.18
0.145
0.115
0.09
0.095
0.08
0.085
0.085
0.08
0.055
-0.005
0.01
0.015
0.0
0.0
-0.03
-0.045
-0.025
-0.005
-0.025
-0.065
-0.06
-0.045
-0.035
-0.05
-0.04
-0.035
-0.045
-0.04
-0.035
-0.05
-0.06
-0.065
-0.095
-0.135
-0.06
-0.025
-0.07
-0.08
-0.04
-0.055
-0.045
-0.05
-0.07
-0.045
-0.045
-0.045
-0.065
-0.025
-0.045
-0.045
-0.075
-0.025
-0.05
-0.075
-0.075
-0.1
-0.09
-0.07
-0.045
-0.05
-0.05
-0.065
-0.065
-0.11
-0.08
-0.09
-0.075
-0.06
-0.095
-0.05
-0.05
-0.05
-0.085
-0.07
-0.04
-0.06
-0.085
-0.06
-0.06
-0.04
-0.04
-0.06
-0.065
-0.015
-0.05
-0.08
-0.07
-0.05
-0.04
-0.09
-0.095
-0.07
-0.09
-0.065
-0.035
-0.025
-0.09
-0.075
-0.075
-0.08
-0.05
-0.07
-0.065
-0.08
-0.08
-0.075
-0.05
-0.02
-0.04
-0.065
-0.075
-0.11
-0.125
-0.08
-0.055
-0.1
-0.11
-0.05
-0.045
-0.08
-0.09
-0.035
-0.05
-0.07
-0.065
-0.075
-0.03
-0.045
-0.115
-0.08
-0.08
-0.085
-0.12
-0.105
-0.085
-0.075
-0.045
-0.055
-0.075
-0.065
-0.08
-0.12
-0.085
-0.07
-0.07
-0.085
-0.07
-0.08
-0.09
-0.055
-0.07
-0.085
-0.065
-0.065
-0.105
-0.095
-0.085
-0.075
-0.045
-0.08
-0.09
-0.065
-0.115
-0.1
-0.085
-0.075
-0.065
-0.06
-0.07
-0.085
-0.1
-0.065
-0.07
-0.075
-0.105
-0.09
-0.055
-0.095
-0.105
-0.105
-0.105
-0.12
-0.09
-0.09
-0.085
-0.125
-0.1
-0.075
-0.11
-0.04
-0.055
-0.095
-0.07
-0.09
-0.07
-0.095
-0.075
-0.105
-0.09
-0.13
-0.08
-0.07
-0.075
-0.095
-0.085
-0.085
-0.04
-0.1
-0.12
-0.08
-0.14
-0.09
-0.03
-0.045
-0.09
-0.1
-0.025
-0.03
-0.075
-0.075
-0.075
-0.115
-0.1
-0.055
-0.09
-0.1
-0.07
-0.065
-0.135
-0.085
-0.1
-0.075
-0.085
-0.07
-0.085
-0.09
-0.07
-0.085
-0.085
-0.085
-0.105
-0.085
-0.055
-0.05
-0.05
-0.055
-0.05
-0.09
-0.095
-0.07
-0.085
-0.105
-0.07
-0.05
-0.08
-0.04
0.0
-0.04
-0.04
-0.055
-0.07
-0.03
-0.02
-0.02
-0.005
-0.01
0.025
0.03
-0.005
-0.04
-0.015
-0.01
-0.005
-0.06
-0.02
-0.045
0.0
-0.035
-0.05
-0.045
-0.045
-0.045
-0.045
-0.07
-0.08
-0.04
-0.045
-0.07
-0.05
-0.09
-0.095
-0.09
-0.075
-0.1
-0.155
-0.135
-0.1
-0.105
-0.05
-0.03
-0.085
-0.105
-0.085
-0.085
-0.105
-0.075
-0.1
-0.105
-0.115
-0.11
-0.105
-0.13
-0.095
-0.155
-0.16
-0.115
-0.16
-0.22
-0.26
-0.285
-0.33
-0.31
-0.225
-0.125
-0.045
0.095
0.185
0.305
0.425
0.59
0.76
0.91
1.045
1.245
1.475
1.615
1.655
1.635
1.605
1.49
1.265
1.015
0.645
0.325
0.145
0.04
-0.065
-0.07
-0.125
-0.195
-0.075
-0.03
-0.065
-0.06
-0.03
-0.04
-0.075
-0.06
-0.05
-0.055
-0.04
-0.025
-0.075
-0.09
-0.09
-0.075
-0.07
-0.06
-0.04
-0.07
-0.075
-0.085
-0.065
-0.11
-0.06
-0.02
-0.035
-0.045
-0.04
-0.06
-0.06
-0.04
-0.075
-0.07
-0.045
-0.06
-0.035
-0.025
-0.025
-0.01
-0.04
0.01
0.035
-0.005
-0.03
-0.01
0.005
0.045
-0.005
-0.035
0.01
0.005
0.005
0.015
0.03
0.035
0.04
0.02
0.06
0.055
0.055
0.065
0.04
0.025
0.055
0.085
0.125
0.115
0.105
0.095
0.12
0.125
0.15
0.135
0.14
0.2
0.215
0.21
0.235
0.185
0.225
0.265
0.265
0.23
0.275
0.275
0.29
0.29
0.295
0.34
0.305
0.365
0.365
0.33
0.395
0.38
0.39
0.375
0.415
0.405
0.425
0.43
0.37
0.4
0.415
0.425
0.445
0.43
0.42
0.41
0.37
0.37
0.345
0.35
0.31
0.295
0.295
0.29
0.22
0.17
0.11
0.17
0.13
0.09
0.12
0.095
0.05
0.075
0.07
0.025
0.015
0.0
-0.055
-0.035
-0.02
-0.08
-0.015
-0.03
-0.035
-0.05
-0.065
-0.055
-0.05
-0.115
-0.085
-0.095
-0.065
-0.06
-0.05
-0.045
-0.035
-0.04
-0.08
-0.055
-0.055
-0.08
-0.07
-0.07
-0.1
-0.1
-0.06
-0.065
-0.1
-0.145
-0.09
-0.045
-0.055
-0.035
-0.055
-0.135
-0.075
-0.045
-0.09
-0.08
-0.065
-0.065
-0.09
-0.08
-0.085
-0.08
-0.075
-0.065
-0.085
-0.045
-0.06
-0.1
-0.09
-0.055
-0.1
-0.105
-0.08
-0.065
-0.09
-0.04
-0.06
-0.06
-0.055
-0.075
-0.075
-0.095
-0.045
-0.055
-0.105
-0.115
-0.045
-0.11
-0.075
-0.02
-0.03
-0.06
-0.09
-0.105
-0.08
-0.065
-0.07
-0.085
-0.07
-0.12
-0.11
-0.12
-0.05
-0.045
-0.08
-0.035
-0.045
-0.1
-0.1
-0.065
-0.12
-0.1
-0.075
-0.085
-0.06
-0.09
-0.11
-0.075
-0.085
-0.065
-0.03
-0.05
-0.11
-0.105
-0.075
-0.05
-0.095
-0.145
-0.075
-0.045
-0.085
-0.14
-0.075
-0.06
-0.075
-0.03
-0.04
-0.085
-0.075
-0.065
-0.09
-0.14
-0.1
-0.1
-0.135
-0.055
-0.08
-0.1
-0.115
-0.115
-0.1
-0.025
-0.015
-0.095
-0.1
-0.105
-0.095
-0.1
-0.1
-0.08
-0.105
-0.1
-0.105
-0.115
-0.11
-0.07
-0.055
-0.08
-0.075
-0.11
-0.135
-0.105
-0.035
-0.07
-0.13
-0.135
-0.075
-0.08
-0.105
-0.07
-0.05
-0.095
-0.09
-0.13
-0.145
-0.085
-0.085
-0.125
-0.12
-0.08
-0.08
-0.115
-0.105
-0.14
-0.145
-0.045
-0.055
-0.06
-0.09
-0.125
-0.12
-0.1
-0.09
-0.13
-0.1
-0.045
-0.09
-0.125
-0.14
-0.09
-0.065
-0.03
-0.095
-0.155
-0.11
-0.05
-0.075
-0.105
-0.085
-0.08
-0.085
-0.06
-0.11
-0.14
-0.075
-0.105
-0.11
-0.08
-0.095
-0.09
-0.075
-0.11
-0.09
-0.085
-0.07
-0.095
-0.12
-0.085
-0.06
-0.08
-0.08
-0.085
-0.055
-0.085
-0.11
-0.105
-0.125
-0.075
-0.035
-0.03
-0.07
-0.085
-0.035
-0.08
-0.055
-0.06
-0.11
-0.045
-0.065
-0.08
-0.045
-0.035
-0.065
-0.065
-0.04
0.01
-0.01
0.0
0.005
-0.005
-0.06
-0.02
-0.035
-0.04
-0.005
-0.04
-0.05
-0.05
-0.035
-0.045
-0.04
-0.025
-0.03
-0.065
-0.045
-0.04
-0.03
-0.025
-0.015
-0.075
-0.125
-0.07
-0.045
-0.115
-0.08
-0.085
-0.1
-0.105
-0.095
-0.065
-0.185
-0.18
-0.115
-0.135
-0.06
-0.05
-0.11
-0.14
-0.08
-0.06
-0.11
-0.135
-0.145
-0.135
-0.095
-0.1
-0.14
-0.165
-0.19
-0.23
-0.245
-0.265
-0.255
-0.295
-0.275
-0.125
-0.04
0.08
0.215
0.3
0.38
0.545
0.655
0.79
1.045
1.205
1.365
1.515
1.575
1.56
1.47
1.355
1.13
0.825
0.505
0.225
-0.01
-0.135
-0.16
-0.16
-0.125
-0.07
-0.15
-0.1
-0.11
-0.135
-0.14
-0.095
-0.075
-0.07
-0.09
-0.09
-0.07
-0.105
-0.075
-0.065
-0.09
-0.045
-0.055
-0.115
-0.075
-0.055
-0.09
-0.12
-0.05
-0.06
-0.08
-0.045
-0.07
-0.035
-0.03
-0.075
-0.05
-0.005
-0.01
-0.055
-0.075
-0.04
0.015
-0.07
-0.045
-0.035
-0.035
-0.05
-0.035
-0.015
-0.03
0.0
-0.015
-0.015
0.01
0.0
-0.015
0.0
0.03
0.015
-0.02
0.005
0.08
0.11
0.075
0.035
0.005
0.07
0.175
0.13
0.095
0.055
0.065
0.115
0.135
0.1
0.04
0.13
0.1
0.14
0.185
0.235
0.21
0.225
0.18
0.235
0.255
0.26
0.285
0.275
0.29
0.27
0.25
0.255
0.355
0.365
0.37
0.405
0.365
0.375
0.36
0.39
0.44
0.44
0.445
0.45
0.48
0.49
0.465
0.41
0.425
0.445
0.445
0.43
0.41
0.395
0.37
0.39
0.39
0.345
0.29
0.315
0.285
0.27
0.24
0.195
0.15
0.155
0.165
0.08
0.08
0.15
0.08
0.06
0.035
0.03
0.015
0.01
-0.015
-0.06
-0.055
-0.04
-0.09
0.01
-0.02
-0.015
-0.065
-0.03
-0.04
-0.08
-0.075
-0.045
-0.1
-0.105
-0.1
-0.08
-0.08
-0.025
-0.04
-0.085
-0.1
-0.095
-0.07
-0.085
-0.09
-0.05
-0.055
-0.065
-0.055
-0.04
-0.05
-0.055
-0.105
-0.08
-0.1
-0.085
-0.065
-0.055
-0.035
-0.085
-0.085
-0.07
-0.13
-0.125
-0.09
-0.055
-0.12
-0.065
-0.075
-0.075
-0.09
-0.11
-0.105
-0.06
-0.065
-0.075
-0.05
-0.03
-0.05
-0.09
-0.075
-0.08
-0.095
-0.045
-0.055
-0.06
-0.065
-0.165
-0.08
-0.015
-0.045
-0.075
-0.07
-0.02
-0.05
-0.07
-0.09
-0.05
-0.06
-0.07
-0.075
-0.045
-0.065
-0.05
-0.04
-0.04
-0.065
-0.04
-0.05
-0.07
-0.08
-0.09
-0.1
-0.08
-0.04
-0.015
-0.1
-0.075
-0.055
-0.085
-0.04
-0.005
-0.1
-0.09
-0.055
-0.08
-0.055
-0.025
-0.03
-0.015
-0.055
-0.1
-0.165
-0.1
-0.08
-0.085
-0.04
-0.045
-0.1
-0.05
-0.075
-0.065
-0.085
-0.06
-0.05
-0.06
-0.07
-0.085
-0.045
-0.075
-0.095
-0.075
-0.085
-0.09
-0.075
-0.075
-0.07
-0.025
-0.075
-0.025
-0.105
-0.09
-0.075
-0.105
-0.125
-0.11
-0.105
-0.085
-0.105
-0.11
-0.07
-0.05
-0.06
-0.07
-0.05
-0.06
-0.065
-0.045
-0.085
-0.085
-0.095
-0.11
-0.085
-0.07
-0.15
-0.13
-0.035
-0.03
-0.08
-0.105
-0.065
-0.08
-0.025
-0.08
-0.115
-0.105
-0.07
-0.085
-0.125
-0.08
-0.04
-0.12
-0.11
-0.125
-0.125
-0.08
-0.06
-0.09
-0.08
-0.09
-0.07
-0.1
-0.08
-0.085
-0.07
-0.105
-0.11
-0.12
-0.11
-0.08
-0.065
-0.13
-0.115
-0.105
-0.035
-0.085
-0.095
-0.065
-0.07
-0.07
-0.04
-0.05
-0.015
-0.02
-0.09
-0.085
-0.05
-0.025
-0.005
-0.02
-0.035
-0.055
-0.055
-0.04
-0.06
-0.06
-0.035
0.015
-0.055
-0.09
-0.045
-0.035
-0.03
-0.035
-0.04
-0.05
-0.045
-0.075
-0.06
-0.07
-0.08
-0.08
-0.11
-0.09
-0.08
-0.105
-0.125
-0.085
-0.1
-0.12
-0.14
-0.13
-0.115
-0.145
-0.155
-0.155
-0.115
-0.09
-0.14
-0.125
-0.105
-0.085
-0.095
-0.09
-0.09
-0.135
-0.135
-0.15
-0.16
-0.18
-0.21
-0.25
-0.235
-0.24
-0.26
-0.265
-0.245
-0.11
0.03
0.13
0.185
0.28
0.47
0.625
0.73
0.87
1.0
1.175
1.375
1.455
1.505
1.54
1.465
1.29
1.095
0.865
0.47
0.225
0.025
-0.04
-0.1
-0.115
-0.14
-0.11
-0.14
-0.155
-0.07
-0.075
-0.08
-0.085
-0.125
-0.11
-0.05
-0.06
-0.125
-0.095
-0.065
-0.065
-0.06
-0.09
-0.09
-0.07
-0.055
-0.08
-0.11
-0.075
-0.065
-0.04
-0.055
-0.075
-0.085
-0.06
-0.045
-0.085
-0.075
-0.05
-0.05
-0.075
-0.05
-0.055
-0.06
-0.02
0.005
0.0
-0.005
-0.02
-0.02
-0.015
-0.035
-0.08
-0.025
0.025
0.005
-0.02
-0.005
0.035
0.015
-0.01
0.05
0.06
-0.03
-0.025
0.015
0.025
0.075
0.09
0.035
0.065
0.08
0.065
0.06
0.055
0.105
0.085
0.14
0.19
0.185
0.165
0.12
0.17
0.15
0.155
0.18
0.185
0.22
0.265
0.26
0.265
0.265
0.25
0.265
0.35
0.375
0.345
0.325
0.315
0.335
0.35
0.395
0.405
0.435
0.39
0.375
0.365
0.415
0.47
0.41
0.395
0.4
0.405
0.395
0.345
0.38
0.375
0.375
0.37
0.36
0.28
0.25
0.22
0.245
0.23
0.195
0.17
0.19
0.145
0.11
0.08
0.05
0.055
0.035
0.05
0.01
0.01
0.03
0.09
0.035
-0.03
-0.015
-0.025
-0.065
-0.09
-0.09
-0.03
0.0
-0.06
-0.055
-0.055
-0.08
-0.065
-0.07
-0.045
-0.045
-0.095
-0.055
-0.05
-0.08
-0.095
-0.07
-0.095
-0.05
-0.035
-0.055
-0.095
-0.1
-0.075
-0.035
-0.01
-0.05
-0.075
-0.055
-0.065
-0.065
-0.075
-0.05
-0.045
-0.06
-0.105
-0.095
-0.055
0.03
-0.025
-0.09
-0.105
-0.01
-0.055
-0.08
-0.07
-0.075
-0.09
-0.065
-0.085
-0.075
-0.095
-0.04
-0.035
-0.055
-0.065
-0.065
-0.06
-0.02
-0.02
-0.055
-0.065
-0.065
-0.07
-0.085
-0.065
-0.065
-0.06
-0.08
-0.06
-0.055
-0.045
-0.045
-0.06
-0.075
-0.06
-0.035
-0.03
-0.05
-0.08
-0.055
-0.045
-0.03
-0.03
-0.075
-0.105
-0.085
-0.055
-0.02
-0.03
-0.04
-0.04
-0.035
-0.025
-0.045
-0.02
-0.04
-0.09
-0.06
-0.065
-0.075
-0.06
-0.05
-0.045
-0.05
-0.065
-0.045
-0.075
-0.015
-0.065
-0.095
-0.075
-0.065
-0.045
-0.035
-0.045
-0.08
-0.06
-0.03
-0.005
-0.095
-0.06
-0.045
-0.06
-0.06
-0.005
-0.04
-0.08
-0.085
-0.08
-0.045
-0.005
-0.04
-0.08
-0.09
-0.055
-0.065
-0.1
-0.05
-0.02
-0.03
-0.05
-0.08
-0.065
-0.08
-0.065
-0.025
-0.06
-0.08
-0.07
-0.045
-0.065
-0.04
-0.045
-0.08
-0.025
-0.025
-0.065
-0.045
-0.06
-0.04
-0.06
-0.02
-0.04
-0.05
-0.055
-0.065
-0.085
-0.08
-0.065
-0.06
-0.065
-0.04
-0.085
-0.115
-0.065
-0.045
-0.02
-0.02
-0.105
-0.075
-0.02
-0.05
-0.04
-0.065
-0.05
-0.06
-0.075
-0.07
-0.065
-0.05
-0.05
-0.055
-0.055
-0.06
-0.045
-0.06
-0.04
-0.06
-0.08
-0.035
-0.05
-0.06
-0.045
-0.025
-0.03
-0.05
-0.045
-0.06
-0.085
-0.035
-0.035
-0.02
-0.045
-0.035
-0.02
-0.07
-0.03
-0.035
-0.035
0.03
0.04
0.02
0.045
-0.01
-0.025
-0.015
0.01
0.015
0.03
0.02
0.01
-0.005
0.0
0.0
-0.01
-0.02
-0.025
-0.005
-0.045
-0.02
-0.005
-0.03
-0.03
-0.015
-0.005
0.02
0.0
-0.01
-0.045
-0.08
-0.08
-0.075
-0.1
-0.085
-0.075
-0.055
-0.04
-0.04
-0.07
-0.085
-0.085
-0.115
-0.08
-0.04
-0.07
-0.06
-0.065
-0.065
-0.08
-0.08
-0.055
-0.02
-0.08
-0.15
-0.13
-0.085
-0.165
-0.21
-0.185
-0.225
-0.27
-0.26
-0.18
-0.07
-0.005
0.125
0.23
0.4
0.465
0.62
0.815
0.96
1.09
1.245
1.37
1.515
1.61
1.585
1.515
1.405
1.205
0.97
0.54
0.3
0.135
0.015
-0.03
-0.045
-0.05
-0.08
-0.025
-0.025
-0.06
-0.05
-0.05
-0.065
-0.05
-0.035
-0.03
-0.02
0.005
-0.02
-0.01
-0.05
-0.045
-0.025
-0.03
-0.015
-0.015
0.01
-0.005
-0.03
-0.01
0.025
0.005
-0.005
-0.015
-0.01
-0.01
-0.01
0.035
-0.005
-0.005
0.0
-0.005
0.015
0.005
0.0
-0.015
0.05
0.075
0.075
0.03
-0.02
-0.01
0.065
0.085
0.05
0.04
0.055
0.085
0.11
0.06
0.055
0.075
0.08
0.075
0.065
0.095
0.12
0.115
0.15
0.125
0.06
0.065
0.135
0.18
0.19
0.135
0.165
0.18
0.2
0.185
0.21
0.165
0.205
0.245
0.245
0.26
0.27
0.28
0.265
0.305
0.32
0.32
0.315
0.325
0.355
0.38
0.405
0.425
0.415
0.415
0.415
0.44
0.445
0.445
0.465
0.475
0.47
0.46
0.505
0.485
0.455
0.47
0.49
0.455
0.46
0.46
0.465
0.43
0.405
0.38
0.355
0.34
0.32
0.315
0.27
0.275
0.27
0.235
0.19
0.185
0.145
0.185
0.165
0.115
0.08
0.12
0.145
0.11
0.07
0.055
0.055
0.035
0.035
0.02
0.005
-0.005
0.02
0.01
0.02
0.07
0.03
-0.03
-0.005
-0.01
0.02
0.025
-0.015
-0.02
-0.025
0.015
0.025
0.04
0.015
0.0
0.02
-0.015
-0.015
-0.01
0.04
0.05
0.02
-0.01
-0.025
-0.015
-0.01
-0.01
0.025
0.015
0.035
0.055
0.01
-0.035
-0.025
0.01
0.0
0.025
0.04
0.045
0.005
0.005
-0.01
-0.015
-0.015
0.005
0.015
0.055
0.05
0.01
-0.035
0.0
-0.005
-0.005
-0.02
0.015
0.01
0.01
0.035
0.03
0.015
0.03
0.045
0.0
0.03
0.0
-0.005
0.01
0.02
0.0
0.005
0.01
-0.005
0.01
-0.01
0.005
0.005
0.015
0.0
0.015
0.015
0.015
0.005
0.005
0.01
0.005
0.015
0.035
0.015
0.0
0.02
0.02
-0.005
-0.055
-0.01
0.07
0.035
0.015
0.01
-0.035
0.01
0.025
-0.015
0.01
0.065
0.015
-0.02
0.045
0.015
0.01
0.01
0.015
0.02
-0.03
-0.035
0.035
0.08
0.04
-0.005
0.025
0.01
-0.005
0.015
0.01
0.005
0.025
0.035
0.02
-0.01
0.005
-0.005
-0.02
0.005
0.015
-0.005
-0.01
0.055
0.075
0.0
0.005
0.01
-0.04
-0.01
0.02
0.025
-0.015
0.04
0.06
0.02
0.0
-0.02
-0.045
-0.035
0.03
0.02
0.005
0.005
0.03
0.025
0.015
0.025
0.01
0.015
0.035
0.01
-0.01
0.025
0.0
0.02
0.02
0.005
0.015
0.0
0.05
0.015
-0.005
0.04
0.025
0.03
0.04
0.045
0.02
0.04
0.04
0.05
0.06
0.0
-0.015
0.015
0.03
0.025
0.005
0.055
0.045
0.025
0.025
0.035
0.0
0.05
0.04
0.01
-0.01
-0.015
-0.01
0.0
0.035
0.035
0.045
0.035
0.04
0.02
0.01
0.02
0.03
0.025
0.045
0.005
0.03
0.05
0.02
0.025
0.02
0.03
0.05
0.035
0.045
0.025
0.035
0.035
0.015
0.025
-0.03
0.02
0.04
0.005
0.045
0.015
-0.015
0.03
0.125
0.065
0.06
0.07
0.03
0.02
0.03
0.11
0.1
0.06
0.06
0.04
0.08
0.155
0.085
0.055
0.065
0.095
0.125
0.11
0.095
0.105
0.08
0.1
0.105
0.1
0.1
0.06
0.055
0.1
0.085
0.085
0.075
0.125
0.125
0.065
0.05
0.1
0.065
0.06
0.115
0.07
0.03
0.05
0.09
0.075
0.03
0.035
0.04
0.02
0.025
0.005
-0.015
0.06
0.04
0.005
0.04
0.04
0.025
0.005
-0.005
-0.02
0.015
0.035
0.03
0.02
0.03
0.035
0.045
0.025
0.015
-0.035
-0.035
-0.055
-0.095
-0.08
-0.09
-0.135
-0.145
-0.135
-0.135
-0.055
0.07
0.195
0.29
0.36
0.5
0.68
0.81
0.99
1.13
1.285
1.46
1.655
1.685
1.76
1.76
1.66
1.41
1.205
0.885
0.525
0.315
0.21
0.13
0.025
0.045
0.075
0.02
0.03
0.04
0.02
0.05
0.09
0.04
0.06
0.095
0.115
0.105
0.05
0.045
0.055
0.095
0.045
0.015
0.035
0.055
0.055
0.055
0.03
0.07
0.065
0.055
0.07
0.045
0.09
0.105
0.075
0.08
0.065
0.1
0.07
0.115
0.14
0.055
0.07
0.1
0.13
0.13
0.11
0.06
0.085
0.07
0.07
0.17
0.195
0.145
0.155
0.125
0.145
0.14
0.16
0.155
0.155
0.125
0.17
0.195
0.185
0.18
0.19
0.185
0.205
0.2
0.185
0.18
0.235
0.245
0.23
0.265
0.28
0.285
0.265
0.285
0.29
0.31
0.295
0.345
0.335
0.335
0.37
0.365
0.345
0.405
0.42
0.42
0.36
0.38
0.465
0.525
0.54
0.44
0.46
0.505
0.485
0.475
0.565
0.595
0.565
0.545
0.54
0.575
0.575
0.545
0.56
0.54
0.56
0.595
0.545
0.495
0.465
0.475
0.445
0.455
0.45
0.445
0.4
0.38
0.35
0.31
0.345
0.29
0.27
0.255
0.24
0.24
0.23
0.2
0.165
0.175
0.15
0.1
0.115
0.13
0.14
0.095
0.08
0.135
0.105
0.085
0.115
0.075
0.08
0.105
0.055
0.035
0.09
0.115
0.06
0.055
0.13
0.085
0.075
0.09
0.065
0.06
0.095
0.08
0.07
0.05
0.015
0.055
0.035
0.055
0.07
0.07
0.095
0.085
0.045
0.04
0.07
0.08
0.07
0.06
0.065
0.075
0.11
0.08
0.04
0.02
0.075
0.09
0.075
0.08
0.045
0.055
0.075
0.075
0.085
0.075
0.07
0.055
0.065
0.08
0.07
0.07
0.12
0.115
0.06
0.08
0.115
0.02
0.04
0.06
0.04
0.065
0.1
0.095
0.11
0.08
0.07
0.05
0.08
0.085
0.11
0.08
0.045
0.075
0.08
0.09
0.07
0.055
0.085
0.085
0.075
0.1
0.125
0.09
0.085
0.1
0.105
0.09
0.06
0.075
0.08
0.08
0.085
0.045
0.07
0.085
0.12
0.135
0.12
0.09
0.075
0.105
0.135
0.09
0.03
0.09
0.07
0.045
0.075
0.11
0.075
0.085
0.125
0.115
0.09
0.055
0.075
0.07
0.09
0.055
0.07
0.065
0.06
0.04
0.055
0.11
0.12
0.08
0.075
0.065
0.065
0.1
0.095
0.04
0.065
0.05
0.05
0.035
0.08
0.065
0.09
0.12
0.075
0.08
0.05
0.055
0.06
0.075
0.095
0.105
0.085
0.07
0.07
0.085
0.02
0.02
0.015
0.08
0.085
0.07
0.095
0.075
0.08
0.09
0.1
0.075
0.075
0.08
0.065
0.06
0.065
0.1
0.085
0.075
0.12
0.075
0.05
0.085
0.085
0.015
0.03
0.065
0.105
0.085
0.05
0.065
0.055
0.075
0.095
0.04
0.075
0.11
0.085
0.045
0.085
0.09
0.065
0.13
0.08
0.04
0.06
0.075
0.06
0.07
0.085
0.085
0.1
0.1
0.035
0.025
0.04
0.1
0.095
0.09
0.095
0.05
0.06
0.075
0.07
0.09
0.09
0.1
0.075
0.085
0.07
0.075
0.055
0.065
0.06
0.06
0.06
0.08
0.035
0.05
0.085
0.09
0.1
0.095
0.105
0.105
0.06
0.13
0.11
0.125
0.12
0.145
0.16
0.135
0.09
0.105
0.145
0.135
0.11
0.1
0.12
0.12
0.12
0.125
0.12
0.11
0.135
0.11
0.13
0.14
0.155
0.12
0.15
0.105
0.135
0.115
0.11
0.115
0.1
0.11
0.105
0.105
0.11
0.065
0.045
0.04
0.05
0.065
0.04
0.015
0.08
0.065
0.07
0.065
0.06
0.04
0.05
0.125
0.07
0.0
0.055
0.1
0.05
0.105
0.085
0.075
0.04
0.07
0.055
0.035
-0.045
-0.1
-0.06
-0.09
-0.105
-0.12
-0.11
-0.055
-0.005
0.165
0.305
0.34
0.455
0.615
0.765
0.95
1.13
1.28
1.445
1.625
1.75
1.82
1.815
1.775
1.62
1.42
1.14
0.765
0.5
0.31
0.17
0.12
0.095
0.075
0.095
0.115
0.07
0.065
0.045
0.055
0.125
0.105
0.105
0.115
0.07
0.1
0.115
0.09
0.115
0.135
0.145
0.06
0.09
0.12
0.12
0.1
0.125
0.145
0.1
0.08
0.095
0.11
0.12
0.125
0.125
0.13
0.125
0.115
0.115
0.175
0.18
0.17
0.145
0.18
0.185
0.19
0.165
0.16
0.105
0.175
0.195
0.17
0.2
0.195
0.2
0.195
0.21
0.185
0.18
0.155
0.205
0.23
0.235
0.215
0.215
0.275
0.225
0.2
0.24
0.27
0.245
0.265
0.27
0.3
0.305
0.295
0.3
0.305
0.33
0.33
0.325
0.33
0.365
0.4
0.365
0.39
0.435
0.425
0.395
0.43
0.41
0.5
0.485
0.49
0.49
0.52
0.525
0.495
0.545
0.545
0.57
0.595
0.58
0.58
0.58
0.595
0.6
0.605
0.595
0.575
0.595
0.595
0.58
0.585
0.565
0.56
0.575
0.55
0.475
0.47
0.465
0.445
0.455
0.405
0.34
0.34
0.35
0.3
0.275
0.275
0.255
0.24
0.215
0.21
0.195
0.215
0.225
0.145
0.13
0.155
0.135
0.14
0.115
0.09
0.115
0.165
0.145
0.115
0.105
0.115
0.105
0.095
0.11
0.1
0.1
0.11
0.11
0.11
0.14
0.16
0.11
0.08
0.11
0.07
0.07
0.11
0.1
0.065
0.08
0.065
0.08
0.08
0.1
0.1
0.125
0.15
0.115
0.06
0.08
0.13
0.06
0.05
0.085
0.085
0.1
0.13
0.04
0.09
0.15
0.135
0.09
0.105
0.045
0.07
0.095
0.14
0.125
0.13
0.095
0.05
0.045
0.1
0.095
0.1
0.085
0.08
0.08
0.09
0.115
0.1
0.065
0.085
0.09
0.1
0.06
0.11
0.12
0.15
0.12
0.055
0.06
0.055
0.06
0.09
0.115
0.105
0.07
0.06
0.085
0.08
0.09
0.065
0.075
0.095
0.095
0.085
0.045
0.06
0.13
0.1
0.085
0.105
0.04
0.065
0.155
0.095
0.035
0.075
0.085
0.07
0.09
0.085
0.09
0.1
0.105
0.15
0.115
0.05
0.055
0.075
0.055
0.085
0.085
0.07
0.105
0.125
0.085
0.065
0.065
0.03
0.035
0.065
0.075
0.06
0.07
0.055
0.075
0.065
0.06
0.035
-0.01
0.06
0.085
0.1
0.125
0.07
0.045
0.075
0.07
0.02
0.065
0.09
0.085
0.045
0.07
0.075
0.095
0.105
0.03
0.07
0.04
0.06
0.06
0.03
0.09
0.065
0.075
0.05
0.05
0.065
0.05
0.065
0.055
0.07
0.1
0.09
0.075
0.045
0.065
0.065
0.06
0.065
0.065
0.08
0.085
0.08
0.07
0.08
0.05
0.03
0.04
0.07
0.05
0.085
0.125
0.095
0.07
0.065
0.09
0.05
0.035
0.065
0.095
0.11
0.155
0.065
0.055
0.065
0.05
0.05
0.105
0.075
0.055
0.105
0.115
0.095
0.045
0.035
0.045
0.055
0.06
0.08
0.05
0.1
0.125
0.085
0.065
0.08
0.07
0.07
0.125
0.075
0.05
0.08
0.085
0.065
0.07
0.065
0.09
0.08
0.1
0.06
0.035
0.065
0.1
0.125
0.06
0.06
0.075
0.07
0.065
0.09
0.08
0.075
0.105
0.135
0.105
0.085
0.11
0.135
0.13
0.11
0.085
0.125
0.12
0.095
0.11
0.155
0.15
0.145
0.105
0.115
0.105
0.155
0.13
0.085
0.095
0.14
0.13
0.16
0.13
0.13
0.105
0.125
0.11
0.1
0.1
0.11
0.04
0.07
0.08
0.08
0.08
0.085
0.05
0.04
0.04
0.06
0.015
0.01
0.07
0.03
0.055
0.09
0.1
0.025
0.035
0.06
0.03
0.05
0.06
0.095
0.075
0.07
0.035
-0.04
-0.04
-0.055
-0.125
-0.085
-0.115
-0.14
-0.1
0.03
0.105
0.26
0.31
0.435
0.59
0.73
0.89
1.065
1.235
1.415
1.605
1.715
1.78
1.83
1.795
1.66
1.455
1.24
0.89
0.58
0.365
0.225
0.11
0.105
0.055
0.06
0.07
0.035
0.045
0.09
0.085
0.105
0.14
0.13
0.065
0.115
0.115
0.08
0.1
0.1
0.1
0.095
0.105
0.09
0.015
0.09
0.15
0.05
0.115
0.145
0.1
0.08
0.115
0.115
0.095
0.115
0.085
0.07
0.1
0.135
0.145
0.13
0.145
0.125
0.13
0.115
0.14
0.11
0.14
0.15
0.125
0.115
0.165
0.185
0.165
0.16
0.155
0.145
0.16
0.235
0.145
0.21
0.2
0.16
0.13
0.2
0.27
0.21
0.225
0.205
0.22
0.26
0.26
0.275
0.245
0.27
0.26
0.28
0.255
0.275
0.3
0.34
0.35
0.335
0.33
0.355
0.375
0.375
0.4
0.46
0.445
0.43
0.425
0.435
0.435
0.475
0.49
0.495
0.5
0.505
0.54
0.56
0.555
0.56
0.555
0.56
0.565
0.58
0.6
0.595
0.595
0.605
0.605
0.57
0.57
0.545
0.535
0.54
0.505
0.505
0.485
0.43
0.445
0.42
0.37
0.325
0.335
0.325
0.3
0.275
0.24
0.27
0.23
0.215
0.22
0.185
0.155
0.15
0.155
0.17
0.155
0.165
0.16
0.095
0.08
0.13
0.165
0.13
0.135
0.095
0.05
0.095
0.095
0.06
0.08
0.075
0.07
0.12
0.1
0.115
0.095
0.055
0.015
0.055
0.075
0.065
0.06
0.065
0.095
0.115
0.12
0.09
0.05
0.04
0.08
0.08
0.08
0.085
0.12
0.09
0.08
0.065
0.075
0.07
0.07
0.09
0.09
0.08
0.105
0.095
0.045
0.055
0.065
0.075
0.095
0.09
0.085
0.085
0.07
0.065
0.07
0.09
0.08
0.09
0.11
0.07
0.03
0.085
0.08
0.07
0.085
0.105
0.05
0.035
0.085
0.09
0.075
0.05
0.07
0.08
0.08
0.065
0.065
0.065
0.09
0.09
0.09
0.08
0.1
0.065
0.05
0.04
0.07
0.08
0.05
0.065
0.06
0.085
0.09
0.075
0.1
0.11
0.125
0.04
0.03
0.04
0.03
0.065
0.09
0.065
0.095
0.1
0.035
0.005
0.08
0.065
0.06
0.08
0.1
0.065
0.05
0.05
0.045
0.05
0.085
0.04
0.05
0.075
0.09
0.045
0.055
0.065
0.05
0.06
0.055
0.05
0.06
0.065
0.06
0.02
0.025
0.005
0.005
0.1
0.095
0.075
0.08
0.085
0.045
0.055
0.045
0.0
-0.005
0.05
0.045
0.02
0.06
0.08
0.06
0.065
0.035
0.05
0.035
0.04
0.055
0.05
0.07
0.07
0.04
0.04
0.055
0.06
0.03
0.025
0.045
0.025
0.035
0.07
0.045
0.065
0.055
0.055
0.04
0.055
0.085
0.07
0.065
0.035
0.05
0.05
0.06
0.08
0.05
0.045
0.025
0.005
0.05
0.05
0.075
0.03
0.075
0.085
0.06
0.055
0.025
0.015
0.065
0.06
0.075
0.075
0.055
0.08
0.015
0.05
0.085
0.08
0.05
0.08
0.07
0.05
0.045
0.04
0.07
0.075
0.055
0.035
-0.02
0.09
0.085
0.04
0.045
0.05
0.03
0.035
0.03
0.06
0.05
0.09
0.05
0.07
0.07
0.045
0.05
0.03
0.04
0.045
0.09
0.065
0.08
0.05
0.075
0.08
0.04
0.025
0.09
0.055
0.07
0.105
0.13
0.12
0.135
0.125
0.12
0.065
0.055
0.085
0.115
0.12
0.08
0.075
0.08
0.095
0.125
0.1
0.055
0.07
0.095
0.12
0.125
0.11
0.06
0.105
0.11
0.08
0.035
0.035
0.055
0.065
0.06
0.035
0.035
0.0
0.005
0.03
0.06
0.075
0.045
0.07
0.05
0.035
0.02
0.025
0.04
0.075
0.02
0.0
0.05
0.015
0.04
0.035
0.02
0.02
0.005
-0.035
-0.075
-0.105
-0.115
-0.12
-0.17
-0.19
-0.13
-0.015
0.11
0.24
0.32
0.42
0.61
0.73
0.86
1.005
1.215
1.35
1.535
1.69
1.79
1.885
1.82
1.655
1.44
1.225
0.88
0.55
0.295
0.195
0.11
0.09
0.065
0.035
0.015
0.015
0.04
0.045
0.095
0.105
0.12
0.095
0.075
0.09
0.075
0.07
0.05
0.04
0.04
0.095
0.09
0.12
0.085
0.065
0.045
0.095
0.06
0.045
0.075
0.065
0.1
0.105
0.095
0.07
0.1
0.09
0.09
0.095
0.11
0.1
0.11
0.09
0.105
0.095
0.09
0.115
0.17
0.165
0.13
0.14
0.14
0.12
0.135
0.125
0.145
0.12
0.15
0.155
0.18
0.195
0.15
0.15
0.2
0.2
0.185
0.17
0.21
0.18
0.205
0.23
0.215
0.24
0.26
0.245
0.245
0.285
0.255
0.265
0.29
0.29
0.29
0.335
0.325
0.31
0.315
0.325
0.395
0.38
0.34
0.405
0.39
0.455
0.475
0.46
0.415
0.485
0.54
0.555
0.57
0.535
0.515
0.56
0.525
0.485
0.535
0.59
0.605
0.575
0.575
0.565
0.56
0.565
0.575
0.52
0.5
0.52
0.48
0.46
0.43
0.42
0.39
0.4
0.375
0.335
0.32
0.27
0.31
0.265
0.22
0.225
0.22
0.185
0.185
0.16
0.115
0.135
0.105
0.09
0.15
0.125
0.115
0.13
0.115
0.07
0.1
0.1
0.095
0.065
0.06
0.035
0.09
0.065
0.075
0.065
0.075
0.045
0.05
0.06
0.075
0.06
0.015
0.03
0.07
0.06
0.085
0.095
0.015
0.055
0.05
0.06
0.04
0.085
0.09
0.055
0.045
0.045
0.04
0.05
0.04
0.05
0.025
0.06
0.07
0.075
0.065
0.065
0.045
0.07
0.04
0.03
0.1
0.1
0.065
0.05
0.045
0.04
0.05
0.05
0.075
0.09
-0.005
0.045
0.02
0.07
0.045
0.01
0.06
0.04
0.06
0.05
0.04
0.06
0.075
0.055
0.025
0.02
0.025
0.065
0.06
0.04
0.055
0.065
0.05
0.06
0.05
0.01
0.0
0.045
0.07
0.055
0.075
0.045
0.03
0.0
0.015
0.015
0.045
0.07
0.04
0.04
0.06
0.025
0.0
0.015
0.04
-0.005
0.055
0.075
0.0
0.03
0.115
0.065
0.045
0.05
0.06
0.005
-0.005
0.04
0.03
0.02
0.04
0.05
0.005
0.035
0.06
0.055
0.0
-0.05
-0.015
0.045
0.075
0.05
0.045
-0.005
0.045
0.04
0.01
0.05
0.03
0.02
0.06
0.0
-0.01
0.06
0.08
0.04
0.05
-0.01
0.0
-0.025
0.02
-0.05
-0.07
0.005
0.02
0.065
0.055
0.03
0.035
0.04
0.035
0.045
0.03
0.06
0.015
-0.01
-0.005
0.055
0.02
0.015
0.015
0.005
0.025
-0.005
-0.045
-0.025
-0.02
0.04
-0.02
0.075
0.08
0.03
0.005
0.02
0.035
0.025
0.04
0.04
0.03
0.005
0.04
0.03
0.05
0.015
0.025
0.0
0.005
-0.005
0.04
0.04
0.04
0.025
0.05
0.025
0.06
0.03
0.04
0.065
0.015
0.05
0.04
-0.015
-0.03
-0.015
0.05
0.05
0.03
0.035
0.05
0.04
0.08
0.025
0.015
0.04
0.06
0.045
0.035
0.025
0.035
0.025
0.04
0.07
0.07
0.04
0.055
0.06
0.085
0.1
0.1
0.03
0.035
0.045
0.08
0.11
0.045
0.065
0.055
0.035
0.065
0.07
0.08
0.08
0.065
0.05
0.03
0.07
0.1
0.085
0.015
0.095
0.04
0.035
0.03
0.03
-0.03
-0.025
0.03
0.02
0.005
0.04
0.015
-0.005
0.0
0.005
-0.005
0.035
0.02
0.055
-0.03
-0.03
0.015
-0.02
-0.025
0.005
0.005
-0.005
0.015
-0.035
-0.04
-0.02
-0.02
-0.095
-0.09
-0.12
-0.165
-0.175
-0.205
-0.17
-0.06
0.045
0.16
0.25
0.335
0.45
0.59
0.755
0.885
1.04
1.225
1.45
1.595
1.7
1.67
1.66
1.53
1.315
1.07
0.685
0.345
0.205
0.065
0.0
-0.03
-0.02
-0.05
-0.05
-0.05
-0.05
-0.045
0.015
0.015
0.095
0.1
0.055
0.005
0.05
0.06
-0.035
0.005
0.05
0.03
0.045
0.05
0.005
0.03
0.05
0.02
0.0
0.02
0.055
0.01
0.05
0.025
0.045
0.055
0.08
0.075
0.07
0.065
0.02
0.035
0.125
0.045
0.0
0.065
0.085
0.075
0.095
0.1
0.07
0.125
0.13
0.105
0.075
0.07
0.08
0.075
0.09
0.125
0.165
0.105
0.12
0.14
0.125
0.13
0.15
0.135
0.155
0.19
0.19
0.22
0.19
0.195
0.145
0.17
0.21
0.265
0.285
0.265
0.29
0.285
0.24
0.29
0.315
0.305
0.295
0.28
0.35
0.385
0.405
0.34
0.385
0.41
0.415
0.405
0.425
0.46
0.475
0.54
0.485
0.51
0.49
0.495
0.5
0.52
0.53
0.51
0.52
0.52
0.52
0.535
0.51
0.505
0.5
0.495
0.505
0.46
0.39
0.425
0.345
0.355
0.37
0.355
0.31
0.2
0.235
0.23
0.205
0.225
0.22
0.16
0.16
0.185
0.135
0.05
0.115
0.07
0.08
0.065
0.04
0.04
0.015
0.03
0.005
0.04
0.015
0.04
0.015
0.03
0.045
-0.03
0.005
-0.005
-0.025
-0.02
-0.015
-0.05
0.0
0.035
0.005
-0.025
0.0
-0.01
0.005
-0.03
-0.02
-0.035
-0.02
-0.025
0.015
0.03
-0.025
-0.08
-0.08
-0.01
0.065
0.01
0.01
0.005
-0.025
-0.005
-0.005
-0.015
-0.04
-0.015
-0.05
-0.05
-0.005
0.02
0.005
-0.085
-0.035
0.01
-0.04
-0.03
0.0
-0.015
-0.02
0.0
0.01
-0.005
-0.04
-0.04
0.005
-0.005
-0.025
-0.005
-0.03
-0.05
-0.025
-0.01
-0.025
-0.02
-0.07
-0.02
-0.01
-0.025
-0.02
-0.01
0.01
0.02
0.025
-0.03
-0.055
-0.045
-0.045
-0.045
-0.02
-0.015
-0.055
-0.075
0.01
0.005
-0.01
0.01
0.015
-0.05
-0.015
0.0
-0.01
-0.035
-0.025
-0.065
-0.05
-0.03
-0.04
-0.055
-0.005
0.0
-0.01
-0.01
-0.035
-0.06
-0.045
-0.05
-0.025
-0.02
-0.045
-0.04
-0.03
-0.005
0.03
-0.02
0.02
-0.02
-0.06
-0.09
-0.07
-0.03
-0.06
-0.105
-0.085
-0.045
-0.02
-0.05
-0.055
0.025
0.05
-0.05
-0.045
-0.04
-0.045
-0.01
-0.03
-0.03
-0.04
-0.035
0.015
-0.01
-0.02
-0.04
-0.05
-0.045
-0.03
-0.05
-0.065
-0.035
-0.005
-0.04
-0.04
-0.05
-0.065
-0.03
0.025
-0.035
-0.075
-0.055
-0.005
-0.02
-0.08
-0.06
-0.03
-0.055
-0.01
-0.055
-0.01
-0.005
-0.045
-0.035
-0.02
-0.045
-0.06
-0.065
-0.045
-0.08
-0.06
-0.01
0.01
0.01
-0.05
-0.09
-0.045
-0.01
-0.03
-0.045
-0.02
-0.025
-0.02
-0.02
-0.015
-0.035
-0.035
-0.04
-0.015
0.005
-0.04
-0.04
-0.1
-0.045
-0.055
-0.04
-0.005
-0.03
-0.025
0.01
0.025
-0.025
-0.03
-0.03
-0.03
-0.03
-0.02
-0.01
0.02
-0.02
0.03
0.065
0.025
0.03
0.045
-0.01
-0.035
-0.025
0.025
0.04
-0.03
-0.02
-0.005
-0.02
0.035
0.01
0.005
0.01
-0.01
0.0
0.0
-0.015
-0.035
-0.055
-0.045
-0.025
-0.065
-0.04
0.0
-0.005
-0.035
-0.035
-0.05
-0.07
-0.075
-0.065
-0.065
-0.07
-0.125
-0.095
-0.07
-0.03
-0.065
-0.035
-0.05
-0.025
-0.05
-0.05
-0.055
-0.095
-0.11
-0.135
-0.14
-0.15
-0.225
-0.22
-0.26
-0.225
-0.12
-0.035
0.07
0.205
0.275
0.41
0.585
0.71
0.755
0.945
1.105
1.28
1.49
1.58
1.645
1.59
1.525
1.34
1.08
0.83
0.49
0.25
0.11
-0.045
-0.045
-0.06
-0.065
-0.055
-0.055
-0.08
-0.04
-0.035
-0.005
0.02
0.005
-0.01
-0.01
-0.015
-0.025
-0.005
0.005
-0.03
0.0
0.01
-0.045
0.015
-0.01
-0.055
-0.04
0.0
-0.01
-0.01
0.005
0.02
-0.045
-0.025
0.0
0.015
0.01
0.005
-0.005
-0.005
0.01
0.04
0.01
0.015
0.08
0.045
0.0
0.015
0.02
0.02
0.045
0.04
0.02
0.05
0.08
0.095
0.035
0.055
0.09
0.055
0.03
0.08
0.11
0.1
0.115
0.105
0.145
0.15
0.105
0.14
0.145
0.125
0.125
0.16
0.185
0.19
0.165
0.165
0.205
0.185
0.235
0.215
0.2
0.24
0.29
0.245
0.28
0.29
0.29
0.345
0.34
0.335
0.34
0.365
0.385
0.37
0.375
0.42
0.43
0.445
0.475
0.48
0.46
0.48
0.465
0.415
0.39
0.5
0.515
0.49
0.465
0.485
0.48
0.445
0.43
0.43
0.41
0.42
0.465
0.38
0.33
0.355
0.31
0.29
0.235
0.19
0.22
0.205
0.14
0.165
0.19
0.155
0.13
0.125
0.125
0.08
0.055
0.035
0.04
0.045
0.02
0.04
0.055
0.02
0.025
0.01
-0.02
0.02
0.0
0.015
0.015
-0.025
-0.07
-0.005
0.035
0.005
-0.025
0.01
0.0
-0.07
0.005
0.035
-0.02
0.005
0.02
-0.03
0.01
-0.015
-0.03
-0.01
-0.01
0.035
0.07
0.02
-0.005
-0.03
-0.015
0.01
-0.015
0.02
0.05
0.01
0.005
0.005
0.005
-0.02
-0.03
-0.045
-0.045
-0.005
0.01
0.06
-0.01
0.005
-0.02
0.0
0.005
0.025
0.02
0.015
0.02
0.005
0.02
0.015
0.01
-0.06
-0.015
-0.01
0.01
0.055
0.03
0.005
0.0
-0.025
0.015
-0.025
-0.015
-0.015
-0.015
0.02
0.065
0.025
0.01
0.025
0.01
-0.005
0.005
0.02
0.02
0.04
-0.02
0.0
0.04
0.0
0.005
-0.005
0.01
0.02
0.045
0.06
0.02
0.0
-0.005
0.0
-0.02
0.015
0.045
0.03
-0.02
0.02
-0.015
0.005
0.01
-0.005
-0.04
0.005
0.05
-0.005
0.01
0.05
0.015
0.025
-0.015
-0.035
-0.025
-0.02
0.03
0.05
0.005
0.02
0.025
0.015
0.005
-0.005
-0.01
-0.04
-0.015
0.005
0.01
0.05
0.005
-0.01
0.02
0.0
-0.015
-0.015
-0.015
0.01
-0.035
0.0
0.025
-0.015
0.0
-0.015
-0.025
0.015
0.03
0.075
0.05
-0.01
-0.035
-0.02
-0.01
-0.02
0.005
-0.01
-0.01
-0.03
-0.015
0.045
-0.005
-0.035
-0.045
-0.02
-0.025
-0.015
0.045
-0.02
-0.02
0.06
0.06
0.0
0.025
0.0
-0.045
-0.02
0.0
0.0
-0.015
-0.015
-0.03
0.01
0.025
0.02
-0.01
-0.015
-0.055
-0.03
-0.01
0.035
0.02
-0.015
0.01
0.04
0.02
0.01
-0.04
-0.02
-0.005
0.02
0.01
-0.015
0.0
-0.015
-0.025
-0.005
0.0
-0.005
0.02
0.01
0.02
0.01
0.01
0.0
0.0
0.035
0.005
-0.035
-0.03
0.01
0.04
0.02
0.015
0.01
-0.02
0.0
0.015
-0.025
-0.005
0.025
0.025
0.01
0.025
0.045
0.02
0.04
0.08
0.02
0.065
0.055
0.065
0.07
0.045
0.065
0.03
0.03
0.03
0.035
0.025
0.045
-0.025
-0.03
0.005
0.025
0.005
0.045
0.095
0.04
0.025
0.07
0.07
0.035
0.03
0.02
0.015
-0.02
0.015
0.005
0.01
-0.015
0.005
-0.005
-0.02
-0.02
0.02
0.015
0.01
-0.02
-0.02
-0.04
-0.02
-0.015
0.0
-0.035
-0.055
0.0
-0.01
-0.015
-0.02
0.0
-0.015
-0.06
-0.055
-0.115
-0.12
-0.125
-0.17
-0.23
-0.22
-0.18
-0.165
-0.065
0.06
0.195
0.36
0.44
0.555
0.715
0.835
1.025
1.145
1.36
1.52
1.595
1.63
1.69
1.57
1.405
1.22
0.995
0.61
0.355
0.17
0.075
0.015
-0.02
-0.025
0.0
0.01
0.005
-0.025
0.01
0.02
0.04
0.015
-0.01
0.005
0.035
0.055
0.035
0.01
0.01
0.025
0.025
0.015
-0.015
-0.01
0.025
0.01
0.05
0.06
0.02
0.025
-0.01
-0.005
0.03
0.05
0.04
0.055
0.085
0.05
0.055
0.065
0.035
0.03
0.075
0.085
0.07
0.095
0.075
0.08
0.07
0.075
0.09
0.095
0.085
0.08
0.075
0.1
0.15
0.16
0.11
0.125
0.085
0.095
0.14
0.125
0.08
0.13
0.145
0.175
0.19
0.18
0.17
0.205
0.185
0.21
0.215
0.235
0.245
0.25
0.24
0.215
0.225
0.265
0.255
0.245
0.3
0.29
0.32
0.345
0.34
0.36
0.385
0.345
0.405
0.395
0.405
0.44
0.405
0.455
0.455
0.45
0.49
0.48
0.495
0.5
0.525
0.525
0.47
0.515
0.48
0.475
0.53
0.525
0.48
0.49
0.49
0.49
0.49
0.435
0.405
0.37
0.38
0.415
0.33
0.31
0.285
0.26
0.235
0.225
0.2
0.18
0.17
0.155
0.165
0.165
0.13
0.13
0.13
0.085
0.07
0.065
0.05
0.08
0.035
0.02
0.09
0.025
0.06
0.045
0.045
0.0
0.06
0.03
-0.01
0.0
0.02
0.06
0.015
0.02
0.015
0.025
0.015
-0.005
0.02
0.0
0.095
0.04
0.015
0.02
0.005
0.005
0.0
0.02
0.005
0.01
0.02
0.045
0.03
0.03
0.06
0.01
0.035
0.035
0.01
0.01
0.015
0.025
-0.015
-0.015
-0.005
-0.015
0.04
0.03
0.035
0.04
0.02
0.02
0.04
0.04
0.0
-0.035
0.0
0.025
-0.015
0.03
0.03
0.025
0.025
0.01
0.0
0.015
0.015
0.01
0.025
0.02
0.0
-0.005
0.055
0.065
0.02
-0.015
0.05
0.035
-0.005
0.0
0.03
0.005
0.01
0.01
0.04
0.025
0.01
0.04
0.005
-0.025
0.005
0.03
0.02
-0.02
0.0
0.01
0.015
0.01
0.02
0.0
0.02
-0.005
-0.01
0.055
0.06
0.055
0.04
0.005
-0.03
0.025
0.0
-0.005
0.04
0.01
0.005
-0.01
0.02
0.005
0.0
0.04
0.01
-0.015
-0.02
0.01
-0.01
0.02
0.04
0.035
0.0
0.045
0.025
0.03
-0.005
-0.005
-0.015
0.03
0.02
-0.01
-0.025
-0.005
0.015
0.03
0.005
-0.01
-0.01
0.01
-0.005
-0.02
-0.06
0.005
0.025
0.015
-0.025
-0.005
0.025
0.045
0.04
0.01
-0.035
0.03
0.03
-0.02
0.01
0.005
-0.015
0.01
0.02
0.01
0.0
0.005
0.01
-0.015
0.005
-0.025
-0.06
0.0
0.035
0.035
0.035
0.04
0.01
0.005
0.01
0.015
-0.005
0.02
0.04
0.015
0.005
0.04
0.025
0.01
0.015
0.035
0.015
0.025
0.025
0.05
0.03
0.065
0.045
0.04
0.045
0.035
0.055
0.005
-0.05
-0.01
0.06
0.055
0.02
0.01
0.02
0.005
0.015
0.035
0.035
0.02
0.025
0.05
0.04
0.005
0.05
0.04
0.02
0.045
0.025
0.0
0.06
0.06
0.03
0.035
0.045
-0.01
0.015
0.01
0.06
0.045
0.02
0.035
0.025
0.01
0.035
0.035
0.025
0.055
0.025
0.055
0.11
0.065
0.035
0.045
0.06
0.025
0.035
0.055
0.055
0.06
0.075
0.09
0.07
0.08
0.125
0.1
0.075
0.09
0.105
0.055
0.07
0.09
0.065
0.09
0.1
0.065
0.04
0.05
0.055
0.045
0.07
0.07
0.065
0.075
0.09
0.065
0.05
0.04
0.05
0.04
0.155
0.135
0.08
0.045
0.045
0.045
0.01
0.01
-0.005
0.025
0.01
0.0
0.01
-0.01
0.0
0.02
0.02
0.02
-0.02
-0.025
0.035
0.01
0.02
0.05
0.02
-0.04
0.015
0.015
-0.045
0.0
-0.02
-0.055
-0.115
-0.09
-0.145
-0.205
-0.2
-0.165
-0.165
-0.045
0.135
0.265
0.305
0.395
0.555
0.715
0.885
1.045
1.125
1.36
1.52
1.7
1.775
1.78
1.7
1.55
1.33
1.115
0.74
0.465
0.27
0.175
0.115
0.035
0.03
0.035
0.055
0.03
0.01
0.0
0.05
0.055
0.07
0.065
0.075
0.055
0.045
0.075
0.085
0.075
0.04
0.055
0.06
-0.02
0.02
-0.01
0.07
0.095
0.045
0.075
0.08
0.05
0.06
0.055
0.095
0.08
0.07
0.065
0.095
0.1
0.07
0.075
0.07
0.09
0.065
0.075
0.09
0.1
0.07
0.115
0.105
0.13
0.105
0.07
0.08
0.115
0.13
0.135
0.16
0.18
0.16
0.135
0.135
0.16
0.14
0.155
0.16
0.15
0.16
0.17
0.16
0.155
0.215
0.21
0.195
0.245
0.23
0.24
0.25
0.26
0.29
0.29
0.27
0.29
0.315
0.305
0.29
0.34
0.335
0.35
0.395
0.395
0.375
0.37
0.32
0.415
0.47
0.47
0.48
0.5
0.51
0.46
0.455
0.505
0.5
0.51
0.49
0.5
0.545
0.54
0.53
0.525
0.53
0.515
0.46
0.455
0.465
0.43
0.495
0.525
0.455
0.405
0.36
0.385
0.335
0.34
0.355
0.305
0.195
0.2
0.195
0.2
0.195
0.175
0.16
0.16
0.11
0.12
0.09
0.1
0.115
0.105
0.08
0.055
0.055
0.065
0.035
0.03
0.07
0.07
0.055
0.045
0.055
0.04
0.03
0.035
0.035
0.045
0.05
0.02
0.035
0.035
0.035
0.05
0.045
0.045
0.04
0.01
0.03
0.06
0.065
0.03
0.04
0.035
0.035
0.065
0.045
0.045
0.03
-0.005
-0.005
0.035
0.08
0.07
0.015
0.03
0.08
0.02
-0.02
0.035
0.04
0.045
0.08
0.035
0.015
0.05
0.06
0.03
0.025
0.035
0.01
0.005
0.03
0.055
0.045
0.07
-0.005
0.015
0.03
0.04
0.02
0.025
0.055
0.02
0.01
0.025
0.04
0.025
0.025
0.035
0.03
0.035
0.04
0.06
0.04
0.03
0.06
0.08
0.055
0.07
0.035
0.01
0.04
-0.005
0.005
0.02
0.06
0.065
0.06
0.03
0.005
-0.005
-0.015
-0.005
0.045
0.065
0.035
0.03
0.08
0.055
0.005
0.05
0.09
0.035
0.03
0.045
0.05
0.025
0.02
0.015
-0.005
0.0
0.04
0.035
0.005
0.075
0.065
0.015
0.045
0.03
0.095
0.05
-0.015
-0.01
0.025
0.04
0.045
0.05
0.03
0.03
0.015
0.035
0.04
0.03
0.025
0.035
0.03
0.025
0.04
0.005
-0.005
0.01
0.07
0.01
0.05
0.02
-0.015
0.01
0.045
0.05
0.055
0.02
0.05
0.055
0.04
0.05
0.05
0.0
-0.015
0.03
0.03
-0.01
0.0
0.01
0.0
0.04
0.01
0.015
-0.005
0.02
0.065
0.05
0.015
0.025
0.065
0.005
-0.005
0.05
0.025
0.025
0.03
0.01
0.015
0.02
0.03
0.04
0.025
-0.015
0.025
0.03
0.0
-0.005
0.05
0.03
0.0
0.025
0.04
0.03
0.01
0.055
0.04
0.01
-0.005
0.025
0.02
0.005
0.01
0.01
0.03
0.02
0.005
0.02
0.08
0.065
0.015
0.005
0.005
0.0
0.035
0.015
0.0
0.01
0.045
0.025
0.045
-0.025
0.0
0.06
0.035
0.035
0.005
0.045
0.02
-0.025
0.025
0.055
0.045
0.04
0.065
0.06
0.065
0.01
-0.03
-0.025
-0.01
0.0
-0.04
0.04
0.06
0.0
0.025
0.055
0.005
0.005
0.04
0.01
0.02
0.045
0.03
0.04
0.05
0.055
0.03
0.04
0.035
0.025
0.03
0.06
0.05
0.055
0.045
0.095
0.06
0.065
0.065
0.05
0.08
0.09
0.11
0.11
0.06
0.065
0.035
0.045
0.04
0.055
0.03
0.005
0.08
0.06
0.025
0.06
0.04
0.105
0.11
0.075
0.065
0.11
0.085
0.03
0.05
0.1
0.085
0.025
-0.01
0.01
0.0
0.055
0.03
0.02
0.035
-0.01
-0.03
-0.01
0.06
0.015
-0.005
0.01
-0.005
0.015
0.05
0.01
-0.035
0.03
0.025
0.005
0.01
0.025
-0.02
-0.01
0.015
-0.035
-0.125
-0.135
-0.165
-0.215
-0.195
-0.14
-0.055
0.035
0.135
0.23
0.305
0.445
0.635
0.79
0.92
1.09
1.245
1.415
1.6
1.735
1.79
1.77
1.68
1.445
1.28
1.075
0.65
0.39
0.22
0.105
0.055
0.04
0.0
0.01
0.03
0.065
0.05
0.035
0.06
0.06
0.075
0.05
0.04
0.04
0.02
0.065
0.12
0.06
0.035
0.025
0.045
0.055
0.07
0.055
0.08
0.06
0.05
0.04
0.095
0.075
0.07
0.08
0.075
0.065
0.045
0.085
0.08
0.065
0.065
0.06
0.075
0.07
0.11
0.12
0.11
0.115
0.12
0.1
0.11
0.055
0.085
0.125
0.11
0.125
0.175
0.17
0.07
0.095
0.125
0.155
0.155
0.15
0.135
0.175
0.225
0.16
0.15
0.215
0.22
0.21
0.165
0.19
0.215
0.22
0.265
0.295
0.255
0.26
0.255
0.25
0.295
0.295
0.3
0.295
0.325
0.365
0.345
0.34
0.37
0.365
0.41
0.425
0.43
0.45
0.505
0.485
0.47
0.47
0.515
0.455
0.485
0.505
0.525
0.505
0.515
0.525
0.54
0.535
0.545
0.515
0.545
0.55
0.49
0.515
0.495
0.495
0.5
0.515
0.435
0.405
0.38
0.39
0.365
0.34
0.31
0.275
0.245
0.215
0.22
0.22
0.21
0.175
0.135
0.145
0.155
0.16
0.12
0.09
0.08
0.11
0.075
0.115
0.075
0.08
0.11
0.085
0.075
0.03
0.01
0.04
0.055
0.055
0.04
0.045
0.08
0.05
0.045
0.045
0.0
0.005
0.05
0.03
0.05
-0.005
0.03
0.065
0.055
0.055
0.015
0.015
0.035
0.05
0.035
0.03
0.0
0.04
0.015
0.045
0.04
0.08
0.04
0.035
0.035
0.075
0.04
0.02
0.04
0.05
0.04
0.07
0.035
0.04
0.005
0.01
0.05
0.025
0.04
0.03
-0.01
-0.02
0.03
0.05
0.035
0.03
0.035
0.01
0.03
0.04
0.005
0.045
0.05
0.005
0.0
0.05
0.05
0.05
0.02
0.025
0.03
0.03
0.01
0.075
0.055
0.03
0.0
0.045
0.05
0.045
0.015
0.04
0.06
0.025
0.035
0.075
0.055
0.03
0.08
0.1
0.075
0.055
0.07
0.09
0.045
0.065
0.08
0.08
0.085
0.05
0.06
0.05
0.065
0.07
0.065
0.105
0.08
0.045
0.085
0.085
0.09
0.075
0.105
0.125
0.06
0.075
0.045
0.065
0.125
0.095
0.04
0.04
0.07
0.055
0.06
0.035
0.025
0.075
0.09
0.095
0.075
0.09
0.05
0.06
0.05
0.085
0.065
0.08
0.065
0.045
0.025
0.05
0.085
0.095
0.08
0.11
0.055
0.05
0.045
0.075
0.055
0.095
0.06
0.02
0.055
0.055
0.055
0.08
0.1
0.03
0.055
0.035
0.035
0.01
0.065
0.07
0.05
0.08
0.08
0.055
0.05
0.005
0.045
0.05
0.05
0.05
0.06
0.07
0.07
0.04
0.065
0.065
0.095
0.1
0.08
0.09
0.04
0.015
0.035
0.045
0.045
0.03
0.04
0.09
0.1
0.08
0.04
0.035
0.1
0.09
0.045
0.04
-0.01
0.035
0.065
0.075
0.065
0.085
0.085
0.07
0.01
-0.02
-0.035
0.01
0.11
0.075
0.085
0.09
0.095
0.05
0.02
0.04
0.02
0.05
0.07
0.08
0.06
0.065
0.04
0.02
0.035
0.045
0.04
0.05
0.05
0.04
0.035
0.025
0.03
0.05
0.045
0.06
0.065
0.085
0.04
0.04
0.035
0.045
0.025
0.06
0.08
0.115
0.105
0.035
0.045
0.015
0.055
0.07
0.09
0.075
0.04
0.04
0.035
0.035
0.045
0.06
0.11
0.125
0.13
0.06
0.085
0.06
0.075
0.095
0.115
0.13
0.1
0.07
0.09
0.075
0.11
0.1
0.02
0.03
0.05
0.085
0.125
0.085
0.06
0.05
0.08
0.085
0.09
0.08
0.085
0.08
0.04
0.08
0.065
0.035
0.025
0.045
0.09
0.07
0.015
0.005
0.01
0.005
0.025
-0.01
-0.015
0.01
0.005
-0.005
0.065
0.07
0.035
0.055
0.06
0.025
0.05
0.015
0.0
-0.01
-0.035
-0.075
-0.15
-0.16
-0.15
-0.18
-0.155
-0.11
0.01
0.14
0.25
0.37
0.495
0.58
0.735
0.895
1.085
1.245
1.435
1.615
1.705
1.825
1.815
1.735
1.57
1.32
1.05
0.705
0.395
0.28
0.13
0.075
0.03
0.055
0.02
0.01
0.05
0.04
0.04
0.06
0.085
0.095
0.085
0.085
0.055
0.075
0.075
0.04
0.055
0.085
0.1
0.07
0.035
0.035
0.065
0.085
0.055
0.015
0.035
0.105
0.085
0.075
0.085
0.08
0.05
0.035
0.055
0.07
0.075
0.115
0.125
0.08
0.095
0.085
0.08
0.105
0.11
0.11
0.13
0.125
0.11
0.105
0.075
0.13
0.145
0.185
0.155
0.13
0.13
0.15
0.145
0.14
0.165
0.19
0.18
0.195
0.195
0.18
0.125
0.175
0.225
0.21
0.225
0.23
0.225
0.255
0.285
0.285
0.285
0.27
0.275
0.28
0.285
0.3
0.295
0.335
0.37
0.345
0.35
0.385
0.395
0.39
0.415
0.44
0.415
0.46
0.465
0.435
0.455
0.525
0.535
0.525
0.555
0.535
0.535
0.515
0.54
0.565
0.535
0.54
0.53
0.54
0.56
0.56
0.55
0.555
0.54
0.465
0.465
0.45
0.435
0.435
0.365
0.31
0.31
0.31
0.32
0.29
0.25
0.25
0.205
0.22
0.205
0.17
0.17
0.135
0.125
0.11
0.115
0.11
0.11
0.12
0.105
0.09
0.05
0.08
0.085
0.03
0.07
0.055
0.035
0.07
0.065
0.055
0.04
0.025
0.0
0.07
0.075
0.065
0.045
0.045
0.035
0.02
0.045
0.045
0.02
0.045
0.07
0.04
0.06
0.035
0.045
0.03
0.035
0.04
0.055
0.04
0.06
0.055
0.015
0.01
0.045
0.035
0.025
0.03
0.035
0.035
0.065
0.085
0.02
0.01
0.0
-0.045
0.025
0.08
0.035
-0.04
0.07
0.08
0.07
0.055
0.005
0.0
0.05
0.06
0.035
0.005
0.04
0.04
0.015
0.03
0.05
0.02
0.015
0.03
0.03
0.035
0.035
0.045
0.08
0.04
0.04
0.025
0.015
0.035
0.04
0.04
0.06
0.02
-0.005
0.075
0.075
0.005
0.035
0.045
-0.04
-0.015
0.025
0.005
0.035
0.04
0.03
0.04
0.04
0.04
0.025
0.05
0.07
0.01
0.01
-0.015
0.005
-0.01
-0.005
-0.02
0.0
0.035
0.08
0.02
0.0
0.02
0.03
0.02
0.005
0.005
-0.03
-0.02
0.11
0.09
0.015
-0.01
0.025
0.01
-0.01
0.04
0.04
-0.005
0.0
0.02
-0.015
-0.005
0.035
0.015
-0.005
-0.03
0.01
0.035
0.055
0.055
0.01
0.045
0.06
-0.02
-0.05
-0.03
-0.03
0.005
0.02
0.02
0.04
0.035
0.015
0.0
0.02
0.045
-0.025
-0.025
0.005
-0.01
0.06
0.015
0.0
0.03
0.025
0.025
0.005
0.025
0.04
0.0
0.025
0.01
0.0
-0.015
-0.03
-0.03
-0.025
0.03
0.04
-0.005
-0.03
0.04
0.005
0.035
0.015
-0.04
-0.02
0.045
0.03
0.01
0.01
0.005
-0.05
0.01
0.005
-0.035
0.005
-0.01
0.065
0.055
-0.065
0.0
-0.005
0.005
0.02
-0.015
-0.025
0.015
-0.015
-0.005
-0.015
0.025
-0.015
0.005
0.0
0.02
-0.01
-0.005
-0.025
-0.01
0.03
-0.01
-0.055
-0.015
0.01
-0.035
-0.04
0.02
-0.035
-0.05
0.0
0.005
-0.02
-0.025
0.015
0.005
0.02
0.0
0.01
0.01
-0.005
-0.075
-0.065
-0.035
-0.02
0.02
0.065
0.04
-0.035
-0.055
-0.015
0.055
0.07
0.025
0.02
-0.015
-0.02
0.02
-0.01
-0.025
0.04
0.05
0.075
0.04
0.015
0.035
0.065
0.015
0.03
-0.005
0.025
0.07
0.045
0.005
-0.005
0.025
0.025
0.05
0.015
-0.025
0.015
0.005
0.01
0.03
0.05
0.02
0.01
0.045
0.03
-0.02
-0.01
-0.02
-0.05
-0.025
-0.01
-0.015
-0.035
-0.02
-0.025
-0.03
-0.015
-0.06
-0.045
-0.045
-0.015
-0.08
-0.035
0.035
-0.005
-0.045
-0.075
-0.105
-0.09
-0.05
-0.01
-0.025
-0.005
-0.06
-0.155
-0.145
-0.165
-0.2
-0.215
-0.22
-0.195
-0.14
-0.02
0.145
0.285
0.3
0.415
0.595
0.74
0.9
1.015
1.165
1.4
1.605
1.675
1.695
1.65
1.495
1.295
1.045
0.72
0.43
0.205
0.09
-0.055
-0.04
-0.035
-0.065
-0.075
-0.11
-0.11
-0.055
0.015
0.055
-0.04
-0.06
0.005
-0.02
-0.015
-0.005
0.035
0.01
0.01
0.045
0.045
0.02
-0.035
-0.02
-0.015
-0.085
-0.05
0.0
0.02
0.025
0.025
0.035
0.015
-0.02
0.045
0.055
0.03
0.03
0.07
0.035
0.005
0.02
0.015
0.055
0.06
0.075
0.04
0.025
0.07
0.03
0.04
0.08
0.07
0.055
0.055
0.085
0.1
0.085
0.09
0.05
0.075
0.12
0.07
0.075
0.105
0.12
0.13
0.16
0.175
0.155
0.155
0.12
0.155
0.17
0.175
0.195
0.19
0.24
0.275
0.275
0.23
0.25
0.24
0.22
0.24
0.27
0.285
0.32
0.38
0.345
0.37
0.36
0.36
0.335
0.395
0.405
0.405
0.445
0.465
0.475
0.49
0.485
0.52
0.445
0.475
0.49
0.53
0.52
0.51
0.475
0.465
0.5
0.505
0.47
0.46
0.48
0.425
0.415
0.435
0.375
0.35
0.33
0.3
0.325
0.295
0.24
0.225
0.22
0.19
0.13
0.125
0.15
0.13
0.11
0.075
0.075
0.07
0.06
0.045
0.045
0.03
0.03
0.005
0.01
0.005
-0.005
-0.015
0.03
-0.01
0.0
0.04
0.01
-0.03
0.02
0.005
-0.03
-0.03
0.01
0.05
0.005
-0.025
0.03
-0.05
-0.075
-0.065
-0.02
-0.06
-0.015
-0.015
-0.015
-0.02
-0.025
-0.01
-0.06
-0.015
-0.03
-0.025
0.02
0.01
-0.02
-0.015
0.01
-0.02
-0.065
-0.025
0.02
-0.035
-0.025
0.0
0.01
0.01
0.005
-0.07
-0.035
-0.035
-0.035
-0.005
-0.03
-0.045
-0.015
-0.015
-0.03
-0.015
0.02
-0.04
-0.04
-0.025
0.025
0.015
0.0
-0.005
-0.005
-0.025
-0.04
-0.055
-0.02
-0.005
0.02
0.0
-0.045
-0.03
-0.03
-0.05
-0.015
-0.005
0.01
-0.015
0.0
-0.04
0.005
0.025
-0.02
-0.03
-0.02
-0.01
-0.02
-0.02
-0.01
-0.03
-0.025
0.02
-0.045
-0.04
-0.055
-0.05
-0.045
0.03
0.01
-0.04
-0.015
0.005
-0.045
-0.085
-0.03
-0.015
-0.01
-0.005
0.01
-0.035
-0.035
-0.03
-0.08
-0.04
0.015
