# TIPE ECG 2021 - ECG-ID Database v1.0.0 par Physionet
# [Numéro de la personne, Période d'échantillonnage, Prénom, Age, Sexe, Date de l'enregistrement]
[30, 0.002, Long, 28, H, 13.05.2005]
0.415
0.4
0.42
0.43
0.415
0.425
0.405
0.4
0.425
0.445
0.415
0.42
0.405
0.38
0.39
0.415
0.425
0.43
0.43
0.425
0.415
0.45
0.435
0.415
0.41
0.405
0.395
0.4
0.385
0.435
0.435
0.4
0.425
0.415
0.37
0.37
0.4
0.41
0.475
0.48
0.425
0.4
0.39
0.42
0.4
0.395
0.41
0.4
0.41
0.41
0.395
0.41
0.445
0.42
0.405
0.395
0.36
0.385
0.405
0.425
0.43
0.445
0.405
0.415
0.41
0.415
0.37
0.405
0.435
0.435
0.39
0.385
0.425
0.42
0.405
0.38
0.39
0.415
0.435
0.395
0.415
0.435
0.45
0.43
0.41
0.41
0.38
0.375
0.365
0.42
0.43
0.395
0.43
0.415
0.395
0.38
0.375
0.395
0.44
0.405
0.4
0.365
0.425
0.405
0.415
0.4
0.395
0.38
0.44
0.425
0.445
0.42
0.425
0.42
0.415
0.425
0.42
0.385
0.405
0.44
0.4
0.365
0.42
0.385
0.39
0.39
0.385
0.4
0.415
0.425
0.425
0.42
0.41
0.385
0.335
0.38
0.39
0.405
0.42
0.39
0.41
0.405
0.405
0.37
0.38
0.43
0.43
0.425
0.425
0.42
0.405
0.41
0.44
0.41
0.425
0.43
0.415
0.43
0.43
0.405
0.41
0.42
0.425
0.425
0.46
0.445
0.42
0.42
0.405
0.42
0.42
0.41
0.42
0.42
0.4
0.42
0.395
0.41
0.435
0.4
0.42
0.43
0.41
0.415
0.43
0.42
0.425
0.465
0.445
0.41
0.445
0.4
0.41
0.405
0.41
0.425
0.445
0.43
0.455
0.42
0.425
0.46
0.45
0.45
0.405
0.425
0.425
0.46
0.445
0.415
0.425
0.415
0.43
0.475
0.43
0.44
0.455
0.445
0.45
0.46
0.44
0.45
0.45
0.49
0.45
0.46
0.465
0.51
0.515
0.455
0.42
0.455
0.47
0.465
0.495
0.49
0.455
0.495
0.525
0.475
0.455
0.455
0.455
0.47
0.465
0.485
0.485
0.46
0.48
0.475
0.505
0.5
0.445
0.44
0.495
0.465
0.465
0.445
0.46
0.475
0.455
0.47
0.445
0.43
0.45
0.41
0.395
0.43
0.455
0.445
0.43
0.435
0.39
0.42
0.42
0.395
0.395
0.47
0.435
0.42
0.415
0.41
0.425
0.415
0.405
0.375
0.32
0.34
0.305
0.25
0.215
0.225
0.27
0.39
0.505
0.63
0.71
0.825
0.92
1.105
1.245
1.425
1.61
1.81
1.985
2.125
2.185
2.26
2.2
2.035
1.835
1.645
1.27
0.965
0.73
0.59
0.51
0.495
0.445
0.405
0.43
0.47
0.43
0.46
0.475
0.495
0.525
0.485
0.48
0.49
0.49
0.47
0.46
0.47
0.46
0.485
0.46
0.465
0.5
0.465
0.495
0.495
0.465
0.47
0.515
0.475
0.515
0.58
0.55
0.51
0.505
0.525
0.55
0.54
0.55
0.555
0.56
0.545
0.49
0.55
0.55
0.555
0.56
0.58
0.57
0.56
0.595
0.615
0.575
0.555
0.58
0.61
0.63
0.605
0.62
0.605
0.625
0.665
0.61
0.62
0.62
0.635
0.635
0.665
0.655
0.65
0.69
0.71
0.735
0.71
0.68
0.72
0.7
0.73
0.76
0.735
0.75
0.79
0.775
0.815
0.835
0.82
0.825
0.82
0.855
0.86
0.89
0.9
0.885
0.88
0.925
0.94
0.955
0.98
0.955
0.98
1.01
1.005
0.965
0.955
0.945
0.91
1.02
1.04
0.985
0.995
0.985
0.955
0.965
0.955
0.945
0.905
0.88
0.87
0.845
0.845
0.83
0.81
0.755
0.77
0.745
0.69
0.655
0.68
0.665
0.65
0.64
0.64
0.66
0.645
0.59
0.55
0.55
0.545
0.53
0.59
0.58
0.57
0.58
0.54
0.535
0.545
0.54
0.535
0.53
0.535
0.525
0.52
0.55
0.58
0.575
0.515
0.5
0.505
0.525
0.565
0.565
0.545
0.545
0.54
0.53
0.535
0.535
0.53
0.525
0.51
0.565
0.56
0.52
0.555
0.525
0.49
0.535
0.525
0.525
0.54
0.555
0.54
0.535
0.56
0.525
0.52
0.51
0.53
0.555
0.555
0.53
0.515
0.53
0.55
0.54
0.525
0.54
0.55
0.525
0.545
0.575
0.555
0.535
0.54
0.53
0.52
0.555
0.585
0.58
0.54
0.535
0.53
0.555
0.55
0.515
0.525
0.535
0.53
0.535
0.535
0.58
0.56
0.54
0.54
0.6
0.595
0.51
0.505
0.52
0.54
0.57
0.565
0.555
0.535
0.515
0.54
0.56
0.555
0.54
0.525
0.55
0.535
0.5
0.53
0.56
0.545
0.51
0.565
0.58
0.56
0.57
0.53
0.515
0.54
0.59
0.555
0.58
0.54
0.535
0.575
0.575
0.54
0.535
0.525
0.545
0.54
0.56
0.6
0.505
0.55
0.56
0.57
0.56
0.58
0.49
0.5
0.535
0.54
0.54
0.555
0.55
0.535
0.525
0.55
0.555
0.555
0.55
0.54
0.555
0.58
0.53
0.505
0.525
0.55
0.52
0.585
0.585
0.535
0.505
0.56
0.56
0.53
0.53
0.535
0.53
0.585
0.575
0.545
0.545
0.565
0.53
0.535
0.575
0.565
0.545
0.51
0.505
0.52
0.58
0.57
0.565
0.555
0.57
0.54
0.525
0.545
0.575
0.54
0.515
0.545
0.52
0.57
0.555
0.54
0.57
0.59
0.555
0.53
0.57
0.55
0.55
0.54
0.535
0.545
0.545
0.58
0.56
0.51
0.54
0.605
0.52
0.515
0.525
0.545
0.515
0.555
0.55
0.535
0.56
0.605
0.53
0.525
0.53
0.535
0.52
0.55
0.545
0.55
0.56
0.545
0.575
0.545
0.545
0.545
0.535
0.525
0.525
0.54
0.55
0.55
0.55
0.56
0.55
0.545
0.53
0.575
0.54
0.56
0.55
0.535
0.55
0.555
0.555
0.555
0.565
0.54
0.57
0.545
0.59
0.625
0.615
0.62
0.595
0.54
0.585
0.645
0.615
0.605
0.61
0.6
0.59
0.6
0.575
0.585
0.56
0.56
0.565
0.55
0.58
0.62
0.61
0.59
0.595
0.615
0.595
0.595
0.585
0.6
0.62
0.57
0.56
0.52
0.52
0.525
0.535
0.505
0.54
0.55
0.56
0.55
0.55
0.51
0.54
0.49
0.515
0.53
0.555
0.535
0.515
0.5
0.515
0.515
0.555
0.545
0.52
0.505
0.485
0.475
0.47
0.47
0.44
0.415
0.345
0.3
0.335
0.38
0.5
0.605
0.74
0.82
0.93
1.035
1.21
1.35
1.51
1.68
1.87
2.085
2.24
2.31
2.33
2.275
2.125
1.91
1.7
1.34
1.005
0.805
0.67
0.61
0.6
0.55
0.51
0.515
0.545
0.535
0.55
0.545
0.58
0.565
0.57
0.605
0.56
0.55
0.585
0.59
0.575
0.57
0.565
0.55
0.575
0.54
0.58
0.56
0.575
0.58
0.555
0.57
0.61
0.605
0.54
0.57
0.575
0.565
0.575
0.58
0.58
0.59
0.62
0.595
0.62
0.625
0.59
0.585
0.595
0.6
0.61
0.59
0.63
0.655
0.63
0.64
0.605
0.66
0.67
0.65
0.635
0.64
0.685
0.715
0.685
0.675
0.695
0.675
0.69
0.67
0.695
0.72
0.74
0.735
0.715
0.71
0.715
0.74
0.76
0.75
0.785
0.795
0.83
0.85
0.805
0.81
0.82
0.855
0.855
0.875
0.91
0.94
0.905
0.915
0.94
0.935
0.92
0.97
0.995
0.985
0.985
0.99
0.99
0.99
1.005
1.055
1.035
1.0
1.035
1.045
1.04
1.035
1.02
1.02
1.01
0.975
0.97
0.94
0.92
0.92
0.9
0.885
0.855
0.83
0.83
0.815
0.785
0.75
0.73
0.665
0.695
0.725
0.675
0.66
0.615
0.625
0.605
0.615
0.61
0.6
0.58
0.62
0.595
0.575
0.56
0.57
0.555
0.575
0.58
0.545
0.545
0.56
0.555
0.525
0.545
0.535
0.5
0.55
0.51
0.53
0.56
0.57
0.545
0.545
0.535
0.535
0.54
0.54
0.54
0.535
0.52
0.55
0.52
0.53
0.5
0.52
0.535
0.505
0.54
0.54
0.535
0.56
0.56
0.53
0.525
0.535
0.495
0.51
0.545
0.54
0.525
0.54
0.55
0.565
0.55
0.535
0.525
0.525
0.525
0.52
0.52
0.535
0.545
0.52
0.51
0.52
0.505
0.525
0.565
0.57
0.545
0.575
0.51
0.505
0.51
0.495
0.52
0.55
0.53
0.515
0.505
0.485
0.5
0.52
0.555
0.535
0.54
0.515
0.495
0.525
0.565
0.535
0.515
0.485
0.5
0.52
0.495
0.495
0.525
0.525
0.555
0.54
0.5
0.48
0.5
0.475
0.5
0.52
0.535
0.55
0.555
0.555
0.49
0.49
0.52
0.48
0.475
0.505
0.525
0.515
0.49
0.475
0.475
0.525
0.505
0.47
0.46
0.49
0.52
0.555
0.545
0.485
0.48
0.485
0.505
0.465
0.505
0.515
0.51
0.47
0.51
0.53
0.475
0.455
0.465
0.455
0.52
0.525
0.51
0.48
0.515
0.485
0.495
0.485
0.46
0.45
0.485
0.495
0.45
0.465
0.485
0.505
0.5
0.47
0.47
0.485
0.465
0.495
0.47
0.51
0.465
0.485
0.475
0.475
0.495
0.48
0.47
0.48
0.48
0.47
0.505
0.5
0.5
0.49
0.49
0.445
0.49
0.49
0.45
0.465
0.485
0.465
0.47
0.465
0.47
0.465
0.46
0.475
0.475
0.5
0.47
0.455
0.455
0.46
0.455
0.46
0.44
0.39
0.435
0.505
0.53
0.5
0.46
0.465
0.42
0.47
0.505
0.545
0.435
0.435
0.495
0.485
0.475
0.465
0.46
0.47
0.46
0.45
0.49
0.5
0.51
0.475
0.435
0.48
0.43
0.435
0.46
0.445
0.445
0.495
0.465
0.45
0.455
0.455
0.455
0.455
0.46
0.44
0.45
0.485
0.48
0.42
0.475
0.485
0.455
0.46
0.455
0.46
0.465
0.44
0.46
0.435
0.475
0.495
0.46
0.46
0.47
0.45
0.455
0.49
0.585
0.525
0.505
0.515
0.505
0.52
0.5
0.475
0.47
0.495
0.52
0.5
0.51
0.48
0.455
0.465
0.465
0.435
0.475
0.49
0.505
0.5
0.5
0.485
0.475
0.485
0.495
0.465
0.48
0.485
0.485
0.44
0.435
0.41
0.41
0.47
0.465
0.4
0.395
0.41
0.41
0.42
0.42
0.4
0.42
0.435
0.405
0.39
0.4
0.435
0.37
0.38
0.455
0.425
0.42
0.415
0.42
0.395
0.39
0.385
0.33
0.27
0.24
0.2
0.155
0.205
0.315
0.425
0.54
0.685
0.765
0.875
1.04
1.205
1.395
1.555
1.74
1.875
2.035
2.18
2.235
2.195
2.05
1.865
1.64
1.3
0.955
0.7
0.585
0.525
0.46
0.405
0.415
0.44
0.445
0.42
0.405
0.43
0.47
0.48
0.475
0.45
0.435
0.425
0.425
0.45
0.43
0.425
0.46
0.48
0.47
0.405
0.43
0.42
0.42
0.42
0.435
0.46
0.435
0.43
0.445
0.42
0.455
0.495
0.425
0.445
0.42
0.45
0.5
0.48
0.485
0.465
0.46
0.495
0.49
0.51
0.48
0.49
0.505
0.505
0.515
0.51
0.485
0.49
0.51
0.515
0.545
0.535
0.55
0.51
0.53
0.55
0.57
0.535
0.53
0.55
0.58
0.575
0.595
0.61
0.61
0.605
0.58
0.635
0.625
0.655
0.63
0.615
0.7
0.695
0.67
0.7
0.66
0.705
0.705
0.745
0.76
0.75
0.805
0.825
0.755
0.795
0.815
0.815
0.815
0.82
0.86
0.87
0.89
0.88
0.885
0.895
0.885
0.895
0.895
0.9
0.885
0.915
0.92
0.87
0.86
0.86
0.83
0.865
0.845
0.81
0.78
0.775
0.73
0.74
0.685
0.655
0.615
0.63
0.615
0.58
0.55
0.555
0.56
0.53
0.52
0.53
0.51
0.445
0.46
0.49
0.45
0.455
0.49
0.465
0.435
0.41
0.41
0.41
0.44
0.44
0.435
0.42
0.425
0.415
0.4
0.42
0.41
0.38
0.41
0.435
0.43
0.425
0.405
0.435
0.4
0.39
0.4
0.385
0.395
0.395
0.385
0.41
0.425
0.45
0.415
0.42
0.38
0.355
0.38
0.37
0.375
0.41
0.425
0.41
0.425
0.425
0.395
0.365
0.38
0.375
0.375
0.4
0.405
0.425
0.395
0.4
0.41
0.39
0.395
0.36
0.405
0.39
0.4
0.37
0.37
0.395
0.365
0.39
0.435
0.41
0.395
0.405
0.405
0.385
0.38
0.395
0.39
0.395
0.4
0.385
0.39
0.415
0.39
0.375
0.39
0.39
0.37
0.37
0.4
0.38
0.37
0.41
0.4
0.405
0.405
0.385
0.365
0.4
0.385
0.365
0.37
0.44
0.455
0.345
0.4
0.355
0.38
0.38
0.37
0.375
0.385
0.395
0.405
0.39
0.355
0.365
0.36
0.38
0.415
0.385
0.375
0.36
0.38
0.395
0.36
0.36
0.365
0.365
0.35
0.365
0.38
0.385
0.35
0.37
0.36
0.36
0.355
0.385
0.365
0.355
0.32
0.32
0.355
0.38
0.4
0.385
0.345
0.34
0.33
0.37
0.36
0.355
0.345
0.39
0.385
0.33
0.345
0.325
0.32
0.375
0.405
0.41
0.355
0.345
0.355
0.335
0.335
0.355
0.37
0.36
0.375
0.39
0.39
0.37
0.36
0.335
0.34
0.36
0.345
0.315
0.36
0.35
0.325
0.34
0.31
0.33
0.34
0.33
0.33
0.305
0.345
0.36
0.315
0.345
0.41
0.345
0.32
0.34
0.33
0.32
0.36
0.355
0.335
0.325
0.335
0.305
0.32
0.345
0.34
0.33
0.335
0.33
0.36
0.375
0.355
0.32
0.34
0.34
0.32
0.325
0.335
0.36
0.35
0.345
0.39
0.355
0.315
0.335
0.35
0.34
0.335
0.33
0.305
0.315
0.335
0.325
0.34
0.34
0.325
0.32
0.34
0.355
0.325
0.32
0.36
0.32
0.315
0.325
0.345
0.335
0.285
0.325
0.35
0.345
0.305
0.33
0.275
0.3
0.345
0.33
0.315
0.37
0.33
0.34
0.34
0.34
0.31
0.325
0.35
0.34
0.335
0.35
0.38
0.38
0.325
0.315
0.4
0.39
0.365
0.375
0.385
0.39
0.35
0.35
0.355
0.355
0.375
0.355
0.345
0.375
0.355
0.325
0.365
0.345
0.33
0.345
0.385
0.375
0.35
0.35
0.37
0.36
0.365
0.37
0.295
0.31
0.335
0.355
0.35
0.34
0.31
0.27
0.29
0.305
0.295
0.3
0.31
0.33
0.315
0.305
0.29
0.295
0.295
0.295
0.29
0.32
0.295
0.285
0.29
0.28
0.305
0.285
0.26
0.275
0.22
0.175
0.175
0.165
0.09
0.105
0.17
0.205
0.295
0.44
0.515
0.595
0.77
0.935
1.085
1.255
1.415
1.595
1.77
1.96
2.015
2.1
2.05
1.925
1.735
1.58
1.285
0.92
0.64
0.55
0.365
0.285
0.315
0.305
0.3
0.335
0.32
0.3
0.325
0.305
0.335
0.34
0.365
0.375
0.295
0.315
0.33
0.35
0.34
0.34
0.305
0.345
0.325
0.295
0.3
0.315
0.33
0.365
0.34
0.31
0.315
0.34
0.33
0.335
0.335
0.375
0.375
0.32
0.325
0.35
0.345
0.36
0.395
0.36
0.31
0.355
0.385
0.37
0.41
0.35
0.355
0.36
0.4
0.355
0.37
0.425
0.39
0.395
0.42
0.4
0.385
0.415
0.445
0.44
0.42
0.43
0.435
0.435
0.44
0.44
0.48
0.515
0.5
0.465
0.495
0.52
0.485
0.54
0.565
0.555
0.545
0.56
0.53
0.575
0.615
0.615
0.63
0.645
0.655
0.64
0.64
0.67
0.7
0.7
0.705
0.72
0.775
0.7
0.74
0.75
0.745
0.775
0.785
0.79
0.79
0.795
0.785
0.765
0.775
0.725
0.74
0.785
0.77
0.745
0.72
0.71
0.695
0.66
0.63
0.63
0.57
0.55
0.52
0.535
0.58
0.525
0.49
0.455
0.43
0.41
0.41
0.4
0.35
0.385
0.385
0.425
0.38
0.365
0.32
0.305
0.335
0.325
0.335
0.33
0.31
0.29
0.3
0.345
0.32
0.31
0.27
0.295
0.29
0.285
0.28
0.29
0.315
0.29
0.29
0.275
0.28
0.27
0.305
0.335
0.29
0.3
0.275
0.28
0.31
0.295
0.3
0.33
0.285
0.265
0.305
0.3
0.28
0.285
0.285
0.245
0.27
0.305
0.27
0.305
0.34
0.315
0.325
0.285
0.285
0.3
0.275
0.285
0.265
0.285
0.3
0.28
0.275
0.265
0.29
0.255
0.275
0.31
0.28
0.29
0.305
0.245
0.265
0.295
0.275
0.285
0.33
0.255
0.235
0.25
0.335
0.305
0.285
0.285
0.295
0.245
0.27
0.31
0.295
0.275
0.285
0.28
0.28
0.33
0.3
0.27
0.295
0.295
0.26
0.305
0.295
0.24
0.28
0.28
0.295
0.235
0.28
0.305
0.26
0.305
0.29
0.265
0.27
0.24
0.29
0.27
0.275
0.28
0.205
0.235
0.34
0.3
0.29
0.275
0.28
0.235
0.245
0.27
0.27
0.26
0.285
0.26
0.3
0.285
0.32
0.215
0.23
0.255
0.265
0.265
0.285
0.235
0.25
0.275
0.255
0.235
0.26
0.255
0.205
0.255
0.31
0.26
0.22
0.255
0.24
0.235
0.265
0.28
0.225
0.27
0.255
0.23
0.22
0.235
0.23
0.255
0.29
0.245
0.24
0.29
0.275
0.25
0.24
0.265
0.225
0.25
0.27
0.235
0.225
0.24
0.235
0.265
0.215
0.24
0.235
0.255
0.285
0.26
0.22
0.255
0.235
0.225
0.245
0.21
0.225
0.25
0.195
0.21
0.27
0.285
0.25
0.23
0.24
0.27
0.255
0.245
0.24
0.215
0.195
0.255
0.26
0.25
0.245
0.265
0.24
0.255
0.24
0.235
0.25
0.29
0.245
0.235
0.23
0.255
0.265
0.29
0.285
0.2
0.245
0.26
0.25
0.29
0.26
0.25
0.24
0.265
0.235
0.215
0.24
0.275
0.26
0.25
0.225
0.24
0.245
0.28
0.25
0.22
0.23
0.255
0.25
0.25
0.235
0.26
0.225
0.24
0.265
0.275
0.28
0.3
0.265
0.255
0.26
0.225
0.21
0.26
0.265
0.245
0.285
0.295
0.245
0.26
0.275
0.265
0.25
0.235
0.26
0.26
0.265
0.27
0.29
0.315
0.32
0.305
0.28
0.305
0.3
0.29
0.31
0.305
0.285
0.27
0.295
0.28
0.25
0.26
0.29
0.3
0.31
0.265
0.295
0.255
0.25
0.24
0.265
0.29
0.31
0.335
0.355
0.305
0.285
0.265
0.285
0.25
0.275
0.29
0.25
0.245
0.225
0.225
0.245
0.24
0.21
0.215
0.23
0.235
0.225
0.215
0.235
0.25
0.215
0.24
0.225
0.22
0.22
0.245
0.22
0.205
0.235
0.225
0.185
0.155
0.155
0.11
0.06
0.04
0.01
0.02
0.095
0.215
0.32
0.43
0.52
0.635
0.745
0.915
1.095
1.28
1.475
1.67
1.85
1.96
2.04
2.01
1.62
1.34
0.95
0.67
0.455
0.35
0.26
0.255
0.28
0.215
0.195
0.25
0.285
0.25
0.26
0.245
0.265
0.27
0.285
0.295
0.28
0.275
0.235
0.24
0.235
0.295
0.32
0.255
0.26
0.26
0.25
0.25
0.275
0.265
0.26
0.325
0.285
0.25
0.265
0.29
0.28
0.28
0.31
0.295
0.305
0.29
0.28
0.265
0.28
0.34
0.34
0.315
0.31
0.315
0.32
0.28
0.285
0.315
0.34
0.35
0.35
0.33
0.355
0.38
0.35
0.385
0.36
0.335
0.375
0.365
0.39
0.43
0.43
0.4
0.375
0.39
0.4
0.43
0.45
0.445
0.44
0.445
0.475
0.485
0.505
0.45
0.495
0.47
0.52
0.535
0.53
0.565
0.56
0.575
0.6
0.61
0.605
0.61
0.62
0.66
0.63
0.665
0.705
0.69
0.68
0.72
0.71
0.74
0.73
0.725
0.755
0.715
0.715
0.74
0.725
0.675
0.665
0.7
0.7
0.685
0.665
0.645
0.62
0.58
0.565
0.57
0.52
0.48
0.49
0.465
0.455
0.43
0.395
0.365
0.385
0.4
0.36
0.315
0.335
0.295
0.31
0.315
0.32
0.34
0.24
0.315
0.255
0.195
0.21
0.235
0.28
0.28
0.25
0.235
0.2
0.2
0.23
0.27
0.24
0.24
0.25
0.3
0.22
0.23
0.235
0.21
0.215
0.2
0.235
0.24
0.255
0.265
0.19
0.2
0.18
0.18
0.225
0.28
0.24
0.225
0.225
0.23
0.22
0.205
0.205
0.185
0.195
0.245
0.245
0.23
0.21
0.255
0.22
0.23
0.225
0.225
0.215
0.255
0.245
0.21
0.215
0.195
0.19
0.21
0.15
0.155
0.195
0.225
0.25
0.225
0.2
0.235
0.25
0.23
0.2
0.2
0.165
0.205
0.225
0.19
0.18
0.185
0.22
0.23
0.23
0.225
0.225
0.255
0.21
0.18
0.175
0.23
0.24
0.195
0.195
0.18
0.22
0.21
0.225
0.185
0.205
0.255
0.205
0.205
0.2
0.18
0.19
0.19
0.205
0.2
0.21
0.215
0.19
0.155
0.125
0.165
0.215
0.215
0.215
0.205
0.235
0.255
0.185
0.19
0.175
0.16
0.175
0.19
0.205
0.145
0.18
0.215
0.175
0.18
0.19
0.185
0.19
0.155
0.17
0.15
0.155
0.23
0.225
0.205
0.155
0.16
0.18
0.18
0.17
0.18
0.165
0.155
0.145
0.175
0.205
0.17
0.2
0.175
0.155
0.17
0.2
0.22
0.18
0.18
0.14
0.16
0.165
0.17
0.14
0.145
0.215
0.215
0.19
0.19
0.18
0.135
0.13
0.17
0.15
0.18
0.135
0.17
0.205
0.17
0.16
0.16
0.15
0.175
0.115
0.18
0.215
0.195
0.2
0.23
0.21
0.15
0.145
0.175
0.15
0.18
0.19
0.21
0.185
0.215
0.195
0.18
0.21
0.185
0.135
0.155
0.195
0.19
0.22
0.17
0.19
0.165
0.12
0.145
0.195
0.215
0.265
0.215
0.195
0.175
0.18
0.125
0.15
0.24
0.22
0.22
0.225
0.18
0.195
0.19
0.215
0.215
0.245
0.2
0.155
0.16
0.195
0.205
0.195
0.24
0.19
0.17
0.17
0.205
0.205
0.205
0.23
0.17
0.195
0.25
0.18
0.145
0.135
0.17
0.21
0.195
0.175
0.2
0.22
0.28
0.22
0.235
0.255
0.2
0.155
0.21
0.245
0.24
0.25
0.26
0.245
0.26
0.245
0.255
0.225
0.24
0.24
0.225
0.235
0.22
0.21
0.23
0.2
0.22
0.21
0.245
0.225
0.23
0.25
0.28
0.23
0.26
0.26
0.275
0.245
0.23
0.24
0.225
0.22
0.205
0.23
0.24
0.2
0.155
0.16
0.215
0.17
0.215
0.215
0.185
0.19
0.205
0.195
0.19
0.165
0.18
0.195
0.21
0.21
0.2
0.185
0.185
0.175
0.16
0.19
0.185
0.145
0.15
0.12
0.055
-0.015
0.015
0.015
0.075
0.13
0.195
0.315
0.435
0.485
0.635
0.77
0.94
1.09
1.205
1.38
1.61
1.755
1.815
1.895
1.83
1.695
1.515
1.305
0.945
0.64
0.45
0.3
0.185
0.16
0.125
0.09
0.14
0.2
0.19
0.19
0.235
0.19
0.195
0.235
0.18
0.17
0.245
0.27
0.245
0.245
0.26
0.23
0.215
0.235
0.26
0.23
0.25
0.285
0.29
0.175
0.205
0.19
0.21
0.285
0.3
0.26
0.26
0.27
0.285
0.26
0.305
0.29
0.285
0.29
0.225
0.22
0.275
0.245
0.28
0.325
0.33
0.305
0.315
0.325
0.26
0.265
0.27
0.32
0.33
0.375
0.35
0.345
0.35
0.34
0.32
0.355
0.355
0.345
0.355
0.4
0.415
0.375
0.385
0.385
0.42
0.44
0.44
0.45
0.44
0.465
0.45
0.475
0.5
0.53
0.505
0.54
0.525
0.545
0.56
0.575
0.62
0.585
0.565
0.635
0.63
0.605
0.645
0.68
0.68
0.665
0.715
0.705
0.715
0.72
0.735
0.74
0.795
0.695
0.695
0.76
0.735
0.67
0.675
0.695
0.69
0.655
0.655
0.67
0.68
0.645
0.595
0.56
0.54
0.53
0.495
0.5
0.45
0.395
0.43
0.435
0.39
0.365
0.355
0.355
0.315
0.315
0.285
0.255
0.285
0.32
0.31
0.28
0.27
0.245
0.23
0.27
0.27
0.28
0.245
0.275
0.24
0.235
0.23
0.235
0.18
0.24
0.215
0.235
0.245
0.225
0.23
0.24
0.23
0.26
0.23
0.245
0.225
0.22
0.215
0.25
0.23
0.22
0.245
0.24
0.245
0.165
0.14
0.185
0.255
0.275
0.23
0.2
0.23
0.22
0.145
0.14
0.25
0.28
0.26
0.235
0.255
0.225
0.225
0.26
0.23
0.215
0.225
0.205
0.265
0.235
0.265
0.21
0.22
0.22
0.22
0.23
0.25
0.275
0.275
0.26
0.2
0.21
0.22
0.205
0.215
0.255
0.175
0.235
0.26
0.235
0.205
0.23
0.23
0.235
0.235
0.235
0.195
0.23
0.26
0.26
0.225
0.205
0.255
0.2
0.18
0.23
0.235
0.205
0.25
0.255
0.22
0.22
0.265
0.195
0.17
0.19
0.245
0.23
0.21
0.225
0.24
0.25
0.26
0.225
0.19
0.225
0.23
0.205
0.23
0.265
0.245
0.215
0.19
0.21
0.24
0.195
0.22
0.2
0.245
0.25
0.235
0.245
0.24
0.165
0.175
0.205
0.215
0.23
0.255
0.24
0.215
0.23
0.23
0.22
0.225
0.21
0.265
0.27
0.215
0.19
0.205
0.195
0.21
0.225
0.205
0.215
0.22
0.23
0.22
0.21
0.205
0.165
0.155
0.18
0.255
0.255
0.23
0.175
0.24
0.225
0.22
0.22
0.215
0.225
0.225
0.205
0.195
0.22
0.21
0.2
0.195
0.24
0.26
0.205
0.22
0.225
0.225
0.215
0.24
0.23
0.21
0.185
0.215
0.2
0.205
0.235
0.21
0.25
0.245
0.23
0.295
0.225
0.145
0.215
0.2
0.22
0.235
0.235
0.255
0.27
0.235
0.185
0.21
0.165
0.16
0.22
0.195
0.21
0.25
0.22
0.25
0.23
0.2
0.225
0.24
0.21
0.235
0.245
0.25
0.24
0.225
0.22
0.23
0.215
0.215
0.225
0.205
0.24
0.265
0.29
0.26
0.235
0.23
0.225
0.23
0.23
0.225
0.315
0.245
0.265
0.26
0.265
0.27
0.27
0.27
0.27
0.265
0.25
0.235
0.245
0.255
0.28
0.215
0.215
0.26
0.285
0.23
0.235
0.25
0.31
0.28
0.235
0.2
0.195
0.225
0.185
0.2
0.22
0.27
0.225
0.25
0.23
0.185
0.185
0.22
0.185
0.205
0.225
0.21
0.22
0.19
0.2
0.155
0.2
0.22
0.205
0.2
0.255
0.245
0.225
0.18
0.135
0.105
0.12
0.055
0.025
0.035
0.03
0.08
0.185
0.28
0.42
0.46
0.625
0.72
0.885
1.005
1.185
1.335
1.515
1.71
1.86
1.895
1.9
1.805
1.685
1.46
1.2
0.835
0.545
0.355
0.28
0.195
0.17
0.175
0.18
0.205
0.215
0.205
0.24
0.22
0.205
0.22
0.275
0.265
0.27
0.265
0.26
0.225
0.205
0.235
0.21
0.235
0.23
0.225
0.215
0.28
0.275
0.27
0.26
0.29
0.24
0.255
0.25
0.235
0.265
0.265
0.28
0.27
0.235
0.22
0.26
0.26
0.285
0.29
0.28
0.315
0.275
0.315
0.315
0.325
0.295
0.22
0.25
0.31
0.345
0.32
0.345
0.325
0.31
0.315
0.32
0.365
0.365
0.34
0.33
0.365
0.365
0.37
0.405
0.37
0.36
0.415
0.435
0.435
0.45
0.45
0.445
0.435
0.435
0.47
0.445
0.48
0.465
0.52
0.52
0.565
0.565
0.565
0.575
0.57
0.575
0.615
0.625
0.61
0.62
0.62
0.675
0.685
0.665
0.67
0.685
0.715
0.715
0.695
0.695
0.71
0.745
0.73
0.71
0.705
0.69
0.705
0.715
0.65
0.67
0.63
0.62
0.625
0.615
0.57
0.535
0.525
0.495
0.45
0.465
0.435
0.435
0.43
0.39
0.375
0.335
0.335
0.335
0.3
0.315
0.335
0.295
0.295
0.255
0.24
0.24
0.24
0.28
0.255
0.245
0.26
0.265
0.27
0.27
0.245
0.22
0.215
0.23
0.24
0.23
0.265
0.24
0.21
0.21
0.235
0.235
0.22
0.205
0.21
0.235
0.265
0.255
0.21
0.205
0.185
0.185
0.185
0.195
0.225
0.235
0.235
0.23
0.22
0.21
0.225
0.205
0.235
0.245
0.215
0.21
0.205
0.2
0.225
0.215
0.21
0.2
0.215
0.2
0.215
0.255
0.24
0.23
0.205
0.195
0.18
0.22
0.205
0.22
0.235
0.24
0.25
0.205
0.155
0.195
0.215
0.195
0.21
0.21
0.225
0.245
0.24
0.225
0.24
0.205
0.195
0.225
0.205
0.22
0.205
0.21
0.245
0.245
0.235
0.225
0.245
0.215
0.21
0.22
0.245
0.24
0.245
0.23
0.21
0.19
0.22
0.2
0.225
0.19
0.215
0.235
0.195
0.195
0.23
0.235
0.205
0.175
0.21
0.23
0.185
0.24
0.235
0.215
0.185
0.2
0.18
0.21
0.25
0.245
0.21
0.25
0.24
0.2
0.21
0.2
0.23
0.23
0.225
0.205
0.2
0.21
0.21
0.215
0.235
0.2
0.23
0.205
0.165
0.19
0.21
0.185
0.185
0.18
0.18
0.215
0.165
0.22
0.225
0.185
0.21
0.23
0.19
0.15
0.18
0.21
0.205
0.21
0.19
0.16
0.2
0.215
0.225
0.19
0.2
0.17
0.21
0.195
0.2
0.185
0.185
0.2
0.19
0.17
0.19
0.19
0.195
0.195
0.21
0.17
0.195
0.215
0.185
0.19
0.18
0.17
0.17
0.155
0.16
0.185
0.225
0.21
0.175
0.195
0.21
0.19
0.175
0.185
0.175
0.155
0.19
0.195
0.16
0.245
0.23
0.23
0.235
0.18
0.16
0.175
0.23
0.205
0.145
0.195
0.185
0.145
0.155
0.175
0.195
0.175
0.195
0.165
0.185
0.175
0.165
0.195
0.19
0.18
0.205
0.2
0.17
0.21
0.215
0.205
0.205
0.19
0.17
0.175
0.205
0.225
0.235
0.27
0.2
0.155
0.21
0.23
0.195
0.185
0.25
0.21
0.215
0.245
0.22
0.225
0.205
0.2
0.235
0.185
0.195
0.18
0.24
0.22
0.205
0.195
0.22
0.215
0.215
0.22
0.195
0.21
0.21
0.2
0.195
0.205
0.195
0.155
0.165
0.155
0.14
0.165
0.175
0.18
0.175
0.13
0.125
0.115
0.125
0.17
0.17
0.17
0.185
0.165
0.165
0.175
0.175
0.14
0.195
0.19
0.16
0.15
0.145
0.1
0.065
-0.005
-0.045
-0.065
-0.02
0.035
0.125
0.255
0.41
0.475
0.56
0.71
0.865
0.975
1.15
1.31
1.46
1.62
1.79
1.825
1.86
1.83
1.705
1.485
1.29
0.925
0.625
0.425
0.295
0.275
0.225
0.14
0.14
0.205
0.185
0.18
0.165
0.165
0.19
0.19
0.23
0.265
0.23
0.185
0.165
0.185
0.2
0.23
0.195
0.195
0.24
0.21
0.2
0.205
0.2
0.21
0.19
0.195
0.225
0.22
0.22
0.2
0.19
0.205
0.215
0.2
0.235
0.255
0.24
0.235
0.22
0.22
0.21
0.21
0.22
0.205
0.205
0.255
0.265
0.26
0.235
0.25
0.275
0.265
0.265
0.25
0.235
0.29
0.305
0.315
0.31
0.365
0.295
0.275
0.315
0.34
0.305
0.295
0.295
0.335
0.355
0.345
0.38
0.375
0.405
0.41
0.39
0.415
0.435
0.43
0.45
0.45
0.405
0.46
0.485
0.515
0.49
0.525
0.51
0.495
0.565
0.585
0.585
0.595
0.57
0.585
0.635
0.62
0.63
0.63
0.645
0.66
0.645
0.635
0.665
0.685
0.65
0.655
0.645
0.625
0.6
0.605
0.57
0.535
0.6
0.565
0.525
0.51
0.485
0.48
0.46
0.41
0.39
0.355
0.34
0.335
0.345
0.315
0.3
0.285
0.25
0.26
0.245
0.24
0.23
0.225
0.205
0.24
0.205
0.175
0.215
0.23
0.185
0.185
0.195
0.18
0.18
0.23
0.195
0.205
0.165
0.145
0.165
0.19
0.17
0.185
0.19
0.2
0.18
0.19
0.165
0.165
0.165
0.165
0.165
0.17
0.185
0.165
0.17
0.215
0.195
0.155
0.16
0.145
0.115
0.215
0.235
0.23
0.215
0.2
0.2
0.135
0.14
0.225
0.18
0.16
0.19
0.17
0.18
0.19
0.19
0.16
0.16
0.155
0.18
0.17
0.19
0.18
0.195
0.18
0.18
0.14
0.175
0.185
0.175
0.195
0.225
0.21
0.2
0.22
0.18
0.125
0.17
0.18
0.19
0.2
0.21
0.215
0.18
0.17
0.18
0.175
0.185
0.195
0.205
0.2
0.195
0.21
0.185
0.18
0.2
0.165
0.17
0.185
0.17
0.205
0.205
0.15
0.175
0.21
0.22
0.2
0.205
0.235
0.205
0.22
0.215
0.195
0.195
0.195
0.2
0.19
0.19
0.24
0.185
0.22
0.255
0.225
0.22
0.2
0.18
0.155
0.23
0.205
0.2
0.255
0.22
0.195
0.22
0.215
0.225
0.19
0.195
0.225
0.21
0.21
0.2
0.23
0.185
0.185
0.23
0.17
0.215
0.25
0.245
0.24
0.23
0.215
0.22
0.21
0.235
0.22
0.2
0.205
0.22
0.235
0.21
0.225
0.24
0.24
0.23
0.2
0.255
0.27
0.185
0.23
0.245
0.235
0.23
0.255
0.225
0.205
0.225
0.25
0.23
0.225
0.28
0.26
0.26
0.27
0.245
0.24
0.205
0.245
0.225
0.2
0.265
0.275
0.235
0.265
0.265
0.235
0.26
0.27
0.26
0.235
0.24
0.25
0.265
0.275
0.25
0.245
0.255
0.275
0.285
0.295
0.29
0.27
0.24
0.29
0.305
0.245
0.29
0.275
0.255
0.3
0.31
0.255
0.27
0.295
0.245
0.265
0.31
0.265
0.265
0.32
0.295
0.305
0.28
0.275
0.29
0.28
0.235
0.245
0.265
0.305
0.255
0.31
0.345
0.35
0.32
0.29
0.275
0.3
0.315
0.315
0.31
0.315
0.29
0.315
0.28
0.29
0.32
0.295
0.315
0.33
0.33
0.33
0.315
0.325
0.32
0.315
0.37
0.32
0.315
0.335
0.33
0.33
0.335
0.365
0.33
0.35
0.37
0.345
0.37
0.365
0.365
0.365
0.375
0.375
0.365
0.395
0.415
0.35
0.375
0.41
0.36
0.405
0.385
0.385
0.37
0.4
0.375
0.37
0.355
0.385
0.415
0.41
0.365
0.4
0.39
0.405
0.385
0.395
0.42
0.435
0.425
0.405
0.405
0.385
0.365
0.38
0.39
0.355
0.38
0.37
0.36
0.35
0.34
0.35
0.33
0.35
0.35
0.375
0.34
0.375
0.385
0.38
0.385
0.37
0.315
0.355
0.42
0.385
0.4
0.38
0.355
0.355
0.34
0.305
0.235
0.22
0.185
0.175
0.24
0.25
0.33
0.465
0.55
0.675
0.77
0.925
1.085
1.23
1.38
1.53
1.685
1.855
2.025
2.1
2.21
2.16
2.07
1.845
1.64
1.335
0.995
0.75
0.62
0.52
0.51
0.47
0.435
0.44
0.455
0.475
0.44
0.455
0.49
0.485
0.515
0.49
0.465
0.475
0.5
0.5
0.48
0.505
0.51
0.5
0.505
0.465
0.49
0.485
0.52
0.51
0.49
0.5
0.53
0.505
0.515
0.5
0.525
0.535
0.58
0.575
0.535
0.52
0.555
0.545
0.55
0.535
0.525
0.55
0.625
0.63
0.595
0.6
0.58
0.575
0.6
0.59
0.615
0.59
0.625
0.625
0.605
0.655
0.665
0.66
0.68
0.67
0.64
0.665
0.72
0.675
0.645
0.675
0.695
0.7
0.735
0.7
0.75
0.775
0.79
0.775
0.79
0.795
0.79
0.79
0.79
0.84
0.87
0.855
0.88
0.9
0.88
0.915
0.915
0.95
0.98
0.94
0.975
0.99
1.0
1.01
1.01
1.055
1.025
1.025
1.035
1.06
1.075
1.08
1.085
1.065
1.07
1.07
1.06
1.035
1.09
1.025
0.99
1.005
1.02
1.0
0.995
0.98
0.915
0.925
0.885
0.855
0.83
0.86
0.865
0.84
0.8
0.73
0.71
0.695
0.705
0.73
0.7
0.705
0.685
0.695
0.68
0.68
0.67
0.65
0.67
0.7
0.66
0.675
0.66
0.66
0.615
0.65
0.645
0.66
0.635
0.66
0.655
0.64
0.63
0.625
0.605
0.625
0.68
0.665
0.635
0.615
0.64
0.655
0.67
0.655
0.64
0.63
0.675
0.685
0.67
0.68
0.66
0.68
0.66
0.675
0.69
0.69
0.665
0.61
0.665
0.625
0.665
0.69
0.71
0.685
0.665
0.67
0.66
0.68
0.665
0.675
0.68
0.69
0.655
0.67
0.725
0.68
0.66
0.7
0.7
0.71
0.725
0.665
0.67
0.675
0.68
0.69
0.73
0.695
0.675
0.665
0.66
0.705
0.72
0.71
0.725
0.7
0.705
0.685
0.71
0.73
0.71
0.7
0.73
0.71
0.715
0.72
0.68
0.68
0.695
0.715
0.715
0.715
0.715
0.705
0.705
0.73
0.675
0.69
0.735
0.72
0.725
0.735
0.71
0.695
0.7
0.66
0.69
0.74
0.715
0.71
0.725
0.75
0.74
0.71
0.695
0.705
0.695
0.7
0.655
0.695
0.75
0.755
0.72
0.7
0.705
0.705
0.71
0.715
0.7
0.685
0.695
0.75
0.755
0.74
0.695
0.72
0.705
0.72
0.745
0.685
0.7
0.78
0.745
0.745
0.71
0.7
0.715
0.71
0.705
0.705
0.745
0.745
0.725
0.72
0.72
0.75
0.7
0.735
0.71
0.7
0.725
0.755
0.73
0.71
0.72
0.75
0.73
0.765
0.75
0.74
0.755
0.76
0.715
0.74
0.765
0.715
0.71
0.72
0.705
0.715
0.75
0.74
0.725
0.735
0.765
0.74
0.73
0.7
0.74
0.74
0.76
0.74
0.715
0.715
0.735
0.755
0.73
0.73
0.705
0.705
0.79
0.775
0.715
0.74
0.77
0.735
0.74
0.725
0.725
0.75
0.75
0.73
0.74
0.76
0.735
0.735
0.75
0.71
0.72
0.76
0.76
0.72
0.75
0.77
0.735
0.715
0.76
0.76
0.735
0.745
0.745
0.745
0.75
0.735
0.745
0.73
0.725
0.735
0.725
0.735
0.74
0.715
0.74
0.76
0.72
0.755
0.725
0.745
0.76
0.76
0.75
0.71
0.755
0.79
0.755
0.775
0.8
0.725
0.695
0.74
0.745
0.745
0.735
0.755
0.8
0.75
0.74
0.725
0.73
0.75
0.795
0.76
0.77
0.775
0.76
0.73
0.77
0.745
0.73
0.765
0.77
0.765
0.735
0.705
0.72
0.75
0.755
0.8
0.8
0.78
0.74
0.74
0.785
0.77
0.77
0.795
0.815
0.815
0.81
0.815
0.83
0.79
0.77
0.78
0.785
0.82
0.81
0.775
0.765
0.815
0.83
0.805
0.785
0.79
0.78
0.735
0.74
0.715
0.725
0.78
0.775
0.785
0.785
0.795
0.77
0.81
0.795
0.76
0.775
0.755
0.785
0.735
0.68
0.735
0.745
0.72
0.74
0.75
0.71
0.745
0.78
0.765
0.72
0.73
0.69
0.725
0.735
0.72
0.725
0.725
0.72
0.76
0.725
0.705
0.695
0.72
0.715
0.685
0.67
0.64
0.59
0.575
0.5
0.535
0.53
0.53
0.7
0.765
0.925
1.05
1.125
1.27
1.45
1.585
1.715
1.875
2.07
2.265
2.41
2.52
2.51
2.48
2.345
2.155
1.95
1.595
1.225
1.045
0.905
0.835
0.785
0.785
0.765
0.71
0.71
0.78
0.76
0.78
0.775
0.79
0.795
0.79
0.79
0.775
0.765
0.785
0.8
0.78
0.735
0.78
0.755
0.795
0.78
0.75
0.77
0.82
0.8
0.775
0.8
0.82
0.805
0.77
0.765
0.805
0.805
0.805
0.78
0.81
0.82
0.84
0.835
0.81
0.815
0.825
0.825
0.815
0.825
0.82
0.875
0.85
0.825
0.82
0.84
0.82
0.82
0.86
0.87
0.855
0.855
0.88
0.905
0.905
0.87
0.87
0.9
0.905
0.945
0.905
0.895
0.91
0.91
0.915
0.96
0.97
0.935
0.925
0.995
0.97
1.005
0.99
1.0
1.0
1.04
1.07
1.035
1.04
1.055
1.055
1.13
1.16
1.145
1.16
1.155
1.175
1.185
1.21
1.205
1.215
1.215
1.23
1.265
1.215
1.265
1.215
1.225
1.25
1.175
1.195
1.245
1.235
1.21
1.21
1.2
1.16
1.14
1.135
1.08
1.06
1.085
1.095
1.055
1.0
0.945
0.935
0.92
0.965
0.965
0.94
0.91
0.9
0.895
0.855
0.82
0.785
0.83
0.815
0.75
0.785
0.82
0.775
0.81
0.765
0.795
0.785
0.74
0.74
0.77
0.755
0.785
0.765
0.735
0.74
0.74
0.69
0.74
0.79
0.755
0.765
0.75
0.735
0.75
0.725
0.735
0.715
0.715
0.775
0.76
0.71
0.705
0.755
0.735
0.745
0.795
0.735
0.735
0.745
0.765
0.755
0.765
0.745
0.765
0.745
0.69
0.755
0.755
0.71
0.695
0.72
0.745
0.725
0.695
0.705
0.725
0.73
0.725
0.72
0.7
0.74
0.755
0.76
0.7
0.715
0.7
0.695
0.7
0.69
0.65
0.695
0.74
0.715
0.7
0.715
0.725
0.69
0.725
0.73
0.7
0.65
0.74
0.755
0.725
0.7
0.67
0.695
0.68
0.685
0.675
0.735
0.71
0.69
0.71
0.71
0.7
0.7
0.685
0.685
0.715
0.695
0.69
0.7
0.64
0.665
0.67
0.68
0.69
0.665
0.66
0.685
0.67
0.64
0.655
0.66
0.625
0.66
0.67
0.64
0.68
0.695
0.64
0.645
0.645
0.69
0.705
0.69
0.645
0.655
0.64
0.65
0.67
0.665
0.64
0.68
0.63
0.62
0.61
0.595
0.63
0.68
0.66
0.67
0.65
0.625
0.64
0.66
0.675
0.68
0.61
0.635
0.625
0.605
0.635
0.665
0.645
0.665
0.66
0.625
0.62
0.67
0.645
0.645
0.615
0.6
0.63
0.65
0.61
0.63
0.66
0.645
0.635
0.59
0.59
0.635
0.655
0.63
0.6
0.595
0.65
0.675
0.645
0.645
0.69
0.64
0.595
0.635
0.61
0.63
0.66
0.635
0.59
0.62
0.62
0.655
0.63
0.6
0.61
0.65
0.62
0.655
0.62
0.6
0.61
0.635
0.63
0.625
0.63
0.62
0.63
0.67
0.67
0.65
0.59
0.57
0.61
0.585
0.59
0.64
0.655
0.615
0.56
0.58
0.595
0.635
0.665
0.65
0.61
0.64
0.62
0.605
0.6
0.63
0.625
0.64
0.62
0.615
0.63
0.55
0.59
0.63
0.64
0.615
0.625
0.615
0.615
0.595
0.575
0.635
0.62
0.62
0.615
0.595
0.67
0.6
0.615
0.61
0.625
0.59
0.57
0.565
0.61
0.635
0.625
0.605
0.61
0.625
0.66
0.605
0.6
0.585
0.575
0.62
0.62
0.59
0.61
0.615
0.585
0.57
0.645
0.6
0.58
0.61
0.63
0.595
0.59
0.605
0.595
0.64
0.6
0.585
0.595
0.58
0.6
0.635
0.665
0.625
0.59
0.605
0.64
0.625
0.625
0.605
0.6
0.63
0.645
0.64
0.625
0.595
0.685
0.67
0.685
0.655
0.675
0.655
0.655
0.68
0.66
0.635
0.6
0.63
0.625
0.605
0.59
0.63
0.65
0.67
0.7
0.67
0.655
0.61
0.64
0.64
0.64
0.605
0.56
0.525
0.62
0.585
0.595
0.57
0.585
0.585
0.575
0.605
0.59
0.575
0.625
0.545
0.58
0.595
0.6
0.54
0.56
0.53
0.555
0.575
0.575
0.59
0.605
0.545
0.55
0.54
0.52
0.52
0.515
0.445
0.405
0.4
0.395
0.39
0.415
0.51
0.595
0.71
0.845
0.925
1.08
1.275
1.435
1.56
1.68
1.86
2.035
2.175
2.18
2.235
2.225
2.035
1.885
1.59
1.21
0.9
0.73
0.605
0.545
0.525
0.54
0.56
0.535
0.515
0.45
0.44
0.53
0.57
0.58
0.67
0.62
0.635
0.61
0.555
0.59
0.63
0.54
0.61
0.585
0.57
0.525
0.55
0.595
0.605
0.58
0.605
0.61
0.55
0.57
0.58
0.585
0.66
0.685
0.665
0.595
0.575
0.565
0.595
0.64
0.59
0.595
0.625
0.585
0.645
0.685
0.665
0.565
0.66
0.595
0.5
0.64
0.68
0.715
0.695
0.685
0.705
0.7
0.68
0.685
0.67
0.66
0.68
0.715
0.74
0.72
0.715
0.69
0.705
0.695
0.735
0.785
0.795
0.71
0.745
0.79
0.785
0.86
0.795
0.83
0.855
0.835
0.89
0.84
0.78
0.86
0.82
0.865
0.905
0.965
0.98
1.02
1.015
0.975
0.93
0.96
0.99
1.0
0.975
1.015
0.995
0.995
1.095
1.085
1.065
1.03
1.095
1.085
1.03
1.045
0.895
0.93
1.025
0.97
0.96
0.95
0.885
0.865
0.865
0.84
0.795
0.795
0.775
0.755
0.735
0.7
0.69
0.66
0.6
0.625
0.705
0.64
0.635
0.61
0.565
0.565
0.54
0.585
0.605
0.58
0.605
0.61
0.58
0.515
0.58
0.585
0.59
0.62
0.6
0.605
0.515
0.475
0.55
0.59
0.56
0.47
0.475
0.54
0.545
0.49
0.54
0.57
0.51
0.47
0.455
0.485
0.505
0.545
0.515
0.575
0.54
0.585
0.56
0.525
0.495
0.515
0.485
0.495
0.59
0.56
0.54
0.5
0.515
0.49
0.52
0.535
0.495
0.495
0.515
0.505
0.54
0.515
0.54
0.525
0.52
0.55
0.54
0.535
0.54
0.53
0.56
0.57
0.505
0.505
0.495
0.52
0.455
0.42
0.495
0.54
0.61
0.535
0.51
0.545
0.535
0.5
0.46
0.53
0.515
0.53
0.5
0.5
0.53
0.475
0.53
0.485
0.455
0.505
0.505
0.47
0.53
0.555
0.515
0.52
0.475
0.5
0.465
0.475
0.425
0.44
0.53
0.48
0.445
0.46
0.53
0.535
0.54
0.445
0.43
0.485
0.47
0.46
0.475
0.45
0.435
0.505
0.485
0.47
0.48
0.47
0.43
0.51
0.48
0.45
0.46
0.51
0.485
0.49
0.425
0.415
0.42
0.495
0.48
0.425
0.42
0.39
0.405
0.54
0.53
0.505
0.455
0.48
0.44
0.42
0.54
0.495
0.435
0.45
0.42
0.405
0.495
0.51
0.44
0.43
0.48
0.445
0.475
0.48
0.46
0.43
0.465
0.535
0.5
0.4
0.365
0.375
0.435
0.465
0.465
0.495
0.475
0.405
0.435
0.47
0.395
0.41
0.44
0.47
0.415
0.445
0.515
0.515
0.435
0.435
0.495
0.48
0.46
0.485
0.485
0.46
0.5
0.48
0.45
0.425
0.45
0.46
0.465
0.44
0.44
0.425
0.455
0.455
0.485
0.465
0.42
0.415
0.44
0.42
0.44
0.475
0.515
0.445
0.42
0.445
0.415
0.385
0.43
0.46
0.485
0.43
0.475
0.405
0.395
0.465
0.445
0.415
0.345
0.4
0.495
0.53
0.46
0.375
0.395
0.415
0.465
0.405
0.405
0.395
0.395
0.47
0.495
0.43
0.365
0.415
0.41
0.43
0.46
0.475
0.415
0.395
0.395
0.365
0.47
0.455
0.435
0.43
0.435
0.435
0.455
0.44
0.42
0.43
0.375
0.39
0.39
0.385
0.415
0.45
0.44
0.43
0.44
0.425
0.4
0.45
0.445
0.415
0.385
0.395
0.355
0.365
0.395
0.38
0.385
0.375
0.375
0.35
0.4
0.38
0.385
0.32
0.31
0.285
0.315
0.355
0.34
0.4
0.445
0.33
0.35
0.36
0.375
0.39
0.345
0.32
0.29
0.255
0.23
0.25
0.185
0.17
0.18
0.19
0.275
0.435
0.495
0.59
0.65
0.7
0.88
1.065
1.21
1.36
1.525
1.68
1.775
1.86
1.905
1.85
1.73
1.58
1.405
1.075
0.705
0.535
0.415
0.44
0.405
0.37
0.33
0.33
0.355
0.325
0.305
0.36
0.3
0.355
0.375
0.35
0.35
0.35
0.32
0.35
0.35
0.355
0.35
0.4
0.365
0.33
0.365
0.435
0.405
0.35
0.37
0.375
0.37
0.375
0.36
0.36
0.415
0.435
0.395
0.345
0.36
0.42
0.325
0.36
0.365
0.45
0.475
0.46
0.405
0.35
0.39
0.41
0.36
0.385
0.42
0.445
0.44
0.45
0.435
0.385
0.415
0.43
0.425
0.445
0.465
0.48
0.425
0.39
0.41
0.425
0.565
0.51
0.51
0.495
0.5
0.5
0.49
0.515
0.51
0.565
0.54
0.535
0.5
0.545
0.565
0.565
0.635
0.69
0.665
0.665
0.655
0.595
0.65
0.705
0.665
0.665
0.665
0.775
0.77
0.745
0.79
0.755
0.745
0.75
0.725
0.705
0.775
0.785
0.775
0.79
0.735
0.79
0.77
0.74
0.785
0.775
0.685
0.665
0.71
0.71
0.695
0.62
0.565
0.6
0.57
0.505
0.475
0.505
0.47
0.46
0.475
0.485
0.45
0.44
0.395
0.41
0.445
0.365
0.35
0.355
0.37
0.365
0.365
0.365
0.35
0.315
0.325
0.315
0.29
0.3
0.325
0.345
0.31
0.3
0.3
0.31
0.315
0.345
0.31
0.315
0.335
0.31
0.28
0.305
0.265
0.34
0.325
0.285
0.265
0.27
0.265
0.305
0.39
0.365
0.3
0.23
0.295
0.36
0.34
0.325
0.305
0.295
0.275
0.24
0.33
0.33
0.31
0.315
0.285
0.265
0.27
0.23
0.275
0.245
0.295
0.295
0.365
0.285
0.315
0.345
0.355
0.315
0.31
0.28
0.24
0.305
0.32
0.27
0.275
0.335
0.305
0.285
0.3
0.27
0.285
0.295
0.345
0.35
0.35
0.3
0.315
0.29
0.3
0.325
0.315
0.26
0.305
0.315
0.275
0.285
0.31
0.24
0.23
0.24
0.275
0.355
0.395
0.3
0.285
0.325
0.29
0.275
0.3
0.31
0.26
0.235
0.31
0.375
0.32
0.31
0.29
0.255
0.27
0.29
0.28
0.34
0.36
0.325
0.265
0.255
0.28
0.29
0.285
0.29
0.24
0.3
0.325
0.285
0.295
0.29
0.28
0.285
0.25
0.27
0.295
0.26
0.305
0.32
0.265
0.265
0.265
0.275
0.275
0.28
0.305
0.315
0.29
0.305
0.28
0.265
0.26
0.27
0.295
0.225
0.255
0.295
0.32
0.315
0.325
0.295
0.23
0.255
0.28
0.27
0.285
0.3
0.295
0.265
0.255
0.255
0.23
0.28
0.295
0.275
0.29
0.3
0.3
0.265
0.265
0.29
0.26
0.245
0.295
0.25
0.265
0.295
0.265
0.275
0.265
0.28
0.295
0.29
0.28
0.23
0.215
0.315
0.295
0.29
0.275
0.24
0.255
0.26
0.255
0.245
0.265
0.29
0.25
0.215
0.255
0.265
0.26
0.215
0.255
0.245
0.27
0.31
0.27
0.26
0.275
0.255
0.29
0.305
0.275
0.295
0.31
0.295
0.295
0.26
0.275
0.295
0.25
0.325
0.335
0.275
0.255
0.36
0.35
0.315
0.25
0.26
0.265
0.31
0.345
0.335
0.325
0.275
0.245
0.29
0.3
0.315
0.295
0.345
0.32
0.31
0.335
0.33
0.29
0.295
0.34
0.365
0.285
0.28
0.28
0.255
0.275
0.29
0.245
0.23
0.275
0.275
0.215
0.22
0.265
0.27
0.285
0.305
0.3
0.245
0.23
0.225
0.225
0.245
0.24
0.25
0.31
0.29
0.28
0.2
0.21
0.23
0.175
0.13
0.115
0.055
0.06
0.085
0.155
0.255
0.28
0.415
0.515
0.615
0.735
0.91
1.015
1.17
1.3
1.445
1.625
1.7
1.81
1.84
1.75
1.635
1.43
1.27
0.945
0.61
0.455
0.345
0.305
0.275
0.235
0.235
0.24
0.22
0.275
0.275
0.21
0.24
0.295
0.3
0.295
0.3
0.345
0.285
0.225
0.25
0.27
0.25
0.22
0.245
0.27
0.315
0.33
0.28
0.285
0.305
0.28
0.245
0.27
0.265
0.27
0.31
0.3
0.305
0.315
0.235
0.3
0.275
0.29
0.295
0.295
0.26
0.305
0.315
0.32
0.31
0.335
0.315
0.32
0.31
0.305
0.305
0.31
0.34
0.38
0.42
0.325
0.34
0.415
0.385
0.385
0.36
0.4
0.405
0.425
0.455
0.435
0.395
0.42
0.435
0.45
0.505
0.47
0.5
0.445
0.45
0.49
0.505
0.525
0.565
0.535
0.505
0.555
0.565
0.58
0.6
0.6
0.61
0.62
0.675
0.665
0.67
0.665
0.63
0.645
0.67
0.66
0.675
0.69
0.705
0.705
0.755
0.73
0.755
0.805
0.785
0.76
0.72
0.71
0.695
0.655
0.675
0.65
0.62
0.655
0.65
0.635
0.575
0.57
0.505
0.505
0.485
0.495
0.44
0.465
0.465
0.39
0.4
0.39
0.385
0.375
0.42
0.39
0.33
0.345
0.315
0.32
0.275
0.33
0.325
0.275
0.28
0.36
0.32
0.3
0.31
0.305
0.315
0.29
0.29
0.265
0.305
0.37
0.295
0.265
0.27
0.285
0.29
0.315
0.305
0.295
0.32
0.26
0.23
0.27
0.315
0.295
0.3
0.34
0.35
0.315
0.29
0.245
0.3
0.275
0.27
0.25
0.29
0.31
0.305
0.305
0.295
0.27
0.29
0.345
0.315
0.28
0.31
0.32
0.295
0.29
0.325
0.295
0.275
0.305
0.31
0.31
0.325
0.26
0.265
0.315
0.305
0.29
0.3
0.305
0.3
0.29
0.31
0.31
0.285
0.28
0.315
0.29
0.27
0.29
0.285
0.26
0.29
0.305
0.275
0.29
0.305
0.315
0.27
0.26
0.29
0.29
0.265
0.35
0.355
0.3
0.285
0.225
0.25
0.33
0.345
0.285
0.28
0.32
0.29
0.305
0.335
0.34
0.28
0.215
0.285
0.315
0.355
0.285
0.29
0.32
0.275
0.29
0.325
0.34
0.35
0.315
0.35
0.345
0.34
0.315
0.35
0.33
0.33
0.335
0.32
0.3
0.325
0.35
0.335
0.35
0.35
0.37
0.335
0.32
0.34
0.31
0.255
0.245
0.33
0.39
0.395
0.345
0.35
0.31
0.3
0.345
0.365
0.365
0.32
0.345
0.375
0.315
0.315
0.36
0.33
0.32
0.35
0.37
0.36
0.39
0.395
0.36
0.37
0.355
0.345
0.365
0.375
0.36
0.36
0.415
0.355
0.34
0.36
0.36
0.325
0.36
0.405
0.355
0.34
0.37
0.375
0.39
0.345
0.39
0.36
0.37
0.4
0.415
0.41
0.425
0.38
0.335
0.375
0.375
0.37
0.335
0.345
0.44
0.435
0.395
0.375
0.385
0.38
0.325
0.345
0.395
0.355
0.33
0.37
0.43
0.39
0.395
0.4
0.39
0.38
0.38
0.375
0.35
0.31
0.37
0.395
0.36
0.355
0.34
0.335
0.37
0.34
0.35
0.36
0.35
0.36
0.345
0.305
0.355
0.36
0.305
0.285
0.3
0.325
0.39
0.42
0.365
0.355
0.315
0.295
0.295
0.34
0.36
0.34
0.37
0.38
0.395
0.38
0.33
0.36
0.375
0.345
0.305
0.34
0.405
0.355
0.335
0.33
0.325
0.33
0.33
0.335
0.3
0.325
0.37
0.365
0.375
0.335
0.38
0.38
0.41
0.345
0.34
0.38
0.37
0.33
0.345
0.335
0.3
0.29
0.31
0.3
0.295
0.305
0.325
0.295
0.295
0.29
0.3
0.26
0.29
0.28
0.255
0.295
0.275
0.31
0.315
0.31
0.255
0.28
0.315
0.32
0.28
0.24
0.285
0.275
0.215
0.15
0.13
0.125
0.08
0.1
0.185
0.33
0.44
0.51
0.63
0.735
0.83
0.96
1.145
1.3
1.435
1.615
1.78
1.905
1.93
1.91
1.87
1.71
1.525
1.285
0.93
0.67
0.48
0.395
0.36
0.34
0.275
0.305
0.34
0.31
0.34
0.38
0.325
0.32
0.34
0.38
0.375
0.345
0.405
0.35
0.345
0.365
0.38
0.39
0.36
0.355
0.32
0.395
0.395
0.315
0.33
0.365
0.38
0.34
0.345
0.34
0.32
0.32
0.375
0.425
0.415
0.425
0.42
0.385
0.395
0.405
0.37
0.39
0.395
0.405
0.36
0.46
0.515
0.445
0.45
0.47
0.435
0.465
0.455
0.47
0.48
0.52
0.485
0.5
0.49
0.455
0.45
0.465
0.515
0.555
0.545
0.545
0.535
0.505
0.535
0.52
0.52
0.56
0.55
0.625
0.625
0.63
0.59
0.605
0.635
0.655
0.645
0.625
0.63
0.66
0.745
0.74
0.745
0.715
0.7
0.74
0.76
0.755
0.755
0.73
0.8
0.86
0.83
0.83
0.85
0.825
0.815
0.84
0.845
0.85
0.875
0.855
0.835
0.795
0.845
0.85
0.86
0.79
0.76
0.745
0.785
0.735
0.72
0.68
0.66
0.64
0.625
0.61
0.585
0.57
0.585
0.595
0.555
0.485
0.51
0.465
0.45
0.425
0.415
0.475
0.495
0.49
0.445
0.41
0.39
0.345
0.355
0.4
0.42
0.435
0.42
0.37
0.365
0.39
0.385
0.385
0.38
0.355
0.365
0.43
0.42
0.355
0.34
0.365
0.38
0.37
0.395
0.4
0.41
0.415
0.43
0.39
0.41
0.355
0.32
0.365
0.385
0.375
0.365
0.375
0.345
0.37
0.405
0.375
0.37
0.385
0.395
0.38
0.375
0.385
0.38
0.375
0.355
0.35
0.345
0.33
0.34
0.37
0.38
0.385
0.415
0.43
0.355
0.375
0.38
0.31
0.345
0.415
0.4
0.39
0.445
0.395
0.365
0.375
0.405
0.44
0.445
0.435
0.385
0.39
0.415
0.39
0.43
0.4
0.38
0.42
0.415
0.375
0.405
0.38
0.41
0.38
0.395
0.385
0.365
0.37
0.45
0.41
0.42
0.445
0.41
0.395
0.39
0.39
0.39
0.39
0.365
0.4
0.43
0.41
0.41
0.405
0.365
0.34
0.355
0.385
0.455
0.41
0.38
0.415
0.42
0.41
0.415
0.4
0.39
0.405
0.445
0.375
0.375
0.395
0.395
0.4
0.365
0.395
0.39
0.375
0.375
0.405
0.405
0.41
0.385
0.36
0.43
0.41
0.42
0.425
0.385
0.37
0.38
0.355
0.355
0.37
0.395
0.385
0.4
0.36
0.385
0.385
0.365
0.41
0.385
0.38
0.42
0.4
0.405
0.4
0.41
0.335
0.42
0.455
0.445
0.355
0.38
0.385
0.395
0.385
0.375
0.375
0.375
0.425
0.435
0.415
0.415
0.4
0.355
0.375
0.38
0.36
0.39
0.445
0.445
0.435
0.43
0.415
0.4
0.375
0.365
0.41
0.415
0.4
0.39
0.4
0.405
0.485
0.44
0.41
0.39
0.445
0.42
0.45
0.42
0.385
0.445
0.41
0.39
0.4
0.445
0.405
0.4
0.455
0.44
0.415
0.41
0.4
0.4
0.42
0.44
0.4
0.465
0.42
0.425
0.435
0.455
0.395
0.395
0.415
0.42
0.39
0.435
0.455
0.395
0.39
0.425
0.43
0.415
0.375
0.36
0.41
0.435
0.455
0.42
0.465
0.455
0.39
0.37
0.435
0.435
0.435
0.465
0.44
0.44
0.475
0.475
0.46
0.47
0.51
0.495
0.46
0.455
0.47
0.47
0.47
0.465
0.455
0.465
0.49
0.49
0.47
0.445
0.445
0.46
0.45
0.47
0.445
0.455
0.48
0.47
0.43
0.495
0.505
0.44
0.425
0.42
0.45
0.435
0.44
0.43
0.405
0.415
0.46
0.41
0.405
0.42
0.4
0.39
0.395
0.415
0.425
0.45
0.41
0.41
0.435
0.47
0.42
0.385
0.36
0.345
0.4
0.47
0.41
0.42
0.4
0.35
0.335
0.295
0.305
0.295
0.215
0.205
0.3
0.395
0.49
0.65
0.715
0.85
1.035
1.13
1.29
1.435
1.575
1.74
1.92
2.04
2.11
2.14
2.03
1.93
1.785
1.585
1.155
0.87
0.715
0.57
0.5
0.41
0.425
0.52
0.505
0.44
0.42
0.405
0.435
0.47
0.435
0.495
0.485
0.46
0.47
0.47
0.435
0.445
0.455
0.465
0.45
0.43
0.425
0.415
0.4
0.445
0.48
0.515
0.435
0.425
0.45
0.495
0.48
0.48
0.49
0.485
0.47
0.48
0.475
0.44
0.475
0.47
0.49
0.44
0.53
0.58
0.515
0.485
0.47
0.47
0.475
0.49
0.535
0.485
0.545
0.535
0.53
0.58
0.585
0.52
0.535
0.58
0.53
0.56
0.55
0.595
0.575
0.565
0.58
0.58
0.595
0.57
0.575
0.615
0.625
0.65
0.645
0.64
0.665
0.64
0.67
0.725
0.7
0.66
0.71
0.74
0.745
0.76
0.745
0.76
0.78
0.795
0.79
0.835
0.855
0.815
0.835
0.84
0.83
0.88
0.905
0.925
0.88
0.9
0.91
0.945
0.89
0.835
0.87
0.875
0.865
0.88
0.88
0.855
0.89
0.88
0.86
0.78
0.735
0.72
0.72
0.72
0.695
0.68
0.615
0.64
0.625
0.595
0.615
0.54
0.55
0.565
0.535
0.505
0.49
0.505
0.505
0.49
0.445
0.455
0.47
0.445
0.48
0.47
0.465
0.465
0.47
0.445
0.425
0.42
0.42
0.445
0.47
0.46
0.47
0.455
0.455
0.455
0.42
0.38
0.39
0.4
0.43
0.445
0.46
0.495
0.455
0.455
0.385
0.365
0.41
0.435
0.41
0.43
0.465
0.435
0.395
0.435
0.44
0.44
0.42
0.445
0.39
0.405
0.445
0.465
0.42
0.43
0.415
0.42
0.465
0.45
0.415
0.455
0.445
0.44
0.445
0.5
0.515
0.43
0.4
0.455
0.46
0.425
0.44
0.44
0.46
0.465
0.455
0.475
0.495
0.455
0.44
0.46
0.485
0.49
0.435
0.41
0.43
0.415
0.455
0.455
0.435
0.445
0.49
0.455
0.475
0.44
0.46
0.455
0.485
0.455
0.43
0.46
0.465
0.485
0.485
0.445
0.415
0.45
0.46
0.475
0.465
0.44
0.44
0.44
0.46
0.495
0.475
0.405
0.41
0.425
0.435
0.47
0.46
0.425
0.45
0.45
0.425
0.44
0.495
0.485
0.49
0.46
0.44
0.455
0.44
0.445
0.435
0.455
0.43
0.415
0.44
0.465
0.495
0.435
0.395
0.45
0.47
0.47
0.455
0.435
0.48
0.465
0.485
0.49
0.485
0.49
0.44
0.475
0.515
0.475
0.465
0.49
0.46
0.42
0.44
0.475
0.44
0.4
0.46
0.465
0.465
0.48
0.48
0.48
0.445
0.44
0.425
0.45
0.455
0.455
0.445
0.45
0.435
0.445
0.445
0.43
0.41
0.41
0.425
0.445
0.47
0.41
0.425
0.4
0.41
0.445
0.43
0.485
0.435
0.42
0.46
0.455
0.44
0.455
0.45
0.46
0.41
0.42
0.46
0.425
0.405
0.425
0.43
0.44
0.42
0.4
0.38
0.37
0.455
0.405
0.405
0.445
0.44
0.45
0.44
0.455
0.44
0.39
0.41
0.47
0.44
0.405
0.41
0.395
0.375
0.375
0.425
0.465
0.45
0.425
0.42
0.445
0.46
0.46
0.475
0.43
0.43
0.44
0.47
0.465
0.485
0.465
0.465
0.5
0.535
0.475
0.455
0.495
0.475
0.465
0.49
0.475
0.465
0.42
0.445
0.47
0.46
0.505
0.465
0.465
0.485
0.5
0.495
0.465
0.465
0.42
0.43
0.43
0.46
0.47
0.485
0.455
0.415
0.415
0.38
0.385
0.41
0.41
0.4
0.37
0.38
0.425
0.395
0.395
0.405
0.345
0.41
0.42
0.425
0.43
0.435
0.37
0.375
0.37
0.34
0.365
0.34
0.315
0.27
0.245
0.28
0.205
0.175
0.24
0.295
0.415
0.485
0.56
0.715
0.95
1.105
1.225
1.375
1.53
1.68
1.84
2.005
2.105
2.145
2.11
2.03
1.81
1.595
1.255
0.91
0.705
0.61
0.5
0.415
0.37
0.38
0.42
0.4
0.335
0.345
0.365
0.43
0.44
0.445
0.46
0.435
0.365
0.4
0.415
0.43
0.275
0.31
0.42
0.39
0.395
0.4
0.4
0.415
0.42
0.43
0.38
0.37
0.41
0.385
0.395
0.415
0.365
0.415
0.44
0.445
0.4
0.42
0.415
0.4
0.44
0.45
0.405
0.445
0.455
0.415
0.39
0.43
0.445
0.47
0.46
0.45
0.45
0.435
0.47
0.465
0.455
0.46
0.475
0.45
0.455
0.465
0.47
0.54
0.535
0.54
0.515
0.53
0.55
0.595
0.535
0.545
0.555
0.56
0.575
0.555
0.565
0.6
0.59
0.61
0.645
0.66
0.65
0.635
0.655
0.71
0.695
0.685
0.7
0.69
0.765
0.77
0.74
0.755
0.785
0.775
0.765
0.78
0.745
0.785
0.89
0.855
0.835
0.83
0.82
0.835
0.8
0.815
0.775
0.75
0.85
0.8
0.785
0.795
0.75
0.74
0.73
0.655
0.635
0.64
0.645
0.61
0.595
0.545
0.515
0.5
0.49
0.51
0.49
0.465
0.47
0.42
0.4
0.405
0.405
0.405
0.44
0.435
0.37
0.38
0.38
0.365
0.35
0.365
0.345
0.345
0.345
0.375
0.345
0.285
0.325
0.345
0.32
0.325
0.335
0.305
0.315
0.34
0.35
0.345
0.375
0.345
0.335
0.395
0.335
0.315
0.335
0.29
0.335
0.375
0.345
0.345
0.335
0.32
0.32
0.3
0.315
0.34
0.345
0.36
0.315
0.33
0.33
0.35
0.335
0.3
0.29
0.295
0.355
0.335
0.29
0.275
0.285
0.285
0.32
0.265
0.33
0.315
0.34
0.355
0.325
0.3
0.31
0.33
0.345
0.305
0.275
0.27
0.355
0.34
0.315
0.29
0.33
0.29
0.285
0.275
0.35
0.34
0.29
0.28
0.325
0.315
0.31
0.285
0.28
0.31
0.355
0.33
0.285
0.285
0.29
0.275
0.305
0.245
0.28
0.26
0.315
0.315
0.285
0.285
0.29
0.295
0.315
0.31
0.27
0.235
0.28
0.325
0.29
0.265
0.3
0.28
0.295
0.33
0.26
0.245
0.27
0.265
0.26
0.3
0.295
0.305
0.29
0.28
0.24
0.285
0.275
0.3
0.305
0.235
0.255
0.29
0.28
0.22
0.215
0.275
0.31
0.32
0.295
0.3
0.27
0.265
0.26
0.215
0.225
0.235
0.27
0.31
0.28
0.295
0.29
0.25
0.28
0.26
0.275
0.305
0.26
0.195
0.18
0.265
0.27
0.275
0.265
0.245
0.225
0.23
0.27
0.215
0.25
0.31
0.24
0.24
0.23
0.195
0.26
0.3
0.285
0.24
0.18
0.29
0.275
0.225
0.25
0.255
0.24
0.29
0.27
0.21
0.265
0.275
0.25
0.245
0.26
0.195
0.21
0.235
0.27
0.255
0.225
0.24
0.3
0.275
0.245
0.25
0.19
0.22
0.245
0.215
0.225
0.26
0.25
0.28
0.285
0.26
0.245
0.255
0.275
0.26
0.3
0.3
0.295
0.3
0.27
0.26
0.26
0.26
0.27
0.285
0.315
0.29
0.3
0.285
0.275
0.235
0.215
0.285
0.29
0.235
0.28
0.265
0.205
0.225
0.29
0.21
0.235
0.215
0.225
0.27
0.325
0.285
0.245
0.2
0.22
0.27
0.21
0.24
0.215
0.17
0.235
0.26
0.2
0.205
0.195
0.22
0.185
0.19
0.21
0.21
0.25
0.215
0.21
0.215
0.155
0.13
0.14
0.135
0.13
0.105
0.05
0.015
0.03
-0.005
0.065
0.1
0.205
0.305
0.41
0.52
0.66
0.78
0.93
1.085
1.225
1.33
1.555
1.775
1.855
1.89
1.845
1.765
1.625
1.44
1.08
0.69
0.465
0.315
0.22
0.18
0.145
0.145
0.125
0.16
0.135
0.145
0.17
0.2
0.195
0.18
0.2
0.245
0.23
0.18
0.185
0.22
0.195
0.185
0.21
0.185
0.21
0.18
0.175
0.245
0.255
0.19
0.19
0.22
0.21
0.215
0.205
0.205
0.22
0.225
0.175
0.215
0.23
0.22
0.24
0.25
0.205
0.17
0.245
0.3
0.255
0.175
0.175
0.22
0.23
0.245
0.295
0.255
0.22
0.265
0.315
0.32
0.355
0.3
0.28
0.285
0.29
0.31
0.295
0.29
0.28
0.315
0.365
0.385
0.345
0.33
0.33
0.345
0.355
0.39
0.4
0.385
0.4
0.4
0.39
0.415
0.41
0.435
0.475
0.475
0.485
0.485
0.515
0.49
0.55
0.58
0.57
0.555
0.56
0.6
0.6
0.655
0.62
0.595
0.6
0.63
0.68
0.635
0.635
0.655
0.64
0.63
0.615
0.61
0.65
0.62
0.575
0.625
0.645
0.585
0.56
0.495
0.495
0.51
0.485
0.41
0.43
0.42
0.415
0.32
0.295
0.36
0.33
0.25
0.255
0.265
0.22
0.22
0.22
0.21
0.155
0.165
0.185
0.195
0.15
0.165
0.16
0.17
0.22
0.185
0.145
0.11
0.145
0.145
0.155
0.15
0.14
0.11
0.135
0.105
0.13
0.145
0.13
0.13
0.175
0.17
0.12
0.095
0.09
0.165
0.13
0.1
0.1
0.16
0.17
0.165
0.1
0.14
0.13
0.03
0.02
0.16
0.19
0.14
0.11
0.145
0.145
0.15
0.145
0.095
0.12
0.135
0.105
0.09
0.1
0.135
0.125
0.09
0.125
0.135
0.095
0.065
0.08
0.095
0.135
0.155
0.15
0.15
0.185
0.095
0.07
0.125
0.135
0.19
0.16
0.085
0.09
0.1
0.115
0.11
0.115
0.145
0.115
0.125
0.15
0.165
0.155
0.105
0.125
0.125
0.095
0.025
0.07
0.145
0.145
0.135
0.145
0.095
0.05
0.04
0.105
0.175
0.1
0.11
0.125
0.125
0.095
0.06
0.135
0.13
0.1
0.125
0.15
0.11
0.13
0.13
0.11
0.07
0.125
0.13
0.14
0.095
0.05
0.085
0.11
0.135
0.1
0.1
0.075
0.08
0.03
0.1
0.12
0.06
0.125
0.165
0.1
0.035
0.09
0.07
0.05
0.08
0.1
0.11
0.165
0.12
0.04
0.035
0.05
0.06
0.095
0.115
0.13
0.135
0.19
0.115
0.07
0.085
0.035
0.075
0.075
0.105
0.055
0.035
0.095
0.05
0.055
0.075
0.035
0.02
0.095
0.035
0.075
0.17
0.125
0.065
0.025
0.015
0.09
0.12
0.115
0.08
0.08
0.09
0.065
0.1
0.155
0.095
0.065
0.065
0.12
0.135
0.09
0.09
0.105
0.1
0.115
0.185
0.105
0.08
0.11
0.12
0.11
0.06
0.105
0.13
0.125
0.09
0.115
0.105
0.115
0.115
0.125
0.045
0.055
0.04
0.075
0.075
0.075
0.06
0.09
0.085
-0.02
0.02
0.015
0.075
0.045
0.09
0.015
0.005
0.1
0.1
0.08
0.115
0.095
0.08
0.06
0.035
0.025
-0.02
0.065
0.05
0.05
-0.02
-0.04
-0.02
-0.025
-0.07
-0.095
-0.1
-0.1
0.025
0.135
0.24
0.275
0.35
0.545
0.725
0.845
0.91
1.11
1.285
1.45
1.585
1.67
1.71
1.65
1.52
1.31
1.065
0.78
0.475
0.245
0.115
0.09
0.05
0.01
0.01
-0.03
0.035
0.035
0.075
0.065
0.11
0.09
0.09
0.11
0.065
0.06
0.045
0.125
0.13
0.165
0.12
0.05
0.07
0.075
0.09
0.17
0.08
0.145
0.085
0.085
0.12
0.15
0.19
0.155
0.09
0.075
0.075
0.12
0.105
0.075
0.125
0.135
0.16
0.17
0.155
0.16
0.125
0.13
0.135
0.15
0.135
0.195
0.21
0.14
0.1
0.09
0.175
0.195
0.15
0.125
0.215
0.145
0.21
0.22
0.23
0.18
0.135
0.195
0.265
0.28
0.26
0.245
0.285
0.29
0.28
0.23
0.3
0.285
0.26
0.29
0.36
0.395
0.385
0.425
0.42
0.38
0.385
0.405
0.415
0.445
0.44
0.48
0.385
0.425
0.51
0.52
0.535
0.505
0.475
0.485
0.55
0.54
0.495
0.545
0.635
0.595
0.59
0.55
0.565
0.575
0.595
0.54
0.525
0.515
0.485
0.485
0.515
0.475
0.405
0.435
0.385
0.4
0.39
0.335
0.28
0.25
0.25
0.24
0.255
0.21
0.16
0.16
0.15
0.2
0.21
0.14
0.16
0.18
0.11
0.045
0.11
0.11
0.085
0.085
0.115
0.1
0.125
0.11
0.115
0.1
0.095
0.135
0.14
0.16
0.045
0.075
0.09
0.12
0.095
0.065
0.05
0.09
0.08
0.14
0.065
0.08
0.095
0.065
0.05
0.125
0.125
0.08
0.09
0.105
0.065
0.07
0.075
0.09
0.085
0.06
0.105
0.105
0.05
0.05
0.1
0.12
0.11
0.075
-0.005
0.045
0.075
0.1
0.105
0.08
0.095
0.055
0.025
0.095
0.085
0.145
0.15
0.1
0.065
0.09
0.065
0.05
0.105
0.08
0.075
0.09
0.1
0.12
0.115
0.115
0.035
0.04
0.1
0.165
0.125
0.155
0.035
0.045
0.11
0.11
0.07
0.1
0.06
0.055
0.09
0.18
0.145
0.085
0.11
0.095
0.13
0.09
0.095
0.095
0.11
0.125
0.095
0.095
0.06
0.07
0.075
0.055
0.08
0.09
0.065
0.055
0.08
0.12
0.115
0.08
0.01
0.025
0.075
0.1
0.11
0.12
0.115
0.14
0.105
0.115
0.06
0.04
0.075
0.07
0.1
0.09
0.015
0.09
0.105
0.085
0.075
0.06
0.045
0.065
0.16
0.13
0.045
0.045
0.09
0.105
0.07
0.085
0.09
0.08
0.08
0.105
0.105
0.11
0.075
0.08
0.09
0.065
0.07
0.085
0.12
0.13
0.125
0.12
0.09
0.09
0.095
0.12
0.09
0.07
0.17
0.13
0.135
0.12
0.165
0.12
0.08
0.11
0.1
0.105
0.155
0.11
0.1
0.145
0.17
0.135
0.11
0.12
0.11
0.07
0.085
0.09
0.105
0.085
0.055
0.035
0.07
0.07
0.08
0.095
0.09
0.075
0.05
0.075
0.07
0.085
0.11
0.085
0.07
0.045
0.06
0.075
0.015
0.005
-0.015
0.05
0.12
0.105
0.055
0.01
0.02
-0.025
-0.08
-0.135
-0.11
-0.09
-0.06
0.05
0.1
0.18
0.335
0.425
0.57
0.71
0.865
1.0
1.085
1.265
1.435
1.56
1.65
1.72
1.615
1.5
1.37
1.065
0.74
0.475
0.29
0.18
0.095
0.06
0.055
0.07
0.04
0.035
0.02
0.035
0.06
0.075
0.09
0.1
0.135
0.105
0.09
0.1
0.115
0.035
0.015
0.055
0.055
0.08
0.055
0.07
0.1
0.13
0.155
0.14
0.08
0.095
0.11
0.105
0.1
0.085
0.035
0.075
0.11
0.085
0.05
0.085
0.125
0.145
0.11
0.1
0.11
0.115
0.12
0.11
0.1
0.09
0.105
0.135
0.2
0.15
0.115
0.135
0.175
0.19
0.19
0.145
0.18
0.115
0.08
0.19
0.23
0.23
0.27
0.27
0.24
0.235
0.25
0.285
0.23
0.24
0.225
0.275
0.305
0.275
0.275
0.325
0.32
0.34
0.36
0.385
0.35
0.36
0.355
0.36
0.39
0.46
0.445
0.45
0.435
0.445
0.505
0.49
0.475
0.49
0.505
0.54
0.53
0.51
0.51
0.55
0.52
0.525
0.56
0.52
0.52
0.585
0.53
0.48
0.42
0.465
0.44
0.45
0.41
0.36
0.34
0.375
0.365
0.325
0.28
0.25
0.24
0.225
0.2
0.22
0.21
0.205
0.155
0.145
0.18
0.135
0.15
0.13
0.065
0.075
0.135
0.145
0.11
0.12
0.105
0.095
0.065
0.05
0.105
0.065
0.02
0.085
0.125
0.155
0.085
0.06
0.06
0.075
0.095
0.095
0.095
0.07
0.05
0.045
0.085
0.065
0.065
0.115
0.085
0.07
0.1
0.105
0.065
0.045
0.09
0.085
0.065
0.075
0.065
0.065
0.08
0.135
0.085
0.025
0.055
0.045
0.06
0.08
0.095
0.06
0.035
0.105
0.125
0.085
0.065
0.08
0.105
0.135
0.08
0.085
0.08
0.1
0.055
0.06
0.035
0.06
0.08
0.06
0.075
0.075
0.105
0.105
0.065
0.04
0.085
0.09
0.075
0.07
0.08
0.075
0.095
0.085
0.065
0.125
0.085
0.045
0.075
0.1
0.05
0.06
0.11
0.115
0.065
0.04
0.125
0.075
0.06
0.075
0.12
0.095
0.085
0.09
0.07
0.09
0.09
0.085
0.075
0.11
0.07
0.07
0.095
0.105
0.07
0.11
0.06
0.015
0.09
0.07
0.025
0.08
0.11
0.09
0.08
0.03
0.08
0.06
0.045
0.06
0.09
0.08
0.115
0.125
0.05
0.06
0.05
0.045
0.04
0.065
0.085
0.11
0.135
0.045
0.065
0.045
0.07
0.065
0.05
0.105
0.08
0.105
0.15
0.145
0.045
0.05
0.04
0.055
0.045
0.08
0.085
0.055
0.08
0.07
0.105
0.07
0.095
0.11
0.11
0.115
0.115
0.125
0.125
0.095
0.135
0.105
0.125
0.11
0.115
0.1
0.115
0.15
0.115
0.06
0.08
0.06
0.1
0.105
0.1
0.11
0.115
0.14
0.12
0.115
0.11
0.09
0.07
0.04
0.07
0.1
0.06
0.05
0.055
0.07
0.05
0.05
0.06
0.055
0.04
0.03
0.03
0.045
0.065
0.095
0.08
0.12
0.055
0.015
0.01
0.005
0.03
0.035
0.03
0.075
0.01
-0.02
-0.03
-0.065
-0.065
-0.05
-0.135
-0.155
-0.1
-0.085
0.045
0.15
0.24
0.29
0.37
0.525
0.695
0.885
1.03
1.165
1.335
1.49
1.595
1.675
1.76
1.68
1.545
1.335
1.15
0.76
0.46
0.245
0.06
0.06
0.11
0.05
0.05
0.06
0.075
0.05
0.06
0.06
0.055
0.1
0.115
0.11
0.075
0.075
0.085
0.05
0.055
0.07
0.07
0.06
0.055
0.04
0.06
0.145
0.13
0.06
0.075
0.08
0.07
0.095
0.11
0.08
0.09
0.06
0.085
0.135
0.12
0.1
0.1
0.075
0.1
0.135
0.12
0.135
0.13
0.11
0.085
0.095
0.075
0.08
0.15
0.15
0.125
0.19
0.165
0.175
0.16
0.115
0.145
0.19
0.17
0.195
0.21
0.19
0.15
0.195
0.22
0.205
0.215
0.21
0.265
0.24
0.225
0.285
0.28
0.275
0.32
0.325
0.285
0.31
0.33
0.31
0.35
0.365
0.355
0.37
0.395
0.4
0.395
0.43
0.425
0.41
0.435
0.485
0.475
0.505
0.51
0.515
0.49
0.555
0.5
0.5
0.535
0.53
0.475
0.545
0.53
0.51
0.495
0.435
0.465
0.47
0.435
0.46
0.435
0.41
0.37
0.31
0.355
0.35
0.31
0.265
0.25
0.23
0.185
0.19
0.175
0.15
0.155
0.175
0.13
0.13
0.11
0.1
0.12
0.06
0.06
0.06
0.08
0.07
0.07
0.035
0.08
0.1
0.075
0.035
0.055
0.085
0.1
0.06
0.025
0.005
0.055
0.03
0.01
0.065
0.1
0.09
0.055
0.06
0.035
0.045
0.025
0.03
0.06
0.04
0.02
0.025
0.04
0.095
0.055
0.04
0.045
0.045
0.065
0.075
0.06
0.05
0.06
0.04
0.025
0.065
0.045
0.045
0.04
0.055
0.055
0.065
0.04
0.045
0.015
0.03
0.05
0.075
0.01
0.02
0.075
0.04
0.065
0.035
0.06
0.09
0.1
0.04
0.045
0.03
0.065
0.065
0.07
0.05
0.065
0.145
0.13
0.005
0.06
0.08
0.04
0.045
0.075
0.09
0.055
0.115
0.05
0.01
0.055
0.05
0.01
0.035
0.05
0.035
0.04
0.055
0.1
0.095
0.075
0.09
0.055
0.03
0.04
0.06
0.065
0.08
0.075
0.03
0.055
0.025
0.065
0.09
0.075
0.08
0.045
0.08
0.07
0.015
0.08
0.09
0.095
0.09
0.075
0.025
0.035
0.05
0.105
0.105
0.075
0.025
0.08
0.1
0.095
0.095
0.09
0.09
0.02
0.0
0.105
0.105
0.06
0.03
0.1
0.055
0.065
0.085
0.125
0.105
0.015
0.03
0.08
0.12
0.12
0.09
-0.015
0.08
0.135
0.11
0.115
0.095
0.09
0.08
0.12
0.1
0.095
0.125
0.075
0.065
0.07
0.04
0.07
0.08
0.04
0.06
0.075
0.05
0.105
0.095
0.09
0.085
0.09
0.14
0.115
0.065
0.01
0.055
0.05
0.065
0.1
0.08
0.055
0.09
0.115
0.08
0.085
0.115
0.115
0.115
0.09
0.075
0.085
0.125
0.075
0.09
0.105
0.11
0.1
0.075
0.095
0.06
0.1
0.075
0.1
0.12
0.135
0.14
0.12
0.17
0.125
0.09
0.075
0.075
0.05
0.08
0.065
0.06
0.08
0.125
0.11
0.115
0.085
0.07
0.09
0.07
0.075
0.135
0.095
0.07
0.095
0.125
0.095
0.09
0.045
0.09
0.14
0.145
0.12
0.075
0.07
0.08
0.135
0.115
0.11
0.06
0.06
0.115
0.115
0.095
0.1
0.06
0.085
0.135
0.125
0.085
0.105
0.085
0.085
0.07
0.06
0.07
0.135
0.09
0.095
0.12
0.105
0.105
0.11
0.1
0.065
0.05
0.075
0.065
0.11
0.115
0.135
0.095
0.1
0.085
0.105
0.1
0.08
0.13
0.135
0.1
0.14
0.105
0.09
0.085
0.135
0.13
0.1
0.105
0.135
0.155
0.15
0.135
0.135
0.125
0.155
0.13
0.125
0.125
0.13
0.11
0.14
0.165
0.155
0.135
0.13
0.11
0.11
0.13
0.115
0.125
0.085
0.08
0.16
0.185
0.165
0.15
0.145
0.155
0.14
0.14
0.18
0.175
0.135
0.12
0.11
0.115
0.125
0.085
0.07
0.1
0.135
0.16
0.105
0.1
0.09
0.075
0.04
0.115
0.12
0.115
0.085
0.07
0.14
0.08
0.075
0.055
0.095
0.1
0.06
0.055
0.085
0.035
-0.005
-0.025
-0.065
-0.09
-0.12
-0.02
0.095
0.155
0.285
0.35
0.445
0.575
0.75
0.955
1.055
1.19
1.35
1.56
1.745
1.81
1.845
1.775
1.695
1.53
1.34
1.075
0.705
0.425
0.315
0.205
0.125
0.135
0.12
0.14
0.165
0.15
0.16
0.155
0.12
0.135
0.15
0.165
0.15
0.13
0.17
0.145
0.12
0.19
0.17
0.145
0.16
0.17
0.15
0.15
0.22
0.21
0.15
0.19
0.165
0.125
0.12
0.15
0.165
0.18
0.16
0.19
0.15
0.19
0.15
0.195
0.22
0.15
0.19
0.205
0.205
0.23
0.235
0.185
0.2
0.185
0.23
0.245
0.25
0.26
0.235
0.22
0.22
0.25
0.235
0.23
0.245
0.265
0.27
0.3
0.335
0.26
0.25
0.31
0.33
0.305
0.305
0.315
0.29
0.35
0.345
0.39
0.38
0.36
0.39
0.39
0.4
0.44
0.43
0.425
0.43
0.43
0.415
0.465
0.485
0.505
0.52
0.58
0.565
0.56
0.58
0.58
0.515
0.57
0.62
0.61
0.64
0.62
0.595
0.615
0.58
0.6
0.645
0.645
0.615
0.63
0.615
0.63
0.61
0.585
0.55
0.545
0.565
0.54
0.53
0.47
0.435
0.415
0.395
0.43
0.395
0.35
0.33
0.36
0.33
0.29
0.285
0.315
0.285
0.265
0.24
