# TIPE ECG 2021 - ECG-ID Database v1.0.0 par Physionet
# [Numéro de la personne, Période d'échantillonnage, Prénom, Age, Sexe, Date de l'enregistrement]
[30, 0.002, Long, 28, H, 12.05.2005]
-0.185
-0.245
-0.22
-0.215
-0.2
-0.24
-0.215
-0.19
-0.185
-0.215
-0.225
-0.18
-0.175
-0.235
-0.195
-0.22
-0.175
-0.18
-0.215
-0.205
-0.225
-0.235
-0.21
-0.19
-0.19
-0.19
-0.19
-0.215
-0.195
-0.22
-0.19
-0.23
-0.155
-0.16
-0.215
-0.19
-0.215
-0.25
-0.225
-0.19
-0.16
-0.15
-0.17
-0.23
-0.225
-0.22
-0.14
-0.17
-0.2
-0.2
-0.195
-0.2
-0.255
-0.22
-0.195
-0.195
-0.18
-0.215
-0.21
-0.21
-0.235
-0.205
-0.205
-0.19
-0.2
-0.185
-0.25
-0.225
-0.17
-0.215
-0.22
-0.2
-0.165
-0.195
-0.145
-0.155
-0.2
-0.265
-0.26
-0.22
-0.24
-0.21
-0.165
-0.22
-0.225
-0.21
-0.18
-0.175
-0.215
-0.25
-0.27
-0.27
-0.21
-0.175
-0.21
-0.2
-0.145
-0.22
-0.185
-0.185
-0.2
-0.185
-0.21
-0.245
-0.24
-0.225
-0.18
-0.18
-0.19
-0.175
-0.25
-0.23
-0.175
-0.185
-0.23
-0.23
-0.24
-0.27
-0.185
-0.145
-0.165
-0.22
-0.195
-0.175
-0.195
-0.2
-0.215
-0.185
-0.15
-0.11
-0.19
-0.205
-0.21
-0.165
-0.22
-0.195
-0.135
-0.135
-0.13
-0.16
-0.175
-0.17
-0.175
-0.155
-0.165
-0.155
-0.22
-0.195
-0.165
-0.175
-0.17
-0.13
-0.135
-0.165
-0.2
-0.18
-0.255
-0.21
-0.165
-0.18
-0.225
-0.235
-0.265
-0.29
-0.255
-0.195
-0.19
-0.23
-0.215
-0.23
-0.31
-0.235
-0.155
-0.185
-0.29
-0.235
-0.195
-0.205
-0.2
-0.145
-0.165
-0.235
-0.25
-0.195
-0.23
-0.295
-0.32
-0.315
-0.315
-0.34
-0.37
-0.455
-0.5
-0.455
-0.335
-0.24
-0.095
0.035
0.09
0.22
0.375
0.555
0.715
0.835
1.035
1.24
1.37
1.465
1.505
1.46
1.235
1.03
0.845
0.48
0.195
-0.035
-0.21
-0.28
-0.275
-0.325
-0.315
-0.295
-0.245
-0.25
-0.27
-0.205
-0.215
-0.28
-0.26
-0.235
-0.185
-0.185
-0.18
-0.225
-0.23
-0.215
-0.275
-0.265
-0.17
-0.235
-0.23
-0.195
-0.205
-0.23
-0.19
-0.235
-0.23
-0.18
-0.205
-0.195
-0.17
-0.19
-0.145
-0.165
-0.185
-0.16
-0.18
-0.155
-0.185
-0.21
-0.13
-0.135
-0.16
-0.145
-0.12
-0.155
-0.14
-0.095
-0.155
-0.185
-0.16
-0.115
-0.085
-0.11
-0.095
-0.13
-0.1
-0.075
-0.1
-0.11
-0.075
-0.035
-0.065
-0.03
-0.075
-0.125
-0.08
-0.065
-0.03
-0.03
-0.065
-0.035
-0.02
0.095
0.165
0.065
0.075
0.13
0.145
0.085
0.075
0.105
0.13
0.16
0.155
0.115
0.15
0.175
0.155
0.195
0.195
0.165
0.16
0.175
0.18
0.14
0.095
0.1
0.13
0.125
0.13
0.145
0.055
0.035
0.08
0.04
0.045
0.05
0.04
-0.04
-0.005
-0.05
-0.105
-0.13
-0.08
-0.06
-0.07
-0.14
-0.185
-0.15
-0.1
-0.135
-0.17
-0.155
-0.18
-0.2
-0.195
-0.215
-0.205
-0.2
-0.18
-0.215
-0.23
-0.205
-0.15
-0.22
-0.22
-0.19
-0.225
-0.275
-0.21
-0.22
-0.195
-0.26
-0.19
-0.175
-0.255
-0.285
-0.225
-0.205
-0.195
-0.18
-0.165
-0.215
-0.195
-0.18
-0.21
-0.18
-0.255
-0.265
-0.23
-0.21
-0.235
-0.25
-0.2
-0.22
-0.195
-0.21
-0.21
-0.195
-0.175
-0.23
-0.25
-0.255
-0.2
-0.215
-0.225
-0.22
-0.205
-0.205
-0.175
-0.25
-0.165
-0.17
-0.175
-0.19
-0.185
-0.23
-0.24
-0.195
-0.165
-0.22
-0.2
-0.24
-0.23
-0.23
-0.185
-0.19
-0.2
-0.22
-0.195
-0.19
-0.215
-0.21
-0.175
-0.23
-0.21
-0.23
-0.305
-0.235
-0.14
-0.16
-0.205
-0.22
-0.185
-0.2
-0.17
-0.23
-0.22
-0.175
-0.155
-0.18
-0.19
-0.195
-0.25
-0.245
-0.22
-0.2
-0.23
-0.155
-0.155
-0.235
-0.215
-0.2
-0.275
-0.285
-0.205
-0.21
-0.22
-0.23
-0.135
-0.15
-0.25
-0.295
-0.23
-0.24
-0.165
-0.245
-0.29
-0.22
-0.23
-0.265
-0.185
-0.22
-0.22
-0.205
-0.24
-0.245
-0.3
-0.26
-0.175
-0.2
-0.22
-0.2
-0.215
-0.235
-0.21
-0.185
-0.225
-0.225
-0.225
-0.225
-0.22
-0.215
-0.25
-0.24
-0.23
-0.235
-0.23
-0.175
-0.18
-0.195
-0.175
-0.145
-0.16
-0.18
-0.185
-0.2
-0.245
-0.225
-0.2
-0.205
-0.16
-0.165
-0.195
-0.2
-0.15
-0.14
-0.15
-0.14
-0.185
-0.2
-0.225
-0.18
-0.2
-0.205
-0.185
-0.24
-0.205
-0.135
-0.17
-0.18
-0.16
-0.195
-0.185
-0.195
-0.245
-0.22
-0.25
-0.255
-0.25
-0.26
-0.27
-0.23
-0.275
-0.21
-0.195
-0.235
-0.285
-0.215
-0.245
-0.25
-0.29
-0.265
-0.315
-0.285
-0.285
-0.33
-0.275
-0.185
-0.265
-0.28
-0.25
-0.355
-0.395
-0.44
-0.42
-0.4
-0.36
-0.155
-0.09
-0.015
0.05
0.165
0.32
0.48
0.635
0.74
0.875
1.07
1.215
1.335
1.4
1.38
1.265
1.095
0.88
0.62
0.25
0.035
-0.145
-0.24
-0.255
-0.28
-0.285
-0.265
-0.21
-0.215
-0.265
-0.26
-0.26
-0.265
-0.255
-0.165
-0.215
-0.21
-0.245
-0.23
-0.195
-0.24
-0.26
-0.25
-0.17
-0.19
-0.2
-0.225
-0.24
-0.255
-0.245
-0.205
-0.225
-0.235
-0.225
-0.18
-0.21
-0.21
-0.17
-0.215
-0.205
-0.195
-0.17
-0.22
-0.1
-0.17
-0.18
-0.16
-0.135
-0.225
-0.15
-0.135
-0.15
-0.175
-0.135
-0.135
-0.165
-0.135
-0.15
-0.22
-0.155
-0.12
-0.135
-0.115
-0.095
-0.145
-0.1
-0.07
-0.055
-0.03
-0.09
-0.125
-0.105
-0.06
-0.03
-0.04
0.015
0.055
-0.02
-0.04
-0.03
0.03
0.01
0.015
-0.005
-0.01
0.11
0.095
0.035
0.095
0.12
0.105
0.135
0.07
0.14
0.135
0.135
0.145
0.14
0.12
0.085
0.07
0.12
0.115
0.12
0.065
0.015
0.035
0.04
0.045
0.045
-0.035
-0.01
0.04
0.025
-0.115
-0.095
-0.1
-0.145
-0.165
-0.135
-0.1
-0.09
-0.13
-0.18
-0.19
-0.18
-0.245
-0.23
-0.165
-0.18
-0.205
-0.205
-0.185
-0.25
-0.23
-0.195
-0.22
-0.245
-0.23
-0.265
-0.225
-0.25
-0.28
-0.24
-0.235
-0.24
-0.23
-0.23
-0.225
-0.27
-0.26
-0.215
-0.19
-0.205
-0.22
-0.24
-0.26
-0.305
-0.285
-0.225
-0.17
-0.135
-0.235
-0.255
-0.235
-0.245
-0.27
-0.26
-0.215
-0.245
-0.245
-0.25
-0.23
-0.23
-0.25
-0.235
-0.235
-0.27
-0.26
-0.215
-0.205
-0.195
-0.2
-0.25
-0.27
-0.24
-0.23
-0.27
-0.2
-0.21
-0.23
-0.28
-0.19
-0.21
-0.255
-0.245
-0.225
-0.26
-0.23
-0.25
-0.24
-0.305
-0.205
-0.215
-0.21
-0.21
-0.24
-0.22
-0.23
-0.26
-0.185
-0.165
-0.22
-0.305
-0.27
-0.27
-0.255
-0.225
-0.145
-0.155
-0.255
-0.27
-0.23
-0.2
-0.21
-0.235
-0.265
-0.235
-0.215
-0.185
-0.18
-0.255
-0.24
-0.24
-0.26
-0.27
-0.25
-0.225
-0.195
-0.235
-0.27
-0.185
-0.19
-0.245
-0.205
-0.22
-0.225
-0.25
-0.2
-0.195
-0.27
-0.325
-0.255
-0.27
-0.225
-0.215
-0.26
-0.265
-0.195
-0.135
-0.175
-0.285
-0.295
-0.225
-0.215
-0.165
-0.27
-0.275
-0.205
-0.255
-0.25
-0.215
-0.21
-0.24
-0.245
-0.22
-0.18
-0.19
-0.195
-0.205
-0.215
-0.17
-0.19
-0.22
-0.2
-0.23
-0.23
-0.25
-0.185
-0.17
-0.14
-0.16
-0.13
-0.195
-0.235
-0.195
-0.23
-0.235
-0.195
-0.14
-0.19
-0.2
-0.17
-0.195
-0.2
-0.18
-0.23
-0.235
-0.18
-0.19
-0.235
-0.215
-0.24
-0.26
-0.235
-0.245
-0.28
-0.24
-0.23
-0.245
-0.24
-0.27
-0.295
-0.255
-0.205
-0.27
-0.295
-0.23
-0.23
-0.285
-0.265
-0.26
-0.35
-0.32
-0.2
-0.225
-0.255
-0.31
-0.375
-0.39
-0.415
-0.385
-0.435
-0.37
-0.305
-0.27
-0.145
0.01
0.05
0.165
0.335
0.53
0.625
0.74
0.905
1.065
1.225
1.3
1.34
1.305
1.205
1.07
0.825
0.575
0.25
0.05
-0.08
-0.215
-0.265
-0.23
-0.28
-0.3
-0.275
-0.125
-0.2
-0.28
-0.26
-0.255
-0.235
-0.185
-0.205
-0.24
-0.26
-0.2
-0.225
-0.22
-0.235
-0.235
-0.23
-0.25
-0.225
-0.205
-0.25
-0.24
-0.235
-0.24
-0.195
-0.145
-0.165
-0.21
-0.175
-0.25
-0.22
-0.21
-0.21
-0.175
-0.22
-0.15
-0.225
-0.235
-0.17
-0.195
-0.18
-0.22
-0.22
-0.225
-0.15
-0.135
-0.17
-0.14
-0.12
-0.115
-0.11
-0.09
-0.155
-0.165
-0.12
-0.1
-0.085
-0.1
-0.08
-0.115
-0.09
-0.095
-0.09
-0.06
-0.015
0.0
-0.015
-0.02
-0.015
-0.065
-0.045
0.005
0.035
0.045
0.025
0.0
-0.055
0.035
0.105
0.045
0.035
0.065
0.13
0.095
0.13
0.155
0.14
0.125
0.145
0.12
0.09
0.155
0.145
0.095
0.12
0.085
0.095
0.075
0.04
-0.075
-0.055
0.045
0.045
0.01
0.005
-0.01
-0.03
-0.085
-0.08
-0.095
-0.125
-0.105
-0.075
-0.125
-0.13
-0.135
-0.175
-0.22
-0.21
-0.215
-0.18
-0.195
-0.25
-0.265
-0.24
-0.235
-0.155
-0.165
-0.225
-0.28
-0.28
-0.19
-0.195
-0.3
-0.25
-0.19
-0.185
-0.215
-0.22
-0.26
-0.275
-0.255
-0.21
-0.245
-0.23
-0.235
-0.24
-0.235
-0.225
-0.255
-0.22
-0.23
-0.24
-0.26
-0.25
-0.245
-0.285
-0.28
-0.225
-0.19
-0.2
-0.21
-0.23
-0.245
-0.245
-0.23
-0.21
-0.215
-0.21
-0.26
-0.255
-0.27
-0.265
-0.215
-0.17
-0.21
-0.24
-0.26
-0.22
-0.25
-0.25
-0.225
-0.27
-0.29
-0.175
-0.225
-0.255
-0.24
-0.22
-0.22
-0.245
-0.235
-0.215
-0.2
-0.2
-0.225
-0.22
-0.235
-0.25
-0.245
-0.26
-0.275
-0.25
-0.23
-0.205
-0.19
-0.205
-0.195
-0.215
-0.265
-0.245
-0.2
-0.225
-0.22
-0.225
-0.235
-0.24
-0.235
-0.23
-0.17
-0.225
-0.285
-0.25
-0.26
-0.23
-0.245
-0.255
-0.26
-0.235
-0.205
-0.245
-0.235
-0.305
-0.26
-0.23
-0.205
-0.24
-0.205
-0.245
-0.235
-0.245
-0.245
-0.255
-0.25
-0.24
-0.195
-0.225
-0.245
-0.235
-0.2
-0.215
-0.245
-0.255
-0.205
-0.22
-0.26
-0.25
-0.22
-0.235
-0.26
-0.27
-0.235
-0.24
-0.25
-0.265
-0.275
-0.255
-0.23
-0.245
-0.235
-0.2
-0.255
-0.295
-0.24
-0.23
-0.21
-0.22
-0.235
-0.29
-0.24
-0.22
-0.235
-0.24
-0.235
-0.24
-0.23
-0.18
-0.13
-0.18
-0.18
-0.195
-0.19
-0.19
-0.16
-0.125
-0.175
-0.21
-0.205
-0.24
-0.225
-0.195
-0.23
-0.26
-0.21
-0.22
-0.205
-0.135
-0.18
-0.215
-0.18
-0.21
-0.22
-0.215
-0.22
-0.23
-0.205
-0.245
-0.2
-0.265
-0.285
-0.28
-0.24
-0.23
-0.2
-0.25
-0.245
-0.24
-0.26
-0.265
-0.28
-0.25
-0.235
-0.335
-0.235
-0.21
-0.28
-0.305
-0.265
-0.295
-0.265
-0.27
-0.29
-0.3
-0.305
-0.345
-0.365
-0.405
-0.435
-0.43
-0.385
-0.355
-0.29
-0.185
-0.025
0.02
0.045
0.22
0.375
0.57
0.675
0.84
1.005
1.12
1.265
1.34
1.4
1.35
1.17
0.945
0.765
0.515
0.21
-0.025
-0.12
-0.24
-0.23
-0.225
-0.265
-0.31
-0.245
-0.295
-0.31
-0.28
-0.24
-0.255
-0.205
-0.12
-0.215
-0.225
-0.235
-0.205
-0.22
-0.19
-0.19
-0.2
-0.235
-0.27
-0.265
-0.225
-0.265
-0.26
-0.235
-0.235
-0.235
-0.245
-0.255
-0.245
-0.235
-0.19
-0.175
-0.225
-0.235
-0.24
-0.235
-0.2
-0.21
-0.165
-0.215
-0.175
-0.185
-0.205
-0.22
-0.175
-0.135
-0.18
-0.205
-0.17
-0.175
-0.175
-0.15
-0.1
-0.16
-0.145
-0.075
-0.15
-0.135
-0.09
-0.13
-0.085
-0.07
-0.08
-0.145
-0.095
-0.055
-0.05
-0.05
-0.025
-0.015
-0.005
-0.045
-0.02
-0.005
0.025
0.01
0.025
0.03
0.06
0.03
0.015
0.04
0.09
0.065
0.105
0.055
0.1
0.105
0.145
0.115
0.14
0.125
0.115
0.065
0.085
0.105
0.075
0.06
0.11
0.06
0.05
0.02
0.005
0.0
-0.01
-0.015
-0.05
-0.08
-0.09
-0.09
-0.09
-0.1
-0.105
-0.21
-0.205
-0.18
-0.185
-0.185
-0.16
-0.21
-0.235
-0.24
-0.22
-0.22
-0.22
-0.225
-0.27
-0.29
-0.265
-0.225
-0.195
-0.235
-0.24
-0.195
-0.215
-0.265
-0.23
-0.23
-0.24
-0.27
-0.28
-0.255
-0.235
-0.23
-0.225
-0.265
-0.275
-0.25
-0.225
-0.255
-0.23
-0.215
-0.26
-0.22
-0.175
-0.225
-0.25
-0.235
-0.305
-0.295
-0.275
-0.27
-0.31
-0.25
-0.22
-0.195
-0.185
-0.195
-0.25
-0.225
-0.175
-0.2
-0.3
-0.24
-0.21
-0.205
-0.24
-0.285
-0.24
-0.21
-0.21
-0.245
-0.31
-0.28
-0.28
-0.215
-0.23
-0.215
-0.23
-0.19
-0.22
-0.285
-0.305
-0.225
-0.2
-0.225
-0.24
-0.235
-0.25
-0.25
-0.26
-0.27
-0.26
-0.24
-0.24
-0.275
-0.28
-0.23
-0.215
-0.19
-0.215
-0.255
-0.23
-0.215
-0.19
-0.215
-0.24
-0.255
-0.245
-0.235
-0.24
-0.25
-0.275
-0.25
-0.25
-0.27
-0.25
-0.165
-0.21
-0.255
-0.285
-0.25
-0.25
-0.21
-0.225
-0.27
-0.23
-0.215
-0.27
-0.245
-0.24
-0.255
-0.28
-0.235
-0.235
-0.245
-0.265
-0.27
-0.265
-0.29
-0.255
-0.285
-0.265
-0.225
-0.25
-0.275
-0.225
-0.26
-0.27
-0.27
-0.27
-0.225
-0.245
-0.24
-0.235
-0.245
-0.255
-0.25
-0.32
-0.29
-0.21
-0.205
-0.255
-0.26
-0.3
-0.315
-0.225
-0.195
-0.27
-0.3
-0.265
-0.215
-0.285
-0.23
-0.255
-0.315
-0.24
-0.205
-0.25
-0.24
-0.24
-0.245
-0.245
-0.255
-0.24
-0.24
-0.235
-0.295
-0.285
-0.25
-0.235
-0.28
-0.26
-0.23
-0.275
-0.305
-0.275
-0.245
-0.23
-0.195
-0.275
-0.265
-0.28
-0.245
-0.23
-0.255
-0.26
-0.265
-0.225
-0.255
-0.245
-0.235
-0.25
-0.24
-0.28
-0.26
-0.25
-0.24
-0.245
-0.2
-0.26
-0.25
-0.18
-0.17
-0.195
-0.2
-0.245
-0.3
-0.28
-0.22
-0.185
-0.205
-0.205
-0.22
-0.195
-0.19
-0.17
-0.22
-0.21
-0.23
-0.23
-0.2
-0.18
-0.2
-0.24
-0.215
-0.225
-0.245
-0.235
-0.185
-0.185
-0.245
-0.21
-0.22
-0.24
-0.26
-0.245
-0.235
-0.315
-0.25
-0.235
-0.25
-0.255
-0.245
-0.24
-0.25
-0.26
-0.28
-0.235
-0.22
-0.26
-0.29
-0.255
-0.3
-0.265
-0.28
-0.305
-0.28
-0.265
-0.3
-0.27
-0.265
-0.245
-0.245
-0.32
-0.34
-0.38
-0.4
-0.4
-0.49
-0.46
-0.415
-0.33
-0.28
-0.17
-0.07
0.095
0.215
0.36
0.49
0.635
0.775
0.95
1.125
1.26
1.4
1.47
1.42
1.36
1.175
0.97
0.76
0.4
0.14
-0.055
-0.185
-0.275
-0.325
-0.29
-0.29
-0.32
-0.295
-0.205
-0.2
-0.245
-0.19
-0.16
-0.2
-0.24
-0.27
-0.275
-0.265
-0.265
-0.23
-0.215
-0.195
-0.205
-0.185
-0.24
-0.24
-0.25
-0.25
-0.215
-0.235
-0.235
-0.16
-0.225
-0.265
-0.26
-0.235
-0.25
-0.2
-0.205
-0.23
-0.18
-0.21
-0.23
-0.215
-0.23
-0.175
-0.215
-0.19
-0.13
-0.155
-0.215
-0.19
-0.205
-0.205
-0.165
-0.155
-0.195
-0.155
-0.06
-0.085
-0.11
-0.13
-0.125
-0.105
-0.09
-0.125
-0.08
0.005
-0.025
-0.06
-0.08
-0.075
-0.095
-0.06
-0.025
-0.07
-0.02
0.035
0.03
0.05
0.06
0.055
0.015
0.01
0.035
0.035
0.045
0.125
0.14
0.03
0.085
0.115
0.105
0.135
0.135
0.12
0.08
0.075
0.075
0.15
0.145
0.14
0.11
0.15
0.11
0.09
0.085
0.145
0.105
0.085
0.06
0.045
-0.03
-0.07
-0.055
-0.085
-0.08
-0.055
-0.07
-0.15
-0.135
-0.125
-0.135
-0.155
-0.155
-0.155
-0.155
-0.135
-0.13
-0.175
-0.23
-0.2
-0.26
-0.22
-0.26
-0.225
-0.19
-0.155
-0.22
-0.19
-0.215
-0.195
-0.245
-0.23
-0.18
-0.205
-0.24
-0.2
-0.235
-0.265
-0.24
-0.19
-0.22
-0.28
-0.28
-0.25
-0.19
-0.13
-0.17
-0.165
-0.21
-0.255
-0.285
-0.2
-0.14
-0.21
-0.22
-0.215
-0.175
-0.21
-0.22
-0.235
-0.225
-0.22
-0.225
-0.235
-0.235
-0.215
-0.23
-0.18
-0.145
-0.155
-0.235
-0.215
-0.2
-0.2
-0.21
-0.22
-0.23
-0.19
-0.2
-0.2
-0.225
-0.225
-0.205
-0.185
-0.21
-0.175
-0.17
-0.17
-0.16
-0.215
-0.17
-0.24
-0.255
-0.215
-0.17
-0.2
-0.245
-0.225
-0.165
-0.19
-0.2
-0.23
-0.195
-0.175
-0.175
-0.14
-0.215
-0.22
-0.205
-0.25
-0.215
-0.145
-0.145
-0.225
-0.215
-0.235
-0.24
-0.22
-0.19
-0.195
-0.235
-0.175
-0.185
-0.23
-0.185
-0.175
-0.19
-0.185
-0.17
-0.185
-0.23
-0.195
-0.185
-0.215
-0.18
-0.195
-0.215
-0.22
-0.235
-0.25
-0.13
-0.18
-0.185
-0.205
-0.175
-0.2
-0.15
-0.15
-0.185
-0.22
-0.19
-0.19
-0.22
-0.21
-0.17
-0.185
-0.185
-0.175
-0.16
-0.21
-0.215
-0.185
-0.175
-0.195
-0.19
-0.185
-0.19
-0.21
-0.19
-0.19
-0.205
-0.17
-0.2
-0.205
-0.185
-0.16
-0.195
-0.185
-0.115
-0.18
-0.205
-0.225
-0.21
-0.195
-0.19
-0.2
-0.245
-0.2
-0.21
-0.215
-0.19
-0.13
-0.17
-0.205
-0.175
-0.19
-0.195
-0.215
-0.17
-0.22
-0.22
-0.18
-0.135
-0.135
-0.16
-0.18
-0.175
-0.185
-0.195
-0.235
-0.215
-0.2
-0.205
-0.195
-0.195
-0.235
-0.245
-0.175
-0.17
-0.175
-0.18
-0.18
-0.18
-0.175
-0.165
-0.17
-0.2
-0.195
-0.195
-0.19
-0.165
-0.17
-0.18
-0.16
-0.195
-0.21
-0.225
-0.17
-0.165
-0.195
-0.16
-0.165
-0.175
-0.205
-0.21
-0.195
-0.18
-0.145
-0.15
-0.17
-0.185
-0.195
-0.185
-0.205
-0.21
-0.17
-0.17
-0.17
-0.22
-0.165
-0.165
-0.135
-0.17
-0.2
-0.215
-0.19
-0.155
-0.12
-0.135
-0.22
-0.165
-0.15
-0.15
-0.11
-0.13
-0.14
-0.13
-0.15
-0.145
-0.125
-0.15
-0.155
-0.175
-0.145
-0.15
-0.095
-0.12
-0.095
-0.13
-0.135
-0.17
-0.18
-0.14
-0.15
-0.125
-0.125
-0.125
-0.115
-0.145
-0.13
-0.195
-0.17
-0.205
-0.1
-0.13
-0.15
-0.105
-0.135
-0.195
-0.16
-0.17
-0.16
-0.17
-0.14
-0.165
-0.24
-0.235
-0.195
-0.16
-0.125
-0.15
-0.2
-0.175
-0.135
-0.19
-0.195
-0.225
-0.17
-0.165
-0.175
-0.185
-0.21
-0.23
-0.25
-0.23
-0.275
-0.355
-0.395
-0.41
-0.375
-0.28
-0.215
-0.125
0.03
0.145
0.285
0.385
0.535
0.66
0.835
0.99
1.175
1.365
1.505
1.545
1.555
1.475
1.285
1.075
0.825
0.465
0.205
0.01
-0.11
-0.175
-0.21
-0.17
-0.17
-0.19
-0.195
-0.21
-0.225
-0.21
-0.17
-0.155
-0.155
-0.155
-0.145
-0.15
-0.145
-0.185
-0.23
-0.155
-0.095
-0.11
-0.145
-0.17
-0.195
-0.185
-0.17
-0.165
-0.23
-0.18
-0.115
-0.09
-0.13
-0.13
-0.13
-0.115
-0.12
-0.11
-0.125
-0.095
-0.14
-0.16
-0.165
-0.085
-0.14
-0.095
-0.125
-0.15
-0.1
-0.095
-0.11
-0.075
-0.08
-0.08
-0.1
-0.085
-0.075
-0.08
-0.085
-0.02
-0.03
-0.08
0.0
-0.02
0.0
0.03
0.07
-0.005
-0.025
0.06
0.07
0.115
0.095
0.095
0.045
0.105
0.125
0.115
0.11
0.165
0.155
0.125
0.15
0.195
0.14
0.18
0.165
0.175
0.165
0.19
0.215
0.205
0.2
0.2
0.205
0.235
0.26
0.225
0.23
0.21
0.165
0.15
0.15
0.125
0.105
0.09
0.075
0.075
0.08
0.025
-0.015
0.035
0.015
-0.03
0.01
0.01
0.0
-0.05
-0.055
-0.105
-0.14
-0.08
-0.08
-0.085
-0.115
-0.165
-0.165
-0.14
-0.11
-0.17
-0.21
-0.145
-0.165
-0.17
-0.19
-0.15
-0.14
-0.14
-0.115
-0.16
-0.18
-0.155
-0.19
-0.19
-0.155
-0.12
-0.155
-0.13
-0.155
-0.16
-0.215
-0.19
-0.12
-0.13
-0.11
-0.16
-0.165
-0.16
-0.17
-0.17
-0.175
-0.155
-0.185
-0.195
-0.16
-0.1
-0.12
-0.16
-0.155
-0.135
-0.14
-0.155
-0.16
-0.165
-0.12
-0.165
-0.145
-0.105
-0.065
-0.13
-0.17
-0.15
-0.165
-0.195
-0.145
-0.08
-0.105
-0.14
-0.125
-0.15
-0.13
-0.09
-0.135
-0.13
-0.14
-0.135
-0.175
-0.17
-0.085
-0.06
-0.08
-0.12
-0.125
-0.18
-0.145
-0.13
-0.125
-0.135
-0.135
-0.14
-0.13
-0.14
-0.125
-0.11
-0.135
-0.12
-0.14
-0.13
-0.11
-0.135
-0.12
-0.06
-0.11
-0.14
-0.085
-0.11
-0.115
-0.165
-0.175
-0.12
-0.11
-0.125
-0.145
-0.165
-0.08
-0.11
-0.14
-0.14
-0.11
-0.145
-0.13
-0.15
-0.12
-0.135
-0.115
-0.125
-0.105
-0.135
-0.07
-0.105
-0.125
-0.195
-0.125
-0.135
-0.13
-0.13
-0.16
-0.11
-0.09
-0.145
-0.135
-0.15
-0.145
-0.165
-0.115
-0.14
-0.135
-0.135
-0.14
-0.135
-0.165
-0.075
-0.12
-0.17
-0.095
-0.11
-0.125
-0.1
-0.085
-0.15
-0.1
-0.105
-0.155
-0.135
-0.13
-0.17
-0.175
-0.135
-0.085
-0.11
-0.105
-0.08
-0.06
-0.13
-0.175
-0.12
-0.095
-0.1
-0.115
-0.15
-0.125
-0.135
-0.17
-0.16
-0.125
-0.11
-0.13
-0.1
-0.15
-0.185
-0.125
-0.08
-0.11
-0.14
-0.08
-0.08
-0.1
-0.155
-0.18
-0.165
-0.16
-0.115
-0.18
-0.17
-0.085
-0.07
-0.14
-0.11
-0.125
-0.125
-0.09
-0.11
-0.09
-0.145
-0.145
-0.17
-0.17
-0.15
-0.155
-0.18
-0.15
-0.07
-0.09
-0.09
-0.125
-0.125
-0.14
-0.12
-0.13
-0.16
-0.12
-0.115
-0.13
-0.115
-0.075
-0.075
-0.105
-0.105
-0.08
-0.1
-0.05
-0.055
-0.13
-0.07
-0.09
-0.1
-0.125
-0.06
-0.08
-0.05
-0.065
-0.09
-0.095
-0.095
-0.095
-0.07
-0.075
-0.035
-0.09
-0.14
-0.08
-0.115
-0.12
-0.08
-0.095
-0.13
-0.135
-0.075
-0.1
-0.09
-0.09
-0.125
-0.115
-0.135
-0.13
-0.11
-0.16
-0.135
-0.16
-0.18
-0.135
-0.115
-0.185
-0.135
-0.155
-0.175
-0.17
-0.145
-0.135
-0.135
-0.155
-0.165
-0.165
-0.155
-0.135
-0.175
-0.21
-0.26
-0.335
-0.31
-0.36
-0.37
-0.305
-0.265
-0.185
-0.05
0.11
0.195
0.235
0.39
0.56
0.695
0.79
0.98
1.205
1.44
1.535
1.615
1.605
1.57
1.395
1.17
0.95
0.605
0.245
0.06
-0.055
-0.125
-0.195
-0.175
-0.16
-0.175
-0.175
-0.12
-0.115
-0.155
-0.12
-0.11
-0.14
-0.135
-0.135
-0.19
-0.155
-0.12
-0.13
-0.12
-0.135
-0.125
-0.105
-0.12
-0.11
-0.145
-0.18
-0.12
-0.17
-0.17
-0.135
-0.13
-0.085
-0.11
-0.125
-0.105
-0.085
-0.07
-0.06
-0.09
-0.09
-0.135
-0.1
-0.07
-0.085
-0.155
-0.1
-0.045
-0.055
-0.05
-0.05
-0.1
-0.045
-0.09
-0.08
-0.07
0.01
-0.055
-0.065
-0.055
-0.05
-0.025
-0.01
-0.035
0.01
0.055
0.02
0.03
0.035
0.025
0.05
0.065
0.02
0.08
0.13
0.105
0.085
0.11
0.13
0.15
0.185
0.125
0.14
0.14
0.145
0.15
0.17
0.16
0.19
0.215
0.195
0.19
0.23
0.255
0.235
0.22
0.265
0.215
0.23
0.225
0.21
0.225
0.18
0.195
0.21
0.16
0.15
0.135
0.145
0.14
0.1
0.055
0.075
0.11
0.1
0.025
0.025
0.01
-0.005
0.005
0.025
-0.06
-0.05
-0.055
-0.09
-0.11
-0.11
-0.1
-0.08
-0.09
-0.135
-0.14
-0.095
-0.12
-0.155
-0.115
-0.12
-0.13
-0.15
-0.17
-0.15
-0.17
-0.145
-0.15
-0.155
-0.135
-0.13
-0.09
-0.1
-0.11
-0.105
-0.16
-0.155
-0.155
-0.165
-0.115
-0.095
-0.155
-0.18
-0.13
-0.12
-0.175
-0.15
-0.12
-0.14
-0.13
-0.15
-0.15
-0.1
-0.095
-0.15
-0.165
-0.185
-0.165
-0.145
-0.12
-0.145
-0.165
-0.14
-0.08
-0.15
-0.15
-0.13
-0.125
-0.145
-0.125
-0.125
-0.145
-0.12
-0.15
-0.14
-0.16
-0.215
-0.16
-0.135
-0.11
-0.095
-0.095
-0.105
-0.035
-0.105
-0.165
-0.155
-0.135
-0.17
-0.17
-0.14
-0.12
-0.155
-0.16
-0.13
-0.15
-0.14
-0.12
-0.135
-0.115
-0.145
-0.175
-0.15
-0.12
-0.14
-0.18
-0.105
-0.095
-0.135
-0.105
-0.115
-0.115
-0.105
-0.125
-0.14
-0.145
-0.185
-0.145
-0.165
-0.15
-0.165
-0.14
-0.135
-0.11
-0.11
-0.165
-0.145
-0.095
-0.09
-0.115
-0.11
-0.12
-0.14
-0.15
-0.185
-0.17
-0.14
-0.165
-0.13
-0.14
-0.14
-0.115
-0.085
-0.04
-0.14
-0.165
-0.185
-0.13
-0.18
-0.13
-0.115
-0.125
-0.155
-0.135
-0.15
-0.125
-0.12
-0.16
-0.16
-0.115
-0.15
-0.155
-0.13
-0.135
-0.185
-0.19
-0.13
-0.105
-0.11
-0.085
-0.085
-0.115
-0.145
-0.15
-0.1
-0.105
-0.115
-0.155
-0.165
-0.155
-0.165
-0.17
-0.16
-0.135
-0.135
-0.15
-0.135
-0.14
-0.175
-0.14
-0.125
-0.105
-0.095
-0.15
-0.18
-0.125
-0.16
-0.17
-0.185
-0.14
-0.145
-0.105
-0.065
-0.11
-0.18
-0.12
-0.13
-0.155
-0.18
-0.175
-0.155
-0.11
-0.105
-0.115
-0.15
-0.145
-0.11
-0.1
-0.1
-0.17
-0.195
-0.16
-0.13
-0.125
-0.11
-0.13
-0.12
-0.155
-0.105
-0.14
-0.17
-0.08
-0.135
-0.155
-0.125
-0.11
-0.105
-0.105
-0.06
-0.065
-0.075
-0.075
-0.045
-0.105
-0.105
-0.085
-0.09
-0.11
-0.075
-0.1
-0.11
-0.11
-0.11
-0.095
-0.125
-0.08
-0.1
-0.12
-0.06
-0.06
-0.08
-0.09
-0.07
-0.115
-0.06
-0.125
-0.2
-0.21
-0.105
-0.11
-0.11
-0.11
-0.13
-0.18
-0.195
-0.155
-0.095
-0.14
-0.155
-0.175
-0.155
-0.17
-0.135
-0.145
-0.205
-0.17
-0.105
-0.195
-0.17
-0.13
-0.13
-0.155
-0.14
-0.195
-0.215
-0.24
-0.265
-0.275
-0.305
-0.315
-0.36
-0.345
-0.24
-0.17
-0.05
0.08
0.17
0.235
0.34
0.535
0.73
0.925
1.055
1.225
1.435
1.55
1.55
1.55
1.515
1.33
1.1
0.845
0.455
0.195
0.06
-0.08
-0.165
-0.125
-0.125
-0.185
-0.17
-0.22
-0.205
-0.165
-0.185
-0.12
-0.13
-0.17
-0.11
-0.13
-0.1
-0.115
-0.205
-0.225
-0.155
-0.14
-0.145
-0.155
-0.11
-0.1
-0.12
-0.125
-0.155
-0.16
-0.09
-0.085
-0.12
-0.12
-0.12
-0.165
-0.145
-0.05
-0.09
-0.15
-0.09
-0.105
-0.105
-0.085
-0.07
-0.105
-0.14
-0.085
-0.06
-0.07
-0.09
-0.07
-0.065
-0.09
-0.07
-0.08
-0.065
-0.02
-0.02
-0.035
0.02
0.015
-0.045
-0.025
0.005
-0.015
-0.02
-0.03
-0.02
0.02
0.01
0.075
0.08
0.1
0.08
0.1
0.105
0.085
0.065
0.115
0.1
0.125
0.13
0.13
0.18
0.185
0.185
0.24
0.155
0.22
0.235
0.21
0.215
0.235
0.215
0.195
0.225
0.25
0.265
0.215
0.215
0.245
0.23
0.24
0.185
0.14
0.135
0.175
0.15
0.165
0.175
0.17
0.16
0.15
0.07
0.05
0.01
0.01
-0.005
-0.01
-0.035
-0.035
-0.05
-0.05
-0.055
-0.065
-0.06
-0.1
-0.15
-0.125
-0.12
-0.09
-0.095
-0.115
-0.105
-0.135
-0.15
-0.12
-0.13
-0.12
-0.145
-0.17
-0.145
-0.115
-0.14
-0.135
-0.11
-0.13
-0.175
-0.135
-0.135
-0.17
-0.16
-0.12
-0.135
-0.14
-0.125
-0.115
-0.15
-0.14
-0.115
-0.11
-0.115
-0.09
-0.1
-0.145
-0.145
-0.175
-0.14
-0.1
-0.135
-0.15
-0.14
-0.09
-0.065
-0.075
-0.12
-0.155
-0.075
-0.085
-0.115
-0.15
-0.135
-0.12
-0.11
-0.075
-0.08
-0.12
-0.075
-0.055
-0.12
-0.12
-0.13
-0.15
-0.13
-0.095
-0.08
-0.12
-0.115
-0.11
-0.115
-0.08
-0.105
-0.09
-0.1
-0.095
-0.06
-0.1
-0.08
-0.045
-0.075
-0.115
-0.105
-0.065
-0.08
-0.075
-0.085
-0.095
-0.105
-0.09
-0.105
-0.15
-0.12
-0.08
-0.085
-0.09
-0.13
-0.075
-0.07
-0.065
-0.11
-0.12
-0.08
-0.11
-0.105
-0.13
-0.085
-0.12
-0.145
-0.08
-0.095
-0.07
-0.095
-0.095
-0.11
-0.125
-0.105
-0.055
-0.065
-0.09
-0.11
-0.14
-0.135
-0.075
-0.02
-0.06
-0.11
-0.065
-0.085
-0.075
-0.09
-0.13
-0.085
-0.04
-0.065
-0.115
-0.115
-0.115
-0.11
-0.075
-0.06
-0.115
-0.105
-0.12
-0.08
-0.095
-0.06
-0.06
-0.11
-0.05
-0.06
-0.08
-0.05
-0.05
-0.04
-0.06
-0.04
-0.01
-0.01
-0.025
-0.085
-0.045
0.02
0.015
-0.025
-0.06
-0.04
-0.035
-0.025
-0.07
-0.055
-0.035
0.005
-0.035
-0.045
-0.03
-0.03
-0.06
-0.065
-0.05
-0.06
-0.055
-0.035
-0.075
-0.115
-0.08
0.0
-0.01
0.005
-0.03
-0.07
-0.045
-0.055
-0.015
-0.03
-0.005
0.035
-0.02
-0.015
-0.03
-0.015
0.015
0.01
-0.01
0.005
0.045
0.0
-0.005
0.05
0.08
0.075
0.1
0.075
0.085
0.07
0.11
0.13
0.105
0.12
0.17
0.115
0.115
0.165
0.155
0.155
0.125
0.135
0.155
0.175
0.205
0.195
0.23
0.285
0.265
0.25
0.235
0.265
0.23
0.2
0.25
0.225
0.275
0.29
0.24
0.255
0.265
0.27
0.28
0.28
0.265
0.265
0.27
0.315
0.32
0.31
0.335
0.31
0.285
0.285
0.28
0.265
0.265
0.265
0.27
0.225
0.245
0.22
0.2
0.185
0.105
-0.01
-0.01
0.005
0.065
0.15
0.24
0.3
0.435
0.59
0.705
0.865
1.045
1.2
1.29
1.485
1.725
1.835
1.915
1.855
1.82
1.7
1.49
1.265
0.93
0.54
0.355
0.19
0.09
0.085
0.085
0.045
0.135
0.135
0.105
0.09
0.075
0.06
0.08
0.1
0.11
0.085
0.06
0.07
0.065
0.14
0.125
0.08
0.075
0.08
0.085
0.095
0.085
0.075
0.09
0.1
0.075
0.035
0.05
0.035
0.05
0.095
0.13
0.135
0.085
0.08
0.075
0.08
0.075
0.05
0.065
0.055
0.095
0.095
0.115
0.11
0.105
0.125
0.125
0.095
0.065
0.085
0.145
0.13
0.12
0.135
0.125
0.065
0.06
0.115
0.12
0.165
0.165
0.18
0.15
0.16
0.185
0.16
0.19
0.17
0.175
0.18
0.215
0.22
0.225
0.23
0.225
0.225
0.245
0.255
0.295
0.31
0.26
0.265
0.305
0.325
0.3
0.285
0.335
0.33
0.29
0.32
0.32
0.335
0.34
0.34
0.31
0.305
0.29
0.255
0.28
0.355
0.34
0.28
0.255
0.235
0.21
0.185
0.16
0.15
0.12
0.135
0.12
0.13
0.065
0.075
0.045
-0.01
-0.035
0.01
0.025
0.015
-0.03
-0.01
-0.04
-0.03
-0.06
-0.055
-0.07
-0.08
-0.055
-0.055
-0.055
-0.065
-0.05
-0.08
-0.12
-0.11
-0.12
-0.115
-0.155
-0.1
-0.03
-0.045
-0.09
-0.075
-0.095
-0.105
-0.1
-0.125
-0.095
-0.1
-0.13
-0.145
-0.115
-0.09
-0.2
-0.145
-0.105
-0.07
-0.06
-0.11
-0.185
-0.165
-0.115
-0.105
-0.12
-0.075
-0.09
-0.14
-0.145
-0.14
-0.09
-0.115
-0.125
-0.115
-0.12
-0.14
-0.14
-0.12
-0.17
-0.105
-0.115
-0.145
-0.14
-0.105
-0.16
-0.17
-0.12
-0.13
-0.13
-0.13
-0.14
-0.15
-0.125
-0.115
-0.125
-0.115
-0.14
-0.185
-0.13
-0.105
-0.125
-0.11
-0.13
-0.155
-0.12
-0.11
-0.145
-0.17
-0.13
-0.075
-0.17
-0.21
-0.17
-0.155
-0.17
-0.19
-0.165
-0.19
-0.175
-0.09
-0.155
-0.165
-0.14
-0.15
-0.225
-0.205
-0.215
-0.235
-0.13
-0.105
-0.17
-0.185
-0.155
-0.15
-0.165
-0.17
-0.21
-0.225
-0.11
-0.125
-0.19
-0.19
-0.175
-0.205
-0.17
-0.175
-0.12
-0.19
-0.165
-0.16
-0.2
-0.225
-0.245
-0.195
-0.185
-0.18
-0.185
-0.2
-0.2
-0.2
-0.215
-0.195
-0.175
-0.195
-0.175
-0.195
-0.23
-0.22
-0.155
-0.215
-0.22
-0.22
-0.225
-0.22
-0.195
-0.19
-0.175
-0.16
-0.155
-0.18
-0.23
-0.275
-0.26
-0.225
-0.21
-0.18
-0.245
-0.27
-0.21
-0.18
-0.2
-0.22
-0.215
-0.205
-0.135
-0.175
-0.21
-0.23
-0.255
-0.245
-0.245
-0.205
-0.23
-0.215
-0.15
-0.185
-0.23
-0.245
-0.225
-0.22
-0.215
-0.165
-0.135
-0.19
-0.22
-0.215
-0.22
-0.18
-0.135
-0.16
-0.19
-0.18
-0.145
-0.165
-0.235
-0.235
-0.27
-0.22
-0.205
-0.185
-0.18
-0.145
-0.175
-0.185
-0.18
-0.205
-0.215
-0.215
-0.26
-0.265
-0.215
-0.23
-0.235
-0.31
-0.3
-0.245
-0.255
-0.225
-0.22
-0.25
-0.245
-0.255
-0.265
-0.225
-0.28
-0.285
-0.295
-0.305
-0.29
-0.21
-0.265
-0.29
-0.3
-0.305
-0.235
-0.3
-0.385
-0.435
-0.46
-0.445
-0.415
-0.435
-0.38
-0.29
-0.205
-0.075
0.08
0.145
0.205
0.325
0.565
0.785
0.89
1.025
1.26
1.375
1.425
1.415
1.385
1.14
0.94
0.66
0.305
-0.015
-0.2
-0.245
-0.31
-0.31
-0.315
-0.32
-0.24
-0.265
-0.385
-0.355
-0.29
-0.26
-0.285
-0.255
-0.23
-0.265
-0.29
-0.255
-0.25
-0.245
-0.2
-0.255
-0.235
-0.21
-0.245
-0.265
-0.255
-0.265
-0.295
-0.27
-0.215
-0.26
-0.245
-0.21
-0.21
-0.225
-0.25
-0.215
-0.24
-0.235
-0.24
-0.24
-0.25
-0.185
-0.185
-0.18
-0.195
-0.22
-0.21
-0.205
-0.24
-0.23
-0.19
-0.1
-0.12
-0.21
-0.195
-0.165
-0.155
-0.125
-0.11
-0.175
-0.23
-0.14
-0.095
-0.08
-0.05
-0.065
-0.18
-0.105
-0.07
-0.13
-0.085
0.01
-0.04
-0.025
-0.015
-0.025
-0.05
-0.05
-0.03
-0.005
0.04
0.075
0.09
-0.005
-0.03
0.045
0.1
0.145
0.1
0.08
0.145
0.14
0.145
0.13
0.115
0.065
0.115
0.175
0.205
0.095
0.125
0.115
0.045
0.09
0.01
0.025
0.025
0.02
0.005
0.04
-0.03
-0.02
-0.04
-0.09
-0.165
-0.165
-0.19
-0.155
-0.145
-0.175
-0.18
-0.16
-0.24
-0.195
-0.225
-0.255
-0.26
-0.215
-0.205
-0.225
-0.265
-0.235
-0.255
-0.29
-0.26
-0.275
-0.245
-0.265
-0.285
-0.29
-0.295
-0.245
-0.28
-0.25
-0.245
-0.3
-0.295
-0.295
-0.235
-0.325
-0.32
-0.25
-0.27
-0.28
-0.26
-0.235
-0.235
-0.24
-0.28
-0.31
-0.265
-0.245
-0.28
-0.305
-0.26
-0.235
-0.29
-0.28
-0.26
-0.32
-0.29
-0.24
-0.255
-0.26
-0.23
-0.275
-0.275
-0.27
-0.275
-0.345
-0.275
-0.24
-0.225
-0.195
-0.26
-0.31
-0.235
-0.26
-0.275
-0.28
-0.25
-0.305
-0.28
-0.265
-0.27
-0.265
-0.235
-0.23
-0.215
-0.27
-0.23
-0.29
-0.29
-0.295
-0.285
-0.295
-0.315
-0.26
-0.2
-0.235
-0.26
-0.29
-0.29
-0.285
-0.26
-0.29
-0.22
-0.215
-0.235
-0.32
-0.285
-0.305
-0.285
-0.31
-0.275
-0.25
-0.215
-0.265
-0.235
-0.235
-0.215
-0.25
-0.235
-0.265
-0.29
-0.37
-0.265
-0.225
-0.25
-0.27
-0.27
-0.285
-0.235
-0.305
-0.335
-0.295
-0.265
-0.26
-0.285
-0.27
-0.21
-0.28
-0.28
-0.24
-0.23
-0.245
-0.25
-0.22
-0.3
-0.31
-0.32
-0.24
-0.325
-0.305
-0.31
-0.24
-0.23
-0.285
-0.315
-0.305
-0.24
-0.26
-0.265
-0.235
-0.23
-0.26
-0.22
-0.25
-0.315
-0.255
-0.28
-0.295
-0.24
-0.265
-0.285
-0.29
-0.235
-0.2
-0.29
-0.28
-0.24
-0.275
-0.235
-0.235
-0.295
-0.325
-0.31
-0.255
-0.295
-0.225
-0.235
-0.215
-0.185
-0.2
-0.27
-0.215
-0.24
-0.27
-0.265
-0.205
-0.19
-0.195
-0.255
-0.275
-0.235
-0.255
-0.29
-0.3
-0.29
-0.26
-0.175
-0.19
-0.215
-0.22
-0.21
-0.23
-0.235
-0.295
-0.265
-0.24
-0.24
-0.31
-0.305
-0.285
-0.31
-0.315
-0.265
-0.28
-0.255
-0.265
-0.31
-0.31
-0.315
-0.295
-0.3
-0.31
-0.3
-0.285
-0.295
-0.265
-0.255
-0.305
-0.325
-0.345
-0.365
-0.31
-0.355
-0.42
-0.475
-0.415
-0.44
-0.42
-0.44
-0.375
-0.235
-0.08
-0.03
-0.03
0.11
0.31
0.49
0.61
0.705
0.885
1.1
1.275
1.3
1.365
1.335
1.255
1.08
0.845
0.565
0.205
-0.075
-0.205
-0.355
-0.435
-0.42
-0.345
-0.275
-0.27
-0.265
-0.3
-0.325
-0.285
-0.24
-0.27
-0.29
-0.25
-0.235
-0.265
-0.245
-0.26
-0.28
-0.265
-0.285
-0.25
-0.275
-0.305
-0.265
-0.315
-0.28
-0.26
-0.325
-0.285
-0.24
-0.25
-0.275
-0.215
-0.245
-0.21
-0.25
-0.25
-0.265
-0.28
-0.28
-0.29
-0.295
-0.18
-0.16
-0.245
-0.27
-0.21
-0.19
-0.2
-0.275
-0.235
-0.175
-0.165
-0.17
-0.155
-0.155
-0.145
-0.215
-0.195
-0.17
-0.19
-0.165
-0.21
-0.16
-0.115
-0.09
-0.12
-0.095
-0.09
-0.085
-0.115
-0.115
-0.1
-0.08
-0.065
-0.06
-0.01
0.015
0.005
-0.005
0.035
0.045
0.03
0.03
0.02
0.045
0.01
0.07
0.125
0.12
0.08
0.085
0.09
0.03
0.06
0.11
0.11
0.085
0.095
0.1
0.08
0.05
0.04
0.045
0.005
-0.005
0.015
0.0
-0.055
-0.11
-0.045
-0.025
-0.075
-0.15
-0.145
-0.125
-0.17
-0.22
-0.18
-0.145
-0.17
-0.205
-0.255
-0.215
-0.255
-0.245
-0.27
-0.24
-0.24
-0.24
-0.285
-0.28
-0.245
-0.255
-0.245
-0.265
-0.28
-0.3
-0.295
-0.285
-0.345
-0.27
-0.28
-0.265
-0.25
-0.25
-0.26
-0.265
-0.27
-0.255
-0.275
-0.3
-0.28
-0.29
-0.24
-0.295
-0.28
-0.245
-0.205
-0.225
-0.285
-0.28
-0.335
-0.295
-0.225
-0.265
-0.26
-0.235
-0.235
-0.305
-0.355
-0.315
-0.3
-0.25
-0.255
-0.165
-0.22
-0.23
-0.27
-0.29
-0.295
-0.265
-0.245
-0.23
-0.25
-0.225
-0.245
-0.23
-0.25
-0.285
-0.245
-0.255
-0.3
-0.28
-0.2
-0.235
-0.245
-0.255
-0.23
-0.28
-0.295
-0.235
-0.24
-0.29
-0.245
-0.225
-0.2
-0.22
-0.23
-0.295
-0.25
-0.215
-0.235
-0.235
-0.27
-0.255
-0.275
-0.24
-0.195
-0.23
-0.225
-0.275
-0.28
-0.275
-0.225
-0.205
-0.245
-0.195
-0.2
-0.26
-0.26
-0.255
-0.25
-0.245
-0.23
-0.27
-0.245
-0.215
-0.22
-0.2
-0.21
-0.27
-0.24
-0.195
-0.19
-0.265
-0.275
-0.31
-0.265
-0.26
-0.285
-0.26
-0.23
-0.24
-0.19
-0.24
-0.195
-0.195
-0.27
-0.24
-0.265
-0.3
-0.315
-0.275
-0.23
-0.215
-0.25
-0.2
-0.19
-0.3
-0.25
-0.215
-0.225
-0.245
-0.24
-0.245
-0.265
-0.27
-0.315
-0.24
-0.175
-0.195
-0.225
-0.26
-0.25
-0.26
-0.21
-0.195
-0.27
-0.28
-0.22
-0.23
-0.19
-0.22
-0.19
-0.195
-0.21
-0.215
-0.25
-0.24
-0.19
-0.205
-0.15
-0.165
-0.175
-0.225
-0.195
-0.205
-0.225
-0.25
-0.18
-0.16
-0.2
-0.18
-0.22
-0.225
-0.22
-0.205
-0.22
-0.195
-0.15
-0.195
-0.215
-0.225
-0.25
-0.27
-0.22
-0.285
-0.24
-0.17
-0.19
-0.205
-0.26
-0.24
-0.245
-0.26
-0.305
-0.3
-0.26
-0.25
-0.26
-0.235
-0.265
-0.225
-0.22
-0.225
-0.2
-0.26
-0.27
-0.275
-0.245
-0.29
-0.355
-0.32
-0.415
-0.44
-0.43
-0.47
-0.425
-0.28
-0.15
-0.1
-0.03
0.135
0.24
0.345
0.525
0.705
0.76
1.01
1.19
1.305
1.415
1.45
1.395
1.295
1.13
0.91
0.565
0.265
0.095
-0.075
-0.165
-0.175
-0.245
-0.285
-0.285
-0.285
-0.295
-0.23
-0.155
-0.215
-0.225
-0.195
-0.195
-0.22
-0.25
-0.21
-0.195
-0.195
-0.225
-0.245
-0.23
-0.2
-0.195
-0.25
-0.225
-0.255
-0.255
-0.2
-0.205
-0.16
-0.18
-0.14
-0.17
-0.185
-0.205
-0.205
-0.18
-0.165
-0.14
-0.165
-0.18
-0.125
-0.15
-0.215
-0.18
-0.185
-0.19
-0.18
-0.13
-0.125
-0.17
-0.145
-0.15
-0.14
-0.135
-0.15
-0.12
-0.08
-0.015
-0.1
-0.105
-0.095
-0.125
-0.085
-0.04
-0.06
-0.065
-0.03
-0.02
-0.05
-0.09
-0.025
-0.005
0.025
0.04
0.03
-0.01
0.09
0.03
0.075
0.085
0.095
0.12
0.165
0.115
0.07
0.07
0.105
0.115
0.125
0.18
0.185
0.16
0.18
0.185
0.16
0.145
0.12
0.13
0.175
0.165
0.145
0.11
0.11
0.1
0.115
0.06
0.045
0.01
-0.01
0.015
0.025
-0.035
-0.01
-0.075
-0.13
-0.075
-0.095
-0.08
-0.1
-0.14
-0.15
-0.16
-0.12
-0.125
-0.195
-0.17
-0.155
-0.195
-0.17
-0.15
-0.195
-0.25
-0.25
-0.205
-0.24
-0.255
-0.185
-0.16
-0.14
-0.12
-0.15
-0.175
-0.19
-0.215
-0.235
-0.125
-0.135
-0.18
-0.19
-0.21
-0.225
-0.195
-0.225
-0.17
-0.235
-0.23
-0.19
-0.17
-0.165
-0.185
-0.21
-0.235
-0.205
-0.215
-0.21
-0.23
-0.21
-0.23
-0.235
-0.18
-0.21
-0.205
-0.13
-0.165
-0.2
-0.18
-0.2
-0.21
-0.245
-0.165
-0.205
-0.2
-0.175
-0.18
-0.205
-0.21
-0.185
-0.14
-0.175
-0.17
-0.185
-0.175
-0.21
-0.23
-0.195
-0.18
-0.17
-0.2
-0.185
-0.15
-0.175
-0.17
-0.155
-0.21
-0.215
-0.16
-0.13
-0.21
-0.21
-0.2
-0.205
-0.19
-0.175
-0.14
-0.205
-0.205
-0.22
-0.21
-0.185
-0.155
-0.175
-0.165
-0.16
-0.175
-0.185
-0.185
-0.205
-0.22
-0.215
-0.165
-0.165
-0.13
-0.21
-0.24
-0.215
-0.18
-0.19
-0.19
-0.16
-0.16
-0.165
-0.22
-0.165
-0.135
-0.215
-0.195
-0.13
-0.185
-0.15
-0.17
-0.225
-0.255
-0.235
-0.2
-0.19
-0.215
-0.17
-0.145
-0.18
-0.19
-0.205
-0.23
-0.2
-0.125
-0.095
-0.14
-0.205
-0.225
-0.18
-0.2
-0.22
-0.18
-0.195
-0.215
-0.195
-0.19
-0.195
-0.21
-0.225
-0.185
-0.19
-0.145
-0.155
-0.19
-0.17
-0.16
-0.17
-0.19
-0.19
-0.205
-0.225
-0.185
-0.185
-0.205
-0.155
-0.12
-0.17
-0.18
-0.13
-0.19
-0.2
-0.2
-0.175
-0.21
-0.205
-0.18
-0.145
-0.24
-0.24
-0.165
-0.16
-0.14
-0.18
-0.18
-0.14
-0.195
-0.14
-0.12
-0.125
-0.19
-0.175
-0.18
-0.17
-0.13
-0.135
-0.115
-0.145
-0.2
-0.115
-0.13
-0.15
-0.14
-0.13
-0.135
-0.14
-0.145
-0.135
-0.14
-0.155
-0.195
-0.145
-0.11
-0.16
-0.185
-0.12
-0.11
-0.165
-0.19
-0.125
-0.155
-0.145
-0.2
-0.155
-0.15
-0.16
-0.17
-0.15
-0.22
-0.215
-0.25
-0.2
-0.15
-0.2
-0.23
-0.205
-0.165
-0.155
-0.175
-0.19
-0.21
-0.205
-0.2
-0.195
-0.215
-0.2
-0.18
-0.19
-0.2
-0.23
-0.29
-0.285
-0.385
-0.44
-0.395
-0.355
-0.34
-0.26
-0.155
-0.045
0.035
0.08
0.235
0.345
0.49
0.69
0.835
1.01
1.185
1.345
1.42
1.495
1.52
1.365
1.225
1.045
0.795
0.39
0.13
-0.015
-0.165
-0.19
-0.195
-0.21
-0.235
-0.15
-0.21
-0.235
-0.19
-0.2
-0.14
-0.165
-0.135
-0.125
-0.15
-0.125
-0.175
-0.195
-0.13
-0.145
-0.17
-0.145
-0.16
-0.205
-0.185
-0.15
-0.165
-0.15
-0.175
-0.17
-0.185
-0.19
-0.185
-0.22
-0.18
-0.175
-0.15
-0.125
-0.115
-0.12
-0.135
-0.155
-0.135
-0.165
-0.15
-0.11
-0.135
-0.13
-0.105
-0.155
-0.16
-0.07
-0.045
-0.085
-0.07
-0.055
-0.105
-0.09
-0.025
-0.09
-0.12
-0.03
0.005
-0.06
-0.055
-0.015
-0.015
-0.085
-0.05
0.02
0.005
-0.02
0.015
0.02
0.05
0.03
0.045
0.09
0.085
0.02
0.095
0.075
0.115
0.125
0.2
0.135
0.13
0.125
0.14
0.14
0.105
0.135
0.16
0.18
0.235
0.225
0.17
0.16
0.215
0.185
0.175
0.225
0.13
0.11
0.155
0.115
0.095
0.085
0.04
0.05
0.09
0.005
0.015
-0.01
0.03
-0.04
-0.06
-0.02
-0.065
-0.125
-0.085
-0.1
-0.14
-0.135
-0.11
-0.175
-0.18
-0.11
-0.11
-0.17
-0.175
-0.135
-0.185
-0.16
-0.155
-0.18
-0.185
-0.155
-0.17
-0.215
-0.22
-0.19
-0.185
-0.14
-0.145
-0.215
-0.2
-0.19
-0.175
-0.205
-0.22
-0.165
-0.195
-0.225
-0.195
-0.155
-0.14
-0.14
-0.17
-0.19
-0.205
-0.145
-0.205
-0.195
-0.145
-0.175
-0.21
-0.16
-0.155
-0.165
-0.21
-0.18
-0.165
-0.21
-0.215
-0.185
-0.18
-0.155
-0.17
-0.25
-0.19
-0.165
-0.22
-0.195
-0.155
-0.14
-0.2
-0.155
-0.165
-0.16
-0.175
-0.18
-0.25
-0.195
-0.17
-0.185
-0.18
-0.18
-0.185
-0.175
-0.16
-0.205
-0.23
-0.17
-0.235
-0.19
-0.14
-0.17
-0.18
-0.14
-0.2
-0.21
-0.195
-0.155
-0.18
-0.19
-0.145
-0.17
-0.185
-0.155
-0.15
-0.195
-0.28
-0.195
-0.15
-0.155
-0.175
-0.16
-0.18
-0.17
-0.215
-0.215
-0.2
-0.15
-0.14
-0.195
-0.2
-0.2
-0.185
-0.165
-0.18
-0.195
-0.225
-0.245
-0.19
-0.18
-0.185
-0.18
-0.175
-0.2
-0.165
-0.16
-0.2
-0.18
-0.195
-0.235
-0.235
-0.245
-0.2
-0.195
-0.185
-0.22
-0.225
-0.175
-0.165
-0.15
-0.17
-0.195
-0.22
-0.165
-0.17
-0.185
-0.19
-0.185
-0.21
-0.19
-0.19
-0.165
-0.165
-0.135
-0.2
-0.21
-0.195
-0.205
-0.215
-0.18
-0.2
-0.18
-0.225
-0.205
-0.21
-0.225
-0.205
-0.16
-0.19
-0.195
-0.21
-0.18
-0.165
-0.15
-0.18
-0.21
-0.21
-0.205
-0.2
-0.225
-0.175
-0.135
-0.2
-0.225
-0.215
-0.19
-0.19
-0.2
-0.185
-0.175
-0.16
-0.19
-0.21
-0.195
-0.175
-0.135
-0.185
-0.195
-0.215
-0.21
-0.19
-0.18
-0.185
-0.16
-0.185
-0.225
-0.17
-0.135
-0.14
-0.215
-0.23
-0.205
-0.175
-0.175
-0.18
-0.18
-0.15
-0.18
-0.21
-0.205
-0.16
-0.17
-0.14
-0.15
-0.16
-0.175
-0.18
-0.195
-0.16
-0.115
-0.135
-0.125
-0.135
-0.115
-0.125
-0.155
-0.16
-0.185
-0.175
-0.17
-0.12
-0.13
-0.12
-0.155
-0.155
-0.2
-0.19
-0.1
-0.16
-0.16
-0.13
-0.135
-0.13
-0.125
-0.195
-0.185
-0.165
-0.135
-0.165
-0.195
-0.18
-0.18
-0.195
-0.175
-0.22
-0.235
-0.22
-0.205
-0.215
-0.225
-0.21
-0.18
-0.215
-0.19
-0.245
-0.265
-0.245
-0.16
-0.105
-0.185
-0.185
-0.22
-0.205
-0.235
-0.32
-0.325
-0.29
-0.335
-0.345
-0.37
-0.365
-0.375
-0.24
-0.17
-0.055
0.02
0.09
0.26
0.45
0.585
0.745
0.885
1.05
1.245
1.375
1.465
1.555
1.485
1.365
1.15
0.97
0.595
0.275
0.045
-0.115
-0.19
-0.175
-0.2
-0.23
-0.215
-0.19
-0.24
-0.18
-0.165
-0.25
-0.19
-0.215
-0.22
-0.13
-0.155
-0.15
-0.165
-0.165
-0.175
-0.185
-0.185
-0.14
-0.185
-0.19
-0.14
-0.155
-0.19
-0.18
-0.185
-0.19
-0.165
-0.19
-0.17
-0.145
-0.155
-0.17
-0.18
-0.175
-0.155
-0.195
-0.18
-0.13
-0.09
-0.16
-0.1
-0.145
-0.115
-0.12
-0.125
-0.12
-0.135
-0.105
-0.11
-0.12
-0.095
-0.1
-0.075
-0.055
-0.045
-0.08
-0.115
-0.08
-0.08
-0.04
-0.06
-0.08
-0.09
-0.07
0.005
-0.01
0.035
0.02
-0.01
0.035
0.05
0.025
0.045
0.09
0.135
0.105
0.07
0.08
0.11
0.13
0.135
0.11
0.165
0.15
0.18
0.15
0.17
0.185
0.155
0.14
0.17
0.155
0.225
0.18
0.16
0.165
0.16
0.14
0.12
0.145
0.145
0.09
0.11
0.13
0.095
0.04
0.055
0.055
0.02
-0.015
-0.01
-0.045
-0.045
-0.1
-0.09
-0.1
-0.07
-0.085
-0.145
-0.15
-0.12
-0.13
-0.13
-0.145
-0.155
-0.145
-0.18
-0.2
-0.15
-0.15
-0.16
-0.165
-0.19
-0.155
-0.195
-0.24
-0.19
-0.185
-0.195
-0.2
-0.205
-0.24
-0.23
-0.18
-0.195
-0.225
-0.15
-0.2
-0.23
-0.2
-0.18
-0.2
-0.185
-0.18
-0.21
-0.175
-0.15
-0.165
-0.17
-0.22
-0.18
-0.18
-0.19
-0.21
-0.2
-0.195
-0.17
-0.175
-0.17
-0.17
-0.14
-0.205
-0.225
-0.23
-0.26
-0.255
-0.225
-0.185
-0.15
-0.145
-0.18
-0.19
-0.195
-0.195
-0.17
-0.155
-0.19
-0.145
-0.195
-0.2
-0.165
-0.145
-0.24
-0.215
-0.205
-0.205
-0.18
-0.165
-0.17
-0.195
-0.205
-0.18
-0.16
-0.195
-0.22
-0.21
-0.2
-0.185
-0.235
-0.175
-0.155
-0.185
-0.165
-0.15
-0.205
-0.245
-0.235
-0.23
-0.14
-0.14
-0.16
-0.2
-0.205
-0.18
-0.17
-0.165
-0.195
-0.205
-0.205
-0.16
-0.125
-0.16
-0.24
-0.24
-0.24
-0.19
-0.17
-0.205
-0.22
-0.23
-0.2
-0.2
-0.175
-0.18
-0.175
-0.195
-0.23
-0.205
-0.205
-0.185
-0.165
-0.195
-0.205
-0.22
-0.225
-0.21
-0.22
-0.235
-0.255
-0.165
-0.21
-0.245
-0.265
-0.23
-0.15
-0.195
-0.17
-0.165
-0.18
-0.16
-0.17
-0.205
-0.235
-0.235
-0.24
-0.225
-0.2
-0.24
-0.23
-0.17
-0.21
-0.18
-0.215
-0.205
-0.205
-0.2
-0.21
-0.215
-0.175
-0.175
-0.185
-0.17
-0.195
-0.225
-0.215
-0.18
-0.165
-0.21
-0.225
-0.245
-0.225
-0.21
-0.21
-0.24
-0.22
-0.2
-0.215
-0.195
-0.175
-0.185
-0.215
-0.235
-0.225
-0.215
-0.215
-0.22
-0.185
-0.115
-0.2
-0.23
-0.23
-0.19
-0.18
-0.215
-0.215
-0.21
-0.19
-0.185
-0.235
-0.23
-0.235
-0.2
-0.16
-0.155
-0.22
-0.215
-0.215
-0.205
-0.215
-0.21
-0.215
-0.22
-0.195
-0.23
-0.235
-0.155
-0.205
-0.235
-0.19
-0.19
-0.22
-0.205
-0.205
-0.24
-0.235
-0.175
-0.205
-0.205
-0.19
-0.2
-0.215
-0.215
-0.24
-0.21
-0.155
-0.21
-0.23
-0.195
-0.215
-0.23
-0.19
-0.17
-0.175
-0.22
-0.18
-0.145
-0.125
-0.2
-0.21
-0.205
-0.21
-0.205
-0.15
-0.16
-0.145
-0.165
-0.12
-0.085
-0.14
-0.21
-0.215
-0.185
-0.19
-0.175
-0.145
-0.105
-0.15
-0.17
-0.175
-0.115
-0.13
-0.165
-0.175
-0.23
-0.2
-0.185
-0.175
-0.155
-0.14
-0.15
-0.14
-0.125
-0.145
-0.195
-0.195
-0.19
-0.165
-0.17
-0.195
-0.215
-0.215
-0.215
-0.19
-0.265
-0.225
-0.195
-0.215
-0.215
-0.175
-0.195
-0.235
-0.245
-0.245
-0.22
-0.16
-0.19
-0.185
-0.18
-0.21
-0.26
-0.255
-0.24
-0.265
-0.32
-0.3
-0.36
-0.41
-0.375
-0.37
-0.43
-0.235
-0.13
-0.045
0.07
0.165
0.295
0.5
0.665
0.78
0.905
1.105
1.24
1.395
1.525
1.585
1.485
1.3
1.115
0.925
0.54
0.19
-0.01
-0.11
-0.155
-0.25
-0.24
-0.205
-0.19
-0.205
-0.23
-0.235
-0.19
-0.165
-0.145
-0.145
-0.225
-0.25
-0.21
-0.2
-0.21
-0.135
-0.14
-0.215
-0.175
-0.18
-0.195
-0.145
-0.165
-0.175
-0.19
-0.16
-0.18
-0.23
-0.195
-0.195
-0.175
-0.17
-0.16
-0.13
-0.145
-0.15
-0.135
-0.105
-0.145
-0.145
-0.13
-0.165
-0.185
-0.17
-0.115
-0.14
-0.15
-0.17
-0.16
-0.11
-0.06
-0.025
-0.085
-0.12
-0.085
-0.05
-0.07
-0.12
-0.08
-0.055
-0.09
-0.095
-0.045
-0.015
-0.035
-0.04
-0.03
-0.04
-0.025
0.0
0.055
0.07
0.065
0.035
0.03
0.0
0.04
0.065
0.105
0.11
0.125
0.125
0.11
0.115
0.08
0.165
0.18
0.155
0.15
0.135
0.155
0.16
0.21
0.225
0.22
0.175
0.17
0.205
0.2
0.14
0.165
0.155
0.19
0.19
0.12
0.085
0.04
0.06
0.09
0.065
0.015
0.0
-0.015
-0.085
-0.055
-0.055
-0.075
-0.065
-0.055
-0.105
-0.08
-0.115
-0.16
-0.175
-0.155
-0.175
-0.215
-0.185
-0.115
-0.1
-0.165
-0.17
-0.13
-0.17
-0.21
-0.225
-0.185
-0.21
-0.24
-0.185
-0.17
-0.16
-0.165
-0.2
-0.24
-0.235
-0.225
-0.22
-0.23
-0.225
-0.185
-0.15
-0.145
-0.22
-0.175
-0.2
-0.195
-0.165
-0.165
-0.165
-0.21
-0.18
-0.17
-0.19
-0.22
-0.175
-0.235
-0.225
-0.205
-0.215
-0.205
-0.125
-0.15
-0.21
-0.22
-0.2
-0.22
-0.19
-0.165
-0.225
-0.185
-0.185
-0.225
-0.235
-0.195
-0.155
-0.165
-0.17
-0.165
-0.175
-0.205
-0.21
-0.215
-0.205
-0.195
-0.19
-0.185
-0.155
-0.185
-0.215
-0.195
-0.205
-0.2
-0.175
-0.18
-0.18
-0.2
-0.185
-0.175
-0.165
-0.175
-0.175
-0.2
-0.18
-0.21
-0.21
-0.22
-0.19
-0.165
-0.155
-0.16
-0.155
-0.185
-0.17
-0.195
-0.2
-0.2
-0.18
-0.235
-0.185
-0.15
-0.14
-0.23
-0.26
-0.2
-0.215
-0.16
-0.125
-0.18
-0.225
-0.21
-0.225
-0.23
-0.215
-0.195
-0.195
-0.205
-0.2
-0.195
-0.16
-0.165
-0.185
-0.23
-0.225
-0.275
-0.215
-0.225
-0.2
-0.145
-0.2
-0.175
-0.17
-0.215
-0.23
-0.205
-0.225
-0.22
-0.18
-0.225
-0.19
-0.205
-0.215
-0.22
-0.23
-0.21
-0.2
-0.2
-0.195
-0.19
-0.225
-0.225
-0.21
-0.255
-0.16
-0.17
-0.25
-0.245
-0.135
-0.18
-0.21
-0.2
-0.235
-0.23
-0.21
-0.23
-0.255
-0.255
-0.24
-0.21
-0.215
-0.195
-0.14
-0.16
-0.165
-0.19
-0.245
-0.275
-0.215
-0.195
-0.2
-0.195
-0.235
-0.235
-0.2
-0.22
-0.195
-0.205
-0.205
-0.21
-0.24
-0.21
-0.215
-0.21
-0.23
-0.215
-0.26
-0.21
-0.225
-0.22
-0.165
-0.185
-0.215
-0.245
-0.195
-0.225
-0.265
-0.3
-0.235
-0.145
-0.18
-0.195
-0.22
-0.19
-0.17
-0.155
-0.205
-0.185
-0.19
-0.21
-0.215
-0.15
-0.2
-0.18
-0.235
-0.26
-0.235
-0.175
-0.155
-0.165
-0.175
-0.15
-0.15
-0.11
-0.135
-0.19
-0.195
-0.17
-0.15
-0.145
-0.125
-0.14
-0.21
-0.23
-0.23
-0.205
-0.195
-0.2
-0.135
-0.13
-0.14
-0.145
-0.18
-0.19
-0.195
-0.24
-0.185
-0.14
-0.13
-0.16
-0.2
-0.18
-0.2
-0.225
-0.205
-0.175
-0.19
-0.21
-0.23
-0.21
-0.205
-0.175
-0.215
-0.255
-0.23
-0.21
-0.245
-0.25
-0.235
-0.23
-0.24
-0.215
-0.165
-0.22
-0.23
-0.235
-0.225
-0.245
-0.285
-0.335
-0.375
-0.4
-0.445
-0.385
-0.4
-0.31
-0.215
-0.065
0.055
0.125
0.21
0.38
0.495
0.595
0.79
0.985
1.165
1.33
1.465
1.53
1.505
1.415
1.255
1.035
0.815
0.41
0.11
-0.04
-0.15
-0.22
-0.225
-0.235
-0.245
-0.22
-0.245
-0.245
-0.235
-0.25
-0.215
-0.18
-0.155
-0.17
-0.21
-0.19
-0.275
-0.26
-0.27
-0.23
-0.175
-0.155
-0.145
-0.19
-0.18
-0.145
-0.165
-0.225
-0.24
-0.2
-0.19
-0.155
-0.135
-0.175
-0.19
-0.16
-0.15
-0.185
-0.17
-0.165
-0.175
-0.17
-0.17
-0.17
-0.16
-0.16
-0.145
-0.15
-0.11
-0.11
-0.13
-0.125
-0.155
-0.135
-0.095
-0.13
-0.155
-0.135
-0.105
-0.075
-0.08
-0.02
-0.05
-0.08
-0.105
-0.06
-0.045
-0.065
-0.015
0.01
-0.03
0.0
0.005
-0.015
0.03
0.01
0.015
0.055
0.11
0.1
0.1
0.095
0.125
0.125
0.14
0.125
0.115
0.14
0.185
0.155
0.15
0.13
0.155
0.165
0.175
0.185
0.17
0.15
0.22
0.21
0.195
0.23
0.145
0.135
0.145
0.1
0.1
0.09
0.11
0.125
0.085
-0.015
0.02
0.06
0.03
-0.02
-0.025
-0.065
-0.08
-0.09
-0.105
-0.1
-0.14
-0.14
-0.085
-0.115
-0.155
-0.165
-0.15
-0.155
-0.165
-0.17
-0.15
-0.205
-0.2
-0.185
-0.19
-0.195
-0.155
-0.14
-0.16
-0.22
-0.185
-0.245
-0.2
-0.21
-0.205
-0.225
-0.195
-0.145
-0.165
-0.165
-0.12
-0.2
-0.19
-0.215
-0.255
-0.19
-0.185
-0.17
-0.195
-0.19
-0.145
-0.205
-0.19
-0.175
-0.22
-0.215
-0.21
-0.23
-0.185
-0.185
-0.215
-0.16
-0.165
-0.17
-0.215
-0.19
-0.135
-0.19
-0.2
-0.19
-0.17
-0.14
-0.185
-0.175
-0.205
-0.185
-0.205
-0.25
-0.2
-0.175
-0.18
-0.175
-0.12
-0.135
-0.17
-0.15
-0.195
-0.2
-0.185
-0.165
-0.17
-0.195
-0.165
-0.155
-0.2
-0.175
-0.16
-0.195
-0.205
-0.22
-0.21
-0.155
-0.135
-0.14
-0.165
-0.11
-0.16
-0.195
-0.17
-0.12
-0.165
-0.2
-0.205
-0.185
-0.225
-0.215
-0.115
-0.15
-0.135
-0.145
-0.155
-0.165
-0.13
-0.17
-0.195
-0.195
-0.175
-0.14
-0.23
-0.205
-0.155
-0.115
-0.15
-0.16
-0.17
-0.17
-0.19
-0.14
-0.17
-0.215
-0.175
-0.19
-0.185
-0.155
-0.15
-0.145
-0.17
-0.19
-0.175
-0.14
-0.18
-0.24
-0.19
-0.14
-0.195
-0.195
-0.15
-0.15
-0.15
-0.125
-0.17
-0.235
-0.17
-0.19
-0.21
-0.175
-0.19
-0.19
-0.18
-0.175
-0.165
-0.185
-0.2
-0.145
-0.18
-0.18
-0.105
-0.155
-0.175
-0.135
-0.195
-0.19
-0.17
-0.16
-0.165
-0.165
-0.16
-0.185
-0.145
-0.2
-0.2
-0.19
-0.16
-0.185
-0.205
-0.17
-0.17
-0.165
-0.16
-0.175
-0.19
-0.14
-0.13
-0.17
-0.155
-0.185
-0.205
-0.21
-0.19
-0.165
-0.175
-0.13
-0.135
-0.185
-0.145
-0.12
-0.15
-0.21
-0.17
-0.18
-0.185
-0.18
-0.125
-0.16
-0.18
-0.17
-0.185
-0.17
-0.14
-0.19
-0.16
-0.145
-0.16
-0.19
-0.15
-0.14
-0.12
-0.12
-0.12
-0.1
-0.16
-0.125
-0.14
-0.135
-0.14
-0.15
-0.135
-0.12
-0.1
-0.15
-0.14
-0.09
-0.08
-0.11
-0.085
-0.11
-0.09
-0.12
-0.12
-0.16
-0.175
-0.165
-0.195
-0.155
-0.075
-0.11
-0.115
-0.13
-0.1
-0.15
-0.115
-0.115
-0.12
-0.18
-0.155
-0.085
-0.105
-0.165
-0.175
-0.145
-0.155
-0.175
-0.19
-0.15
-0.15
-0.17
-0.19
-0.175
-0.16
-0.2
-0.18
-0.15
-0.17
-0.2
-0.17
-0.15
-0.195
-0.205
-0.18
-0.175
-0.16
-0.25
-0.325
-0.325
-0.38
-0.385
-0.36
-0.365
-0.295
-0.185
-0.065
0.04
0.135
0.185
0.3
0.53
0.685
0.835
1.035
1.145
1.335
1.505
1.525
1.545
1.53
1.415
1.185
0.96
0.59
0.31
0.095
-0.065
-0.085
-0.135
-0.205
-0.18
-0.185
-0.205
-0.18
-0.15
-0.12
-0.15
-0.205
-0.14
-0.12
-0.14
-0.15
-0.14
-0.12
-0.15
-0.095
-0.135
-0.195
-0.155
-0.125
-0.105
-0.14
-0.135
-0.1
-0.145
-0.105
-0.115
-0.08
-0.03
-0.1
-0.105
-0.07
-0.1
-0.095
-0.13
-0.13
-0.075
-0.05
-0.03
-0.005
-0.055
-0.065
-0.055
-0.04
-0.01
0.0
-0.005
-0.05
-0.02
-0.045
-0.045
-0.02
0.01
-0.03
-0.005
0.02
-0.005
-0.01
0.06
0.055
0.025
0.015
0.06
0.065
0.05
0.09
0.12
0.035
0.065
0.105
0.09
0.09
0.16
0.16
0.15
0.185
0.15
0.13
0.16
0.21
0.215
0.245
0.225
0.18
0.24
0.28
0.31
0.285
0.225
0.25
0.255
0.235
0.25
0.235
0.25
0.27
0.24
0.25
0.285
0.255
0.245
0.215
0.21
0.175
0.18
0.165
0.135
0.11
0.14
0.145
0.095
0.105
0.075
0.045
-0.02
0.01
0.02
-0.01
-0.035
-0.05
-0.045
-0.075
-0.055
-0.07
-0.085
-0.08
-0.055
-0.1
-0.11
-0.1
-0.04
-0.05
-0.09
-0.105
-0.095
-0.065
-0.135
-0.2
-0.115
-0.065
-0.125
-0.14
-0.105
-0.095
-0.125
-0.185
-0.18
-0.155
-0.08
-0.07
-0.075
-0.115
-0.09
-0.13
-0.105
-0.075
-0.105
-0.12
-0.125
-0.08
-0.105
-0.125
-0.13
-0.145
-0.13
-0.105
-0.145
-0.155
-0.115
-0.065
-0.1
-0.095
-0.12
-0.13
-0.09
-0.095
-0.145
-0.095
-0.11
-0.165
-0.15
-0.07
-0.065
-0.095
-0.125
-0.105
-0.135
-0.1
-0.1
-0.14
-0.13
-0.08
-0.09
-0.1
-0.105
-0.095
-0.125
-0.11
-0.1
-0.055
-0.09
-0.105
-0.045
-0.055
-0.085
-0.065
-0.135
-0.105
-0.12
-0.145
-0.14
-0.145
-0.11
-0.055
-0.135
-0.11
-0.08
-0.075
-0.095
-0.08
-0.075
-0.105
-0.105
-0.1
-0.095
-0.085
-0.17
-0.105
-0.035
-0.11
-0.095
-0.07
-0.09
-0.105
-0.08
-0.085
-0.12
-0.095
-0.105
-0.13
-0.12
-0.105
-0.115
-0.09
-0.075
-0.13
-0.12
-0.095
-0.05
-0.095
-0.125
-0.075
-0.09
-0.095
-0.155
-0.165
-0.14
-0.145
-0.105
-0.095
-0.05
-0.065
-0.11
-0.095
-0.105
-0.075
-0.08
-0.1
-0.13
-0.12
-0.1
-0.12
-0.105
-0.095
-0.055
-0.095
-0.105
-0.06
-0.145
-0.155
-0.095
-0.105
-0.125
-0.05
-0.03
-0.07
-0.095
-0.12
-0.125
-0.115
-0.14
-0.1
-0.11
-0.11
-0.08
-0.08
-0.105
-0.065
-0.09
-0.115
-0.13
-0.135
-0.115
-0.055
-0.065
-0.08
-0.1
-0.075
-0.095
-0.095
-0.035
-0.095
-0.21
-0.13
-0.095
-0.125
-0.14
-0.075
-0.09
-0.06
-0.065
-0.025
-0.04
-0.135
-0.125
-0.135
-0.095
-0.1
-0.125
-0.105
-0.08
-0.085
-0.105
-0.065
-0.09
-0.105
-0.1
-0.08
-0.1
-0.1
-0.025
-0.05
-0.075
-0.04
-0.045
-0.055
-0.04
-0.08
-0.085
-0.015
0.025
-0.035
-0.065
-0.055
-0.065
-0.115
-0.065
-0.015
-0.01
-0.06
-0.09
-0.055
-0.015
-0.04
-0.055
-0.05
-0.03
-0.03
-0.04
0.0
-0.015
-0.08
-0.07
-0.085
-0.075
-0.085
-0.105
-0.11
-0.035
-0.085
-0.095
-0.12
-0.1
-0.06
-0.005
-0.055
-0.055
-0.105
-0.1
-0.1
-0.08
-0.08
-0.08
-0.06
-0.095
-0.07
-0.09
-0.115
-0.12
-0.18
-0.175
-0.25
-0.285
-0.285
-0.305
-0.295
-0.17
-0.065
0.02
0.15
0.225
0.31
0.475
0.66
0.78
0.945
1.11
1.27
1.405
1.56
1.655
1.635
1.55
1.39
1.18
0.925
0.545
0.255
0.095
-0.03
-0.065
-0.15
-0.125
-0.155
-0.12
-0.05
-0.075
-0.075
-0.09
-0.1
-0.085
-0.11
-0.025
-0.065
-0.115
-0.085
-0.07
-0.075
-0.1
-0.09
-0.07
-0.08
-0.095
-0.07
-0.06
-0.07
-0.07
-0.105
-0.085
-0.05
-0.055
-0.1
-0.075
-0.055
-0.06
0.005
-0.06
-0.08
-0.035
-0.025
-0.005
-0.04
-0.04
0.0
-0.035
-0.07
-0.04
0.01
-0.03
-0.025
-0.02
-0.01
0.0
-0.02
0.025
0.025
0.0
-0.005
0.07
0.01
0.055
0.04
0.08
0.075
0.03
0.065
0.08
0.085
0.06
0.105
0.115
0.14
0.18
0.175
0.13
0.155
0.09
0.125
0.21
0.24
0.21
0.19
0.195
0.225
0.2
0.265
0.275
0.275
0.305
0.28
0.195
0.225
0.325
0.325
0.315
0.295
0.34
0.3
0.33
0.31
0.25
0.235
0.255
0.265
0.25
0.25
0.2
0.235
0.225
0.235
0.21
0.14
0.17
0.095
0.07
0.105
0.025
-0.03
-0.02
0.065
0.06
0.035
0.005
-0.03
-0.06
-0.02
-0.005
-0.025
-0.035
-0.05
-0.085
-0.075
-0.065
-0.035
-0.015
-0.005
-0.035
-0.115
-0.065
-0.02
-0.1
-0.095
-0.105
-0.09
-0.105
-0.085
-0.065
-0.04
-0.05
-0.105
-0.085
-0.075
-0.055
-0.06
-0.065
-0.04
-0.09
-0.115
-0.115
-0.065
-0.1
-0.07
-0.085
-0.105
-0.095
-0.11
-0.095
-0.085
-0.045
-0.06
-0.105
-0.055
-0.025
-0.04
-0.06
-0.025
-0.02
-0.095
-0.085
-0.055
-0.075
-0.07
-0.06
-0.035
-0.07
-0.075
-0.065
-0.06
-0.045
-0.09
-0.14
-0.11
-0.105
-0.075
-0.085
-0.08
-0.05
-0.045
-0.055
-0.075
-0.07
-0.025
-0.085
-0.075
-0.065
-0.05
-0.08
-0.13
-0.065
-0.035
-0.055
-0.025
-0.04
-0.075
-0.045
-0.055
-0.06
-0.06
-0.06
-0.09
-0.055
-0.075
-0.07
-0.045
-0.045
-0.06
-0.085
-0.075
-0.06
-0.075
-0.08
-0.035
-0.025
-0.055
-0.05
-0.04
-0.08
-0.11
-0.095
-0.07
-0.045
-0.015
-0.05
-0.105
-0.08
-0.05
-0.07
-0.06
-0.05
-0.085
-0.07
-0.05
-0.075
-0.125
-0.145
-0.105
-0.035
-0.045
-0.07
-0.07
-0.09
-0.06
-0.035
-0.06
-0.06
-0.135
-0.16
-0.105
-0.08
-0.035
0.025
-0.01
-0.05
-0.12
-0.07
-0.06
-0.09
-0.1
-0.04
-0.065
-0.11
-0.135
-0.095
-0.04
-0.005
-0.07
-0.09
-0.08
-0.075
-0.07
-0.065
-0.055
-0.005
-0.095
-0.1
-0.06
-0.075
-0.065
-0.085
-0.145
-0.15
-0.08
-0.085
-0.08
0.01
0.005
-0.085
-0.135
-0.015
-0.02
-0.025
-0.05
-0.075
-0.115
-0.1
-0.07
-0.055
-0.03
-0.03
-0.065
-0.025
0.0
0.005
0.01
0.005
-0.01
-0.015
-0.01
-0.065
-0.04
-0.035
-0.03
-0.03
-0.07
-0.04
0.01
-0.065
-0.045
-0.035
-0.015
-0.055
-0.025
-0.035
-0.025
-0.005
-0.05
-0.09
-0.05
-0.035
-0.055
-0.09
-0.075
-0.105
-0.095
-0.07
-0.095
-0.085
-0.11
-0.125
-0.08
-0.08
-0.1
-0.125
-0.075
-0.075
-0.08
-0.135
-0.06
-0.09
-0.075
-0.045
-0.08
-0.12
-0.105
-0.105
-0.2
-0.18
-0.24
-0.295
-0.29
-0.29
-0.26
-0.195
-0.075
0.07
0.145
0.225
0.385
0.575
0.745
0.845
0.96
1.125
1.38
1.57
1.61
1.675
1.64
1.485
1.33
1.11
0.805
0.455
0.22
0.04
-0.095
-0.14
-0.195
-0.19
-0.09
-0.07
-0.065
-0.12
-0.1
-0.075
-0.035
-0.045
-0.015
-0.095
-0.085
-0.08
-0.075
-0.09
-0.1
-0.095
-0.07
-0.085
-0.09
-0.1
-0.055
-0.045
-0.085
-0.08
-0.075
-0.11
-0.11
-0.045
-0.005
-0.07
-0.06
-0.025
-0.04
-0.07
-0.03
-0.06
-0.055
-0.055
-0.02
-0.065
-0.035
0.0
-0.035
-0.035
-0.005
-0.02
-0.02
0.05
0.06
0.015
-0.04
-0.045
-0.02
-0.015
0.045
0.08
0.115
0.09
0.025
0.045
0.055
0.055
0.105
0.06
0.1
0.055
0.0
0.11
0.145
0.135
0.13
0.2
0.205
0.175
0.205
0.2
0.17
0.21
0.26
0.185
0.19
0.21
0.215
0.29
0.335
0.305
0.3
0.35
0.365
0.3
0.275
0.215
0.27
0.315
0.325
0.29
0.37
0.305
0.26
0.24
0.225
0.24
0.25
0.245
0.23
0.165
0.14
0.165
0.125
0.145
0.09
0.045
0.03
0.015
0.1
0.07
0.06
0.015
-0.005
-0.03
-0.04
-0.045
-0.025
-0.05
-0.01
-0.025
-0.05
-0.025
-0.04
-0.095
-0.12
-0.04
-0.035
-0.02
0.0
-0.06
-0.095
-0.13
-0.105
-0.09
-0.04
-0.035
-0.135
-0.09
-0.045
-0.085
-0.085
-0.06
-0.115
-0.125
-0.115
-0.095
-0.09
-0.02
-0.045
-0.055
-0.06
-0.08
-0.11
-0.185
-0.08
-0.06
-0.055
-0.03
-0.075
-0.1
-0.09
-0.075
-0.065
-0.035
-0.085
-0.07
-0.09
-0.05
-0.075
-0.06
-0.045
-0.035
-0.13
-0.115
-0.005
-0.02
-0.08
-0.015
-0.055
-0.095
-0.085
-0.02
-0.07
-0.1
-0.08
-0.1
-0.115
-0.085
-0.05
-0.055
-0.085
-0.045
-0.09
-0.08
-0.055
-0.05
-0.065
-0.08
-0.095
-0.045
-0.01
-0.055
-0.055
-0.075
-0.085
-0.11
-0.1
-0.04
-0.045
-0.05
-0.09
-0.035
-0.095
-0.06
-0.045
-0.08
-0.04
-0.01
-0.06
-0.105
-0.085
-0.085
-0.095
-0.09
-0.065
-0.06
-0.045
-0.035
-0.075
-0.095
-0.08
-0.055
-0.035
-0.015
-0.07
-0.065
-0.115
-0.11
-0.085
-0.115
-0.07
-0.065
-0.095
-0.075
-0.09
-0.135
-0.1
-0.06
-0.055
-0.03
-0.045
-0.095
-0.085
-0.05
-0.055
-0.07
-0.085
-0.045
-0.065
-0.065
-0.05
-0.125
-0.11
-0.1
-0.09
-0.105
-0.045
-0.055
-0.095
-0.06
-0.09
-0.08
-0.08
-0.085
-0.115
-0.14
-0.095
-0.04
-0.08
-0.075
-0.07
-0.045
-0.06
-0.105
-0.095
-0.105
-0.015
-0.05
-0.035
-0.035
-0.085
-0.085
-0.03
-0.015
-0.035
-0.085
-0.04
-0.035
-0.03
-0.005
-0.04
-0.025
-0.005
-0.06
-0.09
-0.12
-0.045
0.005
0.045
-0.005
-0.04
-0.035
-0.06
-0.075
-0.09
-0.1
-0.095
-0.02
-0.075
-0.085
-0.07
-0.075
-0.065
-0.07
-0.09
-0.125
-0.135
-0.12
-0.085
-0.11
-0.075
-0.1
-0.09
-0.07
-0.065
-0.08
-0.085
-0.11
-0.13
-0.115
-0.085
-0.16
-0.11
-0.095
-0.095
-0.145
-0.16
-0.175
-0.215
-0.255
-0.345
-0.31
-0.235
-0.21
-0.12
-0.03
0.165
0.235
0.345
0.5
0.65
0.735
0.83
1.1
1.3
1.445
1.535
1.59
1.545
1.49
1.31
1.02
0.725
0.475
0.165
-0.015
-0.115
-0.155
-0.15
-0.175
-0.185
-0.165
-0.08
-0.105
-0.1
-0.145
-0.14
-0.11
-0.07
-0.03
-0.015
-0.08
-0.07
-0.075
-0.115
-0.095
-0.09
-0.125
-0.085
-0.035
-0.045
-0.09
-0.075
-0.045
-0.115
-0.04
-0.05
-0.075
-0.1
-0.09
-0.09
-0.05
-0.05
-0.045
-0.01
-0.02
-0.045
-0.09
-0.085
-0.06
-0.045
-0.025
0.035
0.035
-0.005
-0.02
0.02
0.015
0.005
-0.02
-0.05
0.035
0.04
0.005
0.035
0.085
0.01
0.005
0.075
0.085
0.075
0.065
0.105
0.11
0.1
0.13
0.105
0.12
0.145
0.11
0.135
0.14
0.165
0.19
0.175
0.215
0.285
0.205
0.25
0.26
0.2
0.17
0.27
0.31
0.25
0.31
0.345
0.33
0.27
0.295
0.28
0.305
0.345
0.3
0.295
0.32
0.355
0.34
0.26
0.255
0.255
0.27
0.225
0.25
0.225
0.21
0.16
0.15
0.13
0.12
0.125
0.14
0.09
0.05
0.005
0.03
0.01
-0.01
0.005
-0.015
-0.015
0.025
0.055
-0.05
-0.08
0.03
0.04
-0.05
-0.105
-0.11
-0.085
-0.085
-0.07
-0.075
-0.065
-0.08
-0.055
-0.06
-0.105
-0.02
-0.045
-0.07
-0.06
-0.065
-0.05
-0.04
-0.085
-0.045
-0.09
-0.08
-0.07
-0.06
-0.04
-0.085
-0.075
-0.065
-0.03
-0.065
-0.085
-0.07
-0.03
-0.065
0.005
-0.115
-0.075
-0.065
-0.08
-0.09
-0.105
-0.075
-0.055
-0.085
-0.075
-0.035
-0.045
-0.06
-0.06
-0.09
-0.085
-0.09
-0.07
-0.04
-0.04
-0.105
-0.11
-0.08
-0.06
-0.065
-0.07
-0.055
-0.07
-0.095
-0.105
-0.09
-0.01
0.01
-0.045
-0.035
-0.04
-0.065
-0.09
-0.095
-0.06
-0.085
-0.035
0.025
-0.075
-0.075
-0.01
-0.06
-0.055
-0.045
-0.04
-0.055
-0.035
-0.08
-0.08
-0.03
-0.065
-0.105
-0.11
-0.075
-0.065
-0.06
-0.03
-0.035
-0.06
-0.04
-0.04
-0.095
-0.125
-0.06
-0.06
0.01
-0.04
-0.055
0.04
-0.065
-0.09
-0.105
-0.115
-0.075
-0.06
-0.07
-0.04
-0.06
-0.075
-0.09
-0.055
-0.03
-0.04
-0.08
-0.055
-0.06
-0.04
-0.08
-0.08
-0.095
-0.055
-0.06
0.005
-0.01
-0.09
-0.105
-0.075
-0.055
-0.045
-0.075
-0.075
-0.01
-0.065
-0.065
-0.06
-0.045
-0.035
-0.06
-0.105
-0.06
0.0
-0.045
-0.085
-0.105
-0.065
-0.07
-0.085
-0.115
-0.165
-0.06
-0.01
-0.05
-0.015
0.0
-0.055
-0.065
-0.045
-0.08
-0.105
-0.05
-0.025
-0.01
0.0
-0.035
-0.065
-0.055
-0.05
0.005
-0.005
-0.025
-0.02
-0.055
-0.015
-0.025
-0.03
-0.05
-0.04
-0.015
-0.005
-0.01
-0.065
-0.045
0.02
-0.04
-0.07
-0.09
-0.075
0.035
0.055
-0.025
0.0
-0.035
0.025
0.005
-0.02
-0.055
-0.02
-0.065
-0.05
-0.065
-0.075
-0.11
-0.085
-0.095
-0.12
-0.12
-0.1
-0.04
0.035
-0.01
-0.15
-0.165
-0.09
-0.095
-0.06
-0.045
-0.02
-0.135
-0.115
-0.025
-0.045
-0.105
-0.19
-0.225
-0.24
-0.185
-0.205
-0.245
-0.14
-0.09
0.015
0.09
0.24
0.32
0.39
0.62
0.795
0.89
0.985
1.2
1.35
1.49
1.54
1.505
1.435
1.38
1.225
0.955
0.615
0.325
0.14
-0.03
-0.13
-0.165
-0.135
-0.085
-0.075
-0.13
-0.105
-0.075
-0.11
-0.09
-0.05
0.01
0.045
-0.03
-0.1
-0.095
-0.05
-0.095
-0.06
-0.02
-0.1
-0.1
-0.08
-0.045
-0.08
-0.04
-0.015
-0.055
-0.115
-0.095
-0.04
-0.05
-0.06
-0.01
0.01
-0.04
-0.07
-0.04
0.045
0.015
-0.015
0.025
-0.035
-0.02
-0.01
-0.045
-0.005
0.035
0.005
-0.02
0.015
0.015
-0.015
0.02
0.035
0.03
-0.02
0.06
0.055
0.05
0.055
0.025
0.06
0.12
0.115
0.115
0.11
0.13
0.145
0.11
0.105
0.075
0.11
0.16
0.16
0.185
0.26
0.185
0.135
0.23
0.215
0.24
0.19
0.235
0.24
0.23
0.285
0.29
0.27
0.275
0.315
0.305
0.26
0.325
0.315
0.22
0.265
0.33
0.34
0.295
0.3
0.31
0.305
0.305
0.24
0.265
0.26
0.23
0.2
0.17
0.06
0.04
0.165
0.175
0.14
0.145
0.115
0.075
-0.02
-0.005
-0.005
-0.025
-0.03
-0.035
-0.065
-0.015
0.005
-0.01
-0.025
-0.065
-0.07
-0.075
-0.02
0.005
-0.02
-0.035
0.02
-0.04
-0.075
-0.05
-0.02
-0.075
-0.06
-0.03
-0.07
-0.085
-0.035
-0.035
-0.065
-0.08
-0.075
-0.04
0.04
0.025
-0.055
-0.095
-0.07
-0.05
-0.04
-0.07
-0.09
-0.06
-0.025
-0.04
-0.085
-0.055
-0.01
0.01
0.02
-0.075
-0.05
-0.1
-0.04
-0.06
-0.075
-0.005
-0.005
-0.07
-0.085
-0.03
-0.04
-0.03
-0.045
-0.06
-0.085
-0.02
-0.025
-0.075
-0.04
-0.02
-0.06
-0.035
-0.03
-0.03
-0.02
-0.04
-0.08
-0.055
-0.025
-0.055
-0.07
-0.055
0.01
0.03
-0.035
-0.025
-0.04
-0.065
-0.035
-0.03
-0.06
-0.04
0.0
-0.02
-0.07
-0.055
-0.035
-0.05
-0.005
-0.015
-0.075
-0.045
-0.02
-0.005
0.015
-0.045
-0.06
-0.035
0.025
-0.05
-0.09
-0.09
-0.04
-0.035
-0.02
-0.055
-0.055
-0.04
-0.08
-0.115
-0.045
-0.03
0.02
-0.03
-0.05
-0.05
-0.085
-0.015
-0.01
-0.03
-0.03
-0.06
-0.08
-0.025
-0.035
-0.065
-0.05
-0.015
-0.02
-0.095
-0.09
-0.035
-0.03
-0.015
0.005
-0.02
-0.06
-0.075
-0.105
-0.035
-0.05
0.015
0.015
-0.005
-0.075
-0.075
-0.065
-0.035
-0.065
-0.15
-0.06
-0.015
-0.03
0.01
-0.045
-0.085
-0.08
-0.055
0.005
-0.015
-0.02
-0.005
-0.04
-0.03
0.0
-0.025
-0.03
-0.03
-0.045
-0.035
-0.02
-0.03
0.02
0.045
0.03
0.07
0.045
0.02
-0.04
-0.06
-0.055
0.01
0.015
0.0
-0.02
-0.01
-0.045
-0.045
-0.045
-0.015
-0.02
0.035
0.005
-0.02
-0.01
-0.005
-0.025
-0.075
-0.015
-0.05
-0.085
-0.035
-0.03
-0.02
-0.05
-0.055
-0.055
-0.045
-0.07
-0.07
-0.1
-0.06
-0.075
-0.135
-0.06
-0.05
-0.085
-0.095
-0.11
-0.165
-0.08
0.01
-0.075
-0.095
-0.135
-0.19
-0.225
-0.215
-0.24
-0.26
-0.175
-0.05
-0.05
0.06
0.185
0.255
0.345
0.48
0.63
0.755
0.9
1.035
1.205
1.385
1.465
1.555
1.56
1.455
1.27
1.09
0.885
0.55
0.3
0.06
0.02
0.05
-0.075
-0.11
-0.07
-0.05
-0.03
-0.045
-0.13
-0.145
-0.095
-0.035
-0.06
-0.09
-0.07
-0.04
-0.03
-0.065
-0.075
-0.065
-0.085
-0.04
-0.055
-0.085
-0.075
-0.05
-0.035
-0.035
-0.05
-0.075
-0.025
-0.01
-0.06
-0.04
-0.005
-0.035
-0.07
-0.04
-0.05
-0.04
-0.01
-0.055
0.0
-0.015
-0.03
0.0
-0.005
0.015
-0.015
-0.035
-0.04
-0.025
-0.055
0.035
0.06
0.02
0.005
0.01
0.03
0.02
0.08
0.045
0.045
0.07
0.075
0.08
0.1
0.085
0.07
0.085
0.08
0.1
0.1
0.145
0.115
0.06
0.135
0.18
0.155
0.19
0.315
0.235
0.215
0.23
0.26
0.255
0.265
0.27
0.265
0.26
0.27
0.275
0.25
0.255
0.29
0.33
0.38
0.32
0.375
0.38
0.405
0.35
0.41
0.435
0.38
0.31
0.345
0.335
0.305
0.255
0.255
0.25
0.235
0.205
0.19
0.165
0.18
0.095
0.095
0.085
0.055
0.09
0.12
0.08
0.065
0.045
0.01
0.03
0.03
-0.005
0.045
0.03
0.025
0.005
0.06
0.035
0.045
-0.045
-0.105
-0.04
-0.005
-0.02
-0.06
-0.015
-0.065
-0.1
-0.01
-0.035
0.005
0.02
-0.035
-0.095
-0.08
-0.005
0.035
-0.005
-0.03
-0.05
-0.045
-0.045
-0.01
-0.05
-0.09
-0.095
-0.055
-0.015
-0.045
-0.075
-0.055
-0.04
-0.06
-0.075
-0.02
-0.04
-0.1
-0.045
-0.035
-0.06
-0.055
-0.105
-0.12
-0.06
-0.025
-0.035
-0.035
-0.065
-0.05
-0.045
-0.065
-0.06
-0.075
-0.085
-0.08
-0.055
-0.03
-0.07
-0.07
-0.06
-0.13
-0.1
-0.1
-0.025
-0.015
-0.03
-0.055
-0.07
-0.035
-0.125
-0.12
-0.055
-0.05
-0.11
-0.08
-0.085
-0.06
-0.04
-0.065
-0.115
-0.145
-0.095
-0.055
-0.05
-0.065
-0.065
-0.11
-0.09
-0.045
-0.07
-0.115
-0.06
-0.08
-0.085
-0.1
-0.095
-0.08
-0.07
-0.07
-0.115
-0.175
-0.085
-0.09
-0.1
-0.11
-0.035
-0.055
-0.1
-0.16
-0.11
-0.1
-0.105
-0.1
-0.09
-0.13
-0.09
-0.135
-0.13
-0.11
-0.135
-0.08
-0.135
-0.145
-0.095
-0.085
-0.14
-0.14
-0.135
-0.095
-0.11
-0.11
-0.105
-0.15
-0.085
-0.095
-0.135
-0.125
-0.14
-0.1
-0.095
-0.135
-0.125
-0.11
-0.12
-0.08
-0.135
-0.155
-0.13
-0.14
-0.11
-0.14
-0.115
-0.09
-0.135
-0.16
-0.185
-0.155
-0.155
-0.185
-0.105
-0.11
-0.095
-0.105
-0.165
-0.125
-0.145
-0.14
-0.11
-0.16
-0.19
-0.11
-0.125
-0.185
-0.11
-0.085
-0.135
-0.1
-0.08
-0.085
-0.115
-0.1
-0.17
-0.135
-0.095
-0.105
-0.09
-0.07
-0.055
-0.095
-0.135
-0.11
-0.095
-0.095
-0.165
-0.15
-0.065
-0.09
-0.12
-0.105
-0.11
-0.09
-0.125
-0.11
-0.12
-0.115
-0.095
-0.1
-0.09
-0.045
-0.09
-0.155
-0.195
-0.21
-0.165
-0.14
-0.185
-0.145
-0.135
-0.15
-0.17
-0.16
-0.175
-0.185
-0.18
-0.18
-0.19
-0.195
-0.195
-0.145
-0.155
-0.105
-0.17
-0.215
-0.19
-0.2
-0.225
-0.19
-0.17
-0.155
-0.25
-0.275
-0.355
-0.385
-0.405
-0.395
-0.36
-0.25
-0.135
-0.06
0.055
0.17
0.245
0.4
0.595
0.705
0.755
1.065
1.24
1.32
1.395
1.475
1.49
1.35
1.19
1.03
0.705
0.37
0.165
-0.06
-0.145
-0.19
-0.22
-0.14
-0.185
-0.2
-0.215
-0.155
-0.15
-0.165
-0.165
-0.18
-0.175
-0.18
-0.175
-0.195
-0.17
-0.155
-0.155
-0.19
-0.145
-0.17
-0.23
-0.195
-0.17
-0.17
-0.145
-0.15
-0.2
-0.175
-0.17
-0.145
-0.195
-0.19
-0.145
-0.12
-0.11
-0.085
-0.145
-0.19
-0.195
-0.145
-0.135
-0.145
-0.205
-0.18
-0.075
-0.07
-0.07
-0.1
-0.125
-0.12
-0.125
-0.17
-0.11
-0.09
-0.105
-0.07
-0.09
-0.09
-0.085
-0.055
-0.055
-0.08
-0.085
-0.05
-0.085
-0.005
-0.005
-0.025
-0.015
0.03
0.05
-0.015
-0.02
0.015
0.04
0.04
0.045
0.085
0.06
0.1
0.14
0.135
0.075
0.095
0.125
0.155
0.13
0.125
0.185
0.175
0.175
0.2
0.175
0.095
0.115
0.125
0.1
0.08
0.15
0.18
0.14
0.16
0.16
0.13
0.13
0.08
0.005
0.025
0.045
-0.005
-0.035
-0.055
-0.055
-0.07
-0.075
-0.085
-0.145
-0.085
-0.06
-0.095
-0.14
-0.11
-0.165
-0.195
-0.16
-0.16
-0.16
-0.205
-0.205
-0.18
-0.205
-0.19
-0.175
-0.21
-0.19
-0.195
-0.2
-0.265
-0.215
-0.195
-0.075
-0.175
-0.29
-0.31
-0.24
-0.205
-0.18
-0.215
-0.25
-0.235
-0.19
-0.175
-0.19
-0.21
-0.195
-0.17
-0.19
-0.21
-0.225
-0.24
-0.195
-0.21
-0.22
-0.25
-0.205
-0.19
-0.28
-0.23
-0.145
-0.19
-0.215
-0.205
-0.195
-0.21
-0.21
-0.215
-0.22
-0.22
-0.24
-0.185
-0.175
-0.185
-0.215
-0.235
-0.215
-0.225
-0.195
-0.2
-0.215
-0.215
-0.205
-0.215
-0.32
-0.245
-0.165
-0.215
-0.225
-0.24
-0.215
-0.205
-0.215
-0.205
-0.19
-0.21
-0.16
-0.17
-0.17
-0.195
-0.265
-0.28
-0.24
-0.245
-0.255
-0.215
-0.165
-0.205
-0.21
-0.195
-0.195
-0.195
-0.205
-0.23
-0.245
-0.19
-0.165
-0.205
-0.21
-0.175
-0.245
-0.255
-0.215
-0.21
-0.265
-0.185
-0.175
-0.21
-0.25
-0.28
-0.225
-0.23
-0.14
-0.2
-0.28
-0.205
-0.23
-0.26
-0.24
-0.255
-0.21
-0.255
-0.24
-0.2
-0.215
-0.215
-0.215
-0.205
-0.215
-0.235
-0.225
-0.225
-0.215
-0.19
-0.225
-0.205
-0.235
-0.255
-0.235
-0.235
-0.295
-0.265
-0.24
-0.195
-0.205
-0.24
-0.25
-0.285
-0.225
-0.175
-0.23
-0.235
-0.25
-0.22
-0.295
-0.22
-0.18
-0.24
-0.32
-0.25
-0.27
-0.23
-0.25
-0.205
-0.21
-0.205
-0.23
-0.23
-0.215
-0.24
-0.26
-0.28
-0.225
-0.22
-0.235
-0.175
-0.235
-0.26
-0.265
-0.23
-0.235
-0.17
-0.165
-0.235
-0.24
-0.245
-0.265
-0.315
-0.295
-0.225
-0.27
-0.22
-0.2
-0.215
-0.265
-0.2
-0.24
-0.31
-0.24
-0.19
-0.215
-0.215
-0.26
-0.27
-0.235
-0.195
-0.25
-0.22
-0.21
-0.215
-0.225
-0.245
-0.215
-0.245
-0.23
-0.2
-0.25
-0.25
-0.22
-0.185
-0.23
-0.215
-0.215
-0.225
-0.22
-0.225
-0.265
-0.215
-0.24
-0.2
-0.225
-0.235
-0.21
-0.25
-0.195
-0.195
-0.19
-0.145
-0.16
-0.115
-0.145
-0.23
-0.24
-0.23
-0.26
-0.235
-0.22
-0.18
-0.17
-0.19
-0.21
-0.185
-0.17
-0.21
-0.185
-0.155
-0.175
-0.185
-0.22
-0.25
-0.215
-0.22
-0.24
-0.27
-0.285
-0.22
-0.235
-0.23
-0.27
-0.235
-0.235
-0.285
-0.27
-0.285
-0.235
-0.24
-0.215
-0.25
-0.29
-0.325
-0.2
-0.18
-0.285
-0.3
-0.205
-0.28
-0.305
-0.315
-0.34
-0.405
-0.39
-0.37
-0.435
-0.43
-0.315
-0.235
-0.155
-0.04
0.015
0.115
0.255
0.465
0.61
0.76
0.92
1.155
1.33
1.405
1.49
1.465
1.42
1.265
1.05
0.78
0.445
0.13
-0.03
-0.16
-0.225
-0.23
-0.265
-0.24
-0.3
-0.27
-0.25
-0.24
-0.2
-0.19
-0.19
-0.17
-0.21
-0.255
-0.28
-0.225
-0.19
-0.205
-0.215
-0.25
-0.25
-0.245
-0.195
-0.255
-0.26
-0.265
-0.21
-0.175
-0.175
-0.21
-0.195
-0.28
-0.21
-0.215
-0.255
-0.18
-0.175
-0.145
-0.125
-0.165
-0.18
-0.165
-0.215
-0.205
-0.185
-0.17
-0.13
-0.135
-0.145
-0.155
-0.21
-0.21
-0.16
-0.15
-0.135
-0.15
-0.12
-0.15
-0.135
-0.105
-0.11
-0.09
-0.105
-0.09
-0.075
-0.05
-0.035
-0.05
-0.075
-0.055
-0.02
-0.005
0.0
0.03
-0.04
-0.035
0.0
0.0
0.03
0.04
0.07
0.04
0.08
0.09
0.13
0.11
0.13
0.1
0.105
0.16
0.17
0.1
0.12
0.16
0.155
0.125
0.16
0.095
0.145
0.14
0.115
0.125
0.17
0.125
0.095
0.095
0.105
0.085
0.02
0.025
0.035
-0.04
-0.05
-0.015
-0.055
-0.085
-0.095
-0.06
-0.085
-0.06
-0.135
-0.195
-0.165
-0.19
-0.19
-0.165
-0.155
-0.15
-0.165
-0.18
-0.18
-0.195
-0.245
-0.245
-0.23
-0.24
-0.185
-0.2
-0.21
-0.2
-0.2
-0.225
-0.255
-0.235
-0.235
-0.2
-0.21
-0.225
-0.22
-0.16
-0.25
-0.22
-0.23
-0.26
-0.255
-0.195
-0.205
-0.17
-0.19
-0.23
-0.26
-0.24
-0.245
-0.225
-0.205
-0.175
-0.215
-0.26
-0.24
-0.17
-0.235
-0.21
-0.195
-0.235
-0.25
-0.22
-0.225
-0.19
-0.21
-0.21
-0.21
-0.215
-0.185
-0.185
-0.225
-0.185
-0.165
-0.155
-0.185
-0.245
-0.21
-0.21
-0.165
-0.18
-0.21
-0.21
-0.215
-0.255
-0.21
-0.19
-0.21
-0.165
