# TIPE ECG 2021 - ECG-ID Database v1.0.0 par Physionet
# [N° de la personne, N° de l'enregistrement, Période d'échantillonnage, Prénom, Age, Sexe, Date de l'enregistrement]
[86, 1, 0.002, "Nina", 16, "F", "21.05.2005"]
0.025
0.03
0.0
0.005
-0.03
-0.005
-0.12
-0.16
-0.105
-0.11
-0.06
0.1
0.125
-0.095
-0.125
-0.04
-0.03
-0.02
-0.06
0.095
0.075
-0.045
0.02
0.03
-0.055
0.1
0.135
0.08
-0.1
0.04
0.0
-0.14
-0.125
-0.11
-0.015
-0.07
-0.135
-0.01
-0.095
-0.285
-0.1
0.13
0.105
-0.01
-0.065
-0.035
-0.05
0.015
0.115
0.055
-0.045
-0.09
0.005
-0.02
-0.12
-0.145
0.06
-0.005
-0.055
0.01
0.025
0.025
-0.125
-0.295
-0.15
0.09
0.035
0.045
0.005
-0.06
-0.105
-0.185
0.015
0.04
-0.105
0.045
0.025
0.01
0.005
-0.015
-0.07
-0.025
0.045
-0.005
-0.04
0.125
0.03
-0.135
0.06
0.11
-0.025
0.0
0.13
0.25
0.14
0.11
0.09
0.03
0.045
0.075
0.035
0.015
-0.035
0.045
0.04
0.045
0.03
-0.075
-0.09
-0.03
0.1
0.07
-0.16
-0.18
-0.08
0.015
-0.015
-0.01
-0.185
-0.225
-0.135
-0.145
-0.145
-0.015
0.035
0.035
0.045
-0.075
-0.125
-0.045
-0.02
-0.1
-0.105
0.015
-0.02
-0.035
-0.115
-0.085
0.01
-0.11
-0.26
-0.165
0.055
0.095
0.12
0.285
0.405
0.53
0.635
0.54
0.555
0.575
0.545
0.445
0.34
0.37
0.29
0.225
0.14
-0.06
-0.04
-0.145
-0.23
-0.25
-0.215
-0.145
-0.055
0.025
0.125
0.055
0.105
0.09
-0.04
-0.035
-0.075
-0.105
-0.005
-0.01
-0.23
-0.405
-0.265
-0.03
0.09
0.05
0.0
-0.09
-0.09
-0.07
-0.105
-0.015
-0.04
-0.17
-0.135
0.165
0.16
0.095
-0.11
-0.155
-0.18
-0.1
-0.07
-0.03
-0.04
0.015
0.115
0.09
0.035
-0.055
-0.11
-0.07
0.04
0.11
0.015
-0.03
-0.065
-0.01
0.01
0.005
0.165
0.005
-0.035
-0.055
-0.01
0.07
-0.16
-0.135
-0.125
-0.055
0.075
0.13
0.275
0.22
0.23
0.35
0.29
0.305
0.03
-0.105
-0.135
-0.05
0.065
0.19
0.31
0.295
0.26
0.42
0.385
0.23
0.19
0.345
0.36
0.315
0.175
0.365
0.43
0.445
0.52
0.44
0.52
0.485
0.585
0.565
0.47
0.34
0.315
0.22
0.2
0.28
0.38
0.34
0.42
0.315
0.145
0.03
-0.055
-0.23
-0.265
0.015
0.02
0.09
0.04
0.0
0.085
0.08
0.03
0.01
-0.12
-0.145
0.025
0.07
0.075
0.14
0.095
-0.02
-0.02
-0.16
-0.22
-0.12
0.04
0.085
0.125
0.065
-0.085
0.105
-0.01
-0.065
-0.07
0.105
0.065
0.265
0.27
0.12
0.055
-0.025
0.015
-0.035
-0.075
-0.02
0.0
0.185
0.26
0.255
0.24
0.195
-0.05
-0.165
-0.115
-0.035
0.05
0.075
0.07
0.015
-0.095
-0.22
-0.14
0.055
0.09
0.19
0.255
0.175
0.04
0.08
0.03
-0.13
-0.19
-0.15
-0.04
0.13
0.265
0.26
0.305
0.285
-0.095
-0.16
-0.15
-0.175
-0.055
0.03
0.09
-0.005
0.13
0.16
0.085
0.075
0.045
-0.035
-0.1
-0.04
0.035
0.09
0.105
0.05
0.04
-0.095
-0.16
-0.04
-0.05
-0.105
-0.02
0.215
0.27
0.215
0.27
0.04
0.005
-0.175
-0.275
-0.265
-0.165
-0.1
0.08
0.3
0.535
0.615
0.56
0.48
0.425
0.385
0.9
1.185
1.06
0.88
0.635
0.46
0.975
1.085
1.045
1.01
1.01
1.01
1.165
1.195
1.38
1.475
1.495
1.555
1.98
1.82
1.59
1.635
1.74
1.695
1.73
1.84
1.78
1.605
1.54
1.67
1.675
1.625
1.555
1.54
1.45
1.31
1.415
1.51
1.585
1.555
1.575
1.605
1.68
1.73
1.68
1.64
1.585
1.69
1.755
1.83
1.765
1.905
1.91
1.675
1.715
1.635
1.76
1.855
1.81
1.83
1.895
1.92
1.82
1.8
1.745
1.645
1.69
1.94
2.05
2.19
2.22
2.27
2.255
2.185
2.08
2.055
1.82
1.615
1.75
1.735
1.6
1.51
1.62
1.49
1.585
1.51
1.28
1.305
1.435
1.535
1.435
1.405
1.33
1.365
1.24
1.245
1.205
1.07
0.985
0.985
1.08
1.125
1.095
0.96
0.905
0.925
0.895
0.785
0.835
0.94
0.87
0.995
0.845
0.77
0.79
0.765
0.75
0.725
0.65
0.665
0.71
0.635
0.655
0.73
0.665
0.65
0.615
0.535
0.57
0.68
0.615
0.61
0.55
0.55
0.585
0.565
0.555
0.39
0.385
0.545
0.575
0.59
0.595
0.635
0.7
0.695
0.39
0.195
0.375
0.475
0.505
0.505
0.43
0.435
0.56
0.57
0.6
0.53
0.43
0.5
0.54
0.575
0.66
0.525
0.435
0.495
0.495
0.555
0.52
0.48
0.55
0.72
0.565
0.7
0.72
0.65
0.495
0.71
0.7
0.65
0.595
0.755
0.705
0.59
0.605
0.565
0.64
0.645
0.635
0.645
0.595
0.505
0.48
0.4
0.37
0.43
0.395
0.275
0.205
0.215
0.275
0.15
0.145
0.235
0.35
0.345
0.18
0.11
0.175
0.07
0.13
0.165
0.165
0.225
0.17
0.31
0.3
0.155
-0.025
-0.085
-0.115
-0.185
-0.03
0.115
0.25
0.315
0.18
0.05
0.165
0.235
0.16
0.08
0.0
-0.105
0.0
0.17
0.24
0.205
0.155
0.065
0.135
0.04
0.06
-0.015
-0.05
0.01
-0.05
0.005
0.105
0.15
0.095
-0.05
-0.005
0.015
0.075
0.165
0.225
0.115
0.2
0.125
0.035
0.025
-0.065
-0.025
0.045
0.05
0.05
0.14
0.185
0.03
0.08
0.16
0.135
0.115
0.045
0.075
0.06
0.075
0.035
0.005
-0.005
-0.03
-0.065
-0.045
0.255
0.17
0.165
0.075
0.055
-0.04
-0.175
-0.115
0.07
0.07
0.165
0.135
0.1
0.045
0.01
-0.02
0.06
0.065
0.06
-0.015
-0.03
0.09
0.02
-0.06
0.0
0.06
0.15
0.125
0.11
0.09
0.015
-0.09
-0.075
0.005
0.245
0.31
0.29
0.215
0.09
-0.075
-0.13
-0.045
0.15
0.2
0.36
0.205
0.185
0.1
0.095
0.085
-0.12
-0.185
0.075
0.16
0.245
0.23
0.145
0.01
0.015
-0.015
-0.235
-0.27
-0.175
-0.095
-0.045
0.05
-0.005
0.07
0.095
0.085
0.035
-0.015
-0.125
-0.105
-0.02
-0.105
-0.18
-0.235
-0.15
0.035
-0.04
-0.02
-0.015
-0.135
-0.015
-0.04
-0.065
-0.085
-0.045
0.13
0.335
0.42
0.39
0.44
0.49
0.6
0.645
0.685
0.805
0.725
0.605
0.505
0.42
0.29
0.16
0.205
0.2
0.175
0.145
-0.01
-0.07
-0.055
-0.09
-0.135
-0.07
-0.125
-0.145
-0.09
-0.09
-0.025
-0.005
-0.07
-0.085
-0.13
-0.13
0.005
0.03
0.015
0.185
0.235
0.065
-0.005
-0.115
-0.285
-0.25
-0.27
-0.075
-0.06
0.0
0.0
0.005
-0.04
-0.005
-0.115
-0.14
-0.04
-0.075
-0.065
0.0
0.02
0.06
0.28
0.245
0.09
-0.005
-0.12
-0.11
-0.11
-0.05
-0.035
0.02
-0.065
0.025
0.01
0.035
0.035
-0.025
-0.03
0.02
0.055
0.235
0.39
0.425
0.325
0.05
-0.025
-0.025
-0.05
-0.07
0.005
0.06
0.03
0.035
0.22
0.3
0.34
0.27
0.305
0.295
0.305
0.37
0.36
0.335
0.38
0.225
0.225
0.2
0.325
0.315
0.295
0.26
0.355
0.33
0.245
0.35
0.355
0.45
0.515
0.515
0.53
0.485
0.425
0.43
0.305
0.34
0.305
0.25
0.23
0.205
0.23
0.25
0.205
0.145
0.045
0.04
0.055
0.15
0.08
0.07
0.065
0.05
-0.01
-0.005
-0.05
-0.105
-0.105
0.07
0.04
0.02
-0.005
0.04
-0.09
-0.19
-0.17
-0.11
-0.11
-0.14
-0.015
-0.015
-0.035
-0.02
-0.05
-0.015
0.065
0.025
0.095
0.055
-0.02
-0.05
0.035
-0.055
-0.1
-0.025
0.07
-0.005
-0.04
-0.085
-0.01
0.055
0.02
-0.015
-0.01
-0.055
-0.145
-0.11
-0.045
0.085
0.145
0.045
-0.13
-0.15
-0.245
-0.175
-0.275
0.135
0.235
0.195
0.215
-0.02
-0.05
-0.02
-0.1
-0.125
-0.14
-0.055
-0.03
-0.075
-0.11
-0.09
-0.035
-0.005
0.025
-0.055
-0.12
-0.08
-0.13
-0.05
0.075
0.015
0.065
0.035
0.04
0.0
-0.055
-0.045
0.035
-0.005
0.005
0.005
0.015
0.005
-0.025
-0.025
-0.02
-0.005
0.105
0.08
-0.03
-0.195
-0.115
-0.055
-0.07
-0.045
0.045
0.02
0.075
0.095
-0.025
-0.04
-0.005
0.03
0.08
0.12
0.12
0.12
0.045
0.035
-0.115
0.01
0.15
0.085
0.105
0.1
0.055
-0.05
0.09
0.1
0.15
0.05
0.0
-0.06
0.06
-0.05
-0.08
-0.045
-0.055
-0.155
-0.11
-0.015
-0.015
0.02
0.035
0.085
0.165
0.07
-0.085
-0.235
-0.25
-0.18
0.025
0.1
0.065
-0.09
-0.105
-0.08
-0.14
-0.17
-0.075
-0.03
-0.03
-0.045
-0.085
-0.1
-0.16
-0.17
-0.195
-0.095
-0.08
-0.01
0.045
0.06
0.175
0.315
0.375
0.455
0.665
0.84
0.95
0.815
0.635
0.54
0.515
0.39
0.14
0.09
0.11
0.0
0.045
-0.215
-0.395
-0.17
0.055
-0.065
-0.03
-0.045
-0.02
-0.02
-0.09
-0.175
-0.15
0.065
0.1
0.05
-0.02
-0.075
-0.06
-0.04
-0.115
-0.135
-0.085
-0.015
-0.005
-0.195
-0.155
-0.265
-0.205
0.005
-0.02
-0.01
-0.04
0.005
-0.03
-0.045
-0.01
-0.05
-0.055
-0.025
0.06
0.085
0.03
0.0
-0.07
-0.08
-0.15
-0.075
-0.06
0.07
0.04
0.005
0.015
0.05
-0.045
0.035
-0.05
-0.11
-0.095
-0.035
-0.01
0.01
0.005
0.005
0.025
0.0
0.005
-0.005
0.145
0.3
0.405
0.375
0.19
-0.06
-0.115
0.045
0.015
0.185
0.265
0.085
0.105
0.195
0.1
0.165
0.16
0.245
0.28
0.3
0.41
0.545
0.445
0.34
0.345
0.205
0.195
0.285
0.46
0.37
0.355
0.25
0.37
0.475
0.45
0.46
0.42
0.355
0.36
0.385
0.385
0.28
0.26
0.275
0.12
0.125
0.14
0.105
0.065
0.045
0.075
0.01
0.03
-0.01
0.025
-0.015
-0.01
0.06
0.095
0.03
-0.01
-0.005
-0.155
-0.23
-0.25
-0.13
0.045
0.05
0.19
0.09
0.05
-0.025
-0.045
-0.065
-0.095
-0.095
0.025
0.035
0.09
0.035
-0.17
-0.25
-0.205
-0.255
-0.155
-0.01
0.155
0.08
-0.02
-0.05
-0.08
-0.065
0.035
0.05
0.095
-0.005
0.01
0.0
-0.065
-0.22
-0.32
-0.185
-0.08
0.085
0.125
0.045
0.02
-0.105
-0.02
-0.08
-0.135
-0.06
-0.05
0.005
0.065
0.085
0.045
-0.06
-0.065
-0.065
-0.145
-0.14
0.065
0.12
0.06
-0.105
-0.12
-0.155
-0.285
-0.125
-0.035
-0.09
-0.015
0.01
0.05
-0.07
-0.02
0.005
-0.005
-0.175
0.015
0.25
0.09
-0.02
-0.09
-0.22
-0.24
-0.19
0.045
0.025
-0.04
0.045
0.025
0.035
0.015
-0.035
-0.06
-0.01
0.005
-0.115
-0.095
0.045
0.015
0.08
0.15
0.03
0.0
0.015
0.12
0.08
0.125
0.185
0.135
0.11
-0.015
-0.02
0.065
0.065
0.07
0.045
0.03
-0.02
-0.08
-0.02
0.03
0.03
-0.01
0.075
0.14
0.0
-0.13
-0.18
-0.22
-0.28
-0.225
-0.155
-0.135
-0.01
0.06
0.05
-0.1
-0.09
-0.05
-0.02
0.02
-0.035
-0.115
-0.225
-0.2
0.005
-0.01
0.01
-0.105
-0.09
-0.095
-0.01
-0.05
-0.065
-0.06
-0.225
-0.24
-0.115
-0.005
0.05
0.19
0.32
0.455
0.59
0.555
0.54
0.715
0.775
0.735
0.64
0.56
0.405
0.195
0.015
0.045
-0.045
0.035
0.145
0.05
-0.05
-0.16
-0.14
-0.13
-0.135
-0.085
-0.1
-0.09
-0.175
-0.205
-0.165
0.055
0.025
-0.085
-0.265
-0.22
-0.08
-0.09
-0.125
-0.005
0.07
0.06
-0.08
-0.025
0.025
-0.005
-0.03
-0.115
-0.15
-0.11
-0.12
-0.045
0.13
0.05
-0.08
0.015
0.055
-0.05
-0.215
-0.15
-0.045
0.055
-0.04
0.005
-0.015
0.0
0.025
-0.075
-0.09
-0.165
-0.19
-0.1
-0.09
-0.15
-0.03
0.06
-0.035
0.095
0.18
0.185
0.065
0.015
-0.005
0.03
0.06
0.14
0.16
0.22
0.25
0.045
-0.13
-0.235
0.01
0.105
0.12
0.15
0.22
0.25
0.16
0.11
0.08
0.18
0.315
0.355
0.345
0.41
0.315
0.235
0.225
0.23
0.305
0.33
0.35
0.275
0.26
0.24
0.315
0.455
0.5
0.415
0.47
0.32
0.5
0.49
0.445
0.38
0.33
0.265
0.085
0.065
0.1
0.15
0.06
0.02
0.07
0.075
0.12
0.015
0.01
0.03
0.08
0.065
0.015
0.07
-0.085
-0.165
-0.12
-0.13
-0.13
-0.15
-0.22
-0.225
-0.015
0.055
-0.045
-0.03
0.01
0.14
0.27
-0.015
-0.165
-0.145
-0.125
0.005
0.15
0.14
0.055
-0.11
-0.155
-0.105
0.015
-0.08
-0.23
-0.15
-0.09
-0.045
-0.1
-0.1
-0.17
-0.135
-0.175
-0.135
-0.185
-0.03
0.01
0.185
0.105
-0.035
-0.115
-0.15
-0.08
-0.01
0.0
0.065
-0.07
-0.105
-0.095
-0.01
0.085
0.08
0.025
0.065
0.1
0.09
-0.05
-0.175
-0.275
-0.225
-0.09
-0.005
0.015
0.055
-0.02
-0.185
-0.235
-0.035
0.035
0.065
0.17
0.11
0.135
0.055
-0.08
-0.115
-0.07
-0.035
-0.01
-0.085
0.03
0.105
0.0
-0.065
-0.115
-0.115
0.05
0.06
-0.025
0.025
0.135
0.1
-0.18
-0.29
-0.15
0.02
0.02
0.03
0.085
0.125
0.24
0.28
0.115
0.105
0.01
0.015
-0.01
0.015
0.02
-0.03
-0.015
-0.115
-0.005
0.0
-0.01
-0.065
-0.1
-0.08
0.085
0.11
0.12
0.005
-0.12
-0.025
0.02
-0.025
-0.01
-0.145
-0.235
-0.12
-0.16
-0.155
-0.135
-0.075
0.035
0.045
0.205
0.105
-0.125
-0.255
-0.27
-0.115
-0.125
-0.08
0.05
0.01
-0.125
-0.14
-0.14
-0.21
-0.105
-0.05
0.025
0.225
0.365
0.52
0.63
0.645
0.53
0.61
0.625
0.625
0.74
0.59
0.52
0.335
0.255
0.16
0.04
0.035
-0.005
-0.075
-0.215
-0.15
-0.11
0.02
0.155
0.045
0.025
-0.06
-0.05
-0.01
-0.055
-0.135
-0.13
-0.235
-0.15
-0.185
-0.19
-0.17
-0.035
-0.065
-0.125
0.055
-0.07
-0.23
-0.235
-0.155
-0.05
-0.03
-0.045
-0.04
0.04
0.065
0.04
-0.07
-0.015
0.105
0.055
-0.075
-0.095
-0.075
-0.095
-0.11
-0.09
-0.14
-0.14
-0.125
-0.035
0.06
0.125
0.065
0.07
0.045
0.025
-0.035
-0.16
-0.16
-0.115
-0.055
-0.03
0.075
0.115
0.125
0.105
-0.025
0.045
0.1
0.115
0.2
0.115
0.01
0.0
0.055
0.035
-0.025
0.0
0.16
0.25
0.315
0.22
0.185
0.155
0.15
0.115
0.165
0.195
0.21
0.255
0.495
0.445
0.445
0.435
0.37
0.38
0.36
0.365
0.325
0.28
0.27
0.42
0.36
0.405
0.375
0.45
0.405
0.39
0.23
0.145
0.12
0.15
0.13
0.115
0.01
0.04
0.07
0.07
0.205
0.205
0.08
-0.025
-0.005
-0.03
-0.075
-0.095
-0.05
-0.135
-0.1
-0.105
-0.17
-0.175
-0.305
-0.185
0.09
0.055
0.07
0.025
-0.005
0.05
-0.08
-0.095
-0.055
-0.04
-0.01
-0.015
-0.095
-0.06
-0.035
-0.07
-0.145
-0.215
-0.05
-0.06
-0.075
-0.02
-0.015
-0.03
-0.135
-0.17
-0.035
0.025
-0.045
-0.055
-0.065
-0.015
-0.015
-0.205
-0.06
-0.02
-0.135
-0.05
0.075
0.165
-0.04
-0.03
-0.07
-0.115
-0.115
-0.11
-0.095
-0.135
-0.255
-0.03
-0.055
-0.175
-0.21
-0.15
-0.095
-0.005
0.08
0.085
0.095
0.095
0.07
-0.085
-0.035
-0.145
-0.205
-0.19
-0.035
0.0
0.11
0.155
-0.01
-0.075
-0.01
-0.055
-0.105
-0.07
-0.075
-0.125
-0.11
-0.08
-0.095
-0.08
-0.015
0.165
0.08
0.03
0.04
-0.01
-0.075
-0.135
-0.04
0.025
0.045
0.105
0.1
0.045
0.09
0.13
0.04
0.07
0.065
0.045
0.075
0.09
0.07
0.02
-0.015
-0.1
-0.115
-0.085
-0.135
-0.035
0.015
0.01
-0.02
0.03
-0.05
-0.07
-0.13
-0.075
-0.005
0.04
0.01
-0.08
-0.065
-0.04
-0.105
-0.195
-0.11
-0.02
-0.035
0.005
0.03
-0.02
-0.105
-0.12
-0.18
-0.255
-0.115
-0.115
-0.12
-0.12
-0.135
-0.175
-0.215
-0.225
-0.08
-0.2
-0.1
-0.025
-0.015
0.095
0.17
0.21
0.385
0.52
0.665
0.615
0.68
0.79
0.785
0.64
0.45
0.56
0.325
0.355
0.21
0.04
0.055
0.06
-0.105
-0.23
-0.085
-0.03
0.105
-0.055
-0.18
-0.105
-0.02
-0.13
-0.05
-0.06
-0.075
-0.16
-0.155
-0.105
-0.065
-0.185
-0.03
-0.015
-0.045
-0.065
-0.08
-0.09
-0.06
-0.08
-0.1
-0.085
-0.07
-0.035
-0.05
-0.02
-0.06
-0.08
-0.155
-0.105
-0.08
-0.15
-0.155
0.005
0.05
-0.075
-0.105
-0.05
-0.085
-0.055
-0.03
-0.06
-0.14
-0.13
-0.04
0.08
0.065
0.045
-0.07
-0.045
-0.09
-0.16
0.065
0.06
0.08
0.085
-0.005
0.09
0.13
0.12
0.14
0.105
0.025
-0.065
-0.145
-0.145
0.015
0.035
0.16
0.28
0.295
0.25
0.035
-0.015
0.055
0.115
0.23
0.335
0.415
0.435
0.31
0.25
0.22
0.205
0.22
0.425
0.425
0.41
0.36
0.335
0.25
0.17
0.325
0.38
0.35
0.215
0.27
0.275
0.245
0.225
0.265
0.325
0.3
0.175
0.195
0.185
0.095
0.11
0.04
0.025
0.13
0.02
-0.03
0.01
-0.09
-0.175
-0.145
-0.055
-0.085
0.025
0.08
-0.035
-0.07
-0.06
-0.025
0.09
-0.025
-0.05
-0.035
-0.035
-0.01
-0.04
-0.09
-0.125
-0.13
-0.225
-0.115
-0.09
-0.12
-0.16
-0.17
-0.16
-0.015
-0.075
-0.065
-0.09
-0.15
-0.135
-0.08
-0.03
0.02
0.015
0.02
0.015
-0.06
-0.095
-0.19
0.02
0.06
0.025
-0.1
-0.135
-0.095
-0.055
0.005
-0.05
-0.11
-0.07
-0.01
-0.115
-0.185
-0.2
0.115
0.01
-0.005
0.005
-0.055
-0.015
-0.03
-0.05
-0.015
-0.005
-0.09
-0.135
0.01
0.02
0.04
0.01
-0.075
-0.115
-0.14
-0.025
0.11
0.0
-0.14
-0.07
-0.14
-0.145
-0.145
-0.085
-0.085
-0.005
-0.015
0.025
0.065
0.005
0.025
0.08
0.02
-0.045
-0.135
-0.2
-0.115
-0.035
0.0
-0.09
-0.07
0.085
0.075
0.075
-0.01
0.08
0.005
0.04
0.08
0.115
0.125
-0.095
-0.01
0.075
0.06
0.115
0.01
-0.08
-0.065
0.075
-0.045
-0.09
-0.16
-0.03
-0.05
0.125
-0.03
-0.055
-0.055
-0.025
0.015
-0.21
-0.29
-0.085
-0.005
-0.11
-0.02
-0.055
-0.06
-0.1
-0.065
0.025
0.055
-0.09
-0.09
-0.03
-0.015
0.045
-0.01
-0.08
-0.05
0.035
0.01
0.09
0.015
-0.02
-0.12
-0.125
-0.2
-0.21
-0.345
-0.23
-0.17
-0.165
-0.04
0.055
0.135
0.6
0.55
0.615
0.715
0.72
0.53
0.445
0.245
0.32
0.18
-0.04
-0.125
-0.245
-0.225
-0.24
-0.1
-0.205
-0.005
0.165
-0.02
-0.01
0.035
-0.01
-0.045
-0.12
-0.26
-0.135
-0.08
-0.05
-0.025
-0.05
-0.085
0.01
0.095
-0.025
-0.04
0.04
0.055
-0.085
-0.09
-0.085
-0.09
-0.11
-0.12
-0.2
-0.09
0.02
0.03
0.0
-0.105
-0.15
-0.215
0.09
-0.025
-0.135
0.005
-0.045
-0.065
-0.025
-0.03
-0.115
-0.115
-0.13
-0.165
-0.095
-0.04
-0.025
-0.025
0.065
0.13
0.08
0.07
0.05
0.115
0.07
-0.05
-0.07
-0.155
-0.17
-0.31
0.015
0.26
0.44
0.28
0.06
0.065
0.07
0.13
0.09
0.095
0.07
0.195
0.3
0.325
0.35
0.355
0.295
0.23
0.025
0.25
0.285
0.34
0.235
0.32
0.425
0.305
0.245
0.415
0.555
0.435
0.405
0.325
0.39
0.49
0.435
0.38
0.425
0.425
0.37
0.155
0.39
0.47
0.27
0.26
0.2
-0.015
-0.08
-0.01
0.03
0.04
0.115
0.28
0.09
0.03
0.055
0.05
0.01
-0.1
-0.095
-0.015
-0.07
-0.225
-0.205
-0.1
0.12
0.06
0.065
0.01
0.075
-0.05
-0.045
0.045
-0.03
-0.025
-0.04
0.05
0.04
0.035
0.015
0.1
0.095
-0.035
-0.065
-0.065
-0.155
-0.095
-0.015
0.06
0.235
0.345
0.175
-0.155
-0.18
0.015
-0.07
-0.115
-0.115
-0.1
-0.1
-0.12
-0.34
-0.3
-0.2
-0.16
-0.07
-0.085
0.045
0.035
-0.03
-0.14
-0.265
-0.17
-0.02
-0.125
-0.22
0.02
-0.005
-0.055
-0.025
-0.065
-0.04
-0.08
-0.155
0.02
-0.11
-0.115
-0.14
-0.245
-0.155
-0.095
0.02
0.15
0.175
-0.035
0.125
0.035
0.115
-0.165
-0.135
-0.03
-0.03
-0.21
-0.175
-0.05
-0.23
-0.3
-0.125
-0.05
-0.025
-0.07
-0.015
-0.06
0.085
-0.005
-0.045
-0.05
0.0
-0.075
-0.08
-0.17
0.01
0.03
0.13
0.245
0.305
0.105
-0.015
-0.14
-0.195
-0.18
-0.23
0.11
0.355
0.11
-0.175
-0.015
0.065
0.205
0.05
-0.41
-0.195
-0.175
-0.155
0.005
0.175
-0.16
-0.35
-0.235
-0.155
-0.12
-0.13
-0.155
-0.355
-0.38
-0.195
-0.17
-0.16
-0.075
-0.065
0.055
-0.1
-0.075
-0.22
-0.045
-0.125
-0.135
-0.14
-0.115
-0.23
-0.375
-0.13
0.065
-0.07
-0.375
-0.325
-0.29
-0.325
-0.225
-0.115
0.0
0.15
0.245
0.225
0.33
0.455
0.29
0.355
0.56
0.245
0.46
0.545
0.49
0.43
0.33
0.39
0.185
0.025
-0.07
-0.19
-0.175
-0.19
-0.17
-0.09
-0.07
-0.11
-0.305
-0.195
0.005
-0.065
-0.07
-0.2
-0.295
-0.23
-0.19
-0.22
-0.285
-0.27
-0.17
0.02
-0.015
-0.15
-0.105
0.025
-0.09
-0.32
-0.33
0.005
0.005
0.025
-0.08
-0.14
-0.095
-0.145
-0.01
-0.06
-0.245
-0.095
0.13
0.005
-0.395
-0.12
-0.035
-0.095
-0.2
-0.125
-0.11
-0.11
-0.05
-0.09
-0.06
0.07
-0.085
0.05
-0.055
-0.115
-0.095
-0.04
-0.12
-0.11
-0.085
-0.115
-0.09
-0.16
-0.195
0.0
0.09
0.05
-0.19
-0.045
-0.105
0.05
0.23
0.225
0.3
0.195
0.175
0.035
0.135
0.095
0.055
-0.195
0.075
0.365
0.465
0.135
0.22
0.105
0.095
0.13
0.07
0.195
0.045
0.215
0.32
0.15
0.215
0.22
0.265
0.315
0.32
0.295
0.42
0.37
0.38
0.255
0.135
0.12
0.24
0.15
0.135
0.215
0.165
0.18
0.15
-0.06
-0.21
-0.085
0.055
-0.03
0.005
-0.18
-0.3
-0.09
0.11
-0.23
-0.24
0.025
0.17
0.215
-0.18
-0.24
-0.175
-0.145
-0.27
-0.39
-0.47
-0.215
-0.22
-0.17
-0.11
-0.125
-0.205
-0.065
-0.135
-0.17
0.05
0.185
0.105
-0.18
-0.305
-0.33
-0.045
0.03
-0.13
-0.095
-0.075
-0.075
-0.17
-0.13
0.055
0.0
-0.225
-0.185
-0.14
-0.085
-0.155
-0.31
-0.155
-0.005
0.025
0.015
0.1
-0.19
-0.46
-0.51
-0.355
-0.145
0.105
0.015
0.0
-0.085
-0.235
-0.245
0.13
0.145
-0.055
-0.035
-0.3
-0.25
-0.035
-0.15
-0.105
-0.16
-0.065
0.125
0.07
-0.155
-0.33
-0.43
-0.35
-0.34
-0.145
0.045
-0.09
-0.045
0.035
-0.05
-0.07
-0.09
-0.135
0.01
0.095
0.17
0.115
-0.01
-0.02
-0.395
-0.475
-0.28
-0.03
0.08
-0.025
-0.02
-0.15
-0.145
-0.08
-0.025
0.03
0.22
0.135
0.015
-0.025
-0.08
-0.01
-0.02
0.02
-0.02
-0.075
-0.1
-0.08
-0.185
-0.19
0.005
0.05
0.06
0.005
0.045
0.25
-0.035
-0.26
-0.38
-0.275
-0.205
-0.265
-0.24
0.05
0.05
0.015
0.02
-0.09
-0.09
-0.05
0.035
-0.09
-0.125
-0.165
0.025
-0.165
-0.22
-0.285
-0.38
-0.5
-0.275
-0.05
-0.015
-0.16
-0.28
-0.225
0.015
-0.005
0.065
0.095
0.295
0.225
0.35
0.45
0.385
0.575
0.61
0.4
0.395
0.52
0.36
0.17
0.215
0.105
-0.09
-0.15
-0.135
-0.005
-0.085
-0.13
-0.155
0.015
0.045
-0.09
-0.11
-0.025
0.03
-0.09
-0.105
-0.2
-0.07
-0.025
-0.02
-0.005
-0.22
-0.22
-0.445
-0.21
-0.325
-0.155
-0.135
-0.07
-0.155
-0.02
-0.095
-0.065
-0.005
-0.11
-0.125
-0.065
0.13
0.04
-0.065
-0.175
-0.09
-0.02
-0.105
-0.145
-0.055
-0.07
-0.105
0.005
-0.035
-0.185
-0.205
-0.015
0.17
0.09
-0.12
-0.005
-0.02
-0.06
-0.05
-0.21
-0.375
0.085
-0.015
-0.115
-0.065
0.11
0.105
-0.02
-0.295
-0.125
-0.055
0.155
0.155
-0.01
-0.045
-0.115
0.045
0.1
0.305
0.28
0.105
0.095
0.07
0.045
0.07
0.16
0.11
0.115
0.375
0.43
0.48
0.345
0.375
0.31
0.23
0.2
0.18
0.145
0.23
0.315
0.445
0.355
0.195
0.33
0.4
0.47
0.22
0.175
0.38
0.3
0.045
-0.025
0.165
0.35
0.18
-0.05
0.065
0.085
0.06
0.26
0.28
0.015
0.04
0.05
0.0
0.025
-0.005
-0.02
-0.05
-0.275
-0.33
-0.195
-0.215
-0.07
-0.02
0.14
0.155
0.185
0.095
-0.01
0.075
-0.045
-0.085
0.025
-0.025
-0.135
-0.145
-0.045
-0.17
-0.13
-0.125
-0.06
-0.055
-0.075
-0.14
-0.335
-0.3
-0.19
-0.1
-0.185
0.055
-0.005
-0.04
-0.09
-0.015
0.02
-0.045
0.08
0.01
-0.13
-0.095
-0.21
0.035
-0.025
-0.05
0.07
-0.085
-0.305
-0.175
-0.175
-0.225
0.0
-0.015
-0.265
-0.075
0.025
-0.125
-0.165
-0.01
0.105
0.085
0.135
-0.16
-0.16
0.11
-0.04
-0.035
-0.185
-0.35
-0.33
-0.155
-0.05
0.125
0.09
0.045
0.005
0.01
-0.055
-0.155
-0.04
0.03
-0.07
-0.055
-0.08
0.11
0.225
0.19
0.14
0.2
-0.04
-0.15
-0.27
-0.165
0.045
0.17
0.04
0.03
-0.13
-0.035
-0.18
-0.255
-0.05
0.13
0.22
0.105
-0.01
0.05
0.03
0.115
0.135
0.02
-0.065
-0.11
0.035
-0.115
-0.145
-0.16
-0.045
0.06
0.055
-0.085
-0.045
-0.08
-0.205
-0.275
-0.245
-0.03
-0.08
-0.06
-0.075
-0.17
-0.065
-0.17
-0.325
-0.045
-0.025
-0.09
-0.015
-0.005
-0.015
-0.035
-0.035
-0.055
-0.265
-0.24
-0.09
-0.195
-0.265
-0.26
-0.12
-0.175
-0.13
-0.095
0.03
-0.06
0.135
0.33
0.425
0.83
0.57
0.61
0.58
0.56
0.58
0.45
0.28
0.265
0.065
0.11
0.135
0.115
0.14
0.105
0.115
0.02
-0.135
-0.25
-0.16
-0.145
-0.26
-0.27
-0.455
-0.375
-0.235
-0.285
-0.25
-0.015
-0.02
0.13
0.15
0.13
-0.065
0.03
-0.005
0.105
0.04
-0.085
-0.155
-0.22
-0.14
0.0
-0.05
0.125
-0.065
-0.065
-0.18
-0.185
-0.11
0.085
0.17
-0.125
-0.395
-0.29
-0.365
-0.34
-0.185
-0.03
-0.03
-0.035
-0.015
-0.035
-0.105
0.05
0.22
0.1
-0.15
-0.255
-0.495
-0.12
-0.145
0.025
-0.21
0.0
-0.23
-0.21
0.365
0.325
0.16
0.24
0.25
0.09
-0.14
-0.255
-0.09
-0.06
0.065
0.205
0.18
0.28
0.175
0.115
0.12
0.235
0.22
0.295
0.2
0.06
0.015
-0.02
0.175
0.26
0.2
0.31
0.285
0.41
0.31
0.3
0.28
0.47
0.525
0.455
0.31
0.3
0.375
0.28
0.175
-0.025
-0.025
0.245
0.32
0.245
0.265
0.085
-0.095
0.08
0.18
0.265
0.26
0.125
0.03
-0.215
-0.085
-0.135
-0.195
-0.105
0.01
0.075
-0.03
-0.07
0.175
-0.045
-0.255
-0.445
-0.13
-0.105
-0.075
-0.045
0.005
0.025
-0.155
-0.24
-0.155
-0.16
-0.12
0.02
0.07
-0.1
0.025
-0.01
-0.06
-0.13
-0.115
-0.105
-0.055
0.055
0.09
0.075
0.085
-0.08
-0.03
-0.045
-0.115
0.005
-0.34
-0.33
-0.3
-0.15
0.05
0.06
-0.105
-0.285
-0.215
-0.18
-0.035
-0.085
-0.135
-0.185
-0.195
-0.06
0.085
-0.04
0.04
0.13
-0.03
-0.09
-0.01
-0.17
-0.225
0.045
-0.055
-0.295
-0.23
-0.155
-0.035
-0.03
0.09
-0.095
-0.15
-0.285
0.05
-0.06
-0.285
-0.195
0.15
0.01
-0.055
0.16
0.175
0.09
0.1
0.04
-0.115
-0.19
-0.015
-0.015
-0.125
-0.26
-0.15
-0.115
-0.32
-0.065
0.21
0.18
0.13
0.14
0.06
-0.015
-0.105
-0.055
0.1
0.125
0.22
0.27
0.015
-0.2
-0.22
-0.12
-0.06
-0.05
-0.08
-0.05
0.04
-0.035
-0.19
-0.26
-0.21
-0.22
-0.18
0.07
0.095
0.13
0.105
0.025
-0.265
-0.255
-0.24
-0.05
-0.06
-0.07
-0.145
0.045
0.09
0.08
-0.15
-0.27
-0.16
-0.195
-0.24
-0.295
-0.07
-0.055
-0.14
-0.19
-0.18
-0.075
-0.15
-0.23
-0.09
-0.05
-0.015
0.1
0.08
0.01
0.08
0.15
0.28
0.43
0.37
0.575
0.57
0.635
0.64
0.51
0.335
0.085
-0.07
0.085
0.185
0.055
-0.1
0.075
0.105
-0.085
-0.155
-0.14
-0.115
-0.095
-0.01
0.025
-0.055
-0.05
-0.22
-0.29
-0.195
-0.16
-0.065
-0.175
-0.21
-0.115
-0.105
-0.22
-0.37
-0.11
-0.175
-0.15
-0.025
-0.095
-0.04
-0.035
-0.07
-0.125
-0.06
-0.035
0.0
-0.04
-0.03
0.015
-0.05
0.005
-0.06
-0.1
-0.38
-0.355
0.01
0.085
0.075
-0.16
-0.3
-0.24
-0.14
-0.09
-0.115
-0.165
-0.085
0.035
0.105
0.195
0.125
0.035
-0.125
-0.025
0.03
0.01
-0.04
-0.06
0.04
0.01
-0.06
-0.29
-0.16
-0.03
-0.02
0.04
0.11
0.135
0.105
0.095
0.09
0.055
0.15
0.18
0.175
0.265
0.01
0.045
0.245
0.185
0.255
0.365
0.395
0.45
0.505
0.47
0.475
0.35
0.06
-0.09
-0.245
0.24
0.46
0.395
0.355
0.29
0.22
0.295
0.265
0.21
0.32
0.22
0.175
0.175
0.225
0.095
0.065
-0.03
-0.14
-0.005
0.08
-0.045
0.01
0.26
0.15
0.06
0.14
0.06
-0.085
-0.105
-0.22
-0.21
-0.2
-0.175
-0.165
-0.21
-0.13
-0.125
-0.05
-0.11
-0.05
0.02
0.04
0.005
0.07
-0.005
-0.015
-0.155
-0.28
-0.39
-0.515
-0.34
0.05
0.11
0.12
0.165
0.06
-0.015
-0.105
-0.19
-0.015
-0.205
-0.34
-0.285
-0.1
-0.095
-0.07
-0.08
-0.045
-0.06
-0.17
-0.215
-0.155
-0.065
-0.07
-0.03
-0.12
-0.245
-0.18
-0.165
-0.15
-0.045
-0.08
-0.265
-0.195
-0.03
-0.075
-0.03
0.03
0.065
-0.03
-0.055
-0.025
-0.025
-0.055
-0.11
-0.075
-0.095
-0.155
-0.22
-0.15
-0.2
-0.185
-0.085
-0.08
-0.06
-0.04
0.055
0.06
-0.07
-0.035
-0.015
-0.08
-0.245
-0.225
-0.23
-0.28
-0.12
0.045
-0.04
-0.075
-0.09
-0.16
0.045
0.015
0.045
0.15
-0.045
-0.105
-0.03
-0.025
-0.065
-0.07
-0.01
-0.015
-0.125
-0.155
-0.08
0.06
-0.015
-0.05
-0.01
-0.095
-0.06
0.06
0.155
0.31
0.3
0.18
0.11
-0.1
-0.275
-0.05
-0.055
-0.015
-0.13
-0.095
-0.13
-0.36
-0.56
-0.425
-0.305
-0.035
-0.14
-0.255
-0.2
-0.03
0.2
0.205
-0.015
-0.095
-0.185
-0.17
-0.06
0.015
-0.09
-0.195
-0.235
-0.2
-0.185
-0.215
-0.215
-0.075
-0.12
-0.195
-0.41
-0.635
-0.14
0.075
-0.025
0.075
0.335
0.415
0.295
0.31
0.54
0.525
0.465
0.54
0.71
0.69
0.505
0.33
0.26
0.105
-0.17
-0.505
-0.385
-0.145
-0.21
-0.225
-0.12
-0.09
-0.02
0.08
0.03
-0.045
-0.065
-0.035
-0.05
-0.195
-0.41
-0.26
0.02
-0.095
-0.105
-0.11
-0.03
-0.01
0.04
-0.2
-0.275
-0.115
0.045
-0.215
0.05
0.14
-0.015
-0.18
-0.03
-0.1
-0.19
-0.185
-0.105
-0.11
-0.18
-0.255
-0.485
-0.155
0.055
0.195
0.26
-0.04
0.0
-0.07
-0.165
-0.235
-0.26
-0.295
0.06
0.015
0.075
0.06
-0.025
-0.04
-0.14
-0.15
-0.12
-0.145
-0.02
0.07
0.04
-0.005
-0.005
-0.04
0.05
0.04
-0.01
-0.105
0.055
-0.065
0.22
0.165
-0.015
-0.055
0.0
0.13
0.14
0.1
0.095
0.23
0.05
-0.06
0.16
0.23
0.185
0.21
0.23
0.545
0.42
0.27
0.275
0.43
0.29
0.175
0.12
0.41
0.32
0.29
0.3
0.235
0.155
0.05
0.045
0.15
0.565
0.5
0.395
0.285
0.33
0.215
0.12
0.14
0.06
-0.09
-0.095
-0.075
-0.035
0.065
0.125
-0.065
-0.115
-0.17
-0.15
-0.12
-0.28
-0.15
0.095
0.06
0.075
-0.09
-0.15
0.095
0.115
-0.08
-0.32
-0.14
-0.01
0.065
-0.15
-0.18
0.015
-0.1
-0.11
-0.21
-0.095
-0.095
-0.155
-0.09
-0.18
-0.305
-0.29
0.03
-0.04
-0.105
-0.04
-0.14
-0.12
-0.06
0.05
-0.105
-0.31
-0.22
0.03
0.015
-0.035
-0.11
-0.115
-0.175
-0.305
-0.17
-0.03
-0.07
-0.12
-0.065
-0.16
-0.11
-0.01
-0.07
-0.115
-0.13
-0.135
-0.28
-0.295
-0.015
-0.19
-0.18
-0.185
-0.12
-0.11
-0.045
0.07
0.125
0.13
0.025
-0.185
-0.37
-0.42
-0.14
-0.125
-0.025
0.095
-0.025
-0.05
-0.04
-0.16
-0.215
-0.11
-0.03
-0.065
-0.14
-0.115
-0.135
-0.035
-0.115
-0.095
0.0
-0.015
-0.065
-0.1
-0.15
-0.3
-0.275
-0.06
0.065
0.01
0.175
0.055
0.08
-0.05
-0.075
-0.12
-0.175
-0.185
0.12
0.23
0.06
-0.045
0.075
-0.15
-0.115
-0.225
-0.18
0.025
-0.035
0.02
-0.125
-0.105
-0.07
-0.06
-0.075
-0.18
-0.145
-0.155
-0.115
0.095
-0.185
-0.135
-0.005
-0.095
-0.3
-0.26
-0.28
-0.155
-0.275
-0.145
-0.17
-0.105
-0.08
-0.22
-0.085
-0.095
-0.145
-0.22
-0.19
-0.155
-0.195
-0.16
-0.185
-0.145
-0.1
-0.33
-0.345
-0.395
-0.15
-0.055
0.26
0.325
0.385
0.42
0.5
0.435
0.32
0.27
0.48
0.5
0.475
0.51
0.25
0.225
0.075
0.015
-0.075
-0.455
-0.64
-0.465
-0.145
-0.06
0.04
-0.125
-0.285
-0.25
0.005
0.03
-0.215
-0.335
-0.32
-0.175
-0.095
0.075
0.035
-0.105
-0.175
-0.255
-0.285
-0.27
-0.48
-0.51
-0.105
-0.15
-0.1
-0.205
-0.255
-0.105
-0.2
-0.04
0.06
-0.215
-0.41
-0.405
-0.235
-0.145
-0.165
-0.04
-0.105
-0.14
-0.345
-0.335
0.005
-0.025
0.025
-0.155
-0.15
-0.085
0.025
0.185
0.105
0.03
-0.04
-0.13
-0.13
-0.005
0.1
-0.145
-0.06
-0.165
-0.245
-0.165
-0.08
-0.03
-0.025
0.1
0.03
-0.09
-0.06
-0.165
0.03
-0.02
0.04
0.025
-0.055
0.105
0.225
0.17
0.245
0.275
0.295
0.12
-0.115
0.155
0.325
0.09
0.105
0.335
0.33
0.36
0.225
0.18
0.08
0.075
0.155
0.335
0.215
0.255
0.31
0.23
0.4
0.38
0.355
0.455
0.4
0.47
0.35
0.29
0.185
-0.005
-0.07
0.03
0.12
0.135
0.17
0.12
-0.19
-0.295
-0.295
-0.145
0.0
-0.06
-0.075
0.035
-0.005
-0.045
-0.125
-0.005
-0.015
-0.215
-0.33
-0.24
-0.08
-0.29
-0.31
-0.29
-0.2
-0.195
-0.18
-0.14
0.0
-0.12
-0.115
-0.11
-0.185
-0.145
-0.085
-0.025
-0.145
-0.115
-0.2
-0.185
-0.195
-0.025
-0.095
-0.06
-0.065
-0.31
-0.29
-0.29
-0.315
-0.465
-0.13
0.035
-0.04
0.055
-0.03
-0.04
-0.105
-0.065
-0.135
-0.145
-0.245
-0.115
-0.175
-0.065
-0.04
0.045
-0.15
-0.22
-0.11
-0.185
-0.15
-0.27
-0.43
-0.34
-0.335
-0.115
-0.115
-0.245
-0.16
-0.09
-0.08
-0.14
-0.31
-0.325
-0.035
-0.01
-0.08
-0.095
-0.145
-0.16
-0.18
-0.115
-0.16
-0.225
-0.145
-0.085
-0.075
-0.06
-0.2
-0.26
-0.145
-0.215
-0.13
-0.02
-0.155
-0.105
-0.145
-0.19
-0.15
-0.145
-0.3
-0.455
-0.39
0.065
0.015
-0.04
-0.15
-0.105
-0.045
0.02
0.06
-0.08
-0.16
-0.085
-0.275
-0.055
-0.235
-0.08
-0.075
-0.085
-0.125
-0.13
-0.16
-0.07
-0.055
0.125
0.05
-0.13
-0.13
-0.15
-0.11
-0.005
0.055
0.08
0.145
0.15
0.125
0.01
0.065
0.095
0.03
-0.13
-0.24
-0.245
-0.275
-0.31
-0.34
-0.285
-0.115
-0.09
-0.085
-0.1
0.01
-0.13
-0.245
-0.17
-0.22
-0.2
-0.345
-0.38
-0.33
-0.37
-0.495
-0.11
-0.165
-0.26
-0.215
-0.29
-0.11
-0.12
-0.19
-0.225
-0.165
-0.055
-0.005
-0.165
-0.26
-0.25
-0.125
-0.07
0.075
0.19
0.315
0.345
0.6
0.755
0.68
0.625
0.59
0.725
0.555
0.285
0.04
-0.1
-0.13
-0.195
-0.335
-0.555
-0.605
-0.63
-0.525
-0.625
-0.455
-0.375
-0.28
-0.195
-0.17
-0.115
0.01
-0.015
-0.185
-0.405
-0.355
-0.185
-0.195
-0.25
-0.275
-0.19
-0.035
-0.135
-0.36
-0.175
-0.08
-0.185
-0.14
-0.17
-0.22
-0.01
-0.235
-0.24
-0.19
-0.25
-0.16
-0.145
-0.145
-0.21
-0.21
-0.295
-0.255
-0.075
-0.085
-0.065
-0.005
-0.055
-0.155
-0.22
-0.19
-0.06
-0.155
-0.09
-0.045
-0.085
-0.07
-0.125
-0.125
-0.145
-0.12
-0.215
-0.105
-0.155
-0.14
-0.125
-0.025
-0.045
0.125
0.17
0.075
-0.07
0.005
0.015
0.04
0.01
0.065
0.09
0.05
0.06
0.06
0.045
0.185
0.18
0.145
0.08
-0.04
0.08
0.285
0.285
0.225
0.145
0.175
0.24
0.16
0.115
0.26
0.16
0.425
0.435
0.45
0.35
0.235
0.315
0.345
0.375
0.285
0.4
0.38
0.325
0.37
0.38
0.36
0.295
0.25
0.115
0.18
0.165
-0.075
-0.125
-0.01
0.015
0.09
0.075
0.16
0.14
-0.025
-0.055
-0.045
-0.13
-0.24
-0.305
-0.3
-0.135
-0.105
-0.19
-0.17
-0.075
-0.12
-0.045
-0.005
-0.02
-0.125
-0.19
-0.105
-0.115
-0.12
-0.195
-0.2
-0.2
-0.225
-0.155
-0.21
-0.175
-0.135
-0.2
-0.19
-0.13
-0.055
-0.03
-0.13
-0.2
-0.185
-0.12
-0.06
-0.115
-0.14
-0.25
-0.365
-0.27
-0.18
-0.09
-0.065
-0.01
-0.185
-0.26
-0.225
-0.225
-0.11
-0.135
-0.185
-0.13
-0.055
-0.17
0.025
-0.06
-0.015
-0.02
-0.4
-0.405
-0.27
-0.235
-0.415
-0.295
-0.2
-0.25
-0.055
0.0
0.005
0.05
-0.06
-0.265
-0.19
-0.065
-0.09
-0.03
-0.065
-0.17
-0.21
-0.235
-0.165
-0.225
-0.095
-0.185
-0.09
-0.015
-0.195
-0.26
-0.32
-0.34
-0.335
-0.33
-0.215
-0.175
-0.06
-0.03
-0.11
0.05
-0.05
-0.095
-0.085
-0.145
-0.15
-0.24
-0.42
-0.42
-0.35
-0.285
-0.265
-0.16
-0.19
-0.17
-0.1
-0.165
-0.14
-0.08
-0.12
-0.17
-0.015
-0.005
-0.135
-0.11
-0.22
-0.285
-0.15
-0.155
-0.3
-0.27
-0.185
-0.215
-0.045
0.1
0.125
0.065
0.09
-0.02
-0.12
-0.245
-0.17
-0.135
-0.16
-0.105
-0.075
0.02
0.06
-0.05
-0.01
0.085
-0.045
-0.19
-0.3
-0.035
0.07
-0.07
-0.12
-0.22
-0.3
-0.385
-0.23
-0.23
-0.17
-0.145
-0.175
-0.28
-0.255
-0.3
-0.16
-0.2
-0.045
-0.08
-0.135
-0.23
-0.275
-0.07
-0.1
-0.105
-0.17
-0.22
-0.22
-0.03
-0.08
-0.125
-0.22
-0.125
-0.17
-0.43
-0.385
-0.305
-0.14
0.07
0.14
0.22
0.46
0.6
0.815
0.83
0.835
0.755
0.455
0.31
0.24
0.05
-0.01
-0.16
-0.265
-0.28
-0.44
-0.36
-0.31
-0.405
-0.35
-0.26
-0.265
-0.315
-0.435
-0.18
-0.11
-0.1
-0.15
-0.26
-0.3
-0.245
-0.26
-0.335
-0.23
-0.195
-0.21
-0.12
-0.24
-0.2
-0.125
-0.28
-0.295
-0.275
-0.38
-0.335
-0.05
-0.075
-0.175
-0.07
-0.08
-0.23
-0.265
-0.19
-0.19
-0.32
-0.16
-0.09
-0.09
-0.125
-0.09
-0.105
-0.105
-0.22
-0.225
-0.23
-0.17
-0.045
-0.09
-0.14
-0.175
-0.22
-0.16
-0.075
0.055
-0.045
-0.115
-0.08
-0.14
-0.11
-0.075
-0.125
-0.02
-0.045
0.0
-0.005
0.04
0.075
0.12
0.005
-0.095
0.075
0.105
0.05
0.0
0.02
0.015
-0.1
-0.065
0.0
0.06
0.18
0.17
0.39
0.445
0.44
0.38
0.275
0.185
0.11
-0.005
0.17
0.37
0.345
0.26
0.295
0.31
0.24
0.345
0.445
0.41
0.34
0.365
0.29
0.255
0.22
0.06
0.08
0.24
0.21
0.11
0.155
0.155
0.155
0.015
0.015
0.01
-0.095
-0.035
0.02
-0.04
-0.085
-0.215
-0.025
0.06
-0.065
0.07
-0.03
-0.03
-0.115
-0.245
-0.25
-0.115
-0.105
-0.08
-0.07
-0.085
0.015
0.015
-0.105
-0.195
-0.265
-0.295
-0.34
-0.4
-0.49
-0.39
-0.185
-0.025
-0.015
0.055
-0.04
-0.19
-0.195
-0.18
-0.27
-0.17
-0.12
0.0
-0.09
-0.26
-0.38
-0.22
-0.115
-0.115
-0.115
0.045
-0.025
-0.09
-0.135
-0.06
0.005
-0.14
-0.155
0.03
0.015
-0.14
-0.195
-0.285
-0.295
-0.23
-0.29
-0.185
-0.17
-0.16
-0.17
-0.125
-0.07
-0.155
-0.235
-0.165
-0.215
-0.195
-0.195
-0.145
-0.14
-0.185
-0.21
-0.16
-0.17
-0.14
-0.155
-0.19
-0.275
-0.245
-0.115
-0.22
-0.14
-0.105
-0.135
-0.175
-0.045
-0.075
-0.04
0.005
-0.1
-0.105
-0.205
-0.285
-0.275
-0.285
-0.315
-0.21
-0.22
-0.16
-0.12
-0.215
-0.355
-0.4
-0.18
-0.105
-0.1
-0.085
-0.1
-0.13
-0.28
-0.345
-0.335
-0.2
-0.205
-0.13
-0.115
-0.14
-0.14
-0.215
0.01
-0.01
0.005
0.01
-0.025
-0.225
-0.195
-0.225
-0.34
-0.315
-0.225
-0.135
0.08
0.095
-0.05
-0.11
-0.075
-0.025
-0.145
-0.14
-0.12
-0.13
-0.15
-0.125
-0.06
-0.12
-0.145
-0.14
-0.17
-0.15
-0.115
-0.18
-0.15
-0.17
-0.1
-0.24
-0.35
-0.24
-0.065
-0.16
-0.26
-0.21
-0.165
-0.185
-0.275
-0.29
-0.32
-0.38
-0.435
-0.28
-0.195
-0.145
-0.155
-0.16
-0.235
-0.13
-0.13
-0.12
-0.155
-0.225
-0.29
-0.295
-0.145
-0.055
-0.035
-0.06
0.095
0.295
0.385
0.54
0.57
0.495
0.415
0.375
0.305
0.23
0.16
0.1
-0.12
-0.23
-0.365
-0.23
-0.215
-0.24
-0.265
-0.26
-0.135
-0.065
-0.1
-0.135
-0.19
-0.205
-0.265
-0.405
-0.465
-0.405
-0.245
-0.13
-0.05
-0.065
-0.165
-0.16
-0.095
-0.185
-0.12
-0.165
-0.25
-0.245
-0.345
-0.27
-0.16
-0.33
-0.21
-0.13
-0.18
-0.21
-0.245
-0.21
-0.225
-0.23
-0.095
0.055
-0.035
-0.105
-0.13
-0.15
-0.15
-0.255
-0.295
-0.25
-0.2
-0.17
-0.185
-0.2
-0.13
-0.07
-0.035
0.045
-0.01
-0.04
0.105
0.005
-0.08
-0.19
-0.065
-0.16
-0.235
-0.15
0.03
-0.01
-0.075
0.05
0.03
0.025
0.08
0.04
0.04
0.025
0.075
0.1
0.02
0.015
0.005
0.035
0.03
0.23
0.265
0.17
0.07
0.06
0.17
0.15
0.245
0.275
0.265
0.22
0.2
0.305
0.355
0.42
0.34
0.36
0.29
0.285
0.3
0.21
0.2
0.23
0.345
0.28
0.27
0.3
0.145
0.175
0.1
0.015
-0.02
-0.08
0.005
-0.1
-0.045
-0.095
0.005
-0.105
-0.04
0.075
0.015
0.095
0.05
-0.02
-0.095
-0.2
-0.385
-0.37
-0.13
-0.09
-0.055
-0.05
-0.1
-0.17
-0.14
-0.245
-0.195
-0.035
0.01
-0.065
-0.115
-0.115
-0.065
-0.11
-0.15
-0.145
-0.025
0.015
-0.04
-0.04
-0.095
-0.165
-0.2
-0.28
-0.275
-0.185
-0.08
-0.185
-0.12
-0.08
-0.18
-0.22
-0.24
-0.19
-0.05
-0.04
-0.04
-0.015
-0.105
-0.16
-0.26
-0.175
-0.135
-0.195
-0.17
-0.185
-0.21
-0.235
-0.275
-0.22
-0.22
-0.11
-0.015
-0.01
-0.035
-0.04
-0.175
-0.15
-0.15
-0.115
-0.02
-0.15
-0.105
-0.115
-0.235
-0.255
-0.085
-0.035
-0.19
-0.285
-0.18
-0.07
-0.07
-0.04
0.065
-0.115
-0.29
-0.495
-0.275
-0.065
0.14
-0.055
-0.165
-0.24
-0.2
-0.18
-0.145
-0.08
-0.18
0.0
0.005
-0.115
-0.03
0.075
-0.115
-0.085
-0.02
-0.085
-0.16
-0.14
-0.14
-0.17
0.03
0.125
0.005
0.015
0.06
0.005
-0.04
0.015
0.175
0.105
-0.02
-0.015
-0.095
-0.135
-0.255
-0.23
-0.045
0.08
0.03
-0.065
-0.135
-0.25
-0.21
-0.105
-0.055
-0.005
-0.09
-0.21
-0.215
-0.16
-0.185
-0.255
-0.25
-0.115
-0.165
-0.165
-0.095
-0.15
-0.25
-0.195
-0.305
-0.345
-0.16
-0.17
-0.22
-0.19
-0.14
-0.12
-0.19
-0.245
-0.22
-0.25
-0.305
-0.245
-0.155
-0.245
0.03
-0.015
0.03
0.045
0.275
0.555
0.55
0.695
0.5
0.53
0.64
0.585
0.425
0.285
0.155
0.05
-0.155
-0.32
-0.19
-0.315
-0.295
-0.405
-0.495
-0.435
-0.33
-0.26
-0.175
-0.085
-0.01
-0.055
-0.095
-0.255
-0.32
-0.27
-0.305
-0.27
-0.15
-0.075
-0.145
-0.12
-0.145
-0.18
-0.185
-0.115
-0.255
-0.255
-0.15
-0.03
-0.17
-0.24
-0.235
-0.24
-0.22
-0.155
-0.155
-0.135
-0.18
-0.19
-0.175
-0.145
-0.045
-0.08
-0.135
-0.205
-0.26
-0.3
-0.125
-0.045
-0.065
-0.07
-0.12
-0.165
-0.185
-0.17
-0.03
0.07
0.12
-0.085
-0.085
-0.04
-0.035
-0.045
-0.13
-0.005
-0.01
0.015
0.05
0.15
0.14
0.0
-0.165
-0.115
0.04
0.005
0.06
0.005
-0.135
0.245
0.26
0.245
0.205
0.105
0.08
0.09
0.04
0.095
0.27
0.45
0.515
0.5
0.095
0.16
0.29
0.39
0.335
0.195
0.345
0.295
0.505
0.435
0.445
0.5
0.655
0.485
0.5
0.325
0.35
0.39
0.4
0.345
0.325
0.1
0.135
0.175
0.175
0.23
0.17
0.105
0.01
-0.06
0.035
0.11
-0.02
-0.09
-0.14
-0.11
-0.03
-0.11
-0.07
-0.165
-0.225
-0.15
0.04
0.035
-0.065
-0.04
0.015
-0.085
-0.295
-0.225
-0.18
-0.2
-0.32
-0.27
-0.185
-0.035
-0.09
0.09
-0.025
0.01
-0.09
-0.05
0.03
-0.115
-0.27
-0.165
-0.075
-0.185
-0.17
-0.095
-0.13
-0.165
-0.185
0.045
-0.095
-0.19
-0.065
-0.195
0.13
-0.025
-0.23
-0.185
-0.13
-0.19
-0.13
-0.17
-0.145
-0.155
-0.135
-0.13
-0.035
-0.02
0.07
0.08
-0.02
-0.02
-0.075
-0.245
-0.31
-0.215
-0.135
-0.18
-0.1
-0.19
-0.21
-0.19
-0.155
-0.155
-0.07
-0.08
-0.17
-0.095
-0.08
-0.07
-0.215
-0.145
-0.105
-0.045
-0.16
-0.175
-0.085
-0.035
-0.095
-0.125
-0.235
-0.265
-0.21
-0.08
-0.01
-0.07
-0.125
-0.065
-0.145
-0.14
0.06
0.08
-0.04
0.035
-0.01
-0.05
0.02
0.095
0.04
-0.03
-0.03
0.04
0.02
-0.055
-0.095
-0.04
0.11
0.14
-0.025
-0.045
0.035
0.01
-0.08
-0.085
-0.02
-0.04
0.045
-0.005
-0.02
-0.15
-0.16
-0.12
-0.105
-0.095
-0.135
-0.07
-0.06
-0.11
-0.125
-0.145
-0.24
-0.255
-0.24
-0.31
-0.305
-0.34
-0.275
-0.125
-0.11
-0.22
-0.11
-0.01
-0.02
-0.09
-0.075
-0.11
-0.26
-0.285
-0.325
-0.41
-0.375
-0.135
0.025
0.11
0.355
0.395
0.425
0.47
0.605
0.735
0.63
0.59
0.58
0.605
0.495
0.405
0.355
0.25
0.015
-0.15
-0.245
-0.375
-0.61
-0.4
-0.29
-0.29
-0.28
-0.255
-0.145
-0.115
-0.185
-0.205
-0.165
-0.17
-0.115
-0.14
-0.205
-0.235
-0.195
-0.23
-0.185
-0.2
-0.065
0.005
-0.01
-0.08
-0.34
-0.245
-0.245
-0.285
-0.105
-0.12
-0.215
-0.135
0.04
-0.07
-0.16
-0.105
-0.065
-0.11
-0.13
-0.115
-0.14
-0.15
-0.075
-0.055
-0.06
-0.13
-0.15
-0.08
0.04
-0.095
-0.16
-0.09
-0.11
-0.165
-0.19
-0.13
-0.055
-0.03
0.06
-0.065
-0.08
0.09
0.195
0.08
0.12
0.115
-0.01
0.02
-0.045
-0.05
-0.12
-0.06
0.09
0.105
0.285
0.215
0.225
0.135
0.14
0.19
0.16
0.23
0.2
0.145
0.15
0.18
0.22
0.365
0.45
0.375
0.37
0.325
0.295
0.28
0.285
0.39
0.43
0.365
0.5
0.44
0.39
0.34
0.27
0.365
0.315
0.26
0.315
0.3
0.235
0.27
0.335
0.275
0.195
0.21
0.155
0.055
-0.015
-0.02
0.11
0.045
-0.085
-0.005
0.085
0.0
0.195
0.185
0.09
-0.21
-0.18
-0.25
-0.235
-0.13
-0.09
-0.06
-0.04
-0.11
-0.15
-0.145
-0.105
-0.125
-0.105
-0.135
-0.085
-0.125
-0.095
-0.14
-0.035
-0.08
-0.125
-0.16
-0.08
-0.125
-0.09
-0.165
-0.195
-0.035
0.01
0.07
-0.015
-0.05
-0.02
-0.01
0.045
-0.09
-0.05
-0.17
-0.17
-0.155
-0.225
-0.185
-0.085
0.06
0.055
0.03
-0.095
-0.14
-0.09
-0.085
-0.12
-0.12
-0.09
-0.085
-0.065
-0.02
0.005
-0.19
-0.305
-0.23
-0.215
-0.21
-0.115
0.005
0.0
-0.095
-0.06
0.0
0.01
0.08
-0.035
-0.06
-0.05
-0.035
-0.065
-0.055
0.105
0.065
-0.02
-0.02
-0.13
-0.295
-0.385
-0.41
-0.34
-0.15
-0.085
-0.005
-0.01
0.13
0.11
0.125
0.125
0.16
0.095
0.12
0.145
0.12
0.055
0.005
-0.125
-0.13
-0.095
-0.055
-0.175
-0.1
0.06
0.01
0.02
0.055
0.05
-0.02
0.03
0.04
0.06
0.01
-0.125
-0.115
-0.185
-0.16
-0.13
-0.1
-0.07
-0.005
-0.1
-0.275
-0.145
-0.01
-0.095
-0.06
-0.09
0.04
0.035
-0.035
-0.165
-0.225
-0.19
-0.225
-0.18
-0.005
-0.035
0.03
0.03
-0.175
-0.325
-0.405
-0.375
-0.21
-0.14
-0.005
0.16
0.32
0.495
0.62
0.66
0.55
0.415
0.4
0.39
0.465
0.52
0.5
0.37
0.175
0.005
-0.065
-0.045
-0.195
-0.13
-0.22
-0.345
-0.335
-0.17
-0.08
-0.01
-0.045
-0.04
-0.035
0.005
0.005
-0.08
-0.105
-0.09
-0.095
-0.095
-0.1
-0.06
-0.065
0.035
-0.01
-0.035
-0.185
-0.305
-0.265
-0.28
-0.195
-0.07
0.065
0.12
-0.01
-0.005
0.02
0.1
0.015
-0.085
-0.115
-0.26
-0.145
-0.08
-0.09
-0.2
-0.175
-0.025
0.055
-0.01
-0.085
-0.07
-0.01
-0.09
-0.15
-0.07
0.055
0.045
-0.055
-0.08
-0.155
-0.075
0.005
0.07
0.09
0.07
-0.055
-0.085
-0.1
-0.15
0.005
0.07
0.075
0.14
0.255
0.265
0.27
0.26
0.22
0.08
0.065
-0.1
-0.015
0.125
0.23
0.23
0.145
0.145
0.21
0.2
0.295
0.295
0.285
0.255
0.36
0.265
0.37
0.33
0.305
0.37
0.42
0.385
0.4
0.325
0.33
0.285
0.465
0.415
0.31
0.355
0.33
0.28
0.245
0.26
0.21
-0.03
0.04
0.065
0.07
-0.02
-0.075
0.0
0.06
-0.04
-0.035
-0.055
0.04
0.055
0.155
-0.005
-0.06
-0.14
-0.11
-0.085
-0.155
-0.195
-0.115
0.085
-0.005
-0.035
-0.12
-0.17
-0.21
-0.08
-0.155
-0.095
-0.035
0.085
-0.045
-0.125
-0.085
-0.115
-0.185
-0.205
-0.05
0.14
0.09
0.035
-0.065
-0.15
-0.185
-0.19
-0.015
-0.04
-0.13
-0.165
-0.16
-0.12
-0.115
-0.15
-0.14
-0.085
-0.045
-0.06
-0.045
-0.07
-0.2
-0.19
-0.22
-0.105
-0.045
-0.07
-0.07
-0.13
-0.08
0.065
0.04
-0.025
-0.01
-0.005
-0.09
-0.145
-0.145
-0.095
-0.015
-0.045
-0.06
-0.065
-0.055
0.045
0.0
-0.135
-0.235
-0.26
-0.27
-0.215
-0.075
-0.095
-0.125
-0.01
0.145
0.0
-0.07
-0.17
-0.205
-0.115
0.035
0.05
0.095
0.065
0.06
-0.06
-0.05
0.045
0.05
0.05
0.165
0.15
0.115
-0.035
-0.155
-0.19
-0.225
-0.265
-0.295
-0.05
0.06
0.025
-0.09
-0.13
-0.15
-0.225
-0.265
-0.105
-0.01
-0.13
-0.165
-0.245
-0.235
-0.2
-0.005
-0.04
-0.06
-0.075
-0.15
-0.295
-0.285
-0.25
-0.37
-0.335
-0.25
-0.15
-0.17
-0.17
-0.225
-0.265
-0.22
-0.21
-0.235
-0.245
-0.22
-0.22
-0.16
-0.015
0.015
0.135
0.275
0.435
0.595
0.555
0.575
0.575
0.485
0.255
0.195
0.215
0.12
-0.03
-0.09
-0.17
-0.205
-0.19
-0.305
-0.455
-0.3
-0.33
-0.31
-0.19
-0.1
-0.135
-0.12
-0.14
-0.175
-0.16
-0.125
-0.07
-0.075
-0.215
-0.195
-0.09
-0.18
-0.14
-0.14
-0.18
-0.185
-0.19
-0.2
-0.21
-0.045
-0.18
-0.2
-0.2
-0.165
-0.19
-0.18
-0.17
-0.13
-0.155
-0.27
-0.26
-0.23
-0.17
-0.145
-0.14
-0.11
-0.12
-0.105
-0.075
0.005
-0.185
-0.34
-0.33
-0.17
-0.15
-0.195
-0.195
-0.19
-0.17
-0.09
-0.05
-0.02
-0.145
-0.235
-0.015
0.16
0.09
0.075
0.01
-0.06
-0.125
-0.04
-0.04
-0.005
-0.005
-0.18
-0.105
0.02
0.085
0.14
0.11
0.025
0.145
0.2
0.005
-0.11
-0.03
0.105
0.25
0.365
0.32
0.34
0.29
0.225
0.11
0.2
0.205
0.365
0.405
0.48
0.45
0.41
0.415
0.44
0.465
0.43
0.425
0.29
0.2
0.285
0.355
0.31
0.135
0.09
0.03
0.18
0.21
0.185
0.065
0.11
0.035
-0.085
-0.195
-0.02
-0.025
-0.13
-0.015
-0.03
-0.055
-0.105
-0.155
-0.195
-0.22
-0.235
-0.08
-0.06
0.005
-0.105
-0.035
-0.045
-0.075
-0.05
-0.01
-0.045
-0.235
-0.235
-0.105
-0.045
-0.075
-0.035
-0.075
-0.07
-0.19
-0.17
-0.065
0.105
0.12
0.035
-0.025
-0.075
-0.17
-0.19
-0.115
-0.145
-0.04
-0.015
-0.045
-0.13
-0.215
-0.065
-0.185
-0.06
-0.12
-0.15
-0.17
-0.07
-0.03
0.015
-0.015
0.02
0.025
0.06
-0.03
-0.05
-0.275
-0.235
-0.08
-0.17
-0.165
-0.095
-0.005
0.04
0.055
0.065
0.02
-0.025
0.015
0.17
0.205
0.035
-0.05
-0.09
-0.045
0.005
-0.03
0.025
0.01
0.015
0.045
0.09
0.175
0.14
0.07
0.005
0.05
0.05
0.085
0.03
-0.145
-0.215
-0.195
0.01
0.155
0.155
0.16
0.105
-0.06
-0.11
-0.12
-0.14
-0.115
-0.12
-0.15
0.02
0.095
-0.12
-0.205
-0.24
-0.23
-0.13
-0.09
-0.105
-0.055
-0.095
-0.14
-0.15
-0.08
-0.135
-0.17
-0.015
0.085
0.03
0.02
-0.085
-0.16
-0.11
-0.155
-0.07
-0.03
-0.1
-0.185
-0.16
-0.075
0.01
0.115
0.235
0.47
0.675
0.68
0.57
0.61
0.655
0.525
0.385
0.345
0.255
0.165
0.135
0.015
-0.07
-0.125
-0.045
-0.015
-0.12
-0.195
-0.13
-0.145
-0.17
-0.075
-0.125
-0.17
-0.215
-0.125
-0.03
-0.03
-0.085
-0.05
-0.04
-0.045
0.05
-0.02
-0.21
-0.185
-0.145
-0.115
-0.19
-0.085
-0.055
-0.02
0.065
0.07
-0.03
-0.05
-0.11
-0.095
0.01
-0.01
-0.095
-0.22
-0.17
-0.05
-0.025
-0.055
-0.09
-0.07
-0.045
-0.01
-0.065
-0.225
-0.235
-0.025
0.0
0.035
0.105
0.07
0.015
-0.005
-0.05
-0.025
0.06
0.1
0.035
-0.05
-0.015
0.115
0.095
0.125
0.09
0.04
0.085
0.145
0.09
0.025
0.235
0.265
0.135
0.035
0.03
0.09
0.175
0.19
0.095
0.215
0.34
0.35
0.27
0.18
0.215
0.215
0.355
0.355
0.345
0.225
0.33
0.5
0.605
0.575
0.54
0.37
0.365
0.375
0.39
0.355
0.55
0.495
0.48
0.35
0.115
0.15
0.255
0.265
0.07
0.06
0.055
0.095
0.21
0.19
0.2
0.25
0.02
-0.005
0.13
0.19
0.15
0.035
-0.005
0.005
0.0
0.085
0.055
0.13
0.105
0.0
0.015
-0.06
-0.09
-0.12
-0.135
-0.11
0.055
0.03
0.015
0.14
0.08
-0.005
-0.16
-0.14
-0.055
-0.055
-0.04
-0.01
0.015
0.005
-0.03
-0.12
-0.11
0.05
0.08
0.015
-0.055
-0.11
-0.055
-0.03
0.005
0.025
0.025
0.085
0.01
-0.065
-0.015
-0.025
-0.055
-0.075
-0.045
-0.085
-0.105
0.005
0.04
0.13
0.195
0.195
0.025
0.02
-0.125
-0.135
-0.205
-0.205
-0.055
-0.05
-0.08
0.055
0.02
-0.025
-0.05
0.12
0.105
-0.07
0.0
0.1
-0.055
-0.08
0.22
0.055
-0.13
-0.035
-0.015
0.03
0.18
0.23
0.23
0.225
0.23
0.21
0.145
0.145
0.09
0.07
-0.005
-0.02
0.085
0.215
0.13
0.065
0.095
-0.12
-0.13
-0.26
-0.18
-0.15
0.05
-0.08
-0.045
-0.015
-0.095
-0.075
-0.005
0.06
-0.02
-0.085
-0.095
-0.035
-0.02
-0.03
-0.095
-0.075
-0.02
-0.06
-0.1
-0.11
-0.2
-0.11
-0.125
-0.185
-0.225
-0.205
-0.08
-0.1
-0.005
0.145
0.31
0.4
0.51
0.665
0.66
0.65
0.8
0.745
0.605
0.525
0.485
0.31
0.215
0.06
0.01
-0.075
-0.07
-0.105
-0.105
-0.11
-0.16
-0.185
-0.115
-0.075
-0.095
-0.095
0.06
-0.01
0.04
0.04
-0.125
-0.085
-0.16
-0.185
-0.075
-0.075
-0.075
-0.065
-0.005
-0.12
-0.11
-0.21
-0.18
-0.105
-0.12
-0.08
-0.055
-0.015
-0.075
-0.06
-0.055
-0.05
-0.02
-0.045
-0.015
-0.005
-0.075
-0.205
-0.1
0.095
0.095
0.02
0.045
0.04
-0.07
-0.11
-0.025
-0.02
-0.095
-0.09
-0.045
-0.055
-0.135
-0.18
-0.19
0.12
0.215
0.125
0.035
0.06
-0.025
-0.125
0.025
0.15
0.155
0.23
0.195
0.115
0.115
0.115
0.13
0.23
0.26
0.215
0.145
0.125
0.135
0.08
0.16
0.17
0.25
0.44
0.37
0.29
0.335
0.3
0.315
0.475
0.58
0.42
0.355
0.46
0.445
0.47
0.44
0.475
0.27
0.265
0.29
0.335
0.32
0.34
0.41
0.395
0.34
0.3
0.215
0.175
0.205
0.25
0.255
0.18
0.19
0.1
0.085
0.01
0.03
0.09
0.005
-0.045
-0.045
-0.035
-0.005
-0.05
-0.075
0.01
0.09
-0.07
-0.09
-0.06
0.03
-0.04
-0.095
-0.005
0.12
0.07
0.005
-0.005
-0.04
-0.08
-0.02
-0.07
-0.09
-0.185
-0.12
0.005
0.08
-0.02
-0.085
-0.03
-0.1
-0.08
-0.04
-0.025
-0.115
-0.1
-0.04
-0.095
-0.085
-0.065
-0.075
-0.065
-0.035
-0.06
-0.05
-0.05
-0.035
-0.01
-0.045
0.005
0.005
-0.01
0.015
-0.005
-0.025
0.05
-0.065
0.08
0.045
0.025
-0.04
0.11
0.17
0.175
0.115
0.155
0.06
0.0
0.055
-0.015
-0.065
-0.015
0.005
0.09
0.23
0.165
0.12
0.045
0.07
-0.02
-0.03
0.04
0.13
0.14
0.155
0.17
0.175
0.04
-0.13
-0.165
0.215
0.165
0.12
0.045
0.09
0.125
0.065
0.085
0.055
-0.195
-0.19
0.0
0.04
-0.07
-0.07
-0.105
-0.095
-0.16
-0.08
-0.055
-0.09
-0.155
-0.065
-0.11
-0.005
-0.095
-0.115
-0.165
-0.15
-0.04
-0.02
-0.035
-0.045
0.05
-0.05
-0.12
-0.13
-0.05
0.02
0.17
0.245
0.365
0.375
0.45
0.475
0.82
0.73
0.71
0.745
0.62
0.52
0.565
0.485
0.305
0.04
-0.095
-0.125
-0.26
-0.33
-0.35
-0.305
-0.275
-0.04
-0.005
0.07
0.035
0.02
-0.085
-0.155
-0.135
-0.16
-0.03
0.045
0.05
0.005
0.02
0.06
-0.025
-0.04
-0.095
-0.185
-0.215
-0.255
-0.025
0.06
0.085
0.135
0.105
0.015
-0.075
-0.05
-0.005
-0.205
-0.29
-0.24
-0.105
0.03
0.055
0.025
-0.02
-0.04
-0.06
-0.065
-0.01
-0.005
0.025
-0.06
-0.07
-0.08
0.215
0.185
0.05
0.1
0.08
0.05
-0.05
0.0
0.06
0.035
0.095
0.03
0.19
0.13
0.05
0.03
0.04
0.115
0.155
0.085
0.145
0.21
0.125
0.025
0.095
0.245
0.245
0.27
0.26
0.28
0.31
0.27
0.27
0.21
0.2
0.22
0.37
0.36
0.335
0.42
0.505
0.415
0.325
0.38
0.375
0.345
0.33
0.29
0.28
0.37
0.49
0.67
0.565
0.345
0.43
0.445
0.32
0.21
0.1
0.155
0.145
0.115
0.195
0.1
0.045
0.155
0.33
0.405
0.29
-0.085
-0.135
-0.155
-0.2
-0.18
-0.08
-0.07
0.05
0.06
0.015
0.045
0.01
0.115
0.01
-0.12
-0.05
0.095
0.0
-0.085
-0.005
-0.04
-0.06
-0.045
-0.04
-0.075
-0.095
-0.15
-0.165
0.015
0.12
0.04
0.16
0.11
-0.22
-0.255
-0.1
-0.09
-0.065
0.045
0.185
0.09
-0.005
-0.04
0.095
0.125
0.005
-0.075
-0.15
-0.17
-0.04
0.045
0.05
0.01
0.05
0.06
0.095
0.09
0.025
-0.015
-0.05
-0.02
0.105
0.24
0.075
-0.125
-0.075
0.055
0.1
0.035
0.15
0.19
0.2
0.185
0.205
0.135
0.1
0.305
0.105
0.02
0.105
0.18
0.345
0.2
0.05
-0.02
0.01
0.03
-0.02
0.005
0.075
0.185
0.235
0.17
0.065
0.01
-0.11
-0.09
-0.005
-0.025
-0.05
-0.115
0.17
0.115
0.02
-0.005
-0.035
0.035
0.02
0.115
0.14
-0.08
-0.095
-0.035
-0.085
-0.04
0.025
0.075
0.13
0.14
0.145
0.05
-0.175
-0.11
-0.105
-0.1
-0.075
-0.13
-0.23
-0.2
-0.215
0.31
0.25
0.325
0.435
0.53
0.615
0.66
0.715
0.835
0.825
0.695
0.565
0.515
0.4
0.335
0.23
0.035
0.04
0.01
-0.05
-0.01
-0.055
-0.015
-0.05
-0.06
0.005
0.06
0.135
0.155
0.06
-0.005
-0.045
-0.105
-0.21
-0.295
-0.175
0.03
-0.095
-0.12
0.045
-0.05
-0.045
0.0
0.08
0.075
0.17
0.1
0.045
0.145
0.145
0.1
0.08
0.04
0.015
0.02
0.05
-0.075
-0.24
-0.385
-0.42
-0.21
0.065
0.09
0.2
0.335
0.195
0.11
0.03
0.04
0.06
0.005
-0.005
0.095
0.135
0.115
0.135
0.155
0.09
0.145
0.075
0.045
0.02
-0.015
-0.145
-0.175
0.04
0.195
0.25
0.24
0.27
0.285
0.305
0.405
0.385
0.48
0.37
0.13
0.135
0.235
0.19
0.17
0.225
0.25
0.21
0.17
0.085
0.15
0.265
0.27
0.255
0.45
0.56
0.64
0.66
0.565
0.49
0.54
0.475
0.48
0.49
0.495
0.46
0.4
0.27
0.28
0.26
0.255
0.365
0.37
0.34
0.26
0.205
0.175
0.25
0.255
0.23
0.115
0.09
0.09
0.05
0.065
0.06
0.02
0.075
0.09
-0.035
-0.06
0.005
0.1
0.055
-0.005
-0.075
-0.15
-0.145
-0.14
0.005
0.14
0.14
0.21
0.23
0.125
0.11
0.01
0.0
-0.01
-0.045
-0.16
-0.08
-0.03
-0.19
-0.23
-0.225
0.07
0.05
0.035
0.085
0.06
0.05
0.03
0.0
-0.14
-0.045
0.02
0.0
0.07
0.17
0.14
0.115
0.1
0.02
0.055
0.095
0.05
0.13
0.115
0.075
0.05
0.075
0.05
-0.06
-0.165
-0.215
0.115
0.15
0.07
-0.105
-0.16
0.34
0.42
0.32
0.235
0.195
0.22
0.185
0.265
0.205
0.205
0.175
0.155
0.125
0.09
0.025
0.035
-0.055
-0.205
-0.37
0.01
0.255
0.33
0.33
0.255
0.215
0.105
0.105
0.025
0.085
0.09
0.075
0.03
0.005
-0.005
-0.065
-0.1
-0.06
-0.135
-0.2
-0.225
-0.175
0.12
0.3
0.185
-0.085
-0.135
-0.16
0.08
0.195
0.13
0.085
-0.02
-0.075
-0.045
-0.03
-0.09
-0.14
-0.165
-0.12
-0.025
0.06
0.165
0.27
0.215
0.365
0.515
0.62
0.675
0.675
0.755
0.845
0.875
0.685
0.565
0.455
0.38
0.255
0.13
0.05
-0.035
-0.085
-0.2
-0.07
-0.02
0.155
0.195
0.155
-0.09
-0.08
-0.07
-0.08
-0.095
-0.085
0.02
0.025
-0.015
-0.16
-0.03
-0.085
-0.12
-0.21
-0.105
-0.095
0.01
-0.005
-0.035
0.065
0.055
-0.015
0.02
-0.1
-0.04
0.17
0.125
-0.08
-0.04
-0.135
-0.195
0.04
0.045
-0.015
0.005
0.03
0.11
0.195
0.24
0.115
0.075
-0.13
-0.13
-0.12
-0.005
0.005
0.075
0.185
0.205
0.225
0.185
0.08
0.105
0.035
0.045
0.015
0.06
0.095
0.11
0.065
0.065
0.0
-0.11
0.145
0.215
0.125
0.095
0.11
0.14
0.23
0.28
0.325
0.31
0.305
0.14
0.055
0.17
0.29
0.23
0.325
0.35
0.475
0.515
0.51
0.47
0.495
0.44
0.405
0.325
0.26
0.24
0.33
0.405
0.48
0.43
0.455
0.48
0.435
0.355
0.245
0.22
0.255
0.285
0.315
0.31
0.295
0.27
0.245
0.23
0.225
0.12
0.015
0.01
0.01
-0.005
0.06
0.095
0.14
0.05
-0.1
-0.015
-0.09
-0.155
-0.16
-0.085
-0.04
0.075
0.02
-0.07
0.025
-0.01
-0.01
0.05
0.18
0.115
0.045
0.005
0.055
-0.025
-0.04
-0.08
-0.045
0.01
-0.045
0.0
-0.005
-0.015
-0.015
0.075
-0.015
0.015
-0.055
-0.085
-0.05
0.19
0.035
-0.09
-0.085
0.055
0.055
0.0
0.035
0.105
0.09
-0.035
-0.235
-0.19
-0.125
-0.05
-0.075
-0.075
0.17
0.235
0.185
0.14
0.125
0.07
0.055
0.07
0.025
0.05
0.13
0.145
0.03
-0.125
-0.125
0.175
0.235
0.205
0.2
0.12
0.115
0.12
0.115
0.07
0.07
0.06
0.07
0.06
0.125
0.2
0.295
0.365
0.26
0.13
0.075
-0.115
-0.175
-0.13
-0.1
-0.105
-0.05
0.02
-0.035
-0.045
0.02
0.08
0.11
0.05
0.05
0.05
-0.02
-0.01
-0.045
0.02
0.03
-0.115
-0.17
-0.09
-0.01
-0.05
-0.08
-0.09
-0.17
-0.23
-0.185
-0.065
-0.025
-0.015
0.015
0.015
0.06
0.305
0.13
-0.09
-0.08
0.095
0.18
0.24
0.385
0.49
0.525
0.555
0.595
0.655
0.67
0.7
0.505
0.52
0.49
0.395
0.315
0.14
-0.095
-0.075
-0.12
-0.135
-0.19
-0.11
-0.005
0.065
0.01
-0.105
-0.205
-0.19
-0.07
0.005
-0.015
0.035
0.095
0.19
0.255
0.11
-0.07
-0.18
-0.25
-0.185
-0.055
-0.06
-0.075
-0.04
-0.125
-0.105
-0.1
-0.1
-0.025
-0.08
-0.01
-0.09
-0.05
0.035
0.13
0.075
0.015
-0.085
-0.18
-0.18
-0.09
0.07
0.145
0.06
0.09
-0.07
-0.02
0.06
0.045
0.04
0.035
-0.015
-0.11
-0.035
0.24
0.27
0.305
0.11
-0.055
-0.255
-0.22
-0.155
0.015
0.15
0.185
0.17
0.205
0.22
0.145
0.17
0.145
0.145
0.185
0.175
0.24
0.21
0.095
-0.04
-0.145
0.03
0.26
0.3
0.22
0.21
0.305
0.46
0.505
0.455
0.425
0.455
0.445
0.46
0.5
0.5
0.53
0.565
0.53
0.495
0.38
0.35
0.32
0.27
0.245
0.075
-0.09
0.135
0.35
0.38
0.32
0.3
0.255
0.225
0.19
0.15
0.145
-0.005
0.025
-0.01
0.03
0.035
-0.005
0.045
0.04
0.07
0.13
0.175
0.165
0.045
-0.075
-0.125
-0.095
-0.115
-0.14
-0.085
0.0
0.045
-0.005
-0.085
-0.09
-0.025
-0.01
-0.015
-0.065
-0.09
-0.125
-0.105
-0.18
-0.065
-0.13
-0.14
-0.15
-0.05
0.02
0.05
0.15
0.205
0.14
0.065
-0.035
-0.115
-0.23
-0.34
-0.055
0.075
0.09
0.055
0.07
-0.035
-0.055
-0.07
-0.06
-0.06
-0.025
0.025
-0.025
0.07
0.2
0.04
-0.045
0.025
-0.055
-0.095
0.005
0.01
0.06
0.03
0.06
0.0
0.0
0.04
0.125
0.15
0.19
0.095
0.05
-0.045
0.025
-0.015
0.0
0.095
0.12
0.135
0.175
0.02
0.07
0.075
0.055
0.095
0.14
0.145
0.045
0.015
0.03
0.085
0.04
0.055
0.1
-0.01
-0.075
-0.045
0.03
-0.055
-0.09
-0.085
-0.115
0.02
-0.035
-0.02
-0.005
0.07
-0.015
-0.095
-0.055
-0.125
-0.07
-0.135
-0.065
0.095
-0.015
-0.07
-0.07
-0.04
0.005
-0.025
-0.055
-0.055
-0.065
-0.06
-0.16
0.02
0.055
-0.16
-0.205
-0.24
-0.12
0.035
0.125
0.315
0.475
0.665
0.77
0.705
0.7
0.65
0.675
0.575
0.465
0.41
0.38
0.1
-0.17
-0.2
-0.09
-0.09
-0.205
-0.115
0.05
-0.04
-0.045
0.03
-0.045
-0.1
-0.13
-0.105
-0.085
-0.04
0.08
0.1
0.015
-0.085
-0.15
-0.31
-0.215
-0.19
-0.13
-0.05
0.0
-0.07
-0.135
-0.025
-0.02
-0.08
0.025
0.16
0.19
0.055
-0.12
-0.09
-0.075
-0.18
-0.25
-0.21
-0.12
-0.115
-0.095
-0.045
0.005
0.035
-0.02
0.04
0.04
0.04
0.025
0.035
0.085
0.095
0.095
0.13
0.1
0.11
0.06
-0.105
-0.17
-0.015
-0.025
-0.025
0.065
-0.01
-0.085
-0.09
0.04
0.025
0.11
0.23
0.28
0.26
0.175
0.05
-0.03
0.08
0.09
0.105
0.125
0.17
0.225
0.315
0.335
0.31
0.24
0.23
0.27
0.375
0.245
0.31
0.335
0.445
0.445
0.48
0.46
0.42
0.37
0.425
0.375
0.31
0.19
0.06
0.25
0.425
0.345
0.39
0.3
0.23
0.23
0.2
0.245
0.25
0.23
0.245
0.13
0.11
0.03
-0.02
-0.065
-0.075
-0.05
-0.05
-0.125
0.02
0.205
0.255
0.105
0.06
-0.115
-0.195
-0.125
-0.11
-0.14
-0.055
-0.055
-0.075
-0.095
-0.045
-0.04
0.01
-0.035
-0.16
-0.1
-0.05
-0.055
0.03
-0.045
-0.12
-0.225
-0.06
0.05
0.025
-0.035
-0.005
0.015
0.0
-0.055
-0.02
-0.07
-0.04
-0.025
-0.015
-0.06
-0.07
-0.1
-0.05
-0.14
-0.25
-0.115
0.015
-0.01
-0.035
0.035
0.035
-0.035
-0.03
-0.055
-0.05
-0.16
-0.175
-0.08
-0.025
0.125
0.16
0.07
0.06
0.025
-0.105
-0.145
-0.105
-0.055
-0.125
-0.03
-0.025
0.025
0.03
0.055
0.025
-0.02
-0.215
-0.005
0.02
0.015
-0.015
-0.02
-0.015
0.015
0.01
0.115
0.095
0.17
0.165
0.025
-0.05
-0.12
-0.025
0.095
0.16
0.09
0.02
-0.015
-0.11
-0.135
0.035
0.03
-0.03
0.005
-0.02
-0.05
0.005
-0.08
-0.02
0.1
0.12
0.03
-0.065
-0.115
-0.17
-0.135
-0.01
-0.105
-0.075
-0.045
-0.05
-0.04
-0.025
-0.05
-0.09
0.02
0.1
0.0
-0.14
-0.115
-0.105
-0.105
-0.11
-0.195
-0.015
-0.065
-0.065
-0.085
-0.145
-0.22
-0.23
-0.365
-0.38
-0.215
0.08
0.195
0.305
0.36
0.5
0.615
0.635
0.65
0.595
0.61
0.55
0.42
0.425
0.34
0.195
0.05
0.01
-0.03
-0.045
-0.145
-0.135
-0.02
0.035
-0.06
-0.05
0.055
0.075
-0.025
-0.075
-0.055
-0.03
-0.005
-0.095
-0.27
-0.21
-0.175
-0.22
-0.235
-0.215
-0.07
-0.08
-0.075
-0.085
-0.04
-0.09
-0.17
-0.105
-0.055
-0.125
-0.13
-0.13
-0.065
-0.04
-0.035
-0.04
-0.035
-0.035
-0.02
-0.035
-0.025
-0.055
-0.085
-0.04
0.0
-0.005
-0.015
-0.075
0.0
0.04
0.0
-0.105
-0.135
-0.1
-0.075
-0.055
0.05
0.055
0.015
-0.075
-0.115
-0.145
0.01
0.08
0.17
0.13
0.21
0.22
0.045
0.08
0.1
0.08
0.035
-0.01
0.025
0.05
0.155
0.26
0.25
0.145
0.105
0.185
0.055
0.085
0.02
0.125
0.37
0.56
0.475
0.455
0.525
0.45
0.365
0.24
0.265
0.295
0.39
0.5
0.49
0.475
0.48
0.395
0.37
0.36
0.34
0.355
0.34
0.22
0.125
0.085
0.145
0.145
0.155
0.15
0.085
0.015
0.025
0.09
0.065
0.09
0.045
0.055
0.05
0.03
0.025
0.09
0.0
-0.085
-0.12
-0.135
-0.13
-0.005
-0.02
-0.045
-0.01
-0.06
-0.055
-0.02
-0.045
-0.11
-0.115
-0.055
-0.05
-0.045
0.03
0.0
-0.12
-0.145
-0.23
-0.425
-0.16
-0.065
-0.065
-0.01
0.045
0.08
0.015
-0.03
-0.07
-0.09
0.005
0.14
0.095
-0.13
-0.225
-0.23
0.0
-0.03
-0.065
-0.05
-0.065
-0.075
-0.11
-0.235
-0.215
-0.035
-0.02
-0.05
-0.085
-0.115
-0.035
-0.09
-0.1
-0.09
-0.03
-0.01
0.065
0.025
0.085
0.06
0.085
0.065
0.01
-0.155
-0.125
-0.195
-0.15
-0.205
-0.01
0.085
0.085
0.135
0.02
-0.01
-0.155
-0.11
-0.07
0.035
0.05
0.04
-0.03
-0.125
-0.15
-0.05
-0.045
-0.065
-0.045
-0.045
0.055
0.1
0.015
0.02
0.08
0.05
0.025
0.005
0.115
0.115
0.045
0.08
0.12
0.0
-0.12
-0.08
-0.065
0.01
0.065
0.05
0.08
0.02
-0.07
-0.065
-0.1
-0.045
0.055
0.095
0.085
0.12
-0.145
-0.225
-0.28
-0.175
-0.14
-0.11
-0.18
-0.205
-0.08
0.0
-0.08
-0.08
-0.015
0.04
0.025
0.055
-0.04
-0.145
-0.175
-0.22
-0.255
-0.225
-0.25
-0.045
0.075
-0.09
-0.19
-0.22
-0.23
-0.09
-0.035
0.03
0.115
0.12
0.205
0.345
0.54
0.575
0.635
0.88
0.855
0.765
0.61
0.46
0.375
0.27
0.21
0.11
0.095
-0.09
-0.14
-0.29
-0.285
-0.17
-0.125
-0.1
-0.045
-0.075
-0.055
-0.07
-0.135
-0.175
-0.275
-0.15
-0.065
-0.045
-0.015
-0.02
-0.085
-0.13
-0.045
-0.065
-0.125
-0.02
-0.005
-0.02
-0.07
-0.16
-0.115
-0.09
0.065
-0.045
-0.215
-0.225
-0.045
-0.145
-0.295
0.045
0.045
0.045
0.0
-0.07
-0.185
-0.13
-0.125
-0.08
-0.055
-0.01
-0.01
-0.195
-0.245
-0.255
-0.025
0.09
0.13
0.15
0.1
-0.065
-0.025
0.05
0.045
0.02
0.07
0.1
-0.045
-0.11
-0.08
-0.075
-0.025
0.105
0.125
0.09
0.095
0.135
0.16
0.07
0.19
0.185
0.095
0.09
0.075
0.08
0.16
0.17
0.06
0.175
0.25
0.19
0.245
0.295
0.25
0.29
0.355
0.41
0.405
0.405
0.42
0.405
0.35
0.37
0.47
0.43
0.465
0.395
0.405
0.255
0.225
0.235
0.215
0.2
0.185
0.145
0.145
0.085
0.06
0.115
-0.015
0.025
0.125
0.19
0.045
-0.08
-0.055
-0.12
-0.14
-0.035
-0.075
-0.105
-0.085
-0.005
-0.065
-0.105
-0.105
-0.095
-0.09
-0.095
-0.125
-0.03
0.12
0.02
-0.035
-0.04
-0.12
-0.09
-0.075
-0.135
-0.08
-0.06
-0.07
-0.05
0.01
0.05
-0.1
-0.06
-0.125
-0.135
-0.17
-0.095
-0.055
-0.025
-0.035
0.015
-0.055
-0.175
-0.26
-0.245
-0.025
0.05
-0.065
-0.05
-0.015
-0.03
-0.02
-0.08
-0.055
-0.04
-0.05
-0.07
-0.04
-0.04
-0.03
-0.08
-0.12
0.025
-0.03
-0.13
-0.125
-0.195
-0.005
0.055
-0.14
-0.24
-0.14
-0.13
0.01
0.115
0.1
0.035
-0.01
-0.105
-0.2
-0.105
-0.12
-0.115
-0.1
-0.02
-0.04
-0.085
-0.155
-0.16
-0.03
0.065
0.05
-0.035
-0.045
-0.075
-0.03
-0.025
-0.04
-0.005
-0.035
-0.05
-0.11
-0.085
-0.165
-0.025
0.205
0.39
0.325
0.06
0.015
0.01
-0.055
-0.04
-0.05
0.005
-0.055
-0.02
0.055
-0.005
-0.06
-0.135
-0.04
0.09
0.07
0.0
-0.02
-0.045
-0.08
-0.1
-0.05
-0.03
-0.11
-0.15
-0.145
-0.135
-0.115
-0.12
-0.07
-0.04
0.035
-0.075
-0.055
-0.105
-0.03
-0.185
-0.2
-0.17
-0.225
-0.27
-0.19
-0.185
-0.13
-0.135
-0.145
-0.015
-0.065
-0.075
-0.06
-0.075
-0.15
-0.155
-0.015
0.04
0.2
0.215
0.275
0.52
0.69
0.65
0.655
0.71
0.775
0.65
0.57
0.565
0.44
0.235
0.125
-0.05
-0.17
-0.18
-0.185
-0.025
-0.065
-0.025
0.045
0.01
-0.105
-0.07
-0.11
-0.155
-0.09
-0.165
-0.155
-0.205
-0.195
-0.165
-0.07
-0.055
-0.01
-0.025
-0.055
-0.1
-0.165
-0.21
-0.15
-0.14
-0.125
-0.09
-0.105
-0.045
-0.005
-0.09
-0.185
-0.125
-0.145
-0.155
-0.075
-0.035
-0.165
-0.16
-0.14
-0.045
-0.005
-0.06
-0.075
-0.08
-0.095
-0.095
0.055
0.17
0.055
0.03
0.055
0.05
-0.085
-0.12
-0.085
-0.015
-0.025
-0.045
0.015
-0.055
-0.03
0.01
0.095
0.07
-0.01
-0.05
0.015
0.16
0.13
-0.01
-0.005
0.025
0.07
0.11
0.15
0.185
0.185
0.2
0.215
0.18
0.15
0.235
0.23
0.125
0.445
0.475
0.35
0.32
0.32
0.22
0.175
0.235
0.3
0.41
0.475
0.51
0.495
0.45
0.33
0.27
0.175
0.215
0.35
0.355
0.37
0.445
0.41
0.33
0.22
0.025
0.04
0.075
-0.025
-0.025
0.025
-0.05
0.035
0.2
0.155
0.085
0.055
0.0
0.015
0.025
-0.03
-0.15
-0.155
-0.145
-0.255
-0.2
-0.15
-0.075
0.075
0.1
0.015
-0.035
-0.065
-0.075
-0.115
-0.16
-0.155
-0.155
-0.16
-0.085
-0.095
0.005
0.06
-0.015
0.05
-0.05
-0.075
-0.045
-0.01
-0.095
-0.23
-0.29
-0.27
-0.235
0.0
0.03
-0.025
-0.045
-0.145
-0.065
-0.07
-0.105
-0.125
-0.005
0.04
-0.065
-0.155
-0.145
-0.065
0.07
-0.01
0.0
0.0
-0.01
-0.015
-0.035
-0.08
-0.015
-0.055
-0.05
-0.08
-0.12
-0.17
-0.15
-0.055
-0.095
-0.155
-0.065
0.115
-0.055
-0.055
-0.095
-0.115
-0.075
-0.055
0.005
-0.105
-0.095
-0.14
-0.22
-0.175
-0.005
0.09
0.065
0.045
0.02
0.02
-0.015
-0.06
-0.095
-0.04
0.085
0.05
0.07
-0.175
-0.015
-0.075
-0.15
-0.06
-0.06
-0.115
0.025
0.045
0.04
0.035
-0.06
-0.045
0.085
0.075
-0.015
0.005
0.05
0.055
0.175
0.08
-0.025
0.12
0.135
0.125
0.105
0.01
-0.075
-0.115
-0.115
-0.125
-0.145
-0.1
-0.07
-0.015
-0.075
-0.03
-0.055
-0.115
-0.11
-0.065
-0.035
0.03
-0.095
-0.085
-0.025
-0.06
-0.08
-0.155
-0.175
-0.06
-0.06
-0.05
-0.105
0.005
-0.07
-0.1
-0.07
-0.075
-0.255
-0.235
-0.17
-0.245
-0.26
-0.105
-0.01
0.06
0.095
-0.005
-0.005
0.135
0.295
0.395
0.56
0.52
0.565
0.58
0.61
0.465
0.375
0.38
0.35
0.285
0.145
0.04
-0.02
0.06
0.015
-0.055
-0.19
-0.115
-0.09
-0.165
-0.16
-0.13
-0.065
-0.055
-0.11
-0.065
-0.015
-0.075
-0.065
-0.1
-0.095
-0.175
-0.12
-0.135
-0.12
-0.115
-0.22
-0.265
-0.115
0.04
-0.04
-0.03
-0.06
-0.03
-0.005
-0.145
-0.21
-0.195
-0.13
-0.04
0.05
0.02
-0.07
-0.12
-0.09
-0.115
-0.12
-0.12
-0.075
-0.11
-0.125
-0.125
-0.11
-0.04
0.0
-0.01
-0.06
-0.04
-0.01
-0.065
-0.035
0.0
-0.06
-0.06
-0.125
-0.02
0.03
-0.03
-0.035
-0.06
0.045
0.02
-0.035
0.155
0.205
0.195
0.115
0.015
0.03
0.095
0.08
0.155
0.055
-0.045
-0.025
-0.015
0.145
0.29
0.255
0.285
0.285
0.335
0.245
0.25
0.26
0.275
0.33
0.38
0.33
0.305
0.235
0.25
0.28
0.275
0.295
0.205
0.27
0.26
0.39
0.43
0.305
0.215
0.16
0.21
0.125
0.1
0.055
-0.045
-0.03
-0.005
0.155
0.14
0.145
0.015
-0.05
-0.085
-0.135
-0.225
-0.09
-0.04
-0.105
-0.095
-0.045
-0.03
0.035
0.01
-0.02
-0.11
-0.195
-0.145
-0.175
-0.035
-0.005
-0.005
-0.06
-0.115
-0.145
-0.17
-0.165
-0.225
-0.155
0.02
0.075
-0.03
-0.09
-0.04
-0.115
-0.23
-0.32
-0.2
-0.055
0.035
-0.03
-0.09
-0.045
-0.045
-0.035
-0.1
-0.055
-0.06
0.02
0.01
-0.055
-0.11
-0.195
-0.19
-0.155
-0.13
-0.11
-0.08
-0.08
-0.065
-0.05
0.015
-0.06
-0.055
-0.095
-0.105
-0.105
-0.17
-0.07
-0.1
-0.1
0.005
-0.07
-0.07
-0.11
-0.16
-0.175
-0.145
-0.03
-0.04
-0.055
-0.175
-0.165
-0.095
-0.105
-0.17
-0.175
-0.165
-0.14
-0.01
0.045
0.05
0.045
-0.08
-0.205
-0.07
-0.115
-0.12
-0.095
-0.05
0.01
-0.16
-0.175
-0.165
-0.19
-0.105
-0.005
-0.02
-0.015
-0.01
-0.09
-0.195
-0.145
-0.09
-0.115
0.04
0.185
0.22
0.07
0.025
0.065
-0.04
-0.045
-0.05
-0.01
0.095
0.065
0.055
0.105
-0.03
0.005
0.035
-0.05
-0.165
-0.105
-0.05
-0.19
-0.225
-0.265
-0.15
-0.015
0.07
-0.025
-0.045
-0.07
-0.095
-0.11
-0.115
-0.065
-0.16
-0.175
-0.115
-0.06
-0.095
-0.255
-0.205
-0.24
-0.03
-0.035
0.01
-0.06
-0.185
-0.14
-0.07
-0.23
-0.16
-0.155
-0.165
-0.155
-0.175
-0.15
-0.11
-0.065
-0.025
0.03
0.29
0.41
0.455
0.595
0.57
0.61
0.625
0.575
0.455
0.37
0.37
0.25
0.165
0.015
-0.025
-0.13
-0.08
-0.18
-0.36
-0.345
-0.155
-0.13
-0.07
-0.06
0.02
-0.05
0.0
-0.025
-0.02
-0.06
-0.15
-0.1
-0.095
-0.14
-0.135
-0.095
-0.175
-0.26
-0.335
-0.155
-0.025
0.04
0.02
-0.07
-0.06
-0.05
-0.085
-0.08
-0.075
-0.16
-0.01
-0.065
-0.245
-0.34
-0.215
-0.15
-0.095
-0.105
-0.115
-0.055
-0.065
0.1
0.09
0.04
0.085
0.015
0.015
-0.085
-0.225
-0.21
-0.18
-0.15
-0.095
-0.05
-0.14
-0.035
0.025
0.06
0.03
0.01
0.01
0.05
0.025
-0.04
-0.01
0.05
0.08
0.01
0.065
0.09
0.12
0.075
0.1
0.135
0.16
0.215
0.24
0.225
0.145
0.16
0.205
0.26
0.285
0.33
0.335
0.29
0.28
0.31
0.345
0.345
0.43
0.38
0.27
0.265
0.25
0.335
0.34
0.25
0.235
0.33
0.28
0.305
0.3
0.32
0.36
0.35
0.245
0.18
0.215
0.315
0.18
-0.035
-0.06
-0.025
0.08
0.04
-0.115
0.02
0.055
0.065
-0.105
-0.07
0.0
0.02
0.015
0.035
-0.07
-0.07
-0.075
-0.155
-0.23
-0.09
-0.105
-0.235
-0.22
-0.085
0.03
0.1
0.09
-0.025
-0.125
-0.155
-0.13
-0.095
-0.14
-0.025
0.11
0.08
0.04
0.055
-0.04
-0.08
-0.085
-0.14
-0.125
-0.14
-0.135
-0.11
-0.055
0.105
-0.03
-0.115
-0.15
-0.2
-0.115
-0.055
-0.005
0.04
-0.01
-0.04
-0.05
0.055
-0.065
-0.065
-0.025
-0.045
-0.1
-0.08
0.02
0.075
0.065
-0.035
-0.065
-0.065
-0.215
-0.15
-0.155
-0.19
-0.16
-0.05
-0.015
-0.07
-0.055
0.015
-0.06
-0.02
0.08
0.005
0.05
-0.065
-0.085
0.015
0.05
-0.015
-0.195
-0.195
-0.045
-0.035
0.02
-0.015
0.06
0.12
0.06
-0.04
-0.145
-0.085
-0.135
-0.205
-0.13
-0.03
-0.09
-0.03
0.075
0.07
-0.025
-0.02
-0.1
-0.08
0.03
0.015
0.075
0.025
0.015
0.075
0.03
0.065
0.065
0.06
0.095
0.09
0.05
0.085
0.035
0.06
0.11
0.095
0.055
0.06
-0.01
-0.12
-0.12
-0.15
-0.115
-0.095
-0.175
-0.065
-0.085
-0.06
-0.05
-0.1
-0.125
-0.115
-0.155
-0.105
0.015
0.065
0.065
-0.06
