# TIPE ECG 2021 - ECG-ID Database v1.0.0 par Physionet
# [N° de la personne, N° de l'enregistrement, Période d'échantillonnage, Prénom, Age, Sexe, Date de l'enregistrement]
[87, 2, 0.002, "Billie", 16, "F", "21.05.2005"]
-0.07
0.38
0.385
0.4
1.035
0.76
0.075
-0.53
-0.57
-0.08
-0.055
0.39
0.425
0.42
1.11
0.73
0.105
-0.545
-0.455
-0.035
-0.06
0.41
0.445
0.575
1.195
0.705
0.035
-0.575
-0.28
0.09
0.055
0.455
0.425
0.64
1.12
0.63
0.08
-0.43
-0.145
0.145
0.135
0.455
0.46
0.715
1.2
0.63
0.035
-0.56
-0.145
0.19
0.3
0.52
0.525
0.78
1.11
0.62
0.105
-0.41
-0.08
0.125
0.255
0.465
0.48
0.97
1.23
0.705
0.12
-0.415
-0.1
0.235
0.275
0.515
0.565
1.115
1.215
0.715
0.16
-0.3
0.225
0.43
0.49
0.645
0.69
1.21
1.215
0.74
0.25
-0.265
0.245
0.39
0.54
0.75
0.705
1.255
1.28
0.645
0.26
-0.24
0.35
0.385
0.48
0.61
0.715
1.425
1.245
0.685
-0.085
-0.44
0.145
0.345
0.5
0.6
0.585
1.12
0.96
0.545
-0.095
-0.585
-0.015
0.19
0.355
0.39
0.57
1.14
0.9
0.24
-0.145
-0.56
0.035
0.11
0.21
0.36
0.33
1.005
0.705
0.33
-0.215
-0.6
0.07
0.16
0.475
0.565
0.57
1.045
0.87
0.195
-0.49
-0.76
-0.09
0.085
0.605
0.575
0.5
1.135
0.68
0.06
-0.54
-0.56
-0.07
-0.09
0.33
0.4
0.4
1.065
0.66
0.06
-0.49
-0.44
0.035
-0.01
0.455
0.445
0.425
1.065
0.695
0.06
-0.535
-0.36
0.025
0.09
0.455
0.44
0.55
1.16
0.695
0.065
-0.54
-0.265
0.085
0.14
0.435
0.46
0.685
1.13
0.665
0.055
-0.575
-0.285
0.13
0.185
0.55
0.565
0.82
1.06
0.54
0.025
-0.51
-0.145
0.05
0.095
0.495
0.46
0.895
1.105
0.63
0.02
-0.48
-0.02
0.125
0.155
0.33
0.375
0.73
0.99
0.505
-0.085
-0.56
-0.155
0.07
0.19
0.405
0.385
0.885
0.965
0.425
-0.075
-0.66
-0.075
0.055
0.19
0.385
0.465
0.905
0.91
0.425
-0.085
-0.62
-0.03
0.195
0.31
0.41
0.395
0.98
0.96
0.44
-0.135
-0.64
-0.055
0.15
0.25
0.38
0.475
1.07
0.93
0.42
-0.15
-0.685
-0.01
0.175
0.235
0.34
0.47
1.175
1.075
0.655
0.245
-0.065
0.65
0.865
1.095
1.295
1.325
1.76
1.575
0.97
0.365
-0.26
0.105
0.02
0.2
0.205
0.375
1.09
0.785
0.27
-0.2
-0.49
0.035
0.075
0.405
0.48
0.49
1.165
0.865
0.215
-0.375
-0.465
0.12
0.09
0.43
0.52
0.51
1.24
0.84
0.26
-0.37
-0.25
0.155
0.13
0.57
0.56
0.595
1.26
0.8
0.245
-0.41
-0.225
0.17
0.205
0.57
0.6
0.685
1.25
0.855
0.165
-0.4
-0.195
0.2
0.25
0.575
0.555
0.765
1.255
0.805
0.125
-0.39
-0.08
0.25
0.31
0.57
0.575
0.835
1.27
0.785
0.215
-0.33
0.025
0.35
0.375
0.635
0.745
1.04
1.295
0.825
0.195
-0.36
0.06
0.365
0.49
0.74
0.83
1.19
1.245
0.75
0.275
-0.215
0.155
0.41
0.515
0.765
0.77
1.26
1.35
0.87
0.32
-0.2
0.32
0.57
0.62
0.77
0.86
1.42
1.445
0.935
0.36
-0.145
0.39
0.635
0.73
0.815
0.915
1.445
1.405
0.935
0.35
-0.13
0.38
0.59
0.78
0.81
0.86
1.485
1.31
0.79
0.2
-0.32
0.28
0.47
0.595
0.695
0.695
1.31
1.155
0.635
0.135
-0.45
0.175
0.235
0.43
0.54
0.645
1.28
1.01
0.485
-0.02
-0.485
0.165
0.22
0.44
0.505
0.515
1.225
0.98
0.375
-0.125
-0.455
0.125
0.175
0.475
0.53
0.57
1.28
1.0
0.325
-0.255
-0.415
0.195
0.2
0.52
0.57
0.555
1.215
0.92
0.29
-0.335
-0.295
0.14
0.1
0.56
0.595
0.66
1.29
0.97
0.235
-0.33
-0.265
0.2
0.155
0.585
0.59
0.64
1.265
0.885
0.255
-0.285
-0.13
0.25
0.205
0.635
0.605
0.725
1.305
0.81
0.225
-0.385
-0.09
0.25
0.34
0.71
0.66
0.875
1.245
0.75
0.145
-0.48
-0.035
0.25
0.3
0.58
0.755
0.895
1.165
0.695
0.07
-0.44
-0.025
0.245
0.205
0.455
0.55
0.985
1.175
0.61
0.04
-0.425
0.04
0.22
0.31
0.515
0.48
0.94
1.07
0.595
0.015
-0.54
-0.03
0.215
0.28
0.475
0.535
0.995
0.995
0.6
0.0
-0.52
-0.02
0.14
0.265
0.495
0.55
1.11
1.04
0.535
0.0
-0.565
0.025
0.235
0.315
0.47
0.6
1.075
0.93
0.495
-0.04
-0.49
0.195
0.395
0.67
0.965
1.25
1.915
1.795
1.315
0.665
0.09
0.74
0.825
0.855
0.835
0.64
1.09
0.85
0.315
-0.095
-0.6
0.01
0.145
0.36
0.495
0.605
1.32
1.095
0.525
0.04
-0.375
0.115
0.115
0.405
0.525
0.58
1.235
1.01
0.495
-0.135
-0.41
0.15
0.125
0.505
0.62
0.57
1.25
0.96
0.345
-0.26
-0.285
0.205
0.185
0.615
0.63
0.615
1.29
0.97
0.29
-0.31
-0.33
0.24
0.18
0.6
0.565
0.625
1.34
0.92
0.255
-0.34
-0.23
0.205
0.22
0.635
0.655
0.81
1.275
0.885
0.21
-0.355
-0.125
0.24
0.28
0.61
0.665
0.87
1.31
0.835
0.235
-0.355
0.025
0.265
0.305
0.635
0.7
1.02
1.36
0.835
0.32
-0.295
0.115
0.39
0.395
0.675
0.7
1.165
1.38
0.895
0.215
-0.27
0.21
0.48
0.645
0.69
0.88
1.24
1.445
0.915
0.405
-0.19
0.415
0.5
0.63
0.805
0.895
1.41
1.45
0.82
0.31
-0.215
0.415
0.545
0.575
0.855
0.89
1.335
1.32
0.825
0.2
-0.315
0.285
0.375
0.47
0.605
0.62
1.16
1.18
0.675
0.13
-0.51
0.115
0.255
0.37
0.49
0.595
1.19
1.045
0.57
-0.01
-0.415
0.07
0.19
0.33
0.505
0.53
1.185
1.005
0.44
0.01
-0.49
0.07
0.205
0.35
0.48
0.535
1.19
0.965
0.435
-0.065
-0.535
0.07
0.16
0.4
0.48
0.53
1.24
0.96
0.4
-0.205
-0.625
0.12
0.075
0.315
0.535
0.57
1.19
0.93
0.325
-0.315
-0.425
0.15
0.13
0.52
0.555
0.525
1.205
0.875
0.27
-0.325
-0.365
0.245
0.225
0.51
0.555
0.615
1.275
0.91
0.24
-0.29
-0.235
0.2
0.13
0.57
0.675
0.715
1.27
0.915
0.2
-0.415
-0.165
0.3
0.29
0.58
0.5
0.64
1.28
0.765
0.105
-0.485
-0.2
0.105
0.095
0.505
0.525
0.81
1.185
0.68
0.07
-0.5
-0.13
0.12
0.2
0.45
0.47
0.895
1.17
0.605
-0.06
-0.465
-0.125
0.08
0.215
0.485
0.545
0.95
1.065
0.55
-0.02
-0.57
-0.12
0.12
0.235
0.425
0.48
1.015
0.975
0.435
-0.085
-0.535
-0.075
0.18
0.27
0.445
0.525
1.07
1.055
0.495
-0.045
-0.535
0.05
0.4
0.505
0.785
1.0
1.64
1.61
1.235
0.66
0.19
0.675
0.815
0.855
0.98
0.855
1.23
0.995
0.435
-0.06
-0.53
0.01
0.21
0.31
0.5
0.61
1.185
0.995
0.495
-0.045
-0.51
0.11
0.23
0.375
0.5
0.605
1.245
1.055
0.485
-0.06
-0.535
0.1
0.18
0.34
0.51
0.585
1.2
0.995
0.45
-0.035
-0.435
0.1
0.14
0.385
0.54
0.605
1.25
0.97
0.375
-0.27
-0.46
0.17
0.14
0.505
0.585
0.54
1.24
0.885
0.275
-0.385
-0.43
0.215
0.165
0.58
0.615
0.635
1.305
0.95
0.32
-0.295
-0.255
0.22
0.2
0.645
0.71
0.66
1.3
0.935
0.31
-0.29
-0.11
0.285
0.285
0.635
0.66
0.8
1.36
0.955
0.36
-0.24
-0.035
0.31
0.375
0.745
0.75
0.98
1.405
0.925
0.355
-0.205
0.08
0.42
0.495
0.785
0.815
1.16
1.505
1.01
0.395
-0.18
0.23
0.5
0.575
0.825
0.865
1.29
1.535
0.94
0.365
-0.16
0.285
0.5
0.585
0.825
0.825
1.265
1.395
0.855
0.255
-0.26
0.235
0.38
0.45
0.685
0.685
1.04
1.17
0.665
0.055
-0.385
-0.015
0.23
0.275
0.51
0.49
1.07
1.075
0.455
-0.03
-0.56
-0.05
0.18
0.24
0.455
0.48
1.02
0.93
0.46
-0.175
-0.635
-0.04
0.1
0.215
0.38
0.42
1.05
0.885
0.37
-0.125
-0.625
-0.01
0.16
0.27
0.42
0.465
1.095
0.89
0.36
-0.155
-0.635
-0.02
0.095
0.255
0.375
0.475
1.13
0.885
0.375
-0.1
-0.575
0.055
0.08
0.325
0.42
0.49
1.145
0.865
0.33
-0.225
-0.555
0.085
0.105
0.395
0.475
0.515
1.19
0.91
0.275
-0.375
-0.485
0.1
0.06
0.47
0.49
0.5
1.135
0.815
0.13
-0.42
-0.47
0.02
0.005
0.445
0.39
0.415
1.075
0.725
0.01
-0.56
-0.445
-0.02
-0.015
0.33
0.34
0.445
0.995
0.59
-0.06
-0.64
-0.425
-0.065
-0.075
0.315
0.36
0.55
0.91
0.455
-0.12
-0.705
-0.415
-0.105
-0.035
0.275
0.245
0.575
0.875
0.44
-0.215
-0.73
-0.42
-0.105
-0.025
0.235
0.275
0.63
0.825
0.37
-0.275
-0.75
-0.365
-0.125
-0.015
0.245
0.275
0.675
0.78
0.25
-0.26
-0.745
-0.22
0.135
0.315
0.685
0.895
1.375
1.505
1.04
0.425
-0.16
0.36
0.515
0.47
0.54
0.335
0.705
0.635
0.13
-0.335
-0.835
-0.28
-0.175
0.01
0.22
0.315
0.895
0.765
0.255
-0.31
-0.775
-0.17
-0.015
0.045
0.19
0.28
0.88
0.74
0.215
-0.275
-0.82
-0.205
-0.06
0.08
0.225
0.27
0.895
0.72
0.25
-0.33
-0.785
-0.235
-0.04
0.06
0.2
0.31
0.975
0.675
0.195
-0.28
-0.82
-0.19
-0.13
0.105
0.205
0.275
0.965
0.74
0.18
-0.325
-0.765
-0.125
-0.085
0.195
0.37
0.2
0.94
0.665
0.1
-0.555
-0.705
-0.1
-0.135
0.245
0.275
0.28
1.045
0.68
0.035
-0.525
-0.565
-0.055
-0.11
0.305
0.345
0.33
1.03
0.685
0.045
-0.555
-0.47
-0.005
-0.025
0.365
0.395
0.435
1.12
0.715
0.115
-0.505
-0.33
0.06
0.12
0.445
0.45
0.595
1.19
0.72
0.13
-0.475
-0.205
0.19
0.32
0.54
0.54
0.72
1.14
0.7
0.09
-0.485
-0.135
0.1
0.19
0.465
0.575
0.77
1.115
0.61
-0.025
-0.59
-0.225
0.055
0.125
0.345
0.355
0.7
0.965
0.295
-0.21
-0.745
-0.34
-0.09
-0.015
0.145
0.225
0.615
0.745
0.24
-0.275
-0.835
-0.345
-0.16
-0.12
0.11
0.21
0.68
0.63
0.12
-0.375
-0.95
-0.39
-0.205
-0.11
0.09
0.155
0.715
0.645
0.09
-0.405
-0.855
-0.3
-0.21
-0.085
0.075
0.07
0.75
0.645
0.085
-0.405
-0.94
-0.345
-0.12
-0.005
0.0
0.085
0.7
0.58
0.08
-0.415
-0.85
-0.3
-0.145
-0.075
0.05
0.155
0.785
0.61
0.11
-0.36
-0.85
-0.295
-0.215
-0.01
0.145
0.21
0.875
0.66
0.14
-0.35
-0.795
-0.18
-0.11
0.1
0.205
0.28
0.945
0.74
0.16
-0.43
-0.81
-0.155
-0.175
0.125
0.26
0.27
0.905
0.66
0.09
-0.695
-0.855
-0.225
-0.235
0.155
0.175
0.19
0.885
0.52
-0.17
-0.78
-0.685
-0.25
-0.185
0.215
0.12
0.13
0.845
0.46
-0.23
-0.84
-0.67
-0.255
-0.27
0.16
0.215
0.26
0.805
0.34
-0.25
-0.84
-0.645
-0.3
-0.27
0.14
0.1
0.275
0.81
0.375
-0.3
-0.875
-0.57
-0.245
-0.19
0.125
0.175
0.425
0.78
0.275
-0.325
-0.875
-0.52
-0.28
-0.175
0.185
0.235
0.675
1.12
0.65
0.28
-0.18
0.31
0.615
0.735
0.94
0.87
1.325
1.375
0.765
-0.055
-0.845
-0.455
-0.25
-0.165
0.03
0.055
0.545
0.665
0.175
-0.355
-0.86
-0.375
-0.15
-0.055
0.105
0.19
0.67
0.645
0.18
-0.35
-0.87
-0.37
-0.15
-0.075
0.13
0.205
0.76
0.685
0.1
-0.335
-0.9
-0.295
-0.135
0.03
0.165
0.215
0.83
0.65
0.195
-0.33
-0.9
-0.295
-0.12
-0.03
0.12
0.23
0.88
0.71
0.13
-0.33
-0.85
-0.24
-0.145
0.13
0.115
0.245
0.96
0.705
0.175
-0.31
-0.72
-0.08
-0.115
0.055
0.225
0.33
1.065
0.75
0.2
-0.255
-0.71
-0.065
-0.045
0.25
0.4
0.475
1.04
0.75
0.215
-0.425
-0.6
-0.015
0.005
0.43
0.44
0.465
1.175
0.895
0.265
-0.41
-0.54
0.085
0.095
0.515
0.55
0.54
1.22
0.86
0.225
-0.315
-0.235
0.185
0.165
0.6
0.52
0.635
1.305
0.975
0.215
-0.38
-0.205
0.19
0.245
0.585
0.685
0.665
1.26
0.76
0.145
-0.415
-0.16
0.21
0.245
0.5
0.505
0.625
1.07
0.57
-0.04
-0.55
-0.345
-0.025
-0.01
0.3
0.315
0.645
0.965
0.365
-0.24
-0.79
-0.38
-0.175
-0.065
0.19
0.205
0.515
0.775
0.195
-0.275
-0.83
-0.445
-0.24
-0.115
0.125
0.155
0.65
0.715
0.27
-0.395
-0.885
-0.43
-0.2
-0.06
0.16
0.135
0.64
0.72
0.235
-0.33
-0.84
-0.335
-0.13
-0.01
0.13
0.14
0.745
0.685
0.225
-0.305
-0.83
-0.29
-0.115
0.0
0.235
0.26
0.87
0.79
0.28
-0.28
-0.775
-0.16
0.055
0.15
0.28
0.325
0.925
0.815
0.3
-0.185
-0.665
-0.075
0.025
0.19
0.37
0.5
1.03
0.82
0.33
-0.21
-0.67
-0.01
0.115
0.305
0.32
0.495
1.065
0.84
0.26
-0.16
-0.71
-0.11
-0.07
0.125
0.215
0.31
0.975
0.695
0.08
-0.45
-0.825
-0.155
-0.155
0.135
0.2
0.26
0.945
0.655
0.045
-0.56
-0.68
-0.095
-0.105
0.295
0.305
0.35
1.015
0.645
-0.04
-0.615
-0.59
-0.125
-0.18
0.22
0.21
0.285
1.0
0.54
-0.025
-0.72
-0.595
-0.115
-0.12
0.34
0.32
0.38
0.96
0.57
-0.095
-0.685
-0.48
-0.1
-0.095
0.29
0.28
0.435
0.945
0.425
-0.185
-0.74
-0.345
0.08
0.295
0.655
0.81
1.145
1.655
1.245
0.635
0.055
0.455
0.69
0.72
0.9
0.745
0.82
0.95
0.36
-0.2
-0.75
-0.32
-0.005
0.04
0.3
0.375
0.805
0.985
0.47
-0.14
-0.74
-0.19
-0.015
0.03
0.25
0.3
0.83
0.885
0.32
-0.22
-0.705
-0.16
0.04
0.145
0.3
0.4
0.895
0.86
0.39
-0.15
-0.7
-0.2
0.025
0.09
0.245
0.34
0.87
0.8
0.38
-0.2
-0.67
-0.15
-0.03
0.145
0.32
0.335
0.83
0.73
0.31
-0.205
-0.615
-0.12
0.045
0.125
0.27
0.325
0.935
0.785
0.265
-0.255
-0.63
-0.125
-0.04
0.135
0.27
0.42
0.99
0.795
0.265
-0.2
-0.63
-0.06
0.025
0.18
0.315
0.405
1.085
0.86
0.29
-0.15
-0.625
0.01
0.055
0.29
0.425
0.455
1.095
0.905
0.34
-0.295
-0.595
0.085
0.05
0.415
0.48
0.475
1.195
0.9
0.345
-0.23
-0.395
0.155
0.1
0.545
0.53
0.57
1.29
0.845
0.245
-0.315
-0.25
0.2
0.165
0.625
0.565
0.56
1.235
0.84
0.17
-0.475
-0.37
0.025
0.065
0.47
0.47
0.535
1.13
0.615
-0.055
-0.66
-0.38
-0.01
0.01
0.355
0.29
0.475
0.955
0.535
-0.075
-0.7
-0.465
-0.17
-0.08
0.255
0.305
0.54
0.925
0.345
-0.22
-0.78
-0.365
-0.085
-0.065
0.195
0.255
0.62
0.895
0.33
-0.275
-0.815
-0.32
-0.1
-0.045
0.145
0.22
0.715
0.83
0.335
-0.29
-0.82
-0.305
-0.07
-0.06
0.15
0.215
0.76
0.795
0.255
-0.35
-0.82
-0.325
-0.06
0.015
0.2
0.255
0.74
0.705
0.235
-0.3
-0.81
-0.255
-0.065
0.05
0.225
0.28
0.815
0.77
0.26
-0.25
-0.765
-0.27
-0.05
0.075
0.23
0.32
0.91
0.765
0.23
-0.33
-0.795
-0.255
-0.13
0.03
0.205
0.26
0.835
0.715
0.21
-0.42
-0.92
-0.26
-0.135
-0.01
0.135
0.18
0.83
0.59
0.115
-0.385
-0.865
-0.245
-0.22
-0.085
0.09
0.205
0.835
0.565
-0.005
-0.475
-0.89
-0.265
-0.205
-0.005
0.17
0.195
0.865
0.59
0.045
-0.67
-0.885
-0.255
-0.25
0.09
0.165
0.2
0.835
0.525
-0.135
-0.73
-0.73
-0.195
-0.215
0.17
0.18
0.205
0.875
0.53
-0.145
-0.75
-0.64
-0.15
-0.07
0.485
0.625
0.775
1.54
1.25
0.665
0.095
0.23
0.705
0.66
0.925
0.785
0.825
1.145
0.45
-0.26
-0.85
-0.575
-0.22
-0.16
0.245
0.27
0.485
0.94
0.45
-0.19
-0.69
-0.35
-0.12
-0.08
0.2
0.225
0.575
0.915
0.39
-0.205
-0.8
-0.395
-0.16
-0.015
0.195
0.235
0.635
0.875
0.42
-0.285
-0.785
-0.335
-0.12
-0.025
0.175
0.26
0.73
0.825
0.27
-0.26
-0.765
-0.27
-0.075
0.03
0.23
0.33
0.765
0.835
0.29
-0.25
-0.765
-0.25
-0.025
0.055
0.23
0.28
0.855
0.785
0.29
-0.225
-0.66
-0.24
-0.01
0.13
0.225
0.28
0.89
0.78
0.35
-0.24
-0.755
-0.135
0.03
0.15
0.315
0.355
0.995
0.855
0.335
-0.17
-0.68
-0.105
0.09
0.23
0.375
0.445
1.13
0.925
0.35
-0.14
-0.56
0.04
0.135
0.345
0.45
0.485
1.24
0.945
0.49
-0.015
-0.57
0.11
0.185
0.435
0.55
0.6
1.255
0.99
0.465
-0.16
-0.45
0.21
0.14
0.425
0.53
0.57
1.275
0.895
0.255
-0.36
-0.46
0.085
0.05
0.335
0.345
0.42
1.115
0.7
0.035
-0.59
-0.555
-0.03
-0.065
0.32
0.325
0.35
0.955
0.56
-0.17
-0.7
-0.535
-0.115
-0.13
0.25
0.265
0.23
0.895
0.485
-0.205
-0.75
-0.555
-0.225
-0.1
0.25
0.235
0.33
0.915
0.42
-0.18
-0.77
-0.46
-0.195
-0.145
0.175
0.18
0.49
0.895
0.42
-0.225
-0.735
-0.45
-0.155
-0.095
0.175
0.215
0.535
0.87
0.31
-0.215
-0.8
-0.405
-0.17
-0.045
0.175
0.225
0.65
0.82
0.355
-0.26
-0.755
-0.3
-0.05
0.075
0.235
0.285
0.695
0.765
0.32
-0.245
-0.745
-0.25
0.025
0.05
0.24
0.35
0.805
0.79
0.28
-0.215
-0.73
-0.17
0.045
0.12
0.27
0.32
0.82
0.725
0.26
-0.21
-0.79
-0.27
-0.065
0.0
0.175
0.275
0.855
0.71
0.22
-0.35
-0.81
-0.245
-0.06
0.035
0.145
0.15
0.79
0.725
0.18
-0.39
-0.905
-0.27
-0.11
0.02
0.135
0.24
0.87
0.675
0.14
-0.415
-0.835
-0.26
-0.16
0.03
0.145
0.155
0.855
0.635
0.115
-0.385
-0.85
-0.195
-0.23
0.09
0.225
0.29
0.925
0.595
-0.04
-0.6
-0.79
-0.2
-0.235
0.13
0.215
0.265
0.925
0.565
-0.05
-0.62
-0.615
0.0
0.1
0.67
0.7
0.8
1.53
1.24
0.575
-0.12
-0.085
0.385
0.26
0.53
0.38
0.225
0.89
0.52
-0.05
-0.78
-0.565
-0.185
-0.155
0.285
0.31
0.41
0.945
0.53
-0.085
-0.685
-0.405
-0.05
-0.065
0.245
0.255
0.485
0.94
0.47
-0.155
-0.73
-0.36
-0.05
0.01
0.27
0.35
0.635
0.935
0.38
-0.175
-0.77
-0.345
0.005
0.04
0.26
0.31
0.665
0.915
0.415
-0.15
-0.69
-0.28
-0.035
0.01
0.26
0.34
0.765
0.895
0.39
-0.15
-0.705
-0.195
0.05
0.14
0.315
0.37
0.845
0.92
0.375
-0.135
-0.695
-0.17
0.075
0.125
0.31
0.36
0.9
0.89
0.335
-0.135
-0.655
-0.055
0.075
0.205
0.385
0.44
1.01
0.94
0.44
-0.11
-0.635
-0.035
0.16
0.28
0.46
0.525
1.115
0.94
0.46
-0.02
-0.495
0.08
0.235
0.355
0.505
0.58
1.23
1.05
0.54
0.045
-0.48
0.15
0.295
0.435
0.555
0.63
1.27
1.065
0.535
0.015
-0.445
0.155
0.2
0.425
0.55
0.615
1.265
0.98
0.37
-0.165
-0.56
0.04
0.015
0.41
0.49
0.465
1.015
0.775
0.215
-0.47
-0.625
-0.075
-0.06
0.32
0.35
0.36
1.02
0.69
0.09
-0.545
-0.585
-0.045
-0.095
0.275
0.3
0.33
1.0
0.645
-0.085
-0.67
-0.505
-0.09
-0.12
0.31
0.295
0.33
1.005
0.625
-0.03
-0.68
-0.495
-0.085
-0.06
0.31
0.295
0.45
1.005
0.575
-0.06
-0.71
-0.44
-0.115
-0.01
0.305
0.305
0.535
0.975
0.475
-0.11
-0.71
-0.33
-0.06
0.015
0.31
0.34
0.645
0.99
0.485
-0.095
-0.66
-0.235
0.015
0.08
0.32
0.37
0.76
0.975
0.47
-0.085
-0.645
-0.185
0.05
0.155
0.385
0.44
0.87
0.97
0.44
-0.105
-0.64
-0.155
0.085
0.18
0.37
0.435
0.9
0.905
0.405
-0.165
-0.68
-0.15
0.045
0.14
0.325
0.395
0.92
0.845
0.32
-0.205
-0.72
-0.185
0.0
0.1
0.265
0.325
0.895
0.79
0.28
-0.24
-0.75
-0.15
0.0
0.16
0.24
0.305
0.915
0.75
0.23
-0.28
-0.745
-0.135
0.02
0.1
0.21
0.34
0.985
0.755
0.175
-0.275
-0.785
-0.185
-0.055
0.135
0.235
0.29
0.965
0.75
0.225
-0.22
-0.78
-0.12
-0.04
0.19
0.275
0.32
0.995
0.805
0.21
-0.32
-0.56
0.14
0.275
0.67
0.825
0.895
1.585
1.25
0.555
-0.09
-0.145
0.31
0.235
0.49
0.36
0.335
1.02
0.69
-0.015
-0.605
-0.585
-0.08
-0.1
0.36
0.39
0.45
1.0
0.64
0.015
-0.595
-0.485
-0.075
-0.065
0.33
0.37
0.405
1.05
0.59
-0.04
-0.64
-0.385
-0.02
0.015
0.37
0.38
0.525
1.035
0.575
-0.1
-0.665
-0.31
0.015
0.065
0.345
0.41
0.655
1.005
0.53
-0.035
-0.605
-0.245
0.0
0.08
0.325
0.405
0.735
1.02
0.515
-0.045
-0.61
-0.205
0.015
0.115
0.38
0.42
0.815
0.99
0.515
-0.09
-0.65
-0.125
0.04
0.17
0.37
0.425
0.955
1.015
0.51
-0.05
-0.63
-0.11
0.135
0.24
0.4
0.505
1.015
1.01
0.53
-0.03
-0.525
0.005
0.21
0.315
0.48
0.555
1.12
1.075
0.565
0.025
-0.46
0.07
0.265
0.4
0.575
0.615
1.235
1.12
0.59
0.09
-0.41
0.175
0.345
0.42
0.565
0.635
1.26
1.045
0.555
0.08
-0.445
0.17
0.28
0.405
0.515
0.585
1.22
0.995
0.475
-0.115
-0.595
0.035
0.095
0.28
0.395
0.43
1.095
0.88
0.34
-0.16
-0.685
-0.095
-0.05
0.205
0.35
0.36
1.015
0.695
0.135
-0.435
-0.685
-0.085
-0.075
0.25
0.305
0.35
1.02
0.675
0.055
-0.545
-0.65
-0.08
-0.12
0.28
0.305
0.32
1.0
0.65
0.035
-0.595
-0.535
-0.075
-0.135
0.31
0.325
0.325
0.97
0.595
-0.045
-0.645
-0.495
-0.085
-0.06
0.305
0.3
0.43
0.985
0.555
-0.085
-0.66
-0.415
-0.06
0.005
0.325
0.395
0.51
0.99
0.54
-0.07
-0.63
-0.305
-0.06
0.0
0.32
0.395
0.68
1.02
0.5
-0.09
-0.64
-0.215
0.02
0.11
0.37
0.37
0.725
1.005
0.525
-0.095
-0.605
-0.19
0.07
0.12
0.38
0.385
0.82
0.945
0.435
-0.14
-0.71
-0.23
0.0
0.095
0.305
0.335
0.8
0.87
0.355
-0.22
-0.74
-0.24
-0.03
0.085
0.265
0.32
0.81
0.805
0.335
-0.205
-0.76
-0.215
-0.01
0.085
0.24
0.29
0.855
0.785
0.29
-0.27
-0.78
-0.175
-0.025
0.09
0.265
0.34
0.87
0.72
0.22
-0.29
-0.76
-0.155
-0.02
0.05
0.275
0.28
0.945
0.735
0.2
-0.305
-0.735
-0.17
0.0
0.16
0.26
0.325
0.995
0.78
0.305
-0.145
-0.56
0.155
0.33
0.605
0.725
0.85
1.515
1.23
0.59
0.14
-0.29
0.255
0.245
0.36
0.38
0.32
0.995
0.7
0.115
-0.535
-0.715
-0.08
-0.075
0.3
0.325
0.355
1.05
0.72
0.105
-0.555
-0.585
-0.055
-0.085
0.315
0.345
0.36
1.01
0.68
0.025
-0.585
-0.5
-0.045
-0.105
0.375
0.335
0.4
1.065
0.665
-0.005
-0.595
-0.46
-0.055
-0.065
0.35
0.37
0.505
1.07
0.6
-0.04
-0.62
-0.325
-0.015
0.01
0.355
0.39
0.605
1.065
0.565
-0.04
-0.595
-0.24
0.025
0.075
0.39
0.425
0.71
1.035
0.545
-0.04
-0.58
-0.24
0.02
0.135
0.42
0.405
0.81
1.045
0.555
-0.025
-0.555
-0.11
0.09
0.17
0.405
0.48
0.955
1.06
0.56
-0.01
-0.505
-0.05
0.145
0.255
0.51
0.545
1.03
1.085
0.58
0.04
-0.475
0.06
0.265
0.385
0.59
0.64
1.14
1.12
0.585
0.085
-0.425
0.09
0.32
0.39
0.575
0.62
1.185
1.075
0.605
0.095
-0.395
0.1
0.275
0.39
0.52
0.575
1.185
0.985
0.445
-0.09
-0.56
-0.015
0.135
0.29
0.43
0.465
1.03
0.815
0.305
-0.165
-0.67
-0.095
-0.035
0.145
0.275
0.355
1.01
0.77
0.255
-0.265
-0.765
-0.14
-0.065
0.165
0.24
0.355
0.99
0.73
0.18
-0.41
-0.74
-0.115
-0.09
0.215
0.255
0.295
1.005
0.77
0.04
-0.56
-0.69
-0.11
-0.145
0.275
0.295
0.33
1.02
0.65
0.005
-0.58
-0.61
-0.08
-0.115
0.295
0.32
0.345
1.01
0.615
-0.085
-0.645
-0.515
-0.1
-0.125
0.29
0.32
0.405
1.02
0.6
-0.09
-0.71
-0.45
-0.055
-0.02
0.31
0.325
0.49
1.055
0.52
-0.085
-0.68
-0.335
0.015
0.04
0.33
0.37
0.615
1.015
0.52
-0.09
-0.675
-0.28
0.01
0.135
0.345
0.39
0.745
1.02
0.5
-0.06
-0.63
-0.185
0.04
0.08
0.29
0.335
0.765
0.955
0.43
-0.19
-0.65
-0.245
0.02
0.065
0.29
0.33
0.805
0.86
0.345
-0.195
-0.715
-0.265
-0.075
0.03
0.255
0.27
0.79
0.79
0.305
-0.23
-0.735
-0.225
0.0
0.04
0.24
0.28
0.83
0.705
0.235
-0.305
-0.77
-0.15
-0.045
0.035
0.205
0.27
0.85
0.735
0.25
-0.265
-0.745
-0.17
-0.06
0.05
0.225
0.28
0.94
0.72
0.23
-0.27
-0.77
-0.18
0.01
0.13
0.25
0.37
1.06
0.865
0.405
0.005
-0.42
0.26
0.38
0.595
0.675
0.695
1.345
1.085
0.52
0.04
-0.455
-0.005
-0.095
0.165
0.29
0.295
0.905
0.68
0.125
-0.46
-0.715
-0.1
-0.12
0.23
0.305
0.36
1.02
0.66
0.06
-0.58
-0.625
-0.13
-0.17
0.26
0.33
0.32
1.01
0.66
0.06
-0.58
-0.54
-0.105
-0.14
0.295
0.315
0.35
0.975
0.6
-0.045
-0.64
-0.475
-0.055
-0.045
0.345
0.295
0.445
1.025
0.58
-0.06
-0.635
-0.38
-0.06
-0.005
0.32
0.38
0.575
1.025
0.52
-0.085
-0.65
-0.325
-0.015
0.06
0.39
0.405
0.685
1.02
0.475
-0.115
-0.695
-0.245
0.005
0.1
0.36
0.385
0.795
1.025
0.51
-0.09
-0.645
-0.18
0.07
0.195
0.42
0.455
0.87
1.05
0.5
-0.035
-0.58
-0.095
0.17
0.25
0.44
0.51
1.0
1.045
0.53
-0.02
-0.53
0.0
0.21
0.315
0.51
0.565
1.08
1.05
0.585
0.04
-0.465
0.105
0.275
0.295
0.485
0.575
1.145
1.07
0.545
0.025
-0.495
0.045
0.21
0.285
0.44
0.495
1.12
0.96
0.44
-0.135
-0.655
-0.11
0.085
0.2
0.33
0.38
0.995
0.805
0.265
-0.28
-0.755
-0.145
-0.015
0.175
0.25
0.35
1.03
0.765
0.165
-0.31
-0.8
-0.18
-0.11
0.08
0.195
0.285
0.98
0.7
0.105
-0.415
-0.765
-0.15
-0.145
0.17
0.285
0.3
0.98
0.635
-0.02
-0.58
-0.745
-0.155
-0.15
0.21
0.26
0.275
0.96
0.61
-0.01
-0.625
-0.635
-0.095
-0.15
0.245
0.275
0.25
0.96
0.635
-0.09
-0.685
-0.58
-0.125
-0.125
0.275
0.255
0.29
0.945
0.58
-0.095
-0.72
-0.525
-0.13
-0.13
0.24
0.265
0.43
0.975
0.495
-0.16
-0.735
-0.44
-0.09
-0.025
0.21
0.27
0.505
0.935
0.435
-0.2
-0.765
-0.37
0.03
-0.035
0.155
0.24
0.585
0.92
0.405
-0.175
-0.705
-0.33
-0.085
0.0
0.235
0.285
0.695
0.905
0.385
-0.135
-0.715
-0.23
-0.08
0.05
0.31
0.36
0.81
0.89
0.39
-0.16
-0.725
-0.195
0.02
0.075
0.285
0.36
0.84
0.845
0.285
-0.24
-0.765
-0.21
-0.045
0.065
0.26
0.315
0.85
0.805
0.21
-0.28
-0.77
-0.295
-0.115
-0.03
0.165
0.255
0.815
0.73
0.225
-0.31
-0.84
-0.24
-0.06
0.075
0.195
0.275
0.85
0.69
0.185
-0.35
-0.85
-0.25
-0.08
0.04
0.185
0.25
0.89
0.705
0.16
-0.37
-0.825
-0.215
-0.115
0.07
0.18
0.255
0.935
0.67
0.125
-0.315
-0.83
-0.215
-0.195
0.085
0.24
0.31
0.985
0.7
0.1
-0.47
-0.665
-0.04
0.005
0.475
0.595
0.665
1.38
1.13
0.455
-0.14
-0.315
0.235
0.225
0.54
0.545
0.395
0.995
0.61
-0.045
-0.695
-0.645
-0.145
-0.155
0.265
0.28
0.31
0.97
0.605
-0.06
-0.72
-0.545
-0.1
-0.06
0.305
0.255
0.37
0.975
0.53
-0.11
-0.7
-0.425
-0.06
-0.03
0.29
0.275
0.435
0.95
0.465
-0.14
-0.72
-0.38
-0.11
-0.065
0.28
0.375
0.595
0.95
0.46
-0.13
-0.7
-0.355
-0.06
0.04
0.3
0.35
0.715
0.95
0.39
-0.18
-0.73
-0.26
-0.025
0.04
0.275
0.345
0.79
0.91
0.415
-0.19
-0.71
-0.175
0.065
0.115
0.31
0.37
0.86
0.84
0.38
-0.17
-0.68
-0.17
0.07
0.16
0.33
0.395
0.935
0.92
0.425
-0.085
-0.65
-0.1
0.115
0.175
0.355
0.455
1.01
0.955
0.43
-0.105
-0.595
0.0
0.195
0.3
0.46
0.505
1.11
0.94
0.46
-0.055
-0.545
0.075
0.255
0.36
0.485
0.54
1.2
0.975
0.445
-0.035
-0.495
0.085
0.2
0.34
0.5
0.535
1.175
0.945
0.415
-0.095
-0.605
0.03
0.035
0.26
0.36
0.44
1.095
0.845
0.24
-0.255
-0.685
-0.065
-0.13
0.235
0.29
0.26
0.97
0.715
0.105
-0.53
-0.745
-0.155
-0.165
0.2
0.255
0.265
0.92
0.575
-0.045
-0.65
-0.66
-0.14
-0.165
0.26
0.245
0.285
0.93
0.585
-0.1
-0.71
-0.615
-0.155
-0.16
0.255
0.235
0.295
0.9
0.53
-0.14
-0.735
-0.51
-0.165
-0.145
0.265
0.255
0.375
0.935
0.44
-0.18
-0.74
-0.49
-0.125
-0.07
0.245
0.265
0.515
0.9
0.37
-0.185
-0.785
-0.415
-0.12
-0.05
0.225
0.25
0.575
0.895
0.385
-0.2
-0.77
-0.38
-0.11
-0.01
0.21
0.215
0.66
0.885
0.34
-0.25
-0.81
-0.345
-0.11
-0.015
0.205
0.24
0.71
0.805
0.305
-0.26
-0.795
-0.34
-0.105
-0.01
0.16
0.25
0.75
0.78
0.26
-0.305
-0.805
-0.285
-0.075
0.0
0.205
0.265
0.8
0.685
0.245
-0.34
-0.825
-0.255
-0.055
0.025
0.2
0.25
0.86
0.66
0.18
-0.285
-0.885
-0.275
-0.09
0.02
0.18
0.25
0.865
0.675
0.195
-0.32
-0.795
-0.21
-0.07
0.075
0.21
0.28
0.92
0.725
0.175
-0.295
-0.78
-0.14
-0.05
0.14
0.22
0.29
0.95
0.73
0.165
-0.32
-0.775
-0.155
-0.115
0.135
0.25
0.285
0.97
0.69
0.07
-0.585
-0.835
-0.205
-0.21
0.135
0.215
0.23
0.895
0.585
-0.04
-0.645
-0.805
-0.235
-0.215
0.185
0.16
0.21
0.855
0.5
-0.11
-0.715
-0.69
-0.205
-0.215
0.25
0.26
0.185
0.885
0.52
-0.17
-0.785
-0.63
-0.2
-0.19
0.225
0.26
0.345
0.89
0.41
-0.225
-0.825
-0.565
-0.175
-0.175
0.185
0.215
0.405
0.86
0.375
-0.215
-0.775
-0.425
-0.115
-0.07
0.18
0.245
0.61
1.02
0.565
0.01
-0.455
-0.04
0.315
0.46
0.725
0.745
1.04
1.255
0.7
0.0
-0.575
-0.28
-0.175
-0.13
0.135
0.165
0.585
0.74
0.28
-0.265
-0.81
-0.31
-0.09
0.01
0.225
0.255
0.755
0.845
0.295
-0.27
-0.81
-0.295
-0.09
0.02
0.21
0.275
0.76
0.73
0.26
-0.28
-0.79
-0.23
-0.065
0.045
0.215
0.28
0.835
0.755
0.26
-0.325
-0.82
-0.215
-0.05
0.025
0.205
0.285
0.895
0.75
0.23
-0.295
-0.79
-0.215
0.04
0.06
0.225
0.275
0.93
0.745
0.215
-0.27
-0.755
-0.125
0.015
0.125
0.285
0.275
0.94
0.72
0.21
-0.27
-0.73
-0.095
-0.05
0.13
0.26
0.33
1.01
0.765
0.205
-0.265
-0.72
-0.08
-0.055
0.27
0.38
0.42
1.07
0.765
0.175
-0.445
-0.635
-0.055
-0.025
0.39
0.465
0.495
1.1
0.805
0.14
-0.505
-0.44
0.06
0.055
0.44
0.465
0.505
1.185
0.84
0.165
-0.445
-0.35
0.09
0.03
0.48
0.53
0.595
1.235
0.78
0.135
-0.51
-0.315
0.11
0.13
0.45
0.435
0.605
1.175
0.67
0.02
-0.675
-0.36
-0.02
0.015
0.3
0.35
0.57
1.035
0.505
-0.145
-0.735
-0.37
-0.11
-0.035
0.245
0.215
0.54
0.92
0.425
-0.27
-0.86
-0.465
-0.18
-0.065
0.18
0.22
0.62
0.845
0.31
-0.27
-0.835
-0.375
-0.16
-0.09
0.16
0.225
0.69
0.78
0.285
-0.305
-0.86
-0.36
-0.13
-0.035
0.17
0.23
0.745
0.755
0.24
-0.325
-0.88
-0.305
-0.095
0.0
0.075
0.215
0.745
0.7
0.2
-0.335
-0.86
-0.315
-0.155
-0.06
0.155
0.21
0.8
0.72
0.225
-0.35
-0.89
-0.345
-0.12
0.0
0.15
0.225
0.86
0.695
0.185
-0.365
-0.88
-0.26
-0.1
-0.025
0.125
0.25
0.9
0.625
0.1
-0.39
-0.905
-0.265
-0.155
0.02
0.155
0.23
0.895
0.635
0.1
-0.385
-0.905
-0.26
-0.215
0.05
0.195
0.215
0.94
0.67
0.005
-0.59
-0.865
-0.235
-0.24
0.12
0.23
0.245
0.885
0.605
-0.125
-0.74
-0.825
-0.26
-0.27
0.13
0.18
0.215
0.905
0.575
-0.085
-0.75
-0.76
-0.23
-0.245
0.185
0.185
0.195
0.885
0.505
-0.155
-0.77
-0.635
-0.235
-0.24
0.165
0.19
0.285
0.865
0.48
-0.225
-0.825
-0.615
-0.195
-0.18
0.19
0.235
0.435
0.915
0.41
-0.22
-0.825
-0.51
-0.195
-0.125
0.18
0.225
0.55
0.935
0.415
-0.175
-0.765
-0.39
-0.175
-0.11
0.215
0.26
0.64
0.935
0.41
-0.19
-0.8
-0.38
-0.115
-0.09
0.18
0.23
0.665
0.815
0.31
-0.29
-0.89
-0.425
-0.205
-0.125
0.1
0.23
0.69
0.72
0.21
-0.35
-0.885
-0.41
-0.185
-0.09
0.115
0.155
0.705
0.7
0.195
-0.34
-0.91
-0.38
-0.14
-0.055
0.075
0.16
0.76
0.665
0.14
-0.4
-0.925
-0.34
-0.14
-0.055
0.085
0.175
0.75
0.62
0.125
-0.415
-0.905
-0.325
-0.155
-0.01
0.165
0.225
0.825
0.64
0.18
-0.33
-0.77
-0.12
0.075
0.315
0.535
0.66
1.38
1.175
0.625
0.05
-0.56
0.085
0.125
0.26
0.315
0.145
0.77
0.555
0.01
-0.5
-1.0
-0.32
-0.285
0.05
0.17
0.205
0.905
0.6
0.01
-0.645
-0.83
-0.225
-0.22
0.14
0.21
0.25
0.945
0.575
-0.085
-0.72
-0.725
-0.19
-0.215
0.2
0.195
0.21
0.895
0.52
-0.13
-0.71
-0.6
-0.115
-0.13
0.245
0.245
0.235
0.93
0.5
-0.16
-0.755
-0.565
-0.145
-0.135
0.25
0.24
0.375
0.925
0.505
-0.14
-0.73
-0.475
-0.11
-0.08
0.24
0.26
0.555
0.925
0.44
-0.165
-0.73
-0.42
-0.13
-0.065
0.26
0.31
0.67
0.935
0.43
-0.12
-0.72
-0.3
-0.065
0.015
0.275
0.345
0.735
0.97
0.445
-0.12
-0.705
-0.28
-0.04
0.09
0.335
0.375
0.86
0.96
0.43
-0.125
-0.63
-0.125
0.115
0.17
0.395
0.435
0.93
0.97
0.475
-0.08
-0.595
-0.075
0.15
0.225
0.395
0.465
1.025
0.99
0.465
-0.115
-0.585
-0.04
0.135
0.24
0.405
0.47
1.045
0.935
0.41
-0.14
-0.675
-0.125
0.075
0.17
0.315
0.345
0.955
0.785
0.255
-0.275
-0.77
-0.17
-0.025
0.11
0.195
0.245
0.865
0.72
0.165
-0.41
-0.84
-0.24
-0.16
0.0
0.13
0.19
0.855
0.655
0.075
-0.41
-0.89
-0.25
-0.265
-0.025
0.11
0.195
0.865
0.605
0.025
-0.565
-0.875
-0.255
-0.285
0.035
0.125
0.19
0.875
0.56
-0.075
-0.725
-0.83
-0.25
-0.235
0.17
0.18
0.17
0.875
0.515
-0.15
-0.745
-0.745
-0.25
-0.245
0.16
0.175
0.125
0.86
0.51
-0.18
-0.785
-0.665
-0.2
-0.2
0.19
0.2
0.255
0.91
0.47
-0.23
-0.805
-0.59
-0.2
-0.17
0.195
0.12
0.32
0.845
0.405
-0.245
-0.845
-0.54
-0.195
-0.16
0.155
0.195
0.475
0.835
0.335
-0.275
-0.87
-0.5
-0.21
-0.14
0.13
0.18
0.53
0.83
0.295
-0.32
-0.84
-0.445
-0.215
-0.13
0.105
0.19
0.625
0.815
0.27
-0.355
-0.96
-0.45
-0.165
-0.065
0.095
0.14
0.64
0.705
0.18
-0.365
-0.905
-0.395
-0.185
-0.12
0.1
0.16
0.685
0.68
0.14
-0.405
-0.9
-0.365
-0.16
-0.08
0.09
0.165
0.735
0.665
0.15
-0.375
-0.935
-0.35
-0.135
-0.085
0.075
0.17
0.715
0.62
0.145
-0.4
-0.88
-0.315
-0.14
0.01
0.105
0.16
0.795
0.615
0.15
-0.365
-0.895
-0.315
-0.125
0.035
0.175
0.245
0.89
0.67
0.155
-0.32
-0.89
-0.2
-0.125
0.095
0.12
0.165
0.87
0.6
0.06
-0.42
-0.905
-0.295
-0.26
0.045
0.135
0.19
0.855
0.53
-0.05
-0.695
-0.915
-0.275
-0.31
0.035
0.145
0.165
0.85
0.515
-0.145
-0.765
-0.805
-0.3
-0.325
0.09
0.13
0.16
0.775
0.4
-0.205
-0.805
-0.705
-0.235
-0.29
0.1
0.07
0.135
0.84
0.445
-0.245
-0.855
-0.695
-0.255
-0.25
0.13
0.145
0.255
0.87
0.425
-0.225
-0.81
-0.535
-0.155
-0.135
0.285
0.405
0.69
1.27
0.815
0.26
-0.3
-0.055
0.205
0.135
0.485
0.495
0.7
0.905
0.205
-0.415
-0.985
-0.55
-0.295
-0.215
0.03
0.15
0.55
0.815
0.28
-0.325
-0.85
-0.395
-0.155
-0.085
0.135
0.18
0.635
0.74
0.26
-0.305
-0.87
-0.405
-0.17
-0.085
0.14
0.2
0.7
0.755
0.235
-0.33
-0.835
-0.355
-0.145
-0.045
0.145
0.215
0.745
0.72
0.21
-0.34
-0.855
-0.295
-0.11
0.005
0.195
0.325
0.805
0.695
0.175
-0.36
-0.86
-0.235
-0.12
0.005
0.165
0.225
0.815
0.735
0.19
-0.305
-0.82
-0.215
-0.045
0.065
0.175
0.27
0.905
0.72
0.15
-0.32
-0.775
-0.165
-0.045
0.1
0.235
0.345
0.96
0.775
0.215
-0.28
-0.78
-0.14
-0.09
0.16
0.29
0.375
1.025
0.745
0.205
-0.325
-0.69
-0.065
-0.04
0.295
0.365
0.4
1.09
0.785
0.2
-0.47
-0.595
-0.015
-0.01
0.39
0.39
0.44
1.125
0.78
0.185
-0.43
-0.475
0.01
-0.025
0.415
0.4
0.435
1.125
0.745
0.09
-0.55
-0.415
-0.065
-0.08
0.365
0.39
0.42
0.99
0.575
-0.085
-0.685
-0.485
-0.11
-0.1
0.275
0.245
0.37
0.895
0.45
-0.18
-0.815
-0.51
-0.215
-0.16
0.14
0.185
0.42
0.83
0.335
-0.265
-0.9
-0.54
-0.24
-0.16
0.125
0.165
0.485
0.78
0.235
-0.33
-0.875
-0.48
-0.17
-0.125
0.07
0.125
0.575
0.735
0.195
-0.36
-0.895
-0.445
-0.185
-0.14
0.07
0.185
0.685
0.695
0.165
-0.39
-0.925
-0.41
-0.185
-0.1
0.08
0.165
0.65
0.685
0.17
-0.385
-0.89
-0.36
-0.16
-0.095
0.09
0.12
0.7
0.665
0.17
-0.36
-0.91
-0.36
-0.16
-0.055
0.125
0.185
0.74
0.61
0.11
-0.425
-0.915
-0.295
-0.155
-0.085
0.1
0.17
0.765
0.59
0.08
-0.42
-0.885
-0.33
-0.2
-0.06
0.075
0.15
0.82
0.595
0.075
-0.425
-0.9
-0.285
-0.21
-0.05
0.055
0.125
0.77
0.555
0.035
-0.435
-0.935
-0.31
-0.29
-0.015
0.12
0.155
0.845
0.555
-0.06
-0.685
-0.945
-0.315
-0.31
0.07
0.125
0.135
0.795
0.48
-0.135
-0.745
-0.785
-0.29
-0.285
0.13
0.15
0.155
0.815
0.485
-0.16
-0.77
-0.71
-0.305
-0.295
0.18
0.195
0.23
0.875
0.525
-0.195
-0.795
-0.63
-0.19
-0.175
0.215
0.23
0.32
0.9
0.435
-0.2
-0.84
-0.565
-0.16
-0.18
0.16
0.18
0.34
0.805
0.31
-0.285
-0.885
-0.56
-0.275
-0.24
0.075
0.11
0.415
0.795
0.275
-0.34
-0.92
-0.515
-0.27
-0.23
0.04
0.125
0.495
0.73
0.245
-0.38
-0.915
-0.505
-0.255
-0.185
0.07
0.1
0.555
0.655
0.185
-0.365
-0.935
-0.47
-0.24
-0.16
0.075
0.145
0.62
0.67
0.165
-0.38
-0.865
-0.33
-0.165
-0.075
0.14
0.225
0.765
0.82
0.425
-0.03
-0.49
0.13
0.375
0.495
0.565
0.54
1.07
0.985
0.39
-0.26
-0.965
-0.445
-0.295
-0.19
-0.05
0.045
0.66
0.55
0.13
-0.38
-0.93
-0.365
-0.14
-0.015
0.12
0.175
0.795
0.59
0.055
-0.43
-0.915
-0.31
-0.175
-0.04
0.11
0.175
0.775
0.605
0.095
-0.4
-0.875
-0.28
-0.225
-0.025
0.105
0.2
0.875
0.61
0.02
-0.46
-0.89
-0.255
-0.24
0.06
0.185
0.23
0.9
0.615
0.005
-0.66
-0.835
-0.225
-0.21
0.135
0.19
0.22
0.92
0.59
-0.035
-0.68
-0.745
-0.215
-0.22
0.23
0.25
0.275
0.925
0.555
-0.08
-0.685
-0.625
-0.18
-0.165
0.26
0.255
0.305
0.955
0.555
-0.085
-0.675
-0.45
-0.08
-0.08
0.3
0.295
0.41
0.98
0.53
-0.07
-0.665
-0.345
-0.04
-0.005
0.34
0.37
0.59
1.025
0.55
-0.06
-0.615
-0.285
0.03
0.1
0.37
0.435
0.745
1.075
0.535
-0.03
-0.6
-0.22
0.06
0.15
0.375
0.415
0.81
1.045
0.505
-0.06
-0.615
-0.17
0.03
0.11
0.33
0.365
0.81
0.915
0.405
-0.195
-0.75
-0.29
-0.06
0.015
0.205
0.255
0.75
0.78
0.24
-0.345
-0.86
-0.33
-0.14
-0.065
0.135
0.175
0.7
0.655
0.13
-0.425
-0.915
-0.36
-0.17
-0.09
0.07
0.125
0.715
0.6
0.12
-0.43
-0.935
-0.375
-0.215
-0.095
0.095
0.13
0.715
0.56
0.055
-0.465
-0.945
-0.355
-0.2
-0.07
0.06
0.13
0.775
0.57
0.045
-0.495
-0.94
-0.305
-0.195
-0.045
0.04
0.115
0.79
0.575
0.04
-0.45
-0.92
-0.325
-0.275
-0.04
0.085
0.16
0.82
0.575
-0.02
-0.605
-0.915
-0.28
-0.27
0.035
0.14
0.13
0.81
0.505
-0.075
-0.745
-0.86
-0.27
-0.3
0.085
0.13
0.11
0.83
0.455
-0.18
-0.8
-0.77
-0.28
-0.31
0.095
0.12
0.165
0.84
0.505
-0.27
-0.855
-0.72
-0.285
-0.305
0.11
0.1
0.165
0.795
0.37
-0.27
-0.875
-0.635
-0.24
-0.235
0.145
0.16
0.295
0.79
0.355
-0.295
-0.885
-0.55
-0.24
-0.18
0.135
0.225
0.465
0.865
0.36
-0.265
-0.835
-0.48
-0.185
-0.125
0.16
0.18
0.545
0.825
0.265
-0.305
-0.86
-0.445
-0.205
-0.13
0.105
0.15
0.535
0.7
0.185
-0.4
-0.945
-0.47
-0.23
-0.15
0.05
0.13
0.595
0.65
0.155
-0.425
-0.98
-0.5
-0.25
-0.17
0.035
0.105
0.59
0.605
0.11
-0.46
-0.97
-0.41
-0.26
-0.18
0.02
0.115
0.63
0.565
0.07
-0.465
-0.97
-0.425
-0.255
-0.13
0.04
0.11
0.71
0.565
0.06
-0.455
-0.92
-0.32
-0.15
-0.06
0.07
0.195
0.88
0.78
0.38
-0.015
-0.42
0.295
0.46
0.585
0.625
0.56
1.225
0.925
0.29
-0.445
-1.08
-0.47
-0.44
-0.2
-0.05
0.005
0.695
0.495
0.01
-0.415
-0.9
-0.29
-0.235
-0.005
0.11
0.155
0.815
0.53
-0.04
-0.695
-0.925
-0.265
-0.275
0.065
0.13
0.135
0.855
0.52
-0.11
-0.745
-0.8
-0.255
-0.26
0.14
0.16
0.17
0.87
0.49
-0.125
-0.73
-0.685
-0.255
-0.29
0.115
0.165
0.18
0.85
0.465
-0.16
-0.78
-0.635
-0.21
-0.19
0.19
0.215
0.295
0.875
0.405
-0.22
-0.805
-0.56
-0.175
-0.125
0.205
0.21
0.43
0.9
0.425
-0.185
-0.745
-0.41
-0.125
-0.09
0.205
0.265
0.575
0.94
0.395
-0.195
-0.765
-0.365
-0.085
0.0
0.255
0.315
0.67
0.94
0.425
-0.16
-0.72
-0.275
-0.01
0.09
0.33
0.385
0.845
0.86
0.38
-0.1
-0.59
-0.15
0.085
0.115
0.335
0.365
0.895
0.97
0.48
-0.105
-0.66
-0.12
0.1
0.19
0.39
0.45
0.945
0.905
0.415
-0.135
-0.67
-0.14
0.065
0.16
0.3
0.36
0.91
0.81
0.295
-0.255
-0.79
-0.2
-0.045
0.04
0.17
0.21
0.805
0.63
0.125
-0.405
-0.895
-0.32
-0.13
-0.065
0.03
0.13
0.8
0.61
0.08
-0.445
-0.945
-0.35
-0.24
-0.085
0.02
0.095
0.76
0.535
0.015
-0.485
-0.965
-0.3
-0.275
-0.06
0.01
0.105
0.74
0.495
-0.015
-0.585
-0.95
-0.375
-0.345
-0.03
0.08
0.105
0.81
0.515
-0.11
-0.735
-0.905
-0.295
-0.33
0.035
0.095
0.13
0.81
0.45
-0.18
-0.8
-0.785
-0.24
-0.275
0.12
0.1
0.125
0.8
0.42
-0.25
-0.85
-0.755
-0.31
-0.295
0.135
0.13
0.175
0.795
0.395
-0.235
-0.815
-0.645
-0.295
-0.26
0.11
0.125
0.27
0.81
0.36
-0.26
-0.87
-0.59
-0.27
-0.235
0.095
0.165
0.41
0.795
0.31
-0.28
-0.86
-0.52
-0.23
-0.145
0.145
0.16
0.5
0.855
0.31
-0.28
-0.865
-0.42
-0.155
-0.135
0.115
0.155
0.57
0.785
0.235
-0.36
-0.875
-0.445
-0.235
-0.16
0.085
0.1
0.56
0.65
0.145
-0.435
-0.955
-0.49
-0.275
-0.195
-0.025
0.07
0.595
0.605
0.11
-0.455
-0.96
-0.45
-0.265
-0.155
0.035
0.085
0.58
0.535
0.035
-0.475
-0.975
-0.43
-0.255
-0.18
0.01
0.08
0.665
0.56
0.03
-0.555
-1.03
-0.42
-0.24
-0.14
-0.01
0.065
0.695
0.53
0.05
-0.455
-0.915
-0.345
-0.23
-0.105
0.05
0.14
0.835
0.685
0.295
-0.15
-0.48
0.23
0.37
0.53
0.665
0.595
1.19
0.965
0.295
-0.34
-1.005
-0.45
-0.42
-0.215
-0.11
0.005
0.72
0.46
-0.07
-0.705
-0.95
-0.31
-0.305
0.055
0.13
0.135
0.81
0.5
-0.135
-0.755
-0.835
-0.285
-0.31
0.085
0.12
0.15
0.805
0.475
-0.16
-0.795
-0.77
-0.255
-0.26
0.16
0.14
0.17
0.79
0.42
-0.285
-0.83
-0.65
-0.24
-0.245
0.13
0.14
0.23
0.855
0.385
-0.225
-0.85
-0.585
-0.225
-0.185
0.16
0.175
0.365
0.84
0.38
-0.23
-0.82
-0.485
-0.18
-0.14
0.175
0.23
0.495
0.865
0.31
-0.26
-0.815
-0.435
-0.145
-0.035
0.18
0.24
0.58
0.845
0.345
-0.21
-0.785
-0.34
-0.1
-0.005
0.23
0.28
0.695
0.845
0.365
-0.19
-0.735
-0.24
-0.025
0.095
0.34
0.345
0.815
0.88
0.395
-0.155
-0.675
-0.17
0.02
0.125
0.325
0.405
0.915
0.92
0.455
-0.13
-0.625
-0.13
0.03
0.155
0.335
0.42
0.98
0.86
0.38
-0.18
-0.705
-0.145
0.05
0.12
0.29
0.33
0.915
0.785
0.26
-0.295
-0.825
-0.225
-0.08
0.015
0.13
0.205
0.845
0.645
0.15
-0.395
-0.935
-0.325
-0.2
-0.09
0.03
0.115
0.78
0.575
0.0
-0.48
-1.005
-0.355
-0.29
-0.1
0.015
0.08
0.76
0.525
-0.05
-0.52
-0.97
-0.345
-0.345
-0.075
0.07
0.13
0.79
0.485
-0.14
-0.785
-0.96
-0.31
-0.325
0.02
0.095
0.13
0.785
0.45
-0.19
-0.765
-0.85
-0.32
-0.36
0.06
0.09
0.11
0.785
0.435
-0.235
-0.82
-0.725
-0.285
-0.335
0.095
0.08
0.17
0.74
0.395
-0.23
-0.87
-0.69
-0.255
-0.26
0.115
0.135
0.27
0.825
0.375
-0.23
-0.87
-0.6
-0.255
-0.225
0.125
0.19
0.405
0.845
0.28
-0.285
-0.845
-0.495
-0.205
-0.175
0.14
0.205
0.525
0.85
0.3
-0.28
-0.84
-0.465
-0.235
-0.14
0.045
0.155
0.52
0.745
0.195
-0.4
-0.95
-0.5
-0.255
-0.17
0.025
0.095
0.51
0.625
0.125
-0.43
-0.995
-0.5
-0.28
-0.175
0.05
0.085
0.585
0.595
0.08
-0.445
-0.975
-0.47
-0.31
-0.205
-0.015
0.065
0.635
0.57
0.045
-0.505
-1.0
-0.445
-0.265
-0.14
0.045
0.1
0.635
0.515
-0.005
-0.505
-1.035
-0.435
-0.25
-0.14
-0.005
0.08
0.75
0.595
0.065
-0.495
-1.0
-0.3
-0.19
0.015
0.25
0.45
1.185
1.04
0.585
0.125
-0.43
0.045
0.12
0.285
0.325
0.315
0.8
0.45
-0.115
-0.635
-1.11
-0.465
-0.4
-0.13
0.025
0.12
0.79
0.53
-0.05
-0.6
-0.945
-0.295
-0.285
0.04
0.095
0.11
0.78
0.5
-0.14
-0.73
-0.845
-0.27
-0.3
0.07
0.115
0.09
0.78
0.405
-0.195
-0.76
-0.77
-0.275
-0.285
0.12
0.165
0.17
0.825
0.44
-0.19
-0.795
-0.685
-0.24
-0.275
0.125
0.16
0.24
0.865
0.43
-0.23
-0.87
-0.615
-0.205
-0.19
0.155
0.165
0.33
0.83
0.395
-0.215
-0.815
-0.51
-0.195
-0.135
0.125
0.215
0.475
0.855
0.375
-0.23
-0.795
-0.42
-0.13
-0.1
0.21
0.285
0.585
0.89
0.385
-0.19
-0.77
-0.365
-0.075
-0.03
0.225
0.3
0.745
0.91
0.345
-0.19
-0.71
-0.23
-0.03
0.09
0.305
0.39
0.89
0.9
0.425
-0.125
-0.71
-0.21
0.03
0.17
0.35
0.37
0.92
0.905
0.39
-0.155
-0.665
-0.15
0.055
0.16
0.3
0.36
0.905
0.84
0.34
-0.235
-0.755
-0.2
-0.025
0.07
0.195
0.275
0.845
0.695
0.19
-0.35
-0.885
-0.355
-0.155
-0.045
0.095
0.2
0.745
0.595
0.055
-0.47
-0.945
-0.35
-0.245
-0.07
0.035
0.11
0.775
0.58
-0.03
-0.57
-1.005
-0.39
-0.305
-0.12
0.02
0.06
0.75
0.53
-0.015
-0.52
-0.975
-0.355
-0.335
-0.075
0.02
0.09
0.765
0.505
-0.14
-0.78
-0.975
-0.355
-0.35
0.03
0.1
0.085
0.8
0.475
-0.15
-0.825
-0.935
-0.345
-0.335
0.09
0.045
0.08
0.805
0.47
-0.195
-0.8
-0.745
-0.26
-0.27
0.135
0.115
0.1
0.805
0.46
-0.195
-0.855
-0.715
-0.285
-0.24
0.155
0.155
0.255
0.875
0.375
-0.2
-0.86
-0.58
-0.235
-0.215
0.165
0.175
0.4
0.845
0.39
-0.225
-0.855
-0.565
-0.23
-0.2
0.1
0.125
0.4
0.785
0.295
-0.365
-0.965
-0.57
-0.305
-0.21
0.035
0.035
0.44
0.69
0.19
-0.395
-0.99
-0.565
-0.3
-0.245
0.02
0.13
0.525
0.635
0.125
-0.44
-1.005
-0.505
-0.31
-0.235
0.0
0.05
0.57
0.595
0.075
-0.475
-1.0
-0.46
-0.265
-0.25
-0.025
0.04
0.61
0.58
0.09
-0.49
-1.01
-0.485
-0.275
-0.185
0.05
0.13
0.7
0.61
0.05
-0.52
-1.03
-0.4
-0.165
0.06
0.275
0.44
1.14
1.075
0.615
0.06
-0.525
-0.045
0.145
0.27
0.27
0.27
0.695
0.44
-0.055
-0.585
-1.04
-0.445
-0.325
-0.13
0.07
0.09
0.72
0.515
0.025
-0.47
-0.955
-0.335
-0.285
-0.065
0.065
0.125
0.78
0.535
-0.005
-0.585
-0.96
-0.3
-0.275
0.015
0.07
0.09
0.825
0.505
-0.13
-0.735
-0.885
-0.3
-0.32
0.095
0.125
0.13
0.81
0.475
-0.165
-0.785
-0.785
-0.265
-0.27
0.15
0.17
0.16
0.845
0.475
-0.215
-0.835
-0.71
-0.235
-0.23
0.175
0.17
0.21
0.86
0.435
-0.22
-0.795
-0.57
-0.155
-0.235
0.15
0.185
0.34
0.885
0.41
-0.225
-0.785
-0.495
-0.17
-0.12
0.205
0.245
0.495
0.865
0.37
-0.175
-0.75
-0.385
-0.06
-0.005
0.22
0.275
0.655
0.985
0.43
-0.16
-0.72
-0.315
-0.02
0.06
0.305
0.335
0.725
1.01
0.445
-0.12
-0.7
-0.2
0.06
0.105
0.305
0.37
0.86
0.945
0.405
-0.13
-0.66
-0.155
0.045
0.13
0.31
0.395
0.825
0.87
0.345
-0.23
-0.73
-0.195
-0.075
-0.025
0.115
0.23
0.81
0.725
0.2
-0.305
-0.85
-0.29
-0.175
-0.125
0.09
0.13
0.725
0.625
0.14
-0.45
-1.025
-0.445
-0.215
-0.09
0.095
0.11
0.695
0.52
0.025
-0.48
-0.99
-0.43
-0.24
-0.085
0.08
0.115
0.745
0.485
-0.04
-0.5
-0.98
-0.385
-0.305
-0.085
-0.02
0.065
0.74
0.54
-0.015
-0.495
-0.955
-0.335
-0.37
-0.09
0.035
0.115
0.785
0.535
-0.045
-0.655
-0.99
-0.35
-0.31
0.075
0.06
0.09
0.845
0.495
-0.18
-0.815
-0.9
-0.315
-0.31
0.105
0.11
0.14
0.825
0.47
-0.17
-0.79
-0.75
-0.295
-0.26
0.16
0.12
0.14
0.865
0.49
-0.15
-0.81
-0.675
-0.25
-0.255
0.175
0.18
0.28
0.885
0.445
-0.235
-0.825
-0.59
-0.185
-0.185
0.125
0.08
0.305
0.785
0.3
-0.33
-0.935
-0.605
-0.3
-0.24
0.075
0.075
0.35
0.725
0.23
-0.395
-0.98
-0.605
-0.32
-0.235
0.04
0.09
0.465
0.73
0.145
-0.445
-0.99
-0.555
-0.295
-0.205
0.0
0.075
0.51
0.64
0.135
-0.455
-1.02
-0.555
-0.275
-0.205
0.035
0.12
0.605
0.635
0.075
-0.505
-1.02
-0.51
-0.295
-0.21
0.0
0.095
0.61
0.58
0.12
-0.455
-1.0
-0.455
-0.205
-0.09
0.165
0.32
0.975
1.01
0.585
0.12
-0.36
0.13
0.14
0.2
0.4
0.38
0.935
0.695
0.035
-0.52
-1.025
-0.475
-0.31
-0.205
-0.005
0.12
0.77
0.58
0.08
-0.5
-0.975
-0.335
-0.2
-0.09
0.035
0.12
0.795
0.575
0.045
-0.44
-0.98
-0.39
-0.3
-0.075
0.06
0.11
0.82
0.585
-0.025
-0.515
-0.98
-0.345
-0.295
0.015
0.1
0.14
0.845
0.54
-0.08
-0.685
-0.91
-0.325
-0.295
0.105
0.14
0.145
0.795
0.495
-0.135
-0.77
-0.81
-0.27
-0.285
0.14
0.125
0.17
0.85
0.52
-0.18
-0.73
-0.645
-0.195
-0.255
0.155
0.185
0.205
0.86
0.455
-0.175
-0.77
-0.545
-0.17
-0.205
0.225
0.225
0.3
0.895
0.45
-0.16
-0.74
-0.475
-0.13
-0.1
0.25
0.3
0.535
0.98
0.495
-0.1
-0.715
-0.405
-0.07
-0.02
0.275
0.325
0.675
1.015
0.48
-0.12
-0.665
-0.265
0.005
0.1
0.335
0.38
0.8
1.005
0.47
-0.11
-0.64
-0.24
-0.02
0.075
0.31
0.375
0.84
0.92
0.41
-0.185
-0.75
-0.24
-0.085
0.025
0.235
0.23
0.73
0.73
0.255
-0.33
-0.875
-0.385
-0.195
-0.095
0.115
0.185
0.67
0.62
0.11
-0.455
-0.985
-0.415
-0.24
-0.145
0.01
0.115
0.69
0.57
0.065
-0.47
-1.005
-0.43
-0.215
-0.14
0.035
0.035
0.68
0.51
-0.02
-0.535
-0.985
-0.425
-0.25
-0.135
0.035
0.115
0.765
0.49
-0.065
-0.55
-0.995
-0.38
-0.28
-0.115
0.015
0.095
0.76
0.485
-0.035
-0.51
-0.975
-0.36
-0.325
-0.08
0.055
0.095
0.72
0.49
-0.085
-0.65
-0.975
-0.335
-0.31
0.02
0.085
0.14
0.795
0.43
-0.145
-0.775
-0.92
-0.36
-0.32
0.085
0.115
0.12
0.84
0.47
-0.16
-0.79
-0.81
-0.275
-0.31
0.105
0.105
0.135
0.805
0.46
-0.135
-0.815
-0.69
-0.245
-0.235
0.17
0.175
0.235
0.82
0.415
-0.25
-0.83
-0.62
-0.255
-0.225
0.085
0.105
0.26
0.74
0.26
-0.345
-0.935
-0.605
-0.33
-0.275
0.055
0.06
0.315
0.71
0.19
-0.415
-0.955
-0.61
-0.33
-0.235
0.05
0.06
0.4
0.69
0.12
-0.44
-1.015
-0.595
-0.28
-0.195
-0.025
0.015
0.44
0.625
0.11
-0.46
-1.005
-0.53
-0.295
-0.225
-0.005
0.07
0.525
0.61
0.095
-0.465
-0.99
-0.5
-0.315
-0.2
0.01
0.075
0.565
0.555
0.085
-0.46
-0.98
-0.45
-0.255
-0.175
0.06
0.205
0.835
0.88
0.49
0.0
-0.425
0.18
0.37
0.38
0.45
0.535
1.08
0.84
0.23
-0.455
-1.0
-0.43
-0.28
-0.175
-0.06
0.025
0.685
0.525
0.05
-0.485
-0.945
-0.36
-0.225
-0.08
0.045
0.09
0.765
0.54
0.025
-0.505
-0.975
-0.34
-0.275
-0.08
0.08
0.13
0.745
0.515
-0.015
-0.475
-0.99
-0.325
-0.25
0.015
0.065
0.115
0.755
0.53
-0.06
-0.715
-0.935
-0.275
-0.31
0.04
0.125
0.13
0.82
0.5
-0.16
-0.765
-0.82
-0.255
-0.275
0.085
0.14
0.185
0.83
0.455
-0.175
-0.785
-0.695
-0.195
-0.225
0.165
0.16
0.175
0.855
0.49
-0.155
-0.745
-0.6
-0.205
-0.2
0.18
0.225
0.325
0.905
0.47
-0.21
-0.76
-0.485
-0.165
-0.12
0.24
0.245
0.47
0.95
0.475
-0.155
-0.715
-0.355
-0.06
-0.02
0.28
0.26
0.615
1.01
0.49
-0.105
-0.655
-0.255
0.0
0.11
0.325
0.37
0.78
0.985
0.47
-0.12
-0.695
-0.205
0.01
0.105
0.31
0.38
0.835
0.975
0.48
-0.165
-0.735
-0.27
-0.08
0.045
0.215
0.27
0.745
0.77
0.26
-0.32
-0.845
-0.325
-0.14
-0.05
0.09
0.155
0.66
0.665
0.155
-0.47
-0.95
-0.415
-0.23
-0.125
0.02
0.1
0.685
0.515
0.02
-0.485
-0.95
-0.41
-0.29
-0.145
0.01
0.055
0.645
0.53
0.01
-0.485
-1.03
-0.435
-0.235
-0.095
0.045
0.05
0.71
0.495
-0.05
-0.595
-1.01
-0.375
-0.265
-0.12
0.005
0.09
0.72
0.535
0.01
-0.53
-1.04
-0.385
-0.345
-0.08
0.015
0.085
0.735
0.485
-0.075
-0.61
-0.955
-0.335
-0.36
-0.03
0.045
0.085
0.77
0.445
-0.155
-0.81
-0.945
-0.3
-0.385
0.03
0.08
0.105
0.76
0.4
-0.24
-0.84
-0.81
-0.29
-0.345
0.055
0.06
0.075
0.79
0.405
-0.3
-0.88
-0.745
-0.275
-0.27
0.125
0.08
0.175
0.785
0.35
-0.25
-0.925
-0.65
-0.265
-0.225
0.08
0.08
0.275
0.79
0.33
-0.27
-0.86
-0.575
-0.255
-0.18
0.135
0.16
0.385
0.82
0.28
-0.36
-0.95
-0.51
-0.255
-0.18
0.095
0.12
0.45
0.74
0.205
-0.405
-0.965
-0.57
-0.295
-0.26
-0.03
0.045
0.47
0.665
0.115
-0.445
-1.025
-0.545
-0.315
-0.22
0.015
0.015
0.525
0.585
0.08
-0.47
-1.01
-0.5
-0.28
-0.185
0.02
0.07
0.575
0.59
0.02
-0.515
-1.015
-0.5
-0.31
-0.165
-0.005
0.045
0.615
0.54
0.03
-0.53
-1.015
-0.46
-0.265
-0.16
0.02
0.065
0.695
0.54
0.055
-0.49
-0.965
-0.405
-0.23
-0.165
-0.01
0.115
0.785
0.66
0.25
-0.14
-0.46
0.22
0.37
0.515
0.67
0.71
1.255
1.055
0.45
-0.18
-0.75
-0.32
-0.335
-0.155
0.005
0.05
0.745
0.51
-0.035
-0.49
-0.94
-0.275
-0.235
0.03
0.07
0.13
0.82
0.54
-0.045
-0.735
-0.95
-0.31
-0.265
0.145
0.115
0.16
0.83
0.505
-0.095
-0.73
-0.825
-0.26
-0.31
0.125
0.135
0.18
0.83
0.44
-0.14
-0.79
-0.7
-0.22
-0.27
0.15
0.175
0.235
0.89
0.46
-0.16
-0.795
-0.63
-0.19
-0.17
0.2
0.2
0.33
0.915
0.43
-0.17
-0.77
-0.52
-0.175
-0.1
0.18
0.245
0.49
0.955
0.415
-0.14
-0.72
-0.36
-0.12
-0.055
0.235
0.31
0.67
1.02
0.465
-0.13
-0.71
-0.28
-0.015
0.095
0.375
0.415
0.82
1.04
0.535
-0.04
-0.65
-0.135
0.145
0.21
0.435
0.515
0.99
1.11
0.68
0.105
-0.47
0.015
0.29
0.395
0.6
0.68
1.235
1.235
0.765
0.17
-0.3
0.28
0.455
0.5
0.67
0.82
1.29
1.275
0.785
0.19
-0.32
0.265
0.465
0.52
0.65
0.705
1.315
1.18
0.65
0.125
-0.375
0.195
0.27
0.455
0.56
0.605
1.215
1.03
0.505
-0.015
-0.515
0.125
0.28
0.39
0.535
0.57
1.195
0.995
0.485
0.015
-0.48
0.18
0.215
0.39
0.54
0.625
1.27
1.01
0.49
0.095
-0.44
0.155
0.215
0.455
0.545
0.575
1.285
1.055
0.47
-0.11
-0.44
0.21
0.225
0.555
0.64
0.67
1.355
1.055
0.44
-0.235
-0.355
0.24
0.235
0.655
0.705
0.695
1.36
1.03
0.405
-0.225
-0.235
0.275
0.305
0.73
0.775
0.735
1.4
1.025
0.38
-0.24
-0.07
0.365
0.365
0.74
0.735
0.845
1.49
1.02
0.355
-0.22
0.035
0.415
0.43
0.77
0.805
0.95
1.455
0.965
0.39
-0.2
0.11
0.445
0.49
0.77
0.8
1.035
1.49
0.985
0.37
-0.225
0.175
0.445
0.495
0.81
0.835
1.195
1.44
0.97
0.39
-0.18
0.22
0.485
0.56
0.81
0.85
1.24
1.455
0.935
0.35
-0.165
0.3
0.52
0.64
0.835
0.89
1.38
1.49
0.965
0.36
-0.12
0.425
0.585
0.705
0.9
0.97
1.49
1.455
0.995
0.43
-0.05
0.51
0.705
0.815
1.015
1.055
1.575
1.54
1.02
0.475
-0.025
0.535
0.685
0.82
0.99
1.035
1.565
1.5
1.005
0.475
-0.03
0.57
0.73
0.795
0.97
1.045
1.685
1.51
0.975
0.485
-0.01
0.58
0.705
0.84
1.005
1.055
1.705
1.495
0.94
0.47
-0.01
0.62
0.68
0.865
1.01
1.075
1.76
1.505
0.955
0.54
0.04
0.675
0.675
0.935
1.045
1.09
1.795
1.54
0.93
0.315
0.145
0.72
0.645
1.015
1.1
1.125
1.82
1.48
0.855
0.28
0.24
0.75
0.705
1.16
1.185
1.21
1.87
1.52
0.905
0.27
0.43
1.0
1.075
1.69
1.715
1.78
2.535
2.19
1.48
0.765
0.935
1.41
1.315
1.535
1.37
1.305
1.805
1.375
0.785
0.205
0.42
0.815
0.905
1.245
1.27
1.515
1.97
1.52
0.905
0.25
0.61
0.885
0.985
1.315
1.34
1.62
1.97
1.42
0.85
0.3
0.69
0.97
1.07
1.3
1.32
1.735
1.955
1.41
0.885
0.335
0.77
0.99
1.1
1.25
1.4
1.88
1.955
1.44
0.87
0.34
0.84
1.05
1.145
1.29
1.36
1.89
1.965
1.47
0.92
0.425
0.935
1.125
1.205
1.38
1.46
2.02
1.98
1.44
0.935
0.44
0.98
1.195
1.3
1.45
1.535
2.095
1.985
1.48
0.965
0.48
1.04
1.17
1.335
1.55
1.56
2.195
2.04
1.52
1.005
0.53
1.12
1.29
1.435
1.555
1.615
2.31
2.105
1.575
1.09
0.59
1.235
1.37
1.56
1.66
1.73
2.395
2.18
1.635
1.165
0.7
1.405
1.4
1.62
1.725
1.795
2.41
2.22
1.64
1.08
0.74
1.38
1.39
1.725
1.78
1.81
2.445
2.165
1.495
0.885
0.765
1.285
1.235
1.655
1.69
1.695
2.355
2.01
1.345
0.705
0.675
1.2
1.175
1.59
1.58
1.595
2.245
1.91
1.2
0.615
0.71
1.16
1.14
1.51
1.53
1.585
2.16
1.735
1.115
0.5
0.685
1.14
1.11
1.47
1.475
1.62
2.17
1.655
1.08
0.48
0.71
1.1
1.165
1.475
1.42
1.725
2.12
1.65
1.05
0.485
0.815
1.14
1.195
1.455
1.525
1.855
2.16
1.625
1.06
0.41
0.925
1.17
1.23
1.455
1.48
1.925
2.055
1.575
1.04
0.46
0.94
1.18
1.255
1.455
1.475
1.975
2.055
1.6
1.01
0.44
0.985
1.175
1.235
1.495
1.54
2.065
2.055
1.51
0.98
0.445
1.005
1.2
1.325
1.495
1.55
2.12
2.015
1.515
0.975
0.46
1.055
1.205
1.345
1.52
1.55
2.14
1.95
1.465
0.935
0.515
1.055
1.225
1.345
1.465
1.56
2.18
2.025
1.505
0.935
0.51
1.08
1.255
1.395
1.5
1.55
2.19
2.01
1.48
1.015
0.535
1.115
1.235
1.405
1.525
1.55
2.235
2.0
1.46
0.98
0.565
1.14
1.095
1.405
1.55
1.575
2.2
1.955
1.355
0.75
0.535
1.14
1.1
1.515
1.575
1.62
2.29
1.935
1.34
0.73
0.68
1.22
1.205
1.62
1.67
1.65
2.34
1.99
1.34
0.66
0.785
1.28
1.3
1.685
1.675
1.695
2.365
1.965
1.355
0.74
0.97
1.29
1.3
1.695
1.705
1.84
2.375
1.905
1.265
0.695
0.955
1.315
1.34
1.655
1.74
1.895
2.32
1.8
1.225
0.675
1.02
1.275
1.295
1.625
1.665
1.96
2.305
1.81
1.25
0.62
1.01
1.29
1.41
1.645
1.71
2.06
2.28
1.77
1.17
0.65
1.105
1.37
1.42
1.65
1.69
2.16
2.285
1.75
1.19
0.615
1.095
1.365
1.38
1.485
1.54
1.88
1.88
1.31
0.745
0.21
0.71
0.895
1.015
1.115
1.15
1.71
1.635
1.14
0.585
0.065
0.585
0.815
0.95
1.145
1.245
1.975
1.98
1.535
0.975
0.515
1.115
1.23
1.26
1.41
1.42
1.945
1.675
0.955
0.31
-0.21
0.35
0.48
0.625
0.78
0.85
1.5
1.29
0.77
0.28
-0.175
0.42
0.53
0.69
0.79
0.82
1.445
1.215
0.69
0.215
-0.25
0.385
0.395
0.565
0.66
0.765
1.46
1.18
0.555
-0.07
-0.295
0.34
0.36
0.68
0.715
0.7
1.45
1.045
0.41
-0.255
-0.285
0.28
0.275
0.68
0.71
0.695
1.345
0.975
0.375
-0.26
-0.225
0.24
0.24
0.68
0.68
0.62
1.325
0.965
0.275
-0.28
-0.205
0.205
0.26
0.645
0.635
0.695
1.31
0.855
0.255
-0.37
-0.115
0.265
0.25
0.61
0.61
0.77
1.285
0.82
0.22
-0.39
-0.05
0.255
0.32
0.63
0.67
0.94
1.32
0.805
0.145
-0.345
0.035
0.325
0.345
0.635
0.705
1.065
1.35
0.82
0.215
-0.335
0.105
0.36
0.365
0.63
0.735
1.115
1.285
0.8
0.185
-0.31
0.185
0.415
0.5
0.655
0.69
1.17
1.175
0.69
0.15
-0.38
0.075
0.31
0.375
0.535
0.59
1.04
1.07
0.51
-0.05
-0.585
-0.035
0.145
0.255
0.38
0.42
0.96
0.885
0.315
-0.23
-0.725
-0.165
0.025
0.1
0.265
0.305
0.86
0.745
0.225
-0.315
-0.755
-0.195
-0.055
0.085
0.17
0.23
0.85
0.64
0.125
-0.365
-0.84
-0.25
-0.105
0.09
0.18
0.235
0.875
0.62
0.12
-0.395
-0.875
-0.23
-0.17
0.035
0.17
0.24
0.89
0.65
0.075
-0.49
-0.865
-0.28
-0.27
-0.005
0.16
0.195
0.865
0.565
-0.05
-0.66
-0.845
-0.27
-0.27
0.15
0.15
0.135
0.795
0.505
-0.125
-0.75
-0.765
-0.15
-0.29
0.085
0.16
0.13
0.82
0.435
-0.225
-0.835
-0.715
-0.24
-0.23
0.21
0.115
0.135
0.82
0.41
-0.275
-0.9
-0.67
-0.29
-0.245
0.1
0.085
0.25
0.825
0.375
-0.315
-0.9
-0.665
-0.32
-0.19
0.11
0.145
0.43
0.825
0.175
-0.415
-0.93
-0.575
-0.32
-0.265
0.04
0.06
0.445
0.72
0.195
-0.435
-0.97
-0.53
-0.29
-0.185
0.055
0.05
0.445
0.64
0.15
-0.385
-0.94
-0.54
-0.285
-0.21
-0.01
0.06
0.565
0.55
0.065
-0.485
-1.025
-0.5
-0.275
-0.275
-0.035
0.045
0.57
0.565
0.05
-0.51
-1.01
-0.475
-0.32
-0.295
-0.075
0.065
0.625
0.565
-0.035
-0.54
-1.035
-0.48
-0.29
-0.215
-0.05
0.02
0.61
0.475
-0.035
-0.56
-1.065
-0.485
-0.305
-0.275
-0.07
0.01
0.635
0.445
-0.05
-0.555
-1.045
-0.465
-0.345
-0.195
-0.005
0.035
0.655
0.41
-0.04
-0.55
-1.105
-0.44
-0.32
-0.13
0.03
0.095
0.76
0.46
-0.08
-0.55
-1.06
-0.425
-0.395
-0.115
0.04
0.105
0.785
0.445
-0.155
-0.73
-1.085
-0.49
-0.45
-0.105
-0.04
-0.005
0.7
0.345
-0.3
-0.905
-1.015
-0.49
-0.49
-0.1
-0.055
-0.015
0.695
0.335
-0.335
-1.02
-0.95
-0.505
-0.51
-0.1
-0.075
-0.1
0.61
0.27
-0.4
-1.01
-0.91
-0.515
-0.455
-0.12
-0.1
0.055
0.56
0.16
-0.465
-1.045
-0.805
-0.47
-0.445
-0.08
-0.055
0.135
0.61
0.065
-0.485
-1.065
-0.82
-0.49
-0.39
-0.13
-0.075
0.23
0.645
0.055
-0.495
-1.115
-0.795
-0.42
-0.295
0.025
0.155
0.615
0.955
0.585
0.055
-0.41
0.035
0.215
0.12
0.38
0.515
0.845
0.875
0.18
-0.54
-1.16
-0.69
-0.47
-0.385
-0.145
-0.09
0.465
0.55
-0.03
-0.56
-1.085
-0.605
-0.365
-0.29
-0.105
0.015
0.505
0.53
-0.015
-0.595
-1.135
-0.565
-0.375
-0.265
-0.11
-0.055
0.515
0.46
-0.02
-0.515
-1.05
-0.55
-0.355
-0.375
-0.125
-0.02
0.56
0.415
-0.07
-0.605
-1.075
-0.49
-0.32
-0.2
-0.055
0.01
0.625
0.425
-0.095
-0.57
-1.085
-0.51
-0.305
-0.225
-0.055
0.01
0.675
0.49
-0.07
-0.625
-1.12
-0.45
-0.36
-0.155
-0.08
-0.005
0.665
0.43
-0.04
-0.595
-1.095
-0.415
-0.365
-0.08
0.075
0.1
0.8
0.53
-0.19
-0.835
-1.0
-0.34
-0.365
0.03
0.085
0.15
0.77
0.5
-0.115
-0.76
-0.795
-0.19
-0.255
0.115
0.15
0.17
0.925
0.485
-0.15
-0.755
-0.615
-0.205
-0.24
0.24
0.24
0.27
0.92
0.515
-0.09
-0.715
-0.535
-0.165
-0.145
0.23
0.25
0.395
0.95
0.475
-0.185
-0.805
-0.535
-0.17
-0.145
0.16
0.16
0.405
0.83
0.27
-0.32
-0.885
-0.575
-0.32
-0.315
0.05
0.065
0.34
0.71
0.18
-0.45
-1.03
-0.665
-0.445
-0.355
-0.14
-0.095
0.31
0.57
0.045
-0.495
-1.09
-0.69
-0.41
-0.355
-0.195
-0.1
0.38
0.47
-0.08
-0.625
-1.155
-0.635
-0.44
-0.455
-0.18
-0.105
0.44
0.46
-0.035
-0.615
-1.155
-0.635
-0.465
-0.36
-0.13
-0.07
0.51
0.445
-0.075
-0.66
-1.19
-0.635
-0.415
-0.34
-0.18
-0.07
0.51
0.365
-0.14
-0.635
-1.21
-0.61
-0.395
-0.305
-0.16
-0.135
0.48
0.395
-0.12
-0.665
-1.245
-0.585
-0.41
-0.275
-0.15
-0.03
0.595
0.405
-0.125
-0.675
-1.25
-0.6
-0.44
-0.26
-0.175
-0.09
0.62
0.375
-0.18
-0.685
-1.19
-0.545
-0.505
-0.22
-0.195
-0.095
0.66
0.365
-0.25
-0.87
-1.12
-0.515
-0.515
-0.235
-0.14
-0.04
0.66
0.355
-0.315
-0.955
-1.105
-0.535
-0.565
-0.17
-0.09
-0.16
0.635
0.26
-0.35
-1.06
-1.05
-0.555
-0.575
-0.135
-0.11
-0.065
0.665
0.22
-0.45
-1.1
-0.99
-0.51
-0.46
-0.085
-0.095
-0.02
0.635
0.125
-0.535
-1.12
-0.89
-0.525
-0.44
-0.11
-0.065
0.12
0.56
0.135
-0.495
-1.12
-0.795
-0.475
-0.385
-0.08
-0.035
0.185
0.595
0.09
-0.475
-1.075
-0.74
-0.42
-0.31
-0.075
-0.07
0.34
0.615
0.07
-0.545
-1.105
-0.69
-0.4
-0.355
-0.065
-0.035
0.37
0.555
-0.055
-0.63
-1.17
-0.715
-0.49
-0.45
-0.21
-0.12
0.395
0.48
-0.07
-0.65
-1.19
-0.68
-0.44
-0.385
-0.19
-0.1
0.4
0.4
-0.075
-0.63
-1.21
-0.77
-0.535
-0.34
-0.16
-0.115
0.385
0.35
-0.175
-0.705
-1.2
-0.595
-0.44
-0.35
-0.215
-0.15
0.485
0.35
-0.155
-0.725
-1.23
-0.62
-0.455
-0.39
-0.225
-0.115
0.575
0.395
-0.155
-0.725
-1.24
-0.595
-0.405
-0.23
-0.055
0.12
0.945
0.84
0.435
-0.005
-0.51
0.085
0.05
0.18
0.305
0.29
0.87
0.455
-0.255
-0.815
-1.335
-0.705
-0.65
-0.295
-0.16
-0.15
0.585
0.335
-0.29
-0.91
-1.125
-0.455
-0.52
-0.11
-0.11
-0.03
0.745
0.305
-0.385
-1.005
-1.055
-0.46
-0.515
-0.14
-0.14
-0.085
0.68
0.3
-0.38
-0.995
-0.92
-0.445
-0.525
-0.12
-0.085
-0.05
0.66
0.265
-0.39
-1.005
-0.81
-0.46
-0.45
-0.045
-0.035
0.105
0.71
0.23
-0.415
-1.055
-0.84
-0.42
-0.415
-0.03
-0.005
0.22
0.675
0.22
-0.425
-1.005
-0.725
-0.42
-0.33
-0.015
-0.035
0.24
0.685
0.2
-0.355
-1.005
-0.61
-0.305
-0.25
-0.045
0.08
0.44
0.71
0.155
-0.43
-0.97
-0.555
-0.26
-0.16
0.09
0.125
0.565
0.75
0.205
-0.375
-0.875
-0.385
-0.175
-0.18
0.125
0.165
0.69
0.78
0.275
-0.315
-0.83
-0.29
-0.085
0.005
0.19
0.26
0.855
0.8
0.295
-0.255
-0.895
-0.31
-0.025
0.09
0.195
0.265
0.875
0.735
0.23
-0.315
-0.855
-0.315
-0.165
-0.045
0.09
0.155
0.77
0.61
0.1
-0.46
-1.0
-0.53
-0.345
-0.21
-0.06
0.005
0.715
0.455
-0.065
-0.68
-1.22
-0.515
-0.405
-0.305
-0.16
-0.05
0.635
0.365
-0.215
-0.73
-1.185
-0.52
-0.52
-0.295
-0.175
-0.075
0.585
0.29
-0.25
-0.805
-1.19
-0.56
-0.55
-0.25
-0.125
-0.095
0.615
0.28
-0.38
-0.99
-1.155
-0.57
-0.56
-0.15
-0.155
-0.12
0.565
0.18
-0.39
-1.01
-1.08
-0.545
-0.63
-0.215
-0.14
-0.06
0.655
0.3
-0.42
-1.12
-0.97
-0.515
-0.53
-0.14
-0.13
-0.08
0.6
0.2
-0.535
-1.095
-0.895
-0.49
-0.45
-0.125
-0.095
0.005
0.61
0.13
-0.52
-1.035
-0.83
-0.5
-0.44
-0.145
-0.08
0.125
0.605
0.135
-0.57
-1.23
-0.83
-0.47
-0.425
-0.065
-0.085
0.255
0.63
0.07
-0.605
-1.14
-0.725
-0.48
-0.395
-0.18
-0.065
0.285
0.495
0.01
-0.53
-1.18
-0.725
-0.5
-0.395
-0.14
-0.02
0.43
0.475
-0.045
-0.63
-1.175
-0.66
-0.465
-0.39
-0.185
-0.115
0.425
0.475
-0.015
-0.605
-1.115
-0.665
-0.48
-0.365
-0.165
-0.09
0.485
0.405
-0.1
-0.66
-1.16
-0.565
-0.34
-0.275
-0.18
-0.06
0.54
0.44
-0.125
-0.635
-1.105
-0.535
-0.33
-0.295
-0.18
-0.08
0.64
0.455
-0.065
-0.655
-1.15
-0.49
-0.365
-0.26
-0.135
-0.035
0.655
0.345
-0.18
-0.67
-1.13
-0.51
-0.39
-0.215
-0.18
-0.125
0.6
0.355
-0.19
-0.79
-1.22
-0.6
-0.545
-0.3
-0.16
-0.115
0.585
0.285
-0.255
-0.9
-1.185
-0.555
-0.525
-0.175
-0.135
-0.13
0.595
0.3
-0.305
-1.07
-1.24
-0.585
-0.55
-0.14
-0.155
-0.15
0.565
0.265
-0.4
-1.03
-1.04
-0.5
-0.56
-0.1
-0.075
-0.05
0.685
0.275
-0.505
-1.035
-0.92
-0.48
-0.465
-0.01
0.125
0.31
1.06
0.695
0.115
-0.435
-0.18
0.155
0.035
0.445
0.47
0.48
0.935
0.375
-0.36
-1.085
-0.865
-0.49
-0.43
-0.105
-0.1
0.265
0.68
0.1
-0.465
-1.045
-0.715
-0.445
-0.29
-0.03
0.03
0.265
0.58
0.115
-0.44
-1.03
-0.655
-0.405
-0.375
-0.09
-0.015
0.395
0.605
0.03
-0.51
-1.085
-0.64
-0.385
-0.275
0.005
-0.04
0.44
0.5
0.045
-0.535
-1.005
-0.565
-0.385
-0.265
-0.01
0.0
0.51
0.555
0.085
-0.47
-1.03
-0.51
-0.33
-0.27
-0.05
0.0
0.625
0.57
0.07
-0.52
-0.985
-0.385
-0.225
-0.15
0.015
0.085
0.675
0.545
0.075
-0.46
-0.97
-0.4
-0.2
-0.12
0.02
0.07
0.725
0.595
0.03
-0.45
-0.88
-0.365
-0.19
-0.05
0.125
0.205
0.87
0.695
0.19
-0.345
-0.885
-0.295
-0.17
0.09
0.235
0.255
0.935
0.73
0.23
-0.29
-0.78
-0.115
-0.09
0.18
0.36
0.29
1.055
0.81
0.175
-0.485
-0.695
-0.08
-0.085
0.295
0.34
0.36
1.055
0.73
0.085
-0.595
-0.66
-0.15
-0.17
0.235
0.25
0.26
0.945
0.525
-0.115
-0.775
-0.705
-0.315
-0.32
0.14
0.125
0.155
0.79
0.48
-0.29
-0.925
-0.785
-0.4
-0.35
0.07
0.075
0.135
0.61
0.185
-0.455
-1.03
-0.69
-0.365
-0.395
-0.035
0.025
0.225
0.685
0.215
-0.41
-1.04
-0.67
-0.365
-0.335
-0.055
-0.095
0.27
0.69
0.245
-0.42
-1.085
-0.7
-0.455
-0.36
-0.03
0.005
0.42
0.58
0.115
-0.46
-1.04
-0.575
-0.39
-0.305
-0.06
-0.05
0.425
0.605
0.125
-0.485
-1.03
-0.57
-0.4
-0.265
-0.06
0.03
0.57
0.57
0.125
-0.41
-1.0
-0.57
-0.36
-0.245
-0.035
0.05
0.595
0.565
0.045
-0.48
-1.045
-0.535
-0.3
-0.21
0.01
0.035
0.6
0.48
0.015
-0.56
-1.005
-0.485
-0.285
-0.22
-0.07
0.045
0.675
0.5
-0.05
-0.53
-1.035
-0.455
-0.275
-0.24
-0.05
0.045
0.705
0.42
-0.08
-0.565
-1.065
-0.43
-0.365
-0.195
-0.06
0.01
0.69
0.44
-0.1
-0.57
-1.05
-0.52
-0.38
-0.2
-0.055
0.085
0.765
0.565
-0.095
-0.665
-1.04
-0.395
-0.375
-0.01
0.115
0.055
0.76
0.54
-0.05
-0.825
-0.975
-0.37
-0.385
0.045
0.065
0.115
0.755
0.46
-0.195
-0.865
-0.865
-0.41
-0.475
-0.01
0.015
0.035
0.745
0.275
-0.345
-0.905
-0.87
-0.47
-0.475
-0.015
-0.065
0.0
0.685
0.275
-0.35
-0.97
-0.805
-0.425
-0.39
-0.075
-0.03
0.095
0.62
0.2
-0.45
-1.06
-0.78
-0.445
-0.425
-0.07
-0.08
0.195
0.63
0.145
-0.43
-1.045
-0.735
-0.45
-0.345
-0.055
-0.055
0.245
0.63
0.12
-0.46
-1.025
-0.655
-0.38
-0.385
-0.14
-0.015
0.355
0.635
0.205
-0.2
-0.695
-0.135
0.23
0.395
0.73
0.875
1.335
1.45
0.95
0.29
-0.34
-0.035
-0.055
-0.195
-0.09
-0.075
0.42
0.49
-0.01
-0.57
-1.1
-0.52
-0.29
-0.21
0.005
0.02
0.585
0.57
0.09
-0.445
-1.035
-0.455
-0.28
-0.225
-0.055
0.025
0.645
0.5
0.0
-0.535
-1.015
-0.485
-0.35
-0.235
-0.05
0.065
0.685
0.5
-0.045
-0.525
-1.07
-0.475
-0.31
-0.165
-0.065
0.075
0.74
0.58
0.03
-0.54
-1.05
-0.455
-0.325
-0.115
0.015
0.15
0.815
0.5
0.005
-0.625
-0.98
-0.32
-0.335
-0.03
0.08
0.105
0.84
0.595
-0.055
-0.675
-0.93
-0.315
-0.33
0.045
0.13
0.135
0.83
0.56
-0.095
-0.69
-0.825
-0.265
-0.25
0.145
0.185
0.22
0.95
0.575
-0.09
-0.73
-0.73
-0.22
-0.225
0.24
0.29
0.28
0.98
0.625
0.015
-0.575
-0.48
-0.185
-0.135
0.315
0.35
0.41
1.035
0.605
-0.01
-0.565
-0.355
0.025
0.03
0.37
0.395
0.575
1.085
0.61
0.025
-0.645
-0.285
0.005
0.08
0.355
0.395
0.655
0.98
0.465
-0.15
-0.745
-0.41
-0.14
-0.055
0.18
0.205
0.59
0.82
0.245
-0.31
-0.935
-0.505
-0.23
-0.175
0.065
0.11
0.475
0.64
0.195
-0.41
-0.955
-0.545
-0.325
-0.25
-0.05
0.005
0.51
0.54
0.05
-0.495
-1.02
-0.54
-0.34
-0.285
-0.085
-0.055
0.515
0.5
-0.005
-0.565
-1.1
-0.545
-0.305
-0.25
-0.125
-0.02
0.57
0.475
-0.09
-0.635
-1.12
-0.55
-0.4
-0.27
-0.085
0.005
0.59
0.495
0.01
-0.595
-1.115
-0.52
-0.35
-0.24
-0.1
-0.02
0.655
0.43
-0.085
-0.62
-1.095
-0.46
-0.355
-0.255
-0.08
0.04
0.645
0.4
-0.14
-0.545
-1.035
-0.43
-0.39
-0.245
-0.1
-0.02
0.685
0.445
-0.125
-0.645
-1.125
-0.465
-0.43
-0.12
-0.03
-0.01
0.68
0.43
-0.21
-0.835
-1.095
-0.45
-0.46
-0.115
-0.025
-0.035
0.665
0.305
-0.3
-0.875
-0.94
-0.41
-0.47
-0.065
-0.015
-0.005
0.66
0.3
-0.295
-0.94
-0.88
-0.405
-0.44
-0.01
0.0
0.105
0.745
0.32
-0.35
-0.965
-0.785
-0.38
-0.355
0.01
0.02
0.15
0.72
0.27
-0.375
-0.945
-0.7
-0.375
-0.38
-0.055
0.05
0.205
0.705
0.21
-0.45
-1.07
-0.755
-0.465
-0.365
-0.075
-0.065
0.26
0.61
0.08
-0.515
-1.115
-0.775
-0.47
-0.38
-0.155
-0.12
0.31
0.57
0.035
-0.525
-1.165
-0.74
-0.52
-0.41
-0.16
-0.09
0.395
0.505
-0.045
-0.615
-1.14
-0.65
-0.48
-0.405
-0.165
-0.095
0.41
0.47
-0.045
-0.62
-1.165
-0.7
-0.47
-0.38
-0.205
-0.09
0.48
0.43
-0.015
-0.625
-1.205
-0.695
-0.47
-0.26
-0.06
0.075
0.79
0.795
0.4
-0.01
-0.42
0.205
0.41
0.455
0.495
0.615
1.21
0.875
0.17
-0.59
-1.2
-0.665
-0.5
-0.35
-0.21
-0.1
0.535
0.41
-0.09
-0.655
-1.16
-0.56
-0.395
-0.21
-0.09
-0.085
0.58
0.365
-0.165
-0.68
-1.145
-0.54
-0.47
-0.25
-0.12
-0.08
0.64
0.345
-0.205
-0.765
-1.11
-0.53
-0.455
-0.13
-0.115
-0.07
0.625
0.36
-0.27
-0.91
-1.075
-0.52
-0.53
-0.125
-0.055
0.01
0.685
0.315
-0.335
-0.97
-0.96
-0.44
-0.485
-0.035
-0.025
-0.09
0.64
0.3
-0.345
-0.945
-0.805
-0.38
-0.415
-0.065
-0.03
0.04
0.69
0.315
-0.4
-1.055
-0.81
-0.47
-0.39
0.02
0.035
0.21
0.72
0.265
-0.375
-0.955
-0.66
-0.355
-0.27
0.065
0.065
0.385
0.735
0.235
-0.37
-0.93
-0.55
-0.27
-0.205
0.105
0.165
0.52
0.845
0.305
-0.27
-0.875
-0.445
-0.215
-0.075
0.115
0.19
0.645
0.83
0.32
-0.255
-0.8
-0.33
-0.1
-0.02
0.21
0.3
0.74
0.8
0.265
-0.3
-0.83
-0.38
-0.15
-0.06
0.13
0.19
0.72
0.75
0.16
-0.475
-1.11
-0.51
-0.335
-0.275
-0.105
-0.04
0.555
0.45
-0.055
-0.605
-1.095
-0.585
-0.43
-0.305
-0.14
-0.14
0.485
