# TIPE ECG 2021 - ECG-ID Database v1.0.0 par Physionet
# [N° de la personne, N° de l'enregistrement, Période d'échantillonnage, Prénom, Age, Sexe, Date de l'enregistrement]
[88, 1, 0.002, "Edouard", 32, "H", "21.05.2005"]
1.7
1.75
2.03
2.03
2.155
2.56
2.17
1.69
1.215
1.45
1.705
1.77
2.025
2.035
2.235
2.555
2.12
1.655
1.195
1.485
1.735
1.79
2.01
2.005
2.255
2.505
2.095
1.645
1.235
1.57
1.74
1.815
2.035
2.065
2.395
2.53
2.12
1.67
1.235
1.58
1.775
1.835
2.0
2.03
2.4
2.455
2.055
1.58
1.215
1.575
1.72
1.785
1.955
2.015
2.415
2.38
1.95
1.52
1.16
1.59
1.745
1.845
2.005
2.065
2.52
2.46
2.06
1.615
1.19
1.64
1.77
1.855
2.0
2.03
2.495
2.415
2.015
1.58
1.17
1.66
1.745
1.845
1.945
1.995
2.485
2.36
1.935
1.52
1.135
1.6
1.725
1.845
1.965
2.045
2.57
2.38
1.945
1.555
1.185
1.695
1.72
1.915
2.045
2.085
2.625
2.4
1.96
1.455
1.21
1.705
1.685
1.94
2.015
2.045
2.56
2.295
1.85
1.355
1.25
1.73
1.71
2.02
2.07
2.09
2.665
2.335
1.85
1.355
1.33
1.725
1.725
2.06
2.09
2.09
2.615
2.305
1.805
1.34
1.465
1.9
2.01
2.44
2.555
2.725
3.37
3.13
2.73
2.355
2.565
2.935
2.97
3.245
3.105
3.02
3.16
2.495
1.765
1.08
1.245
1.49
1.54
1.805
1.82
1.985
2.325
1.935
1.47
1.01
1.3
1.535
1.62
1.86
1.91
2.215
2.43
2.04
1.57
1.12
1.46
1.66
1.77
1.95
1.985
2.34
2.46
2.04
1.595
1.15
1.495
1.715
1.78
1.955
2.035
2.41
2.46
2.035
1.58
1.195
1.615
1.765
1.85
2.005
2.055
2.49
2.48
2.025
1.615
1.18
1.595
1.77
1.85
1.985
2.04
2.465
2.405
2.02
1.605
1.23
1.695
1.83
1.89
2.05
2.115
2.575
2.49
2.105
1.685
1.28
1.74
1.87
1.99
2.085
2.135
2.655
2.525
2.105
1.71
1.345
1.815
1.9
2.075
2.19
2.25
2.785
2.63
2.24
1.845
1.445
1.935
2.02
2.195
2.28
2.325
2.85
2.665
2.23
1.75
1.465
1.955
1.985
2.23
2.335
2.34
2.875
2.66
2.15
1.625
1.505
1.98
1.95
2.245
2.31
2.31
2.815
2.535
2.015
1.49
1.455
1.845
1.815
2.12
2.11
2.11
2.62
2.295
1.76
1.275
1.3
1.67
1.655
1.96
1.95
1.97
2.485
2.095
1.605
1.12
1.265
1.57
1.61
1.87
1.875
1.985
2.405
1.985
1.46
0.99
1.205
1.48
1.515
1.8
1.82
1.975
2.33
1.955
1.44
0.985
1.26
1.505
1.55
1.815
1.82
2.055
2.295
1.865
1.4
0.95
1.27
1.485
1.535
1.735
1.745
2.06
2.21
1.79
1.35
0.905
1.235
1.44
1.495
1.7
1.755
2.11
2.165
1.775
1.295
0.875
1.25
1.405
1.485
1.635
1.69
2.09
2.08
1.665
1.225
0.815
1.23
1.36
1.435
1.605
1.61
2.025
1.975
1.57
1.12
0.725
1.17
1.31
1.425
1.53
1.555
2.005
1.945
1.5
1.07
0.685
1.14
1.22
1.32
1.435
1.49
1.95
1.82
1.38
0.985
0.62
1.075
1.19
1.295
1.375
1.44
1.945
1.755
1.325
0.91
0.535
1.02
1.065
1.22
1.39
1.39
1.885
1.71
1.275
0.795
0.505
0.985
0.995
1.205
1.315
1.36
1.855
1.61
1.14
0.635
0.46
0.955
0.93
1.255
1.315
1.305
1.835
1.54
1.055
0.555
0.535
0.955
0.945
1.27
1.305
1.325
1.855
1.53
0.995
0.535
0.605
0.965
0.97
1.295
1.315
1.33
1.84
1.495
1.0
0.53
0.685
1.005
1.045
1.36
1.375
1.465
1.895
1.53
1.025
0.55
0.785
1.06
1.085
1.315
1.365
1.565
1.885
1.465
0.985
0.515
0.815
1.01
1.08
1.315
1.365
1.585
1.875
1.4
0.915
0.49
0.795
1.025
1.11
1.335
1.385
1.665
1.865
1.44
0.955
0.49
0.87
1.075
1.135
1.32
1.355
1.74
1.805
1.39
0.86
0.46
0.83
1.015
1.095
1.23
1.275
1.71
1.73
1.36
0.895
0.46
0.86
1.01
1.085
1.26
1.31
1.76
1.715
1.295
0.84
0.46
0.88
1.03
1.11
1.27
1.315
1.79
1.725
1.285
0.815
0.37
0.865
1.03
1.1
1.235
1.29
1.81
1.68
1.245
0.805
0.4
0.885
0.99
1.12
1.225
1.27
1.825
1.665
1.21
0.795
0.415
0.88
0.965
1.125
1.245
1.32
1.9
1.685
1.195
0.73
0.38
0.895
0.94
1.16
1.28
1.345
1.87
1.665
1.165
0.615
0.425
0.92
0.93
1.205
1.285
1.3
1.85
1.575
1.07
0.53
0.47
0.945
1.02
1.41
1.51
1.655
2.34
2.165
1.755
1.37
1.5
1.95
2.055
2.465
2.57
2.575
3.065
2.495
1.74
0.94
0.735
0.855
0.77
1.035
1.03
1.16
1.605
1.23
0.75
0.275
0.505
0.775
0.835
1.15
1.2
1.39
1.775
1.37
0.88
0.435
0.69
0.925
1.015
1.29
1.285
1.525
1.78
1.38
0.9
0.465
0.78
0.975
1.075
1.28
1.345
1.67
1.8
1.4
0.955
0.53
0.875
1.075
1.13
1.325
1.37
1.74
1.815
1.455
0.985
0.55
0.935
1.115
1.18
1.335
1.395
1.81
1.84
1.43
0.99
0.585
0.995
1.19
1.285
1.425
1.455
1.875
1.825
1.415
1.015
0.61
1.05
1.225
1.315
1.48
1.57
2.015
1.92
1.485
1.08
0.695
1.145
1.28
1.39
1.525
1.615
2.1
1.95
1.6
1.175
0.81
1.27
1.405
1.56
1.68
1.74
2.215
2.07
1.665
1.25
0.88
1.36
1.44
1.615
1.74
1.78
2.33
2.115
1.655
1.22
0.9
1.38
1.415
1.61
1.74
1.725
2.245
2.005
1.535
0.99
0.815
1.3
1.26
1.555
1.585
1.595
2.095
1.84
1.315
0.785
0.725
1.165
1.12
1.43
1.465
1.45
1.96
1.665
1.155
0.635
0.695
1.04
1.03
1.325
1.355
1.34
1.84
1.495
1.005
0.5
0.64
0.965
0.98
1.26
1.29
1.345
1.78
1.365
0.9
0.45
0.66
0.91
0.95
1.19
1.205
1.41
1.73
1.355
0.86
0.385
0.68
0.91
0.975
1.225
1.23
1.475
1.745
1.32
0.85
0.405
0.72
0.925
1.005
1.21
1.275
1.555
1.745
1.34
0.89
0.445
0.765
0.97
1.08
1.235
1.285
1.64
1.715
1.31
0.845
0.45
0.795
1.02
1.08
1.225
1.255
1.665
1.64
1.27
0.835
0.425
0.815
0.955
1.055
1.18
1.255
1.7
1.64
1.225
0.775
0.375
0.815
0.995
1.07
1.185
1.27
1.72
1.645
1.25
0.82
0.415
0.88
1.045
1.125
1.26
1.3
1.805
1.695
1.25
0.825
0.49
0.925
1.01
1.12
1.265
1.345
1.83
1.66
1.235
0.86
0.475
0.945
0.995
1.165
1.285
1.335
1.85
1.665
1.2
0.745
0.445
0.925
0.945
1.2
1.31
1.34
1.81
1.615
1.15
0.62
0.445
0.955
0.94
1.19
1.28
1.27
1.835
1.54
1.045
0.525
0.47
0.915
0.905
1.22
1.25
1.265
1.805
1.51
0.98
0.51
0.55
0.92
0.92
1.26
1.28
1.29
1.815
1.48
0.985
0.51
0.64
0.945
0.975
1.275
1.31
1.39
1.815
1.435
0.955
0.49
0.69
0.965
1.0
1.245
1.3
1.485
1.8
1.41
0.945
0.475
0.74
0.96
1.04
1.265
1.3
1.56
1.795
1.4
0.935
0.535
0.805
1.005
1.085
1.3
1.325
1.625
1.77
1.38
0.93
0.49
0.86
1.055
1.14
1.32
1.36
1.7
1.8
1.4
0.975
0.565
0.965
1.15
1.235
1.405
1.46
1.845
1.85
1.44
0.99
0.575
0.965
1.125
1.22
1.37
1.425
1.84
1.835
1.395
0.965
0.555
0.975
1.11
1.24
1.37
1.445
1.86
1.795
1.375
0.96
0.575
1.005
1.12
1.195
1.33
1.41
1.855
1.755
1.345
0.94
0.535
1.035
1.145
1.255
1.37
1.48
1.96
1.78
1.365
0.96
0.555
1.08
1.13
1.29
1.415
1.475
2.0
1.79
1.345
0.895
0.575
1.065
1.1
1.33
1.43
1.455
1.99
1.73
1.275
0.755
0.57
1.035
1.03
1.345
1.475
1.56
2.19
2.05
1.64
1.32
1.38
1.94
2.04
2.455
2.555
2.64
3.25
2.94
2.34
1.625
1.32
1.385
1.115
1.225
1.16
1.17
1.67
1.35
0.85
0.36
0.515
0.865
0.905
1.19
1.24
1.385
1.83
1.485
1.02
0.545
0.77
1.04
1.095
1.36
1.355
1.52
1.86
1.45
0.985
0.54
0.815
1.05
1.1
1.325
1.34
1.615
1.865
1.43
0.975
0.535
0.85
1.035
1.135
1.35
1.39
1.69
1.855
1.41
0.985
0.53
0.89
1.1
1.16
1.355
1.425
1.775
1.88
1.44
0.975
0.565
0.945
1.12
1.2
1.385
1.445
1.83
1.85
1.455
0.985
0.58
1.025
1.19
1.31
1.45
1.545
1.985
1.93
1.56
1.125
0.725
1.165
1.355
1.435
1.57
1.605
2.17
2.065
1.67
1.245
0.835
1.34
1.48
1.585
1.74
1.835
2.335
2.215
1.81
1.41
1.025
1.505
1.615
1.755
1.88
1.935
2.47
2.3
1.855
1.45
1.045
1.52
1.59
1.755
1.835
1.895
2.445
2.195
1.76
1.32
0.955
1.43
1.435
1.66
1.75
1.76
2.255
2.01
1.575
0.995
0.8
1.335
1.275
1.515
1.6
1.62
2.155
1.87
1.34
0.835
0.77
1.2
1.185
1.505
1.52
1.525
2.08
1.78
1.245
0.72
0.76
1.14
1.165
1.505
1.475
1.47
2.01
1.665
1.17
0.64
0.78
1.11
1.125
1.43
1.435
1.53
1.965
1.605
1.075
0.605
0.82
1.095
1.155
1.435
1.455
1.64
1.995
1.585
1.11
0.655
0.91
1.15
1.2
1.43
1.46
1.68
1.96
1.535
1.04
0.58
0.895
1.115
1.175
1.395
1.465
1.755
1.93
1.525
1.065
0.62
0.945
1.15
1.24
1.44
1.47
1.815
1.9
1.495
1.04
0.625
0.97
1.17
1.3
1.45
1.45
1.855
1.875
1.475
1.05
0.65
1.07
1.225
1.325
1.475
1.53
1.97
1.935
1.52
1.065
0.705
1.11
1.265
1.36
1.525
1.54
1.97
1.875
1.465
1.035
0.645
1.09
1.28
1.35
1.46
1.555
2.055
1.885
1.475
1.065
0.69
1.17
1.29
1.385
1.49
1.55
2.055
1.885
1.5
1.045
0.705
1.14
1.21
1.36
1.485
1.55
2.065
1.865
1.415
1.005
0.67
1.135
1.19
1.38
1.505
1.51
2.025
1.815
1.37
0.84
0.665
1.175
1.215
1.465
1.535
1.555
2.12
1.88
1.39
0.88
0.78
1.225
1.215
1.55
1.595
1.63
2.14
1.84
1.34
0.86
0.88
1.275
1.265
1.605
1.615
1.625
2.13
1.825
1.33
0.82
0.935
1.285
1.29
1.595
1.6
1.735
2.185
1.835
1.345
0.86
1.085
1.355
1.4
1.67
1.705
1.825
2.19
1.795
1.325
0.855
1.105
1.345
1.425
1.66
1.68
1.895
2.17
1.78
1.31
0.83
1.115
1.36
1.41
1.625
1.7
1.955
2.14
1.73
1.26
0.825
1.205
1.37
1.425
1.655
1.69
2.035
2.11
1.69
1.235
0.785
1.16
1.335
1.43
1.59
1.625
2.05
2.045
1.61
1.155
0.76
1.14
1.3
1.38
1.57
1.59
1.985
1.95
1.56
1.095
0.705
1.165
1.28
1.35
1.495
1.555
2.01
1.93
1.505
1.08
0.695
1.15
1.26
1.385
1.495
1.535
2.005
1.88
1.44
1.02
0.615
1.09
1.22
1.315
1.45
1.49
1.985
1.865
1.385
1.01
0.69
1.26
1.43
1.71
1.925
2.105
2.77
2.76
2.4
2.065
1.725
2.305
2.325
2.565
2.58
2.38
2.685
2.19
1.46
0.72
0.4
0.915
0.915
1.195
1.265
1.225
1.755
1.525
1.045
0.54
0.435
0.875
0.905
1.25
1.305
1.335
1.92
1.645
1.14
0.655
0.67
1.085
1.09
1.425
1.445
1.47
2.045
1.72
1.23
0.74
0.82
1.175
1.175
1.49
1.51
1.595
2.045
1.685
1.185
0.675
0.865
1.165
1.22
1.495
1.525
1.65
2.01
1.61
1.15
0.685
0.935
1.195
1.275
1.525
1.56
1.775
2.1
1.685
1.21
0.775
1.07
1.3
1.37
1.595
1.65
1.855
2.115
1.705
1.225
0.745
1.045
1.24
1.32
1.51
1.545
1.91
2.06
1.635
1.2
0.78
1.15
1.34
1.45
1.655
1.66
2.075
2.135
1.7
1.25
0.875
1.255
1.425
1.515
1.7
1.77
2.18
2.155
1.76
1.335
0.92
1.355
1.54
1.61
1.755
1.8
2.265
2.165
1.75
1.305
0.915
1.345
1.5
1.595
1.69
1.685
2.17
2.02
1.58
1.14
0.715
1.205
1.31
1.375
1.46
1.525
2.015
1.82
1.375
0.935
0.53
1.015
1.1
1.215
1.275
1.32
1.845
1.63
1.22
0.815
0.4
0.92
0.935
1.135
1.255
1.295
1.855
1.635
1.17
0.7
0.41
0.945
0.915
1.14
1.215
1.235
1.75
1.495
1.025
0.505
0.375
0.85
0.845
1.1
1.13
1.135
1.665
1.36
0.865
0.38
0.375
0.77
0.755
1.075
1.1
1.095
1.625
1.3
0.8
0.33
0.445
0.775
0.765
1.085
1.11
1.165
1.64
1.285
0.79
0.325
0.51
0.79
0.845
1.13
1.17
1.295
1.69
1.32
0.835
0.37
0.62
0.9
0.935
1.19
1.21
1.415
1.745
1.33
0.865
0.455
0.695
0.87
0.965
1.22
1.225
1.51
1.695
1.25
0.8
0.33
0.665
0.85
0.9
1.085
1.155
1.475
1.62
1.17
0.705
0.25
0.615
0.785
0.865
1.025
1.065
1.45
1.475
1.055
0.615
0.195
0.6
0.745
0.82
0.98
1.015
1.435
1.395
1.025
0.59
0.15
0.59
0.735
0.83
0.965
1.005
1.435
1.345
0.94
0.505
0.085
0.54
0.665
0.72
0.885
0.985
1.41
1.305
0.905
0.485
0.055
0.52
0.66
0.735
0.825
0.88
1.365
1.245
0.81
0.42
0.03
0.52
0.605
0.735
0.835
0.92
1.415
1.26
0.855
0.465
0.085
0.56
0.625
0.805
0.905
0.975
1.505
1.295
0.83
0.34
0.085
0.575
0.585
0.81
0.93
0.965
1.49
1.24
0.775
0.275
0.12
0.57
0.555
0.825
0.865
0.88
1.41
1.145
0.615
0.115
0.105
0.53
0.515
0.835
0.875
0.925
1.44
1.075
0.595
0.135
0.19
0.535
0.555
0.9
0.9
0.935
1.445
1.115
0.63
0.125
0.3
0.63
0.65
0.95
0.98
1.065
1.485
1.115
0.635
0.14
0.355
0.635
0.73
1.005
1.015
1.225
1.55
1.14
0.67
0.225
0.51
0.765
0.83
1.045
1.08
1.35
1.595
1.185
0.745
0.33
0.65
0.815
0.9
1.095
1.16
1.515
1.64
1.215
0.76
0.33
0.735
0.97
1.085
1.365
1.51
2.03
2.2
1.895
1.575
1.26
1.745
2.0
2.15
2.29
2.305
2.595
2.39
1.685
1.03
0.395
0.595
0.675
0.75
0.905
0.935
1.375
1.365
0.875
0.445
0.06
0.515
0.68
0.8
0.92
0.995
1.475
1.395
0.995
0.58
0.22
0.68
0.85
0.945
1.075
1.145
1.635
1.505
1.09
0.7
0.325
0.79
0.895
0.99
1.11
1.19
1.71
1.54
1.125
0.75
0.37
0.855
0.915
1.115
1.205
1.25
1.795
1.63
1.145
0.73
0.47
0.93
0.95
1.205
1.36
1.36
1.875
1.64
1.165
0.675
0.51
0.99
0.985
1.28
1.37
1.405
1.94
1.685
1.205
0.71
0.68
1.1
1.115
1.475
1.505
1.54
2.08
1.765
1.305
0.835
0.89
1.28
1.305
1.64
1.655
1.66
2.17
1.86
1.39
0.92
1.08
1.385
1.43
1.73
1.75
1.875
2.295
1.9
1.44
0.945
1.155
1.44
1.485
1.76
1.805
1.995
2.325
1.905
1.4
0.94
1.215
1.445
1.49
1.725
1.74
2.025
2.235
1.79
1.35
0.85
1.2
1.38
1.43
1.62
1.655
1.95
2.075
1.64
1.175
0.69
1.03
1.24
1.29
1.495
1.525
1.87
1.925
1.52
1.045
0.625
0.995
1.155
1.21
1.395
1.445
1.83
1.835
1.435
0.96
0.57
0.96
1.105
1.185
1.325
1.395
1.785
1.74
1.32
0.93
0.52
0.94
1.105
1.165
1.215
1.2
1.6
1.46
1.02
0.57
0.155
0.58
0.705
0.81
0.9
0.92
1.35
1.255
0.865
0.405
-0.02
0.44
0.54
0.67
0.75
0.8
1.31
1.145
0.73
0.325
-0.085
0.44
0.405
0.575
0.655
0.72
1.23
0.995
0.525
0.07
-0.245
0.255
0.305
0.475
0.575
0.62
1.145
0.97
0.49
-0.04
-0.19
0.31
0.285
0.57
0.66
0.68
1.205
0.925
0.45
-0.075
-0.12
0.325
0.36
0.61
0.675
0.705
1.235
0.945
0.46
-0.065
-0.015
0.36
0.355
0.655
0.67
0.75
1.25
0.92
0.425
-0.075
0.06
0.41
0.4
0.67
0.705
0.79
1.255
0.875
0.395
-0.1
0.115
0.385
0.45
0.71
0.725
0.885
1.245
0.865
0.365
-0.105
0.145
0.425
0.48
0.7
0.745
0.965
1.215
0.83
0.345
-0.12
0.19
0.415
0.495
0.72
0.77
1.055
1.27
0.86
0.42
-0.04
0.31
0.56
0.615
0.79
0.85
1.195
1.295
0.915
0.43
0.005
0.4
0.585
0.665
0.82
0.845
1.25
1.27
0.86
0.405
-0.015
0.41
0.54
0.625
0.775
0.85
1.25
1.21
0.825
0.35
-0.06
0.355
0.505
0.575
0.67
0.725
1.185
1.08
0.675
0.24
-0.175
0.285
0.43
0.5
0.64
0.71
1.185
1.04
0.61
0.19
-0.24
0.225
0.305
0.425
0.545
0.62
1.14
0.995
0.55
0.155
-0.235
0.255
0.33
0.505
0.6
0.675
1.18
0.95
0.53
0.145
-0.235
0.265
0.275
0.46
0.55
0.55
1.065
0.865
0.42
-0.125
-0.285
0.22
0.205
0.5
0.59
0.59
1.14
0.88
0.375
-0.11
-0.19
0.225
0.265
0.64
0.74
0.835
1.46
1.32
0.95
0.595
0.765
1.22
1.295
1.73
1.785
1.82
2.395
1.985
1.265
0.585
0.43
0.43
0.255
0.425
0.4
0.505
0.97
0.575
0.09
-0.395
-0.165
0.115
0.175
0.455
0.49
0.67
1.055
0.68
0.18
-0.26
0.01
0.28
0.355
0.62
0.645
0.895
1.175
0.775
0.31
-0.14
0.175
0.38
0.47
0.7
0.755
1.03
1.255
0.845
0.39
-0.06
0.29
0.45
0.51
0.73
0.785
1.13
1.24
0.79
0.34
-0.075
0.345
0.515
0.59
0.76
0.82
1.235
1.275
0.83
0.38
-0.01
0.39
0.565
0.66
0.83
0.885
1.315
1.31
0.925
0.505
0.1
0.53
0.69
0.795
0.945
1.035
1.5
1.44
1.03
0.61
0.235
0.68
0.85
0.965
1.135
1.185
1.66
1.535
1.135
0.725
0.35
0.84
0.98
1.105
1.19
1.245
1.775
1.6
1.2
0.8
0.42
0.925
0.99
1.095
1.22
1.275
1.77
1.58
1.14
0.76
0.37
0.89
0.915
1.115
1.18
1.21
1.715
1.535
1.06
0.515
0.305
0.775
0.77
1.045
1.1
1.095
1.595
1.335
0.845
0.305
0.195
0.625
0.615
0.92
0.97
0.985
1.495
1.21
0.69
0.19
0.215
0.605
0.525
0.895
0.915
0.89
1.405
1.075
0.58
0.055
0.19
0.54
0.55
0.885
0.885
0.915
1.38
1.01
0.535
0.055
0.225
0.535
0.59
0.86
0.885
1.04
1.425
0.99
0.54
0.07
0.29
0.525
0.62
0.85
0.895
1.115
1.4
1.0
0.525
0.065
0.35
0.57
0.625
0.875
0.915
1.165
1.385
0.945
0.505
0.085
0.41
0.625
0.705
0.89
0.92
1.285
1.37
0.955
0.515
0.1
0.45
0.64
0.72
0.86
0.915
1.295
1.365
0.96
0.5
0.07
0.465
0.625
0.665
0.82
0.855
1.295
1.235
0.85
0.415
-0.005
0.405
0.55
0.645
0.75
0.81
1.255
1.185
0.76
0.34
-0.075
0.375
0.53
0.635
0.745
0.795
1.265
1.11
0.685
0.265
-0.125
0.295
0.465
0.575
0.635
0.715
1.205
1.05
0.635
0.23
-0.185
0.28
0.34
0.44
0.585
0.615
1.11
0.92
0.475
0.075
-0.295
0.19
0.275
0.47
0.55
0.58
1.115
0.91
0.46
0.005
-0.26
0.24
0.275
0.515
0.62
0.635
1.165
0.925
0.44
-0.05
-0.15
0.31
0.265
0.565
0.62
0.64
1.145
0.88
0.38
-0.125
-0.11
0.305
0.305
0.635
0.67
0.68
1.22
0.91
0.435
-0.06
0.035
0.395
0.39
0.73
0.77
0.84
1.325
0.985
0.5
0.03
0.23
0.54
0.59
0.885
0.87
1.0
1.375
1.01
0.53
0.04
0.275
0.535
0.585
0.86
0.86
1.04
1.34
0.95
0.47
0.03
0.315
0.525
0.615
0.805
0.865
1.125
1.38
0.97
0.505
0.07
0.375
0.6
0.62
0.825
0.9
1.215
1.37
0.97
0.51
0.08
0.44
0.61
0.715
0.89
0.91
1.275
1.35
0.94
0.48
0.09
0.51
0.665
0.735
0.945
0.98
1.395
1.44
0.985
0.52
0.14
0.57
0.72
0.79
0.945
0.995
1.42
1.365
0.975
0.55
0.125
0.57
0.71
0.83
1.035
1.155
1.73
1.74
1.45
1.135
0.885
1.485
1.715
1.87
2.075
2.225
2.755
2.65
2.155
1.54
0.865
0.995
0.805
0.755
0.74
0.77
1.285
1.11
0.68
0.28
-0.065
0.45
0.48
0.665
0.805
0.9
1.44
1.25
0.82
0.37
0.09
0.605
0.62
0.855
0.96
0.995
1.53
1.305
0.815
0.32
0.195
0.68
0.675
0.99
1.03
1.055
1.62
1.325
0.84
0.35
0.34
0.755
0.745
1.105
1.135
1.135
1.64
1.355
0.825
0.355
0.38
0.745
0.755
1.095
1.115
1.17
1.69
1.305
0.81
0.32
0.5
0.8
0.795
1.085
1.105
1.21
1.62
1.255
0.765
0.29
0.505
0.765
0.82
1.08
1.115
1.315
1.63
1.225
0.775
0.315
0.625
0.83
0.89
1.125
1.17
1.42
1.635
1.23
0.76
0.345
0.68
0.88
0.98
1.195
1.235
1.545
1.695
1.305
0.84
0.41
0.815
0.985
1.065
1.225
1.285
1.67
1.73
1.335
0.875
0.445
0.845
1.025
1.07
1.21
1.29
1.67
1.655
1.22
0.745
0.335
0.74
0.845
0.905
1.025
1.07
1.485
1.375
0.975
0.545
0.14
0.56
0.695
0.725
0.865
0.87
1.335
1.24
0.825
0.395
-0.01
0.415
0.565
0.635
0.785
0.885
1.345
1.2
0.78
0.39
-0.005
0.5
0.58
0.72
0.835
0.9
1.42
1.245
0.82
0.42
0.05
0.545
0.57
0.745
0.85
0.925
1.44
1.265
0.79
0.33
0.05
0.55
0.585
0.81
0.91
0.925
1.475
1.235
0.76
0.27
0.075
0.575
0.57
0.86
0.915
0.935
1.445
1.17
0.69
0.195
0.165
0.59
0.6
0.92
0.935
0.94
1.47
1.195
0.68
0.175
0.26
0.615
0.62
0.94
0.94
0.965
1.47
1.135
0.64
0.155
0.3
0.63
0.65
0.96
0.96
1.055
1.495
1.095
0.605
0.165
0.37
0.64
0.69
0.93
0.92
1.145
1.48
1.09
0.605
0.16
0.45
0.685
0.735
0.99
0.995
1.265
1.505
1.095
0.65
0.205
0.51
0.74
0.815
1.015
1.075
1.415
1.565
1.115
0.685
0.24
0.615
0.8
0.88
1.07
1.125
1.45
1.54
1.13
0.69
0.275
0.66
0.82
0.89
1.06
1.125
1.545
1.48
1.08
0.655
0.245
0.685
0.82
0.89
1.01
1.065
1.485
1.45
1.03
0.605
0.2
0.635
0.765
0.87
0.98
1.02
1.48
1.36
0.99
0.565
0.17
0.61
0.74
0.84
0.93
0.995
1.5
1.34
0.945
0.515
0.135
0.62
0.725
0.835
0.95
1.03
1.5
1.34
0.895
0.53
0.135
0.6
0.68
0.835
0.935
1.025
1.52
1.345
0.9
0.435
0.145
0.63
0.685
0.905
1.005
0.995
1.52
1.25
0.79
0.265
0.1
0.59
0.575
0.86
0.915
0.91
1.47
1.2
0.72
0.225
0.16
0.615
0.59
0.91
0.935
0.945
1.495
1.19
0.68
0.2
0.25
0.6
0.63
0.95
0.99
0.99
1.495
1.115
0.63
0.15
0.295
0.615
0.64
0.965
0.99
1.065
1.485
1.12
0.65
0.16
0.4
0.67
0.715
0.955
0.985
1.18
1.505
1.1
0.635
0.165
0.495
0.715
0.785
0.975
1.035
1.31
1.525
1.13
0.66
0.22
0.535
0.74
0.77
0.945
0.98
1.275
1.425
0.97
0.525
0.06
0.37
0.535
0.61
0.77
0.77
1.14
1.215
0.79
0.335
-0.085
0.315
0.495
0.62
0.86
0.98
1.45
1.62
1.285
1.005
0.74
1.285
1.525
1.68
1.925
2.055
2.54
2.495
2.0
1.325
0.66
0.78
0.68
0.56
0.585
0.68
1.14
1.02
0.61
0.215
-0.18
0.295
0.45
0.565
0.685
0.78
1.295
1.175
0.735
0.325
-0.045
0.445
0.58
0.69
0.83
0.865
1.375
1.22
0.8
0.385
-0.005
0.48
0.53
0.68
0.795
0.84
1.385
1.195
0.77
0.315
0.01
0.545
0.59
0.84
0.945
0.945
1.51
1.22
0.815
0.28
0.105
0.575
0.59
0.885
0.945
0.97
1.51
1.26
0.755
0.265
0.265
0.64
0.62
0.94
0.96
0.995
1.51
1.195
0.72
0.205
0.265
0.635
0.65
1.005
1.03
1.055
1.57
1.27
0.78
0.3
0.455
0.78
0.825
1.1
1.155
1.25
1.715
1.32
0.85
0.395
0.62
0.89
1.04
1.245
1.25
1.47
1.83
1.445
0.97
0.515
0.78
1.025
1.095
1.32
1.34
1.61
1.87
1.455
0.97
0.53
0.86
1.065
1.13
1.325
1.355
1.67
1.795
1.41
0.96
0.495
0.78
0.98
1.025
1.21
1.235
1.625
1.645
1.165
0.71
0.285
0.655
0.845
0.915
1.055
1.105
1.5
1.45
1.07
0.595
0.18
0.585
0.735
0.83
0.97
1.025
1.435
1.4
0.97
0.55
0.18
0.605
0.76
0.83
0.945
1.02
1.495
1.405
1.005
0.57
0.17
0.605
0.785
0.935
0.98
1.035
1.535
1.395
0.985
0.555
0.19
0.665
0.775
0.9
1.0
1.05
1.545
1.39
0.975
0.575
0.175
0.665
0.76
0.93
1.0
1.08
1.625
1.42
0.995
0.525
0.23
0.75
0.77
0.995
1.135
1.17
1.73
1.475
1.035
0.505
0.35
0.83
0.835
1.11
1.18
1.195
1.73
1.45
0.95
0.435
0.395
0.84
0.815
1.155
1.16
1.175
1.725
1.43
0.93
0.445
0.475
0.86
0.87
1.205
1.22
1.25
1.745
1.41
0.915
0.435
0.59
0.885
0.91
1.22
1.23
1.33
1.765
1.385
0.925
0.45
0.66
0.925
0.965
1.225
1.24
1.425
1.78
1.385
0.9
0.42
0.66
0.9
0.99
1.185
1.21
1.495
1.725
1.29
0.85
0.415
0.725
0.955
1.02
1.205
1.285
1.605
1.765
1.325
0.87
0.44
0.805
1.035
1.08
1.27
1.31
1.7
1.755
1.335
0.895
0.485
0.87
1.035
1.11
1.27
1.295
1.76
1.74
1.345
0.895
0.505
0.91
1.05
1.15
1.33
1.36
1.77
1.75
1.335
0.895
0.505
0.95
1.085
1.175
1.295
1.37
1.835
1.73
1.32
0.895
0.515
0.96
1.09
1.19
1.295
1.36
1.82
1.715
1.28
0.875
0.485
0.935
1.045
1.15
1.24
1.3
1.795
1.645
1.175
0.81
0.4
0.88
0.92
1.065
1.205
1.21
1.745
1.535
1.09
0.64
0.33
0.835
0.83
1.055
1.17
1.21
1.74
1.525
1.085
0.545
0.375
0.865
0.9
1.19
1.235
1.195
1.77
1.53
1.02
0.475
0.45
0.87
0.865
1.185
1.225
1.22
1.74
1.47
0.935
0.43
0.48
0.83
0.87
1.18
1.2
1.22
1.73
1.38
0.88
0.46
0.545
0.855
0.9
1.19
1.22
1.31
1.7
1.35
0.9
0.385
0.615
0.895
0.925
1.175
1.2
1.355
1.7
1.305
0.835
0.375
0.59
0.87
0.94
1.12
1.155
1.41
1.665
1.235
0.765
0.315
0.625
0.83
0.89
1.105
1.15
1.44
1.615
1.175
0.74
0.27
0.615
0.805
0.895
1.115
1.21
1.675
1.855
1.565
1.26
0.95
1.475
1.805
1.925
2.185
2.3
2.805
2.82
2.4
1.74
1.155
1.295
1.17
0.96
0.94
0.96
1.37
1.35
0.935
0.485
0.08
0.525
0.715
0.83
0.91
0.975
1.455
1.395
1.035
0.64
0.27
0.715
0.885
0.99
1.12
1.165
1.655
1.51
1.105
0.675
0.315
0.78
0.905
1.01
1.13
1.2
1.7
1.54
1.135
0.72
0.36
0.845
0.885
1.045
1.165
1.235
1.745
1.56
1.135
0.7
0.385
0.87
0.9
1.125
1.21
1.25
1.785
1.585
1.13
0.6
0.435
0.93
0.92
1.2
1.275
1.33
1.84
1.57
1.08
0.595
0.545
0.99
1.025
1.355
1.38
1.42
1.945
1.63
1.145
0.675
0.735
1.11
1.14
1.45
1.465
1.51
2.06
1.735
1.27
0.795
0.935
1.27
1.31
1.625
1.64
1.685
2.175
1.81
1.32
0.86
1.1
1.375
1.415
1.7
1.735
1.875
2.255
1.85
1.365
0.91
1.18
1.42
1.5
1.715
1.71
1.98
2.225
1.79
1.31
0.86
1.145
1.335
1.4
1.6
1.6
1.9
2.055
1.61
1.13
0.68
1.025
1.2
1.25
1.44
1.465
1.805
1.92
1.44
0.98
0.57
0.925
1.095
1.16
1.36
1.36
1.76
1.765
1.35
0.875
0.46
0.87
1.05
1.125
1.285
1.33
1.755
1.71
1.325
0.88
0.47
0.88
1.05
1.155
1.29
1.36
1.81
1.72
1.315
0.895
0.52
0.99
1.09
1.18
1.34
1.43
1.9
1.73
1.33
0.925
0.525
0.99
1.145
1.24
1.34
1.41
1.895
1.74
1.325
0.935
0.555
1.005
1.105
1.235
1.385
1.42
1.99
1.81
1.35
0.935
0.615
1.115
1.14
1.355
1.485
1.505
2.065
1.82
1.385
0.85
0.655
1.14
1.15
1.4
1.475
1.505
2.03
1.775
1.305
0.815
0.715
1.17
1.15
1.455
1.495
1.52
2.04
1.765
1.245
0.765
0.77
1.165
1.195
1.475
1.515
1.52
2.065
1.75
1.26
0.775
0.915
1.245
1.26
1.565
1.585
1.655
2.105
1.72
1.245
0.76
0.955
1.22
1.24
1.5
1.555
1.67
2.035
1.62
1.14
0.66
0.925
1.165
1.225
1.46
1.49
1.715
1.99
1.595
1.115
0.655
0.945
1.15
1.22
1.42
1.47
1.76
1.935
1.525
1.025
0.61
0.955
1.14
1.2
1.385
1.415
1.755
1.845
1.43
0.985
0.495
0.905
1.085
1.155
1.285
1.325
1.73
1.735
1.33
0.87
0.45
0.835
1.02
1.1
1.245
1.29
1.715
1.665
1.255
0.805
0.395
0.8
0.93
1.025
1.155
1.195
1.66
1.555
1.13
0.685
0.28
0.74
0.875
0.985
1.12
1.175
1.675
1.57
1.15
0.74
0.375
0.81
0.925
1.025
1.14
1.205
1.655
1.52
1.065
0.67
0.29
0.77
0.83
0.98
1.07
1.115
1.625
1.43
1.01
0.585
0.22
0.725
0.73
0.97
1.065
1.07
1.595
1.345
0.895
0.375
0.23
0.695
0.67
0.96
1.03
1.03
1.58
1.3
0.81
0.3
0.22
0.67
0.645
0.94
0.97
0.98
1.525
1.24
0.72
0.24
0.28
0.64
0.66
0.975
0.975
0.975
1.525
1.175
0.66
0.215
0.32
0.63
0.66
0.965
0.98
1.005
1.48
1.115
0.62
0.14
0.335
0.625
0.735
1.025
1.14
1.425
1.905
1.64
1.285
0.97
1.345
1.68
1.815
2.065
2.14
2.375
2.575
1.965
1.265
0.565
0.58
0.585
0.51
0.68
0.71
1.025
1.22
0.755
0.27
-0.175
0.195
0.38
0.465
0.675
0.72
1.08
1.175
0.78
0.355
-0.075
0.32
0.5
0.575
0.78
0.82
1.2
1.235
0.81
0.36
-0.015
0.375
0.505
0.59
0.75
0.8
1.245
1.18
0.77
0.33
-0.05
0.325
0.485
0.56
0.695
0.775
1.23
1.11
0.68
0.265
-0.115
0.335
0.465
0.555
0.665
0.725
1.2
1.09
0.655
0.25
-0.145
0.31
0.45
0.565
0.67
0.735
1.245
1.08
0.66
0.28
-0.125
0.385
0.43
0.59
0.7
0.785
1.29
1.1
0.68
0.325
-0.06
0.45
0.47
0.7
0.82
0.865
1.415
1.21
0.755
0.245
0.07
0.54
0.54
0.815
0.905
0.95
1.495
1.23
0.745
0.245
0.175
0.64
0.615
0.895
0.965
0.975
1.52
1.23
0.73
0.205
0.245
0.625
0.61
0.945
0.96
0.97
1.475
1.135
0.635
0.13
0.21
0.505
0.52
0.825
0.835
0.855
1.31
0.92
0.41
-0.085
0.075
0.365
0.39
0.645
0.64
0.8
1.16
0.73
0.285
-0.215
0.01
0.25
0.3
0.535
0.585
0.79
1.1
0.65
0.18
-0.27
-0.015
0.255
0.315
0.51
0.56
0.81
1.015
0.575
0.14
-0.325
0.015
0.265
0.3
0.47
0.53
0.84
0.935
0.535
0.065
-0.355
0.02
0.22
0.295
0.485
0.53
0.915
0.925
0.52
0.08
-0.32
0.08
0.24
0.335
0.475
0.545
0.965
0.92
0.555
0.095
-0.3
0.13
0.295
0.35
0.52
0.565
1.015
0.915
0.505
0.105
-0.3
0.145
0.28
0.385
0.51
0.565
1.04
0.915
0.49
0.08
-0.285
0.155
0.3
0.405
0.525
0.57
1.07
0.9
0.475
0.055
-0.34
0.165
0.215
0.4
0.48
0.53
1.04
0.865
0.435
0.025
-0.315
0.15
0.165
0.38
0.51
0.48
1.025
0.845
0.375
-0.16
-0.365
0.15
0.15
0.405
0.495
0.505
1.03
0.78
0.315
-0.195
-0.335
0.155
0.135
0.465
0.48
0.49
1.065
0.785
0.29
-0.24
-0.225
0.17
0.165
0.535
0.545
0.56
1.08
0.755
0.25
-0.21
-0.115
0.21
0.24
0.535
0.59
0.64
1.11
0.74
0.25
-0.225
-0.045
0.25
0.27
0.545
0.56
0.72
1.095
0.695
0.23
-0.235
0.04
0.305
0.34
0.565
0.57
0.795
1.105
0.72
0.265
-0.21
0.06
0.315
0.39
0.6
0.605
0.87
1.11
0.7
0.235
-0.205
0.15
0.335
0.415
0.61
0.66
0.99
1.11
0.715
0.25
-0.165
0.215
0.4
0.485
0.625
0.665
1.08
1.115
0.745
0.28
-0.145
0.265
0.455
0.535
0.695
0.735
1.145
1.145
0.715
0.28
-0.08
0.315
0.46
0.57
0.685
0.755
1.185
1.12
0.69
0.26
-0.135
0.3
0.425
0.505
0.65
0.7
1.185
1.075
0.635
0.225
-0.175
0.295
0.42
0.525
0.65
0.715
1.21
1.055
0.635
0.255
-0.145
0.32
0.43
0.555
0.675
0.72
1.255
1.09
0.63
0.25
-0.14
0.375
0.415
0.63
0.715
0.77
1.31
1.105
0.625
0.12
-0.125
0.385
0.4
0.63
0.735
0.745
1.28
1.035
0.58
0.05
-0.05
0.405
0.375
0.72
0.785
0.86
1.39
1.23
0.84
0.465
0.56
1.125
1.235
1.655
1.76
1.85
2.455
2.165
1.72
1.185
1.09
1.235
0.99
0.99
0.76
0.615
1.055
0.7
0.215
-0.295
-0.135
0.18
0.225
0.495
0.545
0.685
1.09
0.675
0.255
-0.21
0.05
0.31
0.395
0.615
0.66
0.865
1.165
0.74
0.275
-0.185
0.085
0.32
0.385
0.595
0.61
0.915
1.15
0.74
0.315
-0.145
0.185
0.41
0.445
0.675
0.705
0.98
1.12
0.73
0.295
-0.13
0.205
0.4
0.46
0.63
0.665
1.055
1.095
0.675
0.23
-0.195
0.215
0.36
0.45
0.595
0.62
1.04
1.02
0.58
0.145
-0.23
0.175
0.33
0.41
0.57
0.64
1.085
1.035
0.645
0.25
-0.19
0.27
0.43
0.545
0.69
0.725
1.22
1.11
0.735
0.31
-0.06
0.415
0.555
0.66
0.79
0.875
1.335
1.19
0.76
0.385
-0.005
0.475
0.585
0.74
0.835
0.895
1.425
1.275
0.845
0.465
0.11
0.59
0.625
0.805
0.89
0.935
1.485
1.275
0.805
0.3
0.015
0.53
0.53
0.735
0.825
0.81
1.29
1.02
0.545
-0.01
-0.155
0.305
0.305
0.58
0.61
0.63
1.14
0.835
0.335
-0.185
-0.205
0.19
0.17
0.505
0.545
0.54
1.07
0.705
0.195
-0.28
-0.195
0.15
0.16
0.475
0.44
0.48
0.975
0.62
0.105
-0.4
-0.25
0.07
0.105
0.37
0.38
0.435
0.88
0.5
0.005
-0.44
-0.235
0.02
0.085
0.35
0.365
0.56
0.85
0.425
-0.005
-0.475
-0.18
0.045
0.095
0.33
0.36
0.64
0.89
0.44
-0.025
-0.45
-0.135
0.09
0.17
0.365
0.405
0.725
0.915
0.48
0.045
-0.38
-0.005
0.195
0.285
0.47
0.51
0.895
0.94
0.53
0.095
-0.315
0.07
0.26
0.35
0.5
0.55
0.945
0.92
0.525
0.075
-0.32
0.1
0.29
0.37
0.495
0.55
1.0
0.94
0.53
0.09
-0.315
0.125
0.29
0.41
0.525
0.515
0.995
0.895
0.46
0.05
-0.345
0.14
0.29
0.38
0.515
0.565
1.07
0.92
0.515
0.125
-0.255
0.215
0.345
0.44
0.585
0.63
1.125
0.98
0.535
0.15
-0.225
0.275
0.295
0.47
0.57
0.61
1.125
0.925
0.48
-0.035
-0.28
0.215
0.235
0.475
0.57
0.61
1.17
0.935
0.45
-0.085
-0.23
0.23
0.23
0.515
0.57
0.585
1.105
0.865
0.345
-0.155
-0.175
0.225
0.22
0.555
0.575
0.575
1.13
0.84
0.325
-0.16
-0.085
0.24
0.26
0.585
0.59
0.59
1.14
0.765
0.255
-0.24
-0.07
0.19
0.22
0.495
0.51
0.62
1.04
0.66
0.185
-0.31
-0.07
0.205
0.255
0.525
0.585
0.775
1.09
0.7
0.2
-0.245
0.04
0.29
0.37
0.61
0.625
0.86
1.115
0.7
0.25
-0.2
0.12
0.325
0.415
0.59
0.63
0.935
1.085
0.69
0.255
-0.205
0.17
0.365
0.435
0.62
0.685
1.045
1.14
0.745
0.3
-0.135
0.29
0.465
0.53
0.685
0.73
1.1
1.095
0.685
0.28
-0.16
0.26
0.445
0.515
0.61
0.685
1.115
1.04
0.645
0.21
-0.19
0.25
0.4
0.505
0.64
0.68
1.15
1.065
0.64
0.265
-0.125
0.335
0.485
0.575
0.71
0.765
1.26
1.13
0.72
0.325
-0.08
0.41
0.49
0.58
0.73
0.765
1.295
1.135
0.68
0.27
-0.06
0.425
0.49
0.655
0.77
0.845
1.385
1.165
0.74
0.28
-0.02
0.49
0.485
0.71
0.82
0.84
1.355
1.105
0.65
0.16
0.05
0.6
0.675
1.075
1.255
1.395
2.045
1.87
1.48
1.09
1.09
1.65
1.695
2.035
2.015
1.85
2.12
1.51
0.72
0.03
-0.03
0.3
0.29
0.605
0.62
0.615
1.14
0.795
0.36
-0.175
-0.05
0.31
0.365
0.675
0.685
0.795
1.225
0.82
0.4
-0.115
0.095
0.355
0.405
0.655
0.7
0.855
1.165
0.785
0.345
-0.105
0.15
0.4
0.46
0.69
0.75
0.95
1.195
0.775
0.295
-0.135
0.185
0.39
0.455
0.635
0.69
1.005
1.155
0.75
0.28
-0.155
0.17
0.385
0.465
0.635
0.69
1.075
1.12
0.71
0.26
-0.13
0.275
0.455
0.515
0.66
0.77
1.165
1.185
0.79
0.345
-0.035
0.395
0.595
0.665
0.83
0.895
1.335
1.3
0.885
0.455
0.04
0.46
0.55
0.565
0.72
0.8
1.3
1.19
0.755
0.34
-0.035
0.42
0.56
0.66
0.81
0.85
1.335
1.22
0.835
0.405
0.005
0.49
0.655
0.76
0.895
0.93
1.435
1.255
0.825
0.425
0.025
0.54
0.58
0.755
0.86
0.9
1.38
1.19
0.75
0.26
-0.075
0.43
0.375
0.6
0.695
0.715
1.26
1.035
0.555
0.005
-0.165
0.295
0.275
0.545
0.585
0.515
1.065
0.78
0.295
-0.255
-0.29
0.155
0.115
0.445
0.465
0.47
0.99
0.67
0.16
-0.34
-0.305
0.06
0.065
0.395
0.425
0.45
0.965
0.635
0.165
-0.325
-0.2
0.14
0.175
0.475
0.475
0.585
1.035
0.64
0.15
-0.3
-0.085
0.21
0.235
0.525
0.515
0.71
1.065
0.685
0.2
-0.28
0.015
0.25
0.32
0.555
0.595
0.86
1.115
0.705
0.245
-0.17
0.12
0.36
0.425
0.595
0.635
0.93
1.11
0.705
0.24
-0.19
0.175
0.39
0.48
0.62
0.69
1.09
1.085
0.69
0.24
-0.195
0.215
0.39
0.485
0.655
0.71
1.09
1.14
0.735
0.295
-0.11
0.305
0.465
0.54
0.675
0.74
1.15
1.105
0.735
0.295
-0.09
0.355
0.5
0.595
0.725
0.805
1.29
1.205
0.795
0.39
-0.005
0.46
0.59
0.7
0.81
0.865
1.345
1.195
0.785
0.365
-0.02
0.45
0.555
0.64
0.8
0.855
1.33
1.18
0.77
0.385
0.005
0.505
0.55
0.695
0.82
0.915
1.385
1.17
0.735
0.31
-0.01
0.525
0.515
0.765
0.875
0.895
1.425
1.215
0.785
0.23
0.055
0.545
0.56
0.825
0.89
0.89
1.395
1.1
0.63
0.165
0.115
0.5
0.535
0.845
0.86
0.88
1.4
1.12
0.59
0.075
0.14
0.495
0.51
0.805
0.82
0.86
1.365
1.025
0.52
0.025
0.16
0.495
0.515
0.77
0.815
0.89
1.335
0.98
0.5
0.02
0.23
0.5
0.525
0.775
0.8
0.985
1.34
0.945
0.495
0.015
0.275
0.485
0.56
0.805
0.81
1.06
1.325
0.92
0.445
0.015
0.365
0.545
0.59
0.8
0.855
1.14
1.305
0.875
0.44
0.01
0.385
0.615
0.665
0.855
0.9
1.275
1.35
0.92
0.495
0.075
0.44
0.625
0.715
0.86
0.88
1.31
1.3
0.88
0.44
0.055
0.465
0.665
0.725
0.875
0.9
1.31
1.285
0.845
0.41
0.03
0.48
0.64
0.74
0.845
0.9
1.345
1.24
0.825
0.395
0.0
0.455
0.615
0.715
0.8
0.875
1.36
1.24
0.83
0.42
0.02
0.525
0.61
0.77
0.87
0.905
1.415
1.22
0.805
0.42
0.03
0.525
0.58
0.74
0.855
0.925
1.44
1.26
0.84
0.4
0.08
0.55
0.58
0.8
0.935
0.945
1.515
1.365
0.95
0.455
0.435
1.065
1.2
1.635
1.825
1.965
2.585
2.44
2.03
1.57
1.56
1.95
1.76
1.875
1.62
1.325
1.615
1.165
0.6
0.125
0.165
0.55
0.535
0.85
0.9
0.935
1.475
1.145
0.685
0.215
0.395
0.735
0.735
1.045
1.105
1.205
1.645
1.31
0.795
0.36
0.59
0.86
0.885
1.15
1.175
1.355
1.69
1.315
0.845
0.405
0.65
0.91
0.94
1.18
1.24
1.455
1.72
1.32
0.86
0.415
0.74
0.955
1.01
1.245
1.25
1.57
1.77
1.32
0.885
0.465
0.82
1.0
1.1
1.305
1.315
1.66
1.78
1.36
0.91
0.495
0.875
1.07
1.155
1.33
1.39
1.815
1.825
1.44
0.99
0.555
1.03
1.155
1.26
1.415
1.45
1.935
1.885
1.49
1.055
0.675
1.12
1.255
1.365
1.5
1.535
1.98
1.965
1.53
1.11
0.705
1.17
1.33
1.45
1.52
1.585
2.105
1.96
1.545
1.095
0.715
1.2
1.305
1.395
1.505
1.6
2.1
1.95
1.51
1.095
0.71
1.165
1.23
1.38
1.45
1.5
2.005
1.79
1.365
0.895
0.56
1.085
1.01
1.215
1.325
1.35
1.87
1.65
1.175
0.61
0.415
0.9
0.92
1.135
1.195
1.185
1.72
1.47
0.945
0.435
0.345
0.8
0.78
1.095
1.13
1.145
1.66
1.38
0.9
0.4
0.41
0.795
0.805
1.125
1.11
1.165
1.675
1.36
0.865
0.365
0.5
0.81
0.87
1.15
1.16
1.27
1.715
1.335
0.855
0.385
0.575
0.85
0.89
1.16
1.17
1.32
1.645
1.28
0.81
0.335
0.6
0.855
0.915
1.14
1.175
1.395
1.685
1.295
0.795
0.315
0.605
0.86
0.925
1.095
1.155
1.46
1.675
1.26
0.785
0.29
0.67
0.845
0.91
1.125
0.965
0.635
-0.2
-1.5
-2.735
-3.875
-4.13
-4.54
-5.02
-5.325
-5.745
-5.79
-6.19
-6.99
-7.76
-8.45
-8.4
-8.56
-8.785
-8.905
-9.155
-9.015
-9.28
-9.81
-10.02
-9.865
-9.85
-9.865
-9.86
-9.905
-9.94
-10.06
-10.14
-10.11
-10.015
-9.855
-9.85
-9.85
-9.855
-9.915
-9.945
-10.065
-10.15
-10.12
-10.0
-9.84
-9.845
-9.855
-9.865
-9.905
-9.95
-10.075
-10.14
-10.105
-9.995
-9.84
-9.85
-9.845
-9.875
-9.91
-9.955
-10.09
-10.15
-10.1
-9.99
-9.83
-9.85
-9.845
-9.87
-9.925
-9.95
-9.83
-9.935
-10.095
-9.97
-9.835
-9.855
-9.845
-9.52
-9.355
-9.21
-8.67
-8.77
-9.125
-9.43
-9.41
-8.99
-8.905
-8.59
-8.48
-8.46
-7.975
-8.395
-8.96
-9.455
-9.45
-9.145
-9.13
-8.89
-8.95
-9.085
-8.8
-9.285
-9.97
-9.93
-9.845
-9.86
-9.855
-9.505
-9.33
-9.125
-8.64
-8.885
-9.35
-9.925
-9.84
-9.86
-9.85
-9.905
-9.935
-9.985
-10.13
-10.13
-10.06
-9.915
-9.845
-9.86
-9.86
-9.905
-9.94
-10.0
-10.135
-10.14
-10.05
-9.895
-9.84
-9.85
-9.86
-9.9
-9.945
-10.01
-10.14
-10.125
-10.035
-9.89
-9.845
-9.855
-9.855
-9.91
-9.94
-10.015
-10.135
-10.12
-10.03
-9.885
-9.845
-9.845
-9.86
-9.91
-9.94
-10.04
-10.135
-10.12
-10.025
-9.865
-9.85
-9.865
-9.86
-9.91
-9.95
-10.045
-10.14
-10.11
-10.02
-9.87
-9.85
-9.865
-9.865
-9.92
-9.94
-10.055
-10.15
-10.115
-10.015
-9.86
-9.855
-9.865
-9.87
-9.915
-9.94
-10.065
-10.145
-10.11
-10.005
-9.855
-9.85
-9.86
-9.875
-9.925
-9.945
-10.075
-10.145
-10.115
-10.005
-9.83
-9.855
-9.86
-9.88
-9.915
-9.96
-10.08
-10.155
-10.105
-9.99
-9.835
-9.85
-9.85
-9.88
-9.925
-9.96
-10.1
-10.155
-10.09
-9.965
-9.83
-9.85
-9.85
-9.885
-9.925
-9.96
-10.105
-10.15
-10.085
-9.955
-9.83
-9.85
-9.84
-9.9
-9.93
-9.965
-10.11
-10.15
-10.075
-9.935
-9.84
-9.855
-9.85
-9.905
-9.93
-9.96
-10.115
-10.15
-10.07
-9.93
-9.835
-9.855
-9.85
-9.9
-9.935
-9.97
-10.125
-10.135
-10.055
-9.92
-9.84
-9.855
-9.855
-9.905
-9.935
-9.985
-10.13
-10.135
-10.05
-9.91
-9.835
-9.865
-9.85
-9.9
-9.94
-9.995
-10.135
-10.13
-10.05
-9.895
-9.835
-9.855
-9.86
-9.91
-9.94
-10.005
-10.135
-10.13
-10.04
-9.89
-9.845
-9.86
-9.865
-9.905
-9.945
-10.025
-10.135
-10.13
-10.035
-9.88
-9.84
-9.845
-9.865
-9.925
-9.945
-10.04
-10.145
-10.125
-10.03
-9.875
-9.85
-9.865
-9.87
-9.915
-9.95
-10.045
-10.135
-10.125
-10.025
-9.87
-9.845
-9.865
-9.865
-9.91
-9.945
-10.055
-10.14
-10.11
-10.015
-9.86
-9.855
-9.855
-9.87
-9.92
-9.95
-10.065
-10.145
-10.11
-10.01
-9.855
-9.86
-9.865
-9.875
-9.915
-9.945
-10.075
-10.15
-10.105
-10.0
-9.845
-9.855
-9.855
-9.875
-9.925
-9.945
-10.08
-10.15
-10.105
-9.995
-9.835
-9.855
-9.845
-9.875
-9.93
-9.955
-10.095
-10.15
-10.095
-9.97
-9.83
-9.85
-9.845
-9.89
-9.925
-9.96
-10.1
-10.15
-10.09
-9.96
-9.835
-9.855
-9.85
-9.89
-9.925
-9.955
-10.105
-10.15
-10.08
-9.945
-9.835
-9.85
-9.85
-9.9
-9.935
-9.965
-10.115
-10.145
-10.07
-9.925
-9.835
-9.855
-9.86
-9.91
-9.93
-9.965
-10.12
-10.14
-10.065
-9.925
-9.84
-9.86
-9.85
-9.9
-9.935
-9.97
-10.13
-10.135
-10.055
-9.91
-9.845
-9.855
-9.855
-9.9
-9.935
-9.995
-10.135
-10.125
-10.05
-9.9
-9.835
-9.86
-9.86
-9.905
-9.94
-10.01
-10.14
-10.125
-10.04
-9.89
-9.84
-9.85
-9.86
-9.91
-9.935
-10.02
-10.135
-10.125
-10.03
-9.885
-9.84
-9.865
-9.86
-9.905
-9.945
-10.04
-10.135
-10.12
-10.03
-9.875
-9.85
-9.865
-9.865
-9.91
-9.94
-10.045
-10.135
-10.125
-10.025
-9.87
-9.855
-9.865
-9.87
-9.91
-9.95
-10.055
-10.145
-10.12
-10.015
-9.86
-9.84
-9.865
-9.875
-9.915
-9.945
-10.07
-10.145
-10.105
-10.015
-9.845
-9.855
-9.865
-9.875
-9.92
-9.955
-10.075
-10.15
-10.11
-10.01
-9.845
-9.855
-9.86
-9.88
-9.92
-9.955
-10.085
-10.155
-10.105
-10.0
-9.84
-9.855
-9.855
-9.88
-9.925
-9.965
-10.105
-10.155
-10.105
-9.98
-9.83
-9.86
-9.84
-9.885
-9.93
-9.965
-10.11
-10.155
-10.1
-9.965
-9.835
-9.86
-9.85
-9.895
-9.93
-9.97
-10.12
-10.155
-10.09
-9.955
-9.835
-9.85
-9.85
-9.9
-9.935
-9.965
-10.12
-10.15
-10.075
-9.945
-9.845
-9.86
-9.85
-9.9
-9.945
-9.975
-10.13
-10.15
-10.07
-9.925
-9.845
-9.865
-9.855
-9.905
-9.94
-9.99
-10.14
-10.145
-10.065
-9.915
-9.845
-9.865
-9.85
-9.92
-9.95
-10.005
-10.145
-10.14
-10.06
-9.915
-9.85
-9.865
-9.87
-9.91
-9.94
-10.02
-10.14
-10.145
-10.055
-9.91
-9.86
-9.865
-9.875
-9.915
-9.95
-10.03
-10.15
-10.13
-10.04
-9.9
-9.86
-9.87
-9.875
-9.915
-9.96
-10.04
-10.15
-10.14
-10.04
-9.89
-9.855
-9.87
-9.87
-9.925
-9.955
-10.06
-10.145
-10.125
-10.03
-9.885
-9.86
-9.87
-9.87
-9.94
-9.96
-10.065
-10.155
-10.13
-10.03
-9.875
-9.86
-9.88
-9.885
-9.93
-9.97
-10.085
-10.155
-10.135
-10.03
-9.865
-9.875
-9.885
-9.88
-9.93
-9.97
-10.095
-10.175
-10.13
-10.025
-9.87
-9.875
-9.88
-9.885
-9.945
-9.975
-10.1
-10.17
-10.13
-10.02
-9.865
-9.875
-9.88
-9.9
-9.945
-9.98
-10.115
-10.17
-10.125
-10.0
-9.855
-9.87
-9.87
-9.905
-9.955
-9.98
-10.125
-10.175
-10.115
-9.98
-9.85
-9.885
-9.875
-9.905
-9.955
-9.985
-10.135
-10.175
-10.105
-9.97
-9.855
-9.875
-9.87
-9.92
-9.95
-9.98
-10.145
-10.16
-10.105
-9.96
-9.865
-9.88
-9.87
-9.93
-9.955
-9.99
-10.15
-10.165
-10.085
-9.955
-9.86
-9.885
-9.88
-9.93
-9.96
-10.0
-10.155
-10.165
-10.075
-9.945
-9.87
-9.885
-9.88
-9.935
-9.955
-10.015
-10.155
-10.16
-10.08
-9.925
-9.865
-9.885
-9.885
-9.925
-9.96
-10.025
-10.155
-10.155
-10.07
-9.92
-9.87
-9.875
-9.89
-9.935
-9.96
-10.035
-10.165
-10.15
-10.065
-9.91
-9.87
-9.88
-9.89
-9.935
-9.96
-10.06
-10.165
-10.145
-10.06
-9.905
-9.88
-9.88
-9.9
-9.94
-9.97
-10.065
-10.165
-10.15
-10.045
-9.905
-9.88
-9.895
-9.9
-9.945
-9.98
-10.085
-10.175
-10.15
-10.05
-9.89
-9.88
-9.9
-9.9
-9.95
-9.975
-10.095
-10.18
-10.145
-10.045
-9.885
-9.875
-9.895
-9.895
-9.945
-9.985
-10.105
-10.18
-10.145
-10.04
-9.875
-9.89
-9.9
-9.91
-9.95
-9.99
-10.11
-10.185
-10.14
-10.04
-9.875
-9.89
-9.89
-9.915
-9.955
-9.985
-10.125
-10.18
-10.135
-10.02
-9.875
-9.885
-9.88
-9.91
-9.96
-9.995
-10.13
-10.195
-10.13
-10.0
-9.865
-9.895
-9.885
-9.92
-9.96
-9.99
-10.145
-10.18
-10.115
-9.985
-9.87
-9.895
-9.885
-9.93
-9.965
-9.99
-10.15
-10.185
-10.11
-9.975
-9.87
-9.89
-9.88
-9.935
-9.96
-9.995
-10.16
-10.175
-10.105
-9.965
-9.875
-9.89
-9.88
-9.945
-9.965
-10.015
-10.16
-10.18
-10.095
-9.95
-9.875
-9.9
-9.89
-9.94
-9.975
-10.025
-10.17
-10.175
-10.085
-9.945
-9.88
-9.895
-9.89
-9.94
-9.975
-10.04
-10.175
-10.17
-10.08
-9.94
-9.88
-9.9
-9.895
-9.945
-9.975
-10.045
-10.18
-10.165
-10.08
-9.93
-9.885
-9.9
-9.895
-9.945
-9.98
-10.06
-10.18
-10.16
-10.065
-9.915
-9.89
-9.9
-9.905
-9.945
-9.98
-10.07
-10.175
-10.16
-10.065
-9.915
-9.89
-9.9
-9.9
-9.945
-9.98
-10.08
-10.17
-10.15
-10.055
-9.9
-9.885
-9.89
-9.915
-9.955
-9.985
-10.095
-10.18
-10.15
-10.04
-9.9
-9.89
-9.905
-9.91
-9.96
-9.985
-10.11
-10.185
-10.15
-10.04
-9.885
-9.895
-9.905
-9.91
-9.955
-9.99
-10.12
-10.185
-10.145
-10.03
-9.89
-9.895
-9.9
-9.92
-9.96
-9.985
-10.135
-10.185
-10.14
-10.025
-9.875
-9.905
-9.895
-9.92
-9.965
-10.0
-10.14
-10.19
-10.135
-10.015
-9.875
-9.895
-9.895
-9.94
-9.965
-9.995
-10.15
-10.185
-10.125
-9.995
-9.875
-9.89
-9.895
-9.94
-9.975
-10.0
-10.16
-10.185
-10.125
-9.98
-9.89
-9.905
-9.9
-9.95
-9.985
-10.01
-10.155
-10.185
-10.12
-9.975
-9.895
-9.91
-9.905
-9.95
-9.98
-10.025
-10.155
-10.195
-10.11
-9.97
-9.895
-9.91
-9.915
-9.955
-9.99
-10.035
-10.18
-10.185
-10.105
-9.96
-9.89
-9.91
-9.91
-9.96
-9.995
-10.05
-10.18
-10.18
-10.095
-9.96
-9.89
-9.92
-9.925
-9.96
-10.0
-10.065
-10.195
-10.18
-10.095
-9.945
-9.91
-9.92
-9.915
-9.975
-10.005
-10.08
-10.195
-10.18
-10.085
-9.94
-9.91
-9.925
-9.925
-9.975
-10.005
-10.1
-10.2
-10.175
-10.085
-9.935
-9.915
-9.93
-9.925
-9.98
-10.01
-9.725
-9.66
-9.935
-10.085
-9.935
-9.915
-9.8
-9.675
-9.495
-9.4
-8.97
-8.965
-9.225
-9.495
-9.695
-9.25
-9.08
-8.95
-8.765
-8.655
-8.135
-8.17
-8.46
-8.765
-9.035
-8.555
-8.39
-8.245
-8.07
-7.925
-7.43
-7.48
-7.795
-8.1
-8.345
-7.89
-7.715
-7.535
-7.38
-7.275
-6.735
-6.835
-7.19
-7.49
-7.76
-7.24
-7.15
-6.95
-6.8
-6.7
-6.14
-6.29
-6.695
-7.12
-7.295
-6.785
-6.73
-6.48
-6.35
-6.295
-5.755
-5.96
-6.395
-6.815
-6.855
-6.41
-6.38
-6.045
-5.975
-5.925
-5.33
-5.565
-6.025
-6.47
-6.41
-6.015
-5.985
-5.625
-5.575
-5.545
-5.015
-5.26
-5.675
-6.11
-6.0
-5.66
-5.55
-5.225
-5.16
-5.07
-4.52
-4.81
-5.285
-5.65
-5.48
-5.145
-5.11
-4.785
-4.745
-4.535
-4.08
-4.43
-4.905
-5.31
-5.015
-4.74
-4.65
-4.38
-4.315
-4.085
-3.68
-4.035
-4.44
-4.895
-4.59
-4.315
-4.195
-3.94
-3.865
-3.565
-3.325
-3.68
-4.115
-4.54
-4.155
-3.965
-3.83
-3.615
-3.54
-3.14
-2.975
-3.365
-3.8
-4.21
-3.795
-3.575
-3.46
-3.26
-3.195
-2.795
-2.69
-3.105
-3.495
-3.87
-3.435
-3.285
-3.145
-2.955
-2.91
-2.515
-2.49
-2.845
-3.21
-3.595
-3.16
-2.98
-2.89
-2.71
-2.605
-2.165
-2.18
-2.545
-2.96
-3.32
-2.86
-2.67
-2.565
-2.41
-2.36
-1.895
-1.93
-2.305
-2.69
-3.035
-2.58
-2.405
-2.34
-2.195
-2.085
-1.56
-1.74
-2.135
-2.485
-1.235
-0.555
-0.29
-0.125
-0.045
-0.01
0.21
0.055
-0.13
-0.215
-0.26
0.02
0.01
0.105
0.1
0.085
0.255
0.115
-0.115
-0.29
-0.23
0.045
0.005
0.13
0.13
0.095
0.675
0.45
0.035
-0.455
-0.565
-0.075
-0.1
0.265
0.375
0.475
0.925
0.605
0.205
-0.225
-0.19
0.24
0.295
0.69
0.76
0.815
1.41
1.165
0.715
0.235
0.34
0.775
0.825
1.12
1.195
1.31
1.86
1.525
1.19
0.775
0.925
1.305
1.335
1.665
1.74
1.835
2.305
1.98
1.51
1.05
1.33
1.69
1.775
2.105
2.18
2.375
2.73
2.395
1.93
1.515
1.87
2.105
2.2
2.45
2.535
2.845
3.125
2.735
2.32
1.94
2.29
2.51
2.615
2.785
2.91
3.27
3.47
3.065
2.635
2.28
2.7
2.94
2.985
3.185
3.28
3.69
3.765
3.38
3.025
2.655
2.995
3.23
3.36
3.545
3.55
4.015
4.015
3.65
3.29
2.905
3.345
3.54
3.635
3.815
3.88
4.375
4.36
3.975
3.57
3.225
3.66
3.82
3.975
4.145
4.215
4.66
4.62
4.25
3.84
3.49
3.95
4.105
4.2
4.34
4.48
5.045
4.99
4.68
4.37
4.155
4.785
5.01
5.29
5.515
5.67
6.28
6.27
5.925
5.63
5.205
5.595
5.45
5.345
5.175
5.02
5.315
5.085
4.74
4.355
4.07
4.47
4.53
4.765
4.945
5.0
5.55
5.435
5.0
4.515
4.46
4.95
5.0
5.345
5.4
5.415
6.015
5.665
5.235
4.805
4.8
5.26
5.29
5.635
5.66
5.725
6.265
5.97
5.52
5.065
5.15
5.535
5.56
5.88
5.905
5.98
6.465
6.145
5.695
5.24
5.375
5.705
5.765
6.07
6.11
6.195
6.66
6.33
5.855
5.44
5.685
5.985
6.065
6.32
6.365
6.56
6.925
6.525
6.11
5.675
6.01
6.275
6.33
6.59
6.63
6.885
7.165
6.755
6.325
5.935
6.3
6.535
6.63
6.805
6.845
7.165
7.36
6.995
6.585
6.215
6.58
6.785
6.86
7.08
7.135
7.51
7.595
7.24
6.835
6.44
6.825
7.045
7.175
7.365
7.375
7.735
7.775
7.42
7.08
6.705
7.12
7.265
7.395
7.515
7.51
7.96
7.935
7.62
7.21
6.715
7.155
7.32
7.415
7.545
7.615
8.05
7.925
7.54
7.165
6.83
7.23
7.345
7.435
7.54
7.575
8.05
7.91
7.495
7.135
6.72
7.205
7.295
7.445
7.565
7.635
8.145
7.945
7.555
7.19
6.85
7.315
7.425
7.57
7.645
7.69
8.18
8.035
7.66
7.275
6.995
7.455
7.475
7.69
7.775
7.845
8.3
8.14
7.7
7.185
7.04
7.635
7.625
7.885
7.895
7.89
8.395
8.145
7.705
7.27
7.195
7.6
7.595
7.915
7.915
7.945
8.47
8.225
7.765
7.285
7.29
7.66
7.725
8.05
8.065
8.095
8.6
8.275
7.825
7.345
7.485
7.805
7.885
8.145
8.19
8.275
8.67
8.33
7.89
7.47
7.665
7.915
7.975
8.22
8.24
8.415
8.74
8.41
7.95
7.54
7.825
8.0
8.05
8.27
8.33
8.55
8.815
8.465
8.025
7.585
7.885
8.115
8.155
8.415
8.455
8.72
8.895
8.515
8.14
7.785
8.11
8.265
8.32
8.49
8.48
8.82
8.92
8.565
8.16
7.815
8.125
8.31
8.35
8.5
8.575
8.875
8.905
8.555
8.215
7.845
8.225
8.39
8.415
8.585
8.6
8.975
8.97
8.62
8.28
7.93
8.365
8.465
8.495
8.63
3.83
2.425
1.475
0.765
0.34
0.095
0.265
0.21
0.175
0.12
0.1
0.305
0.145
-0.06
-0.2
-0.245
0.04
0.07
0.11
0.11
0.075
0.255
0.09
-0.1
-0.195
-0.26
0.025
0.1
0.26
0.42
0.455
1.01
0.865
0.42
0.065
-0.26
0.285
0.345
0.56
0.67
0.72
1.32
1.17
0.755
0.32
0.115
0.6
0.62
0.865
0.995
1.02
1.605
1.36
0.92
0.44
0.38
0.8
0.815
1.165
1.23
1.28
1.805
1.55
1.1
0.69
0.68
1.065
1.09
1.465
1.49
1.53
2.055
1.75
1.265
0.8
0.93
1.28
1.34
1.63
1.665
1.715
2.205
1.835
1.38
0.935
1.14
1.44
1.47
1.715
1.755
1.925
2.315
1.95
1.485
1.045
1.29
1.53
1.605
1.885
1.935
2.135
2.455
2.05
1.555
1.105
1.495
1.7
1.75
1.985
2.0
2.245
2.485
2.125
1.685
1.235
1.55
1.775
1.845
2.05
2.155
2.48
2.62
2.23
1.725
1.285
1.645
1.85
1.94
2.115
2.16
2.57
2.685
2.315
1.89
1.47
1.855
2.0
2.07
2.28
2.385
2.875
2.905
2.705
2.375
2.115
2.655
2.99
3.22
3.46
3.62
4.14
4.11
3.815
3.36
2.875
3.08
2.95
2.79
2.635
2.495
2.93
2.83
2.41
2.01
1.66
2.13
2.295
2.445
2.56
2.605
3.145
3.045
2.685
2.305
1.925
2.435
2.55
2.69
2.775
2.875
3.375
3.26
2.83
2.455
2.1
2.665
2.655
2.85
3.025
3.07
3.605
3.4
2.98
2.5
2.24
2.755
2.775
3.01
3.08
3.11
3.645
3.43
2.985
2.515
2.38
2.855
2.885
3.245
3.235
3.305
3.81
3.54
3.075
2.595
2.59
2.99
3.0
3.365
3.425
3.47
3.96
3.69
3.215
2.735
2.85
3.215
3.27
3.535
3.575
3.635
4.135
3.775
3.32
2.835
3.055
3.355
3.425
3.69
3.73
3.86
4.33
3.94
3.525
3.085
3.305
3.61
3.665
3.935
3.975
4.17
4.53
4.15
3.705
3.26
3.565
3.71
3.77
4.0
4.035
4.305
4.545
4.15
3.67
3.25
3.62
3.78
3.89
4.07
4.085
4.47
4.58
4.18
3.715
3.245
3.51
3.67
3.705
3.91
3.935
4.345
4.4
3.97
3.535
3.085
3.425
3.605
3.63
3.79
3.825
4.22
4.235
3.83
3.38
2.955
3.355
3.515
3.635
3.73
3.785
4.21
4.15
3.78
3.365
3.025
3.47
3.555
3.675
3.785
3.82
4.27
4.18
3.78
3.36
3.02
3.46
3.56
3.69
3.84
3.91
4.385
4.24
3.785
3.385
3.0
3.455
3.545
3.705
3.82
3.85
4.32
4.135
3.74
3.36
2.92
3.415
3.46
3.625
3.74
3.785
4.3
4.14
3.73
3.23
2.955
3.425
3.47
3.675
3.835
3.83
4.36
4.145
3.675
3.185
3.04
3.53
3.52
3.835
3.875
3.9
4.445
4.185
3.69
3.19
3.2
3.625
3.62
3.91
3.96
4.015
4.55
4.22
3.735
3.275
3.35
3.725
3.73
4.06
4.075
4.11
4.655
4.3
3.825
3.325
3.485
3.76
3.82
4.11
4.135
4.26
4.695
4.295
3.825
1.47
0.975
0.695
0.465
0.39
0.265
0.26
0.285
0.02
-0.165
-0.31
-0.045
0.07
0.07
0.13
0.105
0.2
0.2
-0.035
-0.205
-0.305
-0.035
0.065
0.165
0.36
0.375
0.705
0.85
0.455
0.055
-0.4
-0.07
0.14
0.28
0.47
0.535
0.885
0.95
0.54
0.12
-0.32
0.08
0.235
0.365
0.5
0.54
0.955
0.945
0.61
0.15
-0.245
0.155
0.265
0.33
0.565
0.735
1.09
1.04
0.675
0.23
-0.19
0.255
0.4
0.485
0.615
0.7
1.145
1.06
0.715
0.24
-0.16
0.32
0.445
0.535
0.665
0.76
1.205
1.09
0.665
0.245
-0.12
0.385
0.46
0.61
0.78
0.81
1.31
1.215
0.775
0.415
0.08
0.585
0.635
0.79
0.89
0.9
1.445
1.29
0.865
0.4
0.125
0.65
0.67
0.945
1.06
1.09
1.635
1.4
0.97
0.47
0.305
0.775
0.75
1.075
1.06
1.16
1.775
1.55
1.01
0.51
0.575
0.91
0.91
1.13
1.15
1.255
1.815
1.545
1.01
0.555
0.645
0.965
0.99
1.345
1.375
1.35
1.885
1.56
1.06
0.575
0.725
1.065
1.115
1.37
1.37
1.495
1.925
1.585
1.125
0.675
0.885
1.165
1.22
1.485
1.54
1.695
2.04
1.675
1.215
0.705
1.075
1.31
1.35
1.545
1.6
1.875
2.095
1.74
1.275
0.83
1.135
1.345
1.41
1.605
1.72
2.05
2.275
1.965
1.645
1.385
1.885
2.2
2.405
2.64
2.8
3.21
3.385
3.015
2.575
2.035
2.21
2.11
1.895
1.765
1.58
1.905
1.94
1.52
1.065
0.64
1.03
1.23
1.295
1.445
1.495
1.94
1.95
1.6
1.17
0.79
1.235
1.425
1.475
1.585
1.665
2.105
2.005
1.61
1.14
0.85
1.28
1.415
1.515
1.63
1.7
2.185
2.035
1.66
1.235
0.875
1.37
1.475
1.56
1.68
1.735
2.275
2.105
1.66
1.335
0.93
1.405
1.475
1.665
1.77
1.815
2.34
2.165
1.75
1.37
1.07
1.56
1.565
1.795
1.88
1.955
2.485
2.285
1.81
1.32
1.185
1.685
1.67
1.965
2.095
2.11
2.605
2.355
1.885
1.38
1.35
1.805
1.825
2.145
2.19
2.25
2.755
2.47
2.005
1.545
1.605
2.0
2.01
2.35
2.385
2.46
2.94
2.57
2.165
1.75
1.85
2.185
2.225
2.495
2.52
2.635
3.07
2.715
2.215
1.755
1.99
2.225
2.27
2.53
2.555
2.675
2.965
2.58
2.14
1.665
1.935
2.105
2.145
2.365
2.38
2.6
2.835
2.41
1.94
1.445
1.72
1.935
1.99
2.2
2.235
2.525
2.635
2.245
1.825
1.345
1.725
1.86
1.925
2.1
2.145
2.525
2.61
2.18
1.75
1.32
1.715
1.88
1.955
2.115
2.17
2.62
2.58
2.195
1.745
1.37
1.755
1.98
2.055
2.235
2.27
2.67
2.645
2.22
1.79
1.415
1.86
2.005
2.06
2.205
2.29
2.65
2.65
2.21
1.82
1.395
1.845
2.09
2.205
2.265
2.32
2.795
2.695
2.285
1.89
1.53
1.97
2.085
2.2
2.3
2.355
2.835
2.66
2.275
1.885
1.45
1.98
2.035
2.225
2.335
2.425
2.905
2.715
2.275
1.8
1.51
1.995
1.995
2.215
2.34
2.375
2.895
2.65
2.21
1.77
1.555
1.98
2.005
2.25
2.375
2.43
2.975
2.7
2.195
1.685
1.63
2.075
2.055
2.37
2.395
2.395
2.9
2.625
2.13
1.65
1.63
2.005
2.05
2.335
2.385
2.37
2.885
2.615
2.13
1.65
1.77
2.1
2.12
2.42
2.46
2.545
2.955
2.605
2.12
1.67
1.915
2.185
2.25
2.51
2.53
2.705
3.04
2.66
2.16
1.675
1.93
2.225
2.285
2.52
2.545
2.735
3.06
2.685
2.205
1.78
2.06
2.26
2.345
2.57
2.63
2.915
3.105
2.695
2.24
1.79
2.085
2.29
2.35
2.51
2.52
2.87
2.95
2.515
2.075
1.645
2.05
2.25
2.325
2.49
2.51
2.89
2.955
2.555
2.09
1.695
2.11
2.295
2.315
2.385
2.525
2.92
2.84
2.435
1.995
1.6
2.015
2.12
2.205
2.345
2.405
2.86
2.77
2.37
1.89
1.54
1.99
2.205
2.21
2.34
2.42
2.91
2.86
2.48
2.065
1.68
2.205
2.3
2.445
2.585
2.7
3.15
2.99
2.57
2.17
1.78
2.28
2.345
2.535
2.61
2.675
3.185
3.015
2.615
2.18
1.795
2.305
2.34
2.53
2.655
2.67
3.205
2.99
2.55
2.015
1.83
2.27
2.325
2.62
2.64
2.66
3.2
2.965
2.48
1.96
1.84
2.375
2.385
2.785
2.925
3.125
3.8
3.615
3.29
2.905
3.06
3.495
3.53
3.845
3.795
3.71
4.06
3.465
2.74
2.02
1.915
2.175
2.17
2.48
2.51
2.615
3.07
2.695
2.185
1.68
1.87
2.15
2.16
2.425
2.45
2.625
3.045
2.65
2.225
1.725
1.98
2.24
2.305
2.535
2.585
2.785
3.085
2.665
2.19
1.73
1.985
2.19
2.26
2.485
2.585
2.845
3.06
2.625
2.13
1.73
2.055
2.23
2.31
2.51
2.545
2.92
2.99
2.645
2.15
1.695
2.085
2.32
2.34
2.515
2.555
2.965
3.0
2.605
2.15
1.735
2.135
2.325
2.38
2.555
2.615
3.055
3.04
2.655
2.18
1.8
2.22
2.415
2.495
2.69
2.745
3.185
3.13
2.69
2.32
1.88
2.34
2.49
2.58
2.72
2.75
3.23
3.155
2.77
2.295
1.89
2.41
2.515
2.605
2.735
2.81
3.315
3.15
2.745
2.365
1.94
2.425
2.515
2.655
2.725
2.785
3.285
3.105
2.685
2.28
1.845
2.36
2.335
2.525
2.655
2.66
3.18
2.935
2.48
1.895
1.66
2.115
2.095
2.35
2.425
2.405
2.945
2.68
2.17
1.595
1.515
1.985
1.93
2.23
2.26
2.26
2.8
2.495
1.985
1.48
1.485
1.845
1.83
2.165
2.17
2.24
2.765
2.445
1.935
1.45
1.52
1.855
1.84
2.14
2.105
2.14
2.635
2.27
1.765
1.24
1.375
1.65
1.665
1.925
1.995
2.11
2.495
2.115
1.595
1.1
1.325
1.59
1.6
1.805
1.81
2.05
2.32
1.875
1.39
0.88
1.18
1.445
1.45
1.64
1.71
1.95
2.16
1.73
1.26
0.835
1.11
1.33
1.375
1.59
1.68
2.02
2.14
1.72
1.295
0.865
1.21
1.385
1.44
1.64
1.695
2.07
2.15
1.745
1.28
0.865
1.305
1.425
1.515
1.675
1.745
2.145
2.165
1.765
1.31
0.89
1.29
1.425
1.505
1.615
1.69
2.115
2.025
1.625
1.16
0.76
1.205
1.37
1.49
1.63
1.705
2.165
2.1
1.71
1.285
0.86
1.305
1.475
1.565
1.69
1.725
2.235
2.065
1.65
1.235
0.815
1.295
1.395
1.545
1.69
1.725
2.235
2.065
1.665
1.25
0.895
1.345
1.43
1.585
1.68
1.745
2.29
2.09
1.615
1.095
0.835
1.33
1.33
1.575
1.68
1.705
2.22
1.975
1.51
1.015
0.885
1.345
1.34
1.645
1.71
1.72
2.25
1.995
1.52
1.005
0.985
1.44
1.4
1.73
1.755
1.815
2.35
2.02
1.53
1.035
1.095
1.495
1.53
1.825
1.87
1.93
2.42
2.055
1.555
1.055
1.2
1.515
1.55
1.825
1.855
2.0
2.425
2.05
1.56
1.09
1.28
1.6
1.71
1.975
2.015
2.25
2.56
2.195
1.71
1.185
1.5
1.74
1.79
2.02
2.03
2.315
2.59
2.165
1.7
1.315
1.615
1.835
1.875
2.085
2.125
2.425
2.575
2.175
1.7
1.265
1.635
1.83
1.915
2.13
2.22
2.69
2.865
2.53
2.195
1.905
2.43
2.72
2.905
3.185
3.365
3.855
3.885
3.505
2.975
2.31
2.455
2.36
2.19
2.12
2.035
2.49
2.475
2.09
1.61
1.17
1.595
1.77
1.88
2.045
2.115
2.605
2.545
2.205
1.805
1.395
1.85
2.075
2.205
2.31
2.375
2.89
2.74
2.365
1.93
1.55
2.03
2.16
2.295
2.41
2.475
3.02
2.86
2.42
2.05
1.675
2.17
2.255
2.445
2.56
2.59
3.175
3.015
2.555
2.05
1.775
2.28
2.29
2.525
2.655
2.69
3.265
3.065
2.555
2.07
1.855
2.35
2.375
2.67
2.715
2.765
3.315
3.055
2.56
2.03
1.97
2.435
2.435
2.765
2.78
2.82
3.37
3.11
2.625
2.115
2.145
2.52
2.555
2.92
2.93
2.965
3.52
3.21
2.705
2.22
2.355
2.7
2.74
3.02
3.06
3.205
3.625
3.27
2.795
2.31
2.515
2.81
2.89
3.135
3.14
3.36
3.64
3.285
2.825
2.33
2.585
2.825
2.89
3.145
3.2
3.44
3.695
3.295
2.785
2.29
2.575
2.76
2.815
2.995
3.035
3.355
3.54
3.11
2.635
2.125
2.425
2.635
2.655
2.84
2.895
3.27
3.31
2.865
2.415
1.985
2.315
2.47
2.545
2.735
2.78
3.155
3.19
2.795
2.325
1.915
2.31
2.465
2.54
2.69
2.775
3.225
3.165
2.775
2.3
1.855
2.29
2.445
2.56
2.705
2.75
3.215
3.12
2.705
2.28
1.86
2.33
2.46
2.58
2.715
2.79
3.28
3.135
2.745
2.325
1.905
2.365
2.49
2.62
2.705
2.75
3.265
3.12
2.685
2.275
1.86
2.36
2.4
2.575
2.705
2.7
3.22
3.015
2.57
2.11
1.75
2.215
2.25
2.45
2.55
2.57
3.105
2.86
2.375
1.84
1.62
2.13
2.145
2.425
2.5
2.55
3.085
2.805
2.305
1.825
1.71
2.185
2.15
2.5
2.53
2.555
3.1
2.825
2.32
1.815
1.835
2.24
2.25
2.58
2.6
2.615
3.175
2.84
2.36
1.81
1.99
2.25
2.285
2.595
2.655
2.725
3.2
2.84
2.365
1.88
2.055
2.325
2.375
2.645
2.66
2.82
3.215
2.8
2.315
1.855
2.11
2.395
2.47
2.685
2.72
2.97
3.245
2.82
2.325
1.845
2.14
2.385
2.495
2.7
2.755
3.06
3.27
2.84
2.355
1.905
2.21
2.455
2.525
2.705
2.765
3.18
3.305
2.9
2.41
1.95
2.34
2.575
2.645
2.825
2.845
3.255
3.26
2.83
2.355
1.915
2.33
2.505
2.615
2.765
2.8
3.245
3.22
2.815
2.33
1.92
2.395
2.5
2.59
2.73
2.785
3.275
3.235
2.83
2.375
1.97
2.435
2.59
2.675
2.79
2.86
3.335
3.25
2.815
2.37
1.995
2.445
2.585
2.69
2.78
2.845
3.37
3.22
2.765
2.345
1.975
2.465
2.55
2.68
2.78
2.86
3.41
3.22
2.76
2.37
1.975
2.46
2.5
2.74
2.85
2.84
3.38
3.2
2.725
2.225
2.1
2.675
2.79
3.19
3.41
3.505
4.205
4.045
3.6
3.16
3.13
3.63
3.675
3.94
3.85
3.65
3.905
3.36
2.55
1.805
1.78
2.17
2.21
2.535
2.55
2.585
3.11
2.82
2.335
1.845
1.945
2.295
2.295
2.605
2.635
2.695
3.12
2.745
2.195
1.68
1.855
2.135
2.15
2.445
2.46
2.62
3.01
2.66
2.18
1.64
1.85
2.155
2.215
2.465
2.5
2.73
3.025
2.605
2.1
1.665
1.98
2.175
2.265
2.48
2.54
2.83
3.04
2.615
2.1
1.635
1.985
2.205
2.24
2.48
2.51
2.905
2.995
2.62
2.17
1.725
2.085
2.28
2.36
2.59
2.645
3.035
3.15
2.71
2.27
1.825
2.245
2.435
2.52
2.725
2.77
3.21
3.235
2.785
2.33
1.915
2.35
2.485
2.625
2.805
2.845
3.28
3.235
2.83
2.37
1.96
2.415
2.56
2.65
2.79
2.88
3.365
3.265
2.87
2.445
2.045
2.525
2.665
2.775
2.86
2.945
3.45
3.305
2.9
2.465
2.065
2.495
2.555
2.715
2.825
2.825
3.355
3.16
2.7
2.275
1.89
2.375
2.4
2.57
2.68
2.715
3.235
3.015
2.555
1.995
1.76
2.27
2.225
2.5
2.575
2.575
3.105
2.82
2.32
1.81
1.66
2.11
2.11
2.445
2.505
2.525
3.055
2.785
2.24
1.74
1.735
2.15
2.145
2.485
2.49
2.53
3.07
2.74
2.22
1.715
1.8
2.14
2.21
2.52
2.55
2.61
3.1
2.77
2.28
1.78
1.92
2.25
2.285
2.59
2.59
2.76
3.095
2.73
2.225
1.75
1.965
2.24
2.295
2.565
2.61
2.84
3.115
2.705
2.26
1.775
2.045
2.265
2.35
2.535
2.6
2.895
3.11
2.665
2.22
1.745
2.095
2.295
2.41
2.6
2.66
3.015
3.165
2.74
2.27
1.855
2.23
2.435
2.525
2.705
2.73
3.14
3.195
2.785
2.32
1.885
2.26
2.445
2.505
2.675
2.755
3.155
3.13
2.715
2.28
1.825
2.305
2.43
2.53
2.68
2.775
3.225
3.14
2.705
2.265
1.865
2.32
2.48
2.545
2.71
2.79
3.285
3.155
2.725
2.3
1.91
2.33
2.515
2.62
2.755
2.815
3.325
3.185
2.76
2.365
2.005
2.465
2.555
2.71
2.815
2.86
3.415
3.23
2.8
2.425
1.99
2.455
2.5
2.715
2.87
2.87
3.42
3.22
2.75
2.21
1.955
2.47
2.49
2.75
2.86
2.91
3.445
3.19
2.715
2.195
2.105
2.555
2.55
2.865
2.915
2.91
3.43
3.22
2.675
2.13
2.1
2.52
2.53
2.88
2.855
2.87
3.39
3.085
2.56
2.07
2.155
2.51
2.53
2.83
2.84
2.905
3.425
3.035
2.535
2.035
2.22
2.515
2.565
2.84
2.835
3.005
3.38
2.975
2.49
2.015
2.24
2.495
2.56
2.81
2.845
3.095
3.38
2.955
2.49
2.04
2.305
2.52
2.585
2.82
2.87
3.18
3.405
2.955
2.49
2.035
2.33
2.53
2.63
2.835
2.87
3.21
3.335
2.895
2.435
1.99
2.395
2.615
2.795
3.025
3.195
3.73
3.935
3.655
3.31
3.03
3.52
3.82
4.015
4.215
4.31
4.78
4.625
3.97
3.24
2.555
2.655
2.625
2.625
2.8
2.88
3.335
3.245
2.815
2.38
2.0
2.405
2.605
2.69
2.84
2.94
3.435
3.345
2.96
2.515
2.125
2.64
2.745
2.845
3.0
3.065
3.56
3.43
3.005
2.605
2.21
2.7
2.8
2.92
3.055
3.15
3.68
3.52
3.08
2.665
2.285
2.76
2.795
2.97
3.105
3.16
3.71
3.52
3.075
2.555
2.3
2.835
2.84
3.1
3.21
3.25
3.785
3.565
3.065
2.53
2.39
2.89
2.89
3.185
3.265
3.29
3.835
3.595
3.02
2.53
2.475
2.91
2.895
3.24
3.235
3.305
3.87
3.515
3.015
2.52
2.585
2.945
3.02
3.335
3.37
3.405
3.935
3.59
3.095
2.61
2.73
3.07
3.12
3.405
3.42
3.555
3.98
3.63
3.095
2.625
2.84
3.125
3.15
3.425
3.42
3.61
3.935
3.545
3.07
2.565
2.84
3.075
3.13
3.34
3.375
3.655
3.85
3.415
2.905
2.44
2.72
2.91
2.955
3.14
3.15
3.47
3.565
3.13
2.635
2.155
2.485
2.655
2.73
2.88
2.945
3.32
3.345
2.92
2.48
2.01
2.385
2.56
2.625
2.805
2.83
3.235
3.225
2.79
2.32
1.91
2.34
2.51
2.565
2.73
2.79
3.23
3.16
2.755
2.325
1.885
2.315
2.46
2.55
2.725
2.715
3.195
3.125
2.685
2.265
1.855
2.325
2.47
2.6
2.705
2.745
3.26
3.145
2.7
2.28
1.875
2.375
2.49
2.605
2.71
2.79
3.29
3.11
2.66
2.255
1.845
2.32
2.4
2.565
2.65
2.72
3.245
3.015
2.58
2.095
1.8
2.32
2.335
2.585
2.69
2.7
3.265
3.01
2.56
2.02
1.815
2.295
2.295
2.585
2.665
2.68
3.2
2.95
2.45
1.91
1.88
2.285
2.285
2.585
2.605
2.63
3.145
2.815
2.305
1.775
1.815
2.175
2.11
2.48
2.46
2.47
3.01
2.62
2.145
1.605
1.705
2.005
2.08
2.35
2.325
2.42
2.85
2.435
1.93
1.405
1.55
1.845
1.88
2.115
2.175
2.34
2.66
2.225
1.74
1.21
1.465
1.685
1.755
1.96
1.98
2.255
2.525
2.065
1.56
1.09
1.41
1.615
1.67
1.885
1.945
2.265
2.42
1.955
1.445
0.95
1.26
1.39
1.44
1.55
1.555
1.835
1.785
1.245
0.64
0.075
0.395
0.49
0.43
0.455
0.35
0.6
0.49
-0.125
-0.73
-1.265
-0.93
-0.875
-0.91
-0.89
-1.325
-1.535
-2.25
-3.315
-4.31
-5.245
-5.26
-5.555
-5.96
-6.165
-6.475
-6.385
-6.83
-7.54
-8.24
-8.855
-8.735
-8.87
-9.045
-9.185
-9.35
-9.175
-9.505
-10.06
-10.14
-9.975
-9.97
-9.97
-9.98
-10.02
-10.07
-10.2
-153.63
-153.605
10.315
10.485
10.465
10.48
10.46
10.41
10.37
-10.205
-153.635
10.185
10.305
10.465
10.45
10.46
10.435
10.39
10.35
10.2
-153.625
10.215
10.34
10.48
10.47
10.48
10.435
10.405
10.37
10.21
-153.63
10.23
10.36
10.485
10.47
10.48
10.43
10.405
10.37
10.205
-153.62
10.245
10.39
10.5
10.49
10.5
10.445
10.415
10.38
10.21
-153.615
10.27
10.41
10.515
10.505
10.51
10.46
10.43
10.375
10.225
-153.615
10.285
10.425
10.515
10.505
10.51
10.46
10.435
10.375
10.215
-153.605
10.31
10.47
10.535
10.52
10.53
10.48
10.45
10.385
10.235
10.235
10.315
10.47
10.535
10.53
10.535
10.48
10.45
10.37
10.235
10.24
10.33
10.475
10.545
10.53
10.53
10.48
10.45
10.36
10.24
10.25
10.335
10.495
10.535
10.53
10.53
10.485
10.445
10.345
10.235
10.25
10.36
10.505
10.535
10.535
10.525
10.485
10.45
10.34
10.235
10.255
10.355
10.52
10.535
10.535
10.525
10.485
10.44
10.33
10.235
10.26
10.365
10.53
10.54
10.53
10.525
10.48
10.445
-10.155
-153.61
10.17
10.275
10.445
10.45
10.445
10.43
10.395
10.345
10.215
-153.605
10.195
10.305
10.475
10.465
10.47
10.455
10.41
10.375
10.225
-153.61
10.2
10.33
10.485
10.475
10.48
10.455
10.415
10.38
10.23
10.18
10.21
10.345
10.495
10.475
10.49
10.455
10.405
10.38
-10.19
-153.605
10.24
10.38
10.51
10.495
10.51
10.46
10.425
10.39
10.23
-153.605
10.265
10.4
10.515
10.49
10.52
10.46
10.43
10.395
10.225
10.195
10.27
10.42
10.51
10.495
10.505
10.455
10.425
10.38
10.22
10.2
10.275
10.425
10.51
10.495
10.505
10.46
10.425
10.37
10.22
10.195
10.28
10.435
10.51
10.5
10.5
10.455
10.42
10.355
10.21
10.21
10.29
10.435
10.505
10.495
10.5
10.455
10.425
10.345
-10.22
-10.225
-10.135
-9.98
-9.925
-9.93
-9.935
-9.98
-10.01
-10.09
-10.23
-10.22
-10.13
-9.965
-9.925
-9.935
-9.93
-9.985
-10.015
-10.115
-10.24
-10.22
-10.12
-9.96
-9.935
-9.94
-9.94
-9.985
-10.02
-10.13
-10.24
-10.215
-10.12
-9.96
-9.93
-9.94
-9.945
-9.985
-10.025
-10.145
-10.235
-10.21
-10.11
-9.945
-9.925
-9.945
-9.945
-9.985
-10.03
-10.155
-10.24
-10.21
-10.1
-9.935
-9.94
-9.935
-9.94
-9.99
-10.035
-10.17
-10.24
-10.21
-10.1
-9.935
-9.94
-9.93
-9.94
-9.995
-10.03
-10.175
-153.605
10.205
10.325
10.49
10.475
10.485
10.465
10.41
10.38
10.24
-153.61
10.195
10.345
10.49
10.47
10.48
10.44
10.395
10.37
10.215
10.16
10.215
10.355
10.485
10.465
10.48
10.435
10.4
10.365
-10.195
-153.605
10.255
10.39
10.515
10.5
10.52
10.46
10.425
10.39
10.22
10.19
10.265
10.405
10.51
10.495
10.505
10.455
10.425
10.385
10.22
10.195
10.27
10.42
10.52
10.495
10.5
10.455
10.42
10.375
10.215
10.205
10.275
10.43
10.505
10.495
10.505
10.45
10.42
10.365
10.215
10.21
10.285
10.44
10.51
10.49
10.505
10.445
10.41
10.345
10.21
10.205
10.295
10.45
10.505
10.49
10.51
10.455
10.42
10.325
10.2
10.21
10.3
10.455
10.5
10.5
10.495
10.445
10.415
10.31
10.2
10.21
10.31
10.465
10.5
10.5
10.5
10.445
10.405
10.305
10.2
10.215
10.315
10.475
10.5
10.49
10.495
10.45
10.415
10.295
10.195
10.225
10.315
10.48
10.5
10.49
10.49
10.445
10.405
10.285
10.19
