# TIPE ECG 2021 - ECG-ID Database v1.0.0 par Physionet
# [N° de la personne, N° de l'enregistrement, Période d'échantillonnage, Prénom, Age, Sexe, Date de l'enregistrement]
[88, 2, 0.002, "Edouard", 32, "H", "21.05.2005"]
-0.865
-0.78
-0.43
-0.425
-0.085
-0.085
-0.065
0.425
0.105
-0.415
-0.895
-0.735
-0.39
-0.425
-0.11
-0.09
-0.015
0.375
0.035
-0.47
-0.955
-0.73
-0.455
-0.415
-0.125
-0.115
0.025
0.37
-0.05
-0.51
-0.925
-0.68
-0.45
-0.36
-0.105
-0.1
0.11
0.35
-0.04
-0.53
-0.97
-0.66
-0.44
-0.41
-0.18
-0.16
0.145
0.33
-0.06
-0.575
-0.96
-0.6
-0.475
-0.345
-0.175
-0.14
0.255
0.33
-0.125
-0.56
-0.97
-0.605
-0.41
-0.35
-0.18
-0.135
0.28
0.26
-0.14
-0.57
-0.92
-0.48
-0.23
-0.05
0.22
0.43
0.965
1.025
0.75
0.42
0.135
0.635
0.855
0.905
0.99
0.855
1.05
0.74
0.07
-0.595
-1.135
-0.675
-0.54
-0.465
-0.345
-0.29
0.185
0.06
-0.355
-0.775
-1.16
-0.695
-0.58
-0.42
-0.27
-0.2
0.35
0.155
-0.265
-0.63
-1.005
-0.5
-0.455
-0.255
-0.145
-0.105
0.395
0.225
-0.225
-0.68
-0.97
-0.47
-0.475
-0.225
-0.11
-0.08
0.43
0.245
-0.255
-0.77
-0.89
-0.405
-0.42
-0.125
-0.075
-0.08
0.495
0.25
-0.26
-0.805
-0.84
-0.395
-0.39
-0.065
-0.03
-0.01
0.525
0.225
-0.28
-0.765
-0.68
-0.35
-0.32
0.015
0.03
0.075
0.59
0.23
-0.265
-0.75
-0.595
-0.255
-0.19
0.065
0.08
0.205
0.62
0.275
-0.215
-0.67
-0.415
-0.19
-0.085
0.175
0.21
0.385
0.715
0.325
-0.11
-0.57
-0.31
-0.035
0.04
0.28
0.3
0.595
0.82
0.36
-0.07
-0.49
-0.195
0.035
0.125
0.295
0.355
0.675
0.815
0.39
-0.065
-0.525
-0.145
0.045
0.095
0.31
0.32
0.665
0.72
0.285
-0.15
-0.595
-0.225
-0.09
-0.035
0.12
0.16
0.58
0.515
0.08
-0.355
-0.755
-0.375
-0.28
-0.175
-0.045
0.015
0.45
0.32
-0.09
-0.55
-0.94
-0.48
-0.33
-0.23
-0.12
-0.075
0.395
0.25
-0.165
-0.595
-0.985
-0.525
-0.36
-0.25
-0.155
-0.15
0.41
0.215
-0.195
-0.6
-0.96
-0.51
-0.385
-0.27
-0.16
-0.145
0.4
0.25
-0.19
-0.605
-1.02
-0.495
-0.415
-0.24
-0.18
-0.105
0.425
0.205
-0.245
-0.705
-0.92
-0.465
-0.46
-0.225
-0.115
-0.1
0.44
0.175
-0.31
-0.77
-0.92
-0.47
-0.455
-0.175
-0.09
-0.08
0.44
0.155
-0.34
-0.815
-0.84
-0.45
-0.43
-0.115
-0.12
-0.09
0.45
0.15
-0.375
-0.87
-0.79
-0.435
-0.42
-0.1
-0.09
-0.035
0.43
0.05
-0.42
-0.905
-0.73
-0.43
-0.35
-0.12
-0.095
-0.01
0.385
-0.005
-0.485
-0.925
-0.69
-0.42
-0.39
-0.13
-0.09
0.085
0.425
0.015
-0.485
-0.955
-0.695
-0.44
-0.37
-0.145
-0.11
0.155
0.36
-0.04
-0.495
-0.965
-0.61
-0.405
-0.35
-0.145
-0.13
0.205
0.325
-0.05
-0.545
-0.98
-0.61
-0.425
-0.32
-0.16
-0.12
0.27
0.295
-0.1
-0.535
-0.955
-0.575
-0.44
-0.32
-0.17
-0.105
0.33
0.28
-0.12
-0.57
-0.99
-0.54
-0.39
-0.305
-0.145
-0.125
0.275
0.24
-0.17
-0.6
-0.985
-0.535
-0.41
-0.31
-0.17
-0.12
0.365
0.265
-0.185
-0.6
-0.98
-0.49
-0.38
-0.28
-0.18
-0.135
0.365
0.22
-0.15
-0.6
-0.98
-0.53
-0.405
-0.245
-0.18
-0.1
0.45
0.25
-0.19
-0.575
-0.945
-0.47
-0.415
-0.23
-0.11
-0.11
0.415
0.2
-0.24
-0.725
-0.945
-0.485
-0.48
-0.22
-0.125
-0.12
0.395
0.14
-0.3
-0.82
-0.935
-0.515
-0.49
-0.2
-0.13
-0.135
0.41
0.13
-0.385
-0.895
-0.885
-0.495
-0.5
-0.17
-0.14
-0.115
0.41
0.07
-0.435
-0.925
-0.85
-0.51
-0.495
-0.155
-0.125
-0.105
0.385
0.03
-0.455
-0.93
-0.775
-0.455
-0.415
-0.175
-0.15
-0.02
0.35
-0.02
-0.505
-0.955
-0.72
-0.47
-0.41
-0.17
-0.115
0.06
0.36
0.015
-0.37
-0.745
-0.375
0.0
0.185
0.54
0.685
1.085
1.395
1.07
0.645
0.235
0.605
0.68
0.55
0.52
0.335
0.39
0.27
-0.225
-0.73
-1.16
-0.755
-0.61
-0.525
-0.365
-0.33
0.07
0.1
-0.305
-0.72
-1.09
-0.655
-0.48
-0.385
-0.245
-0.18
0.25
0.23
-0.175
-0.61
-0.955
-0.545
-0.42
-0.32
-0.155
-0.15
0.325
0.24
-0.16
-0.585
-0.97
-0.52
-0.375
-0.275
-0.14
-0.085
0.38
0.285
-0.17
-0.565
-0.92
-0.47
-0.36
-0.24
-0.09
-0.055
0.415
0.26
-0.155
-0.545
-0.91
-0.415
-0.34
-0.195
-0.09
-0.06
0.515
0.295
-0.125
-0.52
-0.865
-0.37
-0.355
-0.145
-0.015
0.04
0.575
0.385
-0.065
-0.625
-0.83
-0.32
-0.29
-0.02
0.075
0.135
0.65
0.41
-0.075
-0.575
-0.645
-0.175
-0.2
0.16
0.215
0.21
0.735
0.49
-0.03
-0.51
-0.46
-0.075
-0.07
0.27
0.285
0.34
0.855
0.48
-0.01
-0.5
-0.355
-0.015
0.005
0.32
0.33
0.39
0.84
0.485
-0.025
-0.495
-0.32
-0.055
-0.01
0.23
0.235
0.37
0.69
0.32
-0.185
-0.665
-0.415
-0.205
-0.16
0.05
0.065
0.27
0.53
0.12
-0.375
-0.855
-0.555
-0.335
-0.295
-0.075
-0.1
0.195
0.39
-0.035
-0.5
-0.955
-0.615
-0.425
-0.37
-0.155
-0.13
0.24
0.285
-0.085
-0.545
-1.01
-0.62
-0.405
-0.355
-0.195
-0.115
0.27
0.26
-0.15
-0.63
-1.005
-0.585
-0.415
-0.35
-0.19
-0.155
0.27
0.23
-0.175
-0.62
-1.025
-0.575
-0.415
-0.33
-0.195
-0.14
0.31
0.225
-0.185
-0.615
-1.0
-0.55
-0.405
-0.315
-0.17
-0.13
0.335
0.215
-0.205
-0.585
-0.98
-0.545
-0.415
-0.295
-0.2
-0.105
0.365
0.25
-0.225
-0.66
-1.005
-0.54
-0.455
-0.3
-0.185
-0.13
0.385
0.195
-0.235
-0.68
-1.0
-0.51
-0.46
-0.245
-0.15
-0.145
0.365
0.165
-0.275
-0.82
-0.985
-0.495
-0.485
-0.21
-0.125
-0.12
0.405
0.155
-0.36
-0.885
-0.96
-0.5
-0.51
-0.185
-0.15
-0.135
0.395
0.085
-0.4
-0.91
-0.845
-0.485
-0.495
-0.16
-0.175
-0.13
0.375
0.065
-0.465
-0.935
-0.805
-0.45
-0.44
-0.15
-0.165
-0.075
0.385
0.0
-0.485
-0.94
-0.75
-0.44
-0.425
-0.16
-0.14
0.015
0.35
-0.015
-0.5
-0.955
-0.715
-0.455
-0.375
-0.165
-0.12
0.11
0.34
-0.065
-0.52
-0.96
-0.655
-0.43
-0.39
-0.22
-0.15
0.195
0.295
-0.11
-0.56
-0.97
-0.625
-0.42
-0.345
-0.19
-0.15
0.225
0.285
-0.095
-0.585
-0.97
-0.595
-0.445
-0.35
-0.21
-0.125
0.285
0.27
-0.145
-0.59
-0.99
-0.59
-0.4
-0.32
-0.185
-0.13
0.315
0.26
-0.15
-0.6
-0.98
-0.535
-0.4
-0.305
-0.145
-0.095
0.365
0.255
-0.165
-0.56
-0.94
-0.5
-0.335
-0.265
-0.185
-0.125
0.36
0.215
-0.22
-0.6
-0.985
-0.515
-0.425
-0.29
-0.165
-0.13
0.365
0.185
-0.25
-0.625
-0.97
-0.525
-0.495
-0.315
-0.165
-0.11
0.365
0.19
-0.27
-0.76
-1.0
-0.525
-0.53
-0.24
-0.165
-0.14
0.38
0.115
-0.355
-0.865
-0.96
-0.51
-0.52
-0.2
-0.18
-0.155
0.365
0.09
-0.42
-0.91
-0.87
-0.505
-0.495
-0.175
-0.16
-0.17
0.38
0.07
-0.43
-0.94
-0.885
-0.52
-0.475
-0.19
-0.145
-0.075
0.46
0.21
-0.19
-0.605
-0.315
0.15
0.32
0.71
0.815
1.035
1.48
1.205
0.795
0.34
0.49
0.565
0.355
0.28
0.02
-0.015
0.175
-0.26
-0.675
-1.135
-0.91
-0.63
-0.55
-0.33
-0.285
0.01
0.24
-0.16
-0.595
-1.02
-0.7
-0.505
-0.375
-0.205
-0.12
0.22
0.305
-0.105
-0.57
-0.99
-0.61
-0.45
-0.345
-0.175
-0.14
0.25
0.305
-0.095
-0.575
-0.935
-0.535
-0.385
-0.315
-0.165
-0.095
0.315
0.285
-0.105
-0.545
-0.925
-0.525
-0.35
-0.28
-0.14
-0.085
0.37
0.335
-0.1
-0.535
-0.895
-0.46
-0.27
-0.22
-0.09
-0.005
0.47
0.365
-0.055
-0.49
-0.87
-0.41
-0.27
-0.135
-0.02
0.06
0.51
0.37
-0.055
-0.42
-0.79
-0.31
-0.2
-0.055
0.08
0.14
0.66
0.455
0.04
-0.35
-0.68
-0.2
-0.185
0.06
0.205
0.24
0.77
0.58
0.12
-0.36
-0.585
-0.095
-0.07
0.185
0.285
0.305
0.85
0.585
0.13
-0.37
-0.485
-0.025
-0.005
0.285
0.33
0.33
0.83
0.55
0.07
-0.435
-0.435
-0.035
-0.06
0.265
0.265
0.28
0.755
0.415
-0.115
-0.625
-0.525
-0.205
-0.23
0.065
0.075
0.105
0.57
0.195
-0.305
-0.785
-0.615
-0.38
-0.345
-0.045
-0.055
0.06
0.435
0.05
-0.43
-0.91
-0.7
-0.41
-0.325
-0.105
-0.09
0.1
0.42
0.01
-0.465
-0.975
-0.64
-0.45
-0.35
-0.145
-0.12
0.145
0.345
-0.05
-0.545
-0.945
-0.615
-0.445
-0.355
-0.14
-0.11
0.2
0.36
-0.055
-0.53
-0.95
-0.6
-0.385
-0.325
-0.185
-0.14
0.285
0.275
-0.125
-0.58
-0.975
-0.59
-0.4
-0.305
-0.19
-0.11
0.31
0.26
-0.14
-0.585
-0.975
-0.525
-0.405
-0.295
-0.155
-0.115
0.32
0.255
-0.15
-0.58
-0.975
-0.52
-0.38
-0.32
-0.2
-0.13
0.36
0.215
-0.2
-0.625
-0.975
-0.52
-0.395
-0.28
-0.18
-0.095
0.395
0.205
-0.215
-0.595
-0.99
-0.48
-0.42
-0.3
-0.155
-0.1
0.385
0.215
-0.23
-0.645
-0.975
-0.5
-0.47
-0.255
-0.17
-0.14
0.38
0.175
-0.305
-0.785
-0.98
-0.515
-0.49
-0.205
-0.125
-0.13
0.39
0.12
-0.35
-0.865
-0.96
-0.48
-0.485
-0.165
-0.135
-0.145
0.4
0.115
-0.375
-0.88
-0.87
-0.47
-0.48
-0.155
-0.14
-0.145
0.395
0.06
-0.43
-0.9
-0.785
-0.475
-0.44
-0.14
-0.15
-0.075
0.38
0.05
-0.475
-0.94
-0.75
-0.45
-0.42
-0.14
-0.12
0.03
0.39
-0.07
-0.495
-0.965
-0.715
-0.47
-0.405
-0.135
-0.11
0.115
0.365
-0.05
-0.535
-0.97
-0.6
-0.415
-0.37
-0.15
-0.14
0.125
0.335
-0.075
-0.53
-0.965
-0.59
-0.425
-0.35
-0.16
-0.115
0.22
0.3
-0.125
-0.565
-0.97
-0.61
-0.38
-0.3
-0.16
-0.095
0.31
0.35
-0.055
-0.54
-0.92
-0.52
-0.4
-0.295
-0.135
-0.055
0.38
0.285
-0.15
-0.565
-0.965
-0.545
-0.375
-0.29
-0.21
-0.185
0.295
0.245
-0.17
-0.6
-0.97
-0.52
-0.395
-0.335
-0.175
-0.12
0.33
0.2
-0.235
-0.585
-1.005
-0.545
-0.4
-0.3
-0.205
-0.125
0.365
0.185
-0.225
-0.625
-1.015
-0.51
-0.47
-0.33
-0.21
-0.15
0.38
0.19
-0.255
-0.7
-1.005
-0.52
-0.515
-0.285
-0.165
-0.17
0.36
0.145
-0.3
-0.795
-0.99
-0.51
-0.5
-0.22
-0.15
-0.165
0.39
0.19
-0.25
-0.67
-0.595
-0.04
0.07
0.545
0.705
0.825
1.385
1.21
0.79
0.4
0.465
0.73
0.635
0.74
0.42
0.16
0.445
-0.07
-0.62
-1.095
-0.94
-0.645
-0.63
-0.325
-0.325
-0.195
0.24
-0.115
-0.57
-1.005
-0.79
-0.51
-0.44
-0.18
-0.15
0.04
0.37
-0.02
-0.515
-0.965
-0.67
-0.44
-0.425
-0.155
-0.11
0.145
0.39
-0.035
-0.495
-0.94
-0.61
-0.41
-0.35
-0.16
-0.075
0.215
0.395
-0.035
-0.48
-0.925
-0.58
-0.345
-0.29
-0.115
-0.09
0.305
0.415
-0.015
-0.455
-0.865
-0.49
-0.345
-0.26
-0.065
-0.01
0.4
0.38
-0.025
-0.485
-0.835
-0.445
-0.25
-0.16
-0.005
0.06
0.475
0.425
0.04
-0.405
-0.805
-0.34
-0.165
-0.085
0.065
0.13
0.6
0.49
0.105
-0.33
-0.725
-0.25
-0.065
0.045
0.185
0.26
0.74
0.585
0.17
-0.23
-0.615
-0.09
0.015
0.125
0.26
0.32
0.83
0.645
0.25
-0.17
-0.51
0.0
0.045
0.225
0.315
0.38
0.875
0.68
0.235
-0.255
-0.51
-0.055
-0.06
0.12
0.235
0.32
0.79
0.515
0.03
-0.46
-0.61
-0.175
-0.185
0.065
0.11
0.09
0.605
0.315
-0.185
-0.705
-0.72
-0.36
-0.365
-0.06
-0.065
-0.05
0.5
0.155
-0.355
-0.815
-0.795
-0.435
-0.425
-0.09
-0.105
-0.065
0.435
0.045
-0.4
-0.905
-0.74
-0.41
-0.39
-0.12
-0.085
0.01
0.415
0.035
-0.485
-0.92
-0.72
-0.435
-0.38
-0.115
-0.09
0.105
0.37
-0.015
-0.49
-0.95
-0.64
-0.405
-0.385
-0.16
-0.1
0.185
0.375
-0.065
-0.52
-0.955
-0.625
-0.405
-0.37
-0.17
-0.12
0.225
0.34
-0.045
-0.54
-0.965
-0.595
-0.405
-0.315
-0.15
-0.09
0.29
0.33
-0.09
-0.555
-0.965
-0.56
-0.38
-0.295
-0.135
-0.085
0.335
0.25
-0.13
-0.605
-0.965
-0.535
-0.375
-0.305
-0.165
-0.09
0.355
0.285
-0.145
-0.585
-0.98
-0.535
-0.36
-0.28
-0.155
-0.11
0.32
0.195
-0.2
-0.605
-0.98
-0.52
-0.37
-0.275
-0.155
-0.125
0.365
0.25
-0.18
-0.61
-0.99
-0.52
-0.42
-0.28
-0.145
-0.1
0.44
0.23
-0.255
-0.63
-1.015
-0.51
-0.465
-0.275
-0.16
-0.115
0.385
0.18
-0.27
-0.755
-0.965
-0.49
-0.475
-0.215
-0.16
-0.13
0.405
0.145
-0.345
-0.85
-0.955
-0.49
-0.49
-0.185
-0.15
-0.14
0.425
0.125
-0.395
-0.88
-0.85
-0.445
-0.495
-0.15
-0.155
-0.15
0.375
0.105
-0.415
-0.87
-0.775
-0.455
-0.455
-0.13
-0.135
-0.09
0.39
0.03
-0.465
-0.92
-0.735
-0.42
-0.405
-0.15
-0.145
0.015
0.365
-0.015
-0.485
-0.96
-0.725
-0.455
-0.42
-0.16
-0.115
0.105
0.385
-0.03
-0.495
-0.96
-0.66
-0.425
-0.38
-0.195
-0.165
0.185
0.355
-0.07
-0.535
-0.975
-0.625
-0.39
-0.33
-0.125
-0.115
0.265
0.36
-0.065
-0.535
-0.935
-0.535
-0.39
-0.32
-0.155
-0.13
0.28
0.295
-0.115
-0.6
-0.995
-0.57
-0.35
-0.295
-0.165
-0.15
0.28
0.23
-0.155
-0.61
-1.025
-0.59
-0.42
-0.35
-0.215
-0.145
0.32
0.24
-0.155
-0.595
-1.025
-0.545
-0.415
-0.345
-0.2
-0.14
0.315
0.175
-0.23
-0.645
-1.025
-0.555
-0.43
-0.315
-0.2
-0.155
0.34
0.185
-0.23
-0.64
-1.015
-0.545
-0.485
-0.305
-0.215
-0.165
0.39
0.155
-0.255
-0.68
-1.03
-0.53
-0.495
-0.26
-0.19
-0.155
0.38
0.22
-0.18
-0.56
-0.625
0.01
0.13
0.575
0.73
0.85
1.445
1.285
0.855
0.41
0.355
0.675
0.465
0.505
0.215
-0.02
0.28
-0.1
-0.605
-1.06
-1.005
-0.69
-0.645
-0.305
-0.3
-0.28
0.25
-0.08
-0.545
-1.005
-0.79
-0.53
-0.49
-0.19
-0.15
-0.065
0.365
0.015
-0.495
-0.96
-0.755
-0.465
-0.42
-0.13
-0.125
0.055
0.405
0.01
-0.495
-0.915
-0.65
-0.405
-0.34
-0.09
-0.105
0.145
0.425
-0.02
-0.475
-0.9
-0.59
-0.37
-0.295
-0.125
-0.09
0.27
0.385
-0.005
-0.48
-0.91
-0.525
-0.33
-0.26
-0.055
-0.04
0.385
0.42
0.015
-0.455
-0.855
-0.455
-0.27
-0.175
0.015
0.025
0.41
0.415
0.04
-0.34
-0.755
-0.365
-0.195
-0.075
0.07
0.15
0.58
0.485
0.115
-0.315
-0.69
-0.22
-0.09
0.0
0.14
0.23
0.7
0.575
0.25
-0.195
-0.57
-0.115
0.015
0.125
0.27
0.32
0.805
0.675
0.25
-0.125
-0.525
-0.055
0.065
0.2
0.31
0.385
0.87
0.68
0.245
-0.14
-0.535
-0.045
0.005
0.15
0.23
0.295
0.815
0.555
0.105
-0.37
-0.66
-0.175
-0.2
0.05
0.105
0.075
0.59
0.345
-0.145
-0.69
-0.795
-0.345
-0.38
-0.055
0.0
-0.055
0.47
0.2
-0.285
-0.79
-0.825
-0.42
-0.435
-0.095
-0.08
-0.055
0.455
0.1
-0.385
-0.885
-0.795
-0.43
-0.43
-0.11
-0.1
-0.04
0.405
0.055
-0.435
-0.91
-0.715
-0.42
-0.385
-0.135
-0.13
0.04
0.455
0.005
-0.47
-0.895
-0.625
-0.435
-0.395
-0.13
-0.09
0.115
0.395
-0.01
-0.47
-0.93
-0.65
-0.425
-0.365
-0.155
-0.075
0.225
0.4
-0.025
-0.475
-0.92
-0.595
-0.39
-0.34
-0.155
-0.11
0.27
0.36
-0.055
-0.545
-0.945
-0.575
-0.42
-0.29
-0.13
-0.07
0.32
0.32
-0.1
-0.55
-0.96
-0.535
-0.355
-0.32
-0.16
-0.1
0.315
0.31
-0.105
-0.56
-0.965
-0.54
-0.4
-0.315
-0.14
-0.085
0.34
0.265
-0.155
-0.605
-0.99
-0.51
-0.4
-0.27
-0.18
-0.095
0.375
0.245
-0.145
-0.6
-0.97
-0.51
-0.365
-0.26
-0.165
-0.13
0.405
0.255
-0.195
-0.6
-0.985
-0.495
-0.415
-0.245
-0.185
-0.12
0.405
0.21
-0.215
-0.615
-0.98
-0.485
-0.47
-0.23
-0.175
-0.14
0.4
0.22
-0.27
-0.775
-0.97
-0.455
-0.455
-0.19
-0.145
-0.145
0.415
0.15
-0.325
-0.845
-0.89
-0.465
-0.49
-0.165
-0.12
-0.125
0.385
0.135
-0.39
-0.88
-0.835
-0.465
-0.465
-0.12
-0.115
-0.11
0.43
0.1
-0.415
-0.89
-0.75
-0.46
-0.435
-0.12
-0.12
-0.025
0.42
0.025
-0.455
-0.915
-0.69
-0.41
-0.415
-0.165
-0.09
0.1
0.42
0.03
-0.43
-0.89
-0.63
-0.365
-0.32
-0.11
-0.05
0.19
0.42
-0.01
-0.455
-0.92
-0.6
-0.385
-0.325
-0.145
-0.1
0.205
0.395
-0.09
-0.555
-0.95
-0.57
-0.395
-0.34
-0.145
-0.1
0.25
0.325
-0.095
-0.54
-0.975
-0.585
-0.39
-0.32
-0.155
-0.14
0.32
0.3
-0.09
-0.57
-0.965
-0.545
-0.415
-0.325
-0.13
-0.125
0.27
0.235
-0.165
-0.585
-0.985
-0.55
-0.415
-0.315
-0.16
-0.11
0.33
0.215
-0.185
-0.58
-0.965
-0.535
-0.385
-0.27
-0.165
-0.13
0.385
0.235
-0.195
-0.58
-0.955
-0.42
-0.245
0.02
0.25
0.46
1.05
1.03
0.71
0.42
0.145
0.665
0.755
0.9
0.915
0.775
1.01
0.6
-0.065
-0.755
-1.12
-0.63
-0.64
-0.4
-0.285
-0.26
0.23
-0.01
-0.47
-0.99
-1.075
-0.62
-0.58
-0.3
-0.205
-0.185
0.375
0.11
-0.38
-0.84
-0.855
-0.465
-0.45
-0.125
-0.1
-0.095
0.41
0.15
-0.345
-0.875
-0.755
-0.44
-0.41
-0.08
-0.11
-0.025
0.46
0.11
-0.405
-0.85
-0.655
-0.405
-0.38
-0.075
-0.01
0.08
0.52
0.1
-0.38
-0.835
-0.62
-0.36
-0.29
-0.015
0.01
0.225
0.525
0.09
-0.37
-0.835
-0.535
-0.3
-0.22
0.015
0.05
0.315
0.54
0.1
-0.32
-0.73
-0.44
-0.235
-0.125
0.06
0.14
0.475
0.61
0.195
-0.255
-0.68
-0.28
-0.105
-0.005
0.16
0.235
0.645
0.68
0.275
-0.18
-0.575
-0.16
-0.01
0.135
0.285
0.32
0.735
0.725
0.305
-0.09
-0.46
-0.08
0.095
0.185
0.315
0.36
0.805
0.75
0.33
-0.09
-0.52
-0.06
0.1
0.185
0.275
0.35
0.805
0.65
0.2
-0.22
-0.62
-0.175
-0.09
0.055
0.13
0.135
0.585
0.455
0.055
-0.41
-0.815
-0.325
-0.28
-0.155
-0.05
0.005
0.475
0.295
-0.115
-0.565
-0.935
-0.43
-0.415
-0.215
-0.105
-0.085
0.44
0.24
-0.23
-0.75
-0.97
-0.425
-0.435
-0.2
-0.1
-0.135
0.375
0.17
-0.285
-0.805
-0.95
-0.47
-0.465
-0.17
-0.125
-0.09
0.44
0.18
-0.31
-0.82
-0.89
-0.47
-0.46
-0.14
-0.105
-0.08
0.415
0.125
-0.395
-0.87
-0.765
-0.44
-0.435
-0.12
-0.12
-0.035
0.455
0.1
-0.4
-0.94
-0.72
-0.395
-0.385
-0.1
-0.09
0.07
0.45
0.045
-0.46
-0.935
-0.67
-0.415
-0.36
-0.135
-0.09
0.14
0.435
0.0
-0.49
-0.96
-0.635
-0.385
-0.355
-0.14
-0.085
0.21
0.42
-0.025
-0.5
-0.95
-0.63
-0.43
-0.35
-0.13
-0.105
0.23
0.42
-0.03
-0.51
-0.99
-0.595
-0.4
-0.3
-0.14
-0.1
0.315
0.32
-0.12
-0.565
-0.95
-0.555
-0.395
-0.34
-0.165
-0.11
0.315
0.29
-0.115
-0.54
-0.98
-0.565
-0.45
-0.305
-0.16
-0.08
0.355
0.27
-0.135
-0.565
-1.0
-0.535
-0.38
-0.28
-0.155
-0.09
0.365
0.26
-0.17
-0.595
-0.98
-0.515
-0.4
-0.265
-0.17
-0.11
0.405
0.225
-0.21
-0.625
-1.02
-0.49
-0.445
-0.28
-0.16
-0.095
0.46
0.22
-0.215
-0.69
-1.005
-0.49
-0.485
-0.245
-0.125
-0.09
0.44
0.205
-0.27
-0.795
-0.945
-0.47
-0.485
-0.23
-0.105
-0.115
0.435
0.16
-0.335
-0.815
-0.87
-0.455
-0.455
-0.125
-0.065
-0.03
0.515
0.195
-0.325
-0.835
-0.805
-0.39
-0.39
-0.06
-0.05
-0.015
0.485
0.11
-0.375
-0.89
-0.77
-0.43
-0.44
-0.11
-0.125
-0.05
0.41
0.06
-0.44
-0.935
-0.715
-0.435
-0.375
-0.125
-0.07
0.08
0.42
0.005
-0.47
-0.95
-0.685
-0.44
-0.37
-0.135
-0.115
0.15
0.42
-0.045
-0.49
-0.965
-0.6
-0.425
-0.375
-0.175
-0.09
0.21
0.33
-0.09
-0.54
-0.965
-0.625
-0.44
-0.335
-0.17
-0.115
0.265
0.335
-0.075
-0.555
-1.0
-0.58
-0.43
-0.32
-0.195
-0.12
0.315
0.36
0.02
-0.31
-0.575
-0.025
0.26
0.47
0.725
0.87
1.41
1.44
1.06
0.67
0.255
0.515
0.485
0.34
0.17
-0.065
0.225
0.075
-0.375
-0.76
-1.12
-0.645
-0.565
-0.495
-0.355
-0.25
0.24
0.11
-0.335
-0.695
-1.03
-0.57
-0.49
-0.295
-0.185
-0.115
0.355
0.215
-0.185
-0.58
-0.96
-0.475
-0.46
-0.26
-0.135
-0.09
0.41
0.23
-0.24
-0.7
-0.91
-0.425
-0.46
-0.205
-0.07
-0.04
0.49
0.24
-0.23
-0.735
-0.82
-0.43
-0.43
-0.13
-0.07
-0.045
0.515
0.205
-0.23
-0.745
-0.77
-0.355
-0.37
-0.05
-0.005
0.01
0.56
0.27
-0.27
-0.765
-0.655
-0.295
-0.275
0.015
0.055
0.13
0.63
0.235
-0.23
-0.655
-0.515
-0.215
-0.145
0.105
0.165
0.27
0.685
0.335
-0.13
-0.61
-0.4
-0.13
-0.03
0.235
0.26
0.46
0.81
0.375
-0.055
-0.52
-0.255
-0.025
0.12
0.295
0.34
0.62
0.84
0.41
-0.03
-0.485
-0.15
0.03
0.095
0.335
0.365
0.66
0.825
0.365
-0.095
-0.505
-0.14
0.01
0.04
0.25
0.305
0.605
0.675
0.215
-0.26
-0.695
-0.305
-0.135
-0.09
0.07
0.08
0.48
0.46
0.035
-0.43
-0.855
-0.42
-0.255
-0.19
-0.08
-0.04
0.39
0.31
-0.105
-0.49
-0.895
-0.45
-0.345
-0.245
-0.12
-0.05
0.4
0.28
-0.135
-0.54
-0.955
-0.5
-0.385
-0.26
-0.11
-0.07
0.4
0.29
-0.165
-0.57
-0.95
-0.46
-0.375
-0.225
-0.13
-0.105
0.435
0.285
-0.17
-0.55
-0.945
-0.435
-0.425
-0.225
-0.1
-0.06
0.46
0.225
-0.21
-0.71
-0.925
-0.435
-0.425
-0.17
-0.045
-0.06
0.455
0.205
-0.275
-0.76
-0.86
-0.445
-0.44
-0.155
-0.08
-0.08
0.455
0.2
-0.315
-0.815
-0.785
-0.42
-0.42
-0.11
-0.09
-0.045
0.455
0.15
-0.365
-0.89
-0.75
-0.42
-0.405
-0.1
-0.065
0.0
0.465
0.085
-0.395
-0.885
-0.65
-0.405
-0.365
-0.09
-0.11
0.06
0.445
0.065
-0.455
-0.91
-0.65
-0.405
-0.335
-0.13
-0.075
0.18
0.43
0.005
-0.45
-0.915
-0.62
-0.4
-0.335
-0.15
-0.115
0.21
0.415
-0.055
-0.49
-0.915
-0.565
-0.4
-0.295
-0.135
-0.095
0.25
0.345
-0.08
-0.515
-0.94
-0.54
-0.37
-0.315
-0.155
-0.075
0.295
0.28
-0.11
-0.53
-0.935
-0.545
-0.35
-0.25
-0.135
-0.12
0.315
0.295
-0.105
-0.545
-0.955
-0.5
-0.36
-0.27
-0.14
-0.075
0.365
0.25
-0.15
-0.585
-0.955
-0.5
-0.375
-0.265
-0.125
-0.075
0.38
0.26
-0.175
-0.58
-0.97
-0.515
-0.37
-0.24
-0.145
-0.07
0.4
0.255
-0.16
-0.55
-0.94
-0.47
-0.425
-0.24
-0.1
-0.075
0.46
0.31
-0.11
-0.595
-0.905
-0.415
-0.415
-0.15
-0.075
-0.075
0.455
0.29
-0.215
-0.745
-0.935
-0.435
-0.4
-0.16
-0.075
-0.07
0.45
0.19
-0.305
-0.815
-0.885
-0.45
-0.455
-0.135
-0.09
-0.085
0.44
0.135
-0.355
-0.865
-0.785
-0.45
-0.415
-0.125
-0.085
-0.055
0.44
0.1
-0.38
-0.9
-0.735
-0.405
-0.38
-0.115
-0.1
0.01
0.42
0.035
-0.45
-0.91
-0.695
-0.425
-0.385
-0.085
-0.07
0.095
0.455
0.01
-0.44
-0.925
-0.665
-0.395
-0.355
-0.115
-0.075
0.175
0.405
0.005
-0.44
-0.795
-0.42
-0.125
0.07
0.39
0.54
0.965
1.24
0.91
0.57
0.215
0.635
0.895
0.99
1.08
0.945
1.04
0.76
0.075
-0.575
-1.075
-0.68
-0.515
-0.4
-0.27
-0.24
0.165
0.195
-0.22
-0.65
-1.015
-0.56
-0.38
-0.28
-0.1
-0.06
0.33
0.34
-0.1
-0.565
-0.95
-0.485
-0.33
-0.2
-0.095
-0.05
0.4
0.295
-0.13
-0.54
-0.88
-0.435
-0.31
-0.21
-0.08
0.03
0.475
0.33
-0.12
-0.5
-0.875
-0.37
-0.33
-0.155
-0.05
0.035
0.54
0.37
-0.1
-0.475
-0.81
-0.295
-0.29
-0.09
0.0
0.05
0.555
0.42
-0.045
-0.54
-0.795
-0.255
-0.26
0.01
0.075
0.1
0.64
0.445
-0.06
-0.595
-0.67
-0.185
-0.175
0.085
0.16
0.17
0.7
0.46
-0.06
-0.51
-0.52
-0.125
-0.13
0.235
0.29
0.3
0.83
0.51
0.01
-0.445
-0.33
-0.015
0.02
0.35
0.365
0.405
0.92
0.57
0.08
-0.39
-0.23
0.08
0.115
0.375
0.4
0.54
0.9
0.53
0.07
-0.42
-0.17
0.07
0.125
0.355
0.365
0.575
0.88
0.445
-0.065
-0.525
-0.245
-0.05
0.01
0.215
0.18
0.45
0.665
0.225
-0.24
-0.675
-0.365
-0.2
-0.15
0.04
0.04
0.39
0.495
0.065
-0.375
-0.83
-0.455
-0.275
-0.195
-0.04
-0.025
0.405
0.455
0.02
-0.44
-0.86
-0.445
-0.28
-0.155
-0.06
0.0
0.42
0.42
0.005
-0.47
-0.855
-0.425
-0.33
-0.22
-0.075
-0.015
0.43
0.385
-0.03
-0.45
-0.865
-0.43
-0.32
-0.215
-0.07
-0.02
0.465
0.355
-0.085
-0.495
-0.875
-0.41
-0.29
-0.22
-0.12
0.01
0.465
0.315
-0.11
-0.475
-0.86
-0.4
-0.295
-0.185
-0.075
-0.025
0.48
0.28
-0.14
-0.525
-0.875
-0.415
-0.36
-0.13
-0.05
0.0
0.515
0.29
-0.15
-0.675
-0.865
-0.35
-0.375
-0.085
-0.015
0.015
0.52
0.3
-0.205
-0.695
-0.82
-0.35
-0.37
-0.06
0.025
0.025
0.525
0.24
-0.29
-0.8
-0.74
-0.34
-0.335
-0.02
-0.02
0.015
0.535
0.185
-0.285
-0.775
-0.645
-0.315
-0.29
-0.025
-0.02
0.055
0.51
0.16
-0.36
-0.795
-0.6
-0.36
-0.295
-0.025
0.025
0.145
0.495
0.095
-0.34
-0.83
-0.575
-0.34
-0.27
-0.05
-0.01
0.205
0.51
0.095
-0.415
-0.85
-0.585
-0.38
-0.275
-0.04
0.005
0.3
0.49
0.065
-0.4
-0.85
-0.515
-0.335
-0.265
-0.045
-0.03
0.34
0.48
0.0
-0.455
-0.875
-0.495
-0.31
-0.2
-0.05
-0.01
0.395
0.39
-0.03
-0.455
-0.855
-0.465
-0.3
-0.21
-0.055
-0.005
0.4
0.375
-0.01
-0.475
-0.85
-0.43
-0.28
-0.17
-0.05
0.0
0.445
0.355
-0.05
-0.485
-0.875
-0.415
-0.25
-0.17
-0.055
0.03
0.5
0.375
-0.01
-0.43
-0.82
-0.37
-0.245
-0.09
-0.035
0.04
0.52
0.355
-0.075
-0.455
-0.875
-0.335
-0.305
-0.14
-0.035
0.02
0.53
0.305
-0.105
-0.55
-0.895
-0.375
-0.365
-0.145
-0.02
-0.035
0.505
0.285
-0.17
-0.71
-0.885
-0.385
-0.36
-0.08
-0.015
-0.025
0.515
0.22
-0.2
-0.705
-0.835
-0.38
-0.385
-0.06
-0.045
0.015
0.535
0.225
-0.29
-0.785
-0.72
-0.355
-0.355
-0.04
-0.01
0.02
0.53
0.18
-0.31
-0.82
-0.655
-0.32
-0.33
-0.06
-0.035
0.09
0.52
0.13
-0.335
-0.78
-0.47
-0.115
0.045
0.4
0.535
0.865
1.28
0.965
0.585
0.23
0.625
0.905
1.03
1.205
1.11
1.12
1.09
0.37
-0.38
-0.995
-0.715
-0.5
-0.43
-0.23
-0.215
0.145
0.285
-0.11
-0.555
-0.93
-0.54
-0.34
-0.26
-0.075
0.005
0.37
0.4
0.005
-0.405
-0.885
-0.45
-0.275
-0.2
-0.03
0.03
0.41
0.42
0.02
-0.415
-0.825
-0.39
-0.21
-0.16
-0.01
0.05
0.465
0.425
0.0
-0.38
-0.77
-0.365
-0.165
-0.12
0.0
0.06
0.56
0.465
0.065
-0.38
-0.775
-0.325
-0.155
-0.04
0.07
0.175
0.64
0.475
0.07
-0.355
-0.735
-0.25
-0.125
0.0
0.085
0.165
0.69
0.52
0.095
-0.32
-0.7
-0.19
-0.145
0.075
0.185
0.275
0.795
0.59
0.185
-0.34
-0.57
-0.065
-0.08
0.23
0.335
0.35
0.925
0.685
0.21
-0.285
-0.45
0.01
0.03
0.355
0.42
0.46
0.995
0.735
0.22
-0.29
-0.29
0.135
0.125
0.485
0.5
0.495
1.08
0.745
0.235
-0.265
-0.22
0.135
0.135
0.465
0.48
0.49
0.975
0.595
0.09
-0.405
-0.23
0.03
0.02
0.31
0.29
0.4
0.805
0.41
-0.105
-0.64
-0.415
-0.155
-0.11
0.11
0.14
0.32
0.645
0.205
-0.245
-0.735
-0.45
-0.215
-0.22
0.03
0.08
0.37
0.58
0.12
-0.33
-0.815
-0.505
-0.27
-0.19
-0.02
0.045
0.385
0.5
0.075
-0.4
-0.835
-0.49
-0.265
-0.185
-0.005
0.05
0.455
0.485
0.06
-0.425
-0.83
-0.44
-0.26
-0.21
0.0
0.035
0.455
0.455
0.05
-0.4
-0.83
-0.405
-0.295
-0.135
-0.02
0.045
0.49
0.42
0.02
-0.4
-0.815
-0.35
-0.26
-0.175
-0.015
0.08
0.515
0.405
0.01
-0.435
-0.845
-0.335
-0.24
-0.14
-0.005
0.045
0.56
0.38
-0.055
-0.43
-0.795
-0.375
-0.245
-0.11
0.0
0.055
0.55
0.385
-0.04
-0.465
-0.85
-0.36
-0.34
-0.1
0.025
0.03
0.58
0.375
-0.09
-0.635
-0.855
-0.305
-0.305
-0.045
0.035
0.015
0.605
0.3
-0.175
-0.68
-0.765
-0.315
-0.315
-0.085
0.005
0.04
0.565
0.305
-0.2
-0.745
-0.71
-0.36
-0.325
-0.02
0.01
0.045
0.63
0.29
-0.245
-0.79
-0.655
-0.315
-0.33
-0.02
0.05
0.095
0.565
0.205
-0.285
-0.79
-0.61
-0.34
-0.285
-0.02
0.0
0.18
0.585
0.18
-0.285
-0.79
-0.57
-0.32
-0.22
-0.01
-0.005
0.275
0.565
0.125
-0.335
-0.815
-0.525
-0.29
-0.245
0.01
0.085
0.33
0.51
0.115
-0.365
-0.88
-0.515
-0.32
-0.235
-0.025
0.03
0.445
0.495
0.1
-0.4
-0.84
-0.465
-0.29
-0.23
0.0
0.03
0.445
0.475
0.055
-0.405
-0.82
-0.405
-0.26
-0.205
-0.01
0.035
0.46
0.475
0.03
-0.44
-0.855
-0.44
-0.25
-0.165
-0.03
0.04
0.565
0.405
-0.02
-0.47
-0.87
-0.41
-0.25
-0.1
0.035
0.075
0.58
0.465
0.07
-0.38
-0.795
-0.315
-0.205
-0.095
0.035
0.08
0.575
0.395
-0.01
-0.445
-0.805
-0.365
-0.275
-0.105
0.015
0.03
0.57
0.38
-0.07
-0.52
-0.87
-0.37
-0.36
-0.1
0.03
0.04
0.595
0.32
-0.115
-0.645
-0.815
-0.365
-0.295
-0.04
0.03
0.02
0.575
0.32
-0.19
-0.71
-0.76
-0.34
-0.37
-0.005
0.02
0.02
0.57
0.29
-0.23
-0.755
-0.68
-0.32
-0.32
0.0
0.04
0.035
0.555
0.22
-0.275
-0.79
-0.665
-0.33
-0.29
0.03
0.025
0.115
0.625
0.345
-0.12
-0.495
-0.2
0.225
0.425
0.84
0.96
1.215
1.71
1.33
0.935
0.475
0.76
0.815
0.625
0.575
0.32
0.335
0.425
-0.05
-0.545
-1.005
-0.67
-0.475
-0.365
-0.105
-0.06
0.23
0.41
-0.045
-0.395
-0.875
-0.505
-0.26
-0.135
-0.025
0.015
0.4
0.48
0.04
-0.415
-0.835
-0.435
-0.255
-0.175
0.01
0.09
0.5
0.49
0.1
-0.38
-0.82
-0.38
-0.16
-0.095
0.06
0.12
0.525
0.46
0.065
-0.36
-0.755
-0.305
-0.13
-0.07
0.025
0.125
0.62
0.51
0.095
-0.335
-0.73
-0.26
-0.135
-0.065
0.13
0.165
0.705
0.58
0.115
-0.3
-0.71
-0.22
-0.145
0.045
0.15
0.22
0.77
0.59
0.21
-0.21
-0.635
-0.135
-0.055
0.12
0.245
0.32
0.85
0.665
0.225
-0.27
-0.53
-0.01
0.0
0.305
0.425
0.455
0.97
0.695
0.265
-0.25
-0.395
0.11
0.1
0.42
0.515
0.55
1.06
0.765
0.29
-0.265
-0.245
0.165
0.18
0.495
0.54
0.565
1.08
0.775
0.3
-0.22
-0.17
0.135
0.14
0.47
0.455
0.495
0.95
0.61
0.09
-0.425
-0.29
0.02
0.04
0.295
0.295
0.425
0.81
0.385
-0.12
-0.63
-0.38
-0.125
-0.135
0.11
0.145
0.345
0.695
0.25
-0.24
-0.71
-0.475
-0.225
-0.13
0.05
0.115
0.39
0.625
0.205
-0.27
-0.78
-0.46
-0.255
-0.185
0.015
0.065
0.415
0.565
0.13
-0.32
-0.755
-0.395
-0.27
-0.175
0.05
0.115
0.485
0.535
0.12
-0.365
-0.79
-0.44
-0.225
-0.145
0.025
0.09
0.5
0.515
0.105
-0.385
-0.76
-0.34
-0.235
-0.135
0.025
0.09
0.525
0.48
0.085
-0.395
-0.81
-0.36
-0.21
-0.11
0.06
0.125
0.57
0.465
0.015
-0.42
-0.81
-0.35
-0.19
-0.08
0.0
0.075
0.59
0.455
0.035
-0.38
-0.8
-0.32
-0.215
-0.09
0.035
0.11
0.6
0.425
-0.035
-0.44
-0.805
-0.29
-0.305
-0.115
0.025
0.09
0.675
0.415
-0.055
-0.55
-0.81
-0.3
-0.29
-0.085
0.075
0.075
0.6
0.41
-0.115
-0.645
-0.76
-0.31
-0.32
0.0
0.075
0.07
0.63
0.36
-0.175
-0.71
-0.705
-0.305
-0.3
0.025
0.065
0.07
0.615
0.28
-0.19
-0.71
-0.625
-0.28
-0.255
0.075
0.07
0.095
0.62
0.245
-0.28
-0.77
-0.555
-0.275
-0.25
0.025
0.075
0.21
0.605
0.22
-0.255
-0.755
-0.55
-0.3
-0.25
0.01
0.065
0.29
0.575
0.15
-0.305
-0.785
-0.48
-0.245
-0.18
0.01
0.05
0.365
0.56
0.175
-0.305
-0.83
-0.475
-0.275
-0.195
0.0
0.005
0.425
0.555
0.145
-0.38
-0.81
-0.44
-0.26
-0.15
0.045
0.055
0.46
0.49
0.045
-0.42
-0.795
-0.385
-0.18
-0.12
0.01
0.07
0.455
0.465
0.04
-0.42
-0.825
-0.39
-0.23
-0.165
0.04
0.075
0.54
0.46
0.08
-0.385
-0.79
-0.305
-0.18
-0.06
0.045
0.07
0.6
0.445
0.02
-0.36
-0.79
-0.36
-0.23
-0.13
0.015
0.05
0.565
0.435
-0.01
-0.48
-0.85
-0.335
-0.26
-0.11
-0.005
0.045
0.58
0.395
-0.05
-0.545
-0.87
-0.39
-0.345
-0.1
0.03
0.035
0.585
0.355
-0.07
-0.635
-0.86
-0.34
-0.345
-0.085
0.015
0.025
0.58
0.32
-0.17
-0.725
-0.79
-0.305
-0.335
-0.05
-0.005
0.04
0.63
0.295
-0.22
-0.76
-0.705
-0.33
-0.32
0.015
-0.015
0.035
0.55
0.195
-0.215
-0.61
-0.435
0.0
0.14
0.59
0.74
0.955
1.51
1.275
0.85
0.44
0.67
1.0
1.015
1.135
0.88
0.71
0.82
0.19
-0.48
-0.97
-0.76
-0.485
-0.415
-0.18
-0.13
0.145
0.38
0.005
-0.45
-0.925
-0.6
-0.335
-0.245
-0.03
0.025
0.335
0.53
0.115
-0.34
-0.845
-0.54
-0.285
-0.225
0.005
0.05
0.44
0.505
0.075
-0.38
-0.805
-0.41
-0.24
-0.13
0.01
0.08
0.485
0.5
0.13
-0.36
-0.75
-0.37
-0.21
-0.16
0.04
0.07
0.555
0.485
0.065
-0.325
-0.75
-0.32
-0.15
-0.075
0.09
0.155
0.58
0.5
0.12
-0.3
-0.73
-0.255
-0.09
-0.01
0.11
0.205
0.71
0.585
0.12
-0.235
-0.685
-0.17
-0.06
0.06
0.21
0.27
0.825
0.625
0.185
-0.215
-0.595
-0.08
0.0
0.16
0.315
0.36
0.92
0.735
0.29
-0.215
-0.495
0.02
0.09
0.295
0.43
0.465
0.99
0.76
0.31
-0.21
-0.395
0.105
0.115
0.42
0.485
0.505
1.025
0.795
0.255
-0.28
-0.315
0.115
0.105
0.44
0.435
0.42
0.965
0.65
0.155
-0.39
-0.36
-0.045
-0.055
0.28
0.26
0.285
0.795
0.42
-0.1
-0.595
-0.465
-0.185
-0.175
0.115
0.105
0.23
0.645
0.23
-0.245
-0.73
-0.535
-0.26
-0.215
0.02
0.12
0.25
0.55
0.14
-0.34
-0.83
-0.5
-0.285
-0.25
-0.005
0.05
0.29
0.56
0.115
-0.375
-0.795
-0.525
-0.295
-0.215
0.0
0.02
0.38
0.515
0.095
-0.41
-0.81
-0.45
-0.255
-0.21
-0.025
0.03
0.44
0.47
0.045
-0.445
-0.815
-0.42
-0.265
-0.17
-0.01
0.045
0.43
0.445
0.035
-0.425
-0.8
-0.43
-0.26
-0.165
0.02
0.055
0.475
0.425
0.04
-0.42
-0.835
-0.415
-0.28
-0.175
-0.005
0.055
0.535
0.435
0.015
-0.46
-0.83
-0.365
-0.235
-0.13
0.0
0.045
0.575
0.435
-0.055
-0.47
-0.85
-0.37
-0.275
-0.115
0.01
0.025
0.595
0.385
-0.06
-0.43
-0.805
-0.355
-0.345
-0.145
-0.015
0.095
0.615
0.37
-0.1
-0.645
-0.87
-0.325
-0.355
-0.095
0.02
0.035
0.57
0.305
-0.18
-0.665
-0.765
-0.33
-0.335
-0.055
0.01
0.03
0.565
0.31
-0.23
-0.695
-0.75
-0.375
-0.34
0.0
0.02
0.04
0.545
0.255
-0.29
-0.83
-0.66
-0.34
-0.335
-0.015
-0.01
0.045
0.55
0.245
-0.245
-0.82
-0.615
-0.315
-0.25
-0.03
0.04
0.185
0.59
0.14
-0.34
-0.815
-0.58
-0.33
-0.265
-0.045
0.07
0.27
0.525
0.08
-0.37
-0.825
-0.525
-0.315
-0.255
0.015
0.03
0.31
0.515
0.065
-0.415
-0.85
-0.51
-0.285
-0.225
-0.075
0.015
0.4
0.505
0.08
-0.44
-0.85
-0.495
-0.33
-0.2
-0.025
0.045
0.41
0.485
0.02
-0.435
-0.865
-0.455
-0.285
-0.21
-0.005
-0.02
0.455
0.41
-0.015
-0.465
-0.855
-0.42
-0.26
-0.15
-0.01
0.035
0.51
0.455
0.09
-0.425
-0.825
-0.365
-0.235
-0.115
0.02
0.075
0.535
0.415
-0.025
-0.465
-0.85
-0.375
-0.23
-0.15
-0.04
0.0
0.51
0.375
-0.045
-0.465
-0.865
-0.345
-0.31
-0.16
-0.07
0.02
0.555
0.36
-0.095
-0.54
-0.83
-0.375
-0.35
-0.145
0.0
0.04
0.54
0.31
-0.18
-0.67
-0.875
-0.385
-0.385
-0.12
-0.025
0.0
0.56
0.31
-0.225
-0.755
-0.825
-0.355
-0.345
-0.025
-0.045
0.015
0.56
0.245
-0.26
-0.77
-0.74
-0.375
-0.33
-0.045
-0.045
-0.015
0.555
0.235
-0.21
-0.625
-0.345
0.11
0.265
0.695
0.82
1.055
1.575
1.345
0.92
0.49
0.74
0.96
0.88
0.935
0.615
0.48
0.655
0.03
-0.535
-1.025
-0.74
-0.475
-0.44
-0.225
-0.13
0.13
0.39
-0.055
-0.49
-0.93
-0.61
-0.35
-0.26
-0.06
0.005
0.325
0.5
0.055
-0.435
-0.815
-0.495
-0.32
-0.24
-0.05
0.015
0.4
0.47
0.1
-0.43
-0.855
-0.45
-0.25
-0.195
-0.02
0.04
0.49
0.47
0.08
-0.38
-0.795
-0.39
-0.215
-0.11
-0.03
0.055
0.545
0.505
0.085
-0.375
-0.805
-0.355
-0.21
-0.09
0.065
0.11
0.595
0.51
0.09
-0.385
-0.73
-0.28
-0.14
-0.015
0.095
0.16
0.705
0.525
0.16
-0.345
-0.69
-0.225
-0.045
0.11
0.17
0.215
0.815
0.63
0.18
-0.265
-0.61
-0.09
-0.05
0.185
0.295
0.37
0.925
0.72
0.33
-0.22
-0.495
0.01
0.05
0.325
0.43
0.455
1.0
0.775
0.29
-0.275
-0.365
0.065
0.105
0.38
0.485
0.49
0.995
0.765
0.235
-0.28
-0.285
0.105
0.105
0.44
0.455
0.45
0.99
0.655
0.07
-0.43
-0.39
-0.06
-0.065
0.285
0.24
0.29
0.775
0.39
-0.165
-0.685
-0.49
-0.2
-0.15
0.08
0.11
0.235
0.625
0.215
-0.315
-0.815
-0.555
-0.29
-0.255
0.005
0.03
0.28
0.57
0.115
-0.385
-0.84
-0.57
-0.32
-0.24
-0.03
0.0
0.285
0.51
0.09
-0.435
-0.91
-0.505
-0.31
-0.205
-0.035
0.005
0.35
0.46
0.035
-0.43
-0.88
-0.48
-0.31
-0.235
-0.06
-0.015
0.405
0.41
-0.015
-0.455
-0.86
-0.465
-0.295
-0.195
-0.025
-0.02
0.4
0.42
0.0
-0.475
-0.9
-0.47
-0.31
-0.2
-0.07
-0.035
0.465
0.415
-0.045
-0.49
-0.88
-0.405
-0.3
-0.21
-0.08
-0.01
0.495
0.375
-0.075
-0.485
-0.89
-0.44
-0.285
-0.215
-0.105
-0.03
0.51
0.325
-0.11
-0.52
-0.91
-0.395
-0.345
-0.195
-0.085
-0.04
0.485
0.34
-0.105
-0.585
-0.935
-0.405
-0.395
-0.16
-0.07
-0.035
0.555
0.295
-0.205
-0.715
-0.91
-0.425
-0.44
-0.11
-0.08
-0.025
0.54
0.265
-0.25
-0.78
-0.825
-0.38
-0.415
-0.07
-0.02
-0.045
0.525
0.22
-0.325
-0.79
-0.8
-0.41
-0.39
-0.085
-0.07
-0.045
0.505
0.19
-0.365
-0.825
-0.705
-0.405
-0.38
-0.075
-0.05
0.06
0.5
0.1
-0.365
-0.855
-0.67
-0.385
-0.34
-0.075
-0.03
0.125
0.48
0.085
-0.385
-0.88
-0.625
-0.335
-0.315
-0.065
-0.04
0.2
0.46
0.025
-0.455
-0.91
-0.62
-0.375
-0.325
-0.1
-0.035
0.28
0.455
0.025
-0.46
-0.915
-0.54
-0.33
-0.285
-0.085
-0.005
0.335
0.42
-0.005
-0.445
-0.875
-0.52
-0.315
-0.25
-0.11
0.0
0.38
0.395
-0.015
-0.495
-0.9
-0.505
-0.32
-0.225
-0.015
0.06
0.46
0.415
-0.015
-0.425
-0.785
-0.435
-0.265
-0.16
-0.045
0.005
0.48
0.34
-0.01
-0.48
-0.88
-0.42
-0.31
-0.2
-0.065
-0.01
0.51
0.365
-0.075
-0.5
-0.92
-0.435
-0.34
-0.25
-0.09
-0.035
0.5
0.3
-0.08
-0.525
-0.915
-0.41
-0.37
-0.175
-0.11
-0.055
0.505
0.3
-0.155
-0.68
-0.92
-0.43
-0.43
-0.17
-0.09
-0.04
0.505
0.3
-0.17
-0.73
-0.86
-0.39
-0.395
-0.145
-0.065
-0.045
0.545
0.235
-0.255
-0.785
-0.815
-0.43
-0.42
-0.085
-0.035
0.005
0.59
0.43
0.025
-0.375
-0.16
0.37
0.545
0.975
1.155
1.25
1.815
1.5
1.05
0.43
0.345
0.49
0.175
0.195
-0.01
-0.03
0.3
-0.055
-0.555
-1.05
-0.825
-0.55
-0.485
-0.225
-0.165
0.045
0.38
-0.045
-0.465
-0.905
-0.63
-0.39
-0.3
-0.05
-0.03
0.29
0.52
0.09
-0.38
-0.87
-0.55
-0.305
-0.25
-0.02
-0.03
0.315
0.48
0.07
-0.425
-0.845
-0.495
-0.315
-0.24
0.03
0.035
0.47
0.53
0.085
-0.4
-0.8
-0.4
-0.255
-0.165
-0.005
0.1
0.53
0.49
0.045
-0.39
-0.785
-0.345
-0.175
-0.14
0.03
0.145
0.56
0.525
0.09
-0.355
-0.72
-0.28
-0.095
-0.035
0.085
0.165
0.695
0.59
0.145
-0.31
-0.665
-0.2
-0.075
0.055
0.155
0.28
0.765
0.65
0.205
-0.245
-0.58
-0.13
-0.02
0.135
0.3
0.37
0.905
0.75
0.28
-0.13
-0.485
0.005
0.015
0.25
0.365
0.435
0.99
0.775
0.285
-0.21
-0.455
0.01
0.055
0.36
0.455
0.45
0.94
0.73
0.245
-0.255
-0.42
0.02
0.015
0.345
0.3
0.315
0.925
0.595
0.045
-0.475
-0.465
-0.1
-0.11
0.18
0.175
0.175
0.75
0.41
-0.185
-0.715
-0.63
-0.275
-0.245
0.045
0.08
0.14
0.59
0.215
-0.315
-0.795
-0.62
-0.335
-0.285
-0.015
0.04
0.19
0.51
0.09
-0.36
-0.86
-0.585
-0.29
-0.295
-0.07
-0.035
0.215
0.49
0.105
-0.4
-0.87
-0.535
-0.34
-0.28
-0.06
-0.03
0.29
0.5
0.065
-0.4
-0.865
-0.48
-0.305
-0.245
-0.015
-0.005
0.365
0.435
0.025
-0.44
-0.87
-0.485
-0.28
-0.26
-0.06
0.0
0.43
0.405
0.03
-0.47
-0.86
-0.46
-0.255
-0.205
-0.03
-0.015
0.42
0.395
0.02
-0.475
-0.87
-0.435
-0.295
-0.175
-0.05
0.0
0.475
0.37
-0.055
-0.505
-0.835
-0.4
-0.27
-0.18
-0.085
0.0
0.495
0.38
-0.055
-0.505
-0.91
-0.44
-0.31
-0.16
-0.06
0.005
0.555
0.36
-0.075
-0.505
-0.9
-0.42
-0.36
-0.2
-0.03
-0.01
0.515
0.355
-0.07
-0.595
-0.91
-0.4
-0.36
-0.135
-0.04
0.0
0.53
0.24
-0.165
-0.715
-0.86
-0.385
-0.385
-0.085
-0.02
0.0
0.55
0.255
-0.255
-0.785
-0.85
-0.395
-0.365
-0.055
-0.03
0.005
0.53
0.235
-0.3
-0.775
-0.77
-0.365
-0.335
-0.04
0.0
0.035
0.54
0.195
-0.3
-0.8
-0.69
-0.35
-0.345
-0.025
0.0
0.165
0.55
0.145
-0.375
-0.84
-0.645
-0.345
-0.305
-0.055
0.005
0.18
0.525
0.125
-0.365
-0.83
-0.535
-0.32
-0.26
-0.06
0.0
0.24
0.51
0.125
-0.39
-0.835
-0.555
-0.275
-0.205
-0.02
-0.01
0.345
0.45
0.06
-0.41
-0.855
-0.525
-0.275
-0.195
0.005
0.0
0.43
0.475
0.08
-0.37
-0.81
-0.4
-0.235
-0.14
-0.01
0.105
0.48
0.44
0.025
-0.4
-0.86
-0.445
-0.28
-0.19
-0.015
0.02
0.455
0.365
-0.035
-0.5
-0.935
-0.475
-0.285
-0.19
-0.065
-0.02
0.46
0.395
-0.03
-0.51
-0.91
-0.47
-0.305
-0.22
-0.085
-0.03
0.5
0.335
-0.08
-0.52
-0.915
-0.44
-0.325
-0.215
-0.1
-0.035
0.485
0.29
-0.135
-0.545
-0.905
-0.415
-0.365
-0.185
-0.055
-0.04
0.505
0.3
-0.22
-0.665
-0.875
-0.415
-0.38
-0.13
-0.085
-0.035
0.515
0.315
-0.09
-0.545
-0.525
0.11
0.25
0.69
0.86
1.015
1.66
1.485
1.035
0.55
0.575
0.89
0.665
0.755
0.46
0.22
0.445
0.01
-0.52
-0.995
-0.86
-0.535
-0.535
-0.23
-0.21
-0.155
0.315
0.025
-0.49
-0.935
-0.725
-0.405
-0.365
-0.065
-0.03
0.11
0.465
0.1
-0.4
-0.85
-0.575
-0.325
-0.3
-0.065
-0.02
0.225
0.49
0.11
-0.405
-0.83
-0.53
-0.31
-0.25
-0.025
0.04
0.315
0.51
0.1
-0.36
-0.84
-0.465
-0.275
-0.19
-0.02
0.045
0.385
0.525
0.105
-0.335
-0.77
-0.405
-0.225
-0.155
0.04
0.085
0.51
0.54
0.115
-0.31
-0.73
-0.315
-0.15
-0.035
0.13
0.135
0.575
0.535
0.15
-0.29
-0.695
-0.22
-0.045
0.065
0.175
0.235
0.7
0.575
0.22
-0.21
-0.59
-0.145
0.045
0.12
0.26
0.34
0.845
0.69
0.305
-0.09
-0.48
0.005
0.13
0.25
0.345
0.4
0.925
0.78
0.345
-0.04
-0.41
0.05
0.13
0.325
0.43
0.46
0.98
0.79
0.335
-0.1
-0.435
0.075
0.095
0.32
0.38
0.4
0.905
0.66
0.18
-0.35
-0.52
-0.08
-0.05
0.175
0.23
0.295
0.775
0.42
-0.065
-0.565
-0.655
-0.205
-0.23
0.065
0.06
0.07
0.62
0.255
-0.22
-0.755
-0.73
-0.235
-0.295
0.005
0.01
0.025
0.53
0.21
-0.305
-0.77
-0.63
-0.36
-0.27
-0.025
0.0
0.125
0.515
0.135
-0.395
-0.85
-0.545
-0.305
-0.31
-0.04
0.03
0.19
0.51
0.09
-0.375
-0.845
-0.555
-0.33
-0.225
0.015
0.045
0.275
0.5
0.06
-0.395
-0.855
-0.49
-0.31
-0.2
-0.035
0.0
0.335
0.445
0.04
-0.425
-0.815
-0.48
-0.285
-0.23
-0.05
0.01
0.385
0.42
0.005
-0.46
-0.82
-0.47
-0.285
-0.165
-0.025
0.015
0.4
0.38
-0.015
-0.445
-0.82
-0.44
-0.3
-0.215
-0.03
-0.01
0.425
0.385
-0.005
-0.455
-0.865
-0.425
-0.31
-0.195
-0.07
0.0
0.495
0.375
-0.04
-0.45
-0.83
-0.415
-0.26
-0.15
-0.095
-0.005
0.51
0.325
-0.085
-0.505
-0.845
-0.36
-0.28
-0.17
-0.045
0.02
0.505
0.33
-0.08
-0.485
-0.865
-0.38
-0.325
-0.175
-0.05
0.005
0.52
0.315
-0.155
-0.615
-0.855
-0.36
-0.32
-0.095
-0.005
-0.025
0.515
0.29
-0.185
-0.745
-0.825
-0.37
-0.34
-0.055
-0.005
0.0
0.54
0.245
-0.27
-0.75
-0.73
-0.355
-0.335
0.015
-0.035
-0.005
0.53
0.18
-0.28
-0.76
-0.69
-0.31
-0.335
-0.02
-0.02
0.04
0.49
0.145
-0.345
-0.81
-0.61
-0.34
-0.27
-0.005
0.02
0.145
0.56
0.155
-0.29
-0.735
-0.52
-0.29
-0.195
-0.01
0.04
0.255
0.555
0.1
-0.37
-0.825
-0.525
-0.275
-0.265
-0.025
0.015
0.3
0.47
0.05
-0.405
-0.82
-0.56
-0.34
-0.245
-0.05
-0.015
0.36
0.405
-0.025
-0.45
-0.825
-0.495
-0.31
-0.25
-0.065
-0.05
0.37
0.39
-0.02
-0.46
-0.865
-0.49
-0.325
-0.225
-0.06
-0.025
0.38
0.335
-0.04
-0.475
-0.89
-0.48
-0.325
-0.24
-0.075
-0.025
0.45
0.34
-0.04
-0.5
-0.865
-0.435
-0.315
-0.235
-0.125
-0.06
0.48
0.405
0.03
-0.32
-0.53
0.085
0.35
0.59
0.85
1.04
1.665
1.605
1.22
0.815
0.495
0.875
0.715
0.635
0.395
0.18
0.455
0.14
-0.33
-0.715
-1.035
-0.585
-0.625
-0.335
-0.215
-0.215
0.345
0.13
-0.325
-0.725
-0.96
-0.46
-0.38
-0.115
-0.065
-0.025
0.505
0.24
-0.255
-0.725
-0.81
-0.37
-0.365
-0.045
-0.04
0.01
0.53
0.24
-0.26
-0.755
-0.72
-0.315
-0.335
0.01
0.025
0.035
0.56
0.265
-0.25
-0.725
-0.645
-0.31
-0.245
0.05
0.08
0.16
0.61
0.235
-0.295
-0.725
-0.51
-0.23
-0.22
0.045
0.09
0.325
0.7
0.28
-0.285
-0.75
-0.435
-0.21
-0.105
0.11
0.165
0.415
0.695
0.295
-0.185
-0.625
-0.3
-0.125
-0.055
0.19
0.24
0.605
0.77
0.355
-0.14
-0.59
-0.205
0.005
0.085
0.3
0.365
0.77
0.825
0.425
-0.025
-0.46
-0.07
0.115
0.22
0.36
0.46
0.895
0.865
0.505
0.01
-0.4
0.0
0.2
0.285
0.44
0.47
0.925
0.865
0.46
0.03
-0.355
0.08
0.15
0.225
0.37
0.43
0.895
0.765
0.325
-0.13
-0.565
-0.105
0.0
0.11
0.185
0.24
0.715
0.555
0.13
-0.315
-0.725
-0.3
-0.18
-0.005
0.07
0.095
0.615
0.425
-0.015
-0.44
-0.835
-0.355
-0.3
-0.095
0.01
0.05
0.615
0.405
-0.095
-0.545
-0.835
-0.345
-0.35
-0.075
0.015
0.04
0.58
0.345
-0.175
-0.68
-0.83
-0.345
-0.345
-0.03
0.035
0.07
0.58
0.31
-0.225
-0.725
-0.735
-0.345
-0.345
0.005
0.03
0.03
0.55
0.235
-0.285
-0.73
-0.655
-0.31
-0.315
0.0
0.015
0.095
0.575
0.205
-0.3
-0.81
-0.595
-0.35
-0.275
0.0
0.05
0.22
0.57
0.225
-0.33
-0.795
-0.56
-0.32
-0.255
-0.005
0.035
0.26
0.585
0.14
-0.365
-0.81
-0.53
-0.32
-0.24
0.01
0.04
0.32
0.54
0.135
-0.375
-0.84
-0.51
-0.305
-0.225
-0.04
0.025
0.4
0.505
0.065
-0.41
-0.865
-0.47
-0.28
-0.23
-0.035
0.03
0.425
0.46
0.05
-0.42
-0.86
-0.475
-0.305
-0.19
-0.025
0.025
0.455
0.42
0.0
-0.45
-0.845
-0.435
-0.26
-0.155
-0.02
0.01
0.475
0.38
-0.02
-0.45
-0.845
-0.425
-0.295
-0.17
-0.035
0.02
0.5
0.38
-0.02
-0.48
-0.865
-0.4
-0.26
-0.185
-0.05
0.02
0.525
0.35
-0.08
-0.465
-0.865
-0.335
-0.28
-0.11
0.025
0.105
0.62
0.41
-0.045
-0.445
-0.81
-0.33
-0.325
-0.095
0.05
0.065
0.585
0.395
-0.11
-0.61
-0.855
-0.365
-0.34
-0.07
0.03
0.02
0.56
0.31
-0.21
-0.72
-0.81
-0.335
-0.38
-0.025
0.005
0.025
0.57
0.295
-0.25
-0.79
-0.77
-0.345
-0.355
-0.015
0.005
0.015
0.5
0.25
-0.29
-0.81
-0.71
-0.375
-0.33
-0.02
-0.015
0.11
0.535
0.145
-0.335
-0.845
-0.625
-0.33
-0.31
-0.045
0.0
0.165
0.525
0.13
-0.37
-0.845
-0.595
-0.365
-0.26
-0.035
0.015
0.305
0.655
0.375
0.05
-0.305
0.16
0.51
0.74
1.075
1.21
1.61
1.835
1.43
0.89
0.275
0.43
0.34
0.09
0.025
-0.105
0.21
0.265
-0.12
-0.575
-1.04
-0.69
-0.48
-0.38
-0.185
-0.12
0.325
0.28
-0.095
-0.51
-0.915
-0.5
-0.3
-0.205
-0.045
0.005
0.465
0.395
-0.01
-0.44
-0.87
-0.455
-0.3
-0.155
-0.02
0.03
0.49
0.4
0.01
-0.405
-0.83
-0.37
-0.24
-0.12
0.01
0.07
0.565
0.43
-0.005
-0.46
-0.83
-0.345
-0.23
-0.08
0.01
0.115
0.63
0.465
0.045
-0.38
-0.785
-0.25
-0.215
-0.04
0.065
0.11
0.68
0.505
0.06
-0.435
-0.725
-0.2
-0.2
0.055
0.185
0.215
0.735
0.515
0.04
-0.48
-0.635
-0.09
-0.13
0.185
0.245
0.31
0.87
0.615
0.135
-0.425
-0.445
-0.015
0.015
0.37
0.35
0.38
0.96
0.68
0.12
-0.36
-0.265
0.065
0.13
0.455
0.475
0.54
1.005
0.66
0.15
-0.32
-0.175
0.165
0.175
0.445
0.465
0.595
1.01
0.63
0.115
-0.38
-0.155
0.08
0.13
0.375
0.385
0.585
0.89
0.445
-0.055
-0.58
-0.305
-0.09
-0.045
0.175
0.205
0.485
0.685
0.225
-0.265
-0.71
-0.41
-0.215
-0.15
0.03
0.07
0.425
0.54
0.095
-0.33
-0.775
-0.44
-0.265
-0.21
-0.025
0.045
0.435
0.45
0.02
-0.375
-0.81
-0.4
-0.255
-0.195
-0.04
0.04
0.49
0.485
0.03
-0.45
-0.855
-0.43
-0.265
-0.145
-0.03
0.02
0.46
0.435
0.025
-0.42
-0.825
-0.36
-0.23
-0.14
-0.04
0.08
0.535
0.38
-0.03
-0.45
-0.84
-0.365
-0.24
-0.14
-0.005
0.065
0.57
0.415
-0.075
-0.46
-0.845
-0.36
-0.285
-0.1
-0.005
0.055
0.57
0.41
-0.055
-0.51
-0.845
-0.315
-0.295
-0.08
0.0
0.0
0.59
0.355
-0.12
-0.64
-0.815
-0.33
-0.31
-0.04
0.0
-0.01
0.575
0.32
-0.125
-0.665
-0.775
-0.345
-0.345
-0.005
0.005
0.03
0.56
0.325
-0.21
-0.775
-0.72
-0.31
-0.3
0.01
0.035
0.04
0.55
0.23
-0.28
-0.755
-0.675
-0.315
-0.28
0.02
0.06
0.13
0.535
0.175
-0.3
-0.785
-0.605
-0.335
-0.265
0.025
0.005
0.23
0.595
0.135
-0.325
-0.785
-0.565
-0.32
-0.25
0.015
0.05
0.33
0.575
0.16
-0.275
-0.765
-0.445
-0.205
-0.18
0.005
0.06
0.415
0.56
0.125
-0.375
-0.8
-0.465
-0.26
-0.205
-0.025
0.05
0.4
0.445
0.085
-0.395
-0.86
-0.48
-0.285
-0.195
-0.015
0.04
0.475
0.455
0.055
-0.415
-0.85
-0.44
-0.275
-0.22
-0.07
-0.015
0.45
0.42
0.005
-0.435
-0.875
-0.46
-0.295
-0.18
-0.05
0.01
0.505
0.365
-0.02
-0.455
-0.835
-0.41
-0.275
-0.17
-0.04
0.035
0.53
0.41
-0.035
-0.49
-0.88
-0.42
-0.31
-0.15
-0.055
0.0
0.54
0.335
-0.095
-0.47
-0.765
-0.23
-0.075
0.3
0.55
0.77
1.44
1.38
1.0
0.645
0.445
0.99
1.01
1.22
1.13
0.925
1.16
0.595
-0.145
-0.845
-1.03
-0.545
-0.525
-0.21
-0.175
-0.165
0.38
0.12
-0.395
-0.87
-0.875
-0.48
-0.48
-0.065
-0.03
-0.02
0.52
0.23
-0.285
-0.775
-0.725
-0.33
-0.325
0.025
0.02
0.1
0.615
0.22
-0.29
-0.775
-0.615
-0.3
-0.265
0.025
0.075
0.225
0.605
0.255
-0.32
-0.79
-0.57
-0.265
-0.2
0.045
0.085
0.32
0.64
0.18
-0.275
-0.74
-0.46
-0.24
-0.125
0.11
0.14
0.435
0.63
0.205
-0.275
-0.725
-0.375
-0.175
-0.085
0.1
0.17
0.58
0.68
0.255
-0.235
-0.635
-0.24
-0.065
0.0
0.185
0.255
0.68
0.705
0.3
-0.16
-0.535
-0.115
0.05
0.11
0.265
0.365
0.79
0.75
0.355
-0.09
-0.455
0.03
0.185
0.245
0.38
0.45
0.885
0.815
0.42
0.005
-0.415
0.055
0.21
0.305
0.47
0.495
0.935
0.785
0.385
-0.035
-0.405
0.075
0.19
0.295
0.435
0.43
0.925
0.78
0.315
-0.145
-0.55
-0.065
-0.03
0.1
0.2
0.25
0.76
0.585
0.135
-0.335
-0.725
-0.225
-0.245
-0.025
0.075
0.1
0.665
0.415
-0.115
-0.625
-0.795
-0.315
-0.33
-0.04
0.035
0.065
0.615
0.35
-0.175
-0.69
-0.795
-0.345
-0.36
-0.03
0.02
0.045
0.57
0.275
-0.23
-0.76
-0.745
-0.385
-0.345
0.02
0.03
0.02
0.57
0.205
-0.34
-0.765
-0.655
-0.335
-0.29
-0.005
0.01
0.125
0.565
0.16
-0.335
-0.75
-0.58
-0.315
-0.235
-0.025
0.005
0.21
0.59
0.2
-0.345
-0.795
-0.535
-0.315
-0.23
-0.025
0.02
0.275
0.53
0.09
-0.355
-0.835
-0.525
-0.28
-0.225
-0.025
0.03
0.33
0.505
0.105
-0.405
-0.86
-0.475
-0.3
-0.205
-0.015
0.015
0.42
0.455
0.035
-0.4
-0.855
-0.47
-0.275
-0.195
-0.045
0.005
0.405
0.435
0.01
-0.425
-0.825
-0.455
-0.265
-0.205
-0.085
-0.005
0.425
0.405
0.0
-0.42
-0.87
-0.435
-0.285
-0.18
-0.06
0.0
0.495
0.395
-0.04
-0.485
-0.83
-0.425
-0.245
-0.17
-0.05
0.015
0.515
0.385
-0.045
-0.48
-0.86
-0.385
-0.24
-0.12
-0.015
0.01
0.595
0.41
-0.03
-0.435
-0.835
-0.37
-0.295
-0.1
-0.01
0.04
0.53
0.345
-0.1
-0.595
-0.875
-0.375
-0.37
-0.115
-0.01
0.015
0.545
0.285
-0.215
-0.72
-0.83
-0.355
-0.36
-0.035
0.0
0.01
0.515
0.215
-0.305
-0.755
-0.775
-0.345
-0.325
-0.065
-0.015
0.0
0.505
0.22
-0.3
-0.765
-0.72
-0.375
-0.335
-0.06
-0.02
0.04
0.51
0.17
-0.34
-0.795
-0.655
-0.315
-0.285
-0.065
0.0
0.095
0.46
0.085
-0.38
-0.835
-0.565
-0.345
-0.315
-0.05
-0.025
0.27
0.65
0.31
-0.055
-0.395
0.09
0.46
0.64
0.995
1.165
1.53
1.81
1.42
0.975
0.38
0.49
0.505
0.21
0.125
-0.07
0.19
0.28
-0.125
-0.545
-1.005
-0.67
-0.495
-0.435
-0.2
-0.165
0.265
0.27
-0.11
-0.54
-0.94
-0.525
-0.33
-0.23
-0.055
-0.015
0.41
0.365
0.035
-0.46
-0.89
-0.46
-0.295
-0.185
-0.05
-0.015
0.47
0.42
0.0
-0.44
-0.83
-0.375
-0.255
-0.15
0.005
0.055
0.525
0.36
-0.03
-0.405
-0.805
-0.345
-0.175
-0.08
0.025
0.095
0.615
0.44
0.035
-0.425
-0.8
-0.31
-0.25
-0.04
0.05
0.09
0.675
0.47
0.035
-0.335
-0.75
-0.24
-0.185
0.035
0.155
0.165
0.74
0.515
0.035
-0.475
-0.635
-0.12
-0.13
0.185
0.27
0.27
0.875
0.555
0.08
-0.425
-0.46
-0.015
-0.015
0.3
0.36
0.365
0.93
0.655
0.145
-0.365
-0.3
0.09
0.09
0.415
0.45
0.445
0.98
0.665
0.14
-0.33
-0.225
0.105
0.14
0.46
0.49
0.555
0.965
0.62
0.065
-0.44
-0.225
0.045
0.085
0.35
0.36
0.54
0.825
0.395
-0.09
-0.59
-0.33
-0.1
-0.04
0.16
0.17
0.385
0.625
0.2
-0.3
-0.75
-0.475
-0.27
-0.16
0.025
0.055
0.37
0.53
0.12
-0.4
-0.805
-0.435
-0.31
-0.23
-0.02
0.03
0.405
0.475
0.04
-0.41
-0.83
-0.47
-0.29
-0.23
-0.055
0.02
0.42
0.435
0.025
-0.44
-0.89
-0.455
-0.265
-0.215
-0.065
-0.005
0.465
0.43
0.025
-0.45
-0.87
-0.425
-0.255
-0.21
-0.055
0.0
0.525
0.405
-0.02
-0.47
-0.865
-0.37
-0.27
-0.16
-0.065
0.03
0.56
0.41
-0.03
-0.435
-0.845
-0.39
-0.295
-0.17
-0.035
0.03
0.535
0.375
-0.085
-0.465
-0.865
-0.38
-0.32
-0.155
-0.01
0.025
0.57
0.365
-0.125
-0.595
-0.84
-0.37
-0.37
-0.075
-0.025
0.015
0.545
0.295
-0.175
-0.7
-0.84
-0.36
-0.365
-0.055
0.005
-0.005
0.545
0.25
-0.245
-0.72
-0.715
-0.335
-0.34
-0.02
0.02
0.035
0.55
0.255
-0.27
-0.74
-0.64
-0.34
-0.375
-0.005
0.015
0.085
0.59
0.205
-0.285
-0.74
-0.615
-0.315
-0.27
0.02
0.04
0.215
0.575
0.2
-0.31
-0.785
-0.535
-0.265
-0.22
-0.005
0.04
0.24
0.545
0.12
-0.395
-0.805
-0.525
-0.32
-0.26
-0.035
0.0
0.295
0.475
0.045
-0.415
-0.84
-0.495
-0.305
-0.26
-0.04
-0.015
0.34
0.455
0.01
-0.425
-0.86
-0.485
-0.315
-0.23
-0.06
-0.025
0.38
0.41
-0.01
-0.475
-0.85
-0.44
-0.325
-0.21
-0.06
0.005
0.38
0.4
-0.01
-0.505
-0.875
-0.445
-0.31
-0.195
-0.065
-0.025
0.445
0.35
-0.04
-0.475
-0.87
-0.43
-0.305
-0.215
-0.035
0.075
0.645
0.595
0.28
0.005
-0.23
0.395
0.64
0.86
1.105
1.195
1.75
1.585
1.115
0.545
-0.07
0.175
0.005
-0.12
-0.17
-0.18
0.345
0.14
-0.3
-0.715
-1.08
-0.54
-0.535
-0.26
-0.165
-0.16
0.4
0.205
-0.27
-0.75
-0.91
-0.42
-0.41
-0.14
-0.055
-0.015
0.49
0.28
-0.195
-0.73
-0.755
-0.32
-0.35
0.01
0.04
0.035
0.52
0.255
-0.23
-0.75
-0.69
-0.315
-0.3
0.01
0.045
0.07
0.615
0.28
-0.26
-0.765
-0.61
-0.29
-0.24
0.07
0.09
0.2
0.625
0.265
-0.21
-0.73
-0.515
-0.26
-0.18
0.1
0.175
0.38
0.64
0.255
-0.205
-0.655
-0.42
-0.215
-0.1
0.16
0.205
0.455
0.75
0.29
-0.17
-0.63
-0.295
-0.075
0.015
0.26
0.295
0.615
0.79
0.37
-0.07
-0.505
-0.115
0.085
0.14
0.275
0.39
0.76
0.825
0.425
-0.025
-0.435
-0.075
0.12
0.225
0.4
0.465
0.92
0.86
0.47
-0.005
-0.415
0.015
0.175
0.255
0.385
0.435
0.87
0.825
0.41
-0.075
-0.49
-0.045
0.095
0.17
0.25
0.295
0.735
0.65
0.19
-0.255
-0.645
-0.245
-0.115
-0.04
0.075
0.135
0.625
0.485
0.035
-0.42
-0.83
-0.355
-0.26
-0.145
-0.05
0.05
0.565
0.375
-0.065
-0.515
-0.855
-0.395
-0.315
-0.15
-0.04
0.03
0.535
0.32
-0.17
-0.64
-0.895
-0.405
-0.375
-0.09
-0.055
0.03
0.555
0.275
-0.23
-0.715
-0.82
-0.37
-0.36
-0.065
-0.02
0.005
0.51
0.29
-0.26
-0.8
-0.78
-0.355
-0.35
-0.03
0.015
0.04
0.525
0.2
-0.285
-0.795
-0.695
-0.365
-0.285
-0.02
0.0
0.09
0.55
0.18
-0.325
-0.82
-0.665
-0.35
-0.305
-0.04
0.005
0.16
0.53
0.09
-0.375
-0.795
-0.585
-0.315
-0.245
-0.035
0.005
0.21
0.5
0.08
-0.42
-0.83
-0.535
-0.32
-0.26
-0.04
0.02
0.305
0.45
0.075
-0.395
-0.88
-0.5
-0.31
-0.265
-0.03
0.01
0.32
0.425
0.035
-0.485
-0.865
-0.525
-0.31
-0.23
-0.06
0.03
0.435
0.405
0.025
-0.435
-0.845
-0.49
-0.3
-0.23
-0.07
-0.01
0.42
0.375
-0.025
-0.46
-0.86
-0.405
-0.27
-0.215
-0.06
0.01
0.49
0.4
-0.035
-0.445
-0.855
-0.41
-0.295
-0.185
-0.07
0.015
0.505
0.38
-0.07
-0.505
-0.89
-0.44
-0.32
-0.16
-0.065
-0.03
0.49
0.315
-0.105
-0.52
-0.93
-0.435
-0.33
-0.19
-0.095
-0.025
0.57
0.37
-0.13
-0.625
-0.94
-0.415
-0.41
-0.19
-0.06
-0.01
0.54
0.3
-0.225
-0.745
-0.87
-0.395
-0.415
-0.1
-0.035
-0.015
0.515
0.235
-0.285
-0.8
-0.825
-0.405
-0.41
-0.06
-0.08
0.0
0.545
0.23
-0.31
-0.87
-0.77
-0.385
-0.375
-0.05
-0.06
0.03
0.605
0.305
-0.06
-0.375
-0.125
0.35
0.51
0.9
1.01
1.26
1.77
1.405
0.97
0.425
0.465
0.525
0.3
0.2
-0.025
0.03
0.345
-0.105
-0.515
-1.01
-0.745
-0.555
-0.495
-0.225
-0.2
0.09
0.31
-0.07
-0.53
-0.975
-0.59
-0.41
-0.34
-0.085
-0.015
0.32
0.415
0.015
-0.47
-0.94
-0.51
-0.31
-0.255
-0.065
-0.005
0.39
0.45
0.06
-0.455
-0.855
-0.455
-0.3
-0.195
-0.04
0.01
0.43
0.4
-0.02
-0.445
-0.82
-0.385
-0.21
-0.145
0.005
0.035
0.535
0.455
0.005
-0.405
-0.81
-0.375
-0.205
-0.115
0.01
0.095
0.595
0.445
0.045
-0.395
-0.745
-0.3
-0.17
-0.06
0.11
0.17
0.665
0.51
0.095
-0.295
-0.685
-0.165
-0.11
0.045
0.17
0.23
0.77
0.6
0.185
-0.25
-0.6
-0.075
0.0
0.19
0.285
0.335
0.875
0.67
0.23
-0.31
-0.475
0.01
0.025
0.275
0.395
0.38
0.94
0.67
0.2
-0.33
-0.375
0.035
0.04
0.39
0.44
0.47
0.96
0.65
0.125
-0.365
-0.405
-0.03
-0.02
0.27
0.335
0.31
0.82
0.43
-0.11
-0.59
-0.495
-0.15
-0.165
0.125
0.145
0.2
0.635
0.21
-0.28
-0.77
-0.55
-0.31
-0.3
-0.02
0.005
0.205
0.51
0.1
-0.385
-0.86
-0.595
-0.37
-0.28
-0.065
0.005
0.235
0.45
0.035
-0.435
-0.855
-0.57
-0.355
-0.295
-0.105
-0.005
0.265
0.435
0.0
-0.475
-0.895
-0.535
-0.34
-0.26
-0.115
-0.03
0.335
0.385
-0.015
-0.465
-0.895
-0.495
-0.32
-0.265
-0.075
-0.03
0.355
0.38
-0.03
-0.495
-0.885
-0.485
-0.305
-0.24
-0.105
0.0
0.385
0.355
-0.06
-0.48
-0.905
-0.48
-0.33
-0.215
-0.085
0.0
0.465
0.33
-0.12
-0.54
-0.91
-0.43
-0.265
-0.185
-0.07
-0.015
0.465
0.315
-0.11
-0.51
-0.915
-0.4
-0.29
-0.185
-0.075
-0.02
0.48
0.295
-0.14
-0.535
-0.895
-0.385
-0.425
-0.17
-0.085
-0.045
0.485
0.305
-0.165
-0.685
-0.91
-0.41
-0.355
-0.13
-0.04
-0.02
0.44
0.23
-0.25
-0.75
-0.855
-0.41
-0.39
-0.095
-0.03
-0.025
0.515
0.225
-0.29
-0.785
-0.78
-0.37
-0.36
-0.035
-0.045
-0.03
0.505
0.175
-0.325
-0.845
-0.74
-0.4
-0.35
-0.03
-0.03
0.045
0.51
0.17
-0.355
-0.83
-0.595
-0.3
-0.275
0.025
0.015
0.15
0.5
0.135
-0.315
-0.8
-0.585
-0.325
-0.27
-0.06
-0.01
0.23
0.48
0.045
-0.415
-0.84
-0.58
-0.375
-0.3
-0.09
-0.045
0.275
0.41
0.0
-0.435
-0.87
-0.53
-0.34
-0.27
-0.09
-0.035
0.29
0.425
-0.03
-0.475
-0.895
-0.495
-0.3
-0.28
-0.12
-0.07
0.36
0.345
-0.065
-0.5
-0.88
-0.47
-0.3
-0.285
-0.1
-0.065
0.38
0.335
-0.09
-0.54
-0.875
-0.445
-0.3
-0.23
-0.11
-0.06
0.43
0.315
-0.115
-0.54
-0.905
-0.48
-0.325
-0.22
-0.075
0.13
0.685
0.65
0.35
0.08
-0.15
0.43
0.665
0.895
1.12
1.27
1.8
1.695
1.18
0.62
-0.03
0.155
-0.08
-0.205
-0.27
-0.19
0.32
0.13
-0.325
-0.8
-1.055
-0.53
-0.52
-0.32
-0.19
-0.155
0.4
0.21
-0.28
-0.765
-0.91
-0.39
-0.35
-0.075
-0.07
-0.065
0.49
0.225
-0.295
-0.775
-0.79
-0.385
-0.38
-0.05
-0.015
0.0
0.535
0.21
-0.28
-0.785
-0.735
-0.335
-0.315
-0.015
0.025
0.085
0.585
0.22
-0.285
-0.73
-0.62
-0.26
-0.3
0.035
0.06
0.18
0.58
0.205
-0.295
-0.755
-0.505
-0.27
-0.23
0.04
0.135
0.285
0.595
0.22
-0.285
-0.7
-0.415
-0.205
-0.095
0.12
0.145
0.43
0.66
0.24
-0.245
-0.63
-0.285
-0.09
-0.045
0.215
0.27
0.6
0.725
0.315
-0.12
-0.56
-0.165
0.025
0.12
0.295
0.36
0.765
0.78
0.36
0.0
-0.46
-0.035
0.105
0.2
0.37
0.445
0.845
0.815
0.41
0.0
-0.415
-0.03
0.12
0.225
0.385
0.41
0.84
0.78
0.36
-0.09
-0.495
-0.065
0.055
0.12
0.285
0.27
0.74
0.57
0.155
-0.285
-0.675
-0.24
-0.13
-0.045
0.07
0.125
0.61
0.44
-0.015
-0.465
-0.83
-0.35
-0.285
-0.145
-0.03
0.015
0.545
0.345
-0.09
-0.525
-0.895
-0.395
-0.345
-0.15
-0.035
-0.035
0.5
0.255
-0.155
-0.68
-0.87
-0.4
-0.37
-0.065
-0.015
0.005
0.525
0.25
-0.215
-0.79
-0.865
-0.395
-0.37
-0.065
0.0
0.0
0.485
0.265
-0.275
-0.785
-0.76
-0.39
-0.365
-0.035
-0.015
0.005
0.525
0.19
-0.31
-0.79
-0.68
-0.345
-0.295
-0.035
-0.015
0.105
0.515
0.12
-0.345
-0.8
-0.6
-0.345
-0.31
-0.035
-0.015
0.17
0.51
0.1
-0.365
-0.815
-0.545
-0.345
-0.26
-0.03
0.01
0.265
0.51
0.05
-0.405
-0.855
-0.53
-0.325
-0.27
-0.035
0.005
0.32
0.455
0.04
-0.43
-0.835
-0.53
-0.31
-0.225
-0.07
-0.02
0.355
0.395
-0.015
-0.425
-0.86
-0.45
-0.295
-0.23
-0.075
-0.035
0.405
0.39
-0.045
-0.48
-0.85
-0.445
-0.3
-0.21
-0.1
-0.045
0.395
0.345
-0.025
-0.49
-0.875
-0.435
-0.29
-0.225
-0.085
-0.03
0.415
0.32
-0.115
-0.505
-0.87
-0.405
-0.3
-0.2
-0.065
0.0
0.47
0.275
-0.095
-0.515
-0.89
-0.415
-0.31
-0.165
-0.1
-0.065
0.52
0.315
-0.115
-0.535
-0.85
-0.405
-0.345
-0.19
-0.07
-0.025
0.48
0.295
-0.185
-0.685
-0.89
-0.375
-0.385
-0.105
-0.045
0.005
0.52
0.235
-0.225
-0.715
-0.82
-0.365
-0.375
-0.08
-0.015
0.0
0.54
0.255
-0.24
-0.7
-0.725
-0.32
-0.3
0.0
-0.005
0.04
0.58
0.22
-0.275
-0.77
-0.655
-0.375
-0.33
-0.01
0.0
0.07
0.535
0.16
-0.335
-0.815
-0.635
-0.33
-0.295
-0.005
-0.025
0.135
0.48
0.075
-0.395
-0.825
-0.585
-0.34
-0.285
-0.055
-0.02
0.225
0.525
0.075
-0.45
-0.9
-0.55
-0.33
-0.28
-0.075
-0.045
0.27
0.425
0.045
-0.425
-0.875
-0.515
-0.315
-0.25
-0.095
-0.02
0.35
0.42
0.01
-0.455
-0.885
-0.505
-0.295
-0.22
-0.06
-0.02
0.405
0.385
-0.025
-0.48
-0.885
-0.435
-0.27
-0.195
0.025
0.11
0.655
0.71
0.405
0.135
-0.075
0.47
0.725
0.905
1.155
1.26
1.76
1.725
1.25
0.615
-0.04
0.135
-0.05
-0.21
-0.245
-0.185
0.315
0.175
-0.29
-0.7
-0.98
-0.595
-0.46
-0.31
-0.195
-0.095
0.465
0.295
-0.155
-0.55
-0.86
-0.37
-0.35
-0.175
-0.05
-0.025
0.51
0.345
-0.11
-0.605
-0.85
-0.37
-0.365
-0.105
0.02
-0.005
0.54
0.32
-0.155
-0.665
-0.785
-0.305
-0.35
-0.03
0.065
0.07
0.59
0.325
-0.195
-0.675
-0.665
-0.26
-0.29
0.05
0.085
0.11
0.605
0.26
-0.205
-0.65
-0.62
-0.24
-0.215
0.105
0.145
0.18
0.67
0.34
-0.17
-0.645
-0.49
-0.175
-0.115
0.17
0.195
0.32
0.7
0.34
-0.145
-0.555
-0.345
-0.075
0.015
0.245
0.29
0.495
0.815
0.39
-0.06
-0.49
-0.175
0.025
0.13
0.36
0.395
0.68
0.88
0.435
0.02
-0.4
-0.08
0.135
0.215
0.42
0.44
0.785
0.915
0.475
0.045
-0.375
-0.015
0.185
0.265
0.435
0.49
0.84
0.865
0.45
-0.005
-0.425
-0.04
0.12
0.16
0.305
0.34
0.745
0.695
0.29
-0.23
-0.605
-0.185
-0.08
-0.005
0.13
0.16
0.595
0.5
0.065
-0.41
-0.775
-0.34
-0.2
-0.115
0.015
0.065
0.545
0.355
-0.05
-0.465
-0.845
-0.375
-0.235
-0.135
-0.035
-0.005
0.51
0.34
-0.065
-0.5
-0.86
-0.355
-0.27
-0.135
-0.07
-0.01
0.52
0.335
-0.105
-0.525
-0.84
-0.38
-0.385
-0.13
-0.015
-0.01
0.535
0.345
-0.135
-0.68
-0.825
-0.355
-0.355
-0.09
-0.025
-0.015
0.565
0.285
-0.235
-0.74
-0.775
-0.345
-0.33
-0.025
-0.02
0.015
0.525
0.23
-0.285
-0.775
-0.72
-0.315
-0.33
0.005
0.025
0.03
0.535
0.225
-0.3
-0.815
-0.675
-0.335
-0.3
-0.005
0.025
0.075
0.545
0.145
-0.365
-0.84
-0.62
-0.325
-0.265
0.0
0.0
0.175
0.515
0.1
-0.36
-0.815
-0.555
-0.355
-0.285
-0.055
-0.045
0.245
0.495
0.08
-0.385
-0.835
-0.575
-0.325
-0.25
-0.01
-0.015
0.305
0.455
0.045
-0.42
-0.87
-0.505
-0.3
-0.225
-0.03
-0.02
0.36
0.415
-0.03
-0.45
-0.86
-0.505
-0.29
-0.23
-0.07
-0.025
0.375
0.39
-0.005
-0.465
-0.86
-0.485
-0.285
-0.235
-0.085
-0.015
0.415
0.375
-0.035
-0.515
-0.9
-0.435
-0.33
-0.215
-0.08
-0.005
0.465
0.36
-0.105
-0.505
-0.885
-0.42
-0.265
-0.225
-0.095
-0.025
0.485
0.32
-0.095
-0.49
-0.915
-0.44
-0.31
-0.185
-0.065
-0.03
0.47
0.335
-0.095
-0.53
-0.91
-0.405
-0.345
-0.16
-0.05
-0.045
0.5
0.315
-0.16
-0.665
-0.92
-0.405
-0.405
-0.15
-0.05
-0.005
0.475
0.26
-0.245
-0.78
-0.81
-0.39
-0.375
-0.1
-0.05
-0.005
0.51
0.25
-0.29
-0.77
-0.765
-0.38
-0.39
-0.05
-0.045
-0.015
0.51
0.195
-0.345
-0.84
-0.705
-0.365
-0.355
-0.05
-0.01
0.005
0.51
0.13
-0.375
-0.835
-0.645
-0.33
-0.28
-0.065
-0.025
0.13
0.485
0.085
-0.385
-0.865
-0.59
-0.35
-0.3
-0.06
-0.03
0.24
0.475
0.07
-0.425
-0.865
-0.525
-0.325
-0.25
-0.035
0.02
0.31
0.525
0.12
-0.405
-0.815
-0.52
-0.295
-0.205
-0.02
-0.01
0.38
0.415
0.0
-0.43
-0.875
-0.47
-0.345
-0.25
-0.07
-0.055
0.355
0.385
-0.005
-0.49
-0.895
-0.455
-0.33
-0.255
-0.095
-0.01
0.38
0.33
-0.06
-0.51
-0.86
-0.455
-0.34
-0.215
-0.1
-0.06
0.41
0.315
-0.095
-0.505
-0.915
-0.49
-0.335
-0.195
-0.08
-0.025
0.455
0.295
-0.11
-0.555
-0.915
-0.415
-0.335
-0.24
-0.095
-0.015
0.475
0.285
-0.13
-0.505
-0.925
-0.43
-0.39
-0.22
-0.105
-0.08
0.46
0.27
-0.135
-0.47
-0.71
-0.075
0.06
0.415
0.685
0.825
1.475
1.36
0.955
0.515
0.4
0.965
0.925
1.075
0.89
0.565
0.77
0.245
-0.44
-0.925
-0.97
-0.59
-0.57
-0.25
-0.205
-0.185
0.34
0.055
-0.445
-0.925
-0.855
-0.45
-0.415
-0.075
-0.07
-0.03
0.505
0.15
-0.36
-0.835
-0.705
-0.4
-0.325
-0.065
-0.025
0.1
0.495
0.1
-0.36
-0.85
-0.585
-0.32
-0.29
-0.025
-0.035
0.195
0.525
0.095
-0.38
-0.805
-0.53
-0.31
-0.235
0.01
0.05
0.31
0.525
0.105
-0.36
-0.8
-0.45
-0.25
-0.19
0.005
0.055
0.42
0.55
0.125
-0.35
-0.75
-0.405
-0.215
-0.13
0.065
0.135
0.515
0.555
0.135
-0.325
-0.685
-0.27
-0.13
-0.08
0.135
0.215
0.625
0.595
0.2
-0.245
-0.635
-0.16
0.025
0.11
0.21
0.275
0.76
0.68
0.29
-0.13
-0.53
-0.025
0.1
0.175
0.335
0.39
0.905
0.77
0.335
-0.08
-0.43
0.035
0.17
0.27
0.365
0.445
0.94
0.755
0.355
-0.07
-0.43
0.06
0.145
0.26
0.335
0.38
0.875
0.7
0.265
-0.165
-0.555
-0.08
-0.055
0.14
0.215
0.235
0.78
0.5
0.025
-0.51
-0.72
-0.24
-0.27
0.015
0.08
0.065
0.61
0.315
-0.145
-0.705
-0.77
-0.33
-0.33
-0.04
-0.03
0.01
0.54
0.255
-0.265
-0.75
-0.735
-0.36
-0.355
-0.025
-0.02
-0.055
0.505
0.13
-0.35
-0.815
-0.68
-0.37
-0.335
-0.025
-0.035
0.045
0.495
0.115
-0.375
-0.845
-0.63
-0.35
-0.32
-0.035
-0.03
0.145
0.51
0.11
-0.375
-0.855
-0.585
-0.34
-0.285
-0.04
-0.005
0.23
0.49
0.07
-0.42
-0.855
-0.545
-0.31
-0.23
-0.07
-0.04
0.28
0.44
0.055
-0.425
-0.875
-0.56
-0.355
-0.235
-0.06
-0.005
0.34
0.39
-0.02
-0.44
-0.865
-0.51
-0.305
-0.23
-0.04
0.01
0.37
0.36
-0.04
-0.485
-0.875
-0.48
-0.295
-0.255
-0.115
-0.05
0.4
0.35
-0.04
-0.505
-0.91
-0.445
-0.305
-0.225
-0.07
-0.03
0.435
0.3
-0.095
-0.525
-0.91
-0.47
-0.305
-0.2
-0.12
-0.07
0.455
0.295
-0.13
-0.535
-0.91
-0.445
-0.315
-0.195
-0.075
-0.04
0.45
0.305
-0.155
-0.53
-0.935
-0.455
-0.385
-0.205
-0.095
-0.055
0.48
0.265
-0.15
-0.65
-0.895
-0.425
-0.44
-0.23
-0.055
0.0
0.49
0.225
-0.27
-0.73
-0.865
-0.405
-0.415
-0.125
-0.065
-0.065
0.46
0.21
-0.275
-0.765
-0.805
-0.4
-0.385
-0.08
-0.06
-0.06
0.475
0.19
-0.34
-0.86
-0.745
-0.405
-0.395
-0.07
-0.025
0.035
0.48
0.115
-0.395
-0.86
-0.695
-0.36
-0.34
-0.07
-0.055
0.065
0.455
0.045
-0.37
-0.845
-0.64
-0.36
-0.32
-0.065
-0.06
0.13
0.43
-0.01
-0.455
-0.875
-0.58
-0.365
-0.305
-0.08
-0.04
0.22
0.455
0.01
-0.445
-0.885
-0.575
-0.385
-0.29
-0.09
-0.085
0.295
0.425
-0.035
-0.45
-0.865
-0.505
-0.37
-0.315
-0.095
-0.035
0.37
0.37
-0.05
-0.525
-0.905
-0.495
-0.32
-0.255
-0.08
-0.03
0.365
0.335
-0.035
-0.48
-0.9
-0.47
-0.375
-0.23
-0.065
-0.01
0.46
0.39
-0.045
-0.465
-0.85
-0.4
-0.275
-0.22
-0.065
-0.01
0.435
0.35
-0.07
-0.52
-0.895
-0.445
-0.31
-0.205
-0.085
-0.03
0.45
0.28
-0.175
-0.575
-0.9
-0.44
-0.36
-0.22
-0.175
-0.055
0.505
0.3
-0.155
-0.565
-0.92
-0.43
-0.425
-0.185
-0.04
-0.035
0.485
0.26
-0.23
-0.74
-0.965
-0.48
-0.435
-0.155
-0.075
-0.07
0.48
0.21
-0.295
-0.79
-0.855
-0.445
-0.375
-0.085
-0.08
-0.11
0.46
0.18
-0.355
-0.81
-0.8
-0.44
-0.42
-0.08
-0.09
-0.055
0.44
0.1
-0.4
-0.87
-0.735
-0.345
-0.285
0.175
0.28
0.52
1.07
0.835
0.48
0.125
0.405
0.775
0.885
1.19
1.2
1.245
1.385
0.675
-0.035
-0.715
-0.69
-0.58
-0.515
-0.265
-0.215
0.035
0.285
-0.175
-0.64
-1.075
-0.73
-0.515
-0.425
-0.245
-0.195
0.13
0.365
-0.08
-0.505
-0.91
-0.59
-0.41
-0.32
-0.105
-0.06
0.3
0.38
-0.035
-0.485
-0.925
-0.525
-0.345
-0.245
-0.075
-0.025
0.37
0.355
-0.05
-0.49
-0.875
-0.465
-0.3
-0.21
-0.045
-0.005
0.405
0.37
-0.015
-0.465
-0.85
-0.39
-0.26
-0.175
-0.05
0.025
0.51
0.415
-0.005
-0.445
-0.83
-0.365
-0.21
-0.12
-0.015
0.055
0.56
0.415
0.01
-0.37
-0.78
-0.23
-0.135
-0.015
0.08
0.11
0.645
0.525
0.08
-0.32
-0.67
-0.205
-0.135
0.09
0.165
0.25
0.765
0.565
0.13
-0.31
-0.6
-0.065
-0.065
0.21
0.32
0.34
0.88
0.62
0.19
-0.335
-0.44
0.065
-0.01
0.3
0.34
0.355
0.915
0.655
0.145
-0.345
-0.375
0.045
0.065
0.405
0.44
0.39
0.865
0.605
0.09
-0.44
-0.36
-0.04
-0.045
0.27
0.26
0.28
0.77
0.4
-0.105
-0.64
-0.455
-0.155
-0.195
0.09
0.115
0.18
0.585
0.195
-0.325
-0.785
-0.555
-0.31
-0.265
-0.04
-0.025
0.21
0.47
0.08
-0.41
-0.86
-0.585
-0.37
-0.285
-0.04
-0.04
0.235
0.41
-0.015
-0.45
-0.89
-0.58
-0.37
-0.295
-0.11
-0.03
0.29
0.42
-0.005
-0.485
-0.9
-0.545
-0.36
-0.26
-0.075
-0.1
0.32
0.38
-0.05
-0.495
-0.875
-0.5
-0.325
-0.27
-0.095
-0.085
0.37
0.34
-0.065
-0.505
-0.89
-0.49
-0.32
-0.2
-0.095
-0.04
0.42
0.34
-0.075
-0.55
-0.905
-0.45
-0.315
-0.21
-0.065
-0.02
0.46
0.295
-0.115
-0.52
-0.885
-0.475
-0.33
-0.215
-0.11
-0.03
0.45
0.3
-0.11
-0.51
-0.905
-0.415
-0.33
-0.175
-0.11
-0.03
0.485
0.275
-0.165
-0.52
-0.91
-0.415
-0.435
-0.17
-0.09
-0.06
0.455
0.265
-0.24
-0.705
-0.955
-0.405
-0.41
-0.165
-0.09
-0.055
0.48
0.235
-0.26
-0.805
-0.89
-0.42
-0.425
-0.1
-0.065
-0.03
0.49
0.2
-0.345
-0.79
-0.79
-0.44
-0.425
-0.085
-0.085
-0.06
0.465
0.165
-0.365
-0.86
-0.735
-0.36
-0.315
-0.025
-0.065
0.01
0.485
0.09
-0.415
-0.875
-0.655
-0.39
-0.355
-0.095
-0.045
0.09
0.45
0.07
-0.415
-0.925
-0.625
-0.355
-0.335
-0.09
-0.05
0.185
0.435
0.025
-0.44
-0.91
-0.59
-0.345
-0.29
-0.095
-0.065
0.265
0.465
0.025
-0.49
-0.895
-0.545
-0.38
-0.29
-0.085
-0.05
0.295
0.395
-0.005
-0.5
-0.935
-0.525
-0.325
-0.25
-0.07
-0.025
0.4
0.375
-0.04
-0.5
-0.91
-0.52
-0.315
-0.205
-0.055
-0.02
0.425
0.395
-0.035
-0.46
-0.855
-0.44
-0.275
-0.2
-0.04
-0.01
0.445
0.37
-0.105
-0.5
-0.86
-0.45
-0.295
-0.23
-0.105
-0.065
0.44
0.3
-0.115
-0.535
-0.855
-0.42
-0.335
-0.225
-0.105
-0.04
0.465
0.3
-0.13
-0.54
-0.915
-0.47
-0.38
-0.195
-0.135
-0.07
0.445
0.26
-0.195
-0.575
-0.925
-0.425
-0.415
-0.165
-0.085
-0.06
0.48
0.26
-0.225
-0.755
-0.885
-0.41
-0.43
-0.155
-0.075
-0.03
0.5
0.205
-0.305
-0.76
-0.84
-0.415
-0.42
-0.08
-0.07
-0.065
0.485
0.235
-0.235
-0.66
-0.5
0.04
0.165
0.625
0.755
0.92
1.49
1.285
0.85
0.38
0.545
0.815
0.645
0.715
0.49
0.305
0.47
-0.05
-0.565
-1.025
-0.79
-0.5
-0.53
-0.285
-0.23
-0.03
0.31
-0.09
-0.545
-1.005
-0.73
-0.47
-0.375
-0.12
-0.125
0.16
0.45
0.05
-0.44
-0.87
-0.57
-0.365
-0.3
-0.08
-0.04
0.29
0.485
0.02
-0.41
-0.885
-0.52
-0.31
-0.235
-0.05
0.01
0.38
0.41
0.04
-0.43
-0.835
-0.435
-0.265
-0.165
-0.01
0.01
0.44
0.44
0.01
-0.42
-0.82
-0.37
-0.22
-0.16
0.02
0.055
0.505
0.4
0.02
-0.365
-0.81
-0.33
-0.15
-0.04
0.005
0.125
0.6
0.495
0.07
-0.36
-0.715
-0.25
-0.115
0.01
0.135
0.205
0.705
0.53
0.13
-0.25
-0.6
-0.16
-0.055
0.09
0.225
0.28
0.795
0.67
0.225
-0.145
-0.51
-0.04
0.1
0.23
0.33
0.395
0.905
0.7
0.225
-0.23
-0.49
0.03
0.035
0.29
0.385
0.44
0.965
0.7
0.175
-0.325
-0.425
0.04
-0.01
0.29
0.365
0.325
0.855
0.545
0.045
-0.485
-0.5
-0.12
-0.16
0.15
0.165
0.14
0.66
0.335
-0.185
-0.69
-0.605
-0.28
-0.285
0.025
0.035
0.065
0.51
0.185
