# TIPE ECG 2021 - ECG-ID Database v1.0.0 par Physionet
# [N° de la personne, N° de l'enregistrement, Période d'échantillonnage, Prénom, Age, Sexe, Date de l'enregistrement]
[88, 3, 0.002, "Edouard", 32, "H", "21.05.2005"]
-0.82
-0.335
-0.18
-0.145
0.005
0.085
0.505
0.42
0.035
-0.42
-0.84
-0.39
-0.245
-0.135
-0.015
0.05
0.525
0.425
-0.03
-0.55
-0.905
-0.435
-0.285
-0.085
-0.015
-0.01
0.525
0.405
-0.02
-0.47
-0.89
-0.425
-0.29
-0.13
-0.01
0.015
0.53
0.355
-0.06
-0.455
-0.89
-0.445
-0.35
-0.105
-0.04
0.03
0.615
0.355
-0.08
-0.65
-0.85
-0.335
-0.35
-0.115
0.0
0.065
0.525
0.275
-0.195
-0.66
-0.775
-0.36
-0.365
-0.045
0.03
0.025
0.6
0.305
-0.225
-0.78
-0.75
-0.365
-0.315
0.025
0.04
0.05
0.605
0.25
-0.275
-0.735
-0.675
-0.31
-0.305
0.025
0.005
0.105
0.59
0.165
-0.325
-0.785
-0.56
-0.295
-0.33
-0.035
0.06
0.19
0.545
0.175
-0.35
-0.845
-0.575
-0.32
-0.245
0.06
0.005
0.235
0.55
0.08
-0.375
-0.815
-0.52
-0.32
-0.25
0.005
0.04
0.295
0.505
0.085
-0.41
-0.89
-0.485
-0.26
-0.235
0.03
0.07
0.34
0.43
0.035
-0.445
-0.84
-0.43
-0.295
-0.185
-0.03
0.02
0.41
0.385
-0.005
-0.425
-0.825
-0.435
-0.285
-0.21
-0.015
0.055
0.48
0.41
-0.005
-0.455
-0.885
-0.47
-0.26
-0.15
-0.035
0.095
0.535
0.355
-0.01
-0.46
-0.875
-0.39
-0.26
-0.19
-0.005
0.025
0.58
0.375
-0.02
-0.46
-0.82
-0.395
-0.25
-0.145
-0.025
0.07
0.595
0.385
0.005
-0.395
-0.81
-0.325
-0.3
-0.105
0.01
0.075
0.62
0.395
-0.1
-0.485
-0.825
-0.33
-0.325
-0.065
0.025
0.055
0.57
0.34
-0.145
-0.675
-0.86
-0.35
-0.325
-0.025
0.01
0.06
0.645
0.26
-0.195
-0.75
-0.775
-0.35
-0.37
0.02
-0.005
0.015
0.56
0.25
-0.28
-0.77
-0.69
-0.32
-0.315
0.06
0.1
0.045
0.51
0.195
-0.33
-0.795
-0.675
-0.355
-0.32
-0.05
0.04
0.13
0.55
0.14
-0.32
-0.83
-0.61
-0.335
-0.22
0.025
0.02
0.235
0.53
0.13
-0.32
-0.7
-0.34
0.015
0.23
0.545
0.72
1.17
1.54
1.275
0.8
0.405
0.82
1.015
0.955
0.95
0.755
0.815
0.59
0.04
-0.585
-1.025
-0.62
-0.425
-0.35
-0.21
-0.205
0.265
0.31
-0.085
-0.605
-0.995
-0.565
-0.365
-0.275
-0.14
-0.02
0.42
0.42
0.01
-0.41
-0.845
-0.38
-0.265
-0.185
0.0
0.04
0.535
0.455
-0.015
-0.415
-0.82
-0.34
-0.2
-0.125
0.04
0.075
0.62
0.44
0.01
-0.41
-0.82
-0.385
-0.2
-0.075
0.08
0.18
0.67
0.525
0.08
-0.35
-0.76
-0.245
-0.15
-0.075
0.03
0.105
0.66
0.495
0.055
-0.29
-0.69
-0.175
-0.145
0.02
0.16
0.24
0.755
0.54
0.025
-0.465
-0.565
-0.08
-0.115
0.22
0.36
0.315
0.85
0.605
0.115
-0.425
-0.48
-0.04
-0.01
0.365
0.44
0.415
0.865
0.635
0.185
-0.32
-0.28
0.11
0.155
0.435
0.435
0.5
1.01
0.7
0.21
-0.275
-0.165
0.175
0.22
0.525
0.535
0.6
1.08
0.72
0.19
-0.265
-0.095
0.215
0.215
0.445
0.47
0.585
0.935
0.54
0.045
-0.46
-0.195
0.045
0.055
0.315
0.355
0.52
0.79
0.335
-0.16
-0.605
-0.335
-0.095
-0.015
0.145
0.155
0.415
0.565
0.24
-0.25
-0.705
-0.38
-0.225
-0.18
0.08
0.115
0.485
0.54
0.13
-0.37
-0.75
-0.36
-0.195
-0.11
0.025
0.105
0.495
0.455
0.07
-0.365
-0.765
-0.335
-0.215
-0.185
0.02
0.1
0.55
0.505
0.055
-0.405
-0.81
-0.345
-0.18
-0.13
0.01
0.105
0.59
0.485
0.035
-0.425
-0.765
-0.315
-0.185
-0.16
-0.045
0.11
0.595
0.45
0.035
-0.4
-0.82
-0.285
-0.245
-0.16
0.015
0.09
0.62
0.455
0.045
-0.445
-0.795
-0.265
-0.245
-0.04
0.03
0.09
0.67
0.47
-0.015
-0.55
-0.795
-0.275
-0.3
-0.01
0.07
0.115
0.665
0.405
-0.055
-0.58
-0.72
-0.335
-0.32
0.02
0.02
0.055
0.635
0.405
-0.155
-0.705
-0.73
-0.285
-0.265
0.045
0.075
0.13
0.63
0.28
-0.24
-0.71
-0.63
-0.31
-0.275
0.02
0.025
0.11
0.57
0.305
-0.21
-0.7
-0.55
-0.25
-0.2
0.105
0.1
0.24
0.61
0.185
-0.285
-0.755
-0.52
-0.235
-0.155
0.04
0.04
0.275
0.55
0.12
-0.335
-0.74
-0.485
-0.225
-0.205
0.06
0.08
0.31
0.575
0.13
-0.31
-0.795
-0.45
-0.19
-0.175
0.005
0.06
0.455
0.51
0.085
-0.35
-0.745
-0.405
-0.22
-0.11
0.115
0.125
0.515
0.57
0.125
-0.295
-0.745
-0.3
-0.115
-0.115
0.035
0.065
0.515
0.485
0.08
-0.38
-0.775
-0.335
-0.195
-0.105
-0.005
0.075
0.55
0.465
0.05
-0.41
-0.83
-0.395
-0.205
-0.165
-0.045
0.025
0.54
0.42
0.025
-0.43
-0.865
-0.31
-0.245
-0.12
0.015
0.075
0.58
0.405
-0.025
-0.465
-0.84
-0.32
-0.275
-0.095
-0.005
0.055
0.645
0.42
-0.045
-0.54
-0.89
-0.35
-0.3
-0.075
0.065
0.06
0.56
0.36
-0.095
-0.635
-0.81
-0.33
-0.345
-0.06
0.035
0.065
0.695
0.505
0.11
-0.255
-0.23
0.405
0.59
0.99
1.07
1.25
1.845
1.57
1.095
0.56
0.45
0.6
0.29
0.275
0.065
-0.09
0.405
0.08
-0.355
-0.905
-0.845
-0.53
-0.43
-0.145
-0.075
0.045
0.48
0.1
-0.365
-0.88
-0.64
-0.325
-0.26
-0.01
0.05
0.26
0.59
0.11
-0.36
-0.745
-0.485
-0.27
-0.185
-0.01
0.06
0.35
0.59
0.19
-0.325
-0.775
-0.445
-0.2
-0.135
0.055
0.105
0.465
0.61
0.17
-0.28
-0.71
-0.35
-0.205
-0.11
0.06
0.165
0.54
0.58
0.15
-0.3
-0.76
-0.33
-0.17
-0.06
0.12
0.175
0.59
0.61
0.205
-0.32
-0.695
-0.26
-0.08
0.03
0.15
0.235
0.715
0.645
0.255
-0.2
-0.64
-0.2
-0.035
0.065
0.28
0.345
0.785
0.715
0.29
-0.07
-0.515
-0.09
0.075
0.215
0.36
0.435
0.94
0.81
0.32
-0.04
-0.45
0.035
0.165
0.275
0.43
0.485
1.0
0.815
0.375
0.015
-0.415
0.12
0.245
0.355
0.475
0.505
0.96
0.795
0.31
-0.18
-0.455
0.035
0.03
0.29
0.36
0.38
0.93
0.655
0.135
-0.475
-0.52
-0.01
-0.13
0.205
0.24
0.195
0.71
0.485
-0.14
-0.625
-0.575
-0.165
-0.185
0.105
0.06
0.13
0.655
0.27
-0.19
-0.73
-0.595
-0.275
-0.235
0.06
-0.03
0.08
0.68
0.295
-0.275
-0.77
-0.53
-0.275
-0.24
0.055
0.095
0.225
0.605
0.155
-0.345
-0.83
-0.52
-0.295
-0.23
-0.01
0.02
0.31
0.585
0.12
-0.345
-0.795
-0.46
-0.27
-0.22
-0.02
0.09
0.345
0.575
0.08
-0.385
-0.845
-0.435
-0.225
-0.155
0.01
0.055
0.435
0.535
0.09
-0.4
-0.8
-0.475
-0.245
-0.215
-0.02
0.055
0.46
0.445
0.04
-0.415
-0.815
-0.42
-0.255
-0.15
0.005
0.035
0.49
0.455
0.02
-0.465
-0.865
-0.355
-0.26
-0.08
0.02
0.115
0.525
0.375
-0.025
-0.42
-0.85
-0.38
-0.255
-0.17
-0.09
0.005
0.535
0.385
-0.07
-0.425
-0.855
-0.37
-0.265
-0.14
-0.02
0.055
0.545
0.365
-0.09
-0.455
-0.85
-0.38
-0.315
-0.195
-0.065
0.01
0.485
0.37
-0.115
-0.63
-0.88
-0.335
-0.315
-0.095
0.005
0.065
0.5
0.22
-0.225
-0.71
-0.835
-0.39
-0.32
-0.06
-0.005
-0.035
0.525
0.25
-0.19
-0.74
-0.79
-0.365
-0.36
-0.01
0.045
0.06
0.555
0.195
-0.36
-0.82
-0.725
-0.405
-0.325
-0.02
-0.005
0.08
0.55
0.145
-0.385
-0.815
-0.66
-0.325
-0.24
0.03
0.03
0.155
0.58
0.18
-0.34
-0.81
-0.545
-0.285
-0.255
-0.095
-0.04
0.205
0.505
0.045
-0.45
-0.88
-0.565
-0.35
-0.32
-0.07
-0.065
0.265
0.5
0.065
-0.42
-0.91
-0.57
-0.34
-0.245
-0.1
-0.03
0.345
0.395
0.01
-0.435
-0.875
-0.525
-0.305
-0.26
-0.08
-0.025
0.355
0.395
-0.065
-0.47
-0.905
-0.51
-0.325
-0.24
-0.055
0.0
0.34
0.32
-0.065
-0.53
-0.955
-0.535
-0.305
-0.22
-0.1
-0.03
0.42
0.32
-0.06
-0.48
-0.97
-0.515
-0.325
-0.21
0.045
0.19
0.81
0.785
0.475
0.19
-0.095
0.515
0.73
0.96
1.205
1.28
1.78
1.58
0.98
0.36
-0.375
-0.18
-0.335
-0.33
-0.255
-0.21
0.305
0.165
-0.3
-0.76
-1.1
-0.61
-0.535
-0.305
-0.13
-0.1
0.465
0.23
-0.21
-0.715
-0.915
-0.405
-0.39
-0.13
-0.065
-0.04
0.505
0.26
-0.26
-0.76
-0.805
-0.365
-0.36
-0.03
-0.02
0.02
0.58
0.265
-0.305
-0.745
-0.65
-0.29
-0.355
-0.015
0.025
0.03
0.545
0.255
-0.235
-0.775
-0.615
-0.295
-0.23
0.02
0.08
0.235
0.635
0.215
-0.25
-0.735
-0.505
-0.25
-0.185
0.095
0.135
0.345
0.69
0.275
-0.245
-0.705
-0.43
-0.155
-0.03
0.14
0.18
0.475
0.695
0.24
-0.21
-0.645
-0.295
-0.065
-0.005
0.2
0.275
0.645
0.83
0.36
-0.075
-0.55
-0.215
-0.01
0.12
0.315
0.405
0.78
0.835
0.415
-0.015
-0.43
-0.055
0.12
0.185
0.37
0.41
0.86
0.875
0.41
0.01
-0.425
-0.01
0.155
0.24
0.385
0.445
0.93
0.85
0.35
-0.05
-0.505
-0.045
0.09
0.19
0.265
0.285
0.745
0.645
0.205
-0.235
-0.655
-0.2
-0.11
-0.03
0.075
0.11
0.61
0.45
0.035
-0.345
-0.715
-0.29
-0.245
-0.16
-0.06
0.065
0.54
0.38
-0.05
-0.44
-0.89
-0.385
-0.325
-0.12
0.02
-0.015
0.555
0.335
-0.125
-0.64
-0.875
-0.335
-0.395
-0.095
0.005
0.025
0.535
0.3
-0.19
-0.72
-0.815
-0.355
-0.36
-0.005
0.03
-0.005
0.54
0.26
-0.25
-0.755
-0.73
-0.375
-0.335
0.035
0.025
0.015
0.58
0.235
-0.29
-0.785
-0.66
-0.31
-0.28
0.0
0.045
0.1
0.545
0.165
-0.34
-0.805
-0.61
-0.3
-0.24
0.01
0.05
0.2
0.55
0.135
-0.345
-0.815
-0.555
-0.33
-0.285
-0.025
0.04
0.285
0.52
0.13
-0.34
-0.77
-0.495
-0.3
-0.225
-0.015
0.04
0.345
0.53
0.09
-0.415
-0.85
-0.51
-0.24
-0.22
-0.05
0.025
0.395
0.495
0.09
-0.4
-0.845
-0.45
-0.26
-0.19
-0.055
-0.01
0.455
0.47
0.065
-0.4
-0.875
-0.47
-0.28
-0.215
-0.025
0.015
0.465
0.42
0.0
-0.43
-0.81
-0.37
-0.3
-0.18
-0.05
0.005
0.495
0.345
-0.06
-0.47
-0.875
-0.385
-0.3
-0.155
-0.065
0.005
0.505
0.395
-0.04
-0.475
-0.87
-0.4
-0.295
-0.17
-0.065
-0.005
0.55
0.42
-0.01
-0.48
-0.895
-0.36
-0.335
-0.135
-0.025
0.015
0.59
0.345
-0.06
-0.51
-0.84
-0.375
-0.38
-0.11
0.005
0.02
0.58
0.3
-0.125
-0.66
-0.815
-0.32
-0.33
0.005
0.045
0.07
0.64
0.34
-0.22
-0.65
-0.695
-0.265
-0.28
0.035
0.06
0.055
0.61
0.305
-0.21
-0.75
-0.68
-0.335
-0.285
0.005
0.06
0.04
0.515
0.195
-0.295
-0.78
-0.665
-0.3
-0.285
-0.02
0.045
0.195
0.56
0.13
-0.36
-0.805
-0.605
-0.345
-0.26
-0.005
0.035
0.285
0.565
0.1
-0.355
-0.83
-0.535
-0.295
-0.265
-0.055
0.025
0.34
0.57
0.125
-0.425
-0.825
-0.5
-0.305
-0.24
-0.025
0.035
0.375
0.51
0.085
-0.46
-0.8
-0.445
-0.285
-0.21
-0.04
-0.05
0.375
0.52
0.155
-0.265
-0.55
-0.005
0.25
0.5
0.81
0.98
1.53
1.62
1.255
0.81
0.47
0.865
0.875
0.71
0.57
0.27
0.515
0.25
-0.22
-0.61
-1.015
-0.56
-0.43
-0.345
-0.185
-0.125
0.415
0.285
-0.155
-0.575
-0.945
-0.445
-0.33
-0.185
-0.04
0.055
0.545
0.365
-0.05
-0.46
-0.845
-0.36
-0.275
-0.105
-0.03
0.025
0.595
0.405
-0.075
-0.465
-0.835
-0.305
-0.25
-0.05
0.09
0.055
0.6
0.425
-0.065
-0.57
-0.755
-0.29
-0.26
0.05
0.075
0.1
0.665
0.375
-0.11
-0.61
-0.68
-0.255
-0.18
0.12
0.14
0.17
0.695
0.365
-0.095
-0.61
-0.59
-0.18
-0.16
0.195
0.22
0.235
0.765
0.42
-0.06
-0.58
-0.42
-0.11
-0.1
0.26
0.31
0.415
0.825
0.4
-0.085
-0.52
-0.26
0.025
0.09
0.365
0.355
0.55
0.9
0.52
0.07
-0.355
-0.065
0.11
0.165
0.42
0.455
0.72
1.0
0.595
0.115
-0.405
-0.09
0.16
0.225
0.445
0.515
0.835
0.975
0.57
0.08
-0.365
-0.025
0.18
0.27
0.455
0.485
0.76
0.79
0.36
-0.11
-0.49
-0.14
0.025
0.075
0.215
0.27
0.655
0.66
0.24
-0.265
-0.665
-0.265
-0.095
-0.03
0.065
0.125
0.555
0.46
0.08
-0.345
-0.75
-0.345
-0.19
-0.125
0.035
0.07
0.595
0.485
0.04
-0.46
-0.815
-0.325
-0.19
-0.09
0.035
0.01
0.53
0.425
0.02
-0.455
-0.84
-0.365
-0.225
-0.06
0.01
0.04
0.575
0.395
-0.02
-0.435
-0.785
-0.34
-0.335
-0.15
0.065
0.11
0.63
0.385
-0.03
-0.525
-0.82
-0.3
-0.305
-0.075
0.03
0.07
0.62
0.365
-0.115
-0.65
-0.725
-0.33
-0.265
0.09
0.125
0.095
0.59
0.305
-0.155
-0.73
-0.685
-0.31
-0.26
0.035
0.065
0.135
0.645
0.29
-0.23
-0.735
-0.625
-0.275
-0.245
0.045
0.105
0.17
0.62
0.215
-0.245
-0.74
-0.545
-0.295
-0.21
0.035
0.06
0.24
0.62
0.21
-0.295
-0.78
-0.505
-0.265
-0.195
0.085
0.1
0.305
0.62
0.13
-0.335
-0.765
-0.49
-0.305
-0.185
0.02
0.03
0.37
0.53
0.14
-0.345
-0.77
-0.47
-0.265
-0.23
-0.01
0.05
0.425
0.545
0.125
-0.38
-0.79
-0.355
-0.265
-0.165
0.01
0.025
0.45
0.45
0.045
-0.365
-0.785
-0.355
-0.245
-0.14
-0.02
0.1
0.485
0.415
0.055
-0.43
-0.845
-0.405
-0.225
-0.135
-0.025
0.055
0.56
0.46
0.08
-0.43
-0.815
-0.4
-0.225
-0.18
0.02
0.055
0.56
0.395
-0.01
-0.455
-0.825
-0.325
-0.205
-0.075
0.03
0.03
0.555
0.435
0.025
-0.42
-0.785
-0.27
-0.315
-0.11
-0.035
0.025
0.585
0.375
-0.04
-0.5
-0.75
-0.255
-0.24
0.0
0.185
0.11
0.625
0.405
-0.145
-0.605
-0.755
-0.255
-0.24
-0.03
0.04
0.135
0.64
0.35
-0.205
-0.725
-0.72
-0.28
-0.295
0.045
0.085
0.05
0.6
0.285
-0.235
-0.74
-0.675
-0.29
-0.26
0.03
0.07
0.075
0.59
0.245
-0.255
-0.71
-0.575
-0.3
-0.245
0.0
0.025
0.17
0.56
0.215
-0.28
-0.79
-0.565
-0.33
-0.23
0.0
0.03
0.345
0.57
0.16
-0.33
-0.805
-0.525
-0.285
-0.19
-0.01
0.025
0.34
0.55
0.125
-0.455
-0.85
-0.45
-0.225
-0.095
0.225
0.355
0.835
1.12
0.77
0.455
0.145
0.58
0.855
1.02
1.27
1.445
1.71
1.63
0.98
0.205
-0.5
-0.36
-0.4
-0.39
-0.21
-0.11
0.305
0.27
-0.135
-0.575
-0.995
-0.51
-0.34
-0.26
-0.085
0.015
0.48
0.43
-0.01
-0.445
-0.855
-0.405
-0.23
-0.14
-0.015
0.1
0.56
0.41
0.01
-0.45
-0.795
-0.35
-0.22
-0.07
0.005
0.085
0.605
0.47
0.065
-0.35
-0.83
-0.29
-0.215
-0.015
0.045
0.055
0.63
0.51
0.045
-0.36
-0.72
-0.22
-0.195
0.005
0.155
0.08
0.68
0.425
-0.02
-0.535
-0.7
-0.215
-0.22
0.085
0.175
0.21
0.735
0.46
-0.04
-0.53
-0.585
-0.1
-0.115
0.255
0.275
0.26
0.815
0.56
0.005
-0.54
-0.465
-0.045
-0.015
0.265
0.33
0.37
0.905
0.54
0.11
-0.385
-0.255
0.075
0.095
0.41
0.395
0.53
0.995
0.63
0.11
-0.35
-0.155
0.155
0.19
0.475
0.505
0.67
1.045
0.605
0.11
-0.325
-0.06
0.18
0.255
0.485
0.5
0.775
0.975
0.505
0.065
-0.405
-0.085
0.15
0.125
0.32
0.325
0.695
0.81
0.35
-0.15
-0.61
-0.255
-0.075
0.02
0.175
0.215
0.555
0.625
0.17
-0.315
-0.755
-0.35
-0.175
-0.14
0.025
0.105
0.53
0.455
0.09
-0.34
-0.73
-0.36
-0.2
-0.05
0.03
0.055
0.465
0.475
-0.005
-0.375
-0.81
-0.38
-0.235
-0.12
0.01
0.06
0.57
0.45
0.03
-0.405
-0.865
-0.38
-0.225
-0.105
0.0
0.065
0.585
0.44
-0.01
-0.425
-0.875
-0.32
-0.3
-0.125
-0.035
0.08
0.65
0.425
0.02
-0.42
-0.835
-0.355
-0.285
-0.115
0.015
0.1
0.585
0.39
-0.07
-0.59
-0.79
-0.335
-0.32
-0.035
0.05
0.125
0.645
0.325
-0.1
-0.635
-0.715
-0.325
-0.37
-0.035
0.01
0.045
0.575
0.285
-0.165
-0.655
-0.695
-0.3
-0.255
0.05
0.08
0.075
0.6
0.285
-0.26
-0.76
-0.64
-0.275
-0.23
0.05
0.07
0.12
0.59
0.245
-0.295
-0.74
-0.555
-0.31
-0.27
-0.005
0.06
0.24
0.555
0.155
-0.335
-0.78
-0.505
-0.25
-0.215
-0.01
0.055
0.305
0.545
0.115
-0.345
-0.815
-0.395
-0.23
-0.22
-0.035
0.02
0.31
0.525
0.06
-0.405
-0.825
-0.475
-0.26
-0.17
-0.01
0.05
0.35
0.505
0.11
-0.375
-0.81
-0.43
-0.245
-0.17
0.045
0.04
0.41
0.445
0.005
-0.425
-0.83
-0.375
-0.23
-0.15
0.005
0.035
0.48
0.44
0.025
-0.37
-0.87
-0.435
-0.235
-0.19
-0.03
0.05
0.51
0.405
-0.025
-0.45
-0.86
-0.355
-0.235
-0.125
-0.04
0.075
0.53
0.405
0.0
-0.465
-0.875
-0.37
-0.26
-0.085
-0.01
0.095
0.565
0.385
-0.035
-0.475
-0.855
-0.29
-0.265
-0.09
-0.04
0.02
0.595
0.37
-0.065
-0.57
-0.84
-0.245
-0.27
0.0
0.05
0.055
0.63
0.41
-0.12
-0.625
-0.725
-0.24
-0.275
0.06
0.03
0.0
0.58
0.325
-0.205
-0.74
-0.765
-0.33
-0.31
0.065
0.025
0.04
0.59
0.235
-0.25
-0.77
-0.64
-0.295
-0.365
0.0
0.06
0.115
0.565
0.19
-0.3
-0.775
-0.575
-0.37
-0.27
-0.005
0.055
0.18
0.555
0.18
-0.305
-0.815
-0.54
-0.295
-0.26
-0.05
0.025
0.26
0.58
0.15
-0.39
-0.83
-0.53
-0.295
-0.22
0.005
0.045
0.34
0.48
0.095
-0.415
-0.85
-0.47
-0.19
-0.07
0.21
0.395
0.86
1.045
0.76
0.47
0.12
0.59
0.91
1.02
1.28
1.34
1.67
1.475
0.8
0.06
-0.61
-0.41
-0.43
-0.385
-0.185
-0.095
0.245
0.15
-0.175
-0.595
-0.99
-0.52
-0.365
-0.225
-0.125
-0.005
0.445
0.36
-0.07
-0.485
-0.865
-0.37
-0.23
-0.13
-0.05
0.04
0.54
0.415
-0.02
-0.44
-0.83
-0.315
-0.25
-0.11
0.04
0.08
0.61
0.435
-0.015
-0.445
-0.775
-0.32
-0.27
-0.065
0.035
0.08
0.625
0.46
0.01
-0.45
-0.725
-0.235
-0.22
0.035
0.12
0.145
0.69
0.44
-0.065
-0.555
-0.7
-0.195
-0.21
0.095
0.21
0.23
0.705
0.455
-0.03
-0.585
-0.595
-0.145
-0.06
0.25
0.21
0.23
0.77
0.485
0.015
-0.49
-0.4
-0.035
-0.045
0.345
0.41
0.39
0.89
0.51
0.045
-0.425
-0.305
0.025
0.135
0.41
0.43
0.565
0.96
0.615
0.15
-0.34
-0.145
0.15
0.22
0.48
0.52
0.775
1.005
0.585
0.105
-0.325
0.015
0.18
0.27
0.515
0.5
0.835
0.98
0.525
0.025
-0.405
-0.08
0.115
0.17
0.285
0.36
0.7
0.76
0.335
-0.09
-0.56
-0.235
-0.07
0.01
0.165
0.24
0.63
0.69
0.185
-0.29
-0.77
-0.33
-0.165
-0.07
0.035
0.15
0.56
0.5
0.13
-0.325
-0.73
-0.31
-0.185
-0.105
0.05
0.075
0.58
0.465
0.12
-0.395
-0.795
-0.36
-0.175
-0.07
0.095
0.04
0.65
0.44
0.065
-0.395
-0.83
-0.275
-0.17
-0.09
0.045
0.18
0.575
0.45
0.03
-0.415
-0.855
-0.31
-0.26
-0.08
0.045
0.105
0.64
0.435
0.0
-0.46
-0.83
-0.27
-0.25
-0.025
0.105
0.125
0.67
0.445
-0.055
-0.575
-0.75
-0.25
-0.225
0.02
0.065
0.11
0.675
0.41
-0.1
-0.605
-0.665
-0.26
-0.225
0.085
0.095
0.125
0.69
0.365
-0.105
-0.69
-0.625
-0.175
-0.24
0.08
0.07
0.125
0.645
0.28
-0.145
-0.74
-0.63
-0.27
-0.2
0.07
0.095
0.21
0.63
0.3
-0.19
-0.72
-0.505
-0.22
-0.185
0.08
0.11
0.375
0.615
0.2
-0.29
-0.76
-0.45
-0.2
-0.19
0.065
0.095
0.37
0.62
0.2
-0.29
-0.78
-0.525
-0.27
-0.2
0.03
0.13
0.45
0.61
0.16
-0.32
-0.815
-0.345
-0.215
-0.165
0.055
0.07
0.425
0.485
0.08
-0.405
-0.765
-0.355
-0.165
-0.125
0.045
0.12
0.535
0.51
0.095
-0.35
-0.78
-0.38
-0.26
-0.14
0.015
0.115
0.52
0.515
0.07
-0.415
-0.825
-0.335
-0.16
-0.04
0.055
0.09
0.565
0.44
0.06
-0.39
-0.78
-0.315
-0.215
-0.115
0.03
0.09
0.585
0.43
-0.005
-0.41
-0.735
-0.265
-0.23
-0.07
0.01
0.07
0.6
0.47
0.025
-0.375
-0.74
-0.22
-0.205
-0.005
0.1
0.09
0.68
0.445
-0.005
-0.56
-0.745
-0.275
-0.23
0.055
0.065
0.11
0.625
0.395
-0.13
-0.68
-0.715
-0.295
-0.28
0.08
0.04
0.075
0.65
0.375
-0.145
-0.755
-0.69
-0.265
-0.25
0.07
0.11
0.135
0.63
0.25
-0.275
-0.76
-0.57
-0.23
-0.235
0.07
0.095
0.145
0.615
0.24
-0.29
-0.79
-0.525
-0.245
-0.165
0.12
0.055
0.27
0.585
0.19
-0.26
-0.74
-0.46
-0.275
-0.215
0.095
0.125
0.365
0.675
0.16
-0.345
-0.77
-0.405
-0.085
0.07
0.395
0.595
1.02
1.35
0.935
0.615
0.31
0.77
1.065
1.125
1.395
1.32
1.485
1.25
0.545
-0.2
-0.935
-0.57
-0.34
-0.28
-0.07
-0.04
0.315
0.36
-0.05
-0.505
-0.9
-0.48
-0.315
-0.2
-0.05
0.01
0.465
0.455
0.06
-0.38
-0.775
-0.335
-0.205
-0.135
0.005
0.09
0.585
0.505
0.06
-0.37
-0.76
-0.28
-0.15
-0.085
0.125
0.16
0.66
0.535
0.05
-0.335
-0.72
-0.305
-0.1
0.005
0.095
0.195
0.72
0.505
0.08
-0.285
-0.695
-0.205
-0.16
0.055
0.155
0.155
0.775
0.51
0.055
-0.44
-0.61
-0.085
-0.07
0.13
0.215
0.235
0.775
0.55
0.085
-0.455
-0.545
-0.145
-0.095
0.28
0.275
0.345
0.9
0.615
0.07
-0.435
-0.4
0.015
0.03
0.33
0.38
0.44
1.01
0.675
0.155
-0.38
-0.22
0.115
0.12
0.445
0.48
0.595
1.03
0.7
0.165
-0.255
-0.07
0.23
0.265
0.505
0.555
0.71
1.055
0.66
0.185
-0.3
-0.035
0.28
0.3
0.47
0.5
0.775
1.015
0.605
0.1
-0.39
-0.07
0.07
0.12
0.335
0.415
0.72
0.82
0.38
-0.07
-0.545
-0.23
-0.05
0.06
0.14
0.195
0.585
0.655
0.21
-0.25
-0.66
-0.225
-0.075
-0.035
0.09
0.12
0.57
0.62
0.155
-0.29
-0.705
-0.28
-0.23
-0.1
0.09
0.13
0.605
0.57
0.115
-0.335
-0.75
-0.29
-0.16
-0.045
0.095
0.185
0.63
0.47
0.04
-0.35
-0.71
-0.26
-0.11
-0.01
0.09
0.145
0.65
0.55
0.085
-0.39
-0.755
-0.215
-0.13
-0.055
0.025
0.115
0.655
0.505
0.085
-0.33
-0.755
-0.245
-0.145
0.015
0.085
0.135
0.67
0.45
0.02
-0.475
-0.715
-0.165
-0.22
0.05
0.115
0.13
0.67
0.45
-0.02
-0.55
-0.635
-0.205
-0.235
0.095
0.14
0.14
0.76
0.485
-0.095
-0.625
-0.64
-0.18
-0.19
0.145
0.14
0.14
0.735
0.415
-0.125
-0.66
-0.585
-0.215
-0.18
0.165
0.135
0.245
0.71
0.34
-0.17
-0.775
-0.51
-0.215
-0.185
0.15
0.13
0.355
0.71
0.305
-0.245
-0.71
-0.455
-0.19
-0.165
0.06
0.12
0.39
0.675
0.28
-0.225
-0.68
-0.385
-0.155
-0.095
0.09
0.095
0.45
0.7
0.275
-0.255
-0.735
-0.34
-0.14
-0.04
0.14
0.16
0.545
0.625
0.2
-0.235
-0.65
-0.25
-0.08
0.045
0.255
0.2
0.6
0.64
0.24
-0.245
-0.725
-0.225
-0.085
-0.02
0.125
0.205
0.685
0.585
0.14
-0.3
-0.745
-0.28
-0.135
-0.055
0.075
0.21
0.675
0.58
0.155
-0.335
-0.75
-0.29
-0.115
0.005
0.12
0.09
0.655
0.57
0.095
-0.34
-0.745
-0.27
-0.125
-0.035
0.11
0.135
0.695
0.52
0.07
-0.335
-0.755
-0.23
-0.155
0.01
0.095
0.205
0.74
0.505
0.005
-0.46
-0.765
-0.245
-0.215
0.02
0.15
0.18
0.775
0.41
-0.07
-0.56
-0.75
-0.24
-0.225
0.1
0.09
0.195
0.77
0.59
0.11
-0.25
-0.175
0.4
0.535
1.015
1.125
1.22
1.825
1.54
1.015
0.445
0.41
0.575
0.33
0.42
0.23
0.06
0.545
0.16
-0.365
-0.825
-0.67
-0.335
-0.325
-0.06
-0.035
0.11
0.535
0.12
-0.28
-0.82
-0.545
-0.25
-0.145
0.035
0.12
0.37
0.65
0.27
-0.2
-0.68
-0.39
-0.145
-0.1
0.13
0.175
0.42
0.635
0.235
-0.26
-0.72
-0.415
-0.19
-0.085
0.17
0.225
0.585
0.675
0.26
-0.2
-0.685
-0.3
-0.105
-0.05
0.17
0.22
0.625
0.66
0.25
-0.235
-0.665
-0.27
-0.055
-0.005
0.195
0.265
0.71
0.665
0.255
-0.21
-0.63
-0.155
-0.02
-0.005
0.195
0.25
0.825
0.76
0.325
-0.135
-0.535
-0.085
0.105
0.185
0.33
0.39
0.875
0.745
0.315
-0.02
-0.47
0.035
0.22
0.325
0.445
0.5
1.06
0.915
0.49
0.035
-0.35
0.13
0.245
0.435
0.525
0.555
1.1
0.915
0.535
0.045
-0.36
0.195
0.225
0.475
0.6
0.605
1.16
0.915
0.405
-0.15
-0.3
0.2
0.19
0.43
0.44
0.48
0.975
0.69
0.21
-0.29
-0.34
0.075
0.01
0.38
0.365
0.315
0.895
0.54
0.005
-0.55
-0.465
-0.04
-0.04
0.205
0.22
0.265
0.745
0.39
-0.155
-0.65
-0.53
-0.15
-0.09
0.195
0.225
0.265
0.72
0.385
-0.2
-0.66
-0.435
-0.16
-0.125
0.11
0.185
0.38
0.745
0.27
-0.17
-0.64
-0.355
-0.18
-0.1
0.11
0.14
0.47
0.705
0.27
-0.22
-0.665
-0.295
-0.175
-0.085
0.115
0.14
0.495
0.57
0.3
-0.19
-0.665
-0.305
-0.085
0.005
0.155
0.17
0.57
0.625
0.205
-0.225
-0.705
-0.225
-0.075
-0.035
0.065
0.185
0.605
0.56
0.145
-0.31
-0.7
-0.265
-0.11
0.005
0.145
0.15
0.65
0.54
0.11
-0.31
-0.705
-0.27
-0.055
0.02
0.115
0.185
0.67
0.6
0.13
-0.32
-0.705
-0.24
-0.045
0.03
0.11
0.165
0.69
0.49
0.075
-0.355
-0.755
-0.22
-0.145
0.015
0.12
0.07
0.65
0.48
0.06
-0.375
-0.75
-0.235
-0.19
-0.025
0.13
0.14
0.685
0.48
0.025
-0.535
-0.7
-0.21
-0.215
0.075
0.125
0.105
0.715
0.465
-0.035
-0.56
-0.645
-0.165
-0.205
0.11
0.11
0.135
0.715
0.415
-0.09
-0.62
-0.565
-0.165
-0.18
0.15
0.12
0.215
0.755
0.365
-0.125
-0.65
-0.43
-0.145
-0.12
0.085
0.115
0.29
0.745
0.395
-0.13
-0.71
-0.485
-0.205
-0.15
0.15
0.115
0.34
0.7
0.29
-0.23
-0.71
-0.395
-0.195
-0.11
0.135
0.13
0.37
0.65
0.25
-0.255
-0.66
-0.355
-0.185
-0.115
0.08
0.135
0.395
0.58
0.17
-0.32
-0.73
-0.35
-0.21
-0.145
0.075
0.08
0.56
0.625
0.155
-0.39
-0.765
-0.335
-0.135
-0.09
0.08
0.09
0.58
0.535
0.105
-0.35
-0.765
-0.345
-0.095
-0.1
0.07
0.12
0.605
0.52
0.145
-0.3
-0.635
-0.05
0.16
0.415
0.62
0.815
1.455
1.47
1.095
0.8
0.435
0.925
1.135
1.18
1.14
0.95
1.105
0.655
0.02
-0.535
-0.955
-0.485
-0.33
-0.18
-0.1
-0.035
0.495
0.26
-0.165
-0.575
-0.855
-0.32
-0.295
-0.07
0.01
0.06
0.635
0.435
-0.035
-0.59
-0.765
-0.24
-0.23
0.075
0.155
0.115
0.635
0.395
-0.075
-0.555
-0.655
-0.18
-0.17
0.14
0.185
0.15
0.75
0.445
-0.13
-0.625
-0.61
-0.165
-0.22
0.19
0.205
0.21
0.725
0.415
-0.105
-0.57
-0.425
-0.075
-0.075
0.11
0.14
0.305
0.76
0.38
-0.085
-0.605
-0.45
-0.06
0.01
0.27
0.245
0.44
0.855
0.415
-0.1
-0.605
-0.265
-0.005
0.055
0.315
0.385
0.63
0.905
0.455
-0.05
-0.49
-0.13
0.1
0.17
0.38
0.435
0.78
0.95
0.525
0.085
-0.365
-0.03
0.205
0.29
0.475
0.57
0.915
0.88
0.51
0.11
-0.345
0.09
0.24
0.275
0.495
0.545
0.94
0.97
0.575
0.065
-0.405
0.07
0.265
0.35
0.405
0.48
0.92
0.87
0.425
-0.03
-0.415
-0.01
0.125
0.215
0.325
0.33
0.78
0.67
0.23
-0.22
-0.705
-0.195
0.03
0.025
0.17
0.215
0.7
0.49
0.07
-0.335
-0.72
-0.25
-0.11
-0.015
0.04
0.125
0.62
0.48
0.005
-0.39
-0.82
-0.305
-0.24
-0.03
0.085
0.105
0.65
0.47
-0.015
-0.48
-0.745
-0.21
-0.22
0.07
0.07
0.07
0.665
0.425
-0.08
-0.605
-0.73
-0.235
-0.24
0.11
0.05
0.1
0.68
0.41
-0.07
-0.635
-0.62
-0.265
-0.265
0.08
0.075
0.12
0.605
0.285
-0.195
-0.675
-0.56
-0.225
-0.205
0.115
0.03
0.125
0.645
0.28
-0.275
-0.77
-0.53
-0.3
-0.225
0.01
0.095
0.265
0.63
0.22
-0.27
-0.75
-0.52
-0.245
-0.15
0.12
0.1
0.35
0.595
0.235
-0.225
-0.715
-0.45
-0.27
-0.17
0.01
0.085
0.36
0.57
0.155
-0.335
-0.795
-0.415
-0.195
-0.12
0.025
0.075
0.505
0.49
0.08
-0.35
-0.79
-0.36
-0.28
-0.125
0.035
0.045
0.515
0.545
0.1
-0.46
-0.815
-0.375
-0.165
-0.145
-0.005
0.085
0.525
0.525
0.06
-0.37
-0.745
-0.37
-0.26
-0.15
0.035
0.09
0.575
0.475
0.065
-0.36
-0.75
-0.205
-0.11
-0.1
0.0
0.09
0.635
0.47
0.015
-0.41
-0.76
-0.245
-0.185
-0.07
0.04
0.08
0.595
0.355
0.0
-0.445
-0.84
-0.305
-0.225
-0.08
-0.01
0.075
0.565
0.365
-0.07
-0.545
-0.845
-0.28
-0.28
-0.075
-0.005
0.005
0.56
0.41
-0.18
-0.675
-0.89
-0.365
-0.36
-0.01
0.075
0.075
0.615
0.305
-0.24
-0.72
-0.7
-0.335
-0.305
-0.01
0.045
0.07
0.62
0.28
-0.25
-0.76
-0.685
-0.32
-0.28
0.05
0.04
0.075
0.62
0.205
-0.28
-0.82
-0.655
-0.28
-0.24
0.115
0.15
0.425
1.005
0.75
0.335
0.0
0.4
0.64
0.85
1.22
1.235
1.59
1.88
1.335
0.635
-0.11
-0.125
-0.125
-0.31
-0.185
-0.07
0.155
0.335
-0.115
-0.57
-0.985
-0.62
-0.37
-0.315
-0.085
-0.02
0.34
0.49
0.14
-0.405
-0.84
-0.465
-0.3
-0.17
-0.01
0.065
0.465
0.495
0.06
-0.395
-0.8
-0.41
-0.23
-0.15
0.035
0.075
0.495
0.47
0.11
-0.38
-0.775
-0.315
-0.16
-0.06
0.07
0.135
0.585
0.52
0.13
-0.35
-0.8
-0.32
-0.15
-0.04
0.09
0.145
0.645
0.48
0.11
-0.325
-0.74
-0.26
-0.115
0.01
0.105
0.21
0.7
0.575
0.105
-0.33
-0.66
-0.115
-0.11
0.11
0.14
0.28
0.835
0.62
0.195
-0.325
-0.675
-0.105
-0.015
0.19
0.33
0.34
0.88
0.68
0.17
-0.365
-0.51
0.065
0.04
0.36
0.44
0.435
0.98
0.795
0.245
-0.295
-0.315
0.105
0.105
0.495
0.51
0.505
1.05
0.745
0.24
-0.25
-0.185
0.22
0.1
0.39
0.475
0.515
0.975
0.705
0.13
-0.395
-0.24
0.1
0.09
0.325
0.3
0.44
0.865
0.445
-0.105
-0.62
-0.385
-0.105
-0.055
0.205
0.22
0.49
0.675
0.25
-0.25
-0.765
-0.46
-0.23
-0.155
0.085
0.13
0.41
0.63
0.16
-0.315
-0.77
-0.425
-0.2
-0.165
0.025
0.095
0.46
0.55
0.15
-0.36
-0.835
-0.5
-0.28
-0.135
-0.005
0.05
0.465
0.51
0.08
-0.4
-0.815
-0.38
-0.24
-0.15
0.005
0.09
0.505
0.48
0.065
-0.365
-0.78
-0.395
-0.255
-0.12
0.005
0.005
0.565
0.415
0.04
-0.45
-0.84
-0.365
-0.2
-0.12
0.01
0.07
0.595
0.455
0.08
-0.355
-0.835
-0.415
-0.275
-0.135
0.025
0.05
0.58
0.46
-0.005
-0.43
-0.81
-0.34
-0.23
-0.165
0.0
0.125
0.665
0.44
-0.065
-0.425
-0.805
-0.335
-0.325
-0.1
0.07
0.025
0.635
0.445
-0.085
-0.605
-0.765
-0.31
-0.31
-0.025
0.045
0.09
0.59
0.35
-0.13
-0.685
-0.73
-0.305
-0.295
0.095
0.085
0.09
0.58
0.3
-0.22
-0.755
-0.675
-0.26
-0.285
0.075
0.05
0.13
0.66
0.275
-0.25
-0.81
-0.59
-0.29
-0.205
0.01
0.005
0.15
0.59
0.28
-0.3
-0.745
-0.54
-0.26
-0.205
-0.01
0.04
0.255
0.575
0.205
-0.325
-0.775
-0.48
-0.255
-0.2
0.065
0.05
0.385
0.645
0.175
-0.275
-0.705
-0.38
-0.175
-0.11
0.04
0.085
0.46
0.625
0.2
-0.315
-0.71
-0.39
-0.165
-0.135
-0.05
0.0
0.465
0.47
0.11
-0.41
-0.885
-0.4
-0.21
-0.14
0.025
0.085
0.465
0.505
0.105
-0.355
-0.775
-0.41
-0.265
-0.175
-0.025
0.085
0.51
0.485
0.02
-0.44
-0.855
-0.34
-0.225
-0.13
0.05
0.135
0.605
0.43
-0.015
-0.455
-0.795
-0.34
-0.23
-0.15
-0.035
0.09
0.585
0.375
-0.025
-0.445
-0.83
-0.4
-0.27
-0.115
-0.06
0.03
0.61
0.395
-0.03
-0.435
-0.795
-0.205
-0.1
0.175
0.4
0.54
1.24
1.175
0.745
0.355
0.31
0.9
0.97
1.31
1.355
1.26
1.605
1.07
0.21
-0.6
-0.845
-0.495
-0.495
-0.17
-0.135
-0.08
0.5
0.22
-0.3
-0.82
-0.79
-0.395
-0.36
-0.025
-0.015
0.08
0.615
0.285
-0.295
-0.79
-0.62
-0.275
-0.26
-0.01
0.09
0.2
0.645
0.19
-0.295
-0.74
-0.59
-0.28
-0.2
0.095
0.085
0.325
0.67
0.225
-0.26
-0.69
-0.45
-0.22
-0.14
0.075
0.15
0.375
0.63
0.225
-0.295
-0.705
-0.375
-0.12
-0.045
0.205
0.19
0.53
0.65
0.23
-0.215
-0.675
-0.315
-0.17
-0.01
0.15
0.25
0.67
0.68
0.245
-0.195
-0.59
-0.2
-0.025
0.02
0.22
0.23
0.72
0.685
0.285
-0.12
-0.53
-0.1
0.105
0.16
0.31
0.345
0.84
0.785
0.36
-0.085
-0.44
0.005
0.2
0.265
0.405
0.48
0.99
0.855
0.5
0.025
-0.37
0.125
0.275
0.345
0.44
0.5
1.025
0.9
0.47
0.06
-0.37
0.125
0.215
0.375
0.45
0.53
1.11
0.795
0.285
-0.135
-0.535
0.0
-0.045
0.205
0.33
0.335
0.88
0.635
0.155
-0.46
-0.675
-0.19
-0.175
0.1
0.14
0.155
0.735
0.47
-0.065
-0.605
-0.66
-0.205
-0.27
0.095
0.1
0.125
0.68
0.36
-0.19
-0.625
-0.64
-0.235
-0.255
0.115
0.055
0.12
0.58
0.275
-0.245
-0.77
-0.63
-0.22
-0.225
0.06
0.09
0.175
0.67
0.265
-0.25
-0.74
-0.54
-0.255
-0.255
0.065
0.095
0.255
0.645
0.245
-0.27
-0.78
-0.5
-0.24
-0.15
0.085
0.08
0.35
0.615
0.18
-0.335
-0.76
-0.45
-0.26
-0.185
0.035
0.06
0.4
0.59
0.095
-0.36
-0.81
-0.385
-0.135
-0.13
0.045
0.1
0.475
0.53
0.155
-0.32
-0.79
-0.355
-0.17
-0.135
0.035
0.06
0.495
0.47
0.095
-0.37
-0.81
-0.34
-0.195
-0.145
0.01
0.08
0.585
0.5
0.085
-0.395
-0.81
-0.31
-0.15
-0.12
-0.005
0.055
0.605
0.5
0.045
-0.44
-0.89
-0.37
-0.2
-0.14
-0.015
0.06
0.61
0.45
0.015
-0.355
-0.775
-0.315
-0.21
-0.2
-0.06
0.07
0.595
0.385
0.01
-0.405
-0.81
-0.325
-0.3
-0.08
-0.02
0.075
0.665
0.44
-0.035
-0.495
-0.77
-0.305
-0.305
-0.035
-0.025
0.06
0.56
0.38
-0.19
-0.67
-0.795
-0.425
-0.315
0.035
0.065
0.08
0.59
0.335
-0.18
-0.68
-0.64
-0.275
-0.34
0.025
0.045
0.115
0.635
0.32
-0.265
-0.755
-0.615
-0.22
-0.23
0.045
0.055
0.09
0.605
0.265
-0.235
-0.71
-0.51
-0.185
-0.145
0.13
0.135
0.305
0.64
0.31
-0.245
-0.76
-0.465
-0.27
-0.16
0.12
0.05
0.295
0.65
0.155
-0.305
-0.715
-0.41
-0.24
-0.185
0.07
0.115
0.42
0.61
0.215
-0.32
-0.76
-0.43
-0.205
-0.12
0.055
0.095
0.48
0.545
0.13
-0.305
-0.74
-0.36
-0.14
-0.095
0.085
0.06
0.485
0.52
0.025
-0.4
-0.86
-0.385
-0.19
-0.135
0.01
0.12
0.54
0.495
0.075
-0.365
-0.785
-0.315
-0.18
-0.105
0.03
0.04
0.58
0.505
0.035
-0.4
-0.775
-0.325
-0.175
-0.095
0.005
0.115
0.68
0.665
0.34
0.055
-0.25
0.375
0.685
0.86
1.04
1.25
1.885
1.71
1.315
0.835
0.24
0.53
0.315
0.19
-0.02
-0.03
0.47
0.25
-0.195
-0.65
-0.98
-0.485
-0.41
-0.165
-0.06
-0.045
0.515
0.375
-0.17
-0.71
-0.805
-0.3
-0.305
0.05
0.005
0.015
0.595
0.36
-0.14
-0.66
-0.655
-0.265
-0.23
0.105
0.025
0.075
0.655
0.315
-0.17
-0.71
-0.61
-0.22
-0.205
0.13
0.13
0.17
0.68
0.345
-0.18
-0.64
-0.495
-0.225
-0.15
0.15
0.17
0.3
0.735
0.32
-0.165
-0.645
-0.4
-0.165
-0.035
0.195
0.22
0.455
0.74
0.305
-0.165
-0.645
-0.32
-0.07
-0.025
0.235
0.25
0.58
0.765
0.325
-0.145
-0.615
-0.235
-0.005
0.08
0.23
0.32
0.735
0.875
0.395
-0.125
-0.505
-0.1
0.105
0.175
0.305
0.375
0.845
0.875
0.485
0.025
-0.4
0.035
0.24
0.335
0.445
0.47
0.96
0.91
0.505
0.07
-0.36
0.085
0.25
0.365
0.475
0.55
1.015
0.885
0.435
-0.045
-0.455
0.035
0.195
0.29
0.39
0.435
0.935
0.77
0.32
-0.185
-0.575
-0.145
0.025
0.055
0.13
0.22
0.78
0.63
0.14
-0.29
-0.715
-0.255
-0.21
-0.025
0.08
0.11
0.7
0.495
0.01
-0.38
-0.735
-0.24
-0.205
-0.065
0.03
0.125
0.655
0.505
-0.09
-0.635
-0.74
-0.315
-0.325
-0.015
0.03
0.075
0.62
0.42
-0.135
-0.625
-0.665
-0.25
-0.305
0.065
0.065
0.085
0.605
0.335
-0.24
-0.75
-0.595
-0.23
-0.26
0.09
0.085
0.175
0.66
0.285
-0.23
-0.72
-0.605
-0.255
-0.265
0.045
0.095
0.225
0.575
0.225
-0.275
-0.735
-0.495
-0.215
-0.17
0.01
0.06
0.32
0.56
0.155
-0.345
-0.765
-0.49
-0.22
-0.16
0.065
0.055
0.365
0.605
0.175
-0.295
-0.735
-0.505
-0.235
-0.18
0.065
0.095
0.44
0.545
0.215
-0.35
-0.84
-0.465
-0.255
-0.15
-0.025
0.04
0.485
0.5
0.095
-0.395
-0.805
-0.38
-0.185
-0.12
0.015
0.03
0.475
0.445
0.04
-0.41
-0.85
-0.32
-0.125
-0.04
0.045
0.005
0.52
0.46
0.0
-0.43
-0.87
-0.345
-0.255
-0.125
-0.04
0.025
0.565
0.44
0.01
-0.435
-0.84
-0.365
-0.195
-0.13
-0.055
0.01
0.55
0.41
-0.01
-0.455
-0.885
-0.35
-0.28
-0.105
0.02
0.005
0.61
0.355
-0.085
-0.475
-0.86
-0.335
-0.315
-0.1
0.045
0.06
0.615
0.385
-0.155
-0.715
-0.78
-0.315
-0.34
-0.04
0.03
0.02
0.57
0.275
-0.2
-0.715
-0.78
-0.41
-0.32
0.045
-0.01
0.07
0.555
0.26
-0.25
-0.78
-0.72
-0.285
-0.305
0.025
-0.015
0.065
0.62
0.255
-0.275
-0.82
-0.66
-0.35
-0.39
-0.06
0.025
0.14
0.565
0.16
-0.345
-0.785
-0.55
-0.29
-0.27
-0.025
0.07
0.215
0.61
0.16
-0.31
-0.78
-0.48
-0.315
-0.27
-0.02
0.0
0.325
0.52
0.085
-0.385
-0.835
-0.47
-0.325
-0.265
-0.085
-0.025
0.29
0.515
0.065
-0.38
-0.895
-0.505
-0.27
-0.245
-0.065
0.03
0.425
0.4
-0.025
-0.485
-0.87
-0.51
-0.29
-0.185
-0.02
0.005
0.44
0.385
-0.015
-0.475
-0.895
-0.445
-0.305
-0.23
-0.075
-0.015
0.42
0.375
-0.03
-0.525
-0.915
-0.47
-0.285
-0.23
-0.07
0.01
0.345
0.305
-0.025
-0.515
-0.915
-0.43
-0.305
-0.195
-0.11
-0.03
0.52
0.395
0.035
-0.3
-0.51
0.045
0.31
0.535
0.76
0.935
1.6
1.505
1.135
0.8
0.445
0.88
0.705
0.64
0.445
0.205
0.48
0.14
-0.41
-0.96
-1.085
-0.575
-0.58
-0.29
-0.205
-0.15
0.39
0.16
-0.35
-0.845
-0.935
-0.425
-0.4
-0.155
-0.085
0.01
0.56
0.2
-0.31
-0.875
-0.815
-0.43
-0.4
-0.045
0.025
0.095
0.6
0.21
-0.36
-0.805
-0.64
-0.29
-0.2
0.01
0.03
0.11
0.55
0.18
-0.295
-0.785
-0.56
-0.3
-0.235
-0.015
0.065
0.28
0.6
0.135
-0.31
-0.77
-0.52
-0.26
-0.165
0.055
0.125
0.355
0.605
0.17
-0.335
-0.745
-0.37
-0.165
-0.13
0.065
0.145
0.51
0.59
0.17
-0.27
-0.68
-0.305
-0.19
-0.045
0.15
0.245
0.66
0.705
0.315
-0.16
-0.615
-0.2
0.055
0.095
0.26
0.31
0.755
0.76
0.4
-0.09
-0.47
-0.05
0.085
0.155
0.28
0.41
0.88
0.815
0.365
-0.085
-0.435
0.005
0.165
0.24
0.355
0.44
0.94
0.78
0.34
-0.095
-0.445
0.045
0.19
0.22
0.315
0.39
0.89
0.69
0.24
-0.155
-0.605
-0.14
-0.02
0.07
0.14
0.22
0.705
0.54
0.085
-0.38
-0.76
-0.28
-0.22
-0.005
0.085
0.09
0.595
0.395
-0.13
-0.715
-0.81
-0.3
-0.275
-0.07
0.045
0.05
0.585
0.335
-0.21
-0.775
-0.805
-0.355
-0.33
-0.02
0.01
0.025
0.585
0.315
-0.27
-0.775
-0.665
-0.29
-0.31
0.075
-0.02
-0.005
0.56
0.255
-0.285
-0.76
-0.625
-0.23
-0.26
0.01
0.015
0.1
0.555
0.14
-0.315
-0.805
-0.595
-0.325
-0.245
-0.025
0.04
0.275
0.59
0.11
-0.365
-0.83
-0.485
-0.245
-0.195
-0.005
-0.025
0.295
0.54
0.07
-0.355
-0.725
-0.485
-0.295
-0.175
0.02
0.065
0.435
0.515
0.13
-0.385
-0.785
-0.425
-0.265
-0.235
0.015
0.07
0.455
0.51
0.08
-0.42
-0.83
-0.36
-0.185
-0.15
0.025
0.025
0.375
0.42
-0.005
-0.42
-0.85
-0.4
-0.31
-0.18
-0.03
0.05
0.505
0.435
-0.01
-0.405
-0.885
-0.4
-0.215
-0.14
-0.01
0.075
0.555
0.375
-0.06
-0.47
-0.8
-0.37
-0.21
-0.105
0.015
0.055
0.62
0.395
-0.05
-0.4
-0.835
-0.365
-0.22
-0.13
-0.08
-0.01
0.585
0.445
-0.06
-0.47
-0.805
-0.32
-0.23
-0.13
-0.05
0.035
0.55
0.345
-0.13
-0.665
-0.8
-0.29
-0.34
-0.07
0.035
0.075
0.635
0.39
-0.23
-0.73
-0.775
-0.305
-0.35
0.03
0.025
0.06
0.645
0.31
-0.235
-0.74
-0.715
-0.325
-0.295
0.085
0.07
0.11
0.615
0.23
-0.26
-0.75
-0.585
-0.32
-0.315
-0.03
0.015
0.11
0.59
0.22
-0.22
-0.755
-0.545
-0.31
-0.25
0.015
0.085
0.305
0.615
0.17
-0.355
-0.765
-0.5
-0.29
-0.195
0.0
0.055
0.345
0.615
0.16
-0.295
-0.8
-0.465
-0.25
-0.19
0.065
0.07
0.395
0.545
0.11
-0.36
-0.765
-0.375
-0.165
-0.125
0.045
0.095
0.505
0.6
0.16
-0.27
-0.72
-0.32
-0.2
-0.135
0.045
0.07
0.495
0.51
0.11
-0.34
-0.79
-0.28
-0.19
-0.115
0.06
0.045
0.48
0.435
0.08
-0.37
-0.765
-0.345
-0.16
-0.09
0.015
0.08
0.555
0.445
0.005
-0.435
-0.87
-0.34
-0.14
-0.095
-0.02
0.095
0.615
0.435
0.055
-0.375
-0.855
-0.39
-0.255
-0.035
0.06
0.1
0.58
0.445
0.055
-0.42
-0.84
-0.305
-0.25
-0.07
0.005
0.025
0.665
0.41
-0.045
-0.52
-0.73
-0.21
-0.335
-0.075
0.005
0.065
0.655
0.515
0.045
-0.34
-0.28
0.325
0.45
0.895
1.045
1.21
1.91
1.63
1.155
0.66
0.545
0.765
0.53
0.57
0.295
0.07
0.46
0.14
-0.345
-0.87
-0.73
-0.445
-0.41
-0.055
-0.025
0.01
0.48
0.175
-0.305
-0.795
-0.53
-0.285
-0.25
0.005
0.015
0.255
0.6
0.255
-0.2
-0.745
-0.555
-0.205
-0.14
0.045
0.09
0.35
0.655
0.23
-0.25
-0.72
-0.395
-0.18
-0.065
0.16
0.175
0.45
0.61
0.225
-0.275
-0.71
-0.335
-0.15
-0.075
0.13
0.14
0.53
0.575
0.175
-0.25
-0.645
-0.23
-0.08
-0.035
0.19
0.215
0.61
0.63
0.21
-0.265
-0.665
-0.24
-0.06
0.105
0.235
0.17
0.685
0.645
0.25
-0.23
-0.56
-0.1
-0.02
0.12
0.24
0.335
0.83
0.72
0.28
-0.095
-0.495
0.005
0.14
0.27
0.31
0.39
0.935
0.81
0.37
-0.005
-0.415
0.11
0.18
0.295
0.53
0.495
1.03
0.84
0.435
0.08
-0.3
0.215
0.235
0.365
0.475
0.495
1.05
0.805
0.38
-0.135
-0.325
0.165
0.18
0.445
0.48
0.37
0.975
0.69
0.15
-0.27
-0.43
0.025
-0.035
0.31
0.285
0.26
0.77
0.5
-0.03
-0.55
-0.515
-0.125
-0.125
0.2
0.17
0.21
0.675
0.355
-0.12
-0.65
-0.56
-0.22
-0.14
0.15
0.225
0.215
0.62
0.19
-0.215
-0.64
-0.495
-0.2
-0.17
0.105
0.115
0.275
0.665
0.27
-0.21
-0.675
-0.415
-0.16
-0.105
0.13
0.18
0.445
0.73
0.23
-0.225
-0.735
-0.395
-0.175
-0.1
0.07
0.18
0.48
0.57
0.185
-0.27
-0.68
-0.31
-0.185
-0.045
0.115
0.185
0.605
0.665
0.205
-0.255
-0.68
-0.355
-0.115
-0.1
0.085
0.165
0.615
0.605
0.195
-0.28
-0.695
-0.235
-0.09
0.0
0.11
0.17
0.615
0.505
0.075
-0.225
-0.645
-0.2
-0.07
-0.01
0.125
0.185
0.7
0.53
0.09
-0.3
-0.66
-0.23
-0.065
0.045
0.1
0.22
0.7
0.555
0.115
-0.315
-0.695
-0.205
-0.05
0.03
0.19
0.255
0.735
0.505
0.06
-0.28
-0.65
-0.13
-0.11
0.02
0.13
0.19
0.705
0.52
0.045
-0.445
-0.77
-0.135
-0.13
0.095
0.165
0.18
0.75
0.495
-0.035
-0.53
-0.65
-0.125
-0.125
0.115
0.215
0.23
0.795
0.485
-0.08
-0.605
-0.56
-0.145
-0.15
0.225
0.255
0.19
0.755
0.4
-0.09
-0.605
-0.51
-0.165
-0.135
0.165
0.215
0.33
0.745
0.425
-0.125
-0.66
-0.445
-0.14
-0.075
0.25
0.23
0.385
0.725
0.34
-0.16
-0.62
-0.335
-0.075
-0.025
0.21
0.23
0.465
0.73
0.29
-0.14
-0.625
-0.285
-0.07
-0.055
0.195
0.245
0.57
0.71
0.29
-0.275
-0.7
-0.365
-0.125
-0.035
0.215
0.245
0.615
0.695
0.29
-0.18
-0.645
-0.26
-0.08
-0.01
0.215
0.255
0.605
0.67
0.27
-0.245
-0.685
-0.22
-0.02
0.08
0.19
0.285
0.765
0.69
0.29
-0.17
-0.62
-0.155
-0.02
0.04
0.175
0.28
0.75
0.66
0.195
-0.26
-0.68
-0.15
-0.065
0.075
0.235
0.28
0.785
0.505
0.14
-0.255
-0.68
-0.23
-0.055
0.06
0.175
0.185
0.745
0.585
0.14
-0.27
-0.61
-0.095
-0.045
0.085
0.175
0.23
0.78
0.595
0.09
-0.395
-0.685
-0.145
-0.13
0.09
0.24
0.225
0.735
0.52
0.075
-0.46
-0.62
-0.195
-0.18
0.145
0.25
0.195
0.73
0.505
0.03
-0.495
-0.54
-0.14
-0.155
0.22
0.275
0.23
0.755
0.475
0.085
-0.33
-0.095
0.35
0.51
0.915
1.04
1.275
1.895
1.595
1.16
0.725
0.94
1.12
0.97
1.02
0.76
0.645
0.775
0.24
-0.295
-0.86
-0.515
-0.225
-0.215
0.0
0.05
0.31
0.665
0.195
-0.265
-0.68
-0.365
-0.1
-0.055
0.155
0.2
0.53
0.745
0.3
-0.205
-0.68
-0.235
-0.025
0.055
0.255
0.28
0.65
0.77
0.26
-0.17
-0.585
-0.205
0.045
0.08
0.215
0.23
0.71
0.75
0.32
-0.11
-0.575
-0.105
0.105
0.17
0.285
0.35
0.785
0.715
0.3
-0.11
-0.555
-0.13
0.03
0.15
0.295
0.36
0.875
0.765
0.36
-0.075
-0.58
-0.04
0.155
0.245
0.32
0.43
0.95
0.845
0.325
0.015
-0.43
0.035
0.16
0.295
0.405
0.5
1.0
0.86
0.425
0.06
-0.355
0.165
0.29
0.38
0.495
0.615
1.15
0.955
0.545
0.0
-0.27
0.28
0.25
0.56
0.635
0.705
1.265
0.965
0.55
-0.045
-0.095
0.32
0.305
0.63
0.715
0.7
1.265
1.005
0.425
-0.09
-0.05
0.36
0.35
0.59
0.635
0.625
1.13
0.785
0.275
-0.22
-0.13
0.185
0.16
0.47
0.44
0.495
0.98
0.59
0.08
-0.385
-0.245
0.06
0.06
0.345
0.355
0.49
0.845
0.415
-0.07
-0.54
-0.25
-0.02
-0.01
0.265
0.21
0.46
0.785
0.405
-0.125
-0.56
-0.205
-0.04
-0.055
0.135
0.22
0.56
0.765
0.33
-0.115
-0.52
-0.27
-0.16
-0.055
0.19
0.22
0.63
0.665
0.255
-0.215
-0.62
-0.2
-0.085
0.0
0.17
0.28
0.645
0.645
0.26
-0.195
-0.67
-0.24
-0.06
0.08
0.17
0.305
0.725
0.65
0.235
-0.245
-0.645
-0.225
-0.025
0.055
0.195
0.305
0.8
0.62
0.2
-0.275
-0.655
-0.15
-0.01
0.08
0.095
0.08
0.705
0.645
0.135
-0.305
-0.705
-0.13
0.035
0.095
0.2
0.23
0.795
0.61
0.145
-0.255
-0.695
-0.175
-0.11
0.07
0.2
0.265
0.82
0.645
0.155
-0.45
-0.71
-0.155
-0.19
0.08
0.15
0.2
0.77
0.505
0.075
-0.48
-0.585
-0.19
-0.115
0.185
0.25
0.265
0.775
0.48
-0.07
-0.575
-0.54
-0.19
-0.165
0.25
0.23
0.185
0.77
0.47
-0.105
-0.595
-0.455
-0.155
-0.18
0.17
0.2
0.31
0.84
0.42
-0.13
-0.64
-0.415
-0.145
-0.14
0.17
0.155
0.26
0.69
0.31
-0.135
-0.625
-0.36
-0.12
-0.08
0.19
0.25
0.455
0.765
0.3
-0.24
-0.695
-0.325
-0.075
-0.05
0.15
0.19
0.54
0.75
0.345
-0.235
-0.64
-0.325
-0.085
-0.005
0.125
0.145
0.585
0.65
0.225
-0.26
-0.61
-0.255
-0.075
0.0
0.18
0.22
0.645
0.64
0.255
-0.225
-0.705
-0.215
-0.05
-0.005
0.135
0.23
0.69
0.645
0.185
-0.255
-0.635
-0.21
-0.085
0.035
0.185
0.265
0.655
0.615
0.19
-0.255
-0.645
-0.195
-0.05
0.02
0.16
0.215
0.795
0.61
0.195
-0.165
-0.61
-0.09
0.055
0.085
0.21
0.225
0.79
0.62
0.21
-0.215
-0.65
-0.175
-0.12
0.04
0.225
0.27
0.835
0.65
0.155
-0.395
-0.68
-0.125
-0.145
0.065
0.175
0.24
0.765
0.535
0.03
-0.5
-0.65
-0.14
-0.155
0.165
0.2
0.195
0.765
0.465
-0.045
-0.59
-0.59
-0.16
-0.15
0.23
0.205
0.165
0.7
0.395
-0.13
-0.635
-0.525
-0.165
-0.135
0.155
0.18
0.255
0.725
0.375
-0.14
-0.625
-0.505
-0.18
-0.145
0.16
0.17
0.345
0.705
0.28
-0.215
-0.6
-0.3
0.08
0.235
0.565
0.7
1.045
1.54
1.165
0.805
0.445
0.87
1.125
1.265
1.405
1.265
1.3
1.225
0.49
-0.225
-0.865
-0.52
-0.28
-0.265
-0.08
-0.025
0.375
0.51
0.08
-0.395
-0.875
-0.455
-0.18
-0.14
-0.035
0.06
0.525
0.54
0.22
-0.26
-0.65
-0.23
-0.2
-0.075
0.085
0.14
0.6
0.565
0.15
-0.28
-0.69
-0.2
-0.045
0.035
0.185
0.205
0.65
0.62
0.135
-0.265
-0.655
-0.21
-0.055
-0.005
0.135
0.215
0.755
0.615
0.165
-0.27
-0.63
-0.145
-0.05
0.1
0.25
0.265
0.78
0.665
0.23
-0.2
-0.645
-0.15
-0.075
0.16
0.215
0.325
0.88
0.655
0.19
-0.26
-0.515
-0.02
0.015
0.23
0.28
0.35
0.88
0.715
0.19
-0.245
-0.365
0.015
0.1
0.42
0.47
0.44
1.03
0.765
0.245
-0.275
-0.265
0.235
0.215
0.525
0.555
0.625
1.17
0.87
0.3
-0.23
-0.09
0.33
0.275
0.63
0.625
0.705
1.165
0.855
0.325
-0.21
-0.045
0.315
0.29
0.56
0.61
0.79
1.25
0.735
0.175
-0.25
-0.03
0.235
0.255
0.46
0.475
0.775
1.0
0.575
0.04
-0.43
-0.19
0.04
0.165
0.35
0.385
0.635
0.84
0.41
-0.12
-0.6
-0.25
-0.06
0.04
0.245
0.245
0.585
0.67
0.205
-0.21
-0.655
-0.195
-0.045
0.025
0.185
0.22
0.67
0.73
0.25
-0.195
-0.705
-0.24
-0.06
0.025
0.17
0.225
0.64
0.63
0.21
-0.245
-0.625
-0.165
-0.025
0.045
0.155
0.275
0.695
0.66
0.185
-0.285
-0.635
-0.18
-0.085
0.07
0.175
0.24
0.675
0.595
0.16
-0.26
-0.635
-0.165
-0.075
0.06
0.2
0.225
0.795
0.635
0.115
-0.28
-0.645
-0.19
-0.14
0.075
0.175
0.23
0.77
0.605
0.135
-0.32
-0.625
-0.125
-0.13
0.145
0.215
0.26
0.72
0.535
0.08
-0.495
-0.6
-0.07
-0.11
0.18
0.14
0.19
0.735
0.485
-0.015
-0.54
-0.515
-0.095
-0.05
0.215
0.23
0.215
0.77
0.43
-0.1
-0.59
-0.51
-0.08
-0.045
0.15
0.2
0.24
0.755
0.4
-0.11
-0.595
-0.45
-0.12
-0.04
0.22
0.195
0.325
0.76
0.36
-0.165
-0.65
-0.365
-0.095
-0.06
0.185
0.255
0.46
0.77
0.35
-0.175
-0.685
-0.36
-0.13
-0.025
0.18
0.285
0.55
0.73
0.27
-0.155
-0.65
-0.3
-0.095
-0.035
0.18
0.215
0.58
0.665
0.335
-0.145
-0.69
-0.28
-0.05
0.03
0.17
0.23
0.615
0.65
0.235
-0.25
-0.66
-0.22
-0.11
-0.005
0.15
0.2
0.665
0.63
0.205
-0.22
-0.655
-0.225
-0.065
-0.02
0.135
0.165
0.61
0.525
0.15
-0.26
-0.695
-0.25
-0.09
0.07
0.115
0.13
0.735
0.565
0.095
-0.345
-0.73
-0.22
-0.105
0.05
0.14
0.155
0.675
0.525
0.075
-0.3
-0.675
-0.2
-0.065
0.045
0.145
0.2
0.74
0.53
0.06
-0.44
-0.685
-0.215
-0.155
0.045
0.11
0.145
0.65
0.465
-0.03
-0.555
-0.68
-0.21
-0.17
0.07
0.13
0.075
0.685
0.435
-0.11
-0.61
-0.66
-0.22
-0.2
0.12
0.155
0.165
0.715
0.45
-0.18
-0.78
-0.59
-0.145
-0.12
0.13
0.115
0.14
0.715
0.365
-0.185
-0.72
-0.535
-0.21
-0.21
0.085
0.125
0.24
0.64
0.29
-0.165
-0.655
-0.52
-0.25
-0.195
0.07
0.14
0.335
0.765
0.3
-0.115
-0.505
-0.105
0.34
0.605
0.95
0.95
1.355
1.74
1.34
0.965
0.515
0.84
0.915
0.795
0.73
0.465
0.51
0.475
0.035
-0.41
-0.87
-0.5
-0.33
-0.235
-0.115
-0.02
0.425
0.42
0.06
-0.405
-0.89
-0.415
-0.225
-0.11
0.045
0.11
0.595
0.485
0.1
-0.305
-0.705
-0.27
-0.175
-0.07
0.075
0.165
0.63
0.52
0.11
-0.275
-0.705
-0.2
-0.04
0.06
0.085
0.11
0.61
0.54
0.11
-0.28
-0.71
-0.19
-0.09
0.015
0.125
0.15
0.725
0.57
0.17
-0.29
-0.69
-0.12
-0.05
0.095
0.175
0.23
0.76
0.58
0.17
-0.31
-0.665
-0.11
-0.12
0.165
0.255
0.285
0.875
0.705
0.19
-0.35
-0.555
-0.08
-0.04
0.255
0.35
0.385
0.96
0.67
0.12
-0.335
-0.42
0.075
0.05
0.36
0.405
0.45
0.975
0.755
0.235
-0.265
-0.195
0.185
0.225
0.57
0.53
0.575
1.12
0.82
0.23
-0.275
-0.105
0.21
0.325
0.57
0.575
0.685
1.11
0.725
0.22
-0.27
-0.045
0.25
0.345
0.505
0.56
0.695
0.94
0.54
0.06
-0.41
-0.135
0.07
0.15
0.37
0.4
0.605
0.83
0.445
-0.03
-0.555
-0.27
-0.075
-0.005
0.185
0.255
0.59
0.71
0.265
-0.235
-0.635
-0.255
-0.135
-0.085
0.09
0.13
0.54
0.58
0.155
-0.275
-0.685
-0.29
-0.13
-0.045
0.155
0.22
0.585
0.615
0.135
-0.3
-0.73
-0.35
-0.105
-0.05
0.04
0.11
0.56
0.52
0.14
-0.355
-0.725
-0.27
-0.13
-0.025
0.115
0.115
0.64
0.565
0.13
-0.325
-0.715
-0.25
-0.1
0.03
0.13
0.11
0.705
0.52
0.01
-0.32
-0.715
-0.31
-0.16
0.1
0.085
0.17
0.745
0.535
0.075
-0.355
-0.73
-0.22
-0.14
0.025
0.16
0.085
0.7
0.54
0.02
-0.465
-0.63
-0.195
-0.2
0.11
0.125
0.135
0.725
0.445
-0.105
-0.59
-0.56
-0.16
-0.175
0.07
0.16
0.19
0.745
0.45
-0.105
-0.67
-0.565
-0.13
-0.14
0.17
0.135
0.19
0.72
0.345
-0.18
-0.635
-0.455
-0.135
-0.15
0.13
0.165
0.295
0.735
0.375
-0.23
-0.73
-0.475
-0.21
-0.11
0.145
0.17
0.37
0.685
0.29
-0.225
-0.74
-0.35
-0.125
-0.11
0.145
0.2
0.43
0.685
0.275
-0.28
-0.715
-0.36
-0.19
-0.065
0.12
0.21
0.475
0.58
0.145
-0.295
-0.695
-0.31
-0.13
-0.035
0.135
0.165
0.545
0.61
0.195
-0.255
-0.635
-0.295
-0.2
-0.07
0.11
0.14
0.595
0.58
0.105
-0.29
-0.68
-0.26
-0.07
0.025
0.17
0.23
0.67
0.62
0.18
-0.25
-0.68
-0.215
-0.065
0.005
0.04
0.19
0.63
0.55
0.09
-0.335
-0.74
-0.305
-0.05
0.025
0.15
0.15
0.63
0.46
0.06
-0.355
-0.725
-0.31
-0.175
-0.01
0.135
0.16
0.675
0.495
0.01
-0.405
-0.735
-0.24
-0.2
0.01
0.115
0.085
0.655
0.51
0.04
-0.64
-0.795
-0.22
-0.205
0.105
0.03
0.155
0.695
0.425
-0.055
-0.585
-0.715
-0.255
-0.26
0.13
0.115
0.115
0.67
0.385
-0.14
-0.62
-0.585
-0.195
-0.11
0.335
0.445
0.585
1.245
0.995
0.66
0.305
0.48
0.905
1.03
1.31
1.325
1.395
1.69
1.105
0.255
-0.495
-0.475
-0.315
-0.31
-0.025
0.02
0.145
0.465
0.095
-0.415
-0.9
-0.515
-0.345
-0.32
-0.04
0.03
0.315
0.615
0.215
-0.3
-0.75
-0.37
-0.14
-0.11
0.095
0.135
0.535
0.65
0.19
-0.27
-0.725
-0.335
-0.215
-0.155
0.095
0.13
0.56
0.645
0.225
-0.24
-0.695
-0.29
-0.13
-0.055
0.16
0.16
0.6
0.56
0.18
-0.235
-0.655
-0.205
-0.075
0.065
0.19
0.245
0.64
0.63
0.205
-0.26
-0.66
-0.225
-0.045
0.03
0.24
0.28
0.765
0.61
0.2
-0.23
-0.63
-0.15
0.04
0.155
0.21
0.25
0.815
0.685
0.275
-0.16
-0.55
-0.06
0.055
0.23
0.345
0.355
0.955
0.78
0.345
-0.055
-0.425
0.135
0.1
0.26
0.385
0.49
1.02
0.845
0.32
-0.15
-0.325
0.14
0.125
0.4
0.53
0.495
1.1
0.81
0.305
-0.235
-0.31
0.16
0.17
0.51
0.55
0.48
1.005
0.68
0.175
-0.33
-0.3
0.05
0.02
0.375
0.375
0.405
0.87
0.54
-0.005
-0.54
-0.41
-0.09
-0.085
0.21
0.215
0.29
0.73
0.325
-0.215
-0.67
-0.465
-0.16
-0.185
0.065
0.06
0.285
0.715
0.265
-0.22
-0.71
-0.46
-0.2
-0.145
0.11
0.105
0.4
0.665
0.225
-0.295
-0.76
-0.445
-0.19
-0.125
0.075
0.05
0.41
0.605
0.18
-0.29
-0.73
-0.395
-0.245
-0.13
0.07
0.075
0.525
0.515
0.185
-0.375
-0.81
-0.365
-0.155
-0.09
0.05
0.06
0.445
0.515
0.12
-0.345
-0.77
-0.38
-0.19
-0.075
0.09
0.1
0.51
0.47
0.04
-0.39
-0.755
-0.28
-0.17
-0.02
0.105
0.13
0.57
0.455
0.07
-0.37
-0.785
-0.31
-0.15
-0.035
0.035
0.115
0.645
0.47
-0.005
-0.375
-0.73
-0.245
-0.155
-0.11
0.025
0.105
0.615
0.445
0.005
-0.385
-0.795
-0.215
-0.21
-0.01
0.13
0.095
0.555
0.43
-0.045
-0.575
-0.8
-0.27
-0.205
0.02
0.065
0.09
0.665
0.36
-0.145
-0.65
-0.785
-0.21
-0.27
0.07
0.115
0.145
0.67
0.36
-0.105
-0.63
-0.69
-0.215
-0.19
0.105
0.07
0.08
0.675
0.375
-0.22
-0.68
-0.59
-0.25
-0.255
0.07
0.05
0.225
0.755
0.325
-0.21
-0.71
-0.53
-0.215
-0.135
0.115
0.1
0.225
0.68
0.265
-0.22
-0.695
-0.425
-0.275
-0.155
0.065
0.11
0.33
0.63
0.255
-0.225
-0.79
-0.46
-0.21
-0.11
0.095
0.015
0.385
0.56
0.19
-0.3
-0.76
-0.37
-0.205
-0.115
0.065
0.06
0.475
0.545
0.105
-0.375
-0.82
-0.39
-0.22
-0.17
-0.03
0.12
0.555
0.535
0.1
-0.41
-0.815
-0.38
-0.2
-0.13
0.04
0.075
0.485
0.46
0.065
-0.39
-0.815
-0.325
-0.195
-0.125
0.065
0.095
0.565
0.46
0.045
-0.34
-0.685
-0.115
0.14
0.365
0.62
0.725
1.295
1.335
0.995
0.715
0.395
0.865
0.99
1.025
0.98
0.84
1.095
0.64
0.025
-0.57
-1.015
-0.46
-0.41
-0.23
-0.17
-0.105
0.49
0.265
-0.215
-0.73
-0.925
-0.41
-0.44
-0.13
-0.015
0.015
0.62
0.43
-0.095
-0.65
-0.785
-0.3
-0.3
0.015
0.08
0.105
0.635
0.385
-0.135
-0.615
-0.645
-0.25
-0.265
0.1
0.115
0.185
0.66
0.315
-0.17
-0.62
-0.56
-0.225
-0.18
0.16
0.19
0.25
0.735
0.35
-0.135
-0.65
-0.57
-0.195
-0.18
0.14
0.185
0.325
0.665
0.325
-0.11
-0.575
-0.395
-0.16
-0.085
0.11
0.25
0.41
0.73
0.345
-0.155
-0.635
-0.33
-0.06
0.075
0.265
0.28
0.635
0.8
0.35
-0.1
-0.49
-0.16
0.065
0.08
0.31
0.34
0.77
0.9
0.49
0.06
-0.425
-0.04
0.205
0.24
0.425
0.535
0.95
0.9
0.455
0.025
-0.395
0.05
0.25
0.29
0.445
0.475
0.95
0.88
0.435
0.045
-0.435
0.045
0.27
0.34
0.415
0.41
0.945
0.79
0.355
-0.11
-0.58
-0.085
0.08
0.115
0.24
0.27
0.73
0.67
0.14
-0.325
-0.745
-0.23
-0.075
-0.015
0.105
0.16
0.7
0.47
0.04
-0.375
-0.73
-0.29
-0.25
-0.085
0.03
0.125
0.645
0.45
-0.05
-0.58
-0.805
-0.255
-0.23
-0.09
0.035
0.04
0.61
0.395
-0.15
-0.655
-0.76
-0.295
-0.3
0.0
0.08
0.09
0.635
0.395
-0.145
-0.7
-0.705
-0.26
-0.27
0.025
-0.02
0.035
0.64
0.375
-0.17
-0.67
-0.57
-0.285
-0.275
0.0
0.015
0.14
0.68
0.295
-0.255
-0.755
-0.585
-0.235
-0.24
0.07
0.08
0.2
0.62
0.225
-0.335
-0.79
-0.46
-0.225
-0.16
0.1
0.1
0.31
0.635
0.14
-0.31
-0.78
-0.455
-0.225
-0.12
0.145
0.17
0.44
0.46
0.065
-0.36
-0.785
-0.335
-0.225
-0.17
0.08
0.05
0.47
0.58
0.145
-0.33
-0.845
-0.435
-0.28
-0.16
0.025
0.055
0.495
0.505
0.065
-0.395
-0.77
-0.275
-0.225
-0.12
0.015
0.1
0.495
0.48
0.065
-0.465
-0.805
-0.36
-0.22
-0.19
0.06
0.135
0.545
0.45
0.03
-0.44
-0.805
-0.34
-0.18
-0.045
0.03
0.105
0.585
0.475
-0.015
-0.51
-0.79
-0.275
-0.145
-0.1
0.07
0.18
0.655
0.435
0.04
-0.35
-0.75
-0.33
-0.265
-0.085
0.035
0.08
0.65
0.485
-0.05
-0.52
-0.83
-0.37
-0.35
-0.025
0.01
0.06
0.595
0.27
-0.17
-0.67
-0.765
-0.35
-0.32
-0.01
0.03
0.03
0.66
0.365
-0.185
-0.695
-0.695
-0.23
-0.31
0.01
0.04
0.09
0.685
0.33
-0.16
-0.73
-0.575
-0.245
-0.2
0.13
0.095
0.14
0.65
0.315
-0.2
-0.7
-0.56
-0.22
-0.165
0.06
0.11
0.255
0.615
0.27
-0.25
-0.735
-0.485
-0.215
-0.135
0.17
0.29
0.66
1.065
0.77
0.34
0.015
0.515
0.88
1.015
1.19
1.45
1.8
1.9
1.335
0.65
-0.1
-0.075
-0.11
-0.215
-0.115
-0.06
0.335
0.45
0.005
-0.47
-0.915
-0.485
-0.34
-0.25
-0.075
-0.03
0.465
0.48
0.075
-0.355
-0.785
-0.37
-0.19
-0.11
0.03
0.095
0.545
0.485
0.08
-0.345
-0.795
-0.275
-0.09
-0.025
0.08
0.09
0.56
0.465
0.115
-0.305
-0.655
-0.23
-0.16
-0.03
0.025
0.13
0.69
0.52
0.12
-0.3
-0.73
-0.215
-0.11
0.005
0.135
0.165
0.725
0.545
0.165
-0.28
-0.72
-0.16
-0.08
0.09
0.145
0.185
0.775
0.585
0.11
-0.31
-0.6
-0.095
-0.1
0.18
0.295
0.275
0.88
0.65
0.195
-0.42
-0.535
-0.05
-0.01
0.355
0.395
0.355
0.86
0.69
0.15
-0.34
-0.325
0.095
0.1
0.425
0.5
0.49
1.045
0.77
0.245
-0.255
-0.17
0.18
0.21
0.515
0.51
0.585
1.075
0.755
0.26
-0.265
-0.065
0.195
0.25
0.52
0.51
0.665
1.065
0.63
0.125
-0.455
-0.24
0.09
0.105
0.4
0.405
0.605
0.825
0.415
-0.145
-0.595
-0.265
-0.01
0.045
0.17
0.13
0.5
0.72
0.265
-0.18
-0.72
-0.35
-0.155
-0.105
0.105
0.14
0.51
0.56
0.185
-0.265
-0.765
-0.415
-0.215
-0.15
-0.035
0.035
0.525
0.595
0.16
-0.27
-0.71
-0.375
-0.27
-0.17
0.06
0.115
0.525
0.56
0.055
-0.4
-0.795
-0.34
-0.2
-0.11
0.075
0.12
0.58
0.45
0.085
-0.31
-0.82
-0.33
-0.175
-0.145
0.075
0.095
0.655
0.48
-0.005
-0.425
-0.82
-0.365
-0.26
-0.1
-0.015
0.06
0.57
0.33
-0.03
-0.435
-0.805
-0.315
-0.26
-0.065
0.015
0.05
0.6
0.46
-0.03
-0.55
-0.785
-0.33
-0.265
-0.035
-0.01
0.055
0.615
0.405
-0.1
-0.63
-0.815
-0.345
-0.345
-0.025
0.06
0.06
0.64
0.405
-0.135
-0.69
-0.73
-0.27
-0.345
0.07
0.075
0.035
0.59
0.365
-0.19
-0.705
-0.605
-0.265
-0.285
0.04
0.005
0.075
0.63
0.31
-0.26
-0.71
-0.55
-0.27
-0.215
0.075
0.105
0.21
0.585
0.235
-0.31
-0.765
-0.515
-0.26
-0.19
0.08
0.055
0.325
0.6
0.175
-0.33
-0.735
-0.415
-0.17
-0.165
0.02
0.13
0.385
0.65
0.23
-0.285
-0.775
-0.44
-0.235
-0.095
0.145
0.13
0.51
0.59
0.195
-0.305
-0.79
-0.39
-0.2
-0.195
-0.015
0.025
0.385
0.435
0.055
-0.415
-0.81
-0.355
-0.24
-0.165
-0.07
0.045
0.505
0.45
0.07
-0.4
-0.845
-0.465
-0.285
-0.205
-0.035
0.055
0.57
0.405
-0.01
-0.425
-0.87
-0.435
-0.28
-0.22
-0.05
-0.02
0.545
0.43
-0.065
-0.42
-0.825
-0.4
-0.275
-0.16
-0.04
0.07
0.56
0.395
0.005
-0.47
-0.925
-0.405
-0.39
-0.215
-0.065
0.01
0.535
0.315
-0.08
-0.56
-0.845
-0.3
-0.215
0.195
0.45
0.59
1.22
1.1
0.805
0.355
0.33
0.935
0.99
1.355
1.34
1.3
1.67
1.115
0.215
-0.565
-0.81
-0.46
-0.44
-0.13
-0.145
-0.14
0.41
0.18
-0.42
-0.885
-0.83
-0.395
-0.38
0.0
-0.01
0.04
0.52
0.23
-0.245
-0.755
-0.585
-0.245
-0.25
0.03
0.025
0.14
0.6
0.215
-0.325
-0.78
-0.515
-0.29
-0.195
0.055
-0.01
0.24
0.59
0.195
-0.31
-0.775
-0.455
-0.255
-0.17
0.085
0.085
0.425
0.605
0.19
-0.305
-0.77
-0.37
-0.195
-0.145
0.05
0.13
0.525
0.6
0.175
-0.285
-0.715
-0.34
-0.125
-0.05
0.13
0.155
0.595
0.54
0.235
-0.23
-0.67
-0.22
-0.065
-0.04
0.145
0.205
0.76
0.64
0.32
-0.18
-0.615
-0.165
0.065
0.135
0.3
0.38
0.88
0.76
0.355
-0.11
-0.525
-0.02
0.09
0.215
0.35
0.43
0.955
0.85
0.43
0.01
-0.41
0.085
0.185
0.285
0.465
0.5
1.08
0.915
0.465
0.06
-0.33
0.085
0.17
0.32
0.39
0.44
0.945
0.825
0.35
-0.115
-0.445
0.045
0.025
0.22
0.34
0.355
0.8
0.555
0.035
-0.5
-0.645
-0.195
-0.21
0.16
0.14
0.175
0.72
0.42
-0.11
-0.63
-0.67
-0.28
-0.24
0.065
0.07
0.085
0.715
0.275
-0.155
-0.7
-0.71
-0.32
-0.35
-0.01
0.03
0.115
0.655
0.265
-0.23
-0.73
-0.56
-0.25
-0.25
-0.01
0.02
0.17
0.57
0.195
-0.275
-0.77
-0.535
-0.34
-0.2
0.065
0.11
0.325
0.62
0.125
-0.355
-0.81
-0.545
-0.26
-0.215
-0.04
0.07
0.38
0.56
0.17
-0.365
-0.81
-0.465
-0.245
-0.195
0.025
0.085
0.44
0.535
0.12
-0.385
-0.855
-0.39
-0.185
-0.12
0.09
0.105
0.435
0.435
0.05
-0.355
-0.86
-0.46
-0.26
-0.175
-0.02
0.125
0.55
0.48
0.065
-0.385
-0.845
-0.345
-0.205
-0.11
0.015
0.045
0.53
0.46
-0.04
-0.44
-0.825
-0.36
-0.26
-0.195
0.005
0.03
0.575
0.46
0.015
-0.43
-0.85
-0.32
-0.24
-0.185
-0.055
-0.015
0.54
0.46
0.0
-0.46
-0.845
-0.315
-0.225
-0.11
-0.18
-0.045
0.585
0.295
-0.12
-0.53
-0.81
-0.275
-0.27
-0.065
-0.03
-0.01
0.575
0.39
-0.14
-0.645
-0.885
-0.435
-0.375
-0.005
0.03
0.035
0.6
0.33
-0.185
-0.74
-0.725
-0.33
-0.335
0.005
0.07
0.085
0.685
0.295
-0.18
-0.72
-0.62
-0.29
-0.22
0.07
0.05
0.09
0.595
0.235
-0.275
-0.765
-0.585
-0.245
-0.22
0.01
0.04
0.17
0.61
0.245
-0.28
-0.82
-0.59
-0.325
-0.275
-0.04
-0.03
0.295
0.58
0.145
-0.325
-0.825
-0.535
-0.255
-0.2
-0.04
0.01
0.315
0.48
0.045
-0.425
-0.795
-0.485
-0.35
-0.21
0.03
0.04
0.405
0.45
0.05
-0.38
-0.855
-0.41
-0.24
-0.175
-0.07
-0.02
0.46
0.46
0.02
-0.44
-0.88
-0.44
-0.28
-0.105
-0.025
-0.06
0.48
0.42
0.0
-0.52
-0.81
-0.305
-0.1
0.11
0.365
0.53
1.21
1.245
0.935
0.645
0.335
0.855
1.025
1.195
1.3
1.24
1.49
1.065
0.35
-0.37
-0.97
-0.6
-0.465
-0.34
-0.16
-0.215
0.405
0.215
-0.285
-0.63
-1.02
-0.49
-0.385
-0.215
-0.085
0.03
0.585
0.43
-0.08
-0.63
-0.855
-0.41
-0.395
-0.045
0.095
0.01
0.6
0.325
-0.155
-0.67
-0.845
-0.33
-0.275
0.06
0.075
0.09
0.635
0.365
-0.175
-0.675
-0.72
-0.25
-0.245
0.08
0.03
0.15
0.67
0.275
-0.245
-0.695
-0.57
-0.245
-0.16
0.15
0.155
0.13
0.695
0.305
-0.235
-0.735
-0.435
-0.19
-0.17
0.2
0.205
0.335
0.68
0.29
-0.175
-0.645
-0.39
-0.095
-0.02
0.21
0.225
0.43
0.75
0.4
-0.15
-0.58
-0.295
-0.03
0.07
0.32
0.34
0.645
0.855
0.395
-0.065
-0.535
-0.065
0.16
0.195
0.405
0.43
0.84
0.9
0.495
0.065
-0.44
-0.025
0.185
0.17
0.385
0.465
0.87
0.875
0.495
0.04
-0.41
0.015
0.195
0.26
0.36
0.475
0.895
0.845
0.445
-0.07
-0.545
-0.105
0.06
0.13
0.255
0.275
0.82
0.65
0.17
-0.24
-0.665
-0.215
-0.085
-0.11
-0.005
0.105
0.645
0.46
0.05
-0.405
-0.835
-0.33
-0.215
-0.095
0.015
0.075
0.56
0.38
-0.05
-0.46
-0.88
-0.385
-0.28
-0.115
-0.025
0.015
0.545
0.375
-0.11
-0.66
-0.935
-0.415
-0.375
-0.1
-0.025
-0.015
0.51
0.345
-0.185
-0.735
-0.84
-0.365
-0.385
-0.11
-0.095
-0.01
0.545
0.25
-0.23
-0.72
-0.74
-0.34
-0.355
0.015
-0.005
0.045
0.53
0.16
-0.315
-0.86
-0.69
-0.325
-0.335
-0.025
0.06
0.055
0.58
0.185
-0.32
-0.77
-0.66
-0.32
-0.295
-0.06
-0.065
0.115
0.545
0.115
-0.4
-0.85
-0.605
-0.32
-0.265
-0.09
0.03
0.31
0.57
0.17
-0.425
-0.88
-0.52
-0.33
-0.3
-0.045
-0.005
0.345
0.505
0.03
-0.485
-0.815
-0.47
-0.295
-0.225
-0.065
-0.09
0.38
0.515
0.035
-0.505
-0.94
-0.525
-0.31
-0.24
-0.08
-0.07
0.44
0.43
0.065
-0.435
-0.885
-0.49
-0.315
-0.21
-0.03
-0.045
0.435
0.38
0.015
-0.46
-0.905
-0.395
-0.27
-0.325
-0.09
0.025
0.465
0.3
-0.04
-0.46
-0.865
-0.455
-0.275
-0.115
-0.035
-0.04
0.525
0.35
-0.095
-0.49
-0.88
-0.375
-0.315
-0.215
-0.01
0.02
0.52
0.43
-0.045
-0.44
-0.9
-0.445
-0.34
-0.2
-0.03
-0.025
0.545
0.37
-0.11
-0.68
-0.81
-0.235
-0.295
-0.06
-0.015
0.025
0.61
0.32
-0.165
-0.73
-0.78
-0.3
-0.365
0.0
0.015
0.015
0.54
0.345
-0.195
-0.75
-0.785
-0.365
-0.37
0.02
0.045
0.035
0.545
0.23
-0.37
-0.835
-0.665
-0.375
-0.325
-0.01
0.01
0.045
0.485
0.135
-0.34
-0.845
-0.6
-0.335
-0.31
-0.105
-0.075
0.175
0.555
0.145
-0.355
-0.88
-0.55
-0.39
-0.33
-0.135
-0.02
0.2
0.48
0.05
-0.435
-0.92
-0.535
-0.33
-0.225
-0.05
-0.06
0.295
0.45
0.01
-0.445
-0.86
-0.48
-0.375
-0.26
-0.055
0.025
0.535
0.665
0.43
0.07
-0.23
0.34
0.635
0.825
1.05
1.25
1.725
1.81
1.38
0.83
0.205
0.415
0.195
-0.08
-0.125
-0.115
0.305
0.23
-0.2
-0.685
-1.11
-0.625
-0.42
-0.365
-0.18
-0.12
0.385
0.32
-0.155
-0.59
-0.915
-0.435
-0.295
-0.14
-0.065
-0.03
0.48
0.385
-0.04
-0.47
-0.88
-0.34
-0.265
-0.195
-0.045
0.025
0.55
0.395
-0.035
-0.37
-0.715
-0.34
-0.33
-0.155
-0.08
0.03
0.63
0.39
-0.05
-0.58
-0.785
-0.275
-0.265
0.02
0.075
0.1
0.62
0.385
-0.105
-0.61
-0.69
-0.22
-0.255
0.075
0.12
0.21
0.735
0.465
-0.075
-0.6
-0.54
-0.145
-0.125
0.22
0.22
0.205
0.7
0.45
-0.11
-0.55
-0.38
-0.165
-0.025
0.265
0.315
0.395
0.87
0.51
0.03
-0.475
-0.285
0.095
0.135
0.335
0.41
0.61
0.95
0.585
0.125
-0.385
-0.085
0.14
0.17
0.43
0.505
0.79
1.025
0.58
0.055
-0.35
-0.02
0.195
0.3
0.41
0.53
0.8
0.975
0.5
0.065
-0.35
0.02
0.18
0.19
0.36
0.37
0.76
0.785
0.41
-0.065
-0.575
-0.27
-0.055
0.095
0.2
0.18
0.58
0.615
0.23
-0.25
-0.73
-0.29
-0.12
-0.065
0.01
0.125
0.565
0.53
0.085
-0.34
-0.8
-0.32
-0.18
-0.075
0.005
0.075
0.6
0.47
0.055
-0.41
-0.785
-0.325
-0.185
-0.135
0.01
0.03
0.63
0.46
0.04
-0.445
-0.84
-0.315
-0.175
-0.07
0.07
0.045
0.625
0.395
0.0
-0.385
-0.84
-0.285
-0.205
-0.105
0.045
0.045
0.57
0.385
-0.05
-0.645
-0.8
-0.295
-0.33
-0.03
0.06
0.065
0.635
0.37
-0.155
-0.67
-0.715
-0.31
-0.345
0.05
0.075
0.07
0.64
0.37
-0.175
-0.69
-0.635
-0.245
-0.285
0.015
0.04
0.075
0.585
0.24
-0.255
-0.695
-0.585
-0.245
-0.205
0.06
0.045
0.185
0.655
0.24
-0.23
-0.71
-0.48
-0.27
-0.26
0.025
0.03
0.14
0.67
0.225
-0.28
-0.72
-0.475
-0.255
-0.2
0.05
0.1
0.325
0.585
0.16
-0.335
-0.785
-0.46
-0.215
-0.21
-0.005
0.085
0.405
0.565
0.15
-0.34
-0.75
-0.44
-0.26
-0.125
0.03
0.025
0.41
0.475
0.06
-0.39
-0.795
-0.36
-0.175
-0.115
0.035
0.04
0.445
0.495
0.07
-0.405
-0.785
-0.37
-0.255
-0.195
-0.055
0.07
0.535
0.49
0.04
-0.365
-0.775
-0.385
-0.235
-0.155
0.01
0.05
0.53
0.42
-0.045
-0.42
-0.79
-0.325
-0.255
-0.11
0.0
0.09
0.595
0.43
-0.015
-0.435
-0.82
-0.34
-0.21
-0.08
0.04
0.08
0.64
0.385
-0.065
-0.435
-0.82
-0.415
-0.325
-0.14
-0.01
0.075
0.555
0.37
-0.11
-0.665
-0.85
-0.34
-0.315
-0.045
0.035
0.005
0.555
0.325
-0.18
-0.735
-0.835
-0.39
-0.37
-0.11
-0.045
0.02
0.56
0.195
-0.26
-0.745
-0.685
-0.245
-0.315
0.05
-0.01
-0.045
0.545
0.245
-0.275
-0.77
-0.63
-0.26
-0.28
0.015
0.02
0.135
0.6
0.25
-0.355
-0.815
-0.605
-0.23
-0.2
0.015
0.03
0.22
0.575
0.175
-0.27
-0.665
-0.23
0.185
0.35
0.745
0.86
1.3
1.67
1.31
0.84
0.465
0.86
1.13
1.095
1.045
0.87
0.85
0.715
0.04
-0.505
-0.9
-0.615
-0.43
-0.365
-0.2
-0.17
0.3
0.35
-0.05
-0.535
-0.86
-0.455
-0.235
-0.21
-0.025
0.13
0.5
0.46
0.03
-0.385
-0.82
-0.37
-0.185
-0.115
0.06
0.02
0.615
0.46
0.055
-0.355
-0.75
-0.235
-0.155
-0.095
0.09
0.135
0.605
0.515
0.1
-0.315
-0.78
-0.27
-0.06
-0.03
0.085
0.12
0.635
0.51
0.07
-0.335
-0.73
-0.23
-0.105
0.045
0.125
0.14
0.705
0.545
0.1
-0.31
-0.675
-0.125
-0.085
0.065
0.22
0.265
0.76
0.575
0.13
-0.345
-0.67
-0.09
-0.005
0.23
0.295
0.32
0.885
0.625
0.13
-0.39
-0.445
0.03
-0.005
0.305
0.345
0.41
0.99
0.76
0.245
-0.27
-0.315
0.115
0.145
0.46
0.5
0.485
1.075
0.795
0.265
-0.275
-0.175
0.19
0.21
0.53
0.535
0.625
1.11
0.75
0.215
-0.25
-0.07
0.21
0.245
0.4
0.465
0.66
1.01
0.6
0.05
-0.48
-0.19
-0.005
0.105
0.3
0.3
0.56
0.84
0.385
-0.17
-0.655
-0.385
-0.125
-0.03
0.175
0.16
0.475
0.65
0.2
-0.32
-0.78
-0.315
-0.19
-0.15
0.1
0.12
0.485
0.605
0.175
-0.32
-0.725
-0.395
-0.205
-0.115
0.015
0.145
0.525
0.52
0.15
-0.295
-0.755
-0.355
-0.22
-0.135
0.095
0.1
0.55
0.505
0.09
-0.42
-0.84
-0.375
-0.195
-0.095
0.04
0.105
0.595
0.48
0.05
-0.41
-0.805
-0.28
-0.185
-0.035
0.025
0.08
0.62
0.495
0.045
-0.365
-0.82
-0.3
-0.16
-0.085
0.05
0.105
0.655
0.49
0.01
-0.39
-0.835
-0.31
-0.225
-0.04
0.045
0.105
0.69
0.475
0.01
-0.49
-0.795
-0.29
-0.27
0.015
0.035
0.08
0.655
0.41
-0.12
-0.64
-0.7
-0.255
-0.265
0.015
0.105
0.12
0.68
0.335
-0.165
-0.655
-0.63
-0.23
-0.25
0.105
0.095
0.135
0.675
0.32
-0.2
-0.705
-0.585
-0.235
-0.245
0.085
0.1
0.18
0.68
0.235
-0.205
-0.725
-0.545
-0.24
-0.2
0.045
0.035
0.25
0.63
0.225
-0.235
-0.78
-0.53
-0.285
-0.26
0.015
0.06
0.285
0.575
0.16
-0.36
-0.8
-0.485
-0.275
-0.215
-0.045
0.03
0.405
0.545
0.11
-0.39
-0.85
-0.49
-0.255
-0.2
0.055
-0.035
0.435
0.525
0.075
-0.385
-0.79
-0.44
-0.26
-0.165
-0.02
0.05
0.5
0.47
0.07
-0.42
-0.865
-0.425
-0.14
-0.095
0.02
0.05
0.5
0.465
0.075
-0.43
-0.845
-0.28
-0.18
-0.115
0.015
0.13
0.585
0.46
0.055
-0.38
-0.835
-0.315
-0.17
-0.06
0.04
0.125
0.575
0.49
-0.03
-0.425
-0.855
-0.315
-0.225
-0.14
-0.03
0.055
0.65
0.43
-0.075
-0.47
-0.88
-0.315
-0.295
-0.105
-0.005
0.1
0.63
0.44
-0.065
-0.72
-0.87
-0.335
-0.32
-0.065
-0.025
0.005
0.605
0.355
-0.195
-0.715
-0.81
-0.335
-0.36
-0.06
0.0
0.08
0.6
0.28
-0.275
-0.71
-0.68
-0.315
-0.37
0.025
0.055
0.045
0.565
0.26
-0.255
-0.77
-0.655
-0.335
-0.34
0.045
0.075
0.3
0.805
0.515
0.17
-0.22
0.165
0.59
0.73
1.03
1.155
1.415
1.705
1.295
0.735
0.04
0.045
0.055
-0.17
-0.13
-0.145
0.15
0.4
-0.01
-0.535
-1.045
-0.685
-0.47
-0.365
-0.155
-0.06
0.29
0.425
0.025
-0.43
-0.87
-0.465
-0.265
-0.24
-0.03
0.05
0.485
0.505
0.135
-0.31
-0.855
-0.39
-0.2
-0.16
0.02
0.115
0.505
0.475
0.095
-0.365
-0.795
-0.355
-0.17
-0.105
0.03
0.135
0.615
0.51
0.095
-0.37
-0.73
-0.3
-0.17
-0.12
0.07
0.09
0.66
0.565
0.095
-0.33
-0.7
-0.235
-0.12
-0.03
0.18
0.21
0.685
0.555
0.185
-0.355
-0.71
-0.215
-0.1
0.095
0.175
0.245
0.785
0.595
0.165
-0.265
-0.63
-0.11
-0.005
0.17
0.295
0.32
0.875
0.675
0.205
-0.345
-0.49
0.06
0.11
0.39
0.405
0.45
0.91
0.705
0.215
-0.3
-0.325
0.095
0.08
0.45
0.515
0.505
1.025
0.775
0.295
-0.265
-0.25
0.16
0.15
0.505
0.45
0.505
1.04
0.715
0.155
-0.325
-0.25
0.14
0.145
0.39
0.46
0.485
0.92
0.52
0.025
-0.535
-0.4
-0.09
-0.01
0.24
0.21
0.41
0.705
0.305
-0.12
-0.725
-0.5
-0.15
-0.125
0.105
0.155
0.43
0.705
0.24
-0.305
-0.85
-0.445
-0.195
-0.105
0.075
0.095
0.405
0.555
0.145
-0.315
-0.79
-0.425
-0.26
-0.16
0.055
0.065
0.535
0.53
0.18
-0.375
-0.815
-0.385
-0.205
-0.125
0.025
0.105
0.565
0.47
0.055
-0.4
-0.81
-0.34
-0.19
-0.12
-0.01
0.045
0.495
0.5
0.085
-0.375
-0.84
-0.37
-0.145
-0.105
0.05
0.08
0.6
0.515
0.06
-0.4
-0.755
-0.3
-0.195
-0.11
0.06
0.115
0.59
0.465
0.06
-0.395
-0.785
