# TIPE ECG 2021 - ECG-ID Database v1.0.0 par Physionet
# [N° de la personne, N° de l'enregistrement, Période d'échantillonnage, Prénom, Age, Sexe, Date de l'enregistrement]
[89, 1, 0.002, "Margaux", 40, "F", "21.05.2005"]
-0.46
-0.25
-0.145
-0.04
0.76
0.51
-0.11
-0.685
-1.285
-0.57
-0.505
-0.225
-0.06
0.015
0.73
0.47
-0.195
-0.89
-1.2
-0.49
-0.515
-0.135
0.02
0.02
0.78
0.44
-0.24
-0.975
-1.105
-0.47
-0.475
0.01
0.02
0.07
0.825
0.455
-0.28
-1.04
-1.0
-0.45
-0.36
0.125
0.215
0.18
0.925
0.47
-0.2
-0.865
-0.73
-0.235
-0.165
0.235
0.215
0.325
1.035
0.53
-0.17
-0.84
-0.595
-0.2
-0.105
0.26
0.305
0.535
1.08
0.5
-0.205
-0.9
-0.58
-0.155
-0.09
0.225
0.2
0.565
0.94
0.365
-0.3
-1.0
-0.6
-0.27
-0.205
0.12
0.165
0.54
0.855
0.225
-0.51
-1.125
-0.675
-0.395
-0.285
0.0
0.0
0.455
0.68
0.08
-0.595
-1.205
-0.725
-0.445
-0.34
-0.095
0.005
0.56
0.6
0.005
-0.675
-1.265
-0.71
-0.48
-0.39
-0.145
-0.02
0.495
0.57
0.01
-0.67
-1.245
-0.665
-0.46
-0.355
-0.135
-0.02
0.565
0.49
-0.06
-0.725
-1.285
-0.665
-0.425
-0.3
-0.12
-0.085
0.58
0.455
-0.105
-0.71
-1.28
-0.655
-0.49
-0.265
-0.125
-0.015
0.72
0.45
-0.13
-0.74
-1.415
-0.7
-0.51
-0.24
-0.12
-0.015
0.72
0.44
-0.22
-0.775
-1.33
-0.605
-0.555
-0.27
-0.095
-0.04
0.695
0.41
-0.21
-0.95
-1.28
-0.625
-0.585
-0.2
-0.08
-0.08
0.71
0.365
-0.345
-1.08
-1.225
-0.585
-0.595
-0.11
-0.025
0.025
0.755
0.345
-0.4
-1.14
-1.15
-0.565
-0.545
-0.09
-0.05
-0.075
0.67
0.235
-0.385
-1.115
-1.02
-0.525
-0.5
-0.085
-0.055
0.045
0.715
0.185
-0.545
-1.185
-0.91
-0.525
-0.445
-0.13
-0.035
0.16
0.65
0.11
-0.56
-1.25
-0.915
-0.52
-0.41
-0.105
-0.03
0.245
0.69
0.085
-0.605
-1.235
-0.865
-0.59
-0.505
-0.115
0.035
0.405
0.675
0.055
-0.61
-1.27
-0.795
-0.49
-0.375
-0.085
-0.025
0.45
0.58
-0.04
-0.65
-1.295
-0.765
-0.505
-0.41
-0.19
-0.075
0.515
0.55
-0.015
-0.69
-1.305
-0.72
-0.46
-0.39
-0.13
-0.075
0.52
0.5
-0.09
-0.735
-1.33
-0.72
-0.485
-0.305
-0.13
-0.065
0.565
0.53
-0.07
-0.72
-1.3
-0.69
-0.49
-0.36
-0.175
-0.05
0.635
0.465
-0.17
-0.775
-1.29
-0.62
-0.49
-0.37
-0.18
-0.075
0.66
0.475
-0.13
-0.76
-1.325
-0.705
-0.58
-0.325
-0.13
-0.03
0.65
0.345
-0.27
-0.795
-1.3
-0.645
-0.59
-0.285
-0.085
-0.03
0.68
0.385
-0.24
-0.975
-1.27
-0.565
-0.51
-0.175
-0.095
-0.055
0.69
0.345
-0.34
-1.095
-1.16
-0.52
-0.545
-0.11
-0.035
-0.01
0.73
0.36
-0.375
-1.095
-1.08
-0.555
-0.505
-0.055
-0.055
-0.045
0.705
0.245
-0.465
-1.175
-1.055
-0.61
-0.56
-0.09
-0.055
0.045
0.66
0.14
-0.515
-1.21
-0.97
-0.57
-0.49
-0.125
-0.07
0.12
0.64
0.095
-0.545
-1.21
-0.885
-0.56
-0.5
-0.145
-0.12
0.23
0.58
-0.01
-0.62
-1.295
-0.85
-0.565
-0.41
-0.12
-0.035
0.365
0.59
-0.045
-0.67
-1.27
-0.815
-0.59
-0.45
-0.135
-0.095
0.43
0.57
0.01
-0.69
-1.305
-0.705
-0.425
-0.325
-0.075
0.01
0.55
0.635
0.025
-0.615
-1.185
-0.58
-0.325
-0.145
0.1
0.225
0.915
0.955
0.335
-0.27
-0.805
-0.205
-0.02
0.035
0.065
-0.02
0.51
0.21
-0.43
-0.995
-1.57
-0.91
-0.715
-0.475
-0.21
-0.15
0.52
0.365
-0.195
-0.8
-1.33
-0.715
-0.57
-0.37
-0.145
-0.04
0.625
0.38
-0.23
-0.795
-1.335
-0.68
-0.58
-0.295
-0.15
-0.045
0.645
0.37
-0.255
-0.905
-1.335
-0.65
-0.61
-0.285
-0.1
-0.015
0.7
0.36
-0.295
-1.03
-1.295
-0.61
-0.625
-0.225
-0.105
-0.015
0.745
0.355
-0.37
-1.095
-1.165
-0.61
-0.6
-0.105
-0.09
-0.045
0.72
0.28
-0.435
-1.16
-1.125
-0.53
-0.46
-0.06
-0.06
-0.01
0.75
0.25
-0.46
-1.15
-0.965
-0.53
-0.43
-0.06
-0.01
0.12
0.7
0.245
-0.46
-1.105
-0.81
-0.44
-0.36
0.015
0.045
0.305
0.83
0.285
-0.36
-1.045
-0.715
-0.4
-0.25
0.11
0.195
0.56
0.865
0.26
-0.305
-0.97
-0.535
-0.24
-0.14
0.15
0.24
0.715
0.95
0.38
-0.295
-0.92
-0.445
-0.18
-0.07
0.205
0.28
0.78
0.88
0.305
-0.335
-0.955
-0.42
-0.185
-0.095
0.105
0.155
0.77
0.775
0.175
-0.51
-1.14
-0.555
-0.315
-0.225
-0.025
0.04
0.625
0.575
-0.015
-0.66
-1.25
-0.645
-0.445
-0.3
-0.06
0.035
0.655
0.47
-0.15
-0.795
-1.315
-0.67
-0.47
-0.355
-0.165
-0.055
0.645
0.475
-0.135
-0.79
-1.295
-0.655
-0.52
-0.355
-0.16
-0.055
0.625
0.37
-0.22
-0.735
-1.315
-0.69
-0.615
-0.325
-0.14
-0.07
0.65
0.415
-0.25
-0.895
-1.32
-0.635
-0.625
-0.3
-0.1
-0.095
0.645
0.335
-0.3
-1.045
-1.285
-0.665
-0.635
-0.215
-0.11
-0.105
0.68
0.285
-0.405
-1.14
-1.21
-0.625
-0.565
-0.085
-0.105
-0.125
0.6
0.175
-0.52
-1.155
-1.125
-0.59
-0.625
-0.155
-0.1
-0.04
0.66
0.185
-0.49
-1.225
-1.04
-0.59
-0.525
-0.17
-0.13
0.02
0.645
0.09
-0.565
-1.235
-0.95
-0.585
-0.515
-0.14
-0.085
0.2
0.57
0.02
-0.63
-1.27
-0.885
-0.55
-0.495
-0.2
-0.185
0.205
0.6
0.03
-0.655
-1.32
-0.875
-0.555
-0.42
-0.18
-0.185
0.255
0.49
-0.04
-0.685
-1.325
-0.82
-0.57
-0.47
-0.19
-0.09
0.435
0.495
-0.115
-0.755
-1.345
-0.85
-0.57
-0.455
-0.2
-0.115
0.465
0.475
-0.125
-0.795
-1.365
-0.825
-0.58
-0.44
-0.265
-0.175
0.5
0.46
-0.16
-0.795
-1.38
-0.76
-0.545
-0.39
-0.2
-0.165
0.475
0.35
-0.2
-0.84
-1.42
-0.775
-0.53
-0.41
-0.25
-0.19
0.555
0.345
-0.2
-0.8
-1.38
-0.73
-0.605
-0.365
-0.22
-0.145
0.59
0.355
-0.27
-0.825
-1.395
-0.75
-0.665
-0.38
-0.22
-0.155
0.565
0.3
-0.285
-1.025
-1.4
-0.69
-0.65
-0.32
-0.175
-0.105
0.585
0.25
-0.435
-1.13
-1.36
-0.715
-0.655
-0.195
-0.105
-0.09
0.605
0.205
-0.495
-1.22
-1.235
-0.645
-0.64
-0.195
-0.13
-0.085
0.655
0.16
-0.52
-1.22
-1.18
-0.64
-0.56
-0.155
-0.095
-0.005
0.68
0.14
-0.57
-1.305
-1.0
-0.56
-0.485
-0.12
-0.05
0.08
0.62
0.045
-0.605
-1.315
-1.025
-0.625
-0.53
-0.18
-0.135
0.125
0.58
0.01
-0.68
-1.375
-0.98
-0.625
-0.465
-0.225
-0.19
0.23
0.565
-0.06
-0.745
-1.345
-0.825
-0.61
-0.555
-0.23
-0.18
0.255
0.51
-0.06
-0.685
-1.32
-0.815
-0.58
-0.47
-0.24
-0.185
0.315
0.37
-0.185
-0.765
-1.32
-0.79
-0.57
-0.445
-0.21
-0.115
0.44
0.41
-0.19
-0.81
-1.41
-0.82
-0.58
-0.435
-0.16
-0.06
0.595
0.49
-0.07
-0.75
-1.325
-0.72
-0.46
-0.28
-0.075
0.035
0.74
0.64
0.17
-0.375
-0.925
-0.235
-0.09
0.085
0.27
0.38
1.025
0.645
-0.155
-0.91
-1.555
-1.025
-0.87
-0.615
-0.45
-0.295
0.455
0.255
-0.35
-0.91
-1.46
-0.765
-0.685
-0.42
-0.23
-0.15
0.575
0.3
-0.38
-1.06
-1.43
-0.74
-0.67
-0.28
-0.205
-0.17
0.6
0.235
-0.42
-1.14
-1.34
-0.67
-0.68
-0.295
-0.16
-0.135
0.595
0.2
-0.495
-1.22
-1.225
-0.67
-0.62
-0.145
-0.155
-0.11
0.645
0.19
-0.525
-1.24
-1.175
-0.64
-0.59
-0.135
-0.11
-0.045
0.605
0.145
-0.58
-1.255
-1.035
-0.62
-0.565
-0.195
-0.085
0.095
0.6
0.13
-0.54
-1.28
-0.985
-0.6
-0.495
-0.14
-0.085
0.245
0.67
0.06
-0.63
-1.265
-0.84
-0.505
-0.41
-0.09
-0.025
0.395
0.71
0.115
-0.545
-1.2
-0.71
-0.425
-0.295
-0.07
-0.005
0.515
0.76
0.19
-0.475
-1.1
-0.58
-0.315
-0.165
0.055
0.16
0.705
0.8
0.2
-0.42
-1.03
-0.495
-0.22
-0.155
0.13
0.22
0.79
0.805
0.225
-0.395
-0.995
-0.405
-0.22
-0.115
0.075
0.16
0.75
0.67
0.085
-0.515
-1.115
-0.52
-0.35
-0.24
-0.06
0.07
0.72
0.56
-0.055
-0.75
-1.275
-0.64
-0.435
-0.3
-0.145
-0.05
0.655
0.43
-0.195
-0.805
-1.345
-0.685
-0.55
-0.35
-0.235
-0.13
0.59
0.375
-0.245
-0.855
-1.37
-0.705
-0.62
-0.32
-0.14
-0.13
0.595
0.33
-0.255
-1.005
-1.395
-0.73
-0.65
-0.28
-0.155
-0.135
0.62
0.27
-0.47
-1.14
-1.3
-0.685
-0.665
-0.2
-0.13
-0.115
0.595
0.22
-0.45
-1.17
-1.22
-0.67
-0.61
-0.17
-0.08
-0.145
0.625
0.14
-0.54
-1.235
-1.155
-0.715
-0.63
-0.135
-0.125
-0.04
0.615
0.12
-0.575
-1.295
-1.04
-0.62
-0.57
-0.185
-0.135
0.07
0.62
0.055
-0.635
-1.295
-0.955
-0.635
-0.525
-0.19
-0.115
0.18
0.58
-0.01
-0.685
-1.325
-0.96
-0.66
-0.495
-0.13
-0.095
0.275
0.605
0.02
-0.66
-1.31
-0.905
-0.625
-0.51
-0.21
-0.125
0.355
0.525
-0.065
-0.725
-1.365
-0.855
-0.52
-0.41
-0.17
-0.125
0.43
0.535
-0.065
-0.735
-1.39
-0.815
-0.55
-0.445
-0.235
-0.195
0.43
0.51
-0.085
-0.765
-1.36
-0.785
-0.535
-0.39
-0.21
-0.1
0.515
0.43
-0.175
-0.83
-1.325
-0.715
-0.55
-0.38
-0.18
-0.115
0.57
0.395
-0.215
-0.88
-1.385
-0.73
-0.57
-0.335
-0.17
-0.12
0.575
0.405
-0.205
-0.805
-1.385
-0.76
-0.58
-0.39
-0.25
-0.075
0.66
0.395
-0.265
-0.835
-1.38
-0.68
-0.655
-0.33
-0.14
-0.115
0.585
0.335
-0.285
-1.015
-1.365
-0.73
-0.685
-0.24
-0.12
-0.125
0.615
0.29
-0.425
-1.15
-1.295
-0.635
-0.66
-0.19
-0.125
-0.125
0.625
0.245
-0.47
-1.195
-1.24
-0.63
-0.585
-0.1
-0.1
-0.07
0.625
0.12
-0.48
-1.23
-1.145
-0.655
-0.59
-0.14
-0.09
-0.005
0.645
0.145
-0.59
-1.3
-1.075
-0.645
-0.575
-0.17
-0.06
0.155
0.67
0.03
-0.62
-1.28
-0.955
-0.65
-0.52
-0.15
-0.115
0.175
0.605
0.015
-0.655
-1.32
-0.915
-0.635
-0.47
-0.16
-0.065
0.365
0.635
-0.015
-0.66
-1.305
-0.875
-0.575
-0.45
-0.135
-0.105
0.38
0.54
-0.03
-0.74
-1.3
-0.76
-0.51
-0.405
-0.115
-0.025
0.46
0.565
-0.025
-0.695
-1.245
-0.655
-0.465
-0.395
-0.155
-0.03
0.56
0.52
-0.06
-0.72
-1.265
-0.73
-0.51
-0.405
-0.21
-0.095
0.56
0.48
-0.14
-0.815
-1.4
-0.73
-0.54
-0.42
-0.225
-0.115
0.595
0.44
-0.155
-0.785
-1.375
-0.7
-0.54
-0.42
-0.225
-0.12
0.62
0.45
-0.225
-0.805
-1.305
-0.675
-0.605
-0.375
-0.205
-0.06
0.585
0.32
-0.235
-0.84
-1.38
-0.67
-0.605
-0.31
-0.185
-0.155
0.635
0.305
-0.355
-1.065
-1.3
-0.625
-0.69
-0.285
-0.12
-0.11
0.64
0.345
-0.315
-1.015
-1.135
-0.515
-0.505
-0.09
0.005
0.015
0.815
0.435
-0.195
-0.925
-0.84
-0.25
-0.135
0.43
0.44
0.445
1.14
0.705
-0.01
-0.805
-0.825
-0.545
-0.625
-0.375
-0.43
-0.275
0.415
-0.085
-0.73
-1.42
-1.135
-0.68
-0.59
-0.145
-0.115
0.065
0.625
0.085
-0.655
-1.26
-0.92
-0.615
-0.55
-0.175
-0.09
0.18
0.59
0.005
-0.68
-1.29
-0.88
-0.545
-0.49
-0.185
-0.105
0.31
0.625
-0.01
-0.66
-1.325
-0.82
-0.525
-0.44
-0.165
-0.085
0.365
0.55
-0.01
-0.67
-1.295
-0.78
-0.53
-0.38
-0.145
-0.07
0.47
0.49
-0.055
-0.69
-1.325
-0.845
-0.625
-0.47
-0.19
-0.08
0.44
0.41
-0.195
-0.78
-1.395
-0.845
-0.62
-0.415
-0.17
-0.085
0.52
0.4
-0.16
-0.865
-1.425
-0.78
-0.535
-0.415
-0.205
-0.13
0.52
0.37
-0.22
-0.805
-1.315
-0.67
-0.535
-0.365
-0.13
-0.04
0.62
0.445
-0.16
-0.7
-1.29
-0.61
-0.47
-0.18
0.01
0.07
0.745
0.5
-0.13
-0.735
-1.225
-0.505
-0.45
-0.145
0.03
0.09
0.9
0.56
-0.08
-0.85
-1.11
-0.455
-0.44
-0.06
0.035
0.095
0.825
0.475
-0.26
-0.975
-1.11
-0.545
-0.56
-0.065
0.025
-0.025
0.71
0.3
-0.45
-1.16
-1.145
-0.625
-0.59
-0.18
-0.16
-0.17
0.555
0.055
-0.64
-1.33
-1.15
-0.67
-0.62
-0.235
-0.23
-0.14
0.485
-0.025
-0.715
-1.385
-1.135
-0.72
-0.675
-0.33
-0.235
0.025
0.485
-0.135
-0.805
-1.445
-1.065
-0.75
-0.645
-0.3
-0.23
0.06
0.43
-0.16
-0.815
-1.43
-1.045
-0.76
-0.655
-0.33
-0.27
0.19
0.445
-0.16
-0.855
-1.485
-1.02
-0.755
-0.61
-0.33
-0.26
0.18
0.375
-0.19
-0.86
-1.52
-0.99
-0.66
-0.575
-0.355
-0.305
0.245
0.34
-0.24
-0.855
-1.525
-0.965
-0.745
-0.605
-0.365
-0.26
0.36
0.295
-0.32
-0.945
-1.49
-0.94
-0.74
-0.59
-0.355
-0.215
0.39
0.265
-0.315
-0.94
-1.525
-0.895
-0.72
-0.575
-0.33
-0.265
0.445
0.275
-0.38
-0.965
-1.525
-0.89
-0.7
-0.53
-0.315
-0.25
0.47
0.25
-0.38
-0.965
-1.545
-0.895
-0.78
-0.53
-0.33
-0.25
0.455
0.23
-0.445
-1.07
-1.5
-0.83
-0.81
-0.49
-0.31
-0.245
0.5
0.185
-0.49
-1.21
-1.515
-0.825
-0.795
-0.38
-0.255
-0.24
0.47
0.1
-0.6
-1.28
-1.395
-0.82
-0.825
-0.34
-0.275
-0.255
0.52
0.09
-0.625
-1.35
-1.35
-0.81
-0.775
-0.355
-0.32
-0.26
0.495
0.01
-0.695
-1.35
-1.2
-0.77
-0.72
-0.35
-0.275
-0.165
0.46
-0.055
-0.71
-1.39
-1.18
-0.785
-0.705
-0.295
-0.26
-0.03
0.465
-0.135
-0.825
-1.475
-1.065
-0.72
-0.63
-0.325
-0.235
0.065
0.42
-0.21
-0.825
-1.49
-1.095
-0.76
-0.61
-0.32
-0.24
0.16
0.415
-0.195
-0.85
-1.475
-1.065
-0.765
-0.59
-0.315
-0.26
0.225
0.345
-0.205
-0.83
-1.48
-0.995
-0.73
-0.605
-0.375
-0.26
0.295
0.34
-0.255
-0.925
-1.535
-0.905
-0.66
-0.56
-0.37
-0.29
0.31
0.265
-0.305
-0.915
-1.51
-0.91
-0.665
-0.555
-0.34
-0.205
0.39
0.245
-0.33
-0.945
-1.49
-0.865
-0.64
-0.53
-0.38
-0.24
0.435
0.245
-0.34
-0.96
-1.535
-0.915
-0.705
-0.545
-0.35
-0.25
0.47
0.27
-0.33
-0.895
-1.445
-0.785
-0.74
-0.49
-0.285
-0.18
0.47
0.18
-0.4
-0.96
-1.435
-0.76
-0.715
-0.39
-0.26
-0.19
0.52
0.18
-0.47
-1.25
-1.485
-0.745
-0.775
-0.415
-0.275
-0.275
0.38
0.065
-0.57
-1.335
-1.445
-0.825
-0.765
-0.325
-0.285
-0.23
0.48
0.03
-0.69
-1.385
-1.375
-0.815
-0.775
-0.315
-0.275
-0.255
0.475
0.015
-0.73
-1.4
-1.215
-0.77
-0.73
-0.34
-0.295
-0.13
0.51
-0.035
-0.75
-1.455
-1.205
-0.815
-0.715
-0.32
-0.24
0.035
0.43
-0.16
-0.82
-1.43
-1.085
-0.765
-0.635
-0.29
-0.23
0.12
0.535
-0.07
-0.715
-1.38
-0.965
-0.68
-0.52
-0.175
-0.1
0.385
0.695
0.12
-0.375
-0.97
-0.48
-0.195
-0.1
0.185
0.265
0.67
0.665
-0.12
-0.9
-1.655
-1.225
-0.97
-0.78
-0.55
-0.455
0.125
0.2
-0.37
-1.01
-1.61
-1.02
-0.735
-0.56
-0.365
-0.3
0.305
0.29
-0.305
-0.94
-1.555
-0.92
-0.655
-0.55
-0.345
-0.285
0.385
0.31
-0.345
-0.985
-1.515
-0.86
-0.675
-0.555
-0.385
-0.24
0.44
0.255
-0.42
-0.995
-1.47
-0.79
-0.625
-0.425
-0.295
-0.315
0.435
0.23
-0.37
-0.935
-1.47
-0.815
-0.715
-0.485
-0.32
-0.235
0.525
0.26
-0.43
-1.035
-1.46
-0.77
-0.755
-0.425
-0.22
-0.2
0.53
0.235
-0.44
-1.17
-1.445
-0.715
-0.765
-0.35
-0.22
-0.17
0.57
0.23
-0.51
-1.205
-1.26
-0.64
-0.63
-0.15
-0.13
-0.155
0.62
0.19
-0.515
-1.135
-1.11
-0.625
-0.545
-0.09
-0.065
-0.055
0.71
0.295
-0.415
-1.13
-0.955
-0.455
-0.395
0.0
0.03
0.205
0.855
0.29
-0.395
-1.065
-0.8
-0.425
-0.315
0.055
0.095
0.35
0.835
0.285
-0.405
-1.01
-0.665
-0.37
-0.29
0.06
0.05
0.395
0.775
0.14
-0.49
-1.19
-0.79
-0.49
-0.41
-0.105
-0.05
0.355
0.62
-0.01
-0.66
-1.32
-0.875
-0.62
-0.465
-0.22
-0.19
0.28
0.475
-0.16
-0.765
-1.365
-0.87
-0.62
-0.485
-0.3
-0.26
0.295
0.395
-0.18
-0.855
-1.455
-0.93
-0.69
-0.51
-0.26
-0.19
0.42
0.335
-0.26
-0.89
-1.45
-0.85
-0.635
-0.5
-0.315
-0.27
0.395
0.31
-0.245
-0.92
-1.52
-0.845
-0.655
-0.51
-0.305
-0.225
0.46
0.28
-0.315
-0.925
-1.495
-0.915
-0.655
-0.46
-0.325
-0.29
0.465
0.305
-0.355
-0.945
-1.53
-0.83
-0.67
-0.465
-0.33
-0.24
0.515
0.255
-0.405
-1.09
-1.465
-0.775
-0.745
-0.42
-0.285
-0.23
0.515
0.19
-0.49
-1.215
-1.475
-0.8
-0.785
-0.36
-0.315
-0.235
0.55
0.165
-0.57
-1.295
-1.355
-0.765
-0.77
-0.25
-0.235
-0.26
0.535
0.095
-0.625
-1.37
-1.295
-0.745
-0.7
-0.25
-0.235
-0.15
0.545
0.06
-0.64
-1.355
-1.24
-0.805
-0.7
-0.19
-0.2
-0.065
0.565
-0.105
-0.745
-1.345
-1.12
-0.77
-0.665
-0.255
-0.22
0.0
0.48
-0.08
-0.76
-1.41
-1.06
-0.7
-0.595
-0.275
-0.195
0.155
0.485
-0.135
-0.79
-1.45
-1.035
-0.715
-0.575
-0.245
-0.215
0.215
0.43
-0.14
-0.825
-1.485
-0.99
-0.69
-0.565
-0.33
-0.25
0.28
0.435
-0.225
-0.83
-1.41
-0.93
-0.645
-0.535
-0.305
-0.155
0.355
0.37
-0.23
-0.925
-1.475
-0.9
-0.69
-0.53
-0.295
-0.24
0.375
0.325
-0.27
-0.87
-1.455
-0.86
-0.705
-0.545
-0.32
-0.245
0.43
0.285
-0.35
-0.91
-1.46
-0.82
-0.6
-0.51
-0.31
-0.215
0.455
0.285
-0.265
-0.91
-1.51
-0.88
-0.68
-0.44
-0.285
-0.265
0.47
0.26
-0.33
-0.935
-1.465
-0.775
-0.715
-0.465
-0.29
-0.195
0.535
0.25
-0.37
-1.01
-1.5
-0.77
-0.71
-0.395
-0.21
-0.185
0.565
0.245
-0.43
-1.15
-1.375
-0.7
-0.66
-0.28
-0.195
-0.2
0.585
0.245
-0.49
-1.25
-1.32
-0.71
-0.785
-0.33
-0.26
-0.195
0.555
0.08
-0.605
-1.33
-1.22
-0.775
-0.745
-0.27
-0.195
-0.175
0.53
0.015
-0.65
-1.35
-1.19
-0.745
-0.695
-0.29
-0.195
-0.035
0.53
-0.01
-0.725
-1.405
-1.155
-0.735
-0.61
-0.29
-0.28
0.005
0.5
-0.1
-0.745
-1.41
-1.06
-0.72
-0.645
-0.3
-0.18
0.145
0.41
-0.175
-0.82
-1.38
-0.985
-0.73
-0.595
-0.28
-0.22
0.27
0.48
-0.095
-0.725
-1.32
-0.84
-0.595
-0.475
-0.17
-0.085
0.455
0.58
0.045
-0.575
-1.165
-0.53
-0.225
-0.045
0.21
0.255
0.835
0.865
0.295
-0.45
-1.2
-0.845
-0.75
-0.675
-0.575
-0.435
0.16
0.14
-0.405
-1.015
-1.575
-0.93
-0.745
-0.635
-0.38
-0.255
0.435
0.35
-0.295
-0.94
-1.51
-0.87
-0.63
-0.495
-0.31
-0.185
0.445
0.305
-0.36
-0.935
-1.45
-0.84
-0.665
-0.515
-0.34
-0.22
0.515
0.27
-0.325
-0.905
-1.445
-0.775
-0.675
-0.415
-0.275
-0.22
0.525
0.27
-0.345
-1.04
-1.505
-0.77
-0.72
-0.4
-0.21
-0.16
0.555
0.23
-0.45
-1.155
-1.395
-0.72
-0.75
-0.285
-0.175
-0.15
0.565
0.22
-0.445
-1.205
-1.35
-0.755
-0.69
-0.2
-0.145
-0.125
0.63
0.185
-0.525
-1.25
-1.19
-0.69
-0.62
-0.17
-0.12
-0.015
0.65
0.18
-0.495
-1.215
-1.025
-0.565
-0.525
-0.055
-0.05
0.12
0.76
0.225
-0.455
-1.125
-0.835
-0.44
-0.395
-0.035
0.05
0.375
0.85
0.225
-0.405
-1.11
-0.69
-0.375
-0.265
0.095
0.1
0.47
0.86
0.245
-0.385
-1.07
-0.615
-0.34
-0.24
0.05
0.165
0.6
0.77
0.145
-0.505
-1.14
-0.655
-0.42
-0.32
-0.02
0.065
0.56
0.63
0.05
-0.62
-1.265
-0.8
-0.585
-0.445
-0.185
-0.155
0.445
0.505
-0.07
-0.715
-1.345
-0.78
-0.565
-0.435
-0.22
-0.175
0.45
0.375
-0.255
-0.86
-1.465
-0.855
-0.61
-0.445
-0.28
-0.16
0.5
0.375
-0.245
-0.905
-1.505
-0.83
-0.6
-0.41
-0.245
-0.19
0.48
0.375
-0.265
-0.905
-1.44
-0.78
-0.665
-0.47
-0.295
-0.19
0.555
0.28
-0.275
-0.87
-1.44
-0.78
-0.735
-0.43
-0.23
-0.19
0.525
0.24
-0.38
-1.1
-1.44
-0.735
-0.76
-0.39
-0.205
-0.175
0.535
0.19
-0.46
-1.17
-1.405
-0.725
-0.705
-0.3
-0.26
-0.205
0.58
0.185
-0.525
-1.225
-1.365
-0.77
-0.675
-0.22
-0.205
-0.165
0.555
0.11
-0.55
-1.285
-1.21
-0.76
-0.645
-0.23
-0.18
-0.09
0.585
0.005
-0.66
-1.335
-1.135
-0.655
-0.645
-0.25
-0.19
-0.03
0.575
-0.005
-0.67
-1.36
-1.08
-0.675
-0.55
-0.225
-0.17
0.08
0.555
-0.02
-0.725
-1.37
-0.995
-0.69
-0.575
-0.225
-0.14
0.2
0.55
-0.065
-0.76
-1.43
-0.99
-0.63
-0.53
-0.185
-0.145
0.26
0.485
-0.085
-0.775
-1.44
-0.925
-0.66
-0.515
-0.245
-0.175
0.35
0.465
-0.125
-0.82
-1.47
-0.885
-0.625
-0.51
-0.285
-0.22
0.38
0.365
-0.18
-0.805
-1.39
-0.825
-0.595
-0.42
-0.255
-0.215
0.46
0.355
-0.245
-0.87
-1.445
-0.775
-0.625
-0.48
-0.245
-0.175
0.47
0.35
-0.215
-0.825
-1.4
-0.8
-0.625
-0.52
-0.33
-0.175
0.52
0.3
-0.245
-0.895
-1.435
-0.75
-0.655
-0.425
-0.265
-0.135
0.55
0.285
-0.33
-0.91
-1.41
-0.75
-0.665
-0.4
-0.205
-0.16
0.565
0.265
-0.38
-1.12
-1.48
-0.75
-0.67
-0.34
-0.19
-0.13
0.6
0.225
-0.455
-1.19
-1.41
-0.735
-0.75
-0.29
-0.19
-0.185
0.595
0.26
-0.445
-1.23
-1.31
-0.75
-0.69
-0.17
-0.155
-0.15
0.585
0.145
-0.55
-1.265
-1.16
-0.63
-0.59
-0.18
-0.15
-0.065
0.62
0.11
-0.54
-1.255
-1.045
-0.615
-0.57
-0.12
-0.105
0.07
0.65
0.07
-0.625
-1.325
-1.05
-0.675
-0.615
-0.23
-0.125
0.11
0.51
-0.05
-0.72
-1.405
-1.025
-0.605
-0.535
-0.19
-0.165
0.22
0.535
-0.09
-0.765
-1.37
-0.92
-0.66
-0.55
-0.26
-0.175
0.285
0.495
-0.115
-0.79
-1.38
-0.9
-0.635
-0.495
-0.225
-0.16
0.36
0.455
-0.185
-0.785
-1.4
-0.85
-0.61
-0.48
-0.3
-0.21
0.385
0.385
-0.195
-0.84
-1.445
-0.89
-0.59
-0.415
-0.165
-0.075
0.53
0.49
-0.11
-0.735
-1.365
-0.72
-0.475
-0.295
-0.07
0.03
0.735
0.665
0.19
-0.36
-0.925
-0.285
-0.055
0.11
0.195
0.295
1.035
0.71
-0.125
-0.88
-1.56
-1.065
-1.005
-0.685
-0.51
-0.32
0.435
0.28
-0.34
-0.97
-1.47
-0.765
-0.675
-0.445
-0.295
-0.22
0.58
0.265
-0.385
-1.115
-1.455
-0.715
-0.665
-0.35
-0.185
-0.215
0.59
0.225
-0.45
-1.215
-1.4
-0.745
-0.715
-0.255
-0.16
-0.135
0.59
0.225
-0.58
-1.31
-1.285
-0.66
-0.655
-0.18
-0.105
-0.1
0.64
0.195
-0.575
-1.285
-1.17
-0.68
-0.665
-0.195
-0.15
-0.06
0.585
0.13
-0.575
-1.28
-1.055
-0.66
-0.58
-0.185
-0.14
0.075
0.645
0.065
-0.63
-1.29
-1.005
-0.64
-0.51
-0.15
-0.11
0.21
0.62
0.005
-0.575
-1.225
-0.8
-0.575
-0.455
-0.11
-0.045
0.325
0.7
0.05
-0.575
-1.23
-0.755
-0.49
-0.375
-0.12
0.04
0.535
0.72
0.17
-0.455
-1.12
-0.64
-0.345
-0.275
0.02
0.155
0.73
0.79
0.175
-0.49
-1.06
-0.49
-0.22
-0.145
0.08
0.145
0.785
0.78
0.165
-0.475
-1.05
-0.47
-0.25
-0.1
0.115
0.23
0.795
0.69
0.095
-0.545
-1.17
-0.565
-0.37
-0.225
-0.045
0.06
0.7
0.49
-0.12
-0.74
-1.29
-0.645
-0.5
-0.315
-0.18
-0.075
0.655
0.4
-0.175
-0.79
-1.4
-0.72
-0.53
-0.35
-0.205
-0.125
0.61
0.37
-0.28
-0.875
-1.38
-0.705
-0.65
-0.365
-0.195
-0.135
0.61
0.345
-0.345
-1.08
-1.395
-0.705
-0.665
-0.315
-0.19
-0.165
0.625
0.225
-0.415
-1.19
-1.315
-0.68
-0.695
-0.155
-0.195
-0.18
0.625
0.205
-0.535
-1.195
-1.21
-0.675
-0.725
-0.2
-0.14
-0.13
0.595
0.15
-0.55
-1.24
-1.17
-0.69
-0.64
-0.225
-0.2
-0.045
0.6
0.08
-0.585
-1.3
-1.065
-0.7
-0.615
-0.235
-0.105
0.055
0.56
0.03
-0.62
-1.31
-0.99
-0.62
-0.605
-0.31
-0.205
0.135
0.58
0.02
-0.635
-1.32
-0.945
-0.6
-0.53
-0.24
-0.18
0.23
0.6
-0.04
-0.735
-1.335
-0.885
-0.625
-0.52
-0.21
-0.13
0.345
0.525
-0.09
-0.775
-1.35
-0.83
-0.575
-0.475
-0.195
-0.13
0.39
0.45
-0.12
-0.775
-1.39
-0.87
-0.585
-0.445
-0.205
-0.105
0.46
0.425
-0.14
-0.81
-1.355
-0.82
-0.58
-0.415
-0.215
-0.135
0.475
0.405
-0.235
-0.83
-1.4
-0.775
-0.56
-0.41
-0.205
-0.08
0.555
0.405
-0.215
-0.835
-1.435
-0.81
-0.56
-0.435
-0.235
-0.125
0.66
0.38
-0.26
-0.83
-1.415
-0.735
-0.615
-0.355
-0.24
-0.17
0.55
0.355
-0.305
-0.84
-1.395
-0.735
-0.675
-0.325
-0.185
-0.14
0.6
0.305
-0.375
-1.065
-1.385
-0.7
-0.715
-0.285
-0.13
-0.135
0.615
0.24
-0.395
-1.14
-1.29
-0.69
-0.69
-0.21
-0.155
-0.205
0.635
0.25
-0.52
-1.22
-1.185
-0.64
-0.645
-0.18
-0.17
-0.12
0.65
0.18
-0.565
-1.255
-1.165
-0.69
-0.64
-0.19
-0.145
-0.02
0.63
0.08
-0.645
-1.27
-1.025
-0.615
-0.53
-0.195
-0.165
0.125
0.645
0.02
-0.635
-1.285
-1.0
-0.645
-0.55
-0.135
-0.08
0.23
0.64
0.04
-0.625
-1.31
-0.86
-0.545
-0.425
-0.155
-0.105
0.34
0.63
-0.03
-0.665
-1.235
-0.79
-0.54
-0.45
-0.155
-0.06
0.415
0.55
-0.095
-0.73
-1.375
-0.84
-0.555
-0.49
-0.21
-0.145
0.42
0.45
-0.11
-0.78
-1.365
-0.8
-0.565
-0.465
-0.195
-0.125
0.425
0.43
-0.13
-0.79
-1.44
-0.825
-0.59
-0.43
-0.21
-0.15
0.49
0.405
-0.19
-0.81
-1.395
-0.795
-0.57
-0.405
-0.25
-0.14
0.565
0.35
-0.22
-0.815
-1.36
-0.73
-0.515
-0.41
-0.235
-0.11
0.565
0.33
-0.285
-0.82
-1.345
-0.66
-0.525
-0.26
-0.08
-0.07
0.7
0.51
-0.15
-0.685
-1.165
-0.45
-0.38
-0.035
0.21
0.38
1.19
0.895
0.24
-0.54
-0.835
-0.19
-0.215
0.0
-0.08
-0.225
0.395
0.005
-0.69
-1.43
-1.49
-0.84
-0.83
-0.365
-0.21
-0.15
0.59
0.205
-0.495
-1.22
-1.185
-0.65
-0.62
-0.17
-0.165
-0.09
0.63
0.135
-0.6
-1.325
-1.165
-0.63
-0.59
-0.15
-0.125
-0.03
0.615
0.045
-0.625
-1.255
-1.045
-0.66
-0.545
-0.14
-0.1
0.115
0.635
0.085
-0.61
-1.28
-0.945
-0.62
-0.54
-0.175
-0.1
0.205
0.595
0.03
-0.68
-1.28
-0.845
-0.58
-0.465
-0.125
-0.1
0.305
0.615
0.02
-0.67
-1.3
-0.8
-0.535
-0.485
-0.19
-0.055
0.415
0.59
-0.02
-0.685
-1.295
-0.81
-0.535
-0.39
-0.125
-0.045
0.49
0.615
0.065
-0.62
-1.24
-0.71
-0.45
-0.32
-0.05
0.06
0.64
0.655
0.05
-0.595
-1.17
-0.565
-0.295
-0.2
0.075
0.18
0.8
0.675
0.07
-0.52
-1.095
-0.495
-0.175
-0.05
0.175
0.235
0.915
0.745
0.165
-0.43
-1.015
-0.355
-0.19
-0.015
0.17
0.29
0.97
0.695
0.065
-0.475
-1.03
-0.36
-0.235
-0.06
0.09
0.205
0.89
0.62
-0.01
-0.67
-1.15
-0.485
-0.425
-0.135
0.01
-0.03
0.725
0.415
-0.245
-0.96
-1.245
-0.56
-0.575
-0.235
-0.085
-0.085
0.69
0.355
-0.355
-1.13
-1.245
-0.615
-0.59
-0.155
-0.13
-0.085
0.665
0.295
-0.44
-1.18
-1.175
-0.645
-0.595
-0.135
-0.11
-0.085
0.64
0.21
-0.53
-1.255
-1.09
-0.625
-0.575
-0.185
-0.13
0.055
0.65
0.095
-0.55
-1.26
-1.015
-0.615
-0.55
-0.2
-0.145
0.09
0.665
0.095
-0.57
-1.27
-0.915
-0.57
-0.495
-0.19
-0.125
0.195
0.635
0.015
-0.68
-1.305
-0.91
-0.55
-0.47
-0.125
-0.085
0.275
0.585
-0.005
-0.665
-1.355
-0.9
-0.615
-0.46
-0.18
-0.105
0.385
0.535
-0.11
-0.75
-1.29
-0.815
-0.585
-0.465
-0.17
-0.075
0.46
0.515
-0.11
-0.715
-1.32
-0.79
-0.525
-0.415
-0.205
-0.08
0.54
0.45
-0.145
-0.815
-1.335
-0.785
-0.52
-0.39
-0.185
-0.11
0.56
0.465
-0.21
-0.8
-1.345
-0.76
-0.52
-0.375
-0.18
-0.12
0.56
0.395
-0.23
-0.88
-1.38
-0.63
-0.53
-0.33
-0.185
-0.1
0.625
0.37
-0.2
-0.8
-1.36
-0.71
-0.635
-0.34
-0.14
-0.11
0.635
0.4
-0.315
-0.985
-1.37
-0.67
-0.63
-0.29
-0.13
-0.09
0.63
0.31
-0.38
-1.1
-1.305
-0.63
-0.66
-0.235
-0.175
-0.115
0.655
0.265
-0.435
-1.12
-1.235
-0.665
-0.65
-0.235
-0.175
-0.08
0.675
0.19
-0.525
-1.215
-1.175
-0.65
-0.6
-0.1
-0.07
-0.045
0.645
0.135
-0.56
-1.235
-1.085
-0.67
-0.59
-0.12
-0.1
0.025
0.6
0.065
-0.58
-1.31
-1.04
-0.645
-0.51
-0.175
-0.1
0.12
0.58
0.02
-0.62
-1.305
-0.94
-0.57
-0.495
-0.145
-0.095
0.22
0.6
0.005
-0.735
-1.35
-0.88
-0.53
-0.455
-0.19
-0.115
0.355
0.565
-0.065
-0.715
-1.285
-0.835
-0.545
-0.425
-0.12
-0.07
0.425
0.555
-0.065
-0.705
-1.235
-0.735
-0.505
-0.425
-0.17
-0.065
0.485
0.53
-0.065
-0.66
-1.245
-0.72
-0.54
-0.39
-0.2
-0.15
0.52
0.48
-0.09
-0.78
-1.38
-0.745
-0.545
-0.41
-0.26
-0.14
0.55
0.425
-0.2
-0.82
-1.385
-0.71
-0.58
-0.385
-0.235
-0.12
0.55
0.41
-0.215
-0.81
-1.365
-0.73
-0.54
-0.39
-0.215
-0.1
0.605
0.39
-0.28
-0.83
-1.35
-0.7
-0.66
-0.39
-0.22
-0.12
0.61
0.275
-0.305
-0.965
-1.365
-0.66
-0.635
-0.315
-0.155
-0.135
0.59
0.285
-0.355
-1.07
-1.285
-0.585
-0.55
-0.135
-0.04
-0.04
0.71
0.35
-0.33
-1.005
-1.06
-0.425
-0.375
0.11
0.215
0.365
1.21
0.715
0.06
-0.62
-0.59
-0.155
-0.18
0.085
-0.075
-0.23
0.335
-0.155
-0.86
-1.49
-1.285
-0.81
-0.665
-0.25
-0.19
-0.025
0.545
0.005
-0.635
-1.28
-1.01
-0.665
-0.575
-0.18
-0.105
0.12
0.595
-0.025
-0.655
-1.295
-0.935
-0.625
-0.525
-0.195
-0.11
0.26
0.585
-0.005
-0.685
-1.31
-0.9
-0.58
-0.48
-0.175
-0.095
0.33
0.55
-0.005
-0.65
-1.295
-0.815
-0.58
-0.47
-0.205
-0.125
0.46
0.525
-0.095
-0.675
-1.285
-0.78
-0.545
-0.46
-0.175
-0.145
0.45
0.54
-0.08
-0.715
-1.31
-0.75
-0.515
-0.38
-0.17
-0.02
0.59
0.535
-0.09
-0.705
-1.26
-0.69
-0.485
-0.33
-0.145
-0.01
0.63
0.55
-0.01
-0.67
-1.275
-0.625
-0.415
-0.27
-0.05
0.075
0.74
0.57
0.025
-0.61
-1.175
-0.505
-0.32
-0.17
0.02
0.145
0.88
0.665
-0.005
-0.55
-1.055
-0.365
-0.255
0.01
0.16
0.225
0.95
0.725
0.07
-0.62
-1.025
-0.335
-0.31
0.06
0.225
0.275
1.025
0.685
-0.025
-0.775
-0.975
-0.37
-0.35
0.08
0.14
0.12
0.905
0.51
-0.225
-0.95
-1.06
-0.52
-0.445
0.0
0.025
0.02
0.73
0.28
-0.42
-1.15
-1.025
-0.54
-0.505
-0.065
-0.04
-0.03
0.655
0.19
-0.5
-1.215
-0.995
-0.56
-0.475
-0.1
-0.14
0.03
0.605
0.115
-0.59
-1.28
-0.99
-0.595
-0.49
-0.13
-0.075
0.18
0.65
0.06
-0.625
-1.32
-0.94
-0.57
-0.47
-0.175
-0.12
0.25
0.62
0.015
-0.615
-1.325
-0.89
-0.57
-0.475
-0.195
-0.115
0.345
0.565
-0.045
-0.71
-1.325
-0.815
-0.545
-0.43
-0.165
-0.135
0.395
0.525
-0.075
-0.645
-1.305
-0.82
-0.575
-0.44
-0.165
-0.095
0.48
0.455
-0.09
-0.715
-1.325
-0.795
-0.55
-0.435
-0.17
-0.095
0.545
0.48
-0.16
-0.785
-1.36
-0.79
-0.53
-0.42
-0.165
-0.07
0.555
0.42
-0.16
-0.745
-1.3
-0.71
-0.475
-0.34
-0.17
-0.09
0.57
0.35
-0.2
-0.735
-1.32
-0.75
-0.565
-0.31
-0.16
-0.035
0.685
0.4
-0.175
-0.77
-1.34
-0.68
-0.615
-0.28
-0.135
-0.065
0.69
0.41
-0.23
-0.98
-1.32
-0.635
-0.62
-0.31
-0.125
-0.045
0.695
0.35
-0.37
-1.1
-1.265
-0.64
-0.605
-0.165
-0.09
-0.085
0.635
0.32
-0.39
-1.12
-1.14
-0.555
-0.615
-0.135
-0.09
-0.01
0.68
0.26
-0.465
-1.195
-1.105
-0.585
-0.515
-0.115
-0.1
0.0
0.68
0.195
-0.515
-1.23
-0.98
-0.52
-0.485
-0.11
-0.07
0.115
0.68
0.125
-0.585
-1.285
-0.955
-0.585
-0.475
-0.105
-0.07
0.27
0.66
0.07
-0.585
-1.29
-0.855
-0.52
-0.41
-0.1
-0.06
0.31
0.63
0.055
-0.59
-1.245
-0.83
-0.52
-0.39
-0.09
-0.03
0.395
0.59
0.015
-0.64
-1.245
-0.765
-0.51
-0.37
-0.165
-0.035
0.525
0.6
0.015
-0.55
-1.15
-0.64
-0.445
-0.315
-0.045
-0.02
0.565
0.59
0.0
-0.63
-1.23
-0.655
-0.43
-0.325
-0.115
-0.01
0.595
0.465
-0.13
-0.74
-1.295
-0.685
-0.44
-0.295
-0.125
-0.07
0.63
0.455
-0.15
-0.74
-1.35
-0.645
-0.47
-0.36
-0.125
-0.03
0.67
0.48
-0.165
-0.74
-1.295
-0.615
-0.52
-0.265
-0.075
-0.06
0.63
0.36
-0.165
-0.75
-1.315
-0.625
-0.59
-0.29
-0.1
-0.025
0.72
0.375
-0.24
-0.955
-1.295
-0.615
-0.57
-0.225
-0.105
-0.015
0.75
0.43
-0.24
-1.06
-1.135
-0.5
-0.5
-0.065
0.06
0.055
0.835
0.44
-0.235
-0.865
-0.84
-0.215
-0.15
0.355
0.4
0.45
1.275
0.79
0.07
-0.71
-0.625
-0.275
-0.39
-0.125
-0.315
-0.265
0.445
-0.115
-0.75
-1.345
-1.085
-0.63
-0.59
-0.15
-0.04
0.13
0.6
0.08
-0.545
-1.245
-0.915
-0.555
-0.49
-0.095
-0.025
0.275
0.68
0.08
-0.555
-1.255
-0.855
-0.58
-0.485
-0.055
-0.01
0.385
0.71
0.09
-0.605
-1.275
-0.79
-0.47
-0.395
-0.165
-0.025
0.5
0.64
0.035
-0.595
-1.2
-0.745
-0.545
-0.39
-0.1
-0.025
0.53
0.635
-0.03
-0.645
-1.26
-0.715
-0.445
-0.31
-0.055
-0.015
0.595
0.615
0.035
-0.66
-1.245
-0.67
-0.41
-0.28
-0.025
0.07
0.72
0.58
-0.04
-0.65
-1.195
-0.575
-0.375
-0.255
-0.075
0.07
0.765
0.61
0.035
-0.6
-1.165
-0.5
-0.34
-0.14
0.025
0.145
0.835
0.705
0.115
-0.49
-1.06
-0.375
-0.255
-0.03
0.08
0.19
0.965
0.74
0.155
-0.49
-0.955
-0.245
-0.2
0.065
0.285
0.35
1.09
0.785
0.14
-0.655
-0.915
-0.205
-0.225
0.135
0.28
0.355
1.07
0.695
0.0
-0.72
-0.85
-0.28
-0.27
0.18
0.175
0.245
0.98
0.455
-0.28
-0.965
-0.88
-0.405
-0.37
0.065
0.065
0.1
0.85
0.345
-0.38
-1.09
-0.935
-0.49
-0.39
-0.06
0.03
0.16
0.735
0.245
-0.445
-1.125
-0.855
-0.505
-0.44
-0.075
0.0
0.24
0.73
0.17
-0.51
-1.185
-0.875
-0.565
-0.415
-0.055
0.015
0.31
0.7
0.065
-0.58
-1.175
-0.78
-0.48
-0.35
-0.095
-0.025
0.39
0.64
0.04
-0.555
-1.21
-0.74
-0.52
-0.39
-0.1
-0.005
0.495
0.675
0.11
-0.565
-1.265
-0.77
-0.475
-0.375
-0.07
-0.03
0.525
0.585
-0.01
-0.635
-1.25
-0.685
-0.465
-0.3
-0.09
0.035
0.645
0.575
-0.08
-0.725
-1.245
-0.675
-0.44
-0.33
-0.075
0.015
0.64
0.48
-0.08
-0.68
-1.25
-0.595
-0.435
-0.315
-0.1
0.005
0.67
0.475
-0.08
-0.655
-1.24
-0.58
-0.45
-0.285
-0.08
0.01
0.73
0.47
-0.125
-0.71
-1.295
-0.63
-0.48
-0.215
-0.105
0.02
0.76
0.5
-0.125
-0.825
-1.26
-0.59
-0.505
-0.165
-0.03
0.005
0.735
0.43
-0.245
-1.0
-1.225
-0.56
-0.57
-0.115
-0.04
0.02
0.77
0.42
-0.29
-1.055
-1.14
-0.525
-0.535
-0.05
-0.025
0.005
0.75
0.32
-0.415
-1.06
-1.075
-0.55
-0.49
-0.035
-0.025
0.04
0.765
0.26
-0.485
-1.19
-1.005
-0.485
-0.415
0.005
0.0
0.105
0.72
0.2
-0.535
-1.175
-0.89
-0.52
-0.415
-0.025
-0.01
0.25
0.725
0.14
-0.54
-1.17
-0.85
-0.495
-0.445
-0.065
0.015
0.4
0.74
0.1
-0.615
-1.21
-0.805
-0.51
-0.39
-0.07
0.045
0.45
0.66
0.07
-0.6
-1.255
-0.77
-0.46
-0.33
-0.155
-0.04
0.54
0.635
0.04
-0.61
-1.22
-0.725
-0.465
-0.355
-0.06
0.01
0.535
0.56
0.04
-0.63
-1.22
-0.68
-0.44
-0.295
-0.04
0.07
0.635
0.585
-0.02
-0.65
-1.235
-0.61
-0.39
-0.295
-0.11
-0.005
0.7
0.58
-0.02
-0.655
-1.255
-0.57
-0.37
-0.16
-0.005
0.085
0.77
0.545
-0.075
-0.64
-1.205
-0.565
-0.435
-0.25
-0.095
0.025
0.72
0.49
-0.105
-0.705
-1.29
-0.625
-0.545
-0.24
-0.05
0.05
0.75
0.5
-0.17
-0.9
-1.28
-0.62
-0.56
-0.23
-0.06
-0.06
0.75
0.41
-0.27
-0.97
-1.2
-0.57
-0.59
-0.155
-0.055
-0.015
0.705
0.355
-0.365
-1.05
-1.08
-0.505
-0.515
-0.06
-0.025
0.0
0.75
0.285
-0.5
-1.185
-1.04
-0.585
-0.535
-0.03
-0.035
0.04
0.765
0.28
-0.385
-1.055
-0.885
-0.465
-0.41
0.03
0.17
0.305
0.89
0.36
-0.33
-0.935
-0.57
-0.085
0.04
0.48
0.525
0.755
1.21
0.635
-0.01
-0.77
-0.53
-0.395
-0.45
-0.265
-0.27
0.05
0.45
-0.115
-0.72
-1.355
-0.875
-0.585
-0.455
-0.185
-0.065
0.435
0.625
-0.02
-0.61
-1.205
-0.755
-0.47
-0.41
-0.1
-0.055
0.515
0.61
-0.01
-0.65
-1.28
-0.72
-0.47
-0.345
-0.06
-0.015
0.545
0.54
-0.085
-0.695
-1.205
-0.655
-0.4
-0.24
-0.05
0.0
0.595
0.53
-0.03
-0.675
-1.26
-0.68
-0.45
-0.295
-0.105
-0.015
0.685
0.54
-0.06
-0.645
-1.18
-0.59
-0.375
-0.235
-0.075
0.025
0.705
0.475
-0.165
-0.655
-1.135
-0.485
-0.43
-0.245
-0.07
0.015
0.775
0.545
-0.07
-0.68
-1.23
-0.545
-0.44
-0.115
0.055
0.105
0.815
0.54
-0.065
-0.785
-1.095
-0.43
-0.425
-0.015
0.11
0.155
0.94
0.57
-0.08
-0.835
-0.97
-0.27
-0.295
0.13
0.24
0.295
1.035
0.645
-0.08
-0.77
-0.77
-0.165
-0.135
0.295
0.31
0.35
1.07
0.65
-0.08
-0.855
-0.695
-0.195
-0.075
0.32
0.345
0.46
1.06
0.53
-0.105
-0.82
-0.655
-0.24
-0.195
0.24
0.255
0.41
0.93
0.34
-0.32
-1.04
-0.675
-0.335
-0.255
0.07
0.095
0.405
0.81
0.265
-0.46
-1.125
-0.755
-0.44
-0.42
-0.09
0.07
0.445
0.75
0.175
-0.525
-1.195
-0.75
-0.455
-0.375
-0.1
-0.025
0.47
0.6
0.1
-0.61
-1.24
-0.725
-0.465
-0.32
-0.045
0.04
0.55
0.595
0.035
-0.62
-1.2
-0.66
-0.44
-0.37
-0.155
0.015
0.6
0.55
-0.035
-0.675
-1.275
-0.67
-0.47
-0.32
-0.085
-0.02
0.66
0.555
-0.045
-0.66
-1.25
-0.68
-0.445
-0.295
-0.13
0.0
0.66
0.515
-0.07
-0.705
-1.31
-0.705
-0.45
-0.265
-0.09
0.005
0.75
0.49
-0.135
-0.72
-1.24
-0.605
-0.56
-0.27
-0.1
0.03
0.74
0.51
-0.135
-0.81
-1.295
-0.59
-0.555
-0.22
-0.06
0.015
0.76
0.435
-0.23
-1.04
-1.335
-0.585
-0.535
-0.2
-0.025
-0.055
0.705
0.43
-0.265
-1.02
-1.17
-0.53
-0.555
-0.095
0.02
0.015
0.755
0.32
-0.41
-1.09
-1.045
-0.52
-0.54
-0.075
-0.045
0.03
0.8
0.24
-0.425
-1.12
-0.97
-0.53
-0.5
-0.055
-0.05
0.08
0.765
0.19
-0.575
-1.24
-0.925
-0.45
-0.38
-0.06
-0.005
0.24
0.72
0.175
-0.51
-1.225
-0.885
-0.51
-0.42
-0.075
-0.025
0.295
0.7
0.115
-0.585
-1.2
-0.805
-0.5
-0.43
-0.12
-0.045
0.4
0.66
0.095
-0.57
-1.26
-0.74
-0.495
-0.415
-0.14
-0.055
0.475
0.63
0.0
-0.64
-1.23
-0.705
-0.45
-0.35
-0.1
0.0
0.56
0.58
0.01
-0.675
-1.215
-0.665
-0.44
-0.335
-0.08
-0.03
0.52
0.52
-0.075
-0.67
-1.31
-0.67
-0.44
-0.31
-0.09
-0.005
0.57
0.49
-0.085
-0.675
-1.225
-0.635
-0.43
-0.38
-0.135
0.015
0.695
0.515
-0.115
-0.695
-1.245
-0.585
-0.425
-0.295
-0.1
0.02
0.715
0.485
-0.15
-0.715
-1.235
-0.545
-0.455
-0.24
-0.045
0.055
0.78
0.51
-0.145
-0.82
-1.235
-0.525
-0.52
-0.175
-0.035
-0.015
0.725
0.44
-0.185
-0.895
-1.18
-0.555
-0.56
-0.155
-0.085
-0.035
0.76
0.4
-0.325
-1.08
-1.185
-0.55
-0.53
-0.075
-0.02
-0.025
0.735
0.31
-0.39
-1.085
-1.105
-0.61
-0.55
-0.07
-0.055
0.005
0.725
0.22
-0.465
-1.15
-0.985
-0.56
-0.485
-0.085
-0.07
0.085
0.71
0.105
-0.53
-1.17
-0.895
-0.53
-0.415
-0.055
-0.045
0.23
0.675
0.115
-0.545
-1.19
-0.885
-0.505
-0.37
-0.015
0.04
0.41
0.73
0.115
-0.475
-1.12
-0.71
-0.41
-0.285
0.1
0.195
0.635
0.955
0.4
-0.185
-0.765
-0.24
0.03
0.13
0.45
0.455
0.875
0.885
0.115
-0.705
-1.47
-1.0
-0.73
-0.64
-0.31
-0.235
0.355
0.52
-0.085
-0.755
-1.32
-0.775
-0.515
-0.38
-0.095
-0.02
0.57
0.495
-0.07
-0.71
-1.285
-0.68
-0.48
-0.33
-0.11
-0.085
0.615
0.54
-0.095
-0.705
-1.28
-0.645
-0.425
-0.305
-0.095
-0.04
0.65
0.48
-0.1
-0.72
-1.25
-0.56
-0.475
-0.275
-0.135
0.005
0.715
0.475
-0.14
-0.695
-1.265
-0.62
-0.505
-0.22
-0.045
0.015
0.73
0.45
-0.13
-0.82
-1.255
-0.58
-0.55
-0.205
-0.03
0.07
0.9
0.555
-0.205
-1.005
-1.18
-0.515
-0.515
-0.1
-0.005
0.02
0.785
0.495
-0.245
-1.02
-1.075
-0.46
-0.41
0.05
0.11
0.11
0.875
0.475
-0.23
-0.96
-0.915
-0.375
-0.295
0.115
0.17
0.275
0.975
0.455
-0.18
-0.87
-0.68
-0.255
-0.135
0.245
0.265
0.435
1.015
0.52
-0.17
-0.845
-0.545
-0.165
-0.115
0.275
0.365
0.6
1.075
0.48
-0.24
-0.91
-0.49
-0.125
-0.045
0.31
0.31
0.685
1.0
0.38
-0.28
-0.965
-0.55
-0.28
-0.195
0.1
0.19
0.615
0.82
0.195
-0.47
-1.095
-0.63
-0.37
-0.25
-0.035
0.075
0.61
0.675
0.085
-0.585
-1.22
-0.69
-0.395
-0.3
-0.13
-0.01
0.555
0.585
-0.025
-0.65
-1.175
-0.67
-0.455
-0.28
-0.05
0.01
0.615
0.565
-0.03
-0.655
-1.26
-0.675
-0.44
-0.29
-0.1
0.0
0.665
0.58
-0.045
-0.7
-1.295
-0.625
-0.395
-0.285
-0.12
-0.015
0.67
0.465
-0.13
-0.715
-1.2
-0.575
-0.46
-0.24
-0.09
-0.035
0.67
0.485
-0.1
-0.725
-1.33
-0.625
-0.545
-0.26
-0.115
-0.055
0.725
0.435
-0.19
-0.925
-1.275
-0.535
-0.535
-0.21
-0.045
0.045
0.78
0.395
-0.34
-1.04
-1.185
-0.545
-0.515
-0.055
0.01
-0.05
0.705
0.32
-0.355
-1.085
-1.115
-0.575
-0.505
-0.01
0.075
0.025
0.715
0.25
-0.465
-1.165
-1.02
-0.56
-0.52
-0.045
-0.005
0.135
0.82
0.24
-0.525
-1.16
-0.96
-0.515
-0.42
-0.065
0.005
0.17
0.75
0.195
-0.495
-1.185
-0.905
-0.515
-0.44
-0.075
0.015
0.3
0.74
0.125
-0.545
-1.175
-0.76
-0.495
-0.375
-0.055
0.0
0.33
0.65
0.115
-0.53
-1.215
-0.79
-0.47
-0.385
-0.095
0.03
0.49
0.63
0.07
-0.64
-1.25
-0.74
-0.46
-0.34
-0.125
-0.025
0.5
0.575
0.035
-0.66
-1.325
-0.69
-0.43
-0.34
-0.075
0.0
0.565
0.565
-0.02
-0.67
-1.26
-0.695
-0.455
-0.31
-0.055
0.005
0.595
0.515
-0.04
-0.6
-1.235
-0.645
-0.465
-0.275
-0.065
-0.03
0.65
0.53
-0.095
-0.74
-1.265
-0.66
-0.49
-0.31
-0.1
0.045
0.71
0.475
-0.135
-0.685
-1.22
-0.61
-0.485
-0.27
-0.095
-0.005
0.71
0.48
-0.13
-0.665
-1.245
-0.56
-0.555
-0.265
0.0
0.075
0.735
0.47
-0.13
-0.895
-1.205
-0.52
-0.48
-0.07
0.04
0.065
0.84
0.415
-0.255
-0.99
-1.145
-0.585
-0.6
-0.12
0.0
-0.01
0.755
0.29
-0.325
-1.085
-1.1
-0.535
-0.51
-0.02
-0.035
-0.04
0.705
0.255
-0.425
-1.195
-1.09
-0.575
-0.53
-0.045
-0.015
0.09
0.79
0.25
-0.475
-1.185
-0.96
-0.535
-0.455
-0.105
-0.045
0.18
0.73
0.17
-0.5
-1.195
-0.93
-0.535
-0.45
-0.1
0.0
0.285
0.72
0.17
-0.565
-1.27
-0.855
-0.55
-0.375
-0.075
0.03
0.445
0.755
0.15
-0.495
-1.125
-0.65
-0.375
-0.285
-0.005
0.15
0.675
0.845
0.27
-0.245
-0.825
-0.2
0.065
0.16
0.395
0.45
1.015
1.025
0.345
-0.495
-1.235
-0.9
-0.755
-0.615
-0.39
-0.255
0.36
0.38
-0.165
-0.76
-1.3
-0.72
-0.425
-0.295
-0.085
-0.095
0.54
0.525
-0.1
-0.74
-1.355
-0.735
-0.405
-0.33
-0.155
0.005
0.68
0.525
-0.11
-0.76
-1.285
-0.65
-0.42
-0.29
-0.165
-0.07
0.655
0.5
-0.095
-0.665
-1.26
-0.605
-0.495
-0.285
-0.105
-0.01
0.725
0.49
-0.145
-0.765
-1.27
-0.6
-0.555
-0.25
-0.01
0.035
0.78
0.46
-0.21
-0.945
-1.23
-0.565
-0.52
-0.12
-0.005
0.08
0.755
0.41
-0.265
-1.015
-1.17
-0.59
-0.51
-0.045
0.025
0.09
0.84
0.385
-0.295
-0.995
-0.965
-0.435
-0.435
0.015
0.005
0.13
0.815
0.4
-0.275
-1.015
-0.815
-0.39
-0.315
0.115
0.115
0.255
0.95
0.475
-0.205
-0.91
-0.7
-0.305
-0.15
0.195
0.295
0.53
1.04
0.49
-0.175
-0.88
-0.54
-0.215
-0.065
0.27
0.34
0.655
1.055
0.45
-0.205
-0.86
-0.47
-0.2
-0.105
0.255
0.33
0.66
0.97
0.355
-0.275
-0.94
-0.51
-0.26
-0.135
0.135
0.215
0.715
0.795
0.19
-0.495
-1.12
-0.61
-0.39
-0.29
-0.045
0.015
0.61
0.645
0.075
-0.6
-1.22
-0.695
-0.405
-0.26
-0.055
0.035
0.605
0.56
0.005
-0.655
-1.25
-0.645
-0.455
-0.345
-0.13
-0.02
0.665
0.535
-0.09
-0.65
-1.205
-0.63
-0.43
-0.32
-0.11
-0.035
0.685
0.455
-0.115
-0.71
-1.28
-0.635
-0.465
-0.28
-0.11
-0.04
0.685
0.465
-0.13
-0.72
-1.34
-0.62
-0.495
-0.27
-0.08
0.005
0.705
0.46
-0.12
-0.745
-1.275
-0.59
-0.55
-0.28
-0.115
-0.025
0.69
0.385
-0.295
-0.995
-1.255
-0.615
-0.57
-0.155
-0.01
0.03
0.66
0.35
-0.295
-1.065
-1.15
-0.535
-0.57
-0.135
-0.065
-0.015
0.715
0.325
-0.415
-1.06
-1.04
-0.51
-0.54
-0.095
-0.06
0.01
0.73
0.255
-0.505
-1.14
-0.985
-0.52
-0.48
-0.08
-0.01
0.115
0.71
0.2
-0.5
-1.185
-0.905
-0.49
-0.41
-0.11
-0.03
0.205
0.725
0.155
-0.56
-1.205
-0.885
-0.48
-0.405
-0.14
-0.065
0.31
0.715
0.1
-0.56
-1.24
-0.785
-0.495
-0.355
-0.045
-0.035
0.37
0.675
0.08
-0.585
-1.24
-0.76
-0.47
-0.355
-0.115
-0.035
0.525
0.65
0.015
-0.655
-1.225
-0.7
-0.465
-0.375
-0.13
0.015
0.56
0.585
0.025
-0.59
-1.215
-0.705
-0.485
-0.36
-0.13
-0.04
0.54
0.555
-0.065
-0.64
-1.205
-0.615
-0.395
-0.315
-0.165
-0.03
0.665
0.54
-0.07
-0.695
-1.225
-0.59
-0.42
-0.32
-0.115
0.025
0.675
0.48
-0.125
-0.725
-1.245
-0.585
-0.455
-0.255
-0.05
0.015
0.685
0.48
-0.16
-0.73
-1.28
-0.62
-0.48
-0.23
-0.1
0.015
0.75
0.465
-0.155
-0.83
-1.345
-0.6
-0.505
-0.14
0.005
0.04
0.8
0.45
-0.235
-1.015
-1.225
-0.56
-0.545
-0.15
-0.015
0.11
0.835
0.435
-0.29
-1.02
-1.1
-0.495
-0.505
-0.05
0.055
0.085
0.815
0.375
-0.335
-1.055
-0.985
-0.45
-0.41
0.005
0.06
0.085
0.795
0.29
-0.41
-1.08
-0.94
-0.485
-0.465
-0.03
-0.005
0.135
0.74
0.25
-0.42
-1.13
-0.885
-0.54
-0.43
-0.04
-0.03
0.235
0.735
0.165
-0.515
-1.185
-0.835
-0.51
-0.395
-0.055
0.025
0.345
0.69
-0.015
-0.64
-1.205
-0.82
-0.48
-0.33
-0.085
-0.01
0.405
0.715
0.105
-0.555
-1.22
-0.785
-0.505
-0.365
-0.06
-0.015
0.465
0.6
0.035
-0.615
-1.185
-0.68
-0.5
-0.345
-0.005
0.04
0.635
0.67
0.11
-0.575
-1.155
-0.535
-0.33
-0.22
0.05
0.13
0.775
0.81
0.345
-0.205
-0.72
-0.045
0.13
0.255
0.4
0.515
1.095
0.875
0.145
-0.645
-1.325
-0.84
-0.735
-0.57
-0.345
-0.2
0.485
0.34
-0.19
-0.76
-1.32
-0.635
-0.47
-0.31
-0.1
-0.02
0.675
0.46
-0.15
-0.725
-1.245
-0.63
-0.575
-0.22
-0.075
-0.05
0.645
0.42
-0.15
-0.815
-1.235
-0.59
-0.56
-0.205
-0.015
0.0
0.675
0.46
-0.195
-0.975
-1.14
-0.495
-0.52
-0.15
-0.08
-0.025
0.74
0.385
-0.29
-1.05
-1.1
-0.55
-0.52
-0.06
0.05
0.1
0.78
0.3
-0.405
-1.075
-1.04
-0.525
-0.445
-0.005
-0.04
0.105
0.835
0.285
-0.43
-1.115
-0.92
-0.45
-0.385
0.015
0.11
0.265
0.815
0.29
-0.435
-1.09
-0.79
-0.4
-0.26
0.07
0.09
0.37
0.855
0.285
-0.365
-1.075
-0.705
-0.32
-0.195
0.125
0.145
0.545
0.91
0.305
-0.325
-0.945
-0.465
-0.2
-0.125
0.24
0.345
0.78
1.01
0.47
-0.245
-0.945
-0.48
-0.13
0.03
0.29
0.36
0.865
1.03
0.42
-0.26
-0.84
-0.305
-0.09
0.025
0.255
0.295
0.905
0.97
0.35
-0.365
-0.945
-0.435
-0.245
-0.125
0.085
0.195
0.76
0.675
0.16
-0.475
-1.12
-0.52
-0.285
-0.17
0.02
0.095
0.715
0.565
0.015
-0.61
-1.15
-0.555
-0.37
-0.26
-0.1
0.02
0.74
0.545
-0.07
-0.675
-1.23
-0.565
-0.43
-0.21
-0.065
0.015
0.685
0.53
-0.09
-0.7
-1.24
-0.555
-0.525
-0.22
-0.035
0.055
0.77
0.485
-0.185
-0.9
-1.275
-0.595
-0.565
-0.18
-0.005
-0.04
0.72
0.395
-0.24
-0.975
-1.165
-0.51
-0.495
-0.115
-0.045
-0.04
0.75
0.415
-0.36
-1.05
-1.165
-0.54
-0.485
-0.04
-0.005
0.02
0.77
0.3
-0.36
-1.09
-1.04
-0.53
-0.48
-0.01
0.02
0.13
0.805
0.27
-0.47
-1.19
-1.0
-0.505
-0.415
-0.03
-0.01
0.19
0.75
0.205
-0.455
-1.145
-0.86
-0.49
-0.42
-0.04
-0.01
0.25
0.695
0.13
-0.54
-1.2
-0.8
-0.475
-0.37
-0.05
-0.005
0.39
0.71
0.1
-0.51
-1.205
-0.75
-0.445
-0.36
-0.08
0.01
0.525
0.68
0.08
-0.57
-1.215
-0.73
-0.485
-0.295
-0.045
0.02
0.555
0.645
0.05
-0.62
-1.225
-0.635
-0.39
-0.35
-0.085
0.0
0.555
0.595
-0.03
-0.675
-1.225
-0.665
-0.43
-0.335
-0.125
0.0
0.675
0.545
-0.095
-0.73
-1.23
-0.595
-0.39
-0.275
-0.095
0.03
0.66
0.48
-0.085
-0.665
-1.225
-0.6
-0.44
-0.305
-0.04
0.075
0.685
0.455
-0.095
-0.715
-1.25
-0.57
-0.47
-0.335
-0.09
-0.01
0.77
0.51
-0.145
-0.685
-1.205
-0.59
-0.54
-0.28
-0.1
0.04
0.77
0.49
-0.195
-0.965
-1.28
-0.545
-0.51
-0.2
-0.06
0.01
0.755
0.365
-0.41
-1.075
-1.11
-0.515
-0.515
-0.04
0.0
-0.025
0.75
0.39
-0.275
-1.06
-1.11
-0.565
-0.505
-0.02
0.035
-0.01
0.73
0.285
-0.38
-1.06
-0.945
-0.495
-0.47
-0.075
-0.02
0.125
0.785
0.23
-0.39
-1.065
-0.895
-0.435
-0.42
-0.02
0.025
0.195
0.805
0.24
-0.43
-1.07
-0.81
-0.475
-0.415
0.02
0.075
0.31
0.735
0.125
-0.515
-1.17
-0.82
-0.505
-0.405
-0.065
-0.055
0.34
0.64
0.045
-0.59
-1.22
-0.79
-0.515
-0.395
-0.075
0.02
0.49
0.62
0.005
-0.61
-1.26
-0.735
-0.465
-0.36
-0.11
-0.055
0.53
0.605
0.03
-0.635
-1.285
-0.74
-0.45
-0.325
-0.1
-0.05
0.54
0.51
-0.055
-0.725
-1.265
-0.675
-0.475
-0.305
-0.105
0.03
0.61
0.485
-0.065
-0.645
-1.225
-0.545
-0.27
-0.235
-0.06
0.04
0.735
0.615
-0.01
-0.59
-1.105
-0.39
-0.115
0.09
0.335
0.455
1.22
0.995
0.415
-0.16
-0.76
-0.205
-0.19
-0.135
-0.13
-0.205
0.44
0.215
-0.42
-0.98
-1.47
-0.775
-0.715
-0.4
-0.13
-0.065
0.655
0.44
-0.215
-0.965
-1.32
-0.61
-0.535
-0.195
-0.115
-0.075
0.685
0.35
-0.325
-1.105
-1.185
-0.54
-0.565
-0.14
-0.05
0.04
0.715
0.31
-0.35
-1.105
-1.12
-0.615
-0.525
-0.06
-0.045
-0.015
0.75
0.32
-0.425
-1.12
-1.025
-0.545
-0.49
-0.07
-0.045
0.05
0.74
0.25
-0.45
-1.2
-0.98
-0.535
-0.455
-0.015
-0.02
0.17
0.72
0.13
-0.46
-1.095
-0.795
-0.465
-0.375
-0.025
0.045
0.365
0.785
0.12
-0.53
-1.14
-0.74
-0.43
-0.31
0.035
0.04
0.445
0.785
0.14
-0.505
-1.095
-0.615
-0.365
-0.295
0.04
0.1
0.575
0.78
0.225
-0.435
-1.06
-0.47
-0.25
-0.12
0.165
0.255
0.73
0.845
0.245
-0.4
-1.06
-0.415
-0.12
0.01
0.25
0.33
0.9
0.905
0.285
-0.39
-0.96
-0.305
-0.085
0.02
0.255
0.37
0.98
0.87
0.295
-0.36
-0.975
-0.38
-0.225
-0.065
0.2
0.295
0.875
0.695
0.16
-0.53
-1.11
-0.465
-0.335
-0.16
0.065
0.105
0.785
0.535
-0.04
-0.625
-1.215
-0.52
-0.405
-0.21
-0.04
0.055
0.74
0.46
-0.14
-0.765
-1.31
-0.575
-0.48
-0.215
0.0
-0.025
0.76
0.485
-0.205
-0.985
-1.285
-0.63
-0.585
-0.21
-0.045
0.05
0.745
0.385
-0.275
-1.06
-1.18
-0.555
-0.585
-0.085
-0.015
0.0
0.725
0.325
-0.405
-1.15
-1.11
-0.555
-0.51
-0.11
-0.04
-0.015
0.745
0.31
-0.425
-1.15
-1.015
-0.56
-0.47
-0.065
-0.075
0.04
0.72
0.185
-0.495
-1.19
-0.92
-0.505
-0.41
-0.07
-0.035
0.135
0.665
0.18
-0.45
-1.165
-0.885
-0.51
-0.44
-0.11
-0.04
0.275
0.67
0.085
-0.515
-1.17
-0.805
-0.53
-0.42
-0.105
-0.065
0.37
0.67
0.1
-0.56
-1.225
-0.785
-0.515
-0.41
-0.1
-0.07
0.465
0.59
0.075
-0.61
-1.22
-0.7
-0.46
-0.33
-0.075
-0.07
0.485
0.6
0.015
-0.585
-1.245
-0.7
-0.47
-0.29
-0.08
-0.04
0.535
0.545
-0.015
-0.66
-1.255
-0.66
-0.5
-0.275
-0.05
0.005
0.64
0.5
-0.085
-0.725
-1.275
-0.655
-0.415
-0.29
-0.145
-0.055
0.67
0.56
-0.055
-0.69
-1.275
-0.645
-0.45
-0.245
-0.11
-0.1
0.675
0.48
-0.16
-0.67
-1.255
-0.625
-0.53
-0.21
-0.07
0.0
0.715
0.485
-0.175
-0.8
-1.24
-0.585
-0.535
-0.255
-0.06
-0.02
0.695
0.395
-0.285
-1.035
-1.24
-0.525
-0.52
-0.165
-0.1
0.035
0.76
0.34
-0.305
-1.045
-1.18
-0.595
-0.545
-0.11
-0.025
-0.02
0.69
0.33
-0.375
-1.13
-1.065
-0.525
-0.52
-0.03
0.02
0.085
0.78
0.23
-0.475
-1.18
-1.03
-0.515
-0.42
0.005
0.015
0.11
0.74
0.205
-0.495
-1.115
-0.855
-0.44
-0.345
0.0
0.015
0.295
0.79
0.215
-0.48
-1.185
-0.81
-0.52
-0.425
-0.06
0.025
0.325
0.675
0.05
-0.525
-1.185
-0.79
-0.49
-0.35
-0.01
-0.03
0.3
0.64
-0.015
-0.605
-1.245
-0.74
-0.49
-0.405
-0.105
-0.01
0.47
0.595
0.035
-0.655
-1.335
-0.71
-0.455
-0.325
-0.05
0.025
0.585
0.555
-0.035
-0.66
-1.275
-0.69
-0.5
-0.355
-0.13
-0.02
0.535
0.52
-0.065
-0.735
-1.245
-0.64
-0.415
-0.275
-0.095
-0.1
0.59
0.565
0.005
-0.64
-1.225
-0.555
-0.32
-0.23
-0.02
0.085
0.75
0.605
0.03
-0.55
-1.03
-0.34
-0.1
0.095
0.4
0.475
1.175
0.945
0.35
-0.265
-0.855
-0.32
-0.45
-0.38
-0.325
-0.3
0.46
0.23
-0.375
-0.985
-1.415
-0.705
-0.72
-0.335
-0.08
-0.035
0.73
0.425
-0.28
-1.075
-1.295
-0.555
-0.58
-0.155
-0.07
-0.045
0.71
0.37
-0.36
-1.075
-1.15
-0.57
-0.555
-0.03
0.005
-0.015
0.705
0.3
-0.39
-1.08
-1.045
-0.545
-0.525
-0.08
-0.1
-0.025
0.7
0.215
-0.415
-1.075
-0.95
-0.465
-0.445
-0.045
-0.04
0.11
0.73
0.2
-0.495
-1.195
-0.93
-0.49
-0.405
-0.035
0.025
0.26
0.75
0.17
-0.46
-1.105
-0.83
-0.49
-0.355
-0.02
0.08
0.365
0.735
0.17
-0.49
-1.165
-0.74
-0.42
-0.29
0.04
0.04
0.485
0.77
0.18
-0.455
-1.11
-0.645
-0.32
-0.275
0.055
0.2
0.675
0.815
0.225
-0.44
-1.03
-0.45
-0.255
-0.13
0.19
0.315
0.805
0.845
0.205
-0.34
-0.955
-0.325
-0.07
0.035
0.255
0.34
0.925
0.865
0.315
-0.32
-0.885
-0.33
-0.065
0.095
0.265
0.385
0.99
0.855
0.235
-0.45
-0.96
-0.325
-0.14
-0.035
0.175
0.2
0.895
0.725
0.095
-0.535
-1.09
-0.5
-0.405
-0.185
0.075
0.115
0.745
0.57
-0.02
-0.615
-1.165
-0.545
-0.5
-0.205
-0.06
0.03
0.76
0.475
-0.12
-0.78
-1.28
-0.59
-0.545
-0.205
-0.015
0.035
0.78
0.4
-0.28
-0.97
-1.21
-0.59
-0.55
-0.085
-0.005
0.015
0.74
0.345
-0.335
-1.015
-1.145
-0.575
-0.59
-0.07
-0.02
0.02
0.745
0.28
-0.38
-1.06
-1.035
-0.57
-0.47
-0.015
-0.035
-0.045
0.715
0.27
-0.375
-1.115
-0.98
-0.5
-0.445
-0.05
0.0
0.14
0.73
0.175
-0.505
-1.2
-0.92
-0.565
-0.485
-0.075
0.02
0.315
0.75
0.14
-0.515
-1.195
-0.85
-0.515
-0.39
-0.08
-0.045
0.285
0.7
0.145
-0.485
-1.17
-0.79
-0.46
-0.39
-0.09
0.03
0.435
0.71
0.065
-0.585
-1.245
-0.775
-0.49
-0.32
-0.025
-0.005
0.51
0.66
0.065
-0.605
-1.24
-0.725
-0.425
-0.32
-0.13
-0.035
0.525
0.615
0.06
-0.68
-1.255
-0.66
-0.47
-0.29
-0.06
-0.025
0.6
0.565
-0.025
-0.67
-1.255
-0.675
-0.415
-0.22
-0.05
0.0
0.645
0.535
-0.055
-0.7
-1.285
-0.625
-0.435
-0.28
-0.065
-0.01
0.63
0.475
-0.09
-0.67
-1.255
-0.65
-0.42
-0.225
-0.055
-0.015
0.705
0.435
-0.11
-0.75
-1.27
-0.575
-0.51
-0.355
-0.105
-0.02
0.74
0.47
-0.185
-0.825
-1.215
-0.57
-0.58
-0.185
-0.035
-0.02
0.77
0.46
-0.25
-1.035
-1.235
-0.605
-0.575
-0.15
-0.05
0.04
0.78
0.345
-0.37
-1.095
-1.135
-0.515
-0.545
-0.11
-0.035
0.005
0.77
0.31
-0.395
-1.13
-1.04
-0.525
-0.515
-0.015
0.01
0.025
0.725
0.245
-0.44
-1.125
-0.97
-0.525
-0.49
-0.095
-0.01
0.125
0.74
0.255
-0.465
-1.11
-0.855
-0.45
-0.395
0.0
-0.015
0.29
0.825
0.205
-0.475
-1.12
-0.79
-0.46
-0.375
-0.045
0.02
0.415
0.71
0.095
-0.56
-1.22
-0.785
-0.435
-0.41
-0.12
0.0
0.435
0.645
0.04
-0.61
-1.225
-0.775
-0.515
-0.385
-0.16
-0.04
0.55
0.65
0.04
-0.58
-1.215
-0.695
-0.515
-0.37
-0.11
-0.045
0.515
0.53
-0.025
-0.675
-1.285
-0.705
-0.46
-0.335
-0.09
0.015
0.58
0.51
-0.08
-0.685
-1.23
-0.665
-0.46
-0.395
-0.11
-0.015
0.67
0.525
-0.07
-0.78
-1.28
-0.575
-0.335
-0.155
-0.07
0.0
0.725
0.615
0.045
-0.585
-1.195
-0.465
-0.23
0.015
0.245
0.39
1.12
0.925
0.355
-0.2
-0.755
-0.08
-0.05
0.155
0.25
0.13
0.735
0.315
-0.43
-1.205
-1.56
-0.845
-0.74
-0.39
-0.16
-0.105
0.615
0.355
-0.27
-1.0
-1.24
-0.585
-0.635
-0.23
-0.03
-0.055
0.71
0.36
-0.32
-1.06
-1.145
-0.585
-0.555
-0.12
-0.02
0.02
0.73
0.285
-0.41
-1.105
-1.095
-0.6
-0.475
-0.05
-0.055
0.015
0.745
0.22
-0.515
-1.145
-0.99
-0.53
-0.44
-0.045
-0.05
0.16
0.725
0.145
-0.495
-1.205
-0.9
-0.5
-0.415
-0.045
0.0
0.285
0.785
0.18
-0.555
-1.185
-0.835
-0.495
-0.39
-0.025
0.04
0.405
0.765
0.135
-0.505
-1.155
-0.715
-0.455
-0.38
-0.04
0.025
0.49
0.73
0.145
-0.595
-1.16
-0.64
-0.35
-0.25
-0.02
0.075
0.705
0.765
0.18
-0.48
-1.06
-0.52
-0.28
-0.18
0.105
0.185
0.77
0.84
0.24
-0.385
-0.98
-0.36
-0.105
-0.02
0.195
0.245
0.92
0.85
0.275
-0.365
-0.92
-0.37
-0.115
0.03
0.24
0.335
1.02
0.83
0.19
-0.37
-0.895
-0.31
-0.1
-0.025
0.14
0.25
0.92
0.725
0.145
-0.45
-1.0
-0.4
-0.275
-0.085
0.065
0.135
0.83
0.565
-0.045
-0.655
-1.215
-0.495
-0.42
-0.21
-0.075
0.005
0.77
0.52
-0.15
-0.87
-1.245
-0.555
-0.57
-0.27
-0.05
0.0
0.755
0.42
-0.27
-1.035
-1.245
-0.56
-0.54
-0.105
-0.045
-0.005
0.775
0.385
-0.36
-1.08
-1.15
-0.58
-0.58
-0.06
-0.095
0.0
0.735
0.275
-0.465
-1.105
-1.015
-0.515
-0.505
-0.035
-0.045
0.03
0.75
0.245
-0.495
-1.175
-0.945
-0.565
-0.49
-0.035
-0.04
0.1
0.72
0.165
-0.52
-1.2
-0.915
-0.53
-0.455
-0.125
-0.055
0.33
0.745
0.105
-0.59
-1.24
-0.88
-0.565
-0.425
-0.1
0.01
0.35
0.725
0.115
-0.555
-1.275
-0.84
-0.545
-0.345
-0.065
-0.01
0.455
0.69
0.02
-0.65
-1.275
-0.775
-0.43
-0.34
-0.105
-0.005
0.515
0.585
0.015
-0.64
-1.29
-0.74
-0.47
-0.305
-0.03
-0.005
0.545
0.545
-0.075
-0.68
-1.22
-0.685
-0.455
-0.335
-0.155
-0.025
0.62
0.52
-0.04
-0.685
-1.26
-0.705
-0.42
-0.285
-0.12
-0.025
0.66
0.52
-0.06
-0.665
-1.255
-0.615
-0.455
-0.245
-0.11
-0.04
0.685
0.45
-0.155
-0.74
-1.27
-0.645
-0.53
-0.295
-0.085
0.03
0.715
0.445
-0.14
-0.75
-1.31
-0.59
-0.54
-0.27
-0.07
-0.065
0.75
0.495
-0.155
-0.865
-1.325
-0.605
-0.6
-0.225
-0.055
-0.05
0.72
0.425
-0.265
-1.035
-1.215
-0.595
-0.565
-0.1
-0.07
-0.065
0.675
0.305
-0.36
-1.06
-1.165
-0.615
-0.525
-0.08
-0.055
-0.025
0.76
0.31
-0.4
-1.105
-1.02
-0.61
-0.555
-0.105
-0.03
0.015
0.715
0.195
-0.45
-1.18
-1.02
-0.525
-0.44
-0.03
-0.005
0.11
0.69
0.135
-0.545
-1.205
-0.905
-0.515
-0.42
-0.06
-0.025
0.225
0.695
0.105
-0.545
-1.22
-0.795
-0.46
-0.37
-0.02
0.015
0.435
0.75
0.135
-0.54
-1.21
-0.76
-0.415
-0.325
-0.055
0.035
0.49
0.72
0.07
-0.62
-1.24
-0.685
-0.445
-0.41
-0.145
-0.02
0.58
0.61
0.0
-0.635
-1.295
-0.745
-0.485
-0.35
-0.145
-0.025
0.54
0.475
-0.07
-0.69
-1.28
-0.665
-0.49
-0.375
-0.125
-0.02
0.615
0.515
-0.06
-0.715
-1.32
-0.69
-0.45
-0.33
-0.17
-0.055
0.655
0.475
-0.09
-0.71
-1.265
-0.64
-0.495
-0.325
-0.145
-0.065
0.675
0.425
-0.17
-0.735
-1.36
-0.605
-0.49
-0.29
-0.14
-0.05
0.71
0.5
-0.08
-0.63
-1.21
-0.515
-0.425
-0.135
0.04
0.155
0.94
0.62
0.035
-0.63
-0.845
-0.145
0.0
0.35
0.47
0.495
1.26
0.825
0.1
-0.735
-1.135
-0.67
-0.76
-0.39
-0.305
-0.32
0.5
0.12
-0.58
-1.24
-1.215
-0.65
-0.625
-0.155
-0.045
-0.075
0.725
0.22
-0.44
-1.145
-1.08
-0.58
-0.55
-0.125
-0.01
0.035
0.71
0.165
-0.52
-1.195
-0.915
-0.555
-0.485
-0.03
-0.04
0.185
0.71
0.12
-0.555
-1.26
-0.92
-0.54
-0.435
-0.07
-0.035
0.305
0.695
0.085
-0.525
-1.255
-0.9
-0.52
-0.375
-0.035
0.05
0.4
0.615
-0.005
-0.63
-1.185
-0.675
-0.46
-0.36
-0.04
-0.015
0.455
0.665
0.05
-0.57
-1.185
-0.715
-0.45
-0.315
-0.09
0.05
0.595
0.63
0.02
-0.595
-1.145
-0.62
-0.4
-0.26
-0.035
0.055
0.63
0.59
0.075
-0.53
-1.1
-0.5
-0.285
-0.155
0.06
0.145
0.745
0.715
0.07
-0.525
-1.06
-0.405
-0.22
-0.065
0.195
0.285
0.97
0.825
0.205
-0.445
-1.0
-0.34
-0.13
0.07
0.24
0.325
0.995
0.815
0.22
-0.43
-1.02
-0.33
-0.115
0.055
0.26
0.355
1.045
0.755
0.115
-0.485
-1.03
-0.36
-0.295
0.005
0.205
0.21
0.935
0.6
-0.055
-0.86
-1.18
-0.425
-0.38
-0.075
0.02
0.08
0.785
0.43
-0.265
-0.995
-1.13
-0.5
-0.54
-0.105
-0.065
-0.025
0.705
0.3
-0.39
-1.125
-1.075
-0.535
-0.465
-0.045
-0.055
-0.015
0.745
0.23
-0.51
-1.205
-1.04
-0.515
-0.455
-0.05
-0.02
0.065
0.695
0.19
-0.49
-1.19
-0.945
-0.515
-0.435
-0.04
-0.055
0.095
0.575
0.115
-0.495
-1.2
-0.885
-0.545
-0.445
-0.12
-0.055
0.29
0.72
0.05
-0.635
-1.24
-0.82
-0.54
-0.38
-0.1
-0.04
0.335
0.62
0.025
-0.655
-1.255
-0.78
-0.55
-0.41
-0.14
-0.015
0.47
0.58
0.01
-0.6
-1.24
-0.765
-0.5
-0.34
-0.05
-0.05
0.515
0.53
-0.035
-0.7
-1.325
-0.75
-0.505
-0.35
-0.105
-0.05
0.56
0.515
-0.035
-0.7
-1.3
-0.73
-0.49
-0.33
-0.1
-0.02
0.585
0.485
-0.08
-0.7
-1.31
-0.695
-0.48
-0.305
-0.06
0.01
0.64
0.48
-0.125
-0.725
-1.285
-0.685
-0.47
-0.32
-0.09
-0.015
0.685
0.515
-0.14
-0.78
-1.35
-0.67
-0.525
-0.335
-0.19
-0.06
0.68
0.43
-0.16
-0.8
-1.255
-0.675
-0.575
-0.195
-0.055
-0.05
0.73
0.365
-0.335
-1.02
-1.26
-0.62
-0.6
-0.17
-0.065
-0.015
0.705
0.355
-0.35
-1.075
-1.195
-0.615
-0.645
-0.125
-0.025
0.005
0.755
0.25
-0.43
-1.12
-1.1
-0.595
-0.555
-0.12
-0.105
-0.05
0.665
0.095
-0.485
-1.085
-0.98
-0.555
-0.51
-0.095
-0.085
0.06
0.705
0.155
-0.555
-1.225
-0.95
-0.565
-0.475
-0.12
-0.095
0.17
0.685
0.115
-0.55
-1.195
-0.91
-0.535
-0.44
-0.09
-0.065
0.275
0.69
-0.005
-0.58
-1.19
-0.845
-0.51
-0.415
-0.175
-0.1
0.345
0.645
0.055
-0.67
-1.26
-0.725
-0.505
-0.435
-0.07
0.005
0.5
0.65
0.01
-0.61
-1.195
-0.715
-0.505
-0.315
-0.04
0.015
0.575
0.635
0.08
-0.61
-1.205
-0.68
-0.475
-0.37
-0.12
-0.025
0.535
0.495
-0.055
-0.695
-1.345
-0.695
-0.505
-0.385
-0.215
-0.01
0.635
0.455
-0.14
-0.7
-1.27
-0.69
-0.48
-0.33
-0.135
-0.02
0.6
0.455
-0.14
-0.775
-1.31
-0.68
-0.51
-0.335
-0.16
-0.04
0.66
0.405
-0.165
-0.735
-1.285
-0.625
-0.59
-0.37
-0.17
-0.025
0.735
0.415
-0.2
-0.835
-1.295
-0.65
-0.625
-0.25
-0.095
-0.105
0.735
0.49
-0.24
-0.93
-1.17
-0.51
-0.535
-0.125
0.04
0.035
0.8
0.445
-0.215
-0.895
-0.955
-0.325
-0.23
0.34
0.44
0.455
1.21
0.77
0.105
-0.61
-0.705
-0.305
-0.43
-0.135
-0.265
-0.3
0.435
-0.02
-0.69
-1.395
-1.195
-0.695
-0.555
-0.16
-0.13
0.04
0.685
0.185
-0.575
-1.25
-0.975
-0.575
-0.49
-0.125
-0.035
0.235
0.695
0.105
-0.55
-1.19
-0.895
-0.515
-0.39
-0.095
-0.075
0.24
0.67
0.085
-0.575
-1.255
-0.8
-0.52
-0.4
-0.095
-0.065
0.35
0.655
0.05
-0.66
-1.2
-0.74
-0.555
-0.4
-0.085
-0.06
0.505
0.575
0.02
-0.65
-1.26
-0.695
-0.425
-0.365
-0.08
0.03
0.555
0.6
-0.005
-0.66
-1.265
-0.695
-0.42
-0.295
-0.01
0.045
0.655
0.62
0.0
-0.665
-1.235
-0.635
-0.45
-0.275
0.02
0.09
0.735
0.59
0.04
-0.595
-1.165
-0.535
-0.365
-0.175
0.045
0.145
0.795
0.645
0.09
-0.52
-1.11
-0.425
-0.26
-0.045
0.145
0.28
1.015
0.74
0.135
-0.38
-1.0
-0.33
-0.19
0.035
0.205
0.315
1.065
0.775
0.135
-0.48
-0.84
-0.205
-0.215
0.025
0.265
0.31
1.06
0.75
0.06
-0.7
-0.875
-0.26
-0.265
0.085
0.185
0.2
0.945
0.57
-0.155
-0.88
-1.055
-0.47
-0.435
0.07
0.115
0.1
0.84
0.425
-0.295
-1.07
-1.045
-0.485
-0.435
-0.025
-0.025
0.065
0.765
0.245
-0.43
-1.125
-0.995
-0.54
-0.415
-0.025
-0.04
0.155
0.8
0.25
-0.44
-1.265
-0.99
-0.575
-0.42
-0.055
-0.01
0.2
0.66
0.08
-0.485
-1.165
-0.81
-0.49
-0.46
-0.09
-0.04
0.325
0.73
0.065
-0.595
-1.225
-0.73
-0.465
-0.42
-0.085
-0.015
0.435
0.625
0.005
-0.63
-1.235
-0.775
-0.51
-0.38
-0.1
-0.025
0.44
0.54
0.01
-0.585
-1.26
-0.795
-0.465
-0.305
-0.075
-0.025
0.53
0.56
0.025
-0.66
-1.28
-0.735
-0.41
-0.31
-0.125
-0.015
0.585
0.525
-0.1
-0.7
-1.26
-0.655
-0.45
-0.315
-0.065
0.045
0.635
0.47
-0.16
-0.725
-1.25
-0.645
-0.445
-0.305
-0.135
-0.03
0.715
0.505
-0.125
-0.685
-1.275
-0.68
-0.495
-0.225
-0.045
0.01
0.665
0.455
-0.135
-0.725
-1.26
-0.58
-0.545
-0.23
-0.085
-0.01
0.725
0.445
-0.18
-0.87
-1.245
-0.595
-0.605
-0.25
-0.05
-0.015
0.675
0.4
-0.22
-1.0
-1.225
-0.585
-0.53
-0.1
-0.035
0.0
0.705
0.35
-0.375
-1.09
-1.145
-0.555
-0.495
-0.075
-0.025
-0.005
0.745
0.33
-0.445
-1.135
-1.055
-0.57
-0.52
-0.08
0.01
0.085
0.755
0.21
-0.44
-1.155
-0.95
-0.515
-0.505
-0.115
-0.045
0.14
0.74
0.19
-0.505
-1.2
-0.89
-0.555
-0.385
-0.025
0.025
0.245
0.685
0.09
-0.56
-1.16
-0.825
-0.54
-0.43
-0.045
0.035
0.41
0.715
0.08
-0.605
-1.14
-0.64
-0.4
-0.375
-0.115
-0.035
0.455
0.675
0.05
-0.54
-1.16
-0.695
-0.375
-0.305
-0.04
0.065
0.56
0.66
0.07
-0.59
-1.22
-0.715
-0.445
-0.36
-0.1
-0.03
0.585
0.55
-0.05
-0.66
-1.215
-0.685
-0.51
-0.3
-0.085
0.005
0.66
0.52
-0.075
-0.715
-1.275
-0.66
-0.45
-0.3
-0.13
-0.025
0.655
0.47
-0.09
-0.74
-1.27
-0.67
-0.475
-0.295
-0.1
0.005
0.66
0.51
-0.105
-0.73
-1.265
-0.595
-0.485
-0.28
-0.125
-0.02
0.675
0.46
-0.14
-0.73
-1.29
-0.605
-0.525
-0.185
0.005
0.135
0.825
0.505
-0.095
-0.815
-1.22
-0.49
-0.405
-0.035
0.09
0.215
1.07
0.745
0.14
-0.57
-0.695
-0.055
-0.045
0.38
0.435
0.425
1.1
0.51
-0.36
-1.23
-1.35
-0.82
-0.78
-0.315
-0.235
-0.195
0.63
0.185
-0.45
-1.21
-1.095
-0.605
-0.545
-0.05
-0.005
0.11
0.74
0.19
-0.52
-1.215
-0.97
-0.565
-0.46
-0.08
-0.015
0.16
0.745
0.18
-0.495
-1.27
-0.905
-0.525
-0.38
-0.05
-0.05
0.275
0.75
0.14
-0.57
-1.27
-0.85
-0.53
-0.355
-0.055
-0.02
0.405
0.725
0.075
-0.575
-1.2
-0.76
-0.43
-0.345
-0.075
0.0
0.485
0.655
0.105
-0.565
-1.19
-0.635
-0.415
-0.335
-0.07
0.015
0.545
0.55
0.02
-0.615
-1.14
-0.625
-0.415
-0.25
-0.065
0.035
0.67
0.63
0.045
-0.575
-1.185
-0.62
-0.37
-0.18
0.03
0.15
0.745
0.665
0.095
-0.575
-1.13
-0.47
-0.245
-0.085
0.16
0.215
0.86
0.71
0.155
-0.435
-1.01
-0.29
-0.125
0.005
0.205
0.28
0.985
0.775
0.19
-0.46
-1.02
-0.305
-0.155
0.11
0.305
0.33
1.065
0.8
0.23
-0.395
-0.935
-0.245
-0.23
0.105
0.225
0.28
1.01
0.705
0.07
-0.69
-1.005
-0.395
-0.36
0.055
0.17
0.14
0.885
0.555
-0.16
-0.9
-1.05
-0.45
-0.49
-0.04
0.015
0.085
0.775
0.41
-0.325
-1.075
-1.045
-0.485
-0.445
0.005
0.0
-0.015
0.755
0.28
-0.45
-1.135
-0.985
-0.475
-0.44
-0.015
0.0
0.1
0.72
0.19
-0.45
-1.15
-0.935
-0.575
-0.46
-0.025
0.03
0.235
0.685
0.15
-0.49
-1.14
-0.825
-0.53
-0.43
-0.05
0.0
0.33
0.72
0.11
-0.605
-1.265
-0.815
-0.495
-0.41
0.015
0.06
0.395
0.65
0.05
-0.59
-1.19
-0.75
-0.47
-0.315
-0.055
-0.07
0.48
0.665
0.0
-0.655
-1.195
-0.69
-0.465
-0.37
-0.085
0.0
0.56
0.605
-0.005
-0.66
-1.225
-0.715
-0.42
-0.295
-0.08
-0.065
0.525
0.555
-0.005
-0.61
-1.275
-0.67
-0.445
-0.345
-0.09
0.02
0.635
0.525
-0.03
-0.665
-1.245
-0.69
-0.475
-0.35
-0.1
0.01
0.695
0.53
-0.045
-0.705
-1.265
-0.555
-0.375
-0.27
-0.1
0.015
0.73
0.48
-0.17
-0.695
-1.245
-0.59
-0.475
-0.25
-0.095
0.02
0.715
0.41
-0.185
-0.735
-1.275
-0.565
-0.495
-0.17
-0.025
-0.025
0.7
0.385
-0.22
-0.99
-1.275
-0.57
-0.555
-0.15
-0.045
-0.045
0.745
0.375
-0.27
-1.025
-1.135
-0.57
-0.58
-0.15
-0.02
0.045
0.785
0.335
-0.39
-1.055
-1.015
-0.565
-0.55
-0.11
-0.04
0.01
0.725
0.285
-0.435
-1.145
-1.015
-0.525
-0.46
-0.045
-0.015
0.145
0.745
0.21
-0.51
-1.175
-0.92
-0.55
-0.5
-0.09
-0.01
0.285
0.74
0.165
-0.505
-1.135
-0.79
-0.465
-0.415
-0.055
0.0
0.36
0.765
0.15
-0.515
-1.205
-0.77
-0.455
-0.315
-0.045
0.07
0.48
0.735
0.175
-0.555
-1.215
-0.7
-0.395
-0.3
-0.085
-0.01
0.525
0.655
0.04
-0.63
-1.23
-0.73
-0.475
-0.375
-0.13
-0.02
0.56
0.6
0.015
-0.64
-1.215
-0.69
-0.46
-0.315
-0.105
-0.035
0.59
0.52
-0.025
-0.685
-1.28
-0.65
-0.42
-0.305
-0.085
-0.025
0.59
0.44
-0.11
-0.685
-1.265
-0.615
-0.44
-0.295
-0.11
-0.025
0.66
0.485
-0.115
-0.73
-1.34
-0.635
-0.395
-0.27
-0.055
0.025
0.775
0.565
-0.05
-0.605
-1.205
-0.52
-0.33
-0.085
0.08
0.135
0.915
0.765
0.155
-0.415
-0.815
-0.085
-0.055
0.29
0.47
0.465
1.185
0.875
0.045
-0.955
-1.32
-0.775
-0.86
-0.405
-0.28
-0.215
0.55
0.21
-0.435
-1.14
-1.245
-0.63
-0.57
-0.08
-0.065
-0.02
0.71
0.265
-0.43
-1.085
-1.065
-0.54
-0.505
-0.035
-0.075
-0.02
0.715
0.26
-0.445
-1.17
-1.025
-0.505
-0.485
-0.06
0.01
0.105
0.735
0.19
-0.415
-1.16
-0.945
-0.505
-0.39
-0.05
-0.02
0.17
0.705
0.17
-0.48
-1.165
-0.8
-0.485
-0.435
-0.045
0.065
0.355
0.725
0.12
-0.515
-1.205
-0.83
-0.455
-0.33
-0.03
0.005
0.46
0.73
0.115
-0.58
-1.2
-0.68
-0.405
-0.315
-0.05
0.1
0.595
0.71
0.145
-0.565
-1.13
-0.675
-0.445
-0.255
0.085
0.14
0.62
0.69
0.13
-0.515
-1.04
-0.495
-0.28
-0.13
0.1
0.2
0.83
0.72
0.11
-0.435
-0.985
-0.415
-0.16
-0.025
0.185
0.295
0.965
0.79
0.275
-0.33
-0.895
-0.315
-0.1
0.125
0.285
0.345
1.02
0.85
0.275
-0.34
-0.93
-0.285
-0.155
0.115
0.235
0.31
1.075
0.8
0.125
-0.415
-1.01
-0.36
-0.25
-0.01
0.12
0.16
0.88
0.62
0.015
-0.69
-1.145
-0.48
-0.445
-0.085
0.045
0.075
0.82
0.51
-0.2
-0.965
-1.195
-0.475
-0.525
-0.075
0.015
0.015
0.745
0.4
-0.31
-1.04
-1.125
-0.535
-0.525
-0.08
-0.01
0.025
0.755
0.305
-0.38
-1.07
-1.06
-0.525
-0.46
-0.02
-0.055
0.05
0.78
0.25
-0.465
-1.14
-0.985
-0.535
-0.475
-0.09
-0.03
0.175
0.745
0.22
-0.465
-1.135
-0.905
-0.495
-0.435
-0.08
0.01
0.25
0.7
0.135
-0.55
-1.25
-0.845
-0.485
-0.345
-0.08
-0.01
0.35
0.76
0.135
-0.6
-1.25
-0.81
-0.48
-0.385
-0.045
-0.01
0.39
0.68
0.085
-0.58
-1.245
-0.8
-0.495
-0.325
-0.045
-0.005
0.49
0.66
0.055
-0.605
-1.2
-0.67
-0.51
-0.35
-0.08
0.015
0.6
0.56
-0.01
-0.645
-1.27
-0.71
-0.435
-0.26
-0.05
0.04
0.63
0.545
-0.025
-0.67
-1.25
-0.67
-0.415
-0.3
-0.13
0.02
0.66
0.54
-0.025
-0.75
-1.31
-0.62
-0.375
-0.23
-0.085
0.015
0.695
0.505
-0.065
-0.675
-1.235
-0.61
-0.395
-0.265
-0.12
0.005
0.73
0.51
-0.105
-0.695
-1.265
-0.585
-0.565
-0.26
-0.035
-0.015
0.76
0.515
-0.17
-0.825
-1.28
-0.55
-0.525
-0.245
-0.08
-0.05
0.735
0.475
-0.2
-0.965
-1.215
-0.585
-0.56
-0.14
0.02
0.02
0.74
0.34
-0.29
-1.005
-1.12
-0.515
-0.54
-0.04
-0.005
0.04
0.785
0.32
-0.385
-1.09
-1.035
-0.56
-0.43
0.0
0.03
0.04
0.75
0.285
-0.4
-1.08
-0.905
-0.465
-0.41
-0.015
0.075
0.19
0.81
0.285
-0.425
-1.055
-0.825
-0.44
-0.37
0.035
0.03
0.27
0.76
0.145
-0.5
-1.15
-0.865
-0.56
-0.44
-0.025
0.04
0.375
0.69
0.11
-0.535
-1.2
-0.835
-0.49
-0.385
-0.075
-0.005
0.43
0.675
0.115
-0.63
-1.275
-0.775
-0.44
-0.315
-0.105
-0.055
0.485
0.63
0.05
-0.59
-1.235
-0.71
-0.505
-0.36
-0.095
-0.015
0.515
0.555
-0.01
-0.675
-1.19
-0.675
-0.46
-0.315
-0.075
0.015
0.61
0.54
0.045
-0.575
-1.135
-0.59
-0.38
-0.195
0.005
0.125
0.78
0.71
0.15
-0.39
-0.905
-0.235
0.04
0.25
0.445
0.52
1.205
0.995
0.395
-0.32
-1.01
-0.545
-0.52
-0.4
-0.32
-0.27
0.495
0.22
-0.39
-0.915
-1.37
-0.635
-0.55
-0.305
-0.155
-0.05
0.725
0.465
-0.175
-0.855
-1.355
-0.68
-0.575
-0.235
-0.05
0.005
0.76
0.415
-0.24
-0.99
-1.23
-0.595
-0.535
-0.125
-0.06
0.0
0.72
0.37
-0.335
-1.07
-1.155
-0.545
-0.54
-0.055
-0.01
0.005
0.775
0.34
-0.42
-1.06
-1.005
-0.53
-0.525
-0.035
0.0
0.065
0.8
0.295
-0.37
-1.115
-0.95
-0.52
-0.435
-0.075
-0.02
0.15
0.755
0.29
-0.43
-1.12
-0.89
-0.47
-0.39
-0.01
0.105
0.295
0.815
0.245
-0.445
-1.06
-0.725
-0.485
-0.385
0.01
0.09
0.475
0.835
0.26
-0.43
-1.085
-0.645
-0.32
-0.185
0.15
0.18
0.585
0.835
0.245
-0.35
-0.995
-0.51
-0.275
-0.07
0.19
0.27
0.795
0.97
0.335
-0.37
-0.97
-0.37
-0.11
0.015
0.29
0.365
0.925
0.975
0.35
-0.28
-0.875
-0.295
-0.03
0.005
0.275
0.33
0.95
0.87
0.305
-0.335
-0.92
-0.305
-0.15
-0.08
0.105
0.245
0.855
0.675
0.16
-0.48
-1.08
-0.52
-0.31
-0.215
-0.055
0.1
0.805
0.6
-0.03
-0.635
-1.185
-0.53
-0.38
-0.225
-0.06
0.045
0.77
0.545
-0.08
-0.615
-1.275
-0.6
-0.48
-0.23
-0.08
-0.02
0.76
0.505
-0.17
-0.825
-1.275
-0.575
-0.48
-0.205
0.015
0.06
0.725
0.435
-0.21
-1.0
-1.245
-0.55
-0.52
-0.115
0.04
0.05
0.71
0.3
-0.435
-1.005
-1.13
-0.53
-0.53
-0.055
-0.04
-0.03
0.77
0.305
-0.355
-1.06
-1.025
-0.57
-0.48
-0.06
-0.02
0.035
0.755
0.22
-0.48
-1.135
-0.985
-0.54
-0.47
-0.03
0.005
0.14
0.74
0.175
-0.48
-1.185
-0.9
-0.445
-0.425
-0.02
-0.03
0.26
0.735
0.16
-0.505
-1.165
-0.855
-0.575
-0.46
-0.06
0.005
0.345
0.715
0.095
-0.575
-1.215
-0.745
-0.465
-0.355
-0.08
-0.02
0.425
0.66
0.065
-0.635
-1.225
-0.725
-0.44
-0.37
-0.075
0.03
0.57
0.65
0.005
-0.595
-1.215
-0.655
-0.46
-0.35
-0.14
-0.01
0.6
0.59
-0.015
-0.645
-1.2
-0.66
-0.475
-0.34
-0.1
0.005
0.6
0.575
-0.01
-0.655
-1.29
-0.71
-0.445
-0.29
-0.08
0.005
0.675
0.51
-0.07
-0.69
-1.29
-0.59
-0.45
-0.305
-0.095
-0.055
0.695
0.52
-0.125
-0.69
-1.22
-0.63
-0.44
-0.25
-0.1
-0.01
0.725
0.48
-0.135
-0.77
-1.31
-0.575
-0.48
-0.26
-0.145
-0.02
0.755
0.455
-0.175
-0.81
-1.225
-0.57
-0.535
-0.245
-0.025
0.005
0.675
0.37
-0.245
-1.025
-1.28
-0.55
-0.555
-0.125
-0.025
0.035
0.82
0.43
-0.275
-1.005
-1.115
-0.54
-0.57
-0.145
-0.07
0.0
0.785
0.35
-0.35
-1.055
-1.065
-0.505
-0.455
-0.04
0.05
0.06
0.765
0.275
-0.4
-1.1
-0.915
-0.44
-0.41
0.02
0.04
0.19
0.78
0.25
-0.44
-1.11
-0.88
-0.465
-0.42
-0.12
-0.02
0.26
0.725
0.13
-0.505
-1.19
-0.85
-0.505
-0.385
-0.12
-0.035
0.295
0.695
0.105
-0.515
-1.18
-0.795
-0.49
-0.385
-0.11
-0.05
0.405
0.655
0.03
-0.605
-1.245
-0.76
-0.51
-0.41
-0.09
0.0
0.475
0.6
-0.01
-0.615
