# TIPE ECG 2021 - ECG-ID Database v1.0.0 par Physionet
# [N° de la personne, N° de l'enregistrement, Période d'échantillonnage, Prénom, Age, Sexe, Date de l'enregistrement]
[89, 2, 0.002, "Margaux", 40, "F", "21.05.2005"]
0.945
0.44
-0.26
-0.92
-0.65
-0.25
-0.185
0.17
0.175
0.445
0.945
0.395
-0.32
-0.99
-0.67
-0.295
-0.195
0.175
0.2
0.555
0.93
0.355
-0.31
-0.985
-0.61
-0.255
-0.165
0.105
0.185
0.54
0.86
0.255
-0.24
-0.955
-0.56
-0.23
-0.115
0.15
0.275
0.805
0.955
0.37
-0.26
-0.87
-0.35
-0.095
0.045
0.36
0.445
0.945
1.09
0.59
-0.055
-0.58
0.01
0.255
0.375
0.63
0.72
1.275
1.17
0.465
-0.33
-1.09
-0.68
-0.525
-0.375
-0.16
0.015
0.7
0.63
0.115
-0.47
-1.05
-0.525
-0.35
-0.11
0.195
0.24
0.865
0.725
0.145
-0.515
-1.07
-0.47
-0.23
-0.03
0.135
0.21
0.92
0.71
0.11
-0.485
-1.07
-0.335
-0.215
0.02
0.15
0.2
0.885
0.61
0.075
-0.47
-1.025
-0.33
-0.31
-0.015
0.125
0.235
1.005
0.705
0.035
-0.74
-1.015
-0.335
-0.29
0.07
0.225
0.285
1.0
0.615
-0.09
-0.765
-0.98
-0.31
-0.295
0.085
0.2
0.315
1.045
0.64
-0.105
-0.835
-0.845
-0.315
-0.255
0.165
0.295
0.335
1.135
0.63
-0.08
-0.795
-0.69
-0.24
-0.22
0.255
0.32
0.445
1.07
0.595
-0.115
-0.775
-0.53
-0.16
-0.135
0.325
0.36
0.63
1.18
0.6
-0.065
-0.73
-0.455
-0.07
0.055
0.44
0.52
0.85
1.205
0.61
-0.03
-0.61
-0.255
0.065
0.185
0.52
0.58
0.94
1.275
0.69
0.04
-0.595
-0.22
0.06
0.26
0.555
0.625
1.0
1.165
0.61
-0.105
-0.705
-0.18
0.08
0.175
0.43
0.495
1.0
1.025
0.42
-0.25
-0.835
-0.33
-0.13
0.015
0.225
0.31
0.9
0.815
0.315
-0.295
-0.96
-0.445
-0.16
-0.01
0.215
0.235
0.87
0.75
0.195
-0.4
-0.975
-0.39
-0.18
-0.055
0.135
0.205
0.905
0.695
0.155
-0.39
-0.99
-0.395
-0.21
-0.045
0.13
0.205
0.895
0.69
0.15
-0.5
-1.025
-0.325
-0.28
-0.025
0.145
0.23
0.96
0.7
0.04
-0.605
-1.06
-0.36
-0.3
0.025
0.215
0.2
0.895
0.68
0.055
-0.735
-1.045
-0.38
-0.38
0.05
0.2
0.22
0.985
0.63
-0.055
-0.82
-0.995
-0.305
-0.26
0.12
0.225
0.235
0.955
0.55
-0.185
-0.89
-0.86
-0.31
-0.32
0.13
0.18
0.24
0.995
0.53
-0.215
-0.865
-0.75
-0.285
-0.265
0.145
0.19
0.305
1.0
0.415
-0.31
-0.93
-0.645
-0.245
-0.185
0.22
0.225
0.43
0.925
0.355
-0.285
-0.93
-0.62
-0.305
-0.235
0.105
0.265
0.58
0.93
0.34
-0.34
-0.96
-0.56
-0.255
-0.125
0.15
0.205
0.615
0.895
0.335
-0.36
-0.96
-0.515
-0.24
-0.16
0.105
0.145
0.675
0.9
0.325
-0.38
-1.03
-0.54
-0.18
-0.075
0.165
0.255
0.77
0.845
0.24
-0.41
-1.035
-0.525
-0.245
-0.14
0.11
0.21
0.85
0.81
0.215
-0.465
-1.015
-0.415
-0.22
-0.09
0.115
0.185
0.85
0.74
0.145
-0.47
-1.02
-0.4
-0.175
-0.04
0.15
0.175
0.805
0.74
0.2
-0.495
-1.07
-0.375
-0.23
-0.035
0.16
0.255
0.95
0.675
0.055
-0.45
-1.02
-0.355
-0.23
-0.02
0.09
0.165
0.93
0.69
0.115
-0.525
-1.025
-0.37
-0.32
-0.015
0.19
0.22
0.955
0.635
0.005
-0.71
-1.0
-0.33
-0.295
0.095
0.22
0.195
1.005
0.635
-0.045
-0.79
-0.945
-0.315
-0.325
0.04
0.165
0.235
0.96
0.595
-0.12
-0.87
-0.83
-0.22
-0.205
0.275
0.275
0.285
1.01
0.585
-0.085
-0.82
-0.7
-0.255
-0.2
0.17
0.22
0.3
0.985
0.445
-0.235
-0.89
-0.64
-0.295
-0.27
0.11
0.18
0.455
0.96
0.325
-0.31
-0.975
-0.67
-0.25
-0.145
0.16
0.175
0.445
0.905
0.295
-0.36
-0.96
-0.575
-0.255
-0.13
0.175
0.245
0.55
0.84
0.26
-0.39
-1.075
-0.575
-0.255
-0.155
0.145
0.205
0.75
0.845
0.27
-0.39
-1.025
-0.53
-0.275
-0.175
0.155
0.22
0.76
0.79
0.245
-0.395
-0.965
-0.37
-0.13
-0.03
0.235
0.335
0.915
0.845
0.29
-0.325
-0.87
-0.335
0.005
0.38
0.585
0.77
1.43
1.34
0.705
0.075
-0.53
0.04
0.115
0.035
0.07
0.01
0.64
0.465
-0.09
-0.765
-1.26
-0.585
-0.355
-0.17
0.045
0.155
0.835
0.715
0.08
-0.495
-1.035
-0.375
-0.295
-0.09
0.03
0.185
0.945
0.66
0.05
-0.575
-1.04
-0.37
-0.365
-0.065
0.14
0.175
0.945
0.62
-0.005
-0.81
-1.0
-0.27
-0.32
0.05
0.17
0.205
0.91
0.595
-0.14
-0.88
-0.97
-0.32
-0.28
0.21
0.21
0.185
0.935
0.59
-0.1
-0.81
-0.76
-0.32
-0.335
0.17
0.185
0.24
0.965
0.54
-0.135
-0.875
-0.73
-0.255
-0.21
0.245
0.255
0.355
1.03
0.445
-0.195
-0.88
-0.59
-0.23
-0.145
0.2
0.275
0.54
1.02
0.46
-0.21
-0.875
-0.48
-0.185
-0.095
0.255
0.31
0.665
1.11
0.505
-0.175
-0.79
-0.36
-0.08
0.095
0.385
0.49
0.92
1.17
0.55
-0.085
-0.71
-0.28
0.01
0.12
0.435
0.505
1.045
1.21
0.55
-0.065
-0.62
-0.055
0.11
0.27
0.52
0.64
1.14
1.175
0.55
-0.1
-0.635
-0.115
0.125
0.145
0.4
0.53
1.165
1.03
0.425
-0.14
-0.78
-0.27
-0.04
0.06
0.3
0.385
1.005
0.85
0.285
-0.35
-0.98
-0.33
-0.165
-0.005
0.26
0.29
0.955
0.8
0.2
-0.49
-1.03
-0.365
-0.2
-0.005
0.115
0.245
0.975
0.715
0.1
-0.43
-1.0
-0.355
-0.28
0.0
0.125
0.19
0.89
0.71
0.08
-0.655
-1.03
-0.335
-0.28
0.07
0.175
0.18
0.92
0.615
-0.065
-0.78
-1.02
-0.375
-0.345
0.085
0.19
0.205
0.945
0.6
-0.1
-0.84
-0.88
-0.335
-0.315
0.115
0.2
0.18
0.94
0.48
-0.17
-0.855
-0.815
-0.34
-0.28
0.155
0.205
0.24
0.945
0.45
-0.23
-0.92
-0.745
-0.275
-0.25
0.145
0.23
0.39
0.935
0.38
-0.305
-1.02
-0.675
-0.29
-0.19
0.16
0.23
0.49
0.905
0.335
-0.33
-0.965
-0.645
-0.31
-0.22
0.125
0.19
0.58
0.95
0.335
-0.32
-0.975
-0.555
-0.29
-0.19
0.11
0.21
0.655
0.865
0.235
-0.37
-0.99
-0.525
-0.225
-0.15
0.1
0.22
0.735
0.805
0.245
-0.395
-1.01
-0.49
-0.25
-0.12
0.14
0.165
0.735
0.77
0.185
-0.465
-1.0
-0.5
-0.34
-0.195
0.11
0.2
0.835
0.8
0.195
-0.465
-1.09
-0.435
-0.23
-0.12
0.125
0.215
0.87
0.71
0.125
-0.54
-1.095
-0.445
-0.24
-0.1
0.125
0.195
0.88
0.685
0.08
-0.525
-1.075
-0.385
-0.3
-0.085
0.065
0.205
0.89
0.655
0.05
-0.54
-1.07
-0.425
-0.37
-0.105
0.07
0.18
0.94
0.6
0.01
-0.705
-1.045
-0.425
-0.375
-0.03
0.145
0.125
0.865
0.585
-0.1
-0.82
-1.055
-0.385
-0.34
0.07
0.16
0.19
0.965
0.53
-0.22
-0.95
-0.94
-0.345
-0.33
0.155
0.155
0.155
0.915
0.385
-0.23
-0.92
-0.87
-0.34
-0.295
0.17
0.245
0.215
0.935
0.455
-0.245
-0.925
-0.745
-0.355
-0.265
0.18
0.16
0.285
0.915
0.38
-0.18
-0.93
-0.67
-0.28
-0.23
0.14
0.215
0.5
0.925
0.31
-0.355
-1.025
-0.67
-0.355
-0.24
0.12
0.1
0.495
0.865
0.305
-0.375
-1.08
-0.595
-0.36
-0.175
0.125
0.115
0.585
0.815
0.22
-0.465
-1.125
-0.62
-0.295
-0.215
0.075
0.195
0.745
0.845
0.19
-0.505
-1.135
-0.61
-0.38
-0.215
0.075
0.145
0.725
0.655
0.09
-0.49
-1.07
-0.54
-0.32
-0.21
0.08
0.145
0.77
0.67
0.085
-0.575
-1.11
-0.46
-0.265
-0.165
0.125
0.24
0.9
0.74
0.165
-0.47
-1.035
-0.39
-0.195
-0.01
0.165
0.31
1.145
1.015
0.47
-0.07
-0.665
0.065
0.16
0.395
0.505
0.535
1.145
0.75
-0.005
-0.815
-1.435
-0.755
-0.7
-0.3
-0.085
-0.075
0.775
0.495
-0.145
-0.83
-1.165
-0.445
-0.39
-0.04
0.095
0.115
0.885
0.505
-0.16
-0.915
-1.115
-0.515
-0.43
0.085
0.17
0.17
0.915
0.48
-0.185
-0.905
-0.905
-0.395
-0.385
0.085
0.135
0.18
0.895
0.395
-0.295
-1.055
-0.835
-0.315
-0.26
0.115
0.11
0.265
0.87
0.34
-0.31
-1.0
-0.725
-0.335
-0.295
0.1
0.15
0.385
0.93
0.315
-0.355
-1.025
-0.72
-0.355
-0.2
0.135
0.195
0.49
0.895
0.325
-0.33
-0.98
-0.62
-0.3
-0.28
0.115
0.21
0.65
0.915
0.295
-0.355
-1.025
-0.5
-0.19
-0.075
0.175
0.28
0.8
0.92
0.315
-0.33
-0.965
-0.46
-0.15
-0.02
0.245
0.335
0.955
0.965
0.35
-0.28
-0.875
-0.3
-0.035
0.1
0.325
0.41
1.045
1.035
0.465
-0.19
-0.8
-0.205
0.045
0.195
0.36
0.47
1.11
1.05
0.43
-0.215
-0.8
-0.11
0.07
0.18
0.41
0.43
1.085
0.91
0.395
-0.245
-0.84
-0.24
-0.1
0.095
0.245
0.34
1.04
0.785
0.2
-0.415
-1.025
-0.385
-0.27
-0.045
0.165
0.145
0.9
0.625
0.035
-0.63
-1.085
-0.425
-0.385
-0.095
0.08
0.125
0.845
0.53
-0.125
-0.83
-1.115
-0.415
-0.43
0.01
0.11
0.14
0.82
0.445
-0.17
-0.905
-1.065
-0.47
-0.435
-0.03
0.055
0.13
0.85
0.39
-0.265
-0.985
-0.94
-0.44
-0.42
0.045
0.085
0.105
0.84
0.295
-0.38
-1.095
-0.91
-0.445
-0.36
0.065
0.04
0.2
0.79
0.245
-0.395
-1.095
-0.85
-0.46
-0.385
0.035
0.09
0.285
0.74
0.25
-0.355
-1.085
-0.745
-0.43
-0.35
-0.025
0.05
0.395
0.795
0.18
-0.535
-1.16
-0.735
-0.48
-0.38
0.03
0.075
0.525
0.79
0.165
-0.55
-1.165
-0.675
-0.4
-0.345
-0.025
0.08
0.555
0.72
0.105
-0.55
-1.165
-0.695
-0.425
-0.26
-0.02
0.065
0.625
0.65
0.07
-0.575
-1.135
-0.595
-0.43
-0.315
-0.065
0.04
0.615
0.555
0.005
-0.625
-1.215
-0.61
-0.415
-0.28
-0.075
0.03
0.675
0.595
0.0
-0.62
-1.225
-0.61
-0.42
-0.255
-0.04
0.025
0.72
0.55
-0.075
-0.665
-1.24
-0.585
-0.41
-0.28
-0.07
0.045
0.75
0.52
-0.085
-0.68
-1.285
-0.59
-0.49
-0.27
-0.125
-0.02
0.755
0.465
-0.16
-0.805
-1.235
-0.605
-0.585
-0.19
-0.025
0.015
0.79
0.415
-0.205
-0.945
-1.19
-0.585
-0.57
-0.135
-0.04
0.0
0.765
0.355
-0.325
-1.045
-1.1
-0.56
-0.53
-0.075
0.0
0.0
0.765
0.295
-0.395
-1.08
-0.99
-0.505
-0.51
-0.07
-0.05
-0.055
0.7
0.24
-0.415
-1.135
-0.99
-0.51
-0.445
-0.09
-0.065
0.14
0.71
0.125
-0.515
-1.2
-0.87
-0.505
-0.39
-0.055
-0.02
0.22
0.76
0.155
-0.525
-1.2
-0.845
-0.515
-0.425
-0.085
-0.06
0.365
0.74
0.085
-0.535
-1.125
-0.7
-0.41
-0.28
0.01
-0.05
0.425
0.665
0.07
-0.585
-1.2
-0.755
-0.445
-0.34
-0.045
0.005
0.475
0.595
-0.02
-0.61
-1.235
-0.735
-0.53
-0.415
-0.125
-0.03
0.45
0.48
-0.015
-0.64
-1.28
-0.7
-0.48
-0.41
-0.185
-0.075
0.595
0.55
-0.075
-0.725
-1.305
-0.715
-0.495
-0.365
-0.125
-0.025
0.585
0.435
-0.165
-0.77
-1.32
-0.63
-0.47
-0.305
-0.115
-0.04
0.61
0.39
-0.16
-0.785
-1.35
-0.71
-0.525
-0.355
-0.22
-0.17
0.655
0.54
-0.15
-0.715
-1.3
-0.635
-0.47
-0.21
-0.08
-0.065
0.77
0.555
-0.085
-0.73
-1.16
-0.48
-0.335
0.09
0.295
0.41
1.205
0.86
0.215
-0.555
-0.795
-0.17
-0.2
0.025
-0.12
-0.26
0.415
0.095
-0.65
-1.385
-1.435
-0.745
-0.735
-0.25
-0.245
-0.145
0.635
0.195
-0.48
-1.15
-1.125
-0.655
-0.635
-0.17
-0.17
-0.09
0.64
0.175
-0.495
-1.25
-1.085
-0.6
-0.52
-0.14
-0.11
0.03
0.635
0.12
-0.565
-1.285
-1.005
-0.595
-0.525
-0.115
-0.065
0.18
0.645
0.025
-0.59
-1.26
-0.91
-0.56
-0.485
-0.2
-0.09
0.305
0.63
0.025
-0.64
-1.31
-0.885
-0.54
-0.42
-0.105
-0.07
0.335
0.585
0.035
-0.65
-1.27
-0.775
-0.485
-0.4
-0.22
-0.1
0.46
0.555
-0.065
-0.635
-1.25
-0.75
-0.455
-0.385
-0.145
-0.015
0.54
0.58
-0.03
-0.62
-1.22
-0.675
-0.455
-0.295
-0.065
0.05
0.6
0.605
0.055
-0.615
-1.19
-0.56
-0.295
-0.22
-0.02
0.165
0.84
0.705
0.05
-0.55
-1.015
-0.385
-0.205
-0.025
0.13
0.22
0.87
0.725
0.1
-0.5
-1.005
-0.335
-0.23
-0.03
0.135
0.255
1.005
0.72
0.15
-0.44
-1.04
-0.36
-0.28
-0.045
0.125
0.175
0.925
0.605
-0.04
-0.72
-1.13
-0.46
-0.4
-0.08
0.045
0.08
0.8
0.385
-0.255
-0.995
-1.215
-0.615
-0.595
-0.12
-0.02
-0.05
0.685
0.295
-0.355
-1.055
-1.19
-0.605
-0.62
-0.19
-0.1
-0.1
0.67
0.25
-0.445
-1.185
-1.125
-0.64
-0.655
-0.19
-0.105
-0.1
0.58
0.155
-0.545
-1.25
-1.03
-0.61
-0.56
-0.13
-0.14
0.025
0.63
0.065
-0.585
-1.26
-1.025
-0.66
-0.53
-0.18
-0.115
0.18
0.585
0.03
-0.66
-1.37
-0.99
-0.595
-0.475
-0.16
-0.115
0.25
0.61
0.04
-0.655
-1.32
-0.885
-0.65
-0.505
-0.215
-0.15
0.31
0.575
-0.02
-0.735
-1.39
-0.82
-0.58
-0.455
-0.195
-0.115
0.395
0.47
-0.07
-0.73
-1.375
-0.84
-0.6
-0.44
-0.155
-0.12
0.465
0.535
-0.115
-0.785
-1.34
-0.75
-0.55
-0.435
-0.24
-0.105
0.49
0.465
-0.125
-0.78
-1.355
-0.75
-0.57
-0.385
-0.215
-0.13
0.53
0.41
-0.16
-0.755
-1.38
-0.755
-0.565
-0.345
-0.165
-0.105
0.52
0.365
-0.225
-0.75
-1.385
-0.715
-0.595
-0.425
-0.2
-0.075
0.625
0.395
-0.185
-0.825
-1.42
-0.72
-0.595
-0.335
-0.14
-0.115
0.61
0.33
-0.315
-0.97
-1.37
-0.705
-0.7
-0.31
-0.16
-0.11
0.58
0.315
-0.31
-1.135
-1.345
-0.71
-0.675
-0.215
-0.115
-0.09
0.61
0.3
-0.415
-1.165
-1.23
-0.64
-0.605
-0.165
-0.125
-0.12
0.63
0.205
-0.555
-1.225
-1.145
-0.695
-0.66
-0.165
-0.09
-0.015
0.67
0.085
-0.58
-1.245
-1.045
-0.615
-0.565
-0.12
-0.065
0.1
0.67
0.115
-0.615
-1.25
-0.975
-0.63
-0.565
-0.205
-0.125
0.165
0.64
0.06
-0.66
-1.265
-0.885
-0.59
-0.535
-0.195
-0.1
0.315
0.61
0.035
-0.64
-1.26
-0.79
-0.6
-0.525
-0.105
-0.06
0.415
0.6
0.0
-0.65
-1.285
-0.84
-0.585
-0.41
-0.135
-0.03
0.48
0.525
-0.08
-0.7
-1.275
-0.735
-0.505
-0.35
-0.105
-0.05
0.565
0.58
-0.08
-0.675
-1.245
-0.685
-0.445
-0.38
-0.135
0.005
0.63
0.565
-0.045
-0.68
-1.24
-0.67
-0.435
-0.34
-0.125
-0.04
0.63
0.48
-0.135
-0.785
-1.34
-0.655
-0.47
-0.37
-0.175
-0.09
0.65
0.495
-0.11
-0.74
-1.29
-0.625
-0.485
-0.305
-0.09
-0.05
0.575
0.41
-0.145
-0.675
-1.315
-0.62
-0.55
-0.34
-0.12
-0.065
0.66
0.41
-0.19
-0.89
-1.285
-0.57
-0.56
-0.215
-0.075
-0.1
0.68
0.42
-0.3
-1.035
-1.22
-0.59
-0.555
-0.12
-0.04
0.02
0.81
0.43
-0.24
-0.95
-1.01
-0.435
-0.39
0.11
0.115
0.165
0.965
0.47
-0.2
-0.8
-0.685
-0.095
0.005
0.505
0.56
0.595
1.28
0.775
0.06
-0.755
-0.775
-0.475
-0.615
-0.31
-0.285
-0.07
0.53
0.015
-0.6
-1.245
-0.97
-0.57
-0.465
-0.05
0.005
0.33
0.725
0.175
-0.49
-1.155
-0.77
-0.455
-0.315
-0.02
0.0
0.39
0.8
0.205
-0.475
-1.14
-0.795
-0.445
-0.27
0.0
0.08
0.585
0.76
0.21
-0.445
-1.105
-0.66
-0.34
-0.24
0.025
0.115
0.63
0.76
0.125
-0.53
-1.07
-0.505
-0.25
-0.165
0.08
0.17
0.71
0.775
0.175
-0.465
-1.09
-0.52
-0.225
-0.065
0.09
0.145
0.76
0.775
0.215
-0.43
-0.97
-0.415
-0.23
-0.005
0.195
0.27
0.965
0.75
0.195
-0.43
-0.935
-0.335
-0.16
0.01
0.175
0.3
1.035
0.775
0.225
-0.32
-0.865
-0.22
-0.035
0.12
0.32
0.42
1.12
0.885
0.23
-0.285
-0.835
-0.16
-0.08
0.215
0.43
0.455
1.165
0.995
0.34
-0.31
-0.69
-0.04
-0.01
0.415
0.565
0.52
1.295
0.97
0.365
-0.44
-0.595
0.07
0.09
0.52
0.615
0.64
1.33
0.93
0.29
-0.435
-0.55
-0.01
0.03
0.495
0.53
0.545
1.24
0.765
0.02
-0.73
-0.595
-0.05
-0.025
0.41
0.385
0.475
1.13
0.61
-0.1
-0.775
-0.56
-0.21
-0.12
0.265
0.25
0.435
1.04
0.505
-0.165
-0.835
-0.55
-0.265
-0.13
0.24
0.27
0.56
0.975
0.38
-0.265
-0.905
-0.53
-0.29
-0.145
0.215
0.295
0.74
0.99
0.33
-0.33
-0.905
-0.505
-0.225
-0.055
0.215
0.25
0.74
0.91
0.33
-0.345
-0.94
-0.415
-0.2
-0.135
0.15
0.29
0.88
0.9
0.305
-0.325
-0.94
-0.495
-0.255
-0.03
0.24
0.27
0.81
0.815
0.225
-0.395
-0.945
-0.39
-0.105
-0.02
0.2
0.315
0.905
0.79
0.215
-0.4
-0.965
-0.34
-0.15
-0.005
0.165
0.275
0.93
0.84
0.195
-0.385
-1.02
-0.365
-0.165
0.0
0.19
0.29
0.985
0.795
0.185
-0.42
-0.955
-0.335
-0.265
0.07
0.22
0.25
1.035
0.775
0.17
-0.445
-0.96
-0.285
-0.25
0.01
0.265
0.325
0.995
0.73
0.12
-0.67
-0.98
-0.285
-0.235
0.155
0.305
0.265
1.055
0.72
0.03
-0.735
-0.935
-0.29
-0.275
0.2
0.255
0.265
1.03
0.665
-0.08
-0.79
-0.805
-0.235
-0.195
0.275
0.235
0.34
1.02
0.535
-0.13
-0.815
-0.745
-0.305
-0.275
0.225
0.315
0.405
1.065
0.525
-0.165
-0.845
-0.63
-0.205
-0.145
0.27
0.295
0.455
1.045
0.445
-0.235
-0.91
-0.61
-0.235
-0.13
0.21
0.215
0.635
1.025
0.46
-0.265
-0.93
-0.505
-0.145
-0.07
0.21
0.22
0.655
0.96
0.37
-0.275
-0.9
-0.47
-0.15
-0.055
0.18
0.315
0.795
0.9
0.325
-0.27
-0.945
-0.445
-0.155
-0.09
0.19
0.315
0.86
0.91
0.35
-0.355
-0.945
-0.395
-0.165
-0.03
0.23
0.255
0.81
0.88
0.295
-0.375
-0.945
-0.37
-0.13
0.005
0.215
0.24
0.9
0.865
0.245
-0.4
-0.955
-0.32
-0.11
-0.01
0.19
0.26
0.97
0.825
0.225
-0.37
-0.935
-0.28
-0.075
0.085
0.2
0.325
1.065
0.83
0.215
-0.34
-0.915
-0.27
-0.11
0.08
0.195
0.37
1.14
0.875
0.205
-0.425
-0.85
-0.285
-0.255
0.08
0.35
0.315
1.04
0.72
0.08
-0.625
-0.985
-0.31
-0.305
0.11
0.345
0.33
1.06
0.725
0.005
-0.72
-0.89
-0.245
-0.255
0.24
0.26
0.295
1.05
0.635
-0.05
-0.755
-0.785
-0.29
-0.26
0.185
0.265
0.325
1.05
0.625
-0.04
-0.8
-0.71
-0.26
-0.21
0.225
0.28
0.4
1.055
0.52
-0.225
-0.91
-0.58
-0.21
-0.15
0.225
0.28
0.48
1.06
0.465
-0.2
-0.765
-0.39
-0.045
0.0
0.295
0.33
0.71
1.095
0.535
-0.09
-0.715
-0.3
0.075
0.245
0.635
0.76
1.24
1.51
0.945
0.195
-0.45
-0.05
0.24
0.215
0.265
0.195
0.555
0.625
0.045
-0.555
-1.115
-0.565
-0.305
-0.185
0.19
0.265
0.8
0.84
0.23
-0.395
-0.905
-0.355
-0.17
0.045
0.215
0.31
0.885
0.87
0.27
-0.35
-0.945
-0.34
-0.155
-0.015
0.245
0.28
0.9
0.84
0.255
-0.34
-0.97
-0.31
-0.08
0.04
0.255
0.38
1.02
0.825
0.175
-0.405
-0.915
-0.305
-0.105
0.1
0.175
0.285
1.06
0.84
0.22
-0.32
-0.9
-0.28
-0.145
0.09
0.23
0.33
1.065
0.74
0.14
-0.435
-0.82
-0.17
-0.115
0.19
0.33
0.355
1.1
0.84
0.215
-0.575
-0.895
-0.21
-0.135
0.285
0.375
0.375
1.085
0.75
0.135
-0.575
-0.7
-0.125
-0.075
0.41
0.43
0.44
1.245
0.83
0.11
-0.64
-0.58
0.015
0.07
0.48
0.57
0.595
1.355
0.83
0.21
-0.495
-0.36
0.105
0.165
0.56
0.605
0.78
1.425
0.88
0.205
-0.5
-0.25
0.18
0.27
0.63
0.69
0.91
1.36
0.82
0.18
-0.505
-0.145
0.185
0.25
0.54
0.595
0.935
1.34
0.725
0.055
-0.615
-0.22
0.055
0.175
0.44
0.46
0.865
1.13
0.525
-0.13
-0.77
-0.335
-0.115
0.06
0.33
0.365
0.91
1.015
0.395
-0.235
-0.865
-0.375
-0.11
-0.01
0.27
0.4
0.9
0.955
0.355
-0.285
-0.86
-0.385
-0.08
0.015
0.215
0.325
0.92
0.88
0.305
-0.355
-0.94
-0.315
-0.1
0.0
0.21
0.32
0.935
0.87
0.25
-0.405
-0.91
-0.285
-0.08
-0.02
0.185
0.295
1.01
0.82
0.22
-0.4
-0.875
-0.26
-0.125
0.09
0.25
0.315
1.04
0.78
0.22
-0.385
-0.94
-0.265
-0.18
0.06
0.23
0.3
1.045
0.75
0.18
-0.505
-0.985
-0.365
-0.28
0.145
0.34
0.36
1.095
0.77
0.1
-0.655
-0.925
-0.305
-0.195
0.26
0.34
0.315
1.01
0.675
0.02
-0.705
-0.81
-0.21
-0.18
0.27
0.335
0.305
1.04
0.64
-0.075
-0.79
-0.725
-0.195
-0.185
0.305
0.29
0.33
1.03
0.61
-0.08
-0.765
-0.605
-0.195
-0.11
0.29
0.295
0.47
1.08
0.455
-0.225
-0.845
-0.56
-0.15
-0.075
0.275
0.305
0.56
1.075
0.495
-0.2
-0.88
-0.485
-0.175
-0.115
0.285
0.345
0.695
1.05
0.425
-0.23
-0.91
-0.46
-0.19
-0.125
0.27
0.315
0.77
1.02
0.36
-0.265
-0.89
-0.405
-0.18
-0.085
0.25
0.335
0.86
0.975
0.34
-0.345
-0.945
-0.345
-0.13
0.015
0.26
0.33
0.88
0.88
0.31
-0.34
-0.86
-0.365
-0.115
0.04
0.22
0.32
0.91
0.87
0.3
-0.335
-0.925
-0.395
-0.145
0.06
0.17
0.31
0.985
0.825
0.285
-0.35
-0.975
-0.31
-0.13
0.025
0.25
0.33
1.05
0.86
0.225
-0.415
-0.91
-0.24
-0.125
0.03
0.21
0.315
1.07
0.84
0.23
-0.375
-0.905
-0.235
-0.15
0.11
0.235
0.365
1.08
0.845
0.22
-0.5
-0.915
-0.205
-0.165
0.2
0.335
0.32
1.095
0.74
0.05
-0.68
-0.87
-0.24
-0.2
0.245
0.3
0.3
1.06
0.7
-0.05
-0.78
-0.795
-0.2
-0.195
0.285
0.305
0.3
1.04
0.645
-0.14
-0.81
-0.69
-0.205
-0.215
0.23
0.255
0.365
1.045
0.53
-0.17
-0.825
-0.615
-0.2
-0.15
0.285
0.35
0.45
0.95
0.52
-0.13
-0.83
-0.56
-0.195
-0.11
0.205
0.255
0.525
1.04
0.485
-0.235
-0.885
-0.47
-0.11
-0.065
0.295
0.355
0.805
1.145
0.51
-0.165
-0.79
-0.36
-0.015
0.14
0.45
0.52
0.98
1.34
0.745
0.16
-0.445
0.015
0.31
0.45
0.69
0.74
1.21
1.12
0.365
-0.395
-1.105
-0.645
-0.405
-0.26
0.01
0.135
0.78
0.785
0.21
-0.4
-1.005
-0.38
-0.16
-0.04
0.19
0.28
0.91
0.805
0.25
-0.35
-0.925
-0.37
-0.135
0.045
0.205
0.31
0.97
0.815
0.25
-0.325
-0.91
-0.325
-0.14
0.01
0.225
0.27
0.96
0.79
0.25
-0.32
-0.925
-0.245
-0.05
0.06
0.205
0.34
1.06
0.84
0.215
-0.38
-0.96
-0.275
-0.19
0.09
0.275
0.34
1.09
0.84
0.17
-0.53
-0.925
-0.245
-0.225
0.135
0.32
0.37
1.155
0.8
0.095
-0.655
-0.85
-0.225
-0.18
0.215
0.355
0.415
1.205
0.79
0.055
-0.63
-0.705
-0.13
-0.11
0.35
0.42
0.465
1.175
0.72
0.065
-0.64
-0.55
-0.025
0.015
0.45
0.485
0.54
1.335
0.815
0.1
-0.6
-0.385
-0.02
0.17
0.615
0.62
0.765
1.4
0.815
0.145
-0.55
-0.26
0.19
0.215
0.61
0.64
0.92
1.475
0.865
0.145
-0.52
-0.14
0.185
0.265
0.625
0.675
0.995
1.325
0.72
0.08
-0.565
-0.17
0.135
0.23
0.48
0.515
0.93
1.105
0.585
-0.105
-0.74
-0.265
-0.02
0.055
0.35
0.41
0.93
1.03
0.41
-0.21
-0.87
-0.36
-0.07
0.025
0.26
0.33
0.925
0.95
0.31
-0.375
-0.88
-0.33
-0.15
0.06
0.25
0.29
0.895
0.875
0.32
-0.29
-0.885
-0.33
-0.125
0.035
0.19
0.28
1.01
0.825
0.245
-0.39
-0.905
-0.275
-0.14
0.02
0.195
0.295
1.025
0.81
0.175
-0.365
-0.93
-0.28
-0.19
0.065
0.225
0.305
1.065
0.765
0.16
-0.375
-0.93
-0.21
-0.215
0.04
0.205
0.315
1.045
0.755
0.095
-0.65
-0.94
-0.28
-0.205
0.175
0.225
0.3
1.07
0.76
0.015
-0.71
-0.885
-0.205
-0.24
0.185
0.26
0.345
1.055
0.635
-0.025
-0.715
-0.765
-0.255
-0.16
0.26
0.23
0.23
1.115
0.65
-0.075
-0.76
-0.695
-0.245
-0.205
0.245
0.3
0.355
1.08
0.615
-0.11
-0.81
-0.595
-0.195
-0.1
0.28
0.305
0.505
1.0
0.465
-0.17
-0.86
-0.545
-0.22
-0.15
0.2
0.335
0.63
1.005
0.45
-0.17
-0.875
-0.515
-0.17
-0.07
0.25
0.285
0.73
1.005
0.455
-0.23
-0.92
-0.48
-0.175
-0.085
0.22
0.315
0.75
0.93
0.36
-0.27
-0.88
-0.42
-0.18
-0.035
0.245
0.24
0.815
0.97
0.37
-0.33
-0.935
-0.31
-0.075
-0.04
0.16
0.24
0.86
0.865
0.29
-0.345
-0.94
-0.35
-0.115
0.005
0.215
0.275
0.98
0.83
0.28
-0.335
-0.93
-0.355
-0.125
0.005
0.205
0.32
0.995
0.79
0.09
-0.47
-0.945
-0.265
-0.115
0.045
0.25
0.325
1.025
0.815
0.205
-0.39
-0.92
-0.35
-0.185
0.07
0.21
0.31
1.045
0.79
0.155
-0.415
-0.935
-0.325
-0.26
0.075
0.255
0.295
1.075
0.775
0.125
-0.665
-0.95
-0.25
-0.215
0.145
0.19
0.275
1.125
0.72
0.025
-0.685
-0.81
-0.23
-0.27
0.21
0.325
0.325
1.105
0.715
0.01
-0.685
-0.73
-0.22
-0.18
0.27
0.355
0.345
1.135
0.67
-0.045
-0.715
-0.605
-0.185
-0.075
0.345
0.37
0.41
1.045
0.54
-0.125
-0.84
-0.62
-0.25
-0.15
0.245
0.28
0.5
1.02
0.45
-0.255
-0.885
-0.53
-0.18
-0.15
0.25
0.35
0.6
1.02
0.445
-0.225
-0.905
-0.52
-0.175
-0.045
0.205
0.275
0.705
0.97
0.435
-0.305
-0.91
-0.455
-0.18
-0.055
0.255
0.305
0.775
0.95
0.35
-0.3
-0.95
-0.42
-0.155
-0.07
0.215
0.335
0.855
0.94
0.39
-0.2
-0.805
-0.315
-0.11
0.08
0.335
0.365
1.025
1.075
0.51
-0.07
-0.64
-0.03
0.295
0.495
0.775
0.86
1.485
1.355
0.72
0.125
-0.535
-0.15
-0.125
-0.16
-0.125
-0.005
0.715
0.575
0.045
-0.545
-1.095
-0.415
-0.175
-0.04
0.12
0.265
1.005
0.74
0.21
-0.375
-0.995
-0.345
-0.225
0.04
0.235
0.32
1.035
0.785
0.175
-0.485
-0.995
-0.305
-0.215
0.11
0.285
0.285
1.055
0.7
0.115
-0.675
-1.01
-0.3
-0.22
0.135
0.225
0.345
1.105
0.715
0.005
-0.675
-0.84
-0.285
-0.235
0.265
0.275
0.34
1.07
0.665
-0.075
-0.81
-0.7
-0.18
-0.155
0.28
0.305
0.365
1.035
0.59
-0.04
-0.765
-0.6
-0.175
-0.13
0.3
0.32
0.46
1.08
0.57
-0.125
-0.765
-0.555
-0.18
-0.075
0.37
0.4
0.605
1.185
0.6
-0.05
-0.72
-0.44
-0.09
-0.01
0.38
0.465
0.785
1.18
0.575
-0.055
-0.71
-0.275
0.09
0.175
0.49
0.545
0.96
1.24
0.645
0.01
-0.585
-0.115
0.145
0.29
0.51
0.575
1.11
1.355
0.73
0.06
-0.56
-0.045
0.25
0.335
0.575
0.61
1.17
1.255
0.7
0.07
-0.625
-0.055
0.165
0.265
0.49
0.565
1.185
1.165
0.565
-0.18
-0.74
-0.165
-0.005
0.18
0.395
0.45
1.025
0.91
0.385
-0.21
-0.825
-0.24
-0.075
0.045
0.27
0.355
1.04
0.87
0.26
-0.36
-0.91
-0.29
-0.085
0.105
0.21
0.31
1.065
0.82
0.175
-0.415
-0.995
-0.27
-0.165
0.045
0.205
0.3
0.99
0.755
0.185
-0.46
-0.94
-0.3
-0.225
0.09
0.305
0.295
1.045
0.76
0.03
-0.72
-0.995
-0.22
-0.24
0.17
0.25
0.33
1.08
0.705
0.01
-0.765
-0.905
-0.245
-0.215
0.21
0.27
0.31
1.045
0.615
-0.09
-0.775
-0.745
-0.235
-0.225
0.225
0.245
0.375
1.03
0.52
-0.145
-0.87
-0.64
-0.195
-0.165
0.275
0.29
0.37
0.995
0.54
-0.19
-0.855
-0.625
-0.21
-0.135
0.27
0.32
0.515
1.005
0.46
-0.185
-0.875
-0.58
-0.22
-0.115
0.17
0.29
0.655
1.01
0.44
-0.16
-0.875
-0.485
-0.215
-0.075
0.23
0.265
0.735
0.94
0.37
-0.28
-0.89
-0.455
-0.17
-0.035
0.285
0.305
0.78
0.96
0.355
-0.285
-0.91
-0.435
-0.225
-0.12
0.135
0.28
0.83
0.905
0.385
-0.32
-0.95
-0.385
-0.14
0.02
0.215
0.3
0.855
0.845
0.23
-0.395
-0.995
-0.335
-0.12
0.01
0.16
0.245
0.945
0.845
0.265
-0.39
-1.03
-0.34
-0.045
0.045
0.165
0.23
0.915
0.765
0.245
-0.4
-0.98
-0.33
-0.125
0.08
0.22
0.305
0.995
0.715
0.15
-0.46
-1.015
-0.315
-0.205
0.03
0.175
0.265
1.035
0.785
0.095
-0.555
-0.965
-0.26
-0.225
0.08
0.275
0.255
1.02
0.65
0.05
-0.65
-0.94
-0.29
-0.265
0.165
0.255
0.31
1.025
0.7
0.0
-0.72
-0.85
-0.28
-0.27
0.195
0.24
0.27
1.035
0.61
-0.055
-0.77
-0.755
-0.205
-0.195
0.275
0.25
0.295
1.05
0.56
-0.125
-0.82
-0.66
-0.15
-0.11
0.275
0.335
0.525
1.145
0.56
-0.17
-0.855
-0.615
-0.265
-0.15
0.205
0.285
0.485
1.01
0.465
-0.215
-0.935
-0.62
-0.25
-0.13
0.275
0.3
0.59
1.005
0.39
-0.22
-0.92
-0.585
-0.27
-0.09
0.19
0.25
0.65
0.905
0.37
-0.25
-0.945
-0.48
-0.23
-0.12
0.165
0.275
0.77
0.89
0.285
-0.345
-0.925
-0.435
-0.195
-0.065
0.155
0.26
0.77
0.87
0.305
-0.35
-0.935
-0.4
-0.205
-0.065
0.21
0.3
0.94
0.945
0.35
-0.225
-0.835
-0.34
-0.095
0.1
0.335
0.405
1.1
1.065
0.59
-0.03
-0.505
0.135
0.31
0.48
0.715
0.79
1.395
1.025
0.345
-0.405
-1.15
-0.58
-0.445
-0.29
-0.05
0.085
0.85
0.65
0.015
-0.515
-1.06
-0.37
-0.24
0.02
0.18
0.305
1.03
0.71
0.09
-0.535
-1.015
-0.305
-0.31
0.01
0.2
0.255
1.005
0.695
0.08
-0.715
-0.985
-0.28
-0.28
0.08
0.2
0.255
1.04
0.68
-0.055
-0.775
-0.93
-0.26
-0.295
0.165
0.26
0.285
1.055
0.605
-0.11
-0.8
-0.81
-0.27
-0.19
0.27
0.31
0.295
1.07
0.585
-0.13
-0.8
-0.69
-0.22
-0.145
0.22
0.23
0.405
1.09
0.57
-0.11
-0.82
-0.705
-0.27
-0.09
0.28
0.305
0.55
1.08
0.515
-0.135
-0.835
-0.505
-0.17
-0.05
0.33
0.4
0.7
1.11
0.49
-0.13
-0.765
-0.355
-0.07
0.01
0.36
0.42
0.84
1.155
0.565
-0.065
-0.645
-0.24
0.035
0.18
0.445
0.555
0.96
1.165
0.685
0.065
-0.6
-0.065
0.205
0.325
0.525
0.58
1.12
1.235
0.67
0.025
-0.585
-0.055
0.175
0.315
0.555
0.6
1.155
1.18
0.565
-0.095
-0.7
-0.13
0.11
0.195
0.41
0.545
1.11
0.955
0.46
-0.185
-0.8
-0.255
-0.005
0.095
0.275
0.355
1.065
0.895
0.27
-0.365
-0.96
-0.335
-0.11
0.07
0.195
0.265
0.97
0.775
0.205
-0.385
-0.97
-0.285
-0.22
0.03
0.185
0.325
1.025
0.76
0.14
-0.475
-1.04
-0.355
-0.195
0.075
0.21
0.275
1.02
0.72
0.06
-0.65
-0.97
-0.28
-0.31
0.075
0.22
0.28
1.065
0.705
-0.03
-0.78
-0.92
-0.27
-0.355
0.155
0.28
0.3
1.015
0.59
-0.11
-0.84
-0.855
-0.28
-0.26
0.255
0.23
0.22
1.02
0.57
-0.155
-0.845
-0.725
-0.255
-0.26
0.17
0.255
0.345
1.005
0.53
-0.18
-0.86
-0.64
-0.245
-0.14
0.21
0.235
0.415
1.0
0.455
-0.225
-0.87
-0.595
-0.27
-0.17
0.29
0.295
0.585
1.005
0.365
-0.275
-0.915
-0.49
-0.22
-0.11
0.195
0.27
0.69
0.92
0.345
-0.35
-0.905
-0.435
-0.255
-0.115
0.215
0.315
0.755
0.935
0.325
-0.295
-0.945
-0.435
-0.205
-0.085
0.115
0.23
0.835
0.87
0.25
-0.405
-0.99
-0.43
-0.165
0.01
0.22
0.3
0.875
0.875
0.295
-0.405
-0.995
-0.375
-0.125
0.005
0.18
0.275
0.82
0.795
0.26
-0.415
-1.05
-0.415
-0.145
0.005
0.18
0.235
0.925
0.755
0.21
-0.48
-1.02
-0.325
-0.115
-0.03
0.17
0.265
0.94
0.725
0.13
-0.435
-0.96
-0.32
-0.235
-0.015
0.145
0.245
1.015
0.72
0.1
-0.48
-1.005
-0.355
-0.27
0.07
0.23
0.235
1.025
0.71
0.01
-0.63
-0.98
-0.305
-0.29
0.105
0.225
0.255
1.0
0.665
0.01
-0.72
-0.905
-0.265
-0.245
0.145
0.195
0.29
1.085
0.62
-0.03
-0.8
-0.835
-0.25
-0.17
0.27
0.32
0.34
1.055
0.595
-0.075
-0.775
-0.715
-0.245
-0.14
0.22
0.245
0.325
1.045
0.48
-0.18
-0.875
-0.66
-0.255
-0.215
0.21
0.265
0.45
0.945
0.39
-0.285
-0.9
-0.56
-0.245
-0.215
0.16
0.215
0.525
1.0
0.355
-0.315
-0.965
-0.52
-0.27
-0.205
0.17
0.26
0.645
0.915
0.29
-0.375
-1.0
-0.51
-0.15
-0.09
0.19
0.26
0.715
0.92
0.37
-0.34
-0.99
-0.5
-0.24
-0.105
0.175
0.25
0.79
0.885
0.36
-0.255
-0.86
-0.36
-0.155
-0.055
0.235
0.34
0.92
0.985
0.43
-0.195
-0.735
-0.045
0.24
0.385
0.65
0.72
1.365
1.245
0.72
0.07
-0.575
-0.14
-0.065
-0.105
-0.09
-0.1
0.67
0.445
-0.055
-0.55
-1.155
-0.49
-0.275
-0.015
0.11
0.135
0.935
0.69
0.105
-0.44
-1.015
-0.325
-0.205
0.015
0.165
0.23
0.96
0.695
0.09
-0.53
-0.985
-0.31
-0.27
0.015
0.185
0.26
0.995
0.7
0.05
-0.655
-0.96
-0.325
-0.315
0.08
0.19
0.245
1.045
0.71
-0.04
-0.745
-0.93
-0.345
-0.27
0.165
0.235
0.245
1.03
0.63
-0.08
-0.77
-0.815
-0.24
-0.22
0.23
0.22
0.27
1.055
0.585
-0.105
-0.8
-0.66
-0.25
-0.225
0.27
0.33
0.42
1.07
0.54
-0.085
-0.775
-0.64
-0.165
-0.11
0.215
0.23
0.515
1.11
0.58
-0.085
-0.795
-0.49
-0.155
-0.035
0.36
0.395
0.72
1.145
0.59
-0.05
-0.695
-0.33
0.025
0.115
0.405
0.48
0.875
1.2
0.61
-0.045
-0.67
-0.18
0.135
0.215
0.515
0.58
1.075
1.24
0.665
0.025
-0.6
-0.045
0.15
0.17
0.505
0.655
1.18
1.26
0.64
-0.015
-0.6
-0.13
0.145
0.215
0.45
0.535
1.095
1.1
0.475
-0.195
-0.77
-0.24
0.035
0.12
0.31
0.355
0.98
0.875
0.36
-0.345
-0.865
-0.29
-0.085
0.065
0.235
0.3
0.925
0.82
0.23
-0.395
-1.0
-0.33
-0.105
0.005
0.14
0.265
1.01
0.78
0.155
-0.41
-0.98
-0.32
-0.215
-0.025
0.16
0.295
0.965
0.735
0.135
-0.48
-0.995
-0.315
-0.31
0.015
0.2
0.29
1.02
0.67
0.03
-0.65
-0.98
-0.24
-0.205
0.105
0.175
0.275
1.02
0.635
-0.065
-0.75
-1.01
-0.39
-0.265
0.2
0.285
0.26
1.02
0.61
-0.1
-0.8
-0.82
-0.295
-0.285
0.195
0.26
0.24
0.985
0.565
-0.145
-0.87
-0.79
-0.3
-0.185
0.265
0.215
0.305
0.99
0.49
-0.225
-0.89
-0.655
-0.255
-0.225
0.185
0.225
0.46
1.02
0.435
-0.205
-0.9
-0.61
-0.25
-0.165
0.145
0.285
0.595
1.045
0.42
-0.26
-0.915
-0.58
-0.255
-0.17
0.16
0.215
0.605
1.015
0.32
-0.295
-1.015
-0.565
-0.23
-0.07
0.225
0.325
0.77
0.91
0.29
-0.325
-0.95
-0.475
-0.21
-0.105
0.16
0.265
0.785
0.865
0.31
-0.35
-0.94
-0.47
-0.195
-0.07
0.155
0.25
0.8
0.83
0.26
-0.355
-1.01
-0.405
-0.18
-0.085
0.135
0.285
0.89
0.715
0.24
-0.37
-0.96
-0.36
-0.215
-0.065
0.175
0.275
0.93
0.77
0.16
-0.48
-1.03
-0.365
-0.155
-0.015
0.16
0.28
0.96
0.745
0.12
-0.525
-0.995
-0.35
-0.225
0.025
0.18
0.28
0.88
0.6
0.075
-0.44
-0.96
-0.315
-0.235
-0.02
0.175
0.3
1.005
0.67
0.065
-0.635
-0.98
-0.31
-0.285
0.11
0.22
0.26
0.955
0.64
-0.02
-0.77
-0.9
-0.335
-0.31
0.165
0.19
0.255
1.015
0.63
-0.12
-0.825
-0.815
-0.27
-0.225
0.255
0.3
0.3
1.045
0.615
-0.11
-0.825
-0.785
-0.305
-0.21
0.29
0.285
0.375
1.035
0.52
-0.14
-0.82
-0.64
-0.18
-0.11
0.31
0.295
0.465
1.015
0.515
-0.235
-0.96
-0.605
-0.245
-0.16
0.21
0.24
0.555
1.0
0.395
-0.285
-0.935
-0.545
-0.24
-0.175
0.19
0.26
0.65
0.95
0.3
-0.385
-0.985
-0.47
-0.185
-0.145
0.175
0.235
0.685
0.89
0.33
-0.36
-0.95
-0.425
-0.27
-0.11
0.135
0.19
0.785
0.81
0.24
-0.4
-1.015
-0.425
-0.2
-0.095
0.18
0.245
0.81
0.805
0.26
-0.4
-1.01
-0.41
-0.17
-0.025
0.255
0.365
0.96
0.905
0.28
-0.335
-0.875
-0.215
0.02
0.135
0.345
0.49
1.275
1.2
0.695
0.07
-0.485
0.15
0.33
0.465
0.625
0.62
1.2
0.86
0.11
-0.735
-1.325
-0.64
-0.485
-0.235
-0.01
0.12
0.9
0.67
0.11
-0.56
-1.04
-0.33
-0.28
-0.035
0.18
0.235
0.99
0.635
-0.025
-0.7
-1.05
-0.345
-0.315
0.06
0.25
0.27
0.98
0.65
-0.025
-0.79
-1.02
-0.265
-0.275
0.14
0.28
0.31
0.995
0.595
-0.11
-0.835
-0.85
-0.325
-0.285
0.21
0.205
0.235
1.035
0.57
-0.205
-0.825
-0.68
-0.265
-0.23
0.155
0.29
0.37
1.005
0.47
-0.15
-0.84
-0.635
-0.23
-0.175
0.23
0.235
0.5
1.0
0.475
-0.2
-0.87
-0.56
-0.17
-0.145
0.195
0.26
0.635
1.085
0.465
-0.18
-0.845
-0.495
-0.185
-0.04
0.235
0.37
0.835
1.135
0.5
-0.18
-0.805
-0.33
-0.055
0.035
0.29
0.425
0.91
1.125
0.53
-0.1
-0.75
-0.23
0.1
0.185
0.445
0.505
1.095
1.18
0.575
-0.05
-0.605
-0.045
0.16
0.285
0.515
0.63
1.16
1.165
0.58
-0.045
-0.605
-0.045
0.18
0.325
0.505
0.59
1.175
1.06
0.465
-0.155
-0.73
-0.12
0.05
0.265
0.455
0.435
1.085
0.91
0.365
-0.285
-0.835
-0.295
-0.07
0.09
0.2
0.26
0.98
0.9
0.295
-0.385
-0.96
-0.355
-0.15
0.035
0.19
0.235
1.045
0.79
0.135
-0.41
-0.96
-0.29
-0.275
-0.005
0.2
0.235
0.925
0.665
0.07
-0.675
-1.035
-0.305
-0.295
0.09
0.23
0.245
1.005
0.64
-0.025
-0.73
-0.88
-0.315
-0.275
0.15
0.22
0.29
0.955
0.57
-0.08
-0.78
-0.84
-0.29
-0.29
0.21
0.205
0.245
0.985
0.54
-0.205
-0.885
-0.71
-0.285
-0.25
0.195
0.235
0.36
0.96
0.385
-0.27
-0.935
-0.7
-0.19
-0.165
0.22
0.275
0.465
0.945
0.405
-0.255
-0.905
-0.595
-0.245
-0.15
0.145
0.18
0.52
0.97
0.355
-0.3
-0.905
-0.535
-0.235
-0.12
0.195
0.285
0.615
0.97
0.335
-0.34
-0.945
-0.485
-0.21
-0.115
0.17
0.23
0.695
0.875
0.34
-0.375
-0.96
-0.44
-0.21
-0.07
0.175
0.22
0.745
0.845
0.24
-0.435
-0.95
-0.37
-0.19
-0.07
0.135
0.26
0.79
0.775
0.18
-0.415
-0.935
-0.37
-0.205
-0.075
0.16
0.245
0.865
0.765
0.205
-0.435
-1.015
-0.44
-0.205
-0.04
0.165
0.28
0.87
0.72
0.185
-0.49
-1.0
-0.42
-0.215
-0.02
0.175
0.22
0.9
0.75
0.14
-0.415
-1.03
-0.395
-0.215
-0.05
0.14
0.245
0.95
0.7
0.085
-0.48
-1.02
-0.375
-0.315
-0.04
0.195
0.21
0.95
0.665
0.04
-0.66
-0.99
-0.295
-0.285
0.035
0.175
0.22
0.935
0.655
0.02
-0.75
-0.97
-0.325
-0.285
0.12
0.15
0.24
1.0
0.59
-0.13
-0.8
-0.835
-0.27
-0.28
0.17
0.18
0.21
0.95
0.505
-0.24
-0.875
-0.725
-0.27
-0.265
0.215
0.28
0.315
0.94
0.4
-0.285
-0.865
-0.62
-0.23
-0.175
0.215
0.255
0.445
0.95
0.4
-0.22
-0.875
-0.56
-0.195
-0.15
0.15
0.27
0.57
1.06
0.425
-0.245
-0.88
-0.535
-0.23
-0.085
0.2
0.225
0.58
0.9
0.295
-0.29
-0.93
-0.525
-0.245
-0.13
0.17
0.24
0.635
0.835
0.225
-0.4
-0.975
-0.49
-0.245
-0.145
0.155
0.22
0.725
0.81
0.25
-0.38
-1.005
-0.485
-0.195
-0.11
0.085
0.21
0.775
0.805
0.21
-0.44
-1.08
-0.5
-0.195
-0.005
0.13
0.225
0.83
0.71
0.135
-0.46
-0.97
-0.41
-0.18
-0.085
0.09
0.21
0.865
0.74
0.24
-0.335
-0.925
-0.3
-0.135
-0.02
0.19
0.335
0.995
0.84
0.27
-0.3
-0.775
-0.045
0.165
0.35
0.58
0.67
1.42
1.23
0.655
0.03
-0.59
-0.05
-0.15
-0.015
0.045
-0.03
0.675
0.365
-0.175
-0.825
-1.15
-0.45
-0.41
-0.075
0.115
0.125
0.905
0.63
-0.03
-0.745
-0.97
-0.325
-0.33
0.075
0.12
0.215
0.935
0.56
-0.13
-0.825
-0.905
-0.305
-0.255
0.135
0.165
0.205
0.945
0.485
-0.13
-0.8
-0.775
-0.325
-0.275
0.14
0.215
0.26
0.935
0.48
-0.195
-0.915
-0.66
-0.3
-0.235
0.21
0.26
0.375
0.98
0.425
-0.22
-0.9
-0.605
-0.3
-0.165
0.18
0.23
0.515
0.945
0.405
-0.28
-0.935
-0.575
-0.255
-0.09
0.23
0.32
0.695
0.91
0.315
-0.28
-0.87
-0.485
-0.205
-0.065
0.19
0.275
0.785
0.93
0.34
-0.185
-0.84
-0.39
-0.095
0.0
0.2
0.315
0.865
0.985
0.47
-0.225
-0.77
-0.28
-0.005
0.09
0.355
0.435
1.005
1.08
0.5
-0.145
-0.695
-0.16
0.105
0.2
0.42
0.53
1.19
1.085
0.555
-0.05
-0.665
-0.075
0.18
0.325
0.485
0.575
1.205
1.075
0.465
-0.115
-0.64
-0.085
0.095
0.265
0.435
0.515
1.18
0.945
0.33
-0.225
-0.81
-0.21
-0.05
0.125
0.31
0.39
1.035
0.8
0.215
-0.365
-0.965
-0.33
-0.19
0.045
0.18
0.3
1.05
0.725
0.115
-0.6
-1.01
-0.33
-0.265
0.07
0.21
0.21
0.96
0.625
0.0
-0.715
-0.96
-0.335
-0.285
0.08
0.17
0.27
0.985
0.64
-0.085
-0.825
-0.9
-0.365
-0.32
0.23
0.23
0.275
0.99
0.5
-0.175
-0.84
-0.785
-0.34
-0.225
0.18
0.2
0.275
0.965
0.47
-0.21
-0.965
-0.695
-0.27
-0.24
0.16
0.18
0.36
0.945
0.405
-0.25
-0.99
-0.705
-0.255
-0.17
0.19
0.205
0.475
0.97
0.385
-0.3
-1.01
-0.57
-0.285
-0.13
0.17
0.255
0.62
0.885
0.325
-0.34
-0.99
-0.535
-0.265
-0.18
0.115
0.2
0.635
0.91
0.295
-0.32
-0.965
-0.5
-0.205
-0.105
0.16
0.205
0.745
0.825
0.25
-0.405
-0.945
-0.405
-0.195
-0.06
0.12
0.2
0.76
0.77
0.25
-0.435
-1.005
-0.43
-0.21
-0.11
0.17
0.265
0.835
0.78
0.205
-0.445
-0.96
-0.405
-0.175
-0.06
0.125
0.205
0.855
0.7
0.14
-0.455
-1.025
-0.4
-0.215
-0.055
0.145
0.225
0.91
0.68
0.13
-0.45
-1.035
-0.385
-0.165
-0.01
0.095
0.17
0.925
0.715
0.105
-0.43
-1.025
-0.335
-0.275
0.005
0.18
0.17
0.89
0.685
0.07
-0.63
-1.08
-0.32
-0.295
0.025
0.15
0.195
0.945
0.635
-0.015
-0.745
-0.975
-0.32
-0.325
0.105
0.16
0.215
0.975
0.565
-0.135
-0.79
-0.805
-0.305
-0.31
0.155
0.195
0.185
0.92
0.545
-0.12
-0.81
-0.785
-0.24
-0.235
0.175
0.19
0.23
0.93
0.465
-0.22
-0.895
-0.685
-0.225
-0.19
0.17
0.245
0.4
0.95
0.445
-0.2
-0.89
-0.585
-0.205
-0.185
0.21
0.295
0.525
0.98
0.425
-0.225
-0.885
-0.545
-0.25
-0.13
0.185
0.25
0.58
0.865
0.34
-0.31
-0.96
-0.57
-0.245
-0.11
0.165
0.17
0.61
0.82
0.27
-0.41
-1.005
-0.46
-0.26
-0.195
0.155
0.275
0.725
0.81
0.225
-0.45
-0.965
-0.435
-0.215
-0.11
0.095
0.155
0.77
0.785
0.22
-0.42
-0.99
-0.44
-0.225
-0.065
0.13
0.2
0.805
0.75
0.17
-0.415
-1.015
-0.45
-0.235
-0.09
0.11
0.115
0.815
0.755
0.19
-0.445
-0.925
-0.235
-0.09
0.035
0.235
0.305
1.005
0.82
0.245
-0.265
-0.77
-0.15
0.055
0.315
0.58
0.71
1.41
1.195
0.58
0.025
-0.51
0.045
-0.035
0.01
0.03
0.025
0.635
0.375
-0.23
-0.865
-1.155
-0.48
-0.405
-0.035
0.14
0.18
0.925
0.6
-0.02
-0.8
-0.975
-0.36
-0.335
0.065
0.145
0.165
0.95
0.57
-0.13
-0.82
-0.85
-0.34
-0.325
0.155
0.21
0.25
0.94
0.51
-0.17
-0.99
-0.79
-0.245
-0.265
0.13
0.205
0.26
0.945
0.465
-0.22
-0.83
-0.685
-0.31
-0.21
0.18
0.245
0.38
0.95
0.425
-0.255
-0.895
-0.58
-0.31
-0.13
0.235
0.21
0.53
0.995
0.38
-0.285
-0.885
-0.525
-0.225
-0.205
0.135
0.305
0.64
0.97
0.37
-0.32
-0.895
-0.475
-0.19
-0.05
0.255
0.31
0.765
0.945
0.29
-0.245
-0.845
-0.42
-0.11
0.0
0.295
0.35
0.885
0.97
0.445
-0.145
-0.74
-0.23
-0.02
0.1
0.35
0.445
1.025
0.995
0.44
-0.19
-0.63
-0.105
0.105
0.255
0.475
0.535
1.11
1.105
0.59
-0.025
-0.615
-0.08
0.13
0.245
0.435
0.565
1.245
1.14
0.53
-0.055
-0.67
-0.05
0.18
0.26
0.43
0.495
1.14
0.96
0.375
-0.25
-0.75
-0.13
-0.045
0.065
0.32
0.4
0.99
0.785
0.245
-0.345
-0.895
-0.3
-0.215
0.095
0.215
0.285
0.985
0.705
0.06
-0.65
-0.97
-0.255
-0.27
0.085
0.215
0.235
0.99
0.68
0.03
-0.76
-1.015
-0.32
-0.25
0.075
0.215
0.28
0.915
0.56
-0.07
-0.79
-0.835
-0.33
-0.31
0.165
0.24
0.2
0.925
0.53
-0.155
-0.83
-0.735
-0.305
-0.305
0.14
0.18
0.265
0.945
0.505
-0.215
-0.97
-0.74
-0.27
-0.195
0.17
0.24
0.35
0.92
0.385
-0.27
-0.915
-0.615
-0.23
-0.225
0.16
0.2
0.43
0.915
0.36
-0.265
-0.935
-0.58
-0.255
-0.13
0.16
0.17
0.55
0.93
0.37
-0.29
-0.94
-0.555
-0.28
-0.22
0.07
0.19
0.645
0.89
0.295
-0.35
-0.94
-0.435
-0.185
-0.11
0.085
0.205
0.73
0.82
0.235
-0.41
-1.0
-0.43
-0.17
-0.11
0.165
0.22
0.705
0.83
0.265
-0.405
-0.93
-0.395
-0.23
-0.13
0.09
0.215
0.825
0.755
0.205
-0.43
-0.99
-0.405
-0.175
-0.065
0.15
0.22
0.885
0.755
0.11
-0.445
-0.98
-0.39
-0.245
-0.1
0.15
0.25
0.875
0.715
0.13
-0.455
-1.025
-0.375
-0.205
-0.04
0.125
0.205
0.85
0.675
0.13
-0.47
-0.96
-0.325
-0.275
-0.08
0.07
0.145
0.98
0.715
0.075
-0.6
-0.985
-0.355
-0.325
0.03
0.155
0.2
0.95
0.63
0.0
-0.72
-0.955
-0.385
-0.295
0.09
0.12
0.205
0.95
0.595
-0.09
-0.765
-0.925
-0.315
-0.27
0.165
0.23
0.23
0.88
0.525
-0.145
-0.875
-0.79
-0.325
-0.29
0.15
0.21
0.25
0.895
0.45
-0.165
-0.865
-0.745
-0.275
-0.245
0.18
0.18
0.37
0.925
0.425
-0.225
-0.905
-0.65
-0.295
-0.16
0.085
0.175
0.52
1.005
0.345
-0.295
-0.875
-0.6
-0.265
-0.17
0.205
0.245
0.57
0.87
0.35
-0.325
-0.9
-0.46
-0.235
-0.17
0.145
0.13
0.66
0.98
0.355
-0.28
-0.86
-0.39
-0.16
-0.005
0.185
0.21
0.75
0.865
0.295
-0.355
-0.94
-0.44
-0.195
-0.115
0.11
0.18
0.73
0.735
0.225
-0.38
-0.94
-0.435
-0.205
-0.11
0.105
0.17
0.735
0.745
0.175
-0.4
-0.985
-0.4
-0.205
-0.095
0.095
0.18
0.815
0.77
0.17
-0.485
-1.02
-0.445
-0.18
-0.095
0.09
0.155
0.865
0.715
0.155
-0.47
-1.01
-0.355
-0.23
-0.045
0.115
0.2
0.87
0.67
0.09
-0.445
-1.03
-0.35
-0.21
-0.035
0.175
0.335
0.985
0.78
0.205
-0.44
-0.92
-0.23
-0.18
0.185
0.42
0.4
1.215
1.03
0.49
-0.2
-0.455
0.215
0.265
0.615
0.675
0.61
1.195
0.7
-0.13
-0.97
-1.21
-0.645
-0.565
-0.075
0.015
0.11
0.84
0.5
-0.23
-0.89
-0.295
-0.04
-0.085
-0.01
-0.045
0.005
0.08
0.005
0.075
-0.165
-0.165
-0.125
-0.115
-0.055
-0.07
-0.02
0.015
-0.07
-0.09
-0.195
-0.17
-0.06
-0.005
0.04
-0.02
0.01
0.065
-0.04
-0.105
-0.14
-0.025
-0.055
-0.03
0.045
-0.02
0.055
0.09
0.01
-0.105
-0.18
-0.08
-0.06
-0.06
-0.005
0.065
0.085
0.07
0.05
-0.03
-0.095
0.0
-0.005
0.01
0.02
0.085
0.115
0.09
0.045
-0.04
-0.05
0.0
-0.025
0.015
0.085
0.06
0.155
0.185
0.095
0.06
0.005
0.015
0.065
0.05
0.04
0.12
0.245
0.15
0.155
0.06
0.015
0.105
0.195
0.13
0.205
0.205
0.305
0.255
0.175
0.205
0.13
0.225
0.275
0.24
0.26
0.355
0.41
0.385
0.305
0.23
0.245
0.325
0.335
0.34
0.345
0.39
0.475
0.415
0.37
0.27
0.245
0.32
0.315
0.375
0.375
0.415
0.445
0.365
0.315
0.205
0.2
0.295
0.265
0.215
0.2
0.225
0.365
0.295
0.195
0.1
0.035
0.065
0.1
0.15
0.095
0.095
0.2
0.095
0.055
-0.025
-0.05
0.015
0.065
0.07
0.06
0.055
0.1
0.08
0.01
-0.105
-0.1
0.03
0.055
0.035
0.04
0.075
0.095
-0.09
-0.07
-0.04
-0.06
-0.015
-0.02
0.045
0.095
0.095
0.065
0.035
-0.02
-0.07
0.02
0.065
-0.01
-0.01
0.03
0.03
0.025
0.045
-0.015
-0.09
-0.105
-0.07
0.0
0.03
0.025
0.025
0.05
-0.005
-0.075
-0.075
-0.03
-0.005
-0.02
0.05
-0.01
-0.01
0.015
0.01
-0.02
-0.1
-0.045
-0.01
0.08
0.045
0.045
0.075
0.015
-0.01
-0.015
-0.125
-0.015
0.0
0.01
0.03
0.05
0.045
0.08
-0.015
0.005
-0.055
-0.085
-0.04
-0.015
0.015
0.04
0.1
0.075
-0.01
-0.075
-0.095
-0.035
-0.01
0.03
0.04
0.05
0.095
0.07
0.03
-0.04
-0.075
-0.005
-0.035
-0.05
0.005
0.025
0.085
0.06
0.02
-0.025
-0.075
-0.03
-0.005
0.02
0.015
0.005
0.08
0.07
0.04
-0.02
-0.06
-0.06
0.0
0.02
-0.03
-0.005
0.105
0.02
-0.045
-0.075
-0.045
-0.02
-0.01
0.045
0.06
0.045
0.055
0.045
0.0
-0.03
-0.05
-0.07
-0.03
-0.035
0.005
0.03
0.0
0.015
0.015
-0.045
-0.02
-0.015
-0.06
0.02
0.01
-0.005
0.03
0.015
0.02
-0.1
-0.04
-0.02
0.045
0.025
-0.025
0.01
0.075
0.04
-0.04
-0.09
-0.055
0.0
-0.025
0.0
-0.045
0.025
0.08
-0.01
-0.035
-0.085
-0.02
-0.01
0.015
0.035
0.0
0.035
0.085
-0.03
-0.065
-0.065
-0.055
-0.02
-0.025
0.005
0.05
0.065
0.08
0.005
-0.08
-0.155
-0.045
0.015
0.045
-0.005
0.015
0.035
0.06
0.01
-0.05
-0.11
-0.035
-0.02
-0.03
0.025
0.06
0.07
0.035
-0.03
0.0
-0.05
0.0
-0.025
0.005
0.03
-0.02
0.06
0.09
0.045
0.02
-0.02
0.06
0.02
0.0
0.09
0.05
0.095
0.075
0.045
0.05
0.02
0.025
-0.005
0.015
0.05
0.03
0.04
0.005
0.0
0.005
-0.08
-0.07
-0.03
-0.005
0.005
0.055
0.025
0.03
-0.01
-0.05
-0.11
-0.03
-0.01
0.03
0.005
0.015
0.01
0.015
-0.02
-0.115
-0.115
-0.005
-0.005
-0.01
-0.1
-0.005
0.12
0.075
-0.04
-0.08
-0.135
-0.065
-0.035
-0.005
0.045
0.045
0.035
-0.015
0.005
-0.04
-0.055
0.0
0.0
0.015
-0.02
-0.03
-0.015
0.03
-0.035
-0.005
-0.035
0.085
0.09
0.09
0.09
0.075
0.055
0.05
0.155
0.17
0.155
0.225
0.31
0.36
0.45
0.545
0.585
0.485
0.455
0.435
0.41
0.37
0.225
0.07
-0.045
-0.2
-0.265
-0.31
-0.34
-0.3
-0.23
-0.145
-0.11
-0.12
-0.11
0.025
0.025
-0.015
-0.06
-0.12
-0.06
-0.03
-0.075
-0.03
-0.01
-0.015
0.04
0.04
0.0
-0.07
-0.045
0.0
-0.06
-0.12
-0.01
0.125
0.09
-0.01
-0.09
-0.105
-0.035
-0.025
-0.01
0.015
0.045
0.015
0.035
-0.015
-0.035
-0.075
-0.025
0.01
-0.015
0.075
0.03
0.03
0.08
-0.01
-0.06
-0.06
0.045
-0.01
-0.015
0.06
0.035
0.07
0.1
0.08
-0.01
-0.045
0.02
0.04
0.03
0.02
0.08
0.095
0.08
0.1
0.04
-0.04
0.01
0.03
0.035
0.035
0.125
0.115
0.11
0.075
0.045
0.035
0.125
0.155
0.135
0.15
0.11
0.16
0.235
0.215
0.125
0.065
0.195
0.225
0.22
0.275
0.24
0.345
0.275
0.255
0.215
0.215
0.255
0.275
0.34
0.37
0.335
0.32
0.345
0.39
0.285
0.245
0.34
0.365
0.375
0.375
0.4
0.465
0.365
0.285
0.275
0.29
0.27
0.275
0.345
0.355
0.305
0.33
0.275
0.24
0.2
0.135
0.165
0.215
0.255
0.24
0.235
0.195
0.14
0.11
0.03
-0.04
0.05
0.09
0.075
0.1
0.095
0.105
0.08
0.045
-0.01
-0.015
0.0
-0.005
0.06
0.08
0.08
0.005
-0.035
-0.06
-0.08
-0.06
0.0
-0.03
0.03
-0.01
0.075
0.145
0.04
-0.085
-0.09
-0.065
-0.09
-0.035
0.015
0.005
0.1
0.13
0.02
-0.01
-0.06
-0.02
0.005
-0.02
-0.025
0.025
0.06
0.04
-0.025
-0.05
-0.08
-0.11
0.0
0.005
0.01
0.03
0.1
0.055
0.04
-0.04
-0.085
0.015
-0.03
-0.05
0.005
-0.01
-0.045
-0.005
0.0
-0.025
-0.035
-0.045
0.005
0.015
0.055
0.075
0.065
0.02
-0.045
-0.09
-0.125
-0.055
-0.04
0.005
0.015
0.1
0.105
0.025
-0.05
-0.05
-0.075
-0.02
0.0
0.005
0.065
0.05
0.095
0.06
-0.03
-0.06
-0.055
-0.035
-0.005
-0.01
0.025
0.03
-0.005
-0.07
0.015
0.015
-0.08
0.03
0.035
-0.02
0.03
0.05
0.05
0.03
-0.02
-0.035
-0.04
-0.015
-0.005
0.02
0.005
0.025
0.07
-0.015
-0.07
-0.045
-0.015
-0.05
-0.03
0.02
0.015
0.0
0.105
0.0
-0.025
-0.05
-0.085
-0.02
-0.005
0.05
-0.005
-0.03
0.065
0.03
-0.03
-0.06
-0.03
0.005
-0.025
-0.02
0.05
0.035
0.04
-0.01
-0.025
-0.09
-0.08
-0.04
0.025
0.005
0.005
0.025
0.05
-0.005
-0.085
-0.075
-0.06
-0.045
-0.01
0.01
0.03
0.035
0.04
0.0
-0.035
-0.07
-0.06
-0.03
0.03
0.03
0.0
0.075
0.045
0.02
-0.015
-0.12
-0.035
-0.035
-0.02
-0.025
0.01
0.06
0.065
-0.025
-0.02
-0.085
-0.05
-0.01
-0.06
0.01
0.07
0.095
0.105
0.025
-0.08
-0.08
-0.035
-0.03
0.03
0.04
0.065
0.085
0.1
0.02
-0.03
-0.06
-0.01
0.04
0.0
0.0
0.095
0.175
0.1
0.065
0.02
-0.015
0.02
0.04
0.02
-0.08
0.02
0.1
0.145
-0.015
-0.105
-0.075
-0.01
-0.01
0.005
-0.015
0.015
0.045
-0.02
0.0
-0.06
-0.045
-0.02
-0.015
0.0
0.02
-0.015
0.035
0.025
-0.04
-0.065
-0.085
-0.04
-0.06
-0.095
0.03
0.03
0.07
0.045
-0.01
-0.09
-0.1
-0.01
-0.005
0.02
-0.08
-0.055
0.075
0.065
0.01
-0.07
-0.115
-0.1
-0.04
0.025
0.025
0.025
0.075
0.04
-0.01
-0.035
-0.05
0.06
0.1
0.065
0.07
0.085
0.175
0.13
0.1
0.075
0.005
0.16
0.295
0.34
0.395
0.52
0.575
0.445
0.425
0.37
0.415
0.4
0.27
0.225
0.055
-0.15
-0.235
-0.275
-0.315
-0.35
-0.225
-0.175
-0.175
-0.085
-0.085
-0.045
0.03
0.01
-0.065
-0.14
-0.1
-0.035
-0.015
0.0
-0.055
-0.045
0.07
0.045
-0.1
-0.105
-0.035
0.005
0.005
-0.09
-0.005
0.09
0.025
0.0
-0.095
-0.15
-0.045
0.06
-0.005
0.01
0.045
0.02
0.005
-0.03
0.005
-0.05
-0.035
-0.02
-0.02
0.015
0.055
0.02
0.025
0.055
0.015
-0.07
0.015
-0.02
0.025
0.08
0.07
0.13
0.095
0.055
-0.06
-0.045
-0.045
-0.025
0.07
0.02
-0.015
0.105
0.14
0.095
0.035
-0.03
-0.02
0.035
0.075
0.13
0.085
0.1
0.115
0.1
0.05
-0.02
0.07
0.13
0.13
0.16
0.135
0.195
0.225
0.225
0.15
0.13
0.18
0.16
0.17
0.24
0.295
0.37
0.33
0.195
0.185
0.2
0.265
0.255
0.315
0.365
0.31
0.4
0.375
0.34
0.28
0.285
0.265
0.335
0.425
0.435
0.39
0.44
0.41
0.345
0.275
0.335
0.28
0.35
0.31
0.32
0.265
0.37
0.34
0.2
0.14
0.15
0.235
0.225
0.225
0.215
0.185
0.25
0.205
0.08
0.05
-0.005
0.095
0.08
0.07
0.095
0.08
0.085
0.13
0.05
-0.035
-0.035
0.01
0.005
0.015
0.035
0.085
0.1
0.06
-0.01
-0.105
-0.065
-0.015
-0.04
-0.005
0.05
0.085
0.08
0.08
0.015
-0.06
-0.03
-0.005
-0.035
-0.02
-0.055
-0.045
0.03
0.055
0.03
-0.025
0.005
0.015
0.0
-0.045
0.035
0.095
0.045
0.0
-0.04
-0.045
-0.06
0.01
0.015
-0.045
-0.01
0.035
0.01
-0.04
-0.05
-0.045
-0.015
0.015
-0.005
0.035
0.045
0.085
0.035
-0.045
-0.015
-0.075
-0.01
-0.02
0.025
0.015
0.05
0.05
0.085
0.015
-0.04
-0.055
-0.045
0.015
0.005
0.05
-0.01
0.055
0.0
0.02
-0.055
-0.125
-0.035
0.025
0.01
0.015
0.075
0.12
0.09
0.08
-0.03
-0.08
-0.01
0.015
0.0
0.01
0.05
0.055
0.01
0.02
-0.085
-0.095
0.005
0.025
0.055
0.055
-0.01
0.085
0.02
-0.02
-0.035
-0.07
-0.035
-0.02
0.05
0.035
-0.03
0.04
0.055
0.02
-0.055
-0.04
-0.03
-0.08
0.0
0.035
0.085
0.08
0.05
-0.07
-0.07
-0.005
-0.03
-0.055
0.005
0.045
0.02
0.055
0.07
-0.015
-0.105
-0.06
-0.02
0.0
0.01
0.025
0.065
0.1
-0.02
-0.07
-0.055
-0.02
0.0
-0.03
-0.015
0.0
0.06
0.105
-0.04
-0.075
-0.075
-0.005
0.035
-0.01
-0.03
-0.03
0.02
0.025
0.0
-0.015
-0.035
-0.01
-0.005
-0.025
-0.01
0.09
0.045
0.03
0.01
-0.06
-0.05
-0.055
-0.045
0.02
0.005
0.1
0.1
0.065
0.015
-0.085
-0.08
0.01
-0.04
0.02
0.005
0.03
0.075
0.085
0.02
-0.08
-0.105
-0.03
0.015
0.015
-0.04
0.045
0.12
-0.005
0.01
-0.015
-0.115
-0.02
0.015
0.01
0.045
0.055
0.07
0.1
0.035
-0.015
-0.01
-0.025
0.015
-0.01
0.03
0.115
0.1
0.06
0.05
0.0
-0.03
0.03
0.08
0.045
0.075
0.115
0.17
0.065
0.025
0.06
0.05
0.05
0.04
0.02
-0.035
-0.015
0.105
0.06
0.005
-0.055
-0.1
0.04
-0.005
-0.02
0.045
0.005
0.05
0.035
0.005
-0.07
-0.06
-0.005
-0.04
-0.02
0.015
0.1
0.075
0.025
-0.035
-0.075
-0.03
-0.005
0.0
0.065
0.065
-0.02
0.025
0.0
-0.025
-0.1
-0.03
-0.03
-0.025
0.025
-0.015
0.005
0.115
-0.02
-0.055
-0.08
-0.055
-0.055
-0.04
-0.01
0.08
0.09
0.115
0.105
0.075
0.005
0.005
0.0
0.03
0.145
0.18
0.175
0.27
0.24
0.165
0.17
0.205
0.31
0.425
0.515
0.63
0.595
0.595
0.505
0.49
0.37
0.245
0.095
0.01
-0.13
-0.25
-0.26
-0.215
-0.24
-0.215
-0.245
-0.13
-0.07
-0.08
-0.02
0.03
0.02
-0.035
-0.07
-0.005
-0.05
-0.05
-0.035
-0.04
0.065
0.0
0.02
0.03
0.015
-0.06
-0.075
-0.045
0.015
0.02
0.055
0.035
0.07
0.06
0.025
-0.06
-0.09
-0.02
0.005
0.05
0.045
0.03
0.03
0.015
0.01
0.015
-0.05
0.025
0.05
0.06
0.04
0.03
0.08
0.05
-0.015
-0.115
-0.015
0.115
0.075
0.03
0.015
0.0
0.125
0.11
0.055
0.015
-0.035
0.02
0.04
0.085
0.085
0.075
0.105
0.06
0.05
0.03
0.03
0.08
0.125
0.135
0.11
0.11
0.15
0.12
0.075
0.085
0.04
0.1
0.135
0.165
0.095
0.16
0.245
0.22
0.18
0.14
0.165
0.26
0.275
0.285
0.295
0.27
0.265
0.3
0.325
0.25
0.23
0.24
0.265
0.365
0.355
0.36
0.405
0.355
0.305
0.265
0.325
0.305
0.36
0.4
0.385
0.435
0.38
0.41
0.35
0.23
0.26
0.325
0.305
0.34
0.365
0.4
0.325
0.245
0.195
0.16
0.16
0.185
0.21
0.19
0.23
0.285
0.23
0.14
0.115
0.0
0.035
0.13
0.08
0.1
0.03
0.07
0.115
0.05
0.05
-0.005
-0.01
0.05
0.045
0.07
0.05
0.07
0.08
0.0
-0.065
-0.035
-0.025
0.005
0.005
0.025
0.05
0.095
0.085
0.04
-0.05
-0.065
0.025
-0.035
-0.05
0.03
0.06
0.075
0.045
-0.015
0.0
-0.05
0.015
0.0
0.02
0.05
0.045
0.1
0.075
0.025
-0.07
-0.105
0.0
-0.05
-0.02
0.015
0.065
0.09
0.01
-0.005
-0.075
-0.07
0.0
0.035
0.04
-0.02
0.005
0.07
0.095
0.015
-0.025
-0.08
-0.035
-0.01
0.055
0.03
0.01
0.09
0.01
0.0
-0.045
-0.035
-0.035
-0.03
0.015
0.04
0.13
0.165
0.08
0.01
-0.075
-0.05
-0.03
-0.035
0.02
0.025
0.03
0.115
0.075
0.045
-0.135
-0.12
-0.015
0.025
0.095
0.03
0.09
0.12
0.06
0.01
-0.07
-0.07
-0.045
0.005
0.02
0.075
0.055
0.06
-0.02
0.06
-0.065
-0.04
0.005
-0.005
0.025
0.01
0.035
0.135
0.07
-0.025
-0.07
-0.075
0.015
0.015
0.015
0.045
0.065
0.09
0.01
-0.02
-0.035
-0.015
-0.015
0.02
0.01
0.005
0.015
0.12
0.07
-0.04
-0.12
-0.005
0.035
0.07
0.015
-0.035
0.0
0.06
0.005
-0.055
-0.04
-0.005
-0.065
0.0
0.045
0.05
0.09
0.095
0.0
-0.02
-0.035
-0.02
-0.05
-0.055
0.025
0.07
0.085
0.075
0.07
-0.02
-0.075
-0.035
-0.03
-0.055
0.01
0.055
0.055
0.05
0.035
-0.06
-0.12
-0.065
0.025
-0.015
0.0
0.05
0.1
0.065
0.01
-0.045
-0.095
-0.065
0.01
0.015
0.025
0.035
0.105
0.12
0.025
-0.03
-0.105
-0.05
0.01
0.05
0.095
0.07
0.05
0.14
0.045
-0.03
-0.025
-0.02
0.05
-0.01
0.06
0.085
0.115
0.095
0.045
-0.035
-0.075
0.03
0.07
0.1
0.08
0.15
0.165
0.145
0.035
-0.035
-0.05
-0.015
-0.02
-0.015
-0.005
0.025
0.045
-0.03
0.0
-0.065
-0.055
-0.03
-0.05
-0.005
0.015
0.025
0.09
0.055
-0.01
-0.085
-0.115
-0.07
-0.04
-0.025
0.0
-0.005
0.015
0.01
-0.085
-0.125
-0.085
-0.025
-0.015
0.02
-0.03
0.03
0.14
-0.025
-0.025
-0.11
-0.055
-0.045
-0.045
-0.025
-0.01
0.0
0.05
-0.035
-0.07
-0.09
-0.06
-0.03
0.005
0.065
0.06
0.115
0.155
0.08
0.035
0.0
0.08
0.1
0.09
0.16
0.25
0.28
0.36
0.355
0.45
0.505
0.515
0.51
0.5
0.495
0.555
0.465
0.285
0.035
-0.195
-0.365
-0.355
-0.295
-0.27
-0.255
-0.2
-0.08
-0.005
-0.12
-0.17
-0.185
-0.135
-0.045
-0.02
-0.04
-0.1
0.01
0.03
-0.015
-0.085
-0.075
-0.075
0.005
-0.01
-0.045
-0.01
0.005
-0.01
-0.015
-0.1
-0.105
-0.085
0.015
-0.01
0.015
0.025
0.075
0.0
-0.045
-0.115
-0.145
-0.075
-0.04
0.02
0.0
0.045
0.035
0.06
0.06
-0.045
-0.12
-0.03
0.005
0.035
-0.005
0.03
0.05
0.02
0.005
-0.03
-0.06
-0.09
-0.03
0.04
0.08
0.01
0.065
0.065
0.015
0.01
-0.015
0.0
-0.05
0.05
0.085
0.125
0.065
0.085
0.11
0.01
-0.01
0.05
0.07
0.065
0.105
0.15
0.18
0.16
0.085
0.035
0.06
0.095
0.09
0.14
0.205
0.2
0.245
0.215
0.165
0.185
0.145
0.215
0.235
0.28
0.255
0.285
0.35
0.325
0.29
0.215
0.26
0.295
0.29
0.26
0.35
0.37
0.44
0.4
0.375
0.295
0.26
0.245
0.345
0.355
0.315
0.36
0.4
0.325
0.26
0.16
0.175
0.21
0.235
0.215
0.2
0.315
0.255
0.19
0.11
0.09
0.09
0.06
0.09
0.125
0.12
0.1
0.115
0.075
0.025
0.0
-0.045
0.015
-0.005
0.065
0.05
0.06
0.07
-0.01
-0.025
-0.08
-0.055
-0.01
0.005
0.05
0.045
0.035
0.02
-0.03
-0.055
-0.165
-0.04
-0.025
-0.025
-0.03
-0.07
0.055
0.03
-0.045
-0.09
-0.095
-0.07
-0.02
0.005
0.005
-0.025
0.055
0.055
-0.025
0.01
-0.05
-0.05
0.03
0.0
-0.05
0.0
0.005
0.035
-0.045
-0.085
-0.065
-0.055
-0.05
-0.035
-0.075
-0.05
0.055
0.045
0.04
-0.01
-0.095
-0.08
-0.035
0.01
0.015
-0.04
0.01
0.005
0.005
-0.07
-0.135
-0.035
-0.035
0.025
0.025
0.035
0.07
0.01
-0.075
-0.02
-0.09
0.045
-0.015
-0.06
-0.005
0.015
0.08
0.005
-0.07
-0.09
-0.1
-0.065
-0.005
-0.005
0.03
-0.025
0.01
0.04
-0.035
-0.08
-0.095
-0.065
-0.015
0.025
-0.025
0.01
0.05
-0.005
-0.1
-0.15
-0.09
-0.015
0.015
0.085
0.04
-0.04
0.005
-0.015
-0.105
-0.11
-0.015
-0.03
-0.01
0.01
0.0
0.04
0.045
-0.025
-0.105
-0.125
-0.075
-0.01
-0.025
-0.02
-0.03
0.01
0.055
-0.035
-0.095
-0.125
-0.14
-0.065
0.015
0.0
0.055
0.025
0.0
-0.035
-0.105
-0.115
-0.065
-0.02
0.01
-0.015
-0.015
0.04
0.015
-0.015
-0.065
-0.115
-0.07
-0.03
-0.05
0.025
-0.005
0.045
0.035
-0.045
-0.09
-0.105
-0.045
-0.05
-0.04
-0.005
-0.05
-0.025
0.04
0.02
-0.065
-0.09
0.0
-0.02
-0.05
0.01
0.02
0.04
-0.01
-0.045
-0.025
-0.07
-0.025
0.02
0.02
0.035
0.055
0.14
0.085
0.04
-0.045
-0.075
0.015
0.0
-0.01
0.01
0.03
0.125
0.075
-0.045
-0.08
-0.195
-0.09
-0.005
0.01
-0.01
-0.05
-0.015
-0.045
-0.005
-0.06
-0.155
-0.075
-0.06
-0.025
0.0
0.015
0.06
0.055
-0.035
-0.185
-0.21
-0.065
-0.025
0.04
-0.085
-0.025
0.06
-0.01
-0.065
-0.06
-0.115
-0.09
0.02
0.025
-0.08
-0.04
0.025
-0.025
-0.07
-0.1
-0.11
-0.05
-0.05
-0.055
-0.08
-0.02
0.065
0.045
-0.015
-0.05
0.015
0.05
0.07
0.06
-0.025
0.06
0.12
0.07
0.12
0.065
0.135
0.265
0.27
0.36
0.405
0.48
0.51
0.42
0.39
0.385
0.315
0.215
0.125
-0.065
-0.23
-0.335
-0.27
-0.24
-0.275
-0.29
-0.22
-0.16
-0.165
-0.12
-0.075
-0.035
-0.035
-0.05
-0.045
-0.14
-0.135
-0.07
-0.035
-0.07
-0.015
0.02
0.04
-0.01
-0.065
-0.115
-0.12
-0.095
-0.065
-0.055
0.06
0.045
0.05
0.005
-0.04
-0.12
-0.085
-0.06
-0.03
-0.005
0.035
0.08
0.04
0.025
-0.035
-0.165
-0.07
-0.035
-0.035
-0.005
0.05
0.04
0.03
0.01
-0.04
-0.065
-0.025
-0.005
-0.07
0.025
0.07
0.08
0.04
0.045
-0.02
-0.015
0.0
0.05
0.055
0.075
0.02
0.13
0.07
0.04
-0.015
-0.01
0.015
0.06
0.035
0.1
0.125
0.135
0.095
0.105
0.075
0.02
0.125
0.155
0.115
0.165
0.175
0.165
0.175
0.12
0.04
0.06
0.235
0.255
0.285
0.295
0.315
0.34
0.305
0.265
0.17
0.185
0.21
0.27
0.37
0.325
0.355
0.435
0.4
0.34
0.28
0.29
0.32
0.35
0.37
0.41
0.38
0.415
0.345
0.28
0.285
0.295
0.33
0.28
0.315
0.32
0.33
0.32
0.22
0.145
0.065
0.13
0.19
0.14
0.155
0.205
0.17
0.19
0.165
0.075
-0.09
-0.01
0.05
0.045
0.085
0.08
0.035
0.1
0.07
0.035
-0.065
-0.025
-0.01
0.015
0.035
0.015
0.015
0.095
0.045
-0.04
-0.075
-0.075
0.01
0.04
-0.04
-0.035
0.075
0.04
-0.03
-0.05
-0.015
0.045
-0.075
-0.04
-0.025
0.0
0.03
0.035
-0.03
-0.075
-0.09
-0.01
-0.02
-0.01
-0.02
-0.04
0.065
0.085
0.005
-0.1
-0.16
-0.03
0.0
-0.015
-0.005
0.03
0.09
0.005
-0.07
-0.065
-0.11
-0.02
-0.02
-0.03
0.045
0.07
0.1
0.065
0.005
-0.115
-0.085
0.0
-0.105
-0.065
0.025
0.03
0.095
0.095
0.0
-0.075
-0.05
-0.05
-0.015
0.0
-0.035
0.06
0.085
0.04
0.045
-0.035
-0.105
-0.055
-0.035
-0.075
0.005
0.055
0.115
0.085
0.01
-0.015
-0.095
-0.04
-0.065
-0.02
0.025
-0.005
0.06
0.07
0.03
-0.07
-0.08
-0.045
-0.005
0.03
0.015
0.025
0.045
-0.025
-0.03
-0.09
-0.075
-0.02
-0.035
0.025
0.01
0.005
0.09
0.03
-0.08
-0.11
-0.07
-0.01
-0.005
0.015
0.02
0.02
0.055
0.025
-0.025
-0.15
-0.04
-0.02
-0.005
-0.065
-0.035
0.025
0.07
0.07
-0.01
-0.1
-0.05
-0.045
-0.025
0.0
0.06
0.07
0.015
-0.06
-0.075
-0.09
-0.04
0.01
-0.035
-0.03
0.025
0.07
0.1
0.045
-0.07
-0.11
-0.09
-0.08
-0.01
0.01
0.035
0.05
0.07
-0.035
-0.005
-0.03
-0.065
-0.015
0.01
0.065
0.02
-0.01
0.03
0.08
0.005
-0.07
0.025
0.065
0.035
0.03
0.085
0.13
0.12
0.065
-0.01
-0.05
-0.085
0.01
0.095
0.08
0.0
0.065
0.045
-0.005
-0.07
-0.13
-0.055
-0.005
-0.04
0.015
0.03
0.09
0.025
-0.045
-0.085
-0.145
-0.04
-0.03
0.0
-0.005
-0.065
0.055
0.06
-0.01
-0.07
-0.08
-0.075
-0.04
0.025
0.01
-0.005
0.015
0.015
-0.105
-0.07
-0.125
-0.06
-0.08
-0.03
0.05
0.045
0.03
0.025
-0.015
-0.005
-0.065
-0.11
-0.015
0.07
0.065
0.055
0.175
0.14
0.05
0.02
0.0
0.055
0.115
0.195
0.16
0.205
0.335
0.305
0.315
0.345
0.365
0.44
0.425
0.475
0.475
0.545
0.505
0.37
0.12
-0.165
-0.335
-0.265
-0.255
-0.21
-0.215
-0.175
-0.105
-0.12
-0.13
-0.13
-0.115
-0.045
-0.035
-0.03
-0.02
-0.01
0.075
-0.005
-0.065
-0.105
-0.105
-0.035
-0.05
0.045
0.01
0.005
0.01
-0.015
-0.07
-0.105
-0.06
-0.035
0.02
0.015
0.0
-0.015
-0.005
0.02
0.01
-0.1
-0.09
-0.025
0.02
0.025
0.015
0.04
0.065
0.045
-0.035
-0.075
-0.055
-0.015
0.03
-0.025
0.07
0.115
0.055
0.005
-0.02
-0.095
-0.035
-0.035
0.02
0.05
0.06
0.115
0.065
0.055
0.025
-0.065
-0.015
-0.055
0.055
0.13
0.1
0.105
0.155
0.025
-0.005
-0.025
0.055
0.055
0.105
0.11
0.115
0.205
0.195
0.115
0.085
0.025
0.085
0.13
0.155
0.215
0.16
0.255
0.265
0.2
0.175
0.155
0.205
0.23
0.225
0.23
0.29
0.305
0.36
0.305
0.29
0.2
0.24
0.34
0.365
0.34
0.35
0.405
0.365
0.285
0.29
0.285
0.295
0.29
0.335
0.385
0.395
0.37
0.36
0.26
0.23
0.145
0.235
0.22
0.255
0.295
0.235
0.245
0.205
0.17
0.1
0.045
0.125
0.075
0.14
0.185
0.055
0.07
0.12
0.035
-0.05
-0.005
0.025
0.0
0.045
0.05
-0.03
0.095
0.095
0.04
-0.075
-0.075
0.015
0.045
0.0
0.025
-0.005
0.085
0.045
-0.025
-0.06
-0.125
-0.025
-0.02
0.005
0.065
0.095
0.055
0.015
-0.035
-0.095
-0.055
-0.025
-0.025
0.015
0.04
0.04
0.055
-0.03
-0.025
-0.11
-0.06
0.01
-0.045
-0.01
0.055
0.075
0.075
0.015
-0.05
-0.17
-0.055
-0.02
-0.015
0.025
0.055
0.0
0.05
-0.015
-0.03
-0.09
-0.075
-0.025
0.015
0.03
0.02
0.09
0.08
-0.045
-0.11
-0.05
0.035
0.05
0.0
0.0
-0.01
0.02
0.015
-0.005
-0.015
-0.08
0.01
-0.005
-0.025
-0.045
-0.005
0.055
0.075
0.035
-0.035
-0.105
-0.05
-0.02
0.02
-0.005
0.01
0.06
0.045
0.06
-0.035
-0.075
-0.045
-0.06
0.01
0.06
0.06
0.045
0.0
-0.01
-0.025
-0.055
-0.005
-0.03
-0.01
0.015
-0.02
0.11
0.115
0.01
-0.08
-0.145
-0.045
-0.05
-0.02
0.005
-0.01
0.055
0.045
-0.015
-0.04
-0.045
-0.03
-0.015
-0.035
-0.02
-0.005
0.105
0.085
-0.025
-0.16
-0.09
-0.005
0.025
0.005
0.04
0.03
0.045
0.01
-0.05
-0.135
-0.135
0.0
0.035
0.02
0.08
0.03
0.08
0.08
0.045
-0.115
-0.125
-0.055
0.03
0.05
0.05
0.01
0.075
0.09
0.01
-0.085
-0.05
0.03
-0.01
0.04
0.07
0.055
0.115
0.05
0.005
-0.01
0.06
0.04
0.035
0.03
0.06
0.075
0.055
-0.005
-0.075
-0.12
-0.07
-0.05
-0.03
0.04
0.05
0.125
0.06
0.01
-0.08
-0.08
-0.075
-0.03
-0.035
-0.005
-0.01
0.0
0.1
0.03
-0.045
-0.1
-0.08
-0.025
-0.055
-0.025
-0.015
0.065
0.05
0.0
-0.035
-0.095
-0.065
-0.02
-0.02
-0.02
0.025
0.035
0.02
-0.025
-0.07
-0.135
-0.01
-0.02
0.005
0.04
0.03
0.05
0.05
0.025
-0.02
-0.04
0.125
0.08
0.125
0.13
0.13
0.17
0.175
0.16
0.175
0.17
0.265
0.34
0.465
0.485
0.57
0.585
0.54
0.48
0.41
0.385
0.34
0.195
0.0
-0.19
-0.255
-0.24
-0.225
-0.22
-0.265
-0.245
-0.13
-0.05
-0.055
-0.07
-0.095
-0.01
0.035
0.0
-0.085
-0.13
-0.04
-0.005
-0.025
0.055
-0.005
0.03
-0.005
-0.08
-0.09
-0.06
-0.02
-0.015
-0.045
-0.005
0.02
0.075
0.01
-0.03
-0.035
-0.005
0.0
-0.05
0.015
0.015
0.03
0.065
0.04
-0.045
-0.085
-0.065
-0.03
-0.01
0.005
0.01
0.035
0.12
0.05
-0.07
-0.08
-0.03
0.025
0.035
0.05
0.005
0.035
0.06
0.07
-0.05
-0.055
0.025
0.015
0.005
0.025
0.065
0.11
0.125
0.085
0.07
-0.015
0.0
0.05
0.04
0.085
0.105
0.115
0.185
0.1
0.06
0.035
0.03
0.1
0.14
0.175
0.165
0.205
0.225
0.16
0.14
0.01
0.1
0.23
0.245
0.31
0.305
0.305
0.335
0.285
0.265
0.21
0.23
0.295
0.28
0.325
0.335
0.345
0.445
0.355
0.315
0.22
0.31
0.33
0.345
0.325
0.39
0.455
0.385
0.335
0.325
0.305
0.32
0.24
0.255
0.285
0.285
0.315
0.315
0.24
0.17
0.03
0.11
0.17
0.18
0.175
0.16
0.215
0.18
0.08
-0.01
-0.02
0.03
0.075
0.055
0.025
0.11
0.12
0.08
0.045
-0.045
-0.08
-0.02
0.035
-0.025
0.025
0.005
0.095
0.03
-0.015
-0.015
-0.035
-0.005
-0.02
0.02
-0.02
0.01
-0.005
0.02
-0.005
-0.035
-0.09
-0.015
0.015
0.05
0.01
-0.02
0.085
0.05
-0.03
-0.035
-0.045
-0.005
-0.02
0.005
-0.01
-0.005
0.045
0.075
-0.07
-0.09
-0.07
-0.03
-0.02
-0.025
0.035
0.07
0.065
0.02
-0.025
-0.035
-0.035
-0.055
-0.06
0.02
0.03
0.055
0.08
0.04
-0.015
-0.08
-0.08
-0.07
0.01
0.095
0.05
0.065
0.08
0.01
-0.045
-0.095
-0.05
-0.015
0.045
0.025
0.025
0.055
0.075
0.015
-0.025
-0.05
-0.065
-0.04
-0.025
0.035
0.035
-0.005
0.04
0.08
-0.005
-0.145
-0.085
0.015
0.035
0.025
0.07
0.06
0.075
0.03
-0.045
-0.07
-0.025
0.04
0.04
0.0
0.05
0.09
0.08
0.095
-0.035
-0.13
-0.035
0.005
-0.07
-0.03
0.04
0.09
0.085
0.02
-0.02
-0.095
-0.035
0.04
0.015
-0.015
0.015
0.13
0.01
0.015
-0.045
-0.145
-0.05
0.015
0.03
0.03
0.035
0.06
0.03
0.01
-0.05
-0.08
0.02
0.035
0.01
0.045
-0.005
0.09
0.065
-0.005
-0.025
-0.055
-0.035
-0.035
0.035
0.065
0.08
0.095
0.035
-0.01
-0.045
-0.06
-0.035
-0.015
-0.025
0.025
0.08
0.145
0.095
-0.03
-0.025
-0.055
-0.01
0.035
0.045
0.085
0.03
0.075
0.115
0.1
0.045
0.015
0.075
0.065
0.055
0.065
0.08
0.075
0.075
-0.005
-0.1
-0.11
-0.035
0.015
-0.02
0.05
0.085
-0.005
0.06
0.005
-0.09
-0.04
-0.105
-0.08
0.005
0.015
0.01
0.075
0.015
-0.045
-0.065
-0.095
-0.02
-0.02
-0.05
-0.065
-0.02
0.09
0.03
-0.095
-0.18
-0.095
0.01
0.04
-0.015
-0.005
0.02
0.07
0.045
-0.05
-0.08
-0.075
-0.08
-0.02
0.0
0.035
-0.04
0.02
0.025
-0.055
-0.055
-0.045
0.0
0.065
0.09
0.125
0.14
0.15
0.14
0.11
0.04
0.11
0.185
0.195
0.295
0.35
0.4
0.52
0.625
0.505
0.42
0.49
0.565
0.49
0.38
0.2
0.05
-0.08
-0.295
-0.37
-0.36
-0.27
-0.225
-0.205
-0.1
-0.105
-0.035
-0.02
-0.04
-0.065
-0.08
-0.095
-0.075
-0.025
0.015
-0.03
-0.01
-0.005
-0.11
-0.03
-0.03
-0.025
-0.025
-0.06
-0.02
0.0
0.01
0.015
-0.05
-0.095
-0.14
-0.03
0.02
0.03
0.015
0.02
0.085
0.015
-0.01
-0.055
-0.105
-0.045
-0.055
0.025
0.02
0.005
0.105
0.075
0.03
-0.055
-0.11
-0.03
0.015
0.025
0.005
0.075
0.11
0.075
0.04
-0.04
-0.065
-0.015
0.025
0.055
0.025
0.015
0.105
0.09
0.035
-0.045
-0.035
0.03
0.07
0.075
0.065
0.045
0.065
0.15
0.09
0.02
0.025
0.07
0.11
0.115
0.14
0.1
0.235
0.21
0.09
0.07
0.105
0.12
0.195
0.24
0.16
0.215
0.355
0.315
0.24
0.15
0.215
0.285
0.275
0.3
0.37
0.38
0.39
0.335
0.265
0.25
0.285
0.325
0.385
0.35
0.36
0.42
0.405
0.36
0.32
0.25
0.325
0.245
0.24
0.305
0.33
0.345
0.34
0.31
0.21
0.12
0.215
0.27
0.195
0.155
0.14
0.265
0.25
0.12
0.045
0.01
0.03
0.06
0.065
0.095
0.12
0.185
0.11
0.07
0.035
-0.035
0.015
-0.025
-0.005
-0.025
-0.015
0.1
0.085
0.03
0.0
-0.075
-0.095
-0.08
-0.025
0.01
0.02
0.08
0.01
0.02
-0.045
-0.01
0.025
-0.09
-0.085
0.045
-0.01
0.065
0.095
0.025
-0.07
-0.09
-0.015
0.0
-0.065
0.005
0.03
0.075
0.035
-0.05
-0.11
-0.105
-0.04
0.015
0.035
0.035
-0.02
0.05
0.07
-0.045
-0.105
-0.105
-0.05
-0.065
-0.035
0.035
0.0
0.11
0.055
0.02
-0.12
-0.12
-0.025
-0.07
-0.01
0.02
0.01
0.075
0.04
-0.015
-0.07
-0.115
-0.055
-0.03
0.005
0.045
0.085
0.15
0.085
-0.025
-0.165
-0.145
-0.065
-0.035
0.03
0.015
0.015
0.07
-0.03
-0.04
-0.03
-0.04
-0.05
-0.03
-0.025
0.01
0.035
0.075
0.045
-0.04
-0.1
-0.02
-0.01
-0.07
-0.035
0.045
0.03
0.04
-0.05
-0.06
-0.065
-0.065
0.0
0.005
0.055
0.015
0.0
0.095
0.01
-0.08
-0.18
-0.065
0.015
-0.01
0.01
0.025
0.015
0.025
0.025
-0.02
-0.105
-0.085
-0.01
0.01
0.005
0.03
-0.005
-0.03
-0.005
-0.065
-0.145
-0.06
0.005
-0.025
-0.035
0.03
0.055
0.095
-0.01
-0.005
-0.15
-0.095
-0.03
0.02
0.0
-0.035
-0.015
0.085
-0.025
-0.065
-0.09
-0.04
-0.03
0.02
-0.005
0.015
0.055
0.0
0.0
-0.015
-0.065
0.005
-0.05
0.01
0.0
-0.01
0.055
0.03
-0.03
-0.03
-0.135
-0.02
0.05
0.04
0.03
0.05
0.125
0.04
-0.005
-0.09
-0.05
-0.07
0.06
0.05
0.075
0.085
0.12
0.115
0.04
-0.06
-0.09
0.01
-0.005
0.02
-0.005
0.015
0.08
0.035
-0.04
-0.065
-0.14
-0.09
-0.07
-0.02
-0.015
0.02
0.055
0.015
-0.005
-0.08
-0.105
-0.035
-0.02
-0.04
-0.05
-0.045
-0.01
-0.005
-0.02
-0.07
-0.105
0.005
-0.03
