# TIPE ECG 2021 - ECG-ID Database v1.0.0 par Physionet
# [N° de la personne, N° de l'enregistrement, Période d'échantillonnage, Prénom, Age, Sexe, Date de l'enregistrement]
[2, 11, 0.002, "Emma", 23, "F", "15.03.2005"]
-0.9
-0.91
-0.87
-0.825
-0.83
-0.905
-0.865
-0.905
-0.96
-0.965
-0.925
-0.935
-0.855
-0.795
-0.785
-0.8
-0.825
-0.9
-0.955
-0.93
-0.885
-0.895
-0.835
-0.825
-0.77
-0.825
-0.88
-0.93
-0.905
-0.91
-0.95
-0.895
-0.835
-0.785
-0.815
-0.85
-0.915
-0.95
-0.93
-0.94
-0.965
-0.925
-0.87
-0.785
-0.885
-0.89
-0.955
-0.905
-0.98
-0.925
-0.89
-0.91
-0.775
-0.74
-0.845
-0.905
-0.93
-0.97
-1.03
-0.965
-0.9
-0.855
-0.91
-0.84
-0.865
-0.81
-0.86
-1.015
-0.995
-0.945
-0.935
-0.91
-0.83
-0.815
-0.925
-0.915
-0.985
-0.96
-0.95
-0.97
-0.93
-0.875
-0.92
-0.855
-0.825
-0.905
-0.94
-0.93
-0.97
-1.0
-0.905
-0.865
-0.83
-0.855
-0.905
-0.9
-0.94
-0.98
-0.985
-0.94
-0.97
-0.915
-0.88
-0.845
-0.865
-0.9
-0.96
-0.975
-0.95
-0.92
-0.945
-0.885
-0.855
-0.805
-0.855
-0.855
-0.92
-0.915
-0.945
-0.915
-0.96
-0.84
-0.765
-0.795
-0.815
-0.85
-0.905
-0.95
-0.935
-0.95
-0.92
-0.85
-0.77
-0.885
-0.915
-0.85
-0.96
-1.02
-0.995
-0.925
-0.92
-0.89
-0.785
-0.87
-0.92
-0.915
-1.005
-1.06
-1.02
-0.945
-0.91
-0.88
-0.86
-0.9
-0.935
-0.9
-0.965
-1.01
-0.985
-0.99
-0.975
-0.875
-0.875
-0.9
-0.92
-0.99
-1.005
-1.05
-1.02
-1.01
-1.045
-0.96
-0.895
-0.895
-0.955
-0.935
-0.96
-1.005
-0.88
-0.8
-0.695
-0.525
-0.42
-0.38
-0.325
-0.36
-0.58
-0.69
-0.74
-0.72
-0.8
-0.85
-0.99
-1.11
-1.185
-1.19
-1.16
-1.24
-1.135
-1.06
-1.045
-0.92
-0.925
-0.92
-0.93
-0.945
-0.995
-1.015
-1.0
-1.015
-1.025
-0.905
-0.86
-0.865
-0.89
-0.94
-1.005
-1.035
-0.99
-0.975
-0.965
-0.875
-0.805
-0.925
-0.89
-0.96
-0.96
-0.975
-0.985
-0.895
-0.915
-0.86
-0.875
-0.93
-0.89
-0.89
-0.99
-0.995
-0.98
-0.975
-0.905
-0.84
-0.855
-0.87
-0.93
-0.935
-1.025
-1.04
-0.91
-0.935
-0.87
-0.795
-0.85
-0.87
-0.88
-0.91
-0.985
-0.965
-0.905
-0.945
-0.875
-0.815
-0.8
-0.835
-0.865
-0.885
-0.945
-0.99
-0.925
-0.915
-0.835
-0.775
-0.795
-0.81
-0.79
-0.88
-0.93
-0.905
-0.865
-0.87
-0.82
-0.8
-0.77
-0.79
-0.765
-0.845
-0.91
-0.9
-0.82
-0.785
-0.75
-0.64
-0.675
-0.82
-0.85
-0.805
-0.875
-0.825
-0.805
-0.8
-0.72
-0.69
-0.72
-0.84
-0.78
-0.85
-0.85
-0.83
-0.81
-0.83
-0.78
-0.73
-0.78
-0.755
-0.855
-0.83
-0.975
-0.86
-0.81
-0.875
-0.78
-0.775
-0.83
-0.835
-0.845
-0.875
-1.01
-1.005
-0.935
-0.9
-0.895
-0.89
-0.895
-0.975
-1.0
-0.96
-1.015
-0.98
-0.955
-0.945
-0.92
-0.895
-0.905
-0.93
-0.98
-1.07
-1.105
-1.025
-1.04
-0.995
-0.865
-0.865
-0.89
-0.935
-0.94
-1.125
-1.065
-0.99
-0.965
-0.975
-0.96
-0.87
-0.925
-0.975
-0.955
-1.04
-1.035
-1.035
-0.98
-0.925
-0.885
-0.92
-1.0
-1.015
-0.97
-1.0
-1.0
-1.03
-0.995
-0.93
-0.915
-0.88
-0.915
-0.965
-0.95
-1.065
-1.045
-1.025
-1.0
-0.935
-0.885
-0.91
-0.9
-0.89
-0.965
-1.05
-1.07
-0.99
-0.95
-0.9
-0.935
-0.93
-0.91
-0.92
-0.975
-1.08
-1.065
-0.995
-1.015
-0.93
-0.83
-0.865
-0.88
-0.97
-0.985
-1.025
-1.05
-1.01
-0.965
-0.98
-0.98
-0.95
-0.92
-0.89
-0.99
-1.015
-1.04
-0.975
-1.06
-0.98
-0.86
-0.93
-0.985
-0.965
-0.995
-1.035
-1.03
-1.0
-1.0
-0.925
-0.93
-0.91
-0.94
-1.0
-1.08
-1.11
-1.025
-0.975
-1.01
-0.955
-0.935
-0.94
-0.9
-0.905
-1.055
-1.065
-1.025
-0.985
-1.005
-0.98
-0.955
-0.97
-0.905
-0.905
-1.035
-1.15
-1.06
-1.065
-0.925
-0.895
-0.905
-0.95
-1.02
-1.0
-1.055
-1.125
-1.105
-1.01
-0.99
-0.925
-0.88
-0.955
-0.975
-1.025
-1.04
-1.035
-1.025
-1.06
-0.985
-0.95
-0.94
-0.94
-0.92
-0.995
-1.085
-1.07
-1.015
-1.005
-0.98
-1.015
-0.945
-0.9
-0.96
-0.995
-1.05
-1.025
-1.065
-1.03
-0.955
-0.995
-0.955
-0.98
-0.905
-0.965
-1.04
-1.055
-1.015
-0.99
-0.935
-0.92
-0.845
-0.89
-0.92
-0.995
-1.06
-1.07
-1.03
-1.005
-0.945
-0.875
-0.86
-0.9
-0.94
-0.94
-1.03
-1.03
-1.02
-1.045
-1.075
-0.875
-0.86
-0.955
-0.93
-1.035
-1.08
-1.04
-1.06
-1.005
-1.01
-0.925
-0.985
-0.955
-0.995
-1.0
-1.035
-1.08
-1.02
-1.005
-0.99
-0.98
-0.91
-0.955
-1.0
-1.005
-1.085
-1.135
-1.085
-1.035
-0.95
-0.915
-0.965
-0.905
-1.02
-1.105
-1.105
-1.135
-1.11
-1.075
-1.075
-0.91
-0.875
-0.815
-0.775
-0.715
-0.685
-0.615
-0.545
-0.49
-0.445
-0.555
-0.595
-0.675
-0.75
-0.92
-1.035
-1.225
-1.275
-1.245
-1.23
-1.165
-1.125
-1.13
-1.13
-1.205
-1.235
-1.17
-1.1
-1.01
-0.955
-1.0
-0.96
-0.935
-1.005
-1.06
-1.065
-1.02
-1.015
-1.0
-0.985
-0.93
-0.895
-0.965
-0.99
-1.065
-1.07
-1.03
-1.015
-1.01
-0.935
-0.9
-0.915
-0.96
-1.05
-1.07
-1.045
-1.055
-1.025
-0.965
-0.91
-0.905
-0.905
-0.87
-1.02
-0.95
-0.995
-1.02
-1.075
-0.98
-0.93
-0.915
-0.91
-0.905
-1.01
-1.025
-1.05
-1.015
-0.96
-0.905
-0.905
-0.89
-0.905
-0.915
-0.965
-1.03
-1.01
-1.005
-0.955
-0.925
-0.865
-0.885
-0.915
-0.92
-0.94
-1.005
-0.91
-0.925
-0.96
-0.87
-0.84
-0.81
-0.815
-0.85
-0.86
-0.95
-0.975
-0.925
-0.895
-0.895
-0.815
-0.775
-0.79
-0.825
-0.88
-0.955
-0.935
-0.92
-0.84
-0.825
-0.75
-0.77
-0.79
-0.805
-0.88
-0.935
-0.88
-0.885
-0.855
-0.83
-0.835
-0.775
-0.775
-0.78
-0.9
-0.875
-0.925
-0.875
-0.84
-0.775
-0.815
-0.77
-0.835
-0.815
-0.915
-0.965
-1.03
-0.92
-0.93
-0.91
-0.825
-0.845
-0.9
-0.93
-0.995
-1.065
-1.05
-1.075
-1.0
-0.895
-0.91
-0.86
-0.95
-0.975
-1.035
-1.165
-1.055
-1.01
-0.96
-0.965
-0.96
-0.88
-0.96
-0.99
-1.12
-1.1
-1.1
-1.06
-1.015
-0.965
-0.93
-0.97
-1.045
-1.005
-1.105
-1.09
-1.055
-1.06
-1.03
-0.99
-0.955
-0.99
-0.975
-1.01
-1.08
-1.13
-1.05
-1.0
-1.01
-0.97
-0.975
-0.9
-0.945
-0.98
-1.035
-1.045
-1.06
-1.055
-1.01
-0.985
-0.92
-0.98
-0.955
-0.995
-1.025
-1.055
-1.03
-1.045
-0.955
-0.96
-0.96
-0.96
-1.01
-1.105
-1.08
-1.025
-1.02
-1.02
-0.97
-0.94
-0.93
-0.94
-1.005
-1.05
-1.065
-1.095
-1.06
-0.985
-1.015
-0.965
-0.9
-0.995
-0.955
-1.02
-1.045
-1.075
-1.08
-1.065
-1.07
-0.945
-0.95
-1.01
-0.99
-1.11
-1.1
-1.08
-1.095
-1.01
-1.005
-0.955
-0.965
-0.93
-0.92
-1.045
-1.15
-1.12
-1.105
-1.035
-1.07
-0.96
-0.97
-0.97
-0.955
-1.035
-1.15
-1.1
-1.155
-1.08
-0.98
-0.985
-1.02
-1.075
-1.015
-1.0
-1.08
-1.12
-1.09
-1.06
-0.975
-0.97
-0.97
-1.02
-1.055
-1.1
-1.115
-1.085
-1.075
-1.065
-0.965
-0.97
-1.02
-1.01
-0.96
-1.05
-1.16
-1.125
-1.075
-1.1
-0.945
-0.92
-0.97
-1.035
-1.025
-1.105
-1.14
-1.135
-1.07
-1.13
-0.985
-0.92
-0.975
-1.01
-1.035
-1.095
-1.12
-1.12
-1.055
-1.045
-1.025
-0.915
-1.01
-1.015
-0.975
-1.095
-1.115
-1.145
-1.01
-1.01
-1.015
-0.975
-0.97
-1.035
-1.105
-1.105
-1.095
-1.065
-1.065
-0.995
-0.975
-0.895
-0.94
-1.02
-1.02
-1.085
-1.095
-1.075
-1.02
-1.015
-0.945
-0.95
-0.93
-1.03
-1.015
-1.06
-1.125
-1.09
-1.095
-1.085
-0.94
-0.92
-0.935
-0.99
-1.06
-1.085
-1.145
-1.115
-1.06
-1.025
-1.01
-1.04
-1.03
-1.015
-1.07
-1.125
-1.165
-1.1
-1.07
-1.12
-0.985
-0.96
-1.0
-1.04
-1.1
-1.15
-1.11
-1.155
-1.095
-1.08
-1.04
-0.98
-1.1
-1.07
-1.175
-1.175
-1.24
-1.175
-1.125
-1.115
-1.035
-0.985
-0.96
-0.92
-0.86
-0.895
-0.775
-0.745
-0.615
-0.535
-0.545
-0.62
-0.725
-0.79
-0.885
-1.02
-1.16
-1.295
-1.355
-1.32
-1.215
-1.205
-1.215
-1.28
-1.275
-1.345
-1.335
-1.275
-1.21
-1.015
-1.125
-1.06
-1.125
-1.055
-1.115
-1.125
-1.165
-1.105
-1.105
-1.095
-0.995
-0.96
-1.005
-1.03
-1.18
-1.19
-1.135
-1.105
-1.08
-1.03
-0.985
-1.01
-1.045
-1.025
-1.035
-1.17
-1.175
-1.08
-1.07
-1.02
-1.0
-1.075
-1.035
-1.05
-1.09
-1.16
-1.1
-1.05
-1.04
-1.015
-0.99
-1.02
-1.025
-1.025
-1.005
-1.13
-1.15
-1.065
-1.06
-0.975
-0.955
-0.995
-1.01
-1.025
-1.08
-1.135
-1.09
-1.12
-1.025
-1.025
-0.945
-0.94
-0.99
-1.015
-1.07
-1.15
-1.055
-1.09
-1.03
-0.935
-0.895
-0.99
-0.965
-1.005
-1.08
-1.035
-0.975
-1.04
-1.0
-0.965
-0.915
-0.895
-0.905
-1.02
-1.015
-1.015
-0.97
-0.965
-0.935
-0.865
-0.83
-0.935
-0.89
-0.93
-0.97
-0.965
-0.96
-0.985
-0.945
-0.905
-0.84
-0.85
-0.925
-0.935
-0.995
-1.02
-1.01
-1.0
-0.945
-0.91
-0.93
-0.91
-0.97
-1.0
-1.05
-1.075
-1.025
-1.025
-1.04
-1.015
-0.95
-0.955
-0.97
-1.06
-1.14
-1.145
-1.135
-1.1
-1.04
-1.0
-0.985
-1.065
-1.08
-1.1
-1.195
-1.145
-1.195
-1.195
-1.11
-1.1
-1.055
-1.095
-1.115
-1.18
-1.205
-1.195
-1.15
-1.14
-1.125
-1.085
-1.12
-1.105
-1.12
-1.225
-1.25
-1.185
-1.14
-1.145
-1.13
-1.06
-0.995
-1.06
-1.115
-1.185
-1.19
-1.255
-1.195
-1.14
-1.105
-1.045
-1.095
-1.115
-1.125
-1.18
-1.175
-1.24
-1.16
-1.11
-1.095
-1.015
-1.065
-1.085
-1.09
-1.18
-1.185
-1.145
-1.175
-1.1
-1.1
-0.985
-1.045
-1.115
-1.1
-1.14
-1.175
-1.23
-1.09
-1.065
-1.045
-0.97
-1.08
-1.1
-1.125
-1.225
-1.25
-1.2
-1.205
-1.16
-1.105
-1.08
-1.09
-1.045
-1.065
-1.195
-1.17
-1.18
-1.18
-1.15
-1.075
-1.07
-1.075
-1.08
-1.15
-1.2
-1.215
-1.21
-1.185
-1.145
-1.105
-1.04
-1.045
-1.095
-1.135
-1.18
-1.245
-1.26
-1.22
-1.115
-1.07
-1.07
-1.065
-1.175
-1.135
-1.235
-1.22
-1.23
-1.2
-1.13
-1.08
-1.07
-1.06
-1.14
-1.145
-1.22
-1.195
-1.19
-1.215
-1.12
-1.105
-1.08
-1.14
-1.14
-1.205
-1.26
-1.205
-1.2
-1.16
-1.145
-1.095
-1.1
-1.135
-1.07
-1.11
-1.205
-1.195
-1.135
-1.23
-1.195
-1.085
-1.075
-1.1
-1.105
-1.165
-1.225
-1.25
-1.215
-1.175
-1.09
-1.055
-1.095
-1.1
-1.115
-1.165
-1.225
-1.22
-1.175
-1.175
-1.13
-1.035
-1.125
-1.175
-1.135
-1.15
-1.235
-1.235
-1.185
-1.1
-1.055
-1.07
-1.095
-1.1
-1.165
-1.17
-1.205
-1.17
-1.235
-1.215
-1.095
-1.075
-1.09
-1.065
-1.095
-1.18
-1.24
-1.18
-1.13
-1.12
-1.095
-0.97
-1.065
-1.1
-1.105
-1.15
-1.185
-1.09
-1.13
-1.09
-1.035
-0.995
-1.04
-1.045
-1.1
-1.18
-1.17
-1.2
-1.16
-1.155
-1.065
-1.115
-1.12
-1.085
-1.085
-1.16
-1.245
-1.21
-1.215
-1.175
-1.145
-1.115
-1.05
-1.155
-1.155
-1.2
-1.275
-1.195
-1.15
-1.175
-1.095
-1.02
-1.145
-1.14
-1.15
-1.175
-1.22
-1.24
-1.185
-1.125
-1.105
-1.13
-1.22
-1.195
-1.18
-1.28
-1.275
-1.225
-1.175
-1.07
-0.95
-0.895
-0.84
-0.775
-0.72
-0.72
-0.75
-0.685
-0.75
-0.81
-0.795
-0.69
-0.895
-0.955
-1.21
-1.42
-1.46
-1.425
-1.37
-1.325
-1.28
-1.205
-1.24
-1.215
-1.22
-1.28
-1.225
-1.19
-1.215
-1.125
-1.08
-1.08
-1.12
-1.115
-1.125
-1.195
-1.23
-1.13
-1.14
-1.09
-1.04
-1.045
-1.04
-1.06
-1.145
-1.175
-1.215
-1.18
-1.15
-1.1
-1.04
-1.035
-1.06
-1.045
-1.13
-1.155
-1.185
-1.135
-1.18
-1.035
-1.03
-1.015
-1.065
-1.09
-1.19
-1.16
-1.14
-1.13
-1.115
-1.015
-0.98
-1.005
-1.055
-1.08
-1.105
-1.155
-1.155
-1.135
-1.145
-1.025
-1.04
-1.03
-1.025
-1.07
-1.06
-1.2
-1.125
-1.05
-1.055
-1.03
-1.015
-1.01
-1.0
-1.04
-1.085
-1.12
-1.075
-1.095
-1.05
-0.995
-0.92
-0.95
-0.975
-0.97
-0.995
-1.055
-1.095
-1.025
-0.975
-0.945
-0.905
-0.935
-0.96
-0.95
-0.995
-1.015
-1.035
-1.04
-0.92
-0.835
-0.84
-0.87
-0.875
-0.95
-1.0
-0.985
-1.02
-0.915
-0.95
-0.89
-0.82
-0.915
-0.92
-0.9
-0.95
-1.03
-1.035
-0.94
-0.905
-0.955
-0.89
-0.915
-0.93
-1.005
-1.03
-1.1
-1.07
-1.025
-1.045
-0.95
-1.035
-1.085
-1.045
-1.0
-1.125
-1.15
-1.12
-1.1
-1.055
-1.04
-0.985
-1.045
-1.03
-1.04
-1.16
-1.19
-1.12
-1.125
-1.12
-1.055
-1.005
-1.04
-1.055
-1.165
-1.19
-1.175
-1.18
-1.135
-1.105
-1.07
-1.06
-1.06
-1.09
-1.145
-1.215
-1.195
-1.155
-1.125
-1.115
-1.045
-1.02
-1.125
-1.045
-1.095
-1.135
-1.145
-1.125
-1.175
-1.04
-1.06
-1.01
-1.045
-1.04
-1.085
-1.09
-1.155
-1.165
-1.12
-1.02
-0.995
-1.035
-0.995
-1.115
-1.205
-1.13
-1.13
-1.045
-1.055
-1.015
-1.0
-0.975
-1.005
-1.005
-1.065
-1.135
-1.16
-1.16
-1.07
-0.975
-0.975
-0.99
-1.015
-1.055
-1.125
-1.17
-1.095
-1.075
-1.07
-1.075
-0.96
-1.015
-1.01
-1.065
-1.225
-1.08
-1.055
-1.06
-1.065
-1.02
-0.955
-0.97
-1.01
-1.015
-1.12
-1.145
-1.17
-1.11
-1.035
-1.085
-0.995
-1.03
-0.995
-1.02
-1.125
-1.19
-1.16
-1.12
-1.065
-1.04
-0.99
-1.015
-1.025
-1.06
-1.095
-1.185
-1.15
-1.155
-1.065
-0.945
-0.98
-1.0
-0.99
-1.06
-1.12
-1.11
-1.11
-1.1
-1.06
-1.02
-0.99
-0.94
-1.04
-1.045
-1.13
-1.165
-1.09
-1.055
-1.085
-1.01
-1.0
-1.05
-1.02
-1.105
-1.11
-1.12
-1.14
-1.075
-1.08
-1.01
-1.005
-0.985
-0.96
-1.04
-1.155
-1.14
-1.09
-1.075
-1.07
-0.955
-0.965
-1.015
-1.01
-1.09
-1.115
-1.12
-1.09
-1.045
-1.06
-1.005
-0.95
-0.95
-1.075
-1.12
-1.105
-1.195
-1.03
-1.09
-1.045
-0.955
-0.94
-0.985
-1.065
-1.05
-1.125
-1.075
-1.125
-1.11
-1.005
-1.025
-0.95
-0.975
-0.985
-1.05
-1.15
-1.14
-1.095
-1.075
-1.07
-0.985
-0.945
-0.98
-0.94
-1.17
-1.115
-1.11
-1.09
-1.055
-0.96
-0.9
-1.035
-0.975
-1.005
-1.085
-1.04
-1.125
-1.07
-1.055
-1.015
-0.965
-0.93
-0.955
-0.94
-1.015
-1.17
-1.07
-1.025
-0.99
-0.96
-0.94
-0.93
-0.935
-0.94
-1.01
-1.02
-1.07
-1.04
-0.965
-0.91
-0.885
-0.85
-1.0
-1.005
-1.01
-0.995
-0.995
-1.035
-1.055
-0.975
-0.92
-0.93
-0.955
-1.06
-1.08
-1.12
-1.065
-1.005
-0.98
-0.985
-0.945
-0.94
-0.965
-0.975
-1.03
-1.105
-1.115
-1.13
-1.015
-0.925
-0.895
-0.895
-0.975
-0.985
-1.105
-1.09
-1.09
-1.055
-1.025
-0.945
-0.955
-1.025
-1.035
-1.085
-1.175
-1.075
-1.11
-1.005
-0.975
-0.845
-0.68
-0.58
-0.55
-0.57
-0.56
-0.5
-0.53
-0.595
-0.665
-0.63
-0.695
-0.785
-0.865
-1.07
-1.26
-1.295
-1.215
-1.225
-1.12
-1.01
-1.005
-0.97
-0.99
-1.005
-1.03
-1.04
-1.035
-1.005
-0.93
-0.97
-0.845
-0.895
-0.95
-1.055
-1.025
-1.005
-1.005
-0.97
-0.97
-0.91
-0.79
-0.865
-0.905
-0.97
-1.04
-1.02
-0.995
-1.08
-0.945
-0.9
-0.825
-0.9
-0.855
-0.94
-0.965
-0.97
-0.985
-0.9
-0.935
-0.825
-0.9
-0.84
-0.835
-0.905
-1.005
-0.975
-0.95
-0.95
-0.94
-0.755
-0.85
-0.87
-0.865
-0.96
-0.975
-0.995
-0.91
-0.925
-0.93
-0.895
-0.835
-0.83
-0.815
-0.905
-1.015
-0.98
-0.89
-0.865
-0.79
-0.82
-0.8
-0.805
-0.825
-0.895
-0.95
-0.93
-0.93
-0.805
-0.745
-0.75
-0.765
-0.845
-0.8
-0.815
-0.845
-0.895
-0.885
-0.84
-0.74
-0.695
-0.705
-0.73
-0.735
-0.83
-0.855
-0.795
-0.795
-0.8
-0.685
-0.625
-0.66
-0.725
-0.73
-0.755
-0.8
-0.83
-0.78
-0.76
-0.695
-0.68
-0.7
-0.725
-0.705
-0.765
-0.87
-0.83
-0.795
-0.755
-0.685
-0.695
-0.705
-0.72
-0.745
-0.88
-0.915
-0.875
-0.81
-0.835
-0.825
-0.74
-0.77
-0.795
-0.85
-0.995
-0.895
-0.87
-0.88
-0.87
-0.83
-0.85
-0.825
-0.785
-0.925
-0.96
-0.95
-0.94
-0.97
-0.875
-0.835
-0.765
-0.815
-0.845
-0.935
-0.965
-0.985
-1.01
-0.905
-0.855
-0.815
-0.81
-0.885
-0.9
-0.865
-0.95
-0.97
-0.96
-0.895
-0.94
-0.81
-0.825
-0.84
-0.85
-0.89
-0.975
-0.96
-0.88
-0.97
-0.805
-0.855
-0.83
-0.865
-0.83
-0.845
-0.925
-0.96
-0.92
-0.895
-0.91
-0.78
-0.775
-0.795
-0.885
-0.93
-0.89
-0.95
-0.91
-0.895
-0.83
-0.83
-0.78
-0.79
-0.815
-0.88
-0.925
-0.925
-0.9
-0.925
-0.79
-0.655
-0.8
-0.835
-0.8
-0.88
-0.84
-0.92
-0.905
-0.86
-0.82
-0.81
-0.765
-0.855
-0.84
-0.89
-0.92
-0.905
-0.885
-0.825
-0.825
-0.835
-0.79
-0.795
-0.845
-0.92
-0.915
-0.9
-0.89
-0.81
-0.76
-0.75
-0.81
-0.8
-0.815
-0.915
-0.94
-0.965
-0.86
-0.82
-0.775
-0.73
-0.78
-0.785
-0.845
-0.89
-0.925
-0.91
-0.86
-0.82
-0.83
-0.84
-0.77
-0.885
-0.835
-0.83
-0.935
-0.885
-0.84
-0.795
-0.775
-0.75
-0.735
-0.82
-0.905
-0.875
-0.925
-0.9
-0.83
-0.795
-0.725
-0.73
-0.78
-0.8
-0.815
-0.88
-0.89
-0.865
-0.92
-0.765
-0.78
-0.785
-0.79
-0.815
-0.81
-0.935
-0.925
-0.88
-0.845
-0.825
-0.8
-0.715
-0.74
-0.755
-0.825
-0.855
-0.87
-0.83
-0.82
-0.77
-0.77
-0.75
-0.765
-0.825
-0.835
-0.885
-0.9
-0.915
-0.84
-0.79
-0.71
-0.695
-0.73
-0.75
-0.81
-0.935
-0.86
-0.85
-0.875
-0.78
-0.725
-0.71
-0.715
-0.77
-0.865
-0.885
-0.865
-0.83
-0.805
-0.785
-0.73
-0.745
-0.755
-0.73
-0.83
-0.93
-0.835
-0.85
-0.845
-0.735
-0.71
-0.71
-0.745
-0.725
-0.86
-0.905
-0.85
-0.87
-0.85
-0.74
-0.695
-0.7
-0.755
-0.765
-0.83
-0.845
-0.925
-0.855
-0.79
-0.72
-0.705
-0.7
-0.71
-0.8
-0.82
-0.82
-0.85
-0.825
-0.795
-0.705
-0.7
-0.69
-0.725
-0.7
-0.795
-0.85
-0.83
-0.775
-0.785
-0.72
-0.685
-0.65
-0.69
-0.775
-0.785
-0.825
-0.77
-0.76
-0.765
-0.675
-0.655
-0.61
-0.71
-0.7
-0.825
-0.82
-0.76
-0.76
-0.7
-0.665
-0.615
-0.725
-0.735
-0.715
-0.8
-0.815
-0.78
-0.79
-0.8
-0.69
-0.66
-0.71
-0.745
-0.74
-0.785
-0.795
-0.81
-0.78
-0.79
-0.745
-0.685
-0.7
-0.885
-0.845
-0.825
-0.745
-0.715
-0.64
-0.605
-0.62
-0.575
-0.455
-0.39
-0.3
-0.2
-0.13
-0.135
-0.24
-0.405
-0.525
-0.615
-0.705
-0.805
-0.905
-0.965
-0.925
-0.83
-0.84
-0.835
-0.815
-0.92
-0.855
-0.855
-0.83
-0.67
-0.68
-0.67
-0.635
-0.74
-0.75
-0.82
-0.755
-0.8
-0.74
-0.7
-0.64
-0.67
-0.675
-0.655
-0.765
-0.795
-0.745
-0.79
-0.685
-0.64
-0.665
-0.625
-0.71
-0.695
-0.725
-0.805
-0.78
-0.695
-0.69
-0.645
-0.6
-0.605
-0.635
-0.685
-0.675
-0.74
-0.795
-0.78
-0.68
-0.715
-0.52
-0.565
-0.6
-0.605
-0.755
-0.79
-0.68
-0.705
-0.705
-0.63
-0.555
-0.64
-0.61
-0.615
-0.655
-0.685
-0.72
-0.72
-0.675
-0.615
-0.585
-0.535
-0.57
-0.625
-0.675
-0.685
-0.66
-0.675
-0.655
-0.535
-0.505
-0.48
-0.51
-0.615
-0.615
-0.7
-0.695
-0.565
-0.535
-0.515
-0.44
-0.46
-0.575
-0.55
-0.595
-0.645
-0.555
-0.56
-0.54
-0.455
-0.405
-0.435
-0.465
-0.485
-0.56
-0.61
-0.575
-0.525
-0.535
-0.485
-0.38
-0.38
-0.44
-0.515
-0.555
-0.525
-0.555
-0.575
-0.46
-0.4
-0.43
-0.455
-0.54
-0.545
-0.63
-0.59
-0.62
-0.56
-0.525
-0.54
-0.49
-0.505
-0.565
-0.6
-0.64
-0.635
-0.645
-0.61
-0.555
-0.57
-0.575
-0.645
-0.6
-0.655
-0.735
-0.775
-0.76
-0.7
-0.645
-0.59
-0.565
-0.585
-0.565
-0.62
-0.725
-0.76
-0.695
-0.69
-0.62
-0.605
-0.615
-0.575
-0.615
-0.675
-0.75
-0.76
-0.765
-0.665
-0.68
-0.57
-0.545
-0.615
-0.635
-0.7
-0.68
-0.75
-0.735
-0.705
-0.58
-0.565
-0.545
-0.575
-0.615
-0.71
-0.715
-0.74
-0.71
-0.62
-0.57
-0.525
-0.575
-0.57
-0.615
-0.675
-0.725
-0.66
-0.635
-0.695
-0.595
-0.515
-0.565
-0.6
-0.59
-0.66
-0.67
-0.725
-0.69
-0.585
-0.6
-0.485
-0.525
-0.595
-0.605
-0.7
-0.71
-0.695
-0.635
-0.65
-0.605
-0.515
-0.525
-0.585
-0.615
-0.665
-0.655
-0.66
-0.65
-0.645
-0.565
-0.63
-0.54
-0.55
-0.6
-0.625
-0.63
-0.65
-0.625
-0.555
-0.58
-0.485
-0.53
-0.595
-0.64
-0.64
-0.72
-0.71
-0.66
-0.625
-0.49
-0.49
-0.585
-0.585
-0.575
-0.735
-0.71
-0.655
-0.64
-0.63
-0.535
-0.445
-0.505
-0.58
-0.595
-0.695
-0.75
-0.63
-0.63
-0.66
-0.625
-0.51
-0.515
-0.57
-0.595
-0.555
-0.7
-0.685
-0.675
-0.625
-0.565
-0.535
-0.525
-0.57
-0.63
-0.645
-0.78
-0.62
-0.625
-0.575
-0.54
-0.54
-0.61
-0.62
-0.62
-0.65
-0.665
-0.645
-0.66
-0.575
-0.515
-0.52
-0.605
-0.58
-0.62
-0.61
-0.725
-0.655
-0.62
-0.55
-0.515
-0.525
-0.565
-0.56
-0.64
-0.665
-0.625
-0.655
-0.6
-0.58
-0.495
-0.545
-0.57
-0.58
-0.68
-0.69
-0.685
-0.62
-0.575
-0.625
-0.53
-0.535
-0.505
-0.555
-0.645
-0.74
-0.695
-0.635
-0.585
-0.535
-0.475
-0.54
-0.54
-0.595
-0.62
-0.69
-0.67
-0.665
-0.665
-0.565
-0.51
-0.57
-0.575
-0.575
-0.67
-0.765
-0.645
-0.655
-0.555
-0.5
-0.525
-0.485
-0.565
-0.57
-0.62
-0.695
-0.68
-0.605
-0.585
-0.545
-0.505
-0.53
-0.555
-0.55
-0.62
-0.68
-0.67
-0.61
-0.575
-0.51
-0.49
-0.535
-0.575
-0.565
-0.665
-0.67
-0.66
-0.59
-0.655
-0.545
-0.505
-0.505
-0.535
-0.545
-0.54
-0.58
-0.585
-0.59
-0.58
-0.505
-0.465
-0.435
-0.51
-0.52
-0.59
-0.615
-0.62
-0.54
-0.5
-0.48
-0.415
-0.51
-0.495
-0.575
-0.615
-0.6
-0.54
-0.54
-0.555
-0.455
-0.46
-0.495
-0.48
-0.56
-0.625
-0.65
-0.645
-0.61
-0.625
-0.52
-0.425
-0.51
-0.54
-0.59
-0.605
-0.635
-0.625
-0.555
-0.575
-0.56
-0.48
-0.535
-0.54
-0.58
-0.57
-0.66
-0.605
-0.54
-0.545
-0.515
-0.5
-0.47
-0.56
-0.655
-0.71
-0.66
-0.73
-0.695
-0.605
-0.505
-0.48
-0.49
-0.425
-0.31
-0.28
-0.23
-0.18
-0.145
-0.01
-0.015
-0.085
-0.205
-0.21
-0.365
-0.51
-0.64
-0.755
-0.77
-0.725
-0.685
-0.69
-0.655
-0.68
-0.73
-0.765
-0.725
-0.645
-0.6
-0.62
-0.495
-0.515
-0.565
-0.53
-0.6
-0.62
-0.645
-0.615
-0.585
-0.555
-0.445
-0.475
-0.52
-0.5
-0.56
-0.59
-0.56
-0.565
-0.555
-0.495
-0.465
-0.465
-0.515
-0.535
-0.545
-0.62
-0.59
-0.59
-0.575
-0.49
-0.41
-0.45
-0.45
-0.525
-0.545
-0.565
-0.575
-0.595
-0.5
-0.445
-0.43
-0.45
-0.5
-0.48
-0.52
-0.575
-0.555
-0.51
-0.53
-0.485
-0.415
-0.435
-0.45
-0.435
-0.515
-0.6
-0.5
-0.46
-0.465
-0.46
-0.375
-0.435
-0.425
-0.44
-0.51
-0.525
-0.55
-0.45
-0.43
-0.415
-0.345
-0.33
-0.405
-0.425
-0.43
-0.51
-0.46
-0.425
-0.36
-0.355
-0.325
-0.35
-0.335
-0.405
-0.48
-0.5
-0.445
-0.385
-0.335
-0.285
-0.22
-0.3
-0.305
-0.395
-0.46
-0.385
-0.37
-0.375
-0.305
-0.245
-0.25
-0.275
-0.31
-0.325
-0.335
-0.435
-0.38
-0.4
-0.37
-0.29
-0.335
-0.305
-0.32
-0.38
-0.43
-0.455
-0.44
-0.42
-0.355
-0.385
-0.34
-0.355
-0.42
-0.435
-0.515
-0.455
-0.45
-0.495
-0.415
-0.425
-0.375
-0.5
-0.48
-0.41
-0.54
-0.59
-0.545
-0.465
-0.475
-0.42
-0.445
-0.425
-0.43
-0.525
-0.62
-0.61
-0.63
-0.56
-0.475
-0.4
-0.44
-0.455
-0.475
-0.54
-0.635
-0.55
-0.57
-0.5
-0.49
-0.415
-0.445
-0.445
-0.515
-0.59
-0.635
-0.545
-0.565
-0.52
-0.405
-0.405
-0.41
-0.425
-0.43
-0.535
-0.525
-0.575
-0.51
-0.52
-0.475
-0.365
-0.395
-0.49
-0.475
-0.49
-0.53
-0.53
-0.48
-0.46
-0.43
-0.405
-0.36
-0.405
-0.395
-0.535
-0.535
-0.49
-0.54
-0.51
-0.445
-0.445
-0.39
-0.485
-0.475
-0.495
-0.525
-0.49
-0.535
-0.455
-0.405
-0.425
-0.44
-0.425
-0.465
-0.59
-0.59
-0.575
-0.55
-0.465
-0.39
-0.43
-0.46
-0.395
-0.445
-0.49
-0.53
-0.505
-0.54
-0.45
-0.405
-0.415
-0.395
-0.53
-0.47
-0.545
-0.545
-0.525
-0.49
-0.45
-0.41
-0.395
-0.395
-0.39
-0.56
-0.535
-0.53
-0.535
-0.55
-0.48
-0.43
-0.43
-0.365
-0.475
-0.48
-0.53
-0.535
-0.53
-0.535
-0.445
-0.395
-0.445
-0.45
-0.435
-0.54
-0.525
-0.56
-0.55
-0.485
-0.445
-0.4
-0.4
-0.435
-0.415
-0.415
-0.525
-0.525
-0.505
-0.51
-0.425
-0.39
-0.4
-0.4
-0.43
-0.47
-0.535
-0.6
-0.52
-0.44
-0.49
-0.41
-0.385
-0.425
-0.39
-0.475
-0.605
-0.625
-0.485
-0.49
-0.44
-0.405
-0.39
-0.41
-0.43
-0.505
-0.55
-0.5
-0.52
-0.515
-0.42
-0.4
-0.415
-0.4
-0.465
-0.525
-0.485
-0.47
-0.465
-0.495
-0.415
-0.395
-0.355
-0.4
-0.39
-0.465
-0.485
-0.54
-0.52
-0.575
-0.4
-0.3
-0.335
-0.335
-0.375
-0.42
-0.48
-0.425
-0.465
-0.42
-0.355
-0.32
-0.34
-0.41
-0.38
-0.495
-0.505
-0.52
-0.445
-0.455
-0.425
-0.41
-0.415
-0.44
-0.45
-0.485
-0.51
-0.565
-0.52
-0.485
-0.41
-0.425
-0.45
-0.385
-0.44
-0.52
-0.565
-0.54
-0.465
-0.47
-0.385
-0.42
-0.4
-0.4
-0.43
-0.495
-0.515
-0.54
-0.47
-0.47
-0.455
-0.44
-0.43
-0.44
-0.475
-0.58
-0.535
-0.45
-0.41
-0.31
-0.145
-0.03
-0.005
-0.01
-0.045
-0.055
-0.105
-0.195
-0.275
-0.225
-0.205
-0.285
-0.46
-0.625
-0.695
-0.7
-0.745
-0.725
-0.68
-0.625
-0.565
-0.535
-0.555
-0.56
-0.535
-0.545
-0.605
-0.5
-0.47
-0.42
-0.455
-0.43
-0.405
-0.345
-0.435
-0.53
-0.5
-0.46
-0.415
-0.4
-0.34
-0.335
-0.395
-0.325
-0.435
-0.545
-0.475
-0.5
-0.44
-0.38
-0.34
-0.32
-0.345
-0.36
-0.375
-0.51
-0.49
-0.48
-0.44
-0.39
-0.385
-0.31
-0.37
-0.385
-0.415
-0.415
-0.47
-0.415
-0.43
-0.375
-0.32
-0.305
-0.305
-0.265
-0.39
-0.475
-0.435
-0.395
-0.415
-0.34
-0.29
-0.3
-0.315
-0.345
-0.365
-0.405
-0.375
-0.425
-0.365
-0.28
-0.3
-0.275
-0.29
-0.29
-0.39
-0.42
-0.355
-0.35
-0.295
-0.3
-0.255
-0.205
-0.22
-0.28
-0.36
-0.3
-0.33
-0.37
-0.26
-0.185
-0.16
-0.17
-0.215
-0.22
-0.27
-0.28
-0.315
-0.275
-0.255
-0.195
-0.125
-0.13
-0.16
-0.155
-0.26
-0.285
-0.29
-0.285
-0.235
-0.135
-0.1
-0.135
-0.215
-0.28
-0.33
-0.34
-0.29
-0.335
-0.215
-0.205
-0.135
-0.22
-0.195
-0.25
-0.28
-0.36
-0.4
-0.37
-0.315
-0.285
-0.27
-0.335
-0.3
-0.375
-0.4
-0.45
-0.41
-0.365
-0.37
-0.27
-0.295
-0.33
-0.37
-0.415
-0.455
-0.445
-0.425
-0.465
-0.41
-0.325
-0.3
-0.32
-0.37
-0.375
-0.48
-0.52
-0.445
-0.395
-0.375
-0.295
-0.34
-0.37
-0.38
-0.44
-0.43
-0.4
-0.42
-0.45
-0.42
-0.365
-0.345
-0.335
-0.32
-0.4
-0.425
-0.48
-0.445
-0.415
-0.345
-0.31
-0.295
-0.325
-0.355
-0.385
-0.5
-0.44
-0.375
-0.38
-0.305
-0.3
-0.31
-0.36
-0.325
-0.38
-0.45
-0.45
-0.415
-0.385
-0.365
-0.27
-0.24
-0.28
-0.37
-0.41
-0.485
-0.435
-0.41
-0.42
-0.365
-0.34
-0.305
-0.275
-0.3
-0.42
-0.41
-0.47
-0.44
-0.365
-0.345
-0.26
-0.27
-0.32
-0.37
-0.45
-0.46
-0.45
-0.435
-0.4
-0.31
-0.27
-0.265
-0.325
-0.35
-0.41
-0.43
-0.4
-0.415
-0.395
-0.275
-0.265
-0.31
-0.34
-0.375
-0.415
-0.45
-0.48
-0.415
-0.355
-0.365
-0.305
-0.295
-0.335
-0.39
-0.43
-0.485
-0.42
-0.41
-0.39
-0.28
-0.25
-0.285
-0.425
-0.375
-0.405
-0.395
-0.4
-0.37
-0.365
-0.33
-0.28
-0.3
-0.325
-0.365
-0.435
-0.45
-0.485
-0.475
-0.33
-0.335
-0.305
-0.3
-0.305
-0.3
-0.455
-0.415
-0.415
-0.435
-0.395
-0.305
-0.365
-0.32
-0.27
-0.335
-0.435
-0.465
-0.325
-0.34
-0.34
-0.27
-0.2
-0.23
-0.315
-0.325
-0.375
-0.365
-0.375
-0.355
-0.345
-0.25
-0.225
-0.255
-0.245
-0.295
-0.435
-0.41
-0.345
-0.36
-0.305
-0.285
-0.28
-0.3
-0.28
-0.3
-0.39
-0.435
-0.46
-0.395
-0.355
-0.255
-0.295
-0.34
-0.375
-0.365
-0.41
-0.43
-0.39
-0.385
-0.295
-0.305
-0.3
-0.35
-0.325
-0.355
-0.405
-0.485
-0.435
-0.4
-0.39
-0.315
-0.255
-0.325
-0.365
-0.38
-0.45
-0.435
-0.45
-0.435
-0.38
-0.295
-0.325
-0.375
-0.32
-0.305
-0.25
-0.2
-0.18
0.01
0.18
0.22
0.205
0.11
0.04
-0.075
-0.215
-0.21
-0.26
-0.365
-0.49
-0.48
-0.465
-0.485
-0.535
-0.635
-0.66
-0.595
-0.53
-0.485
-0.34
-0.305
-0.34
-0.38
-0.345
-0.43
-0.425
-0.42
-0.41
-0.335
-0.3
-0.325
-0.315
-0.32
-0.355
-0.355
-0.405
-0.4
-0.4
-0.405
-0.25
-0.185
-0.285
-0.22
-0.31
-0.4
-0.38
-0.365
-0.36
-0.35
-0.27
-0.21
-0.255
-0.245
-0.255
-0.38
-0.395
-0.405
-0.385
-0.265
-0.25
-0.26
-0.27
-0.28
-0.335
-0.33
-0.375
-0.345
-0.355
-0.295
-0.21
-0.14
-0.28
-0.24
-0.33
-0.34
-0.38
-0.375
-0.31
-0.3
-0.17
-0.19
-0.14
-0.27
-0.26
-0.365
-0.335
-0.3
-0.295
-0.255
-0.18
-0.175
-0.145
-0.23
-0.275
-0.3
-0.255
-0.325
-0.255
-0.215
-0.215
-0.165
-0.095
-0.155
-0.205
-0.305
-0.25
-0.275
-0.215
-0.15
-0.125
-0.08
-0.12
-0.145
-0.17
-0.185
-0.185
-0.235
-0.205
-0.105
-0.1
-0.02
-0.11
-0.15
-0.16
-0.185
-0.26
-0.23
-0.18
-0.18
-0.15
-0.055
-0.075
-0.115
-0.22
-0.295
-0.245
-0.24
-0.285
-0.185
-0.18
-0.2
-0.175
-0.235
-0.29
-0.29
-0.31
-0.315
-0.31
-0.28
-0.23
-0.265
-0.245
-0.24
-0.355
-0.41
-0.4
-0.335
-0.345
-0.34
-0.295
-0.3
-0.295
-0.275
-0.42
-0.425
-0.415
-0.345
-0.365
-0.31
-0.31
-0.32
-0.315
-0.37
-0.405
-0.465
-0.43
-0.395
-0.33
-0.3
-0.29
-0.265
-0.315
-0.35
-0.425
-0.465
-0.405
-0.435
-0.405
-0.26
-0.235
-0.285
-0.29
-0.29
-0.44
-0.455
-0.4
-0.385
-0.35
-0.335
-0.28
-0.235
-0.28
-0.36
-0.375
-0.41
-0.4
-0.365
-0.325
-0.3
-0.285
-0.26
-0.27
-0.33
-0.45
-0.395
-0.4
-0.39
-0.34
-0.3
-0.24
-0.265
-0.325
-0.345
-0.415
-0.4
-0.41
-0.365
-0.345
-0.22
-0.29
-0.3
-0.355
-0.355
-0.445
-0.385
-0.38
-0.35
-0.355
-0.305
-0.275
-0.295
-0.295
-0.405
-0.4
-0.415
-0.455
-0.425
-0.33
-0.295
-0.275
-0.33
-0.325
-0.4
-0.435
-0.46
-0.345
-0.355
-0.37
-0.225
-0.285
-0.355
-0.355
-0.42
-0.435
-0.375
-0.405
-0.41
-0.37
-0.33
-0.275
-0.305
-0.39
-0.41
-0.42
-0.435
-0.38
-0.38
-0.32
-0.305
-0.33
-0.33
-0.385
-0.4
-0.455
-0.445
-0.435
-0.46
-0.385
-0.28
-0.285
-0.355
-0.3
-0.385
-0.465
-0.44
-0.395
-0.335
-0.39
-0.335
-0.325
-0.295
-0.325
-0.44
-0.455
-0.41
-0.37
-0.33
-0.3
-0.28
-0.295
-0.285
-0.285
-0.37
-0.395
-0.405
-0.38
-0.335
-0.285
-0.275
-0.305
-0.255
-0.35
-0.41
-0.43
-0.405
-0.365
-0.355
-0.35
-0.31
-0.3
-0.35
-0.41
-0.43
-0.45
-0.445
-0.42
-0.375
-0.39
-0.345
-0.305
-0.385
-0.335
-0.48
-0.575
-0.44
-0.42
-0.365
-0.345
-0.335
-0.355
-0.385
-0.42
-0.47
-0.515
-0.445
-0.44
-0.355
-0.355
-0.35
-0.33
-0.365
-0.41
-0.485
-0.59
-0.525
-0.45
-0.45
-0.435
-0.355
-0.375
-0.395
-0.375
-0.38
-0.275
-0.13
-0.05
0.06
0.18
0.21
0.145
0.07
-0.055
-0.16
-0.235
-0.27
-0.405
-0.545
-0.535
-0.55
-0.52
-0.56
-0.595
-0.59
-0.61
-0.585
-0.58
-0.475
-0.405
-0.365
-0.415
-0.345
-0.44
-0.515
-0.54
-0.455
-0.45
-0.365
-0.29
-0.33
-0.365
-0.435
-0.445
-0.52
-0.52
-0.43
-0.375
-0.375
-0.41
-0.27
-0.295
-0.39
-0.395
-0.465
-0.5
-0.505
-0.395
-0.35
-0.325
-0.315
-0.34
-0.37
-0.445
-0.445
-0.505
-0.435
-0.395
-0.365
-0.305
-0.4
-0.425
-0.345
-0.425
-0.46
-0.45
-0.43
-0.37
-0.335
-0.33
-0.345
-0.355
-0.37
-0.39
-0.41
-0.425
-0.375
-0.37
-0.33
-0.29
-0.315
-0.305
-0.325
-0.39
-0.435
-0.41
-0.43
-0.395
-0.345
-0.265
-0.21
-0.235
-0.295
-0.415
-0.435
-0.43
-0.37
-0.355
-0.24
-0.185
-0.245
-0.28
-0.305
-0.325
-0.365
-0.335
-0.32
-0.245
-0.23
-0.205
-0.215
-0.23
-0.185
-0.27
-0.35
-0.295
-0.26
-0.26
-0.2
-0.16
-0.225
-0.175
-0.285
-0.315
-0.335
-0.28
-0.285
-0.25
-0.195
-0.195
-0.26
-0.27
-0.28
-0.395
-0.35
-0.33
-0.335
-0.37
-0.26
-0.265
-0.265
-0.32
-0.355
-0.4
-0.5
-0.47
-0.43
-0.435
-0.305
-0.325
-0.355
-0.36
-0.415
-0.515
-0.535
-0.49
-0.45
-0.385
-0.385
-0.45
-0.38
-0.365
-0.44
-0.585
-0.505
-0.505
-0.525
-0.44
-0.36
-0.375
-0.44
-0.415
-0.475
-0.535
-0.565
-0.555
-0.475
-0.425
-0.355
-0.39
-0.46
-0.485
-0.545
-0.585
-0.49
-0.415
-0.43
-0.48
-0.42
-0.365
-0.35
-0.42
-0.47
-0.52
-0.51
-0.555
-0.49
-0.46
-0.365
-0.39
-0.345
-0.42
-0.46
-0.55
-0.55
-0.435
-0.475
-0.43
-0.34
-0.315
-0.41
-0.43
-0.47
-0.555
-0.59
-0.55
-0.41
-0.32
-0.355
-0.365
-0.415
-0.405
-0.46
-0.505
-0.46
-0.505
-0.475
-0.46
-0.325
-0.375
-0.385
-0.43
-0.535
-0.55
-0.51
-0.455
-0.465
-0.375
-0.345
-0.41
-0.41
-0.43
-0.505
-0.505
-0.515
-0.46
-0.47
-0.405
-0.325
-0.345
-0.435
-0.395
-0.505
-0.53
-0.515
-0.505
-0.445
-0.43
-0.345
-0.4
-0.43
-0.425
-0.51
-0.555
-0.535
-0.46
-0.515
-0.385
-0.345
-0.37
-0.37
-0.425
-0.5
-0.585
-0.54
-0.51
-0.48
-0.39
-0.4
-0.405
-0.395
-0.485
-0.51
-0.565
-0.535
-0.475
-0.52
-0.41
-0.345
-0.405
-0.43
-0.515
-0.51
-0.51
-0.525
-0.48
-0.445
-0.43
-0.5
-0.415
-0.43
-0.48
-0.505
-0.515
-0.485
-0.46
-0.45
-0.405
-0.37
-0.435
-0.455
-0.46
-0.535
-0.54
-0.505
-0.52
-0.485
-0.395
-0.375
-0.46
-0.495
-0.455
-0.515
-0.55
-0.515
-0.465
-0.44
-0.38
-0.36
-0.41
-0.43
-0.445
-0.505
-0.525
-0.6
-0.465
-0.39
-0.3
-0.315
-0.4
-0.375
-0.455
-0.52
-0.46
-0.455
-0.45
-0.415
-0.41
-0.325
-0.47
-0.415
-0.46
-0.51
-0.54
-0.46
-0.475
-0.38
-0.385
-0.355
-0.41
-0.42
-0.465
-0.54
-0.55
-0.545
-0.545
-0.475
-0.385
-0.425
-0.42
-0.46
-0.495
-0.545
-0.58
-0.475
-0.495
-0.43
-0.445
-0.43
-0.44
-0.43
-0.555
-0.565
-0.54
-0.52
-0.47
-0.435
-0.395
-0.41
-0.465
-0.545
-0.63
-0.625
-0.575
-0.57
-0.525
-0.415
-0.345
-0.305
-0.225
-0.165
-0.17
-0.13
-0.05
0.04
0.045
0.025
-0.015
-0.135
-0.195
-0.285
-0.4
-0.565
-0.7
-0.685
-0.625
-0.605
-0.5
-0.485
-0.56
-0.59
-0.67
-0.58
-0.55
-0.555
-0.48
-0.45
-0.4
-0.455
-0.445
-0.43
-0.485
-0.545
-0.505
-0.495
-0.48
-0.41
-0.425
-0.42
-0.41
-0.48
-0.525
-0.51
-0.51
-0.455
-0.445
-0.385
-0.415
-0.415
-0.41
-0.42
-0.48
-0.5
-0.555
-0.58
-0.44
-0.33
-0.345
-0.345
-0.39
-0.41
-0.46
-0.485
-0.455
-0.475
-0.455
-0.355
-0.34
-0.365
-0.435
-0.485
-0.455
-0.455
-0.5
-0.485
-0.385
-0.32
-0.305
-0.36
-0.405
-0.465
-0.46
-0.465
-0.47
-0.405
-0.39
-0.3
-0.33
-0.335
-0.345
-0.425
-0.45
-0.4
-0.42
-0.435
-0.335
-0.315
-0.24
-0.295
-0.36
-0.325
-0.405
-0.395
-0.375
-0.34
-0.26
-0.225
-0.285
-0.26
-0.29
-0.375
-0.38
-0.38
-0.325
-0.32
-0.25
-0.19
-0.16
-0.2
-0.29
-0.32
-0.38
-0.35
-0.3
-0.275
-0.19
-0.205
-0.215
-0.265
-0.275
-0.315
-0.365
-0.345
-0.325
-0.325
-0.25
-0.155
-0.235
-0.22
-0.345
-0.355
-0.365
-0.4
-0.35
-0.36
-0.37
-0.245
-0.25
-0.36
-0.375
-0.44
-0.46
-0.44
-0.43
-0.455
-0.37
-0.315
-0.41
-0.425
-0.455
-0.44
-0.49
-0.515
-0.495
-0.44
-0.375
-0.36
-0.405
-0.455
-0.375
-0.5
-0.53
-0.46
-0.525
-0.49
-0.44
-0.41
-0.355
-0.39
-0.46
-0.48
-0.535
-0.505
-0.475
-0.44
-0.425
-0.36
-0.41
-0.395
-0.455
-0.47
-0.515
-0.505
-0.48
-0.475
-0.425
-0.36
-0.395
-0.375
-0.425
-0.52
-0.52
-0.565
-0.535
-0.385
-0.385
-0.33
-0.375
-0.425
-0.48
-0.45
-0.425
-0.44
-0.46
-0.385
-0.35
-0.335
-0.365
-0.345
-0.46
-0.47
-0.475
-0.515
-0.51
-0.435
-0.385
-0.325
-0.36
-0.39
-0.405
-0.455
-0.495
-0.46
-0.425
-0.425
-0.365
-0.395
-0.36
-0.42
-0.46
-0.495
-0.455
-0.475
-0.46
-0.425
-0.445
-0.33
-0.36
-0.4
-0.44
-0.49
-0.455
-0.49
-0.485
-0.41
-0.35
-0.38
-0.42
-0.455
-0.44
-0.445
-0.465
-0.47
-0.47
-0.425
-0.345
-0.355
-0.44
-0.405
-0.47
-0.545
-0.575
-0.5
-0.445
-0.36
-0.31
-0.42
-0.41
-0.45
-0.445
-0.49
-0.51
-0.475
-0.415
-0.43
-0.385
-0.42
-0.43
-0.415
-0.51
-0.545
-0.485
-0.455
-0.43
-0.365
-0.335
-0.34
-0.41
-0.4
-0.47
-0.52
-0.56
-0.51
-0.4
-0.39
-0.345
-0.38
-0.4
-0.35
-0.445
-0.505
-0.475
-0.505
-0.44
-0.375
-0.34
-0.36
-0.485
-0.395
-0.465
-0.465
-0.535
-0.515
-0.45
-0.36
-0.315
-0.39
-0.41
-0.42
-0.47
-0.48
-0.47
-0.5
-0.39
-0.385
-0.37
-0.39
-0.395
-0.44
-0.49
-0.445
-0.47
-0.475
-0.42
-0.37
-0.33
-0.34
-0.4
-0.415
-0.51
-0.56
-0.48
-0.425
-0.39
-0.345
-0.32
-0.32
-0.405
-0.455
-0.48
-0.505
-0.515
-0.45
-0.41
-0.355
-0.36
-0.375
-0.345
-0.42
-0.505
-0.45
-0.46
-0.405
-0.41
-0.325
-0.265
-0.27
-0.285
-0.38
-0.485
-0.475
-0.455
-0.365
-0.32
-0.295
-0.29
-0.34
-0.345
-0.4
-0.475
-0.425
-0.395
-0.39
-0.38
-0.325
-0.335
-0.35
-0.39
-0.405
-0.495
-0.515
-0.45
-0.4
-0.375
-0.345
-0.365
-0.405
-0.375
-0.425
-0.47
-0.505
-0.43
-0.405
-0.355
-0.345
-0.345
-0.395
-0.46
-0.465
-0.44
-0.485
-0.49
-0.4
-0.325
-0.315
-0.325
-0.36
-0.465
-0.49
-0.515
-0.56
-0.515
-0.455
-0.34
-0.25
-0.19
-0.12
-0.115
-0.11
-0.04
0.08
0.095
0.115
0.155
0.015
-0.08
-0.15
-0.175
-0.36
-0.555
-0.645
-0.62
-0.605
-0.525
-0.49
-0.45
-0.445
-0.44
-0.43
-0.525
-0.47
-0.505
-0.35
-0.39
-0.315
-0.24
-0.315
-0.4
-0.43
-0.46
-0.42
-0.405
-0.4
-0.32
-0.255
-0.32
-0.355
-0.345
-0.385
-0.475
-0.425
-0.405
-0.35
-0.295
-0.3
-0.325
-0.355
-0.3
-0.41
-0.425
-0.4
-0.415
-0.33
-0.235
-0.285
-0.295
-0.315
-0.365
-0.39
-0.405
-0.42
-0.37
-0.325
-0.3
-0.27
-0.26
-0.345
-0.355
-0.4
-0.395
-0.385
-0.36
-0.36
-0.255
-0.24
-0.265
-0.255
-0.31
-0.375
-0.4
-0.395
-0.295
-0.29
-0.28
-0.22
-0.23
-0.255
-0.285
-0.345
-0.36
-0.375
-0.36
-0.245
-0.175
-0.185
-0.19
-0.255
-0.265
-0.3
-0.325
-0.285
-0.28
-0.255
-0.125
-0.095
-0.22
-0.17
-0.215
-0.31
-0.29
-0.28
-0.205
-0.18
-0.12
-0.07
-0.12
-0.205
-0.2
-0.225
-0.235
-0.215
-0.215
-0.155
-0.085
-0.08
-0.145
-0.15
-0.24
-0.295
-0.255
-0.245
-0.21
-0.12
-0.105
-0.11
-0.125
-0.235
-0.245
-0.3
-0.33
-0.24
-0.2
-0.185
-0.16
-0.225
-0.285
-0.32
-0.335
-0.31
-0.325
-0.4
-0.32
-0.29
-0.225
-0.265
-0.32
-0.295
-0.35
-0.39
-0.39
-0.405
-0.35
-0.3
-0.255
-0.315
-0.3
-0.35
-0.37
-0.365
-0.405
-0.395
-0.365
-0.305
-0.25
-0.295
-0.345
-0.32
-0.365
-0.45
-0.455
-0.385
-0.335
-0.29
-0.265
-0.33
-0.285
-0.37
-0.445
-0.38
-0.385
-0.355
-0.355
-0.26
-0.22
-0.29
-0.275
-0.32
-0.385
-0.42
-0.44
-0.435
-0.39
-0.27
-0.225
-0.31
-0.285
-0.285
-0.35
-0.37
-0.395
-0.325
-0.26
-0.24
-0.255
-0.345
-0.29
-0.305
-0.35
-0.37
-0.415
-0.37
-0.27
-0.27
-0.17
-0.235
-0.26
-0.3
-0.335
-0.34
-0.47
-0.335
-0.3
-0.23
-0.235
-0.305
-0.305
-0.295
-0.38
-0.44
-0.335
-0.285
-0.29
-0.225
-0.2
-0.22
-0.28
-0.335
-0.4
-0.39
-0.43
-0.305
-0.305
-0.26
-0.22
-0.245
-0.255
-0.305
-0.4
-0.435
-0.4
-0.33
-0.255
-0.235
-0.22
-0.3
-0.225
-0.32
-0.385
-0.385
-0.36
-0.32
-0.315
-0.265
-0.21
-0.245
-0.24
-0.37
-0.425
-0.375
-0.33
-0.325
-0.245
-0.245
-0.325
-0.28
-0.28
-0.32
-0.34
-0.385
-0.385
-0.335
-0.245
-0.255
-0.255
-0.245
-0.305
-0.355
-0.32
-0.46
-0.405
-0.34
-0.215
-0.22
-0.26
-0.29
-0.28
-0.345
-0.375
-0.41
-0.345
-0.365
-0.235
-0.245
-0.28
-0.23
-0.21
-0.42
-0.445
-0.37
-0.305
-0.32
-0.305
-0.22
-0.275
-0.29
-0.285
-0.375
-0.41
-0.355
-0.28
-0.335
-0.285
-0.2
-0.24
-0.235
-0.285
-0.385
-0.41
-0.355
-0.345
-0.35
-0.27
-0.23
-0.2
-0.245
-0.29
-0.32
-0.365
-0.305
-0.375
-0.26
-0.265
-0.24
-0.245
-0.285
-0.3
-0.305
-0.35
-0.35
-0.365
-0.3
-0.265
-0.21
-0.275
-0.215
-0.27
-0.39
-0.385
-0.38
-0.315
-0.28
-0.235
-0.21
-0.265
-0.265
-0.31
-0.345
-0.34
-0.33
-0.33
-0.315
-0.23
-0.2
-0.245
-0.26
-0.25
-0.31
-0.4
-0.36
-0.315
-0.26
-0.2
-0.185
-0.2
-0.28
-0.285
-0.335
-0.34
-0.36
-0.335
-0.305
-0.215
-0.16
-0.19
-0.265
-0.205
-0.29
-0.305
-0.3
-0.28
-0.225
-0.16
-0.145
-0.175
-0.195
-0.27
-0.31
-0.335
-0.26
-0.25
-0.205
-0.135
-0.18
-0.24
-0.21
-0.27
-0.335
-0.335
-0.26
-0.29
-0.25
-0.235
-0.165
-0.2
-0.245
-0.35
-0.39
-0.375
-0.29
-0.295
-0.24
-0.235
-0.205
-0.215
-0.21
-0.285
-0.395
-0.33
-0.28
-0.295
-0.2
-0.185
-0.225
-0.235
-0.24
-0.3
-0.385
-0.36
-0.345
-0.37
-0.3
-0.265
-0.235
-0.235
-0.24
-0.255
-0.3
-0.155
-0.02
0.08
0.22
0.28
0.36
0.345
0.225
0.09
-0.02
-0.06
-0.135
-0.145
-0.25
-0.33
-0.405
-0.46
-0.425
-0.47
-0.48
-0.435
-0.345
-0.3
-0.26
-0.255
-0.23
-0.215
-0.24
-0.3
-0.27
-0.33
-0.325
-0.26
-0.24
-0.15
-0.155
-0.23
-0.24
-0.29
-0.28
-0.29
-0.255
-0.225
-0.235
-0.115
-0.145
-0.17
-0.21
-0.295
-0.29
-0.315
-0.27
-0.255
-0.2
-0.165
-0.125
-0.18
-0.255
-0.255
-0.325
-0.26
-0.23
-0.145
-0.1
-0.125
-0.175
-0.18
-0.255
-0.245
-0.265
-0.305
-0.22
-0.17
-0.1
-0.105
-0.145
-0.12
-0.2
-0.24
-0.27
-0.265
-0.235
-0.17
-0.075
-0.075
-0.115
-0.145
-0.175
-0.255
-0.225
-0.235
-0.245
-0.135
-0.095
0.0
-0.055
-0.1
-0.175
-0.21
-0.23
-0.16
-0.125
-0.135
-0.045
-0.015
-0.05
-0.105
-0.125
-0.22
-0.135
-0.085
-0.035
-0.04
0.035
0.02
0.015
-0.055
-0.09
-0.13
-0.09
-0.12
-0.045
0.01
0.03
0.015
0.035
0.015
-0.055
-0.115
-0.135
-0.07
-0.14
0.015
0.06
-0.03
0.005
-0.05
-0.1
-0.15
-0.15
-0.065
-0.09
-0.03
-0.005
0.0
-0.065
-0.11
-0.155
-0.19
-0.25
-0.185
-0.115
-0.135
-0.105
-0.08
-0.12
-0.12
-0.255
-0.235
-0.235
-0.235
-0.21
-0.135
-0.095
-0.105
-0.205
-0.205
-0.25
-0.33
-0.255
-0.245
-0.225
-0.12
-0.085
-0.16
-0.195
-0.31
-0.205
-0.265
-0.315
-0.23
-0.185
-0.18
-0.14
-0.145
-0.165
-0.23
-0.33
-0.315
-0.25
-0.29
-0.225
-0.165
-0.105
-0.095
-0.145
-0.19
-0.21
-0.3
-0.255
-0.21
-0.205
-0.13
-0.115
-0.115
-0.155
-0.21
-0.245
-0.315
-0.29
-0.25
-0.21
-0.055
-0.085
-0.13
-0.13
-0.23
-0.275
-0.25
-0.22
-0.215
-0.15
-0.18
-0.08
-0.11
-0.17
-0.245
-0.25
-0.26
-0.155
-0.24
-0.135
-0.1
-0.09
-0.135
-0.15
-0.15
-0.26
-0.32
-0.19
-0.175
-0.215
-0.155
-0.155
-0.125
-0.17
-0.205
-0.225
-0.28
-0.23
-0.22
-0.14
-0.065
-0.07
-0.21
-0.155
-0.21
-0.235
-0.245
-0.295
-0.205
-0.145
-0.13
-0.125
-0.12
-0.13
-0.225
-0.285
-0.255
-0.215
-0.215
-0.155
-0.11
-0.13
-0.145
-0.13
-0.22
-0.28
-0.275
-0.225
-0.2
-0.125
-0.08
-0.095
-0.135
-0.275
-0.3
-0.285
-0.24
-0.225
-0.2
-0.155
-0.11
-0.13
-0.13
-0.155
-0.22
-0.28
-0.25
-0.26
-0.185
-0.13
-0.115
-0.125
-0.17
-0.155
-0.23
-0.27
-0.245
-0.23
-0.185
-0.095
-0.13
-0.16
-0.19
-0.17
-0.26
-0.275
-0.215
-0.25
-0.25
-0.185
-0.015
-0.175
-0.175
-0.205
-0.255
-0.3
-0.225
-0.24
-0.18
-0.15
-0.065
-0.11
-0.125
-0.125
-0.195
-0.285
-0.29
-0.19
-0.155
-0.125
-0.125
-0.13
-0.175
-0.21
-0.28
-0.255
-0.245
-0.24
-0.165
-0.105
-0.025
-0.145
-0.16
-0.175
-0.275
-0.29
-0.23
-0.195
-0.175
-0.11
-0.14
-0.165
-0.18
-0.205
-0.26
-0.265
-0.25
-0.215
-0.19
-0.1
-0.015
-0.145
-0.08
-0.2
-0.205
-0.24
-0.25
-0.23
-0.145
-0.165
-0.085
-0.12
-0.15
-0.205
-0.28
-0.295
-0.27
-0.18
-0.135
-0.025
-0.055
-0.165
-0.155
-0.205
-0.275
-0.28
-0.24
-0.18
-0.155
-0.11
-0.08
-0.075
-0.11
-0.235
-0.215
-0.205
-0.175
-0.145
-0.075
-0.06
-0.015
-0.05
-0.07
-0.14
-0.205
-0.155
-0.165
-0.245
-0.165
0.0
-0.025
-0.05
-0.06
-0.175
-0.235
-0.215
-0.18
-0.19
-0.18
-0.065
-0.1
-0.13
-0.11
-0.17
-0.255
-0.21
-0.185
-0.2
-0.11
-0.11
-0.095
-0.09
-0.15
-0.21
-0.255
-0.22
-0.22
-0.165
-0.18
-0.1
-0.085
-0.145
-0.165
-0.23
-0.24
-0.17
-0.215
-0.175
-0.12
-0.095
-0.17
-0.23
-0.16
-0.23
-0.31
-0.265
-0.135
0.015
0.065
0.185
0.245
0.305
0.305
0.305
0.255
0.17
0.095
0.095
0.165
0.095
0.005
-0.185
-0.385
-0.46
-0.415
-0.405
-0.395
-0.39
-0.275
-0.24
-0.235
-0.205
-0.27
-0.315
-0.28
-0.305
-0.225
-0.16
-0.085
-0.065
-0.1
-0.115
-0.14
-0.205
-0.235
-0.215
-0.2
-0.135
-0.12
-0.115
-0.11
-0.14
-0.085
-0.17
-0.21
-0.2
-0.21
-0.135
-0.08
-0.095
-0.07
-0.12
-0.18
-0.215
-0.18
-0.2
-0.135
-0.135
-0.06
-0.07
-0.135
-0.08
-0.16
-0.19
-0.24
-0.125
-0.145
-0.065
-0.015
-0.045
-0.075
-0.055
-0.285
-0.18
-0.155
-0.15
-0.115
-0.08
-0.04
-0.015
-0.025
-0.06
-0.1
-0.225
-0.165
-0.145
-0.135
-0.11
0.02
-0.005
-0.025
-0.08
-0.085
-0.155
-0.135
-0.11
-0.045
-0.07
-0.015
0.03
0.03
-0.04
-0.065
-0.11
-0.065
-0.055
-0.02
0.04
0.08
0.125
0.015
0.015
-0.005
-0.06
-0.05
-0.015
-0.015
0.07
0.09
0.105
0.045
0.035
-0.005
-0.055
-0.025
-0.03
0.0
0.065
0.1
0.115
0.065
0.04
-0.095
-0.09
-0.115
-0.02
0.01
0.05
0.095
0.075
0.01
0.005
-0.1
-0.12
-0.07
-0.085
-0.045
-0.02
0.0
-0.05
-0.025
-0.11
-0.14
-0.19
-0.185
-0.155
-0.085
-0.045
-0.07
-0.12
-0.1
-0.09
-0.205
-0.215
-0.21
-0.165
-0.255
-0.24
-0.04
-0.075
-0.115
-0.17
-0.25
-0.28
-0.19
-0.18
-0.18
-0.13
-0.05
-0.08
-0.205
-0.225
-0.215
-0.245
-0.215
-0.22
-0.14
-0.07
-0.09
-0.1
-0.155
-0.13
-0.165
-0.255
-0.28
-0.185
-0.125
-0.1
-0.03
-0.105
-0.125
-0.15
-0.23
-0.245
-0.23
-0.185
-0.135
-0.085
-0.095
-0.055
-0.11
-0.165
-0.245
-0.225
-0.21
-0.23
-0.185
-0.015
-0.02
-0.125
-0.145
-0.165
-0.19
-0.225
-0.16
-0.19
-0.11
-0.08
-0.1
-0.15
-0.115
-0.115
-0.205
-0.195
-0.24
-0.205
-0.14
-0.1
-0.1
-0.085
-0.1
-0.155
-0.245
-0.25
-0.18
-0.195
-0.155
-0.08
-0.095
-0.12
-0.11
-0.16
-0.24
-0.225
-0.19
-0.23
-0.105
-0.015
-0.06
-0.13
-0.095
-0.155
-0.265
-0.325
-0.235
-0.165
-0.18
-0.08
-0.065
-0.11
-0.14
-0.235
-0.255
-0.23
-0.22
-0.255
-0.13
-0.125
-0.11
-0.095
-0.15
-0.215
-0.275
-0.235
-0.19
-0.18
-0.115
-0.105
-0.135
-0.195
-0.145
-0.155
-0.23
-0.23
-0.22
-0.18
-0.13
-0.1
-0.09
-0.15
-0.19
-0.245
-0.285
-0.25
-0.185
-0.18
-0.12
-0.135
-0.07
-0.145
-0.18
-0.165
-0.255
-0.28
-0.195
-0.22
-0.15
-0.1
-0.095
-0.16
-0.195
-0.24
-0.265
-0.275
-0.25
-0.175
-0.045
-0.08
-0.105
-0.16
-0.165
-0.2
-0.265
-0.24
-0.215
-0.185
-0.145
-0.055
-0.13
-0.19
-0.205
-0.215
-0.225
-0.265
-0.28
-0.225
-0.1
-0.065
-0.085
-0.215
-0.185
-0.215
-0.265
-0.235
-0.25
-0.18
-0.095
-0.06
-0.105
-0.13
-0.195
-0.2
-0.275
-0.28
-0.17
-0.145
-0.115
-0.125
-0.115
-0.12
-0.155
-0.26
-0.3
-0.22
-0.23
-0.155
-0.09
-0.125
-0.135
-0.125
-0.195
-0.28
-0.255
-0.225
-0.185
-0.145
-0.1
-0.115
-0.105
-0.14
-0.16
-0.195
-0.26
-0.28
-0.175
-0.08
-0.1
-0.095
-0.08
-0.11
-0.155
-0.19
-0.175
-0.17
-0.165
-0.11
-0.05
-0.075
-0.115
-0.16
-0.21
-0.265
-0.18
-0.13
-0.175
-0.065
-0.09
-0.115
-0.24
-0.165
-0.18
-0.23
-0.25
-0.24
-0.24
-0.135
-0.075
-0.09
-0.14
-0.195
-0.175
-0.23
-0.24
-0.205
-0.215
-0.135
-0.075
-0.13
-0.2
-0.105
-0.3
-0.29
-0.23
-0.23
-0.195
-0.15
-0.115
-0.16
-0.18
-0.165
-0.28
-0.355
-0.305
-0.305
-0.265
-0.21
-0.145
-0.055
0.0
0.025
0.055
0.075
0.125
0.215
0.36
0.425
0.425
0.25
0.105
0.08
-0.05
-0.2
-0.265
-0.34
-0.4
-0.345
-0.315
-0.34
-0.265
-0.245
-0.35
-0.34
-0.35
-0.255
-0.185
-0.175
-0.15
-0.15
-0.2
-0.21
-0.34
-0.26
-0.205
-0.18
-0.15
-0.1
-0.09
-0.13
-0.105
-0.16
-0.23
-0.19
-0.2
-0.205
-0.14
-0.095
-0.12
-0.145
-0.145
-0.125
-0.215
-0.18
-0.215
-0.185
-0.09
-0.07
-0.035
-0.045
-0.145
-0.185
-0.225
-0.235
-0.155
-0.16
-0.13
-0.005
-0.085
-0.045
-0.07
-0.16
-0.245
-0.215
-0.275
-0.17
-0.145
-0.035
-0.04
-0.07
-0.05
-0.14
-0.205
-0.185
-0.115
-0.1
-0.065
-0.025
-0.045
-0.08
-0.02
-0.14
-0.18
-0.185
-0.165
-0.175
0.015
0.03
0.015
-0.035
-0.025
-0.065
-0.135
-0.125
-0.16
-0.165
-0.015
0.09
0.05
0.015
0.03
-0.05
-0.145
-0.05
-0.05
0.0
0.035
0.07
0.125
0.06
0.005
-0.035
-0.06
-0.045
-0.03
0.035
0.13
0.085
0.055
0.035
-0.005
-0.025
-0.1
-0.095
0.005
0.0
0.065
0.095
0.04
0.065
0.0
-0.05
-0.08
-0.09
-0.095
-0.07
-0.005
0.01
0.035
0.005
-0.1
-0.125
-0.24
-0.185
-0.14
-0.11
-0.065
-0.02
-0.085
-0.125
-0.17
-0.185
-0.205
-0.21
-0.165
-0.215
-0.13
-0.085
-0.135
-0.125
-0.105
-0.22
-0.275
-0.23
-0.29
-0.125
-0.095
-0.09
-0.15
-0.145
-0.245
-0.275
-0.21
-0.245
-0.2
-0.155
-0.095
-0.07
-0.09
-0.165
-0.145
-0.235
-0.245
-0.255
-0.2
-0.205
-0.115
-0.085
-0.15
-0.15
-0.21
-0.24
-0.165
-0.17
-0.205
-0.21
-0.09
-0.115
-0.12
-0.075
-0.165
-0.245
-0.235
-0.25
-0.18
-0.08
-0.075
-0.08
-0.09
-0.1
-0.2
-0.225
-0.23
-0.195
-0.13
-0.115
-0.07
-0.06
-0.095
-0.15
-0.13
-0.32
-0.235
-0.275
-0.13
-0.125
-0.095
-0.045
-0.09
-0.12
-0.17
-0.2
-0.2
-0.22
-0.185
-0.11
-0.09
-0.075
-0.095
-0.08
-0.205
-0.245
-0.255
-0.145
-0.145
-0.095
-0.105
-0.085
-0.1
-0.095
-0.18
-0.275
-0.255
-0.2
-0.165
-0.115
-0.06
-0.1
-0.11
-0.13
-0.195
-0.21
-0.275
-0.22
-0.17
-0.125
-0.06
-0.095
-0.105
-0.12
-0.18
-0.235
-0.28
-0.175
-0.16
-0.095
-0.105
-0.14
-0.13
-0.13
-0.18
-0.235
-0.22
-0.195
-0.19
-0.145
-0.05
-0.08
-0.15
-0.135
-0.22
-0.255
-0.25
-0.205
-0.18
-0.105
-0.065
-0.045
-0.11
-0.09
-0.235
-0.245
-0.26
-0.165
-0.115
-0.085
-0.06
-0.105
-0.1
-0.185
-0.25
-0.285
-0.245
-0.22
-0.235
-0.05
-0.135
-0.115
-0.175
-0.125
-0.195
-0.22
-0.205
-0.18
-0.125
-0.09
-0.11
-0.17
-0.115
-0.14
-0.215
-0.205
-0.295
-0.23
-0.105
-0.105
-0.055
-0.075
-0.085
-0.17
-0.235
-0.26
-0.235
-0.21
-0.185
-0.1
-0.075
-0.155
-0.14
-0.16
-0.175
-0.28
-0.26
-0.185
-0.2
-0.125
-0.045
-0.11
-0.11
-0.175
-0.25
-0.245
-0.165
-0.24
-0.155
-0.12
-0.055
-0.12
-0.15
-0.23
-0.24
-0.23
-0.16
-0.155
-0.105
-0.045
-0.105
-0.055
-0.165
-0.195
-0.195
-0.18
-0.14
-0.16
-0.11
-0.045
-0.085
-0.065
-0.095
-0.17
-0.26
-0.22
-0.185
-0.145
-0.085
0.015
0.02
-0.07
-0.1
-0.165
-0.195
-0.195
-0.185
-0.155
-0.095
-0.075
-0.135
-0.11
-0.135
-0.21
-0.225
-0.225
-0.18
-0.25
-0.125
-0.06
-0.11
-0.15
-0.15
-0.19
-0.235
-0.255
-0.22
-0.205
-0.145
-0.085
-0.105
-0.155
-0.16
-0.21
-0.215
-0.25
-0.24
-0.245
-0.115
-0.07
-0.105
-0.21
-0.255
-0.28
-0.325
-0.215
-0.215
-0.14
-0.105
0.12
0.165
0.175
0.3
0.28
0.27
0.26
0.3
0.235
0.165
0.225
0.09
-0.065
-0.22
-0.375
-0.495
-0.465
-0.41
-0.405
-0.24
-0.17
-0.195
-0.19
-0.19
-0.255
-0.265
-0.24
-0.23
-0.21
-0.105
-0.03
-0.15
-0.09
-0.15
-0.24
-0.215
-0.23
-0.21
-0.11
-0.145
-0.06
-0.07
-0.11
-0.165
-0.225
-0.235
-0.22
-0.165
-0.115
-0.09
-0.05
-0.09
-0.12
-0.15
-0.31
-0.19
-0.14
-0.135
-0.11
-0.04
-0.055
-0.08
-0.095
-0.2
-0.21
-0.195
-0.18
-0.205
-0.09
-0.035
-0.025
-0.055
-0.015
-0.135
-0.185
-0.165
-0.19
-0.1
-0.095
-0.09
-0.045
-0.045
-0.115
-0.13
-0.175
-0.155
-0.16
-0.11
-0.08
-0.045
0.045
-0.045
-0.04
-0.1
-0.175
-0.145
-0.13
-0.1
-0.05
0.01
0.02
-0.02
-0.01
-0.015
-0.09
-0.09
-0.075
-0.015
0.035
0.065
0.13
0.01
0.02
-0.08
-0.11
-0.025
0.0
0.015
0.065
0.08
0.065
0.08
0.1
0.015
-0.06
-0.025
0.025
0.02
0.04
0.03
0.1
0.125
0.075
-0.03
-0.08
-0.025
-0.025
0.015
0.085
0.14
0.085
0.035
-0.015
-0.045
-0.12
-0.12
-0.085
-0.04
-0.005
0.055
-0.045
-0.05
-0.02
-0.085
-0.15
-0.155
-0.16
-0.15
-0.02
-0.065
-0.095
-0.135
-0.115
-0.16
-0.2
-0.18
-0.2
-0.165
-0.165
0.025
-0.115
-0.135
-0.195
-0.175
-0.225
-0.21
-0.205
-0.205
-0.085
-0.075
-0.07
-0.095
-0.09
-0.17
-0.26
-0.22
-0.13
-0.115
-0.135
-0.105
-0.15
-0.1
-0.155
-0.195
-0.23
-0.215
-0.195
-0.14
-0.065
-0.035
-0.095
-0.115
-0.145
-0.21
-0.245
-0.165
-0.16
-0.075
-0.025
-0.055
-0.12
-0.135
-0.165
-0.2
-0.22
-0.155
-0.13
-0.095
-0.04
-0.02
-0.06
-0.11
-0.16
-0.2
-0.215
-0.205
-0.175
-0.115
-0.07
-0.045
-0.065
-0.055
-0.185
-0.27
-0.15
-0.14
-0.145
-0.09
-0.005
-0.035
-0.07
-0.125
-0.185
-0.25
-0.185
-0.165
-0.125
-0.1
-0.06
-0.025
-0.075
-0.11
-0.225
-0.23
-0.2
-0.205
-0.145
-0.105
-0.045
-0.025
-0.11
-0.12
-0.185
-0.3
-0.155
-0.115
-0.18
-0.1
-0.04
-0.045
-0.07
-0.12
-0.19
-0.21
-0.19
-0.19
-0.21
-0.125
-0.02
-0.09
-0.085
-0.125
-0.155
-0.22
-0.23
-0.125
-0.165
-0.085
-0.05
-0.1
-0.05
-0.16
-0.18
-0.235
-0.28
-0.235
-0.135
-0.09
-0.045
-0.035
-0.1
-0.1
-0.17
-0.23
-0.2
-0.135
-0.15
-0.095
-0.04
-0.06
-0.115
-0.17
-0.185
-0.225
-0.16
-0.19
-0.16
-0.115
-0.055
-0.055
-0.065
-0.125
-0.215
-0.225
-0.205
-0.235
-0.125
-0.085
-0.1
0.01
-0.125
-0.175
-0.195
-0.225
-0.24
-0.11
-0.13
-0.065
-0.075
-0.1
-0.125
-0.11
-0.185
-0.265
-0.215
-0.175
-0.15
-0.05
-0.03
-0.06
-0.155
-0.13
-0.19
-0.205
-0.24
-0.21
-0.155
-0.06
-0.08
-0.09
-0.12
-0.15
-0.23
-0.245
-0.185
-0.135
-0.105
-0.04
-0.015
-0.11
-0.05
-0.135
-0.17
-0.22
-0.18
-0.165
-0.115
-0.035
0.02
-0.135
-0.035
-0.115
-0.105
-0.195
-0.15
-0.105
-0.055
-0.015
-0.005
-0.03
-0.065
-0.105
-0.185
-0.18
-0.14
-0.13
-0.11
-0.04
-0.115
-0.075
-0.08
-0.15
-0.22
-0.195
-0.155
-0.16
-0.135
-0.055
-0.045
-0.125
-0.11
-0.19
-0.27
-0.165
-0.205
-0.145
-0.09
-0.1
-0.085
-0.14
-0.15
-0.215
-0.2
-0.22
-0.12
-0.185
-0.105
-0.04
-0.055
-0.11
-0.135
-0.22
-0.305
-0.25
-0.24
-0.165
-0.09
0.005
0.06
0.14
0.23
0.17
0.2
0.315
0.39
0.39
0.38
0.295
0.215
0.145
-0.035
-0.125
-0.305
-0.4
-0.4
-0.4
-0.305
-0.215
-0.195
-0.235
-0.24
-0.26
-0.305
-0.265
-0.26
-0.12
-0.09
-0.07
-0.065
-0.06
-0.205
-0.165
-0.145
-0.195
-0.195
-0.105
-0.02
-0.025
-0.045
-0.065
-0.12
-0.2
-0.205
-0.2
-0.175
-0.12
-0.015
-0.03
-0.035
-0.06
-0.11
-0.145
-0.185
-0.145
-0.085
-0.105
-0.035
0.0
-0.015
-0.07
-0.065
-0.135
-0.175
-0.08
-0.14
-0.095
-0.065
-0.035
0.03
-0.05
-0.12
-0.185
-0.135
-0.085
-0.08
-0.06
-0.025
0.035
0.03
-0.065
-0.12
-0.15
-0.12
-0.075
-0.09
-0.04
-0.025
-0.08
0.02
0.0
-0.05
-0.155
-0.115
-0.06
-0.02
0.03
0.055
0.06
0.07
0.0
-0.05
-0.07
-0.045
-0.06
-0.035
0.06
0.095
0.105
0.08
0.095
0.015
-0.035
-0.065
-0.005
0.02
0.14
0.135
0.145
0.105
0.095
0.115
-0.08
-0.055
0.06
0.05
0.04
0.155
0.125
0.09
0.08
0.05
-0.03
-0.035
0.015
0.04
0.115
0.12
0.055
0.075
0.075
-0.005
-0.07
-0.04
-0.06
-0.03
0.035
0.09
0.115
-0.025
-0.075
-0.08
-0.085
-0.105
-0.09
-0.085
-0.035
0.0
-0.045
-0.005
-0.07
-0.14
-0.29
-0.165
-0.175
-0.17
-0.04
-0.07
-0.075
-0.035
-0.08
-0.16
-0.21
-0.245
-0.2
-0.16
-0.08
-0.07
-0.1
-0.105
-0.145
-0.16
-0.215
-0.195
-0.155
-0.14
-0.03
-0.065
-0.085
-0.165
-0.165
-0.195
-0.205
-0.185
-0.15
-0.08
-0.06
-0.045
-0.11
-0.075
-0.08
-0.165
-0.24
-0.185
-0.17
-0.17
-0.02
-0.01
-0.02
-0.08
-0.155
-0.27
-0.21
-0.215
-0.14
-0.13
-0.04
0.005
-0.09
-0.1
-0.13
-0.18
-0.215
-0.165
-0.185
-0.15
-0.095
-0.065
-0.045
-0.06
-0.095
-0.18
-0.2
-0.185
-0.15
-0.085
-0.025
-0.035
-0.095
-0.075
-0.12
-0.215
-0.215
-0.215
-0.235
-0.095
-0.05
-0.04
-0.095
-0.09
-0.175
-0.24
-0.22
-0.13
-0.16
-0.095
-0.075
-0.085
-0.125
-0.11
-0.165
-0.15
-0.23
-0.19
-0.15
-0.105
-0.03
-0.05
-0.085
-0.12
-0.155
-0.19
-0.26
-0.19
-0.135
-0.095
-0.115
-0.075
-0.065
-0.125
-0.225
-0.225
-0.175
-0.15
-0.21
-0.1
-0.115
-0.08
-0.1
-0.145
-0.2
-0.255
-0.23
-0.17
-0.19
-0.135
-0.08
-0.06
-0.11
-0.105
-0.255
-0.24
-0.195
-0.17
-0.165
-0.14
-0.06
-0.095
-0.105
-0.17
-0.225
-0.29
-0.235
-0.195
-0.19
-0.1
-0.08
-0.06
-0.11
-0.155
-0.26
-0.24
-0.18
-0.175
-0.16
-0.095
-0.085
-0.11
-0.09
-0.21
-0.205
-0.245
-0.2
-0.195
-0.15
-0.09
-0.1
-0.14
-0.145
-0.12
-0.205
-0.21
-0.25
-0.235
-0.175
-0.105
-0.045
-0.065
-0.145
-0.205
-0.225
-0.26
-0.225
-0.18
-0.09
0.0
0.055
-0.115
-0.16
-0.105
-0.155
-0.225
-0.2
-0.17
-0.115
-0.08
-0.055
-0.065
-0.04
-0.18
-0.25
-0.3
-0.265
-0.22
-0.185
-0.105
-0.1
-0.11
-0.165
-0.21
-0.285
-0.305
-0.235
-0.235
-0.155
-0.15
-0.14
-0.18
-0.16
-0.29
-0.325
-0.24
-0.23
-0.29
-0.195
-0.075
-0.12
-0.16
-0.13
-0.19
-0.3
-0.31
-0.25
-0.23
-0.2
-0.16
-0.14
-0.165
-0.235
-0.34
-0.35
-0.34
-0.25
-0.145
-0.04
0.095
0.18
0.225
0.24
0.28
0.25
0.13
0.16
-0.01
0.12
0.09
0.06
-0.135
-0.315
-0.535
-0.565
-0.53
-0.485
-0.475
-0.36
-0.345
-0.355
-0.35
-0.325
-0.305
-0.345
-0.335
-0.32
-0.255
-0.165
-0.13
-0.145
-0.18
-0.19
-0.27
-0.285
-0.33
-0.225
-0.25
-0.18
-0.11
-0.155
-0.205
-0.225
-0.28
-0.3
-0.29
-0.255
-0.195
-0.17
-0.075
-0.105
-0.17
-0.16
-0.26
-0.27
-0.325
-0.215
-0.235
-0.16
-0.14
-0.15
-0.185
-0.175
-0.25
-0.295
-0.27
-0.17
-0.155
-0.165
-0.08
-0.065
-0.145
-0.215
-0.24
-0.255
-0.26
-0.2
-0.145
-0.145
-0.135
-0.09
-0.13
-0.175
-0.25
-0.215
-0.235
-0.185
-0.165
-0.125
-0.07
-0.085
-0.11
-0.165
-0.22
-0.22
-0.23
-0.14
-0.12
-0.075
-0.02
-0.05
-0.08
-0.155
-0.17
-0.19
-0.185
-0.13
-0.08
-0.055
-0.015
0.01
-0.02
-0.095
-0.165
-0.145
-0.165
-0.1
-0.06
0.05
0.03
0.015
-0.035
-0.105
-0.1
-0.135
-0.145
-0.095
0.005
0.0
-0.065
-0.055
-0.06
-0.12
-0.13
-0.115
-0.135
-0.075
-0.03
0.01
-0.02
-0.06
-0.1
-0.165
-0.21
-0.26
-0.215
-0.135
-0.15
-0.1
-0.125
-0.135
-0.195
-0.25
-0.26
-0.26
-0.28
-0.26
-0.205
-0.2
-0.17
-0.23
-0.245
-0.34
-0.29
-0.305
-0.305
-0.285
-0.26
-0.16
-0.21
-0.24
-0.275
-0.305
-0.35
-0.385
-0.335
-0.335
-0.285
-0.15
-0.24
-0.29
-0.235
-0.35
-0.35
-0.405
-0.36
-0.285
-0.26
-0.245
-0.22
-0.265
-0.285
-0.33
-0.37
-0.385
-0.31
-0.255
-0.3
-0.195
-0.265
-0.23
-0.285
-0.32
-0.33
-0.35
-0.425
-0.305
-0.19
-0.155
-0.215
-0.235
-0.265
-0.295
-0.36
-0.365
-0.315
-0.295
-0.23
-0.245
-0.255
-0.275
-0.295
-0.35
-0.36
-0.39
-0.385
-0.25
-0.195
-0.225
-0.255
-0.225
-0.315
-0.38
-0.38
-0.315
-0.39
-0.34
-0.255
-0.175
-0.22
-0.32
-0.295
-0.38
-0.37
-0.385
-0.345
-0.31
-0.225
-0.22
-0.245
-0.315
-0.275
-0.4
-0.46
-0.37
-0.325
-0.33
-0.265
-0.23
-0.285
-0.26
-0.315
-0.405
-0.395
-0.405
-0.335
-0.255
-0.29
-0.2
-0.27
-0.31
-0.385
-0.435
-0.42
-0.35
-0.405
-0.33
-0.26
-0.255
-0.28
-0.285
-0.33
-0.41
-0.415
-0.385
-0.35
-0.34
-0.28
-0.26
-0.265
-0.3
-0.36
-0.43
-0.45
-0.405
-0.385
-0.3
-0.235
-0.21
-0.26
-0.3
-0.38
-0.445
-0.41
-0.33
-0.33
-0.22
-0.195
-0.25
-0.265
-0.3
-0.355
-0.355
-0.36
-0.34
-0.31
-0.205
-0.215
-0.2
-0.215
-0.295
-0.335
-0.395
-0.4
-0.385
-0.33
-0.27
-0.2
-0.285
-0.27
-0.3
-0.41
-0.43
-0.43
-0.335
-0.335
-0.275
-0.265
-0.38
-0.315
-0.33
-0.405
-0.44
-0.44
-0.405
-0.385
-0.35
-0.24
-0.28
-0.285
-0.38
-0.445
-0.465
-0.43
-0.43
-0.39
-0.355
-0.285
-0.255
-0.315
-0.385
-0.45
-0.5
-0.47
-0.385
-0.385
-0.375
-0.315
-0.355
-0.365
-0.375
-0.305
-0.32
-0.22
-0.105
0.045
0.13
0.21
0.16
0.165
0.035
-0.165
-0.195
-0.135
-0.22
-0.38
-0.475
-0.48
-0.545
-0.545
-0.56
-0.705
-0.68
-0.695
-0.565
-0.48
-0.385
-0.365
-0.385
-0.395
-0.43
-0.525
-0.51
-0.41
-0.415
-0.33
-0.33
-0.295
-0.335
-0.325
-0.405
-0.545
-0.395
-0.38
-0.38
-0.3
-0.26
-0.295
-0.305
-0.35
-0.39
-0.42
-0.435
-0.375
-0.36
-0.35
-0.295
-0.27
-0.31
-0.315
-0.385
-0.455
-0.475
-0.365
-0.38
-0.315
-0.255
-0.19
-0.275
-0.35
-0.41
-0.445
-0.465
-0.445
-0.37
-0.275
-0.25
-0.24
-0.355
-0.305
-0.275
-0.39
-0.415
-0.325
-0.325
-0.3
-0.245
-0.225
-0.3
-0.295
-0.37
-0.37
-0.37
-0.335
-0.31
-0.305
-0.235
-0.24
-0.23
-0.275
-0.325
-0.325
-0.315
-0.285
-0.245
-0.24
-0.195
-0.155
-0.19
-0.285
-0.345
-0.37
-0.265
-0.24
-0.225
-0.18
-0.105
-0.18
-0.165
-0.16
-0.225
-0.265
-0.25
-0.255
-0.24
-0.115
-0.105
-0.125
-0.17
-0.2
-0.24
-0.295
-0.33
-0.24
-0.18
-0.1
-0.105
-0.165
-0.19
-0.22
-0.28
-0.29
-0.305
-0.255
-0.275
-0.19
-0.14
-0.24
-0.27
-0.245
-0.355
-0.375
-0.385
-0.37
-0.275
-0.285
-0.265
-0.28
-0.315
-0.465
-0.45
-0.485
-0.435
-0.475
-0.36
-0.33
-0.31
-0.32
-0.4
-0.425
-0.43
-0.435
-0.455
-0.455
-0.42
-0.35
-0.395
-0.35
-0.335
-0.425
-0.495
-0.49
-0.485
-0.47
-0.375
-0.42
-0.38
-0.385
-0.405
-0.385
-0.455
-0.49
-0.455
-0.43
-0.445
-0.32
-0.395
-0.33
-0.385
-0.425
-0.455
-0.455
-0.425
-0.42
-0.385
-0.305
-0.3
-0.37
-0.4
-0.495
-0.47
-0.435
-0.435
-0.425
-0.355
-0.3
-0.33
-0.33
-0.345
-0.425
-0.495
-0.535
-0.505
-0.335
-0.34
-0.3
-0.315
-0.325
-0.35
-0.445
-0.475
-0.45
-0.425
-0.4
-0.405
-0.3
-0.35
-0.325
-0.375
-0.455
-0.48
-0.485
-0.43
-0.445
-0.37
-0.33
-0.33
-0.39
-0.435
-0.45
-0.43
-0.495
-0.54
-0.44
-0.335
-0.295
-0.335
-0.345
-0.405
-0.455
-0.475
-0.495
-0.425
-0.41
-0.375
-0.33
-0.345
-0.395
-0.42
-0.435
-0.51
-0.5
-0.475
-0.455
-0.365
-0.33
-0.34
-0.32
-0.4
-0.48
-0.51
-0.5
-0.465
-0.405
-0.33
-0.35
-0.42
-0.395
-0.395
-0.475
-0.51
-0.425
-0.45
-0.415
-0.365
-0.335
-0.33
-0.3
-0.405
-0.47
-0.53
-0.515
-0.43
-0.345
-0.29
-0.28
-0.305
-0.405
-0.335
-0.42
-0.47
-0.405
-0.39
-0.4
-0.355
-0.335
-0.31
-0.31
-0.395
-0.49
-0.495
-0.45
-0.43
-0.345
-0.335
-0.355
-0.31
-0.335
-0.42
-0.545
-0.515
-0.455
-0.45
-0.455
-0.4
-0.35
-0.42
-0.435
-0.36
-0.5
-0.535
-0.525
-0.45
-0.38
-0.365
-0.35
-0.36
-0.37
-0.49
-0.57
-0.53
-0.525
-0.455
-0.375
-0.36
-0.34
-0.37
-0.405
-0.52
-0.56
-0.565
-0.565
-0.585
-0.46
-0.415
-0.355
-0.39
-0.34
-0.31
-0.275
-0.205
-0.095
0.015
0.125
0.175
0.14
0.055
-0.16
-0.13
-0.23
-0.425
-0.45
-0.565
-0.605
-0.555
-0.545
-0.56
-0.57
-0.63
-0.62
-0.655
-0.665
-0.545
-0.445
-0.38
-0.37
-0.355
-0.415
-0.45
-0.53
-0.525
-0.465
-0.475
-0.35
-0.35
-0.34
-0.375
-0.405
-0.425
-0.515
-0.485
-0.5
-0.42
-0.38
-0.285
-0.345
-0.385
-0.455
-0.485
-0.5
-0.43
-0.42
-0.45
-0.325
-0.3
-0.335
-0.345
-0.41
-0.43
-0.455
-0.43
-0.405
-0.41
-0.3
-0.32
-0.41
-0.335
-0.405
-0.44
-0.475
-0.51
-0.385
-0.335
-0.295
-0.285
-0.305
-0.33
-0.41
-0.405
-0.48
-0.475
-0.4
-0.365
-0.31
-0.325
-0.315
-0.3
-0.345
-0.44
-0.49
-0.405
-0.36
-0.34
-0.28
-0.235
-0.24
-0.26
-0.38
-0.355
-0.435
-0.37
-0.34
-0.235
-0.23
-0.155
-0.25
-0.295
-0.34
-0.335
-0.34
-0.35
-0.315
-0.25
-0.185
-0.21
-0.175
-0.17
-0.16
-0.33
-0.36
-0.3
-0.26
-0.225
-0.155
-0.115
-0.175
-0.21
-0.285
-0.35
-0.395
-0.315
-0.26
-0.255
-0.175
-0.165
-0.23
-0.225
-0.275
-0.345
-0.415
-0.34
-0.325
-0.255
-0.255
-0.2
-0.25
-0.375
-0.455
-0.48
-0.485
-0.435
-0.395
-0.345
-0.355
-0.285
-0.33
-0.41
-0.435
-0.525
-0.495
-0.485
-0.47
-0.365
-0.35
-0.41
-0.4
-0.42
-0.505
-0.5
-0.485
-0.485
-0.545
-0.455
-0.335
-0.4
-0.42
-0.43
-0.54
-0.555
-0.5
-0.49
-0.485
-0.39
-0.335
-0.42
-0.42
-0.48
-0.485
-0.57
-0.575
-0.475
-0.425
-0.415
-0.375
-0.395
-0.45
-0.475
-0.485
-0.565
-0.52
-0.5
-0.48
-0.375
-0.365
-0.38
-0.375
-0.38
-0.505
-0.56
-0.46
-0.455
-0.505
-0.345
-0.33
-0.35
-0.385
-0.425
-0.455
-0.49
-0.53
-0.48
-0.38
-0.39
-0.345
-0.335
-0.38
-0.44
-0.505
-0.52
-0.415
-0.48
-0.455
-0.37
-0.34
-0.39
-0.415
-0.44
-0.515
-0.53
-0.515
-0.425
-0.39
-0.41
-0.375
-0.41
-0.415
-0.42
-0.49
-0.48
-0.47
-0.485
-0.45
-0.37
-0.36
-0.385
-0.415
-0.42
-0.465
-0.505
-0.47
-0.47
-0.415
-0.355
-0.365
-0.425
-0.35
-0.42
-0.525
-0.505
-0.51
-0.465
-0.42
-0.36
-0.325
-0.39
-0.455
-0.42
-0.53
-0.53
-0.51
-0.44
-0.395
-0.375
-0.345
-0.415
-0.455
-0.48
-0.55
-0.52
-0.43
-0.47
-0.385
-0.345
-0.365
-0.395
-0.395
-0.465
-0.525
-0.485
-0.48
-0.475
-0.485
-0.38
-0.345
-0.4
-0.4
-0.455
-0.505
-0.515
-0.46
-0.455
-0.445
-0.355
-0.41
-0.435
-0.39
-0.485
-0.52
-0.52
-0.48
-0.47
-0.39
-0.345
-0.38
-0.39
-0.365
-0.48
-0.505
-0.44
-0.415
-0.44
-0.415
-0.34
-0.33
-0.385
-0.375
-0.425
-0.47
-0.47
-0.44
-0.41
-0.335
-0.285
-0.325
-0.365
-0.4
-0.425
-0.43
-0.475
-0.465
-0.36
-0.385
-0.37
-0.345
-0.385
-0.415
-0.455
-0.485
-0.53
-0.495
-0.465
-0.375
-0.395
-0.395
-0.365
-0.475
-0.51
-0.535
-0.5
-0.47
-0.41
-0.34
-0.41
-0.42
-0.38
-0.445
-0.495
-0.515
-0.485
-0.46
-0.47
-0.45
-0.405
-0.405
-0.42
-0.405
-0.5
-0.575
-0.545
-0.5
-0.49
-0.495
-0.42
-0.395
-0.5
-0.515
-0.515
-0.475
-0.43
-0.31
-0.145
-0.01
0.04
0.125
0.19
0.12
-0.035
-0.135
-0.235
-0.24
-0.315
-0.36
-0.395
-0.575
-0.645
-0.68
-0.67
-0.64
-0.63
-0.595
-0.485
-0.455
-0.385
-0.425
-0.435
-0.5
-0.47
-0.53
-0.52
-0.465
-0.45
-0.315
-0.325
-0.38
-0.36
-0.51
-0.515
-0.505
-0.53
-0.435
-0.445
-0.37
-0.35
-0.37
-0.42
-0.44
-0.515
-0.535
-0.48
-0.43
-0.38
-0.335
-0.34
-0.355
-0.375
-0.46
-0.505
-0.51
-0.475
-0.43
-0.35
-0.385
-0.32
-0.315
-0.345
-0.43
-0.525
-0.485
-0.435
-0.375
-0.34
-0.34
-0.35
-0.345
-0.355
-0.445
-0.515
-0.47
-0.4
-0.42
-0.32
-0.265
-0.295
-0.34
-0.355
-0.43
-0.46
-0.5
-0.395
-0.365
-0.325
-0.245
-0.25
-0.34
-0.345
-0.42
-0.4
-0.44
-0.33
-0.295
-0.285
-0.21
-0.225
-0.24
-0.28
-0.37
-0.35
-0.345
-0.325
-0.275
-0.19
-0.14
-0.215
-0.18
-0.31
-0.325
-0.3
-0.28
-0.27
-0.27
-0.185
-0.18
-0.13
-0.17
-0.235
-0.29
-0.305
-0.275
-0.295
-0.225
-0.195
-0.155
-0.135
-0.165
-0.27
-0.29
-0.345
-0.32
-0.305
-0.29
-0.2
-0.22
-0.18
-0.275
-0.28
-0.345
-0.405
-0.405
-0.37
-0.31
-0.245
-0.18
-0.26
-0.395
-0.36
-0.45
-0.52
-0.42
-0.435
-0.405
-0.31
-0.27
-0.35
-0.365
-0.43
-0.54
-0.495
-0.48
-0.43
-0.4
-0.345
-0.32
-0.35
-0.345
-0.455
-0.53
-0.485
-0.515
-0.43
-0.49
-0.325
-0.335
-0.36
-0.375
-0.44
-0.52
-0.465
-0.425
-0.445
-0.325
-0.33
-0.32
-0.365
-0.405
-0.44
-0.46
-0.485
-0.455
-0.43
-0.38
-0.315
-0.285
-0.35
-0.38
-0.425
-0.51
-0.505
-0.445
-0.435
-0.345
-0.29
-0.325
-0.375
-0.4
-0.475
-0.49
-0.455
-0.42
-0.38
-0.36
-0.335
-0.33
-0.36
-0.375
-0.45
-0.495
-0.49
-0.42
-0.385
-0.32
-0.345
-0.35
-0.37
-0.39
-0.375
-0.385
-0.41
-0.42
-0.4
-0.395
-0.315
-0.28
-0.37
-0.395
-0.455
-0.495
-0.55
-0.42
-0.375
-0.31
-0.305
-0.29
-0.315
-0.41
-0.43
-0.46
-0.53
-0.485
-0.435
-0.315
-0.305
-0.37
-0.305
-0.43
-0.435
-0.49
-0.46
-0.415
-0.38
-0.305
-0.345
-0.33
-0.355
-0.415
-0.425
-0.47
-0.515
-0.43
-0.36
-0.355
-0.325
-0.37
-0.355
-0.365
-0.5
-0.495
-0.47
-0.445
-0.39
-0.305
-0.3
-0.33
-0.365
-0.45
-0.42
-0.5
-0.425
-0.45
-0.405
-0.315
-0.35
-0.325
-0.355
-0.42
-0.505
-0.505
-0.475
-0.395
-0.425
-0.34
-0.345
-0.34
-0.335
-0.38
-0.455
-0.445
-0.495
-0.425
-0.355
-0.3
-0.26
-0.34
-0.34
-0.39
-0.445
-0.505
-0.465
-0.415
-0.37
-0.335
-0.34
-0.36
-0.37
-0.395
-0.505
-0.49
-0.415
-0.425
-0.365
-0.315
-0.305
-0.345
-0.355
-0.415
-0.485
-0.465
-0.475
-0.43
-0.385
-0.315
-0.335
-0.37
-0.37
-0.45
-0.495
-0.415
-0.295
-0.455
-0.345
-0.32
-0.33
-0.375
-0.365
-0.42
-0.485
-0.48
-0.445
-0.425
-0.34
-0.31
-0.325
-0.3
-0.37
-0.455
-0.425
-0.43
-0.455
-0.385
-0.31
-0.32
-0.31
-0.35
-0.415
-0.48
-0.515
-0.49
-0.375
-0.37
-0.32
-0.315
-0.32
-0.31
-0.315
-0.41
-0.475
-0.435
-0.425
-0.39
-0.35
-0.315
-0.285
-0.28
-0.33
-0.38
-0.405
-0.385
-0.375
-0.405
-0.29
-0.2
-0.33
-0.29
-0.345
-0.4
-0.39
-0.4
-0.41
-0.355
-0.29
-0.33
-0.28
-0.305
-0.335
-0.44
-0.485
-0.445
-0.4
-0.38
-0.33
-0.26
-0.3
-0.405
-0.425
-0.46
-0.49
-0.435
-0.43
-0.405
-0.28
-0.275
-0.305
-0.365
-0.37
-0.445
-0.555
-0.47
-0.39
-0.4
-0.355
-0.325
-0.325
-0.37
-0.39
-0.47
-0.51
-0.465
-0.445
-0.42
-0.325
-0.43
-0.41
-0.375
-0.33
-0.415
-0.325
-0.2
-0.145
-0.015
0.115
0.2
0.22
0.18
0.105
-0.09
-0.24
-0.225
-0.265
-0.31
-0.36
-0.425
-0.54
-0.66
-0.595
-0.57
-0.565
-0.515
-0.495
-0.46
-0.37
-0.32
-0.355
-0.335
-0.415
-0.445
-0.42
-0.39
-0.42
-0.345
-0.325
-0.285
-0.36
-0.295
-0.395
-0.4
-0.445
-0.41
-0.355
-0.375
-0.29
-0.31
-0.275
-0.325
-0.375
-0.435
-0.465
-0.36
-0.485
-0.3
-0.24
-0.26
-0.265
-0.31
-0.425
-0.47
-0.45
-0.42
-0.385
-0.27
-0.25
-0.28
-0.3
-0.315
-0.38
-0.44
-0.4
-0.365
-0.355
-0.3
-0.22
-0.23
-0.275
-0.29
-0.36
-0.4
-0.395
-0.335
-0.305
-0.265
-0.215
-0.26
-0.27
-0.28
-0.365
-0.34
-0.38
-0.35
-0.325
-0.24
-0.18
-0.2
-0.215
-0.295
-0.335
-0.33
-0.35
-0.285
-0.25
-0.19
-0.19
-0.22
-0.18
-0.245
-0.28
-0.345
-0.3
-0.3
-0.18
-0.115
-0.11
-0.13
-0.16
-0.18
-0.205
-0.21
-0.23
-0.25
-0.185
-0.045
-0.115
-0.145
-0.105
-0.16
-0.225
-0.26
-0.25
-0.21
-0.18
-0.12
-0.095
-0.125
-0.085
-0.17
-0.29
-0.325
-0.265
-0.26
-0.25
-0.115
-0.15
-0.175
-0.205
-0.235
-0.335
-0.385
-0.315
-0.355
-0.29
-0.215
-0.255
-0.21
-0.29
-0.33
-0.38
-0.36
-0.39
-0.39
-0.335
-0.265
-0.265
-0.28
-0.29
-0.35
-0.43
-0.435
-0.395
-0.36
-0.435
-0.31
-0.29
-0.285
-0.305
-0.395
-0.405
-0.445
-0.4
-0.39
-0.38
-0.28
-0.24
-0.315
-0.355
-0.355
-0.415
-0.425
-0.42
-0.41
-0.35
-0.27
-0.23
-0.315
-0.29
-0.35
-0.465
-0.41
-0.4
-0.385
-0.36
-0.3
-0.3
-0.33
-0.345
-0.365
-0.39
-0.425
-0.365
-0.385
-0.31
-0.23
-0.27
-0.325
-0.325
-0.39
-0.44
-0.41
-0.38
-0.35
-0.275
-0.24
-0.285
-0.305
-0.33
-0.42
-0.45
-0.455
-0.44
-0.35
-0.24
-0.215
-0.27
-0.32
-0.335
-0.395
-0.475
-0.43
-0.325
-0.365
-0.3
-0.26
-0.25
-0.285
-0.34
-0.375
-0.415
-0.415
-0.385
-0.29
-0.295
-0.28
-0.31
-0.335
-0.365
-0.425
-0.47
-0.405
-0.385
-0.34
-0.29
-0.24
-0.265
-0.315
-0.385
-0.435
-0.425
-0.41
-0.35
-0.335
-0.29
-0.22
-0.2
-0.375
-0.38
-0.455
-0.49
-0.465
-0.42
-0.31
-0.265
-0.3
-0.33
-0.26
-0.365
-0.42
-0.425
-0.39
-0.32
-0.375
-0.34
-0.235
-0.32
-0.375
-0.345
-0.455
-0.415
-0.4
-0.445
-0.31
-0.295
-0.315
-0.265
-0.34
-0.34
-0.43
-0.43
-0.39
-0.31
-0.315
-0.325
-0.32
-0.295
-0.36
-0.38
-0.445
-0.45
-0.46
-0.405
-0.375
-0.275
-0.295
-0.29
-0.315
-0.405
-0.405
-0.42
-0.435
-0.42
-0.345
-0.255
-0.315
-0.325
-0.34
-0.39
-0.43
-0.44
-0.39
-0.36
-0.3
-0.29
-0.27
-0.305
-0.305
-0.36
-0.455
-0.465
-0.41
-0.38
-0.345
-0.34
-0.33
-0.365
-0.35
-0.39
-0.4
-0.43
-0.39
-0.375
-0.315
-0.275
-0.285
-0.365
-0.42
-0.4
-0.41
-0.48
-0.45
-0.37
-0.275
-0.34
-0.26
-0.32
-0.31
-0.375
-0.37
-0.445
-0.415
-0.395
-0.29
-0.24
-0.255
-0.295
-0.335
-0.39
-0.46
-0.43
-0.36
-0.43
-0.255
-0.26
-0.295
-0.32
-0.36
-0.415
-0.46
-0.455
-0.4
-0.35
-0.37
-0.215
-0.27
-0.32
-0.365
-0.415
-0.425
-0.39
-0.355
-0.355
-0.29
-0.265
-0.34
-0.27
-0.29
-0.38
-0.43
-0.4
-0.37
-0.325
-0.24
-0.25
-0.245
-0.255
-0.26
-0.375
-0.395
-0.4
-0.33
-0.35
-0.255
-0.22
-0.295
-0.345
-0.325
-0.36
-0.46
-0.465
-0.315
-0.31
-0.275
-0.29
-0.33
-0.345
-0.4
-0.475
-0.45
-0.415
-0.41
-0.335
-0.3
-0.31
-0.32
-0.33
-0.395
-0.43
-0.455
-0.425
-0.405
-0.38
-0.305
-0.315
-0.315
-0.385
-0.405
-0.44
-0.48
-0.425
-0.425
-0.425
-0.375
-0.355
-0.365
-0.37
-0.435
-0.415
-0.34
-0.2
-0.115
-0.005
0.05
0.25
0.22
0.225
0.105
-0.1
-0.185
-0.165
-0.185
-0.255
-0.34
-0.465
-0.53
-0.52
-0.645
-0.665
-0.57
-0.53
-0.52
-0.465
-0.38
-0.405
-0.37
-0.37
-0.425
-0.47
-0.5
-0.44
-0.405
-0.39
-0.275
-0.3
-0.325
-0.36
-0.43
-0.41
-0.43
-0.4
-0.44
-0.34
-0.26
-0.245
-0.35
-0.36
-0.395
-0.465
-0.455
-0.4
-0.36
-0.35
-0.28
-0.315
-0.315
-0.31
-0.47
-0.5
-0.38
-0.385
-0.385
-0.33
-0.315
-0.28
-0.35
-0.355
-0.43
-0.395
-0.44
-0.41
-0.36
-0.295
-0.275
-0.265
-0.32
-0.345
-0.395
-0.455
-0.485
-0.36
-0.325
-0.29
-0.28
-0.25
-0.29
-0.335
-0.355
-0.375
-0.345
-0.41
-0.32
-0.255
-0.24
-0.25
-0.305
-0.36
-0.35
-0.41
-0.29
-0.34
-0.295
-0.255
-0.21
-0.21
-0.215
-0.335
-0.345
-0.35
-0.335
-0.26
-0.22
-0.23
-0.13
-0.165
-0.195
-0.27
-0.34
-0.32
-0.29
-0.265
-0.18
-0.135
-0.11
-0.225
-0.175
-0.255
-0.295
-0.29
-0.325
-0.25
-0.19
-0.165
-0.13
-0.145
-0.23
-0.19
-0.355
-0.32
-0.275
-0.285
-0.245
-0.21
-0.24
-0.21
-0.31
-0.35
-0.455
-0.43
-0.375
-0.32
-0.35
-0.225
-0.255
-0.295
-0.365
-0.46
-0.495
-0.47
-0.39
-0.44
-0.415
-0.375
-0.315
-0.345
-0.41
-0.52
-0.52
-0.53
-0.54
-0.465
-0.395
-0.325
-0.36
-0.385
-0.415
-0.49
-0.515
-0.545
-0.52
-0.465
-0.385
-0.475
-0.425
-0.415
-0.43
-0.52
-0.56
-0.575
-0.525
-0.465
-0.415
-0.365
-0.395
-0.42
-0.47
-0.455
-0.51
-0.535
-0.5
-0.505
-0.45
-0.39
-0.37
-0.46
-0.46
-0.495
-0.535
-0.53
-0.495
-0.495
-0.395
-0.38
-0.375
-0.4
-0.435
-0.555
-0.58
-0.55
-0.515
-0.47
-0.42
-0.405
-0.385
-0.425
-0.475
-0.465
-0.58
-0.525
-0.49
-0.545
-0.435
-0.425
-0.45
-0.495
-0.52
-0.53
-0.535
-0.55
-0.52
-0.44
-0.45
-0.41
-0.43
-0.505
-0.505
-0.55
-0.585
-0.545
-0.485
-0.515
-0.455
-0.385
-0.44
-0.47
-0.51
-0.535
-0.55
-0.57
-0.555
-0.54
-0.48
-0.41
-0.43
-0.475
-0.565
-0.605
-0.58
-0.515
-0.52
-0.54
-0.48
-0.465
-0.465
-0.455
-0.66
-0.65
-0.635
-0.595
-0.51
-0.465
-0.46
-0.44
-0.455
-0.51
-0.51
-0.64
-0.625
-0.585
-0.615
-0.5
-0.47
-0.435
-0.48
-0.49
-0.59
-0.625
-0.645
-0.58
-0.545
-0.53
-0.54
-0.48
-0.485
-0.525
-0.575
-0.67
-0.655
-0.555
-0.6
-0.54
-0.465
-0.475
-0.525
-0.48
-0.59
-0.645
-0.64
-0.675
-0.615
-0.49
-0.475
-0.53
-0.515
-0.53
-0.605
-0.645
-0.585
-0.555
-0.62
-0.52
-0.505
-0.485
-0.525
-0.545
-0.585
-0.67
-0.655
-0.68
-0.61
-0.52
-0.52
-0.545
-0.515
-0.565
-0.615
-0.675
-0.625
-0.625
-0.625
-0.545
-0.515
-0.5
-0.525
-0.55
-0.64
-0.745
-0.65
-0.61
-0.565
-0.555
-0.5
-0.565
-0.57
-0.54
-0.67
-0.7
-0.625
-0.63
-0.585
-0.525
-0.485
-0.51
-0.545
-0.61
-0.62
-0.73
-0.66
-0.645
-0.6
-0.45
-0.485
-0.52
-0.58
-0.505
-0.565
-0.67
-0.635
-0.58
-0.6
-0.51
-0.45
-0.49
-0.52
-0.535
-0.63
-0.655
-0.625
-0.61
-0.555
-0.525
-0.44
-0.47
-0.55
-0.6
-0.685
-0.67
-0.65
