# TIPE ECG 2021 - ECG-ID Database v1.0.0 par Physionet
# [Numéro de la personne, Période d'échantillonnage, Prénom, Age, Sexe, Date de l'enregistrement]
[32, 0.002, Jessica, 46, F, 24.05.2005]
0.285
0.315
0.34
0.3
0.275
0.295
0.29
0.32
0.25
0.255
0.27
0.2
0.29
0.205
0.205
0.295
0.31
0.27
0.285
0.265
0.22
0.295
0.33
0.325
0.23
0.285
0.32
0.32
0.305
0.25
0.275
0.31
0.24
0.25
0.23
0.29
0.355
0.35
0.325
0.305
0.29
0.285
0.29
0.3
0.285
0.285
0.255
0.225
0.32
0.235
0.26
0.255
0.25
0.315
0.245
0.31
0.32
0.335
0.295
0.33
0.265
0.32
0.265
0.275
0.305
0.34
0.305
0.255
0.33
0.28
0.32
0.305
0.31
0.365
0.345
0.32
0.26
0.265
0.335
0.32
0.29
0.285
0.27
0.33
0.325
0.275
0.32
0.335
0.285
0.29
0.3
0.24
0.19
0.3
0.245
0.39
0.32
0.255
0.265
0.34
0.435
0.335
0.28
0.29
0.235
0.32
0.345
0.29
0.315
0.32
0.285
0.31
0.195
0.29
0.3
0.345
0.34
0.27
0.255
0.315
0.39
0.28
0.25
0.355
0.345
0.37
0.21
0.27
0.28
0.295
0.245
0.28
0.31
0.315
0.33
0.28
0.235
0.405
0.42
0.275
0.305
0.31
0.355
0.395
0.335
0.34
0.365
0.385
0.33
0.33
0.305
0.37
0.31
0.315
0.365
0.39
0.42
0.375
0.355
0.395
0.405
0.4
0.33
0.415
0.415
0.37
0.37
0.335
0.325
0.3
0.355
0.4
0.405
0.255
0.345
0.365
0.28
0.325
0.34
0.3
0.26
0.24
0.24
0.235
0.3
0.315
0.3
0.3
0.31
0.31
0.285
0.33
0.29
0.335
0.26
0.265
0.33
0.3
0.325
0.295
0.24
0.23
0.3
0.305
0.3
0.275
0.29
0.325
0.285
0.25
0.24
0.29
0.29
0.28
0.325
0.175
0.3
0.335
0.255
0.3
0.335
0.33
0.3
0.31
0.3
0.295
0.255
0.315
0.31
0.235
0.225
0.22
0.225
0.225
0.325
0.41
0.545
0.58
0.71
0.81
0.945
1.12
1.21
1.23
1.285
1.34
1.16
0.975
0.915
0.71
0.615
0.545
0.465
0.355
0.31
0.375
0.29
0.255
0.29
0.315
0.275
0.335
0.36
0.335
0.345
0.35
0.3
0.3
0.34
0.38
0.335
0.25
0.275
0.3
0.335
0.315
0.36
0.37
0.33
0.265
0.265
0.245
0.24
0.22
0.245
0.325
0.345
0.36
0.285
0.295
0.34
0.35
0.345
0.345
0.36
0.315
0.285
0.265
0.23
0.245
0.32
0.33
0.315
0.355
0.395
0.345
0.245
0.245
0.32
0.4
0.315
0.355
0.35
0.37
0.235
0.275
0.36
0.395
0.34
0.34
0.33
0.355
0.435
0.37
0.38
0.395
0.325
0.345
0.355
0.38
0.395
0.365
0.365
0.355
0.36
0.33
0.38
0.485
0.385
0.395
0.44
0.38
0.365
0.36
0.38
0.44
0.38
0.41
0.425
0.465
0.535
0.53
0.48
0.475
0.555
0.55
0.545
0.565
0.57
0.565
0.54
0.625
0.585
0.58
0.57
0.615
0.62
0.575
0.615
0.59
0.585
0.645
0.59
0.59
0.59
0.645
0.575
0.54
0.55
0.545
0.485
0.465
0.485
0.43
0.495
0.405
0.475
0.495
0.505
0.43
0.4
0.405
0.41
0.365
0.43
0.44
0.4
0.38
0.345
0.31
0.36
0.365
0.39
0.355
0.335
0.39
0.36
0.375
0.355
0.37
0.335
0.335
0.285
0.29
0.34
0.37
0.31
0.365
0.34
0.235
0.285
0.35
0.38
0.415
0.42
0.355
0.315
0.315
0.255
0.34
0.33
0.27
0.33
0.36
0.36
0.38
0.33
0.245
0.365
0.38
0.36
0.35
0.33
0.305
0.26
0.34
0.39
0.405
0.355
0.315
0.375
0.38
0.35
0.385
0.38
0.395
0.245
0.29
0.41
0.375
0.395
0.39
0.365
0.295
0.34
0.345
0.355
0.385
0.325
0.305
0.305
0.35
0.38
0.345
0.33
0.345
0.32
0.375
0.39
0.325
0.325
0.395
0.365
0.305
0.305
0.365
0.34
0.41
0.335
0.38
0.375
0.31
0.39
0.395
0.365
0.35
0.42
0.455
0.345
0.305
0.405
0.365
0.28
0.335
0.34
0.315
0.325
0.315
0.27
0.41
0.47
0.37
0.335
0.385
0.425
0.405
0.39
0.33
0.28
0.31
0.32
0.35
0.33
0.375
0.34
0.335
0.465
0.35
0.35
0.38
0.345
0.39
0.395
0.395
0.405
0.375
0.36
0.365
0.28
0.33
0.385
0.28
0.37
0.36
0.355
0.325
0.32
0.34
0.395
0.33
0.345
0.435
0.4
0.35
0.265
0.255
0.32
0.39
0.29
0.38
0.41
0.35
0.375
0.4
0.38
0.34
0.375
0.4
0.33
0.325
0.395
0.44
0.395
0.33
0.33
0.32
0.345
0.35
0.335
0.26
0.32
0.285
0.415
0.425
0.37
0.36
0.33
0.345
0.36
0.325
0.35
0.365
0.39
0.425
0.375
0.355
0.41
0.41
0.37
0.415
0.43
0.38
0.4
0.385
0.39
0.295
0.35
0.3
0.305
0.41
0.455
0.51
0.485
0.455
0.465
0.475
0.395
0.415
0.45
0.435
0.415
0.465
0.425
0.36
0.345
0.43
0.54
0.46
0.3
0.475
0.475
0.41
0.38
0.395
0.425
0.45
0.375
0.35
0.355
0.42
0.39
0.35
0.33
0.185
0.31
0.465
0.425
0.4
0.355
0.365
0.395
0.355
0.29
0.345
0.365
0.365
0.415
0.385
0.385
0.365
0.32
0.25
0.375
0.38
0.36
0.34
0.345
0.355
0.305
0.435
0.4
0.335
0.275
0.375
0.365
0.405
0.365
0.39
0.365
0.38
0.355
0.405
0.37
0.37
0.365
0.44
0.385
0.365
0.385
0.36
0.325
0.28
0.285
0.3
0.39
0.42
0.505
0.47
0.51
0.7
0.805
0.9
0.995
1.15
1.17
1.265
1.25
1.155
1.045
0.89
0.715
0.62
0.555
0.53
0.435
0.37
0.285
0.3
0.325
0.28
0.4
0.405
0.405
0.345
0.39
0.475
0.37
0.42
0.39
0.38
0.42
0.44
0.35
0.4
0.385
0.335
0.345
0.375
0.31
0.255
0.37
0.43
0.445
0.42
0.385
0.395
0.405
0.415
0.415
0.37
0.37
0.39
0.42
0.335
0.385
0.45
0.41
0.37
0.4
0.385
0.4
0.405
0.41
0.42
0.445
0.455
0.425
0.395
0.355
0.385
0.39
0.41
0.42
0.39
0.35
0.395
0.49
0.52
0.425
0.42
0.35
0.395
0.41
0.455
0.495
0.465
0.455
0.41
0.455
0.45
0.455
0.46
0.415
0.455
0.48
0.45
0.445
0.39
0.415
0.51
0.46
0.5
0.51
0.495
0.505
0.51
0.565
0.565
0.57
0.6
0.535
0.52
0.6
0.545
0.575
0.6
0.535
0.615
0.625
0.68
0.675
0.56
0.62
0.64
0.71
0.6
0.62
0.76
0.705
0.705
0.675
0.67
0.765
0.73
0.705
0.7
0.705
0.665
0.655
0.625
0.62
0.655
0.62
0.66
0.59
0.65
0.595
0.555
0.51
0.5
0.51
0.48
0.485
0.55
0.455
0.465
0.46
0.45
0.475
0.43
0.355
0.395
0.4
0.395
0.385
0.37
0.395
0.415
0.465
0.39
0.42
0.345
0.415
0.41
0.405
0.395
0.335
0.355
0.4
0.365
0.41
0.445
0.425
0.47
0.375
0.345
0.42
0.45
0.39
0.38
0.39
0.355
0.335
0.405
0.42
0.41
0.41
0.36
0.355
0.335
0.39
0.44
0.435
0.42
0.385
0.385
0.38
0.385
0.345
0.32
0.36
0.415
0.375
0.405
0.315
0.315
0.41
0.33
0.38
0.39
0.345
0.405
0.38
0.42
0.385
0.405
0.405
0.395
0.405
0.42
0.425
0.405
0.405
0.405
0.405
0.385
0.41
0.405
0.405
0.41
0.4
0.415
0.39
0.43
0.415
0.35
0.38
0.39
0.39
0.4
0.395
0.415
0.41
0.415
0.43
0.38
0.4
0.41
0.395
0.36
0.47
0.4
0.47
0.36
0.315
0.43
0.415
0.415
0.42
0.48
0.41
0.36
0.36
0.385
0.345
0.375
0.365
0.36
0.4
0.485
0.45
0.445
0.385
0.405
0.4
0.355
0.325
0.43
0.47
0.505
0.485
0.375
0.37
0.41
0.4
0.46
0.4
0.41
0.39
0.425
0.38
0.34
0.38
0.39
0.425
0.4
0.345
0.46
0.415
0.47
0.38
0.445
0.43
0.31
0.325
0.435
0.39
0.44
0.475
0.47
0.4
0.405
0.4
0.4
0.39
0.345
0.335
0.4
0.42
0.42
0.39
0.435
0.4
0.43
0.405
0.405
0.43
0.38
0.425
0.445
0.39
0.405
0.425
0.38
0.405
0.41
0.38
0.375
0.425
0.42
0.43
0.445
0.37
0.43
0.455
0.41
0.495
0.44
0.41
0.38
0.39
0.365
0.33
0.375
0.43
0.31
0.305
0.335
0.38
0.45
0.485
0.42
0.455
0.485
0.495
0.455
0.435
0.445
0.45
0.46
0.445
0.48
0.435
0.485
0.39
0.485
0.48
0.49
0.56
0.535
0.46
0.46
0.54
0.51
0.465
0.405
0.465
0.475
0.51
0.525
0.52
0.46
0.405
0.38
0.39
0.385
0.49
0.425
0.435
0.41
0.415
0.315
0.365
0.41
0.365
0.4
0.485
0.435
0.39
0.375
0.435
0.41
0.41
0.33
0.305
0.295
0.415
0.54
0.445
0.415
0.4
0.395
0.43
0.405
0.41
0.36
0.385
0.37
0.455
0.415
0.415
0.375
0.435
0.365
0.38
0.47
0.4
0.45
0.415
0.385
0.395
0.45
0.43
0.34
0.405
0.33
0.405
0.385
0.375
0.43
0.405
0.355
0.385
0.385
0.295
0.415
0.415
0.48
0.5
0.625
0.63
0.72
0.845
0.935
1.125
1.275
1.33
1.4
1.475
1.345
1.2
1.0
0.845
0.72
0.615
0.575
0.545
0.515
0.475
0.39
0.4
0.415
0.42
0.44
0.4
0.43
0.47
0.465
0.47
0.45
0.375
0.315
0.28
0.375
0.465
0.505
0.49
0.42
0.44
0.395
0.365
0.415
0.44
0.42
0.465
0.455
0.38
0.37
0.415
0.405
0.435
0.4
0.435
0.38
0.45
0.46
0.41
0.47
0.43
0.435
0.4
0.425
0.48
0.415
0.475
0.475
0.43
0.315
0.37
0.43
0.485
0.525
0.46
0.435
0.415
0.455
0.455
0.425
0.4
0.465
0.44
0.475
0.5
0.44
0.435
0.44
0.51
0.495
0.485
0.45
0.455
0.455
0.425
0.505
0.545
0.48
0.445
0.47
0.405
0.485
0.54
0.505
0.49
0.465
0.5
0.54
0.545
0.515
0.58
0.58
0.545
0.6
0.545
0.515
0.58
0.595
0.615
0.55
0.54
0.67
0.665
0.715
0.63
0.63
0.665
0.69
0.67
0.655
0.67
0.705
0.7
0.74
0.745
0.73
0.735
0.67
0.7
0.705
0.68
0.745
0.74
0.72
0.69
0.7
0.68
0.67
0.615
0.615
0.555
0.51
0.635
0.635
0.525
0.485
0.48
0.47
0.515
0.54
0.46
0.455
0.51
0.445
0.385
0.27
0.435
0.535
0.515
0.43
0.455
0.395
0.46
0.47
0.495
0.46
0.45
0.47
0.46
0.42
0.41
0.475
0.455
0.425
0.38
0.325
0.395
0.455
0.395
0.395
0.425
0.43
0.45
0.405
0.455
0.45
0.44
0.44
0.445
0.44
0.375
0.39
0.415
0.42
0.38
0.305
0.455
0.41
0.52
0.525
0.405
0.46
0.465
0.45
0.44
0.45
0.455
0.415
0.39
0.395
0.38
0.375
0.39
0.435
0.42
0.42
0.5
0.5
0.375
0.435
0.425
0.4
0.44
0.48
0.43
0.385
0.45
0.455
0.41
0.365
0.32
0.425
0.465
0.43
0.45
0.415
0.355
0.465
0.455
0.39
0.4
0.375
0.41
0.445
0.48
0.495
0.46
0.455
0.415
0.475
0.47
0.455
0.435
0.44
0.46
0.41
0.455
0.46
0.425
0.41
0.45
0.39
0.395
0.49
0.47
0.425
0.435
0.475
0.435
0.495
0.39
0.395
0.44
0.415
0.41
0.445
0.51
0.43
0.34
0.405
0.435
0.42
0.37
0.36
0.465
0.38
0.46
0.5
0.4
0.505
0.52
0.455
0.455
0.375
0.41
0.43
0.495
0.435
0.455
0.45
0.39
0.39
0.35
0.49
0.49
0.405
0.465
0.495
0.445
0.415
0.355
0.385
0.41
0.405
0.445
0.43
0.495
0.525
0.46
0.47
0.48
0.41
0.43
0.41
0.42
0.43
0.485
0.425
0.43
0.47
0.405
0.31
0.31
0.33
0.405
0.51
0.465
0.475
0.46
0.385
0.39
0.48
0.535
0.505
0.49
0.46
0.435
0.445
0.46
0.47
0.43
0.42
0.4
0.415
0.435
0.49
0.455
0.415
0.445
0.51
0.475
0.455
0.43
0.425
0.45
0.43
0.455
0.42
0.4
0.38
0.38
0.415
0.43
0.445
0.45
0.46
0.485
0.415
0.45
0.39
0.405
0.385
0.445
0.47
0.43
0.51
0.5
0.48
0.47
0.48
0.385
0.465
0.52
0.5
0.5
0.535
0.515
0.48
0.44
0.51
0.5
0.495
0.585
0.565
0.525
0.515
0.56
0.59
0.535
0.525
0.48
0.49
0.515
0.45
0.47
0.54
0.565
0.51
0.49
0.355
0.395
0.52
0.45
0.48
0.44
0.435
0.485
0.44
0.4
0.44
0.515
0.49
0.435
0.41
0.45
0.405
0.53
0.47
0.465
0.475
0.47
0.425
0.425
0.44
0.415
0.42
0.47
0.46
0.465
0.4
0.395
0.41
0.47
0.435
0.365
0.39
0.46
0.48
0.43
0.515
0.445
0.435
0.48
0.44
0.42
0.4
0.385
0.395
0.48
0.46
0.41
0.425
0.52
0.475
0.475
0.455
0.42
0.415
0.35
0.375
0.325
0.315
0.465
0.54
0.67
0.69
0.775
0.945
1.05
1.125
1.305
1.345
1.39
1.425
1.37
1.235
1.015
0.965
0.865
0.74
0.64
0.555
0.505
0.435
0.425
0.42
0.45
0.48
0.515
0.48
0.47
0.445
0.45
0.415
0.5
0.5
0.4
0.475
0.46
0.415
0.485
0.46
0.44
0.445
0.385
0.44
0.475
0.52
0.445
0.44
0.49
0.46
0.495
0.53
0.54
0.45
0.445
0.435
0.45
0.455
0.48
0.47
0.425
0.415
0.45
0.495
0.47
0.495
0.455
0.445
0.445
0.445
0.515
0.475
0.48
0.52
0.495
0.395
0.495
0.49
0.455
0.44
0.465
0.44
0.485
0.53
0.465
0.47
0.475
0.45
0.495
0.415
0.42
0.52
0.505
0.5
0.465
0.515
0.535
0.525
0.495
0.505
0.545
0.59
0.495
0.545
0.525
0.51
0.515
0.52
0.575
0.6
0.565
0.535
0.605
0.55
0.505
0.605
0.605
0.59
0.535
0.555
0.52
0.63
0.775
0.705
0.655
0.69
0.685
0.625
0.64
0.66
0.705
0.735
0.735
0.7
0.725
0.76
0.765
0.76
0.775
0.76
0.695
0.665
0.815
0.78
0.7
0.695
0.665
0.73
0.705
0.68
0.665
0.625
0.6
0.615
0.615
0.6
0.54
0.55
0.595
0.57
0.545
0.525
0.505
0.495
0.53
0.485
0.48
0.45
0.445
0.48
0.505
0.56
0.43
0.515
0.5
0.41
0.42
0.52
0.425
0.36
0.49
0.505
0.525
0.485
0.51
0.47
0.485
0.465
0.4
0.46
0.46
0.49
0.46
0.505
0.435
0.43
0.445
0.485
0.51
0.475
0.44
0.46
0.465
0.46
0.51
0.45
0.48
0.46
0.445
0.49
0.465
0.47
0.53
0.44
0.41
0.43
0.46
0.435
0.46
0.39
0.35
0.43
0.43
0.365
0.45
0.53
0.515
0.52
0.525
0.46
0.365
0.48
0.545
0.435
0.43
0.455
0.445
0.435
0.52
0.48
0.415
0.455
0.445
0.515
0.485
0.495
0.5
0.51
0.485
0.4
0.435
0.42
0.495
0.39
0.4
0.43
0.41
0.44
0.485
0.44
0.44
0.495
0.455
0.415
0.39
0.425
0.44
0.5
0.42
0.42
0.485
0.505
0.46
0.455
0.465
0.445
0.45
0.425
0.425
0.43
0.41
0.445
0.34
0.485
0.49
0.465
0.33
0.395
0.45
0.51
0.485
0.42
0.47
0.465
0.46
0.48
0.425
0.465
0.485
0.4
0.425
0.465
0.465
0.475
0.42
0.435
0.475
0.495
0.33
0.32
0.445
0.46
0.495
0.495
0.475
0.38
0.33
0.46
0.53
0.44
0.48
0.525
0.46
0.45
0.4
0.41
0.49
0.475
0.445
0.43
0.465
0.44
0.415
0.465
0.405
0.45
0.43
0.48
0.5
0.51
0.42
0.5
0.45
0.43
0.37
0.33
0.42
0.52
0.55
0.49
0.475
0.465
0.44
0.42
0.455
0.385
0.42
0.455
0.485
0.46
0.435
0.415
0.4
0.375
0.45
0.5
0.475
0.46
0.405
0.45
0.475
0.53
0.365
0.41
0.47
0.43
0.43
0.475
0.495
0.425
0.415
0.43
0.37
0.4
0.495
0.52
0.49
0.5
0.47
0.48
0.49
0.545
0.6
0.515
0.48
0.505
0.44
0.435
0.44
0.53
0.515
0.485
0.46
0.485
0.52
0.525
0.53
0.485
0.605
0.545
0.45
0.535
0.575
0.535
0.465
0.39
0.405
0.525
0.5
0.495
0.45
0.47
0.47
0.475
0.405
0.39
0.435
0.415
0.45
0.465
0.435
0.385
0.425
0.44
0.53
0.445
0.395
0.5
0.43
0.415
0.37
0.345
0.395
0.465
0.415
0.465
0.5
0.46
0.405
0.445
0.465
0.435
0.45
0.465
0.49
0.47
0.455
0.415
0.43
0.455
0.415
0.415
0.47
0.415
0.485
0.46
0.48
0.435
0.425
0.45
0.48
0.42
0.46
0.46
0.405
0.265
0.315
0.495
0.48
0.485
0.53
0.61
0.615
0.705
0.775
0.905
1.045
1.215
1.235
1.225
1.275
1.125
1.09
0.935
0.745
0.62
0.56
0.47
0.415
0.355
0.4
0.37
0.36
0.35
0.385
0.415
0.425
0.45
0.445
0.51
0.52
0.445
0.425
0.5
0.43
0.46
0.43
0.425
0.46
0.435
0.41
0.43
0.5
0.435
0.405
0.435
0.415
0.465
0.465
0.43
0.47
0.49
0.55
0.485
0.45
0.44
0.46
0.415
0.49
0.455
0.4
0.455
0.46
0.485
0.46
0.45
0.475
0.51
0.495
0.48
0.485
0.47
0.445
0.455
0.46
0.48
0.54
0.485
0.48
0.54
0.485
0.475
0.45
0.415
0.415
0.47
0.485
0.49
0.505
0.565
0.515
0.52
0.46
0.495
0.435
0.555
0.53
0.515
0.495
0.52
0.545
0.52
0.5
0.515
0.52
0.58
0.52
0.515
0.55
0.545
0.515
0.64
0.6
0.59
0.69
0.615
0.585
0.615
0.59
0.61
0.685
0.63
0.7
0.68
0.715
0.68
0.7
0.725
0.75
0.71
0.755
0.74
0.725
0.71
0.735
0.775
0.755
0.815
0.8
0.81
0.815
0.71
0.725
0.735
0.7
0.78
0.73
0.69
0.625
0.715
0.665
0.665
0.61
0.615
0.6
0.605
0.535
0.55
0.565
0.59
0.46
0.475
0.48
0.435
0.475
0.525
0.5
0.505
0.48
0.445
0.45
0.43
0.42
0.41
0.45
0.46
0.42
0.405
0.43
0.45
0.42
0.445
0.46
0.435
0.435
0.395
0.44
0.435
0.425
0.475
0.415
0.495
0.47
0.515
0.475
0.4
0.37
0.445
0.43
0.465
0.51
0.435
0.38
0.4
0.51
0.475
0.48
0.45
0.45
0.485
0.47
0.41
0.44
0.465
0.455
0.44
0.46
0.465
0.49
0.51
0.445
0.395
0.45
0.46
0.48
0.43
0.465
0.48
0.415
0.47
0.54
0.47
0.42
0.445
0.46
0.445
0.46
0.51
0.495
0.415
0.405
0.51
0.46
0.46
0.505
0.465
0.41
0.44
0.42
0.375
0.48
0.485
0.48
0.5
0.48
0.43
0.39
0.395
0.455
0.41
0.47
0.42
0.42
0.475
0.48
0.47
0.445
0.505
0.485
0.41
0.505
0.505
0.345
0.43
0.53
0.45
0.355
0.42
0.47
0.465
0.525
0.5
0.445
0.485
0.545
0.41
0.365
0.405
0.5
0.47
0.49
0.445
0.44
0.4
0.44
0.5
0.455
0.43
0.46
0.415
0.41
0.435
0.45
0.425
0.405
0.405
0.42
0.465
0.46
0.375
0.44
0.505
0.415
0.485
0.49
0.39
0.395
0.385
0.41
0.505
0.45
0.435
0.365
0.335
0.465
0.465
0.455
0.455
0.425
0.435
0.465
0.46
0.435
0.425
0.46
0.495
0.46
0.47
0.43
0.455
0.465
0.385
0.385
0.47
0.5
0.39
0.415
0.485
0.425
0.375
0.395
0.37
0.525
0.455
0.46
0.475
0.56
0.55
0.525
0.425
0.51
0.44
0.385
0.515
0.48
0.455
0.565
0.6
0.515
0.5
0.52
0.505
0.46
0.53
0.555
0.525
0.435
0.545
0.535
0.525
0.51
0.495
0.53
0.545
0.435
0.41
0.4
0.38
0.375
0.45
0.52
0.45
0.41
0.43
0.445
0.475
0.44
0.45
0.415
0.48
0.435
0.375
0.41
0.48
0.47
0.38
0.36
0.41
0.505
0.45
0.435
0.425
0.455
0.435
0.455
0.41
0.41
0.42
0.42
0.455
0.435
0.375
0.395
0.315
0.445
0.515
0.46
0.395
0.395
0.485
0.38
0.36
0.445
0.455
0.46
0.48
0.45
0.49
0.445
0.42
0.41
0.34
0.355
0.33
0.42
0.385
0.455
0.585
0.6
0.685
0.785
0.825
0.95
1.11
1.265
1.34
1.39
1.435
1.27
1.14
0.915
0.87
0.83
0.69
0.6
0.535
0.53
0.465
0.455
0.46
0.385
0.445
0.5
0.56
0.545
0.475
0.43
0.42
0.49
0.45
0.47
0.465
0.465
0.455
0.475
0.455
0.435
0.4
0.455
0.505
0.455
0.435
0.425
0.44
0.43
0.405
0.435
0.46
0.52
0.48
0.425
0.46
0.46
0.425
0.43
0.47
0.425
0.44
0.435
0.465
0.46
0.43
0.515
0.45
0.425
0.44
0.45
0.45
0.455
0.5
0.435
0.405
0.465
0.45
0.515
0.485
0.44
0.45
0.535
0.525
0.48
0.475
0.47
0.535
0.45
0.45
0.485
0.555
0.475
0.465
0.48
0.45
0.435
0.41
0.42
0.46
0.545
0.57
0.545
0.575
0.535
0.52
0.46
0.515
0.545
0.555
0.54
0.53
0.49
0.525
0.575
0.575
0.58
0.555
0.505
0.635
0.625
0.575
0.685
0.675
0.7
0.64
0.69
0.71
0.69
0.73
0.715
0.705
0.75
0.71
0.715
0.73
0.735
0.72
0.73
0.69
0.68
0.66
0.69
0.72
0.7
0.715
0.695
0.735
0.755
0.68
0.6
0.615
0.63
0.67
0.605
0.585
0.595
0.49
0.495
0.57
0.565
0.525
0.475
0.465
0.405
0.41
0.52
0.505
0.515
0.525
0.49
0.405
0.385
0.505
0.4
0.41
0.48
0.455
0.47
0.485
0.445
0.46
0.495
0.445
0.405
0.435
0.445
0.41
0.425
0.41
0.49
0.51
0.475
0.345
0.415
0.42
0.39
0.42
0.48
0.475
0.45
0.425
0.355
0.445
0.495
0.51
0.415
0.42
0.465
0.475
0.46
0.385
0.375
0.375
0.32
0.485
0.62
0.49
0.445
0.425
0.43
0.525
0.49
0.455
0.455
0.465
0.43
0.435
0.51
0.51
0.45
0.43
0.425
0.41
0.405
0.465
0.48
0.45
0.425
0.48
0.45
0.47
0.465
0.435
0.415
0.48
0.48
0.465
0.465
0.445
0.445
0.475
0.455
0.44
0.44
0.465
0.485
0.51
0.42
0.44
0.445
0.42
0.465
0.515
0.475
0.425
0.465
0.47
0.45
0.455
0.47
0.45
0.47
0.425
0.46
0.5
0.49
0.495
0.47
0.44
0.47
0.38
0.535
0.485
0.42
0.555
0.45
0.43
0.435
0.51
0.46
0.445
0.54
0.51
0.51
0.455
0.45
0.415
0.5
0.48
0.405
0.415
0.45
0.385
0.425
0.445
0.54
0.505
0.44
0.44
0.495
0.47
0.455
0.475
0.42
0.305
0.425
0.52
0.505
0.525
0.43
0.435
0.455
0.47
0.47
0.495
0.49
0.485
0.44
0.425
0.475
0.455
0.39
0.4
0.51
0.42
0.44
0.43
0.445
0.455
0.42
0.51
0.495
0.41
0.41
0.455
0.46
0.48
0.435
0.41
0.46
0.415
0.445
0.38
0.45
0.465
0.4
0.395
0.425
0.365
0.47
0.48
0.45
0.45
0.445
0.455
0.435
0.445
0.475
0.425
0.435
0.38
0.38
0.4
0.47
0.45
0.42
0.395
0.465
0.5
0.51
0.485
0.395
0.45
0.435
0.445
0.425
0.475
0.49
0.48
0.48
0.445
0.465
0.45
0.49
0.475
0.5
0.49
0.465
0.51
0.525
0.525
0.495
0.48
0.52
0.52
0.545
0.48
0.46
0.44
0.49
0.53
0.58
0.555
0.48
0.4
0.415
0.425
0.445
0.5
0.525
0.48
0.385
0.39
0.365
0.53
0.5
0.38
0.51
0.485
0.51
0.42
0.325
0.42
0.46
0.49
0.48
0.415
0.41
0.47
0.44
0.435
0.45
0.395
0.49
0.41
0.38
0.37
0.4
0.39
0.4
0.455
0.39
0.355
0.43
0.455
0.475
0.415
0.37
0.34
0.395
0.405
0.4
0.49
0.47
0.48
0.48
0.44
0.415
0.435
0.455
0.405
0.345
0.45
0.465
0.355
0.37
0.325
0.455
0.445
0.405
0.48
0.58
0.645
0.67
0.845
0.975
1.095
1.18
1.33
1.315
1.36
1.36
1.28
1.12
0.95
0.77
0.695
0.63
0.585
0.48
0.35
0.355
0.385
0.365
0.385
0.445
0.425
0.415
0.365
0.44
0.525
0.465
0.505
0.47
0.415
0.485
0.46
0.39
0.455
0.36
0.38
0.35
0.43
0.495
0.47
0.465
0.415
0.295
0.45
0.41
0.36
0.485
0.505
0.49
0.485
0.505
0.49
0.47
0.505
0.51
0.475
0.465
0.435
0.385
0.4
0.435
0.435
0.42
0.46
0.47
0.455
0.465
0.51
0.425
0.415
0.445
0.52
0.465
0.495
0.48
0.415
0.425
0.505
0.53
0.465
0.45
0.51
0.49
0.515
0.48
0.475
0.43
0.43
0.415
0.445
0.48
0.555
0.5
0.515
0.52
0.52
0.45
0.555
0.47
0.55
0.52
0.555
0.575
0.55
0.555
0.5
0.61
0.595
0.53
0.545
0.595
0.59
0.485
0.595
0.665
0.725
0.65
0.645
0.67
0.585
0.65
0.725
0.71
0.72
0.72
0.71
0.7
0.655
0.685
0.7
0.63
0.74
0.725
0.79
0.78
0.685
0.75
0.795
0.745
0.77
0.73
0.735
0.69
0.715
0.66
0.53
0.65
0.65
0.655
0.625
0.635
0.585
0.565
0.535
0.54
0.505
0.475
0.5
0.54
0.47
0.505
0.47
0.48
0.44
0.51
0.415
0.425
0.475
0.475
0.53
0.485
0.445
0.47
0.455
0.445
0.46
0.46
0.465
0.495
0.4
0.445
0.48
0.46
0.42
0.41
0.48
0.46
0.5
0.485
0.48
0.4
0.415
0.425
0.37
0.415
0.425
0.435
0.485
0.435
0.4
0.405
0.455
0.55
0.525
0.45
0.43
0.42
0.425
0.505
0.465
0.445
0.455
0.45
0.475
0.45
0.44
0.455
0.435
0.42
0.45
0.485
0.425
0.395
0.405
0.45
0.47
0.45
0.4
0.4
0.51
0.47
0.385
0.44
0.465
0.465
0.405
0.45
0.455
0.39
0.4
0.435
0.37
0.365
0.47
0.47
0.385
0.385
0.46
0.515
0.475
0.45
0.465
0.52
0.49
0.475
0.48
0.44
0.46
0.445
0.455
0.475
0.425
0.45
0.48
0.475
0.4
0.435
0.45
0.42
0.465
0.47
0.37
0.375
0.435
0.475
0.45
0.435
0.425
0.43
0.41
0.425
0.445
0.535
0.48
0.4
0.47
0.465
0.465
0.43
0.385
0.365
0.375
0.445
0.465
0.4
0.425
0.485
0.465
0.47
0.445
0.45
0.445
0.435
0.445
0.49
0.45
0.5
0.46
0.465
0.48
0.405
0.39
0.445
0.41
0.42
0.41
0.45
0.405
0.455
0.485
0.43
0.39
0.41
0.45
0.39
0.385
0.43
0.445
0.505
0.48
0.495
0.5
0.46
0.48
0.465
0.43
0.455
0.485
0.51
0.465
0.445
0.515
0.445
0.525
0.535
0.465
0.525
0.53
0.545
0.535
0.52
0.48
0.535
0.415
0.465
0.49
0.485
0.495
0.565
0.575
0.505
0.55
0.54
0.41
0.475
0.53
0.46
0.415
0.46
0.495
0.455
0.46
0.43
0.395
0.4
0.45
0.405
0.45
0.455
0.39
0.475
0.485
0.43
0.405
0.42
0.405
0.425
0.44
0.345
0.49
0.38
0.405
0.425
0.43
0.465
0.44
0.45
0.43
0.415
0.465
0.385
0.425
0.42
0.305
0.385
0.505
0.465
0.46
0.415
0.465
0.495
0.47
0.37
0.37
0.445
0.47
0.48
0.45
0.45
0.43
0.395
0.46
0.305
0.385
0.43
0.415
0.54
0.58
0.59
0.7
0.775
0.93
1.07
1.155
1.24
1.295
1.245
1.245
1.105
0.94
0.815
0.605
0.585
0.51
0.495
0.43
0.31
0.305
0.385
0.31
0.37
0.475
0.425
0.46
0.495
0.44
0.47
0.48
0.445
0.495
0.46
0.43
0.435
0.46
0.455
0.435
0.42
0.41
0.43
0.425
0.44
0.515
0.475
0.46
0.45
0.46
0.495
0.41
0.465
0.44
0.445
0.46
0.44
0.42
0.4
0.435
0.445
0.425
0.465
0.445
0.495
0.37
0.415
0.375
0.405
0.54
0.545
0.46
0.425
0.425
0.415
0.525
0.515
0.49
0.455
0.51
0.48
0.485
0.47
0.4
0.515
0.53
0.475
0.5
0.545
0.48
0.46
0.44
0.395
0.45
0.55
0.555
0.535
0.53
0.5
0.505
0.52
0.53
0.45
0.455
0.47
0.56
0.575
0.625
0.64
0.505
0.565
0.565
0.56
0.57
0.58
0.57
0.575
0.69
0.71
0.555
0.595
0.72
0.715
0.7
0.675
0.655
0.66
0.63
0.725
0.745
0.74
0.75
0.77
0.8
0.78
0.77
0.695
0.64
0.67
0.76
0.77
0.74
0.765
0.715
0.7
0.71
0.745
0.735
0.62
0.66
0.665
0.62
0.665
0.565
0.535
0.665
0.54
0.455
0.54
0.535
0.475
0.575
0.49
0.47
0.49
0.5
0.47
0.435
0.475
0.47
0.465
0.51
0.38
0.51
0.48
0.45
0.475
0.47
0.4
0.42
0.4
0.385
0.425
0.48
0.445
0.435
0.36
0.375
0.445
0.495
0.48
0.49
0.445
0.44
0.395
0.385
0.405
0.435
0.375
0.42
0.36
0.38
0.45
0.39
0.445
0.375
0.305
0.425
0.455
0.47
0.455
0.44
0.485
0.46
0.435
0.46
0.39
0.37
0.38
0.505
0.465
0.46
0.41
0.415
0.42
0.425
0.45
0.415
0.37
0.365
0.425
0.43
0.465
0.435
0.365
0.39
0.465
0.435
0.285
0.445
0.475
0.39
0.44
0.405
0.41
0.405
0.385
0.4
0.385
0.38
0.415
0.435
0.445
0.44
0.405
0.38
0.425
0.455
0.455
0.44
0.45
0.43
0.395
0.44
0.495
0.42
0.435
0.505
0.445
0.415
0.415
0.43
0.43
0.41
0.34
0.41
0.44
0.405
0.39
0.43
0.42
0.365
0.43
0.445
0.365
0.41
0.375
0.315
0.445
0.495
0.44
0.4
0.38
0.42
0.4
0.425
0.465
0.4
0.36
0.46
0.41
0.325
0.405
0.44
0.41
0.46
0.455
0.43
0.385
0.4
0.43
0.405
0.38
0.335
0.435
0.43
0.4
0.385
0.335
0.335
0.415
0.42
0.415
0.445
0.4
0.365
0.385
0.41
0.475
0.4
0.32
0.41
0.33
0.415
0.4
0.45
0.405
0.405
0.415
0.39
0.405
0.43
0.425
0.475
0.43
0.39
0.425
0.42
0.385
0.355
0.41
0.405
0.46
0.41
0.435
0.435
0.41
0.465
0.435
0.495
0.46
0.46
0.4
0.395
0.42
0.445
0.405
0.355
0.4
0.525
0.48
0.535
0.48
0.57
0.52
0.455
0.505
0.45
0.5
0.51
0.485
0.385
0.54
0.51
0.445
0.41
0.445
0.405
0.34
0.415
0.4
0.425
0.4
0.42
0.365
0.395
0.495
0.475
0.37
0.355
0.375
0.445
0.415
0.425
0.4
0.375
0.4
0.395
0.415
0.355
0.32
0.39
0.425
0.37
0.27
0.36
0.405
0.41
0.425
0.335
0.365
0.335
0.445
0.43
0.395
0.375
0.435
0.39
0.395
0.385
0.405
0.38
0.38
0.415
0.43
0.36
0.38
0.38
0.38
0.28
0.34
0.41
0.36
0.36
0.21
0.37
0.48
0.4
0.495
0.53
0.47
0.725
0.805
0.89
1.03
1.15
1.22
1.31
1.26
1.245
1.275
1.065
0.875
0.785
0.68
0.545
0.54
0.54
0.435
0.385
0.36
0.335
0.37
0.385
0.405
0.39
0.435
0.44
0.475
0.42
0.38
0.365
0.38
0.325
0.34
0.305
0.25
0.4
0.46
0.435
0.42
0.37
0.355
0.43
0.375
0.425
0.475
0.36
0.375
0.405
0.435
0.35
0.35
0.46
0.42
0.45
0.35
0.38
0.46
0.455
0.43
0.42
0.395
0.38
0.375
0.425
0.395
0.405
0.4
0.375
0.41
0.45
0.43
0.385
0.37
0.395
0.39
0.415
0.46
0.44
0.425
0.365
0.4
0.38
0.405
0.465
0.41
0.34
0.42
0.43
0.42
0.435
0.345
0.425
0.495
0.445
0.385
0.445
0.475
0.475
0.475
0.46
0.445
0.43
0.485
0.47
0.515
0.495
0.455
0.45
0.525
0.535
0.475
0.545
0.5
0.56
0.61
0.56
0.59
0.64
0.595
0.57
0.59
0.65
0.65
0.67
0.665
0.64
0.625
0.635
0.605
0.67
0.675
0.595
0.595
0.67
0.685
0.725
0.7
0.66
0.685
0.705
0.625
0.59
0.645
0.625
0.645
0.625
0.64
0.62
0.51
0.605
0.58
0.49
0.515
0.53
0.515
0.435
0.49
0.45
0.435
0.42
0.46
0.425
0.415
0.445
0.435
0.45
0.39
0.405
0.405
0.385
0.395
0.315
0.47
0.425
0.41
0.38
0.39
0.415
0.39
0.32
0.375
0.365
0.315
0.26
0.4
0.495
0.49
0.43
0.42
0.375
0.425
0.315
0.385
0.35
0.34
0.47
0.355
0.4
0.415
0.405
0.375
0.34
0.385
0.44
0.37
0.33
0.415
0.4
0.32
0.415
0.415
0.375
0.35
0.36
0.43
0.415
0.465
0.37
0.315
0.28
0.395
0.45
0.425
0.41
0.43
0.4
0.41
0.365
0.395
0.335
0.375
0.4
0.375
0.405
0.37
0.46
0.45
0.365
0.43
0.4
0.405
0.31
0.28
0.34
0.42
0.465
0.42
0.43
0.39
0.37
0.395
0.405
0.415
0.425
0.33
0.305
0.385
0.405
0.47
0.4
0.395
0.38
0.35
0.415
0.365
0.33
0.385
0.425
0.415
0.425
0.435
0.375
0.4
0.52
0.44
0.39
0.345
0.37
0.43
0.415
0.39
0.41
0.39
0.415
0.375
0.36
0.36
0.395
0.395
0.34
0.335
0.415
0.435
0.405
0.425
0.385
0.41
0.365
0.425
0.38
0.425
0.325
0.3
0.38
0.345
0.425
0.47
0.425
0.39
0.355
0.39
0.35
0.395
0.44
0.405
0.365
0.455
0.4
0.335
0.325
0.405
0.34
0.46
0.46
0.43
0.405
0.42
0.395
0.41
0.4
0.36
0.355
0.375
0.4
0.445
0.36
0.405
0.365
0.285
0.32
0.33
0.395
0.485
0.44
0.425
0.36
0.405
0.435
0.46
0.4
0.44
0.43
0.47
0.455
0.4
0.45
0.36
0.42
0.465
0.455
0.425
0.415
0.52
0.53
0.525
0.525
0.49
0.475
0.495
0.445
0.39
0.455
0.475
0.425
0.45
0.465
0.5
0.475
0.495
0.47
0.465
0.395
0.44
0.42
0.425
0.34
0.4
0.395
0.375
0.33
0.3
0.35
0.4
0.41
0.405
0.42
0.39
0.445
0.465
0.375
0.345
0.355
0.42
0.425
0.41
0.34
0.335
0.415
0.42
0.415
0.405
0.38
0.355
0.365
0.355
0.355
0.385
0.395
0.365
0.37
0.335
0.38
0.395
0.4
0.45
0.445
0.37
0.42
0.435
0.385
0.35
0.385
0.36
0.36
0.385
0.365
0.38
0.36
0.24
0.28
0.34
0.275
0.34
0.49
0.595
0.615
0.74
0.875
0.985
1.055
1.18
1.23
1.37
1.445
1.26
1.195
0.99
0.855
0.72
0.62
0.565
0.505
0.415
0.435
0.375
0.32
0.32
0.405
0.385
0.39
0.425
0.42
0.43
0.395
0.405
0.46
0.385
0.385
0.415
0.355
0.405
0.395
0.375
0.405
0.41
0.34
0.34
0.41
0.365
0.435
0.36
0.375
0.45
0.345
0.36
0.36
0.47
0.415
0.37
0.365
0.4
0.425
0.385
0.41
0.4
0.43
0.445
0.455
0.41
0.43
0.425
0.4
0.405
0.365
0.435
0.435
0.385
0.42
0.39
0.445
0.41
0.425
0.4
0.41
0.455
0.44
0.47
0.445
0.43
0.365
0.45
0.42
0.375
0.385
0.47
0.405
0.425
0.425
0.43
0.395
0.445
0.395
0.52
0.49
0.445
0.385
0.465
0.48
0.485
0.475
0.495
0.475
0.5
0.48
0.535
0.535
0.565
0.555
0.495
0.515
0.58
0.59
0.61
0.555
0.605
0.575
0.585
0.58
0.65
0.63
0.66
0.63
0.625
0.65
0.65
0.59
0.575
0.71
0.685
0.65
0.65
0.775
0.64
0.68
0.725
0.695
0.61
0.69
0.655
0.635
0.66
0.615
0.585
0.63
0.6
0.525
0.54
0.515
0.525
0.54
0.485
0.475
0.51
0.485
0.495
0.455
0.41
0.39
0.355
0.33
0.46
0.465
0.365
0.42
0.445
0.42
0.385
0.43
0.415
0.4
0.405
0.41
0.385
0.34
0.3
0.365
0.37
0.32
0.47
0.42
0.355
0.4
0.35
0.395
0.405
0.45
0.385
0.345
0.305
0.43
0.405
0.405
0.375
0.395
0.38
0.375
0.375
0.425
0.345
0.32
0.435
0.37
0.46
0.43
0.405
0.39
0.355
0.36
0.375
0.39
0.43
0.365
0.415
0.39
0.385
0.305
0.41
0.435
0.42
0.32
0.38
0.425
0.385
0.405
0.395
0.34
0.365
0.445
0.36
0.34
0.38
0.415
0.365
0.34
0.385
0.415
0.45
0.375
0.26
0.325
0.405
0.365
0.375
0.485
0.44
0.36
0.425
0.375
0.38
0.39
0.29
0.365
0.39
0.355
0.43
0.405
0.42
0.415
0.39
0.425
0.38
0.41
0.405
0.355
0.39
0.435
0.42
0.365
0.36
0.375
0.395
0.34
0.335
0.355
0.29
0.405
0.47
0.425
0.385
0.42
0.35
0.31
0.34
0.385
0.37
0.36
0.375
0.39
0.355
0.375
0.415
0.385
0.38
0.35
0.315
0.38
0.42
0.36
0.355
0.33
0.28
0.395
0.435
0.4
0.365
0.405
0.44
0.385
0.355
0.275
0.38
0.41
0.33
0.305
0.375
0.4
0.375
0.385
0.375
0.355
0.41
0.325
0.355
0.385
0.365
0.34
0.395
0.4
0.395
0.415
0.37
0.32
0.265
0.32
0.39
0.405
0.4
0.38
0.36
0.39
0.4
0.41
0.4
0.305
0.39
0.415
0.345
0.355
0.375
0.375
0.425
0.43
0.37
0.45
0.43
0.32
0.37
0.425
0.38
0.43
0.465
0.43
0.415
0.395
0.405
0.455
0.4
0.43
0.445
0.465
0.425
0.43
0.475
0.405
0.365
0.48
0.45
0.44
0.44
0.465
0.485
0.475
0.37
0.405
0.355
0.335
0.405
0.305
0.305
0.42
0.375
0.395
0.36
0.385
0.405
0.33
0.3
0.33
0.35
0.31
0.4
0.34
0.27
0.37
0.365
0.36
0.325
0.305
0.345
0.42
0.395
0.39
0.37
0.35
0.345
0.295
0.36
0.36
0.43
0.41
0.32
0.315
0.3
0.385
0.42
0.435
0.39
0.37
0.365
0.34
0.37
0.385
0.275
0.29
0.28
0.33
0.355
0.33
0.295
0.35
0.32
0.295
0.31
0.235
0.345
0.515
0.59
0.595
0.725
0.825
0.875
1.105
1.305
1.29
1.29
1.35
1.22
1.09
0.875
0.74
0.58
0.505
0.465
0.425
0.4
0.265
0.215
0.215
0.26
0.365
0.355
0.385
0.455
0.36
0.375
0.395
0.33
0.335
0.365
0.315
0.345
0.38
0.375
0.325
0.31
0.305
0.31
0.315
0.32
0.28
0.345
0.43
0.385
0.235
0.395
0.385
0.315
0.405
0.425
0.35
0.335
0.335
0.37
0.29
0.315
0.38
0.365
0.265
0.36
0.295
0.365
0.39
0.345
0.39
0.37
0.34
0.35
0.295
0.275
0.335
0.44
0.37
0.31
0.365
0.36
0.395
0.34
0.4
0.35
0.345
0.37
0.35
0.355
0.335
0.385
0.43
0.37
0.37
0.385
0.45
0.405
0.39
0.415
0.38
0.375
0.405
0.39
0.435
0.37
0.435
0.475
0.425
0.4
0.44
0.445
0.375
0.42
0.515
0.49
0.505
0.485
0.495
0.475
0.48
0.55
0.52
0.495
0.59
0.565
0.555
0.57
0.565
0.625
0.62
0.58
0.605
0.615
0.61
0.66
0.655
0.56
0.585
0.705
0.625
0.655
0.62
0.575
0.63
0.69
0.695
0.595
0.57
0.55
0.615
0.51
0.47
0.555
0.455
0.425
0.45
0.445
0.46
0.46
0.485
0.415
0.425
0.35
0.415
0.43
0.415
0.38
0.345
0.325
0.385
0.32
0.38
0.355
0.405
0.355
0.315
0.34
0.325
0.305
0.32
0.34
0.325
0.36
0.29
0.375
0.355
0.31
0.355
0.33
0.335
0.315
0.36
0.325
0.285
0.31
0.235
0.35
0.3
0.33
0.34
0.28
0.385
0.405
0.35
0.365
0.26
0.36
0.415
0.36
0.32
0.4
0.37
0.25
0.275
0.37
0.345
0.315
0.395
0.365
0.335
0.34
0.31
0.285
0.37
0.37
0.345
0.375
0.36
0.35
0.32
0.3
0.335
0.355
0.285
0.31
0.355
0.375
0.39
0.34
0.325
0.285
0.315
0.365
0.355
0.365
0.365
0.295
0.285
0.335
0.345
0.335
0.29
0.335
0.35
0.35
0.315
0.32
0.255
0.265
0.385
0.38
0.335
0.36
0.385
0.345
0.315
0.285
0.275
0.34
0.38
0.33
0.325
0.385
0.385
0.32
0.355
0.345
0.32
0.36
0.37
0.35
0.325
0.305
0.33
0.295
0.325
0.345
0.36
0.37
0.36
0.33
0.325
0.35
0.335
0.32
0.275
0.255
0.225
0.315
0.36
0.295
0.365
0.395
0.36
0.28
0.315
0.365
0.315
0.315
0.33
0.285
0.325
0.29
0.335
0.47
0.385
0.37
0.32
0.27
0.365
0.375
0.29
0.33
0.345
0.33
0.355
0.36
0.4
0.38
0.33
0.325
0.305
0.315
0.29
0.34
0.31
0.325
0.37
0.22
0.365
0.305
0.285
0.33
0.385
0.38
0.31
0.31
0.4
0.335
0.265
0.305
0.305
0.245
0.25
0.36
0.4
0.405
0.355
0.375
0.365
0.33
0.37
0.42
0.345
0.37
0.335
0.4
0.37
0.365
0.4
0.365
0.33
0.35
0.315
0.39
0.455
0.42
0.35
0.39
0.44
0.46
0.425
0.41
0.38
0.36
0.325
0.415
0.425
0.505
0.37
0.43
0.46
0.34
0.395
0.4
0.435
0.435
0.365
0.355
0.315
0.38
0.36
0.37
0.425
0.3
0.34
0.35
0.405
0.395
0.29
0.32
0.345
0.4
0.35
0.23
0.33
0.36
0.32
0.385
0.375
0.285
0.25
0.265
0.26
0.335
0.305
0.295
0.335
0.42
0.375
0.33
0.37
0.43
0.345
0.325
0.335
0.22
0.26
0.25
0.34
0.435
0.37
0.3
0.33
0.36
0.365
0.365
0.32
0.3
0.31
0.335
0.335
0.3
0.325
0.3
0.295
0.305
0.305
0.335
0.375
0.495
0.595
0.765
0.805
1.0
1.05
1.23
1.305
1.35
1.32
1.185
1.1
0.815
0.63
0.64
0.61
0.475
0.445
0.38
0.315
0.345
0.34
0.315
0.305
0.34
0.385
0.34
0.345
0.345
0.37
0.315
0.315
0.285
0.33
0.425
0.375
0.295
0.27
0.295
0.365
0.41
0.34
0.305
0.32
0.375
0.365
0.325
0.34
0.36
0.32
0.36
0.28
0.28
0.36
0.335
0.35
0.375
0.355
0.375
0.38
0.32
0.38
0.415
0.4
0.36
0.33
0.325
0.375
0.31
0.33
0.42
0.405
0.325
0.3
0.415
0.415
0.38
0.415
0.38
0.43
0.315
0.225
0.345
0.37
0.36
0.47
0.385
0.405
0.34
0.42
0.49
0.44
0.395
0.335
0.4
0.44
0.435
0.435
0.405
0.4
0.415
0.39
0.42
0.45
0.425
0.45
0.445
0.43
0.45
0.4
0.44
0.485
0.44
0.455
0.57
0.595
0.55
0.57
0.515
0.45
0.54
0.645
0.595
0.585
0.605
0.615
0.575
0.585
0.645
0.605
0.595
0.62
0.535
0.675
0.615
0.625
0.685
0.655
0.7
0.6
0.695
0.68
0.72
0.64
0.605
0.565
0.56
0.57
0.56
0.61
0.585
0.54
0.495
0.47
0.5
0.455
0.44
0.45
0.46
0.435
0.45
0.445
0.38
0.385
0.355
0.35
0.31
0.37
0.36
0.365
0.44
0.365
0.295
0.37
0.285
0.255
0.335
0.37
0.425
0.4
0.37
0.4
0.42
0.345
0.34
0.395
0.35
0.41
0.38
0.435
0.385
0.355
0.39
0.39
0.37
0.38
0.35
0.31
0.34
0.355
0.41
0.285
0.355
0.32
0.36
0.345
0.355
0.355
0.375
0.31
0.31
0.335
0.355
0.395
0.38
0.31
0.3
0.32
0.35
0.375
0.345
0.48
0.42
0.315
0.295
0.365
0.29
0.32
0.335
0.34
0.445
0.38
0.34
0.415
0.39
0.4
0.4
0.425
0.39
0.445
0.405
0.335
0.35
0.405
0.345
0.34
0.255
0.325
0.37
0.39
0.33
0.345
0.395
0.405
0.43
0.38
0.38
0.335
0.29
0.335
0.35
0.365
0.395
0.395
0.34
0.33
0.41
0.285
0.115
0.375
0.5
0.44
0.365
0.365
0.4
0.415
0.335
0.275
0.305
0.45
0.38
0.355
0.375
0.42
0.375
0.35
0.375
0.325
0.315
0.385
0.405
0.375
0.38
0.41
0.385
0.33
0.295
0.355
0.365
0.35
0.38
0.375
0.375
0.38
0.32
0.325
0.335
0.285
0.345
0.38
0.34
0.34
0.42
0.405
0.39
0.385
0.33
0.335
0.295
0.38
0.405
0.38
0.355
0.335
0.3
0.28
0.355
0.43
0.35
0.345
0.385
0.4
0.395
0.315
0.335
0.43
0.395
0.385
0.405
0.405
0.38
0.385
0.415
0.375
0.36
0.405
0.37
0.415
0.445
0.425
0.4
0.4
0.345
0.35
0.34
0.465
0.38
0.425
0.435
0.39
0.405
0.425
0.46
0.465
0.4
0.375
0.385
0.405
0.455
0.54
0.48
0.49
0.425
0.4
0.49
0.445
0.41
0.355
0.42
0.43
0.4
0.415
0.44
0.43
0.33
0.36
0.395
0.31
0.315
0.395
0.355
0.36
0.365
0.31
0.355
0.435
0.385
0.27
0.35
0.315
0.35
0.455
0.48
0.375
0.375
0.37
0.41
0.31
0.295
0.34
0.345
0.33
0.385
0.33
0.3
0.405
0.415
0.395
0.41
0.36
0.3
0.33
0.385
0.355
0.385
0.43
0.335
0.29
0.385
0.395
0.405
0.35
0.395
0.4
0.4
0.305
0.34
0.32
0.3
0.33
0.325
0.375
0.44
0.525
0.58
0.62
0.715
0.795
0.91
1.055
1.07
1.175
1.215
1.155
1.065
0.88
0.74
0.535
0.475
0.39
0.365
0.4
0.34
0.195
0.235
0.305
0.365
0.245
0.315
0.33
0.38
0.38
0.41
0.36
0.36
0.385
0.375
0.35
0.365
0.385
0.365
0.33
0.32
0.425
0.43
0.37
0.37
0.345
0.445
0.455
0.4
0.435
0.4
0.355
0.36
0.37
0.335
0.375
0.455
0.345
0.375
0.445
0.33
0.32
0.435
0.39
0.295
0.37
0.37
0.365
0.425
0.43
0.41
0.335
0.375
0.36
0.335
0.375
0.495
0.4
0.385
0.37
0.43
0.43
0.37
0.37
0.355
0.435
0.45
0.38
0.415
0.45
0.47
0.385
0.405
0.415
0.445
0.46
0.47
0.455
0.4
0.435
0.445
0.365
0.445
0.505
0.45
0.415
0.495
0.47
0.48
0.485
0.43
0.525
0.575
0.58
0.57
0.515
0.5
0.55
0.545
0.54
0.525
0.55
0.51
0.575
0.615
0.66
0.715
0.675
0.71
0.68
0.68
0.66
0.655
0.68
0.66
0.61
0.63
0.65
0.69
0.68
0.71
0.685
0.67
0.715
0.705
0.695
0.655
0.655
0.63
0.61
0.54
0.525
0.575
0.515
0.525
0.525
0.515
0.495
0.485
0.415
0.365
0.395
0.435
0.48
0.44
0.44
0.405
0.395
0.365
0.425
0.38
0.36
0.345
0.29
0.23
0.375
0.43
0.335
0.455
0.42
0.395
0.34
0.415
0.38
0.31
0.32
0.365
0.47
0.435
0.425
0.34
0.32
0.33
0.365
0.41
0.44
0.405
0.34
0.34
0.32
0.305
0.25
0.34
0.325
0.36
0.39
0.325
0.375
0.315
0.34
0.375
0.385
0.37
0.325
0.35
0.39
0.325
0.335
0.37
0.36
0.36
0.375
0.365
0.24
0.3
0.455
0.41
0.405
0.46
0.44
0.36
0.335
0.345
0.345
0.325
0.37
0.37
0.325
0.31
0.295
0.395
0.375
0.37
0.375
0.37
0.36
0.35
0.38
0.375
0.415
0.315
0.37
0.38
0.33
0.375
0.42
0.4
0.325
0.39
0.36
0.265
0.35
0.335
0.345
0.35
0.43
0.415
0.43
0.395
0.365
0.345
0.33
0.325
0.365
0.375
0.35
0.285
0.345
0.425
0.375
0.31
0.335
0.255
0.375
0.455
0.385
0.42
0.4
0.355
0.37
0.36
0.355
0.325
0.365
0.375
0.38
0.375
0.38
0.41
0.375
0.365
0.365
0.31
0.36
0.355
0.375
0.365
0.395
0.375
0.33
0.29
0.355
0.375
0.315
0.335
0.34
0.35
0.315
0.295
0.4
0.365
0.395
0.42
0.43
0.37
0.4
0.4
0.365
0.345
0.34
0.435
0.415
0.39
0.335
0.36
0.32
0.39
0.39
0.38
0.41
0.43
0.45
0.405
0.44
0.485
0.475
0.445
0.45
0.435
0.395
0.35
0.455
0.485
0.405
0.385
0.445
0.41
0.39
0.44
0.425
0.285
0.415
0.44
0.355
0.34
0.31
0.37
0.375
0.32
0.37
0.42
0.365
0.36
0.38
0.33
0.375
0.35
0.285
0.275
0.36
0.375
0.37
0.27
0.385
0.395
0.35
0.415
0.365
0.345
0.405
0.35
0.295
0.305
0.315
0.405
0.365
0.35
0.305
0.33
0.315
0.37
0.345
0.39
0.325
0.35
0.315
0.25
0.35
0.385
0.37
0.385
0.37
0.435
0.35
0.38
0.335
0.34
0.345
0.335
0.275
0.28
0.335
0.39
0.46
0.6
0.6
0.68
0.805
0.86
0.905
0.995
1.11
1.19
1.25
1.205
1.005
0.795
0.8
0.595
0.46
0.38
0.4
0.32
0.28
0.305
0.335
0.4
0.385
0.35
0.39
0.415
0.405
0.34
0.32
0.415
0.38
0.395
0.41
0.42
0.38
0.315
0.33
0.395
0.375
0.36
0.325
0.335
0.355
0.365
0.305
0.43
0.38
0.34
0.37
0.44
0.37
0.395
0.345
0.365
0.365
0.37
0.375
0.39
0.365
0.325
0.405
0.4
0.37
0.42
0.37
0.46
0.49
0.385
0.385
0.37
0.385
0.42
0.45
0.335
0.37
0.31
0.315
0.36
0.47
0.395
0.39
0.39
0.405
0.39
0.39
0.405
0.39
0.36
0.4
0.37
0.5
0.44
0.42
0.42
0.445
0.45
0.395
0.435
0.49
0.4
0.475
0.49
0.48
0.445
0.515
0.48
0.46
0.51
0.48
0.46
0.5
0.55
0.57
0.52
0.59
0.565
0.55
0.51
0.545
0.54
0.435
0.52
0.69
0.61
0.615
0.625
0.62
0.6
0.59
0.625
0.705
0.695
0.63
0.635
0.665
0.69
0.695
0.695
0.64
0.615
0.645
0.63
0.665
0.63
0.635
0.56
0.55
0.56
0.565
0.56
0.505
0.47
0.475
0.47
0.395
0.475
0.49
0.495
0.455
0.435
0.475
0.43
0.335
0.38
0.455
0.44
0.395
0.42
0.36
0.395
0.375
0.355
0.34
0.315
0.355
0.38
0.415
0.36
0.315
0.27
0.365
0.405
0.365
0.375
0.455
0.335
0.34
0.33
0.355
0.335
0.325
0.335
0.305
0.345
0.35
0.35
0.365
0.355
0.36
0.38
0.37
0.405
0.35
0.37
0.355
0.365
0.385
0.36
0.41
0.36
0.36
0.38
0.33
0.295
0.32
0.41
0.38
0.415
0.395
0.375
0.345
0.305
0.345
0.36
0.38
0.365
0.275
0.385
0.35
0.385
0.35
0.35
0.44
0.39
0.325
0.355
0.36
0.35
0.41
0.395
0.375
0.37
0.35
0.36
0.39
0.355
0.35
0.38
0.405
0.365
0.36
0.395
0.37
0.36
0.32
0.34
0.34
0.37
0.405
0.39
0.425
0.36
0.29
0.33
0.37
0.29
0.34
0.405
0.375
0.37
0.415
0.405
0.4
0.395
0.325
0.345
0.315
0.35
0.32
0.29
0.345
0.395
0.41
0.325
0.255
0.295
0.295
0.27
0.415
0.355
0.385
0.38
0.38
0.35
0.33
0.355
0.38
0.41
0.395
0.335
0.38
0.375
0.35
0.32
0.26
0.34
0.37
0.36
0.305
0.34
0.4
0.4
0.37
0.385
0.365
0.31
0.325
0.41
0.335
0.365
0.38
0.405
0.36
0.395
0.24
0.325
0.39
0.37
0.415
0.47
0.41
0.3
0.29
0.395
0.395
0.415
0.395
0.405
0.505
0.46
0.44
0.415
0.505
0.465
0.39
0.485
0.385
0.385
0.315
0.33
0.415
0.445
0.39
0.42
0.365
0.38
0.395
0.41
0.395
0.43
0.345
0.3
0.255
0.335
0.4
0.3
0.38
0.385
0.31
0.25
0.355
0.285
0.335
0.425
0.34
0.325
0.34
0.34
0.325
0.34
0.35
0.41
0.36
0.31
0.33
0.34
0.34
0.36
0.405
0.325
0.275
0.33
0.305
0.27
0.39
0.275
0.335
0.345
0.355
0.375
0.365
0.29
0.29
0.275
0.25
0.345
0.325
0.38
0.345
0.39
0.35
0.335
0.28
0.205
0.25
0.35
0.445
0.4
0.485
0.565
0.64
0.59
0.775
0.955
1.095
1.22
1.25
1.215
1.185
1.14
1.035
0.855
0.69
0.62
0.58
0.43
0.425
0.46
0.39
0.32
0.385
0.37
0.3
0.395
0.335
0.325
0.315
0.345
0.37
0.35
0.37
0.28
0.405
0.405
0.375
0.35
0.31
0.405
0.305
0.395
0.34
0.28
0.335
0.41
0.365
0.305
0.365
0.425
0.355
0.32
0.35
0.27
0.315
0.415
0.4
0.35
0.34
0.395
0.405
0.355
0.415
0.39
0.4
0.265
0.26
0.31
0.355
0.435
0.42
0.395
0.37
0.365
0.365
0.37
0.325
0.36
0.385
0.425
0.38
0.395
0.37
0.335
0.31
0.355
0.36
0.34
0.405
0.39
0.42
0.42
0.38
0.36
0.36
0.34
0.365
0.385
0.5
0.435
0.38
0.46
0.47
0.42
0.43
0.42
0.435
0.425
0.435
0.485
0.495
0.49
0.49
0.475
0.48
0.505
0.42
0.495
0.535
0.505
0.535
0.53
0.57
0.52
0.58
0.6
0.625
0.555
0.505
0.6
0.56
0.625
0.655
0.62
0.545
0.57
0.6
0.6
0.515
0.62
0.705
0.73
0.665
0.63
0.645
0.615
0.58
0.56
0.55
0.495
0.535
0.54
0.51
0.495
0.5
0.455
0.43
0.46
0.49
0.47
0.435
0.36
0.305
0.36
0.39
0.35
0.375
0.37
0.41
0.365
0.36
0.28
0.31
0.31
0.36
0.32
0.375
0.4
0.4
0.315
0.345
0.41
0.375
0.225
0.245
0.415
0.355
0.395
0.34
0.325
0.375
0.4
0.375
0.37
0.365
0.335
0.31
0.345
0.405
0.35
0.39
0.38
0.335
0.325
0.305
0.355
0.335
0.35
0.35
0.33
0.29
0.32
0.345
0.295
0.37
0.335
0.35
0.325
0.36
0.335
0.365
0.305
0.22
0.375
0.37
0.4
0.31
0.42
0.41
0.34
0.325
0.31
0.355
0.385
0.31
0.335
0.335
0.38
0.355
0.335
0.33
0.375
0.295
0.375
0.3
0.29
0.335
0.33
0.33
0.37
0.38
0.385
0.32
0.33
0.335
0.43
0.335
0.315
0.38
0.385
0.275
0.385
0.42
0.295
0.275
0.31
0.375
0.34
0.4
0.435
0.375
0.35
0.29
0.275
0.34
0.31
0.295
0.34
0.365
0.35
0.38
0.355
0.32
0.305
0.275
0.34
0.335
0.265
0.405
0.38
0.39
0.305
0.35
0.355
0.28
0.285
0.335
0.235
0.395
0.405
0.335
0.305
0.3
0.335
0.335
0.315
0.335
0.33
0.245
0.31
0.385
0.315
0.28
0.355
0.345
0.275
0.3
0.365
0.385
0.32
0.35
0.365
0.35
0.275
0.345
0.32
0.365
0.325
0.315
0.33
0.295
0.34
0.345
0.29
0.305
0.22
0.33
0.415
0.34
0.25
0.315
0.35
0.39
0.385
0.36
0.365
0.33
0.36
0.31
0.365
0.39
0.31
0.42
0.37
0.315
0.41
0.395
0.365
0.395
0.42
0.41
0.355
0.37
0.455
0.48
0.385
0.4
0.395
0.375
0.395
0.42
0.405
0.41
0.36
0.43
0.36
0.29
0.31
0.395
0.37
0.315
0.31
0.31
0.315
0.325
0.28
0.255
0.37
0.325
0.32
0.345
0.29
0.3
0.33
0.32
0.37
0.39
0.33
0.315
0.28
0.325
0.36
0.305
0.235
0.29
0.33
0.275
0.325
0.27
0.335
0.34
0.27
0.335
0.32
0.305
0.315
0.36
0.375
0.375
0.385
0.325
0.31
0.295
0.25
0.265
0.34
0.29
0.35
0.365
0.33
0.315
0.26
0.275
0.26
0.225
0.265
0.24
0.275
0.445
0.375
0.57
0.705
0.89
1.04
1.125
1.25
1.255
1.22
1.26
1.21
1.065
0.89
0.745
0.615
0.505
0.385
0.41
0.3
0.31
0.375
0.255
0.28
0.365
0.325
0.38
0.31
0.32
0.35
0.34
0.365
0.355
0.34
0.33
0.335
0.26
0.305
0.295
0.33
0.32
0.325
0.295
0.27
0.345
0.33
0.32
0.35
0.35
0.26
0.245
0.355
0.33
0.335
0.35
0.285
0.235
0.34
0.305
0.255
0.4
0.29
0.205
0.365
0.45
0.36
0.26
0.31
0.34
0.385
0.365
0.41
0.325
0.31
0.32
0.33
0.32
0.31
0.35
0.38
0.285
0.33
0.33
0.355
0.335
0.35
0.33
0.385
0.415
0.33
0.32
0.335
0.38
0.405
0.355
0.375
0.36
0.355
0.38
0.335
0.345
0.32
0.385
0.455
0.435
0.385
0.425
0.425
0.41
0.41
0.415
0.455
0.395
0.415
0.44
0.41
0.425
0.435
0.39
0.44
0.485
0.49
0.555
0.585
0.51
0.515
0.48
0.445
0.525
0.525
0.55
0.485
0.6
0.585
0.57
0.585
0.58
0.665
0.52
0.59
0.59
0.575
0.58
0.6
0.52
0.48
0.435
0.535
0.6
0.535
0.505
0.51
0.47
0.365
0.435
0.405
0.4
0.36
0.36
0.435
0.405
0.32
0.255
0.31
0.255
0.33
0.405
0.345
0.315
0.315
0.25
0.29
0.355
0.335
0.295
0.3
0.27
0.245
0.28
0.255
0.245
0.21
0.2
0.2
0.25
0.45
0.315
0.285
0.305
0.29
0.23
0.265
0.34
0.29
0.24
0.21
0.235
0.26
0.3
0.31
0.29
0.285
0.29
0.24
0.185
0.125
0.27
0.335
0.325
0.335
0.285
0.25
0.22
0.255
0.305
0.285
0.235
0.285
0.315
0.26
0.235
0.225
0.2
0.29
0.27
0.185
0.235
0.335
0.335
0.26
0.275
0.3
0.28
0.24
0.21
0.175
0.2
0.205
0.225
0.255
0.325
0.3
0.225
0.235
0.21
0.265
0.275
0.29
0.16
0.13
0.26
0.29
0.235
0.255
0.275
0.295
0.275
0.22
0.265
0.285
0.26
0.26
0.265
0.28
0.235
0.215
0.275
0.305
0.235
0.22
0.235
0.245
0.325
0.225
0.2
0.225
0.3
0.26
0.265
0.285
0.215
0.2
0.255
0.235
0.215
0.255
0.24
0.24
0.195
0.255
0.255
0.175
0.24
0.325
0.28
0.205
0.25
0.285
0.21
0.185
0.19
0.245
0.335
0.22
0.275
0.305
0.3
0.265
0.265
0.23
0.22
0.27
0.285
0.255
0.225
0.205
0.26
0.315
0.245
0.24
0.27
0.24
0.13
0.28
0.265
0.265
0.235
0.19
0.24
0.25
0.23
0.255
0.25
0.235
0.23
0.29
0.195
0.045
0.185
0.31
0.31
0.275
0.205
0.23
0.255
0.305
0.335
0.305
0.22
0.245
0.215
0.16
0.27
0.305
0.27
0.335
0.31
0.275
0.27
0.24
0.23
0.245
0.3
0.27
0.34
0.355
0.275
0.27
0.295
0.3
0.29
0.295
0.245
0.28
0.26
0.265
0.36
0.33
0.26
0.31
0.185
0.28
0.19
0.245
0.275
0.23
0.28
0.305
0.25
0.21
0.22
0.23
0.16
0.2
0.23
0.235
0.215
0.165
0.235
0.205
0.115
0.24
0.225
0.185
0.165
0.24
0.285
0.225
0.265
0.21
0.17
0.19
0.15
0.19
0.15
0.15
0.215
0.22
0.135
0.185
0.19
0.115
0.18
0.16
0.16
0.115
0.195
0.25
0.195
0.125
0.16
0.215
0.2
0.22
0.17
0.16
0.16
0.16
0.095
0.03
0.13
0.185
0.255
0.27
0.34
0.485
0.545
0.675
0.845
0.93
1.045
1.06
1.135
1.145
1.17
0.98
0.825
0.61
0.475
0.435
0.395
0.295
0.26
0.215
0.145
0.125
0.145
0.185
0.225
0.165
0.19
0.105
0.215
0.105
0.14
0.275
0.225
0.2
0.2
0.22
0.185
0.19
0.195
0.205
0.26
0.225
0.135
0.17
0.155
0.17
0.22
0.24
0.245
0.195
0.2
0.155
0.195
0.23
0.205
0.15
0.07
0.14
0.2
0.12
0.19
0.19
0.28
0.23
0.195
0.155
0.135
0.14
0.17
0.24
0.23
0.125
0.245
0.22
0.125
0.255
0.26
0.25
0.225
0.275
0.26
0.225
0.305
0.21
0.2
0.19
0.17
0.2
0.225
0.23
0.23
0.18
0.195
0.235
0.315
0.265
0.27
0.255
0.205
0.26
0.26
0.2
0.18
0.285
0.3
0.245
0.275
0.255
0.175
0.315
0.48
0.33
0.29
0.365
0.395
0.315
0.325
0.38
0.315
0.385
0.44
0.425
0.335
0.295
0.425
0.53
0.47
0.47
0.47
0.49
0.48
0.42
0.42
0.545
0.535
0.485
0.425
0.515
0.525
0.53
0.525
0.495
0.495
0.49
0.425
0.34
0.33
0.36
0.28
0.315
0.375
0.42
0.44
0.35
0.3
0.285
0.305
0.31
0.275
0.225
0.295
0.285
0.265
0.205
0.21
0.225
0.21
0.17
0.225
0.17
0.165
0.19
0.23
0.21
0.135
0.205
0.2
0.165
0.12
0.09
0.185
0.15
0.255
0.235
0.27
0.105
0.08
0.18
0.21
0.24
0.235
0.2
0.165
0.15
0.25
0.19
0.18
0.195
0.11
0.165
0.145
0.25
0.15
0.145
0.065
0.235
0.33
0.265
0.255
0.16
0.265
0.26
0.25
0.2
0.165
0.135
0.19
0.165
0.19
0.195
0.205
0.185
0.17
0.22
0.145
0.23
0.155
0.17
0.21
0.065
0.045
0.2
0.15
0.135
0.295
0.295
0.19
0.145
0.245
0.25
0.235
0.24
0.175
0.16
0.14
0.12
0.235
0.17
0.15
0.17
0.21
0.245
0.24
0.225
0.15
0.135
0.2
0.28
0.235
0.19
0.255
0.215
0.195
0.275
0.24
0.23
0.25
0.205
0.175
0.215
0.22
0.16
0.17
0.145
0.195
0.195
0.21
0.25
0.22
0.225
0.17
0.145
0.12
0.22
0.265
0.26
0.165
0.175
0.185
0.18
0.16
0.18
0.17
0.2
0.18
0.16
0.16
0.15
0.19
0.29
0.205
0.165
0.175
0.225
0.16
0.16
0.2
0.16
0.155
0.115
0.05
0.19
0.25
0.19
0.225
0.225
0.205
0.14
0.25
0.22
0.17
0.25
0.27
0.22
0.18
0.195
0.2
0.205
0.28
0.255
0.185
0.295
0.315
0.21
0.19
0.21
0.19
0.135
0.23
0.295
0.25
0.33
0.235
0.255
0.285
0.265
0.265
0.28
0.325
0.33
0.24
0.23
0.305
0.245
0.23
0.27
0.2
0.22
0.27
0.29
0.235
0.255
0.165
0.16
0.235
0.245
0.19
0.155
0.03
0.075
0.205
0.23
0.245
0.155
0.19
0.205
0.195
0.2
0.065
0.115
0.21
0.3
0.24
0.185
0.23
0.2
0.16
0.195
0.19
0.195
0.18
0.235
0.1
0.115
0.22
0.23
0.225
0.2
0.18
0.135
0.11
0.08
0.16
0.12
0.19
0.18
0.14
0.18
0.07
0.12
0.245
0.23
0.225
0.065
0.075
0.14
0.165
0.2
0.175
0.145
0.12
0.135
0.14
0.135
0.23
0.28
0.325
0.43
0.465
0.575
0.635
0.735
0.85
0.975
1.015
0.94
0.845
0.805
0.65
0.435
0.33
0.245
0.25
0.155
0.095
0.105
0.07
0.125
0.105
0.075
0.09
0.135
0.17
0.205
0.21
0.17
0.23
0.185
0.085
0.19
0.135
0.055
0.165
0.15
0.205
0.24
0.23
0.17
0.195
0.175
0.175
0.2
0.17
0.21
0.215
0.21
0.15
0.165
0.2
0.19
0.185
0.135
0.23
0.175
0.185
0.16
0.23
0.175
0.235
0.24
0.185
0.195
0.125
0.2
0.195
0.17
0.155
0.13
0.135
0.22
0.285
0.235
0.21
0.19
0.19
0.145
0.24
0.27
0.255
0.235
0.225
0.215
0.19
0.205
0.175
0.17
0.245
0.25
0.225
0.285
0.31
0.265
0.27
0.29
0.2
0.19
0.26
0.315
0.27
0.345
0.32
0.32
0.255
0.28
0.315
0.29
0.28
0.33
0.425
0.355
0.37
0.36
0.405
0.365
0.35
0.34
0.445
0.415
0.33
0.42
0.48
0.505
0.55
0.525
0.535
0.575
0.46
0.43
0.485
0.45
0.55
0.545
0.515
0.51
0.485
0.51
0.455
0.535
0.53
0.42
0.405
0.445
0.435
0.47
0.42
0.415
0.41
0.39
0.42
0.375
0.38
0.345
0.295
0.215
0.285
0.255
0.32
0.305
0.29
0.255
0.29
0.29
0.23
0.295
0.24
0.175
0.25
0.29
0.2
0.19
0.19
0.265
0.165
0.165
0.2
0.225
0.25
0.175
0.16
0.215
0.22
0.245
0.24
0.26
0.18
0.195
0.295
0.285
0.225
0.235
0.265
0.275
0.26
0.27
0.27
0.28
0.2
0.25
0.265
0.225
0.22
0.285
0.225
0.235
0.18
0.19
0.27
0.225
0.225
0.235
0.22
0.195
0.27
0.3
0.305
0.275
0.29
0.29
0.165
0.185
0.22
0.16
0.19
0.24
0.2
0.175
0.195
0.32
0.245
0.24
0.285
0.31
0.315
0.31
0.265
0.22
0.195
0.235
0.31
0.26
0.265
0.24
0.27
0.215
0.205
0.19
0.235
0.225
0.305
0.31
0.23
0.23
0.225
0.2
0.29
0.24
0.28
0.275
0.23
0.245
0.245
0.19
0.225
0.18
0.24
0.32
0.255
0.205
0.26
0.26
0.215
0.26
0.245
0.19
0.195
0.26
0.23
0.19
0.215
0.26
0.25
0.205
0.195
0.18
0.32
0.31
0.28
0.255
0.245
0.205
0.275
0.255
0.21
0.23
0.24
0.27
0.3
0.2
0.23
0.205
0.265
0.3
0.275
0.28
0.285
0.315
0.3
0.26
0.245
0.215
0.265
0.185
0.28
0.31
0.295
0.295
0.25
0.315
0.365
0.355
0.31
0.3
0.25
0.305
0.235
0.315
0.33
0.32
0.305
0.27
0.295
0.37
0.355
0.395
0.36
0.34
0.405
0.375
0.355
0.325
0.295
0.325
0.355
0.35
0.325
0.36
0.34
0.305
0.325
0.305
0.26
0.25
0.305
0.3
0.265
0.285
0.3
0.32
0.28
0.285
0.19
0.225
0.285
0.295
0.26
0.23
0.15
0.215
0.3
0.335
0.29
0.29
0.34
0.27
0.265
0.26
0.33
0.285
0.19
0.27
0.305
0.235
0.305
0.34
0.28
0.265
0.255
0.32
0.325
0.25
0.19
0.19
0.265
0.335
0.35
0.26
0.275
0.315
0.385
0.29
0.35
0.28
0.335
0.29
0.245
0.195
0.22
0.12
0.24
0.245
0.25
0.205
0.335
0.575
0.63
0.67
0.86
0.895
0.93
1.075
1.2
1.19
1.21
1.025
0.85
0.69
0.575
0.38
0.39
0.4
0.41
0.28
0.195
0.245
0.305
0.28
0.255
0.33
0.36
0.27
0.35
0.395
0.27
0.285
0.235
0.235
0.355
0.35
0.245
0.29
0.29
0.34
0.325
0.25
0.33
0.3
0.26
0.285
0.2
0.245
0.295
0.295
0.285
0.225
0.36
0.35
0.265
0.285
0.295
0.335
0.335
0.32
0.31
0.3
0.27
0.32
0.36
0.35
0.325
0.29
0.305
0.32
0.355
0.37
0.35
0.315
0.285
0.285
0.285
0.325
0.33
0.325
0.36
0.325
0.345
0.345
0.295
0.3
0.245
0.225
0.325
0.395
0.285
0.285
0.375
0.395
0.325
0.245
0.4
0.415
0.355
0.38
0.345
0.355
0.4
0.4
0.41
0.42
0.405
0.365
0.4
0.435
0.425
0.38
0.475
0.38
0.48
0.42
0.48
0.41
0.455
0.48
0.5
0.505
0.53
0.58
0.535
0.525
0.57
0.505
0.485
0.475
0.6
0.595
0.555
0.59
0.67
0.625
0.54
0.525
0.505
0.63
0.585
0.49
0.5
0.625
0.565
0.58
0.525
0.485
0.45
0.485
0.445
0.44
0.44
0.34
0.305
0.33
0.38
0.38
0.325
0.33
0.3
0.33
0.3
0.305
0.275
0.25
0.245
0.335
0.335
0.32
0.325
0.29
0.3
0.275
0.305
0.315
0.265
0.275
0.245
0.215
0.225
0.255
0.255
0.31
0.32
0.22
0.25
0.28
0.21
0.205
0.205
0.235
0.28
0.23
0.33
0.34
0.265
0.235
0.15
0.205
0.29
0.235
0.215
0.315
0.29
0.295
0.17
0.265
0.21
0.325
0.305
0.28
0.31
0.27
0.24
0.175
0.22
0.215
0.25
0.23
0.235
0.235
0.255
0.26
0.255
0.24
0.22
0.185
0.275
0.265
0.28
0.275
0.285
0.245
0.185
0.225
0.21
0.18
0.185
0.16
0.1
0.235
0.315
0.395
0.345
0.375
0.305
0.21
0.205
0.18
0.165
0.2
0.275
0.21
0.275
0.265
0.225
0.265
0.315
0.265
0.19
0.225
0.25
0.25
0.23
0.275
0.195
0.25
0.26
0.145
0.25
0.17
0.165
0.21
0.26
0.265
0.22
0.205
0.275
0.25
0.225
0.185
0.2
0.245
0.26
0.305
0.195
0.15
0.28
0.2
0.26
0.235
0.205
0.17
0.25
0.175
0.185
0.205
0.24
0.155
0.26
0.27
0.255
0.21
0.26
0.27
0.235
0.205
0.26
0.205
0.195
0.205
0.165
0.245
0.245
0.26
0.2
0.185
0.135
0.205
0.265
0.315
0.255
0.245
0.265
0.335
0.23
0.26
0.38
0.26
0.22
0.22
0.23
0.245
0.34
0.295
0.285
0.325
0.235
0.21
0.3
0.285
0.225
0.265
0.44
0.36
0.33
0.36
0.29
0.285
0.345
0.285
0.23
0.25
0.275
0.26
0.25
0.28
0.265
0.205
0.205
0.225
0.185
0.185
0.305
0.24
0.3
0.33
0.245
0.225
0.235
0.23
0.19
0.18
0.21
0.245
0.18
0.215
0.27
0.26
0.25
0.21
0.265
0.22
0.2
0.225
0.155
0.215
0.09
0.14
0.205
0.28
0.24
0.225
0.235
0.25
0.235
0.245
0.25
0.19
0.205
0.255
0.21
0.2
0.16
0.11
0.155
0.295
0.255
0.205
0.225
0.175
0.175
0.185
0.225
0.325
0.37
0.44
0.555
0.635
0.67
0.82
1.02
1.1
1.175
1.19
1.18
1.01
0.865
0.67
0.615
0.495
0.43
0.355
0.29
0.19
0.195
0.185
0.16
0.22
0.25
0.215
0.25
0.295
0.25
0.22
0.215
0.255
0.3
0.23
0.18
0.24
0.17
0.135
0.225
0.15
0.18
0.19
0.185
0.23
0.24
0.275
0.22
0.225
0.195
0.215
0.265
0.235
0.235
0.26
0.21
0.19
0.2
0.23
0.205
0.15
0.14
0.22
0.23
0.19
0.155
0.2
0.235
0.165
0.22
0.225
0.19
0.275
0.26
0.17
0.235
0.215
0.14
0.19
0.265
0.21
0.265
0.27
0.2
0.16
0.205
0.19
0.185
0.22
0.225
0.2
0.21
0.205
0.2
0.145
0.18
0.165
0.19
0.245
0.255
0.19
0.21
0.235
0.255
0.285
0.265
0.24
0.225
0.26
0.28
0.25
0.235
0.215
0.255
0.33
0.42
0.38
0.29
0.37
0.345
0.4
0.41
0.395
0.33
0.365
0.435
0.415
0.425
0.45
0.45
0.37
0.47
0.405
0.425
0.485
0.505
0.445
0.49
0.525
0.41
0.425
0.475
0.41
0.4
0.365
0.395
0.45
0.39
0.385
0.39
0.385
0.405
0.38
0.375
0.295
0.245
0.25
0.24
0.2
0.23
0.265
0.25
0.21
0.185
0.185
0.195
0.26
0.23
0.195
0.245
0.185
0.07
0.09
0.165
0.265
0.245
0.17
0.205
0.195
0.275
0.26
0.26
0.185
0.185
0.255
0.185
0.185
0.195
0.17
0.125
0.1
0.14
0.135
0.185
0.26
0.265
0.185
0.14
0.185
0.115
0.055
0.175
0.26
0.205
0.17
0.145
0.19
0.24
0.24
0.24
0.225
0.125
0.11
0.155
0.17
0.15
0.18
0.205
0.255
0.24
0.16
0.095
0.18
0.155
0.235
0.29
0.245
0.23
0.235
0.19
0.185
0.235
0.205
0.175
0.24
0.29
0.24
0.15
0.18
0.175
0.15
0.19
0.2
0.23
0.255
0.16
0.16
0.16
0.145
0.225
0.23
0.235
0.16
0.235
0.2
0.18
0.13
0.16
0.22
0.165
0.21
0.22
0.225
0.18
0.18
0.19
0.245
0.14
0.14
0.2
0.28
0.2
0.2
0.155
0.145
0.25
0.285
0.165
0.19
0.225
0.27
0.27
0.25
0.215
0.26
0.265
0.105
0.14
0.235
0.275
0.275
0.24
0.18
0.22
0.215
0.23
0.22
0.24
0.22
0.16
0.15
0.225
0.185
0.195
0.17
0.19
0.25
0.22
0.195
0.145
0.265
0.235
0.25
0.155
0.19
0.185
0.145
0.235
0.26
0.285
0.37
0.27
0.245
0.27
0.275
0.32
0.255
0.255
0.315
0.255
0.2
0.245
0.255
0.335
0.32
0.37
0.37
0.195
0.22
0.23
0.285
0.34
0.295
0.28
0.295
0.22
0.235
0.255
0.295
0.26
0.255
0.24
0.19
0.22
0.22
0.175
0.16
0.2
0.245
0.205
0.245
0.275
0.13
0.185
0.16
0.155
0.175
0.235
0.21
0.205
0.265
0.285
0.2
0.25
0.225
0.19
0.215
0.19
0.23
0.255
0.25
0.14
0.185
0.165
0.15
0.245
0.24
0.235
0.19
0.14
0.195
0.22
0.265
0.25
0.275
0.25
0.24
0.225
0.205
0.17
0.165
0.21
0.225
0.225
0.22
0.235
0.195
0.11
0.21
0.255
0.35
0.445
0.475
0.59
0.635
0.75
0.885
0.97
1.025
1.035
1.07
0.87
0.695
0.505
0.51
0.425
0.38
0.285
0.24
0.105
0.155
0.145
0.165
0.18
0.215
0.29
0.32
0.265
0.21
0.2
0.265
0.205
0.265
0.26
0.295
0.16
0.215
0.245
0.27
0.31
0.24
0.18
0.205
0.205
0.225
0.21
0.23
0.195
0.175
0.26
0.305
0.23
0.22
0.25
0.225
0.225
0.195
0.28
0.3
0.26
0.235
0.225
0.24
0.255
0.255
0.27
0.3
0.29
0.21
0.315
0.23
0.195
0.24
0.28
0.285
0.27
0.29
0.245
0.24
0.3
0.28
0.175
0.225
0.295
0.265
0.16
0.325
0.33
0.405
0.245
0.175
0.24
0.27
0.37
0.35
0.31
0.29
0.26
0.335
0.35
0.21
0.275
0.4
0.41
0.315
0.285
0.32
0.475
0.39
0.38
0.38
0.355
0.455
0.42
0.365
0.485
0.425
0.495
0.485
0.505
0.525
0.455
0.405
0.445
0.54
0.495
0.445
0.485
0.515
0.58
0.58
0.52
0.51
0.57
0.53
0.54
0.49
0.48
0.625
0.49
0.515
0.525
0.56
0.53
0.53
0.46
0.535
0.515
0.5
0.43
0.42
0.39
0.385
0.425
0.41
0.36
0.405
0.385
0.31
0.31
0.32
0.325
0.35
0.305
0.265
0.265
0.275
0.28
0.265
0.21
0.175
0.265
0.26
0.245
0.215
0.28
0.32
0.255
0.24
0.195
0.215
0.21
0.315
0.24
0.255
0.29
0.32
0.24
0.215
0.25
0.3
0.33
0.3
0.24
0.27
0.16
0.265
0.31
0.215
0.21
0.195
0.225
0.285
0.28
0.19
0.23
0.25
0.255
0.165
0.26
0.235
0.245
0.28
0.3
0.24
0.185
0.24
0.12
0.17
0.235
0.255
0.16
0.215
0.275
0.2
0.215
0.235
0.27
0.225
0.17
0.195
0.18
0.13
0.195
0.315
0.265
0.235
0.16
0.14
0.26
0.29
0.235
0.26
0.3
0.255
0.25
0.195
0.205
0.185
0.245
0.22
0.265
0.105
0.255
0.305
0.265
0.26
0.235
0.145
0.15
0.2
0.225
0.26
0.21
0.2
0.215
0.26
0.285
0.22
0.185
0.145
0.155
0.175
0.24
0.235
0.28
0.215
0.205
0.195
0.195
0.24
0.2
0.175
0.265
0.315
0.305
0.25
0.2
0.235
0.265
0.24
0.25
0.225
0.235
0.2
0.235
0.225
0.19
0.205
0.205
0.22
0.305
0.225
0.135
0.245
0.34
0.305
0.265
0.24
0.25
0.24
0.225
0.26
0.3
0.23
0.225
0.195
0.255
0.315
0.225
0.2
0.24
0.3
0.295
0.345
0.28
0.285
0.39
0.335
0.335
0.28
0.295
0.33
0.315
0.23
0.295
0.38
0.38
0.375
0.315
0.255
0.33
0.36
0.35
0.34
0.32
0.3
0.305
0.285
0.27
0.17
0.225
0.3
0.245
0.245
0.225
0.2
0.275
0.215
0.195
0.24
0.27
0.195
0.255
0.235
0.195
0.285
0.31
0.27
0.225
0.16
0.275
0.235
0.205
0.275
0.19
0.24
0.3
0.26
0.205
0.255
0.26
0.24
0.195
0.14
0.3
0.305
0.26
0.28
0.25
0.205
0.245
0.18
0.255
0.33
0.265
0.255
0.29
0.235
0.235
0.29
0.295
0.265
0.22
0.155
0.14
0.19
0.11
0.185
0.29
0.395
0.48
0.535
0.635
0.67
0.82
0.905
0.915
0.995
1.055
1.175
1.02
0.9
0.765
0.665
0.51
0.405
0.31
0.275
0.27
0.22
0.245
0.175
0.17
0.255
0.205
0.185
0.175
0.265
0.29
0.29
0.31
0.33
0.305
0.28
0.175
0.17
0.215
0.275
0.29
0.295
0.22
0.235
0.225
0.265
0.235
0.24
0.26
0.305
0.195
0.195
0.185
0.165
0.22
0.255
0.24
0.285
0.28
0.215
0.21
0.205
0.165
0.16
0.225
0.26
0.24
0.225
0.245
0.24
0.22
0.28
0.24
0.305
0.32
0.285
0.23
0.3
0.26
0.26
0.26
0.23
0.255
0.27
0.235
0.325
0.275
0.315
0.29
0.22
0.26
0.265
0.22
0.215
0.245
0.3
0.275
0.36
0.355
0.31
0.235
0.24
0.26
0.22
0.275
0.225
0.36
0.365
0.335
0.355
0.335
0.335
0.365
0.36
0.385
0.375
0.375
0.43
0.39
0.415
0.435
0.495
0.365
0.375
0.44
0.445
0.405
0.435
0.515
0.46
0.575
0.55
0.54
0.49
0.42
0.48
0.505
0.49
0.535
0.52
0.545
0.535
0.585
0.51
0.47
0.46
0.415
0.415
0.41
0.35
0.34
0.3
0.305
0.32
0.32
0.34
0.29
0.25
0.28
0.235
0.195
0.17
0.215
0.25
0.195
0.05
0.075
0.13
0.155
0.125
0.18
0.125
0.065
0.04
0.115
0.21
0.18
0.11
0.09
0.085
0.075
0.085
0.08
0.02
0.05
0.055
0.1
0.05
0.02
0.055
0.145
0.11
0.03
0.07
0.11
0.105
0.035
0.085
0.105
0.055
0.055
0.02
-0.025
0.11
0.09
0.13
-0.06
-0.015
0.015
-0.005
0.025
-0.035
0.06
0.105
0.05
-0.005
-0.045
0.02
0.02
0.08
0.05
0.045
-0.035
-0.155
-0.05
0.02
0.03
-0.02
-0.025
0.005
-0.04
0.0
-0.05
-0.125
-0.135
0.055
0.115
0.03
-0.1
-0.055
-0.01
-0.035
-0.025
-0.08
0.04
0.035
-0.09
-0.03
0.015
-0.035
-0.045
0.01
-0.015
-0.04
-0.04
-0.045
0.0
-0.01
-0.115
-0.05
-0.11
-0.05
-0.065
-0.135
-0.085
-0.055
-0.08
-0.08
-0.07
-0.01
-0.06
0.015
-0.065
-0.06
-0.065
-0.18
-0.155
-0.105
-0.075
-0.045
-0.035
-0.1
-0.095
-0.13
-0.1
-0.1
-0.09
-0.14
-0.2
-0.15
-0.02
-0.095
-0.105
-0.095
-0.095
-0.12
-0.23
-0.195
-0.16
-0.085
-0.045
-0.115
-0.145
-0.175
-0.12
-0.13
-0.15
-0.185
-0.145
-0.185
-0.175
-0.19
-0.195
-0.16
-0.2
-0.175
-0.19
-0.23
-0.285
-0.155
-0.12
-0.17
-0.23
-0.215
-0.235
-0.195
-0.18
-0.245
-0.29
-0.155
-0.14
-0.14
-0.13
-0.155
-0.22
-0.29
-0.21
-0.23
-0.265
-0.175
-0.115
-0.25
-0.2
-0.195
-0.165
-0.14
-0.195
-0.19
-0.14
-0.14
-0.18
-0.195
-0.215
-0.275
-0.17
-0.22
-0.235
-0.19
-0.185
-0.195
-0.2
-0.235
-0.24
-0.23
-0.25
-0.275
-0.315
-0.345
-0.255
-0.27
-0.245
-0.29
-0.305
-0.315
-0.26
-0.295
-0.295
-0.295
-0.285
-0.295
-0.285
-0.35
-0.305
-0.265
-0.36
-0.22
-0.215
-0.24
-0.26
-0.3
-0.26
-0.385
-0.365
-0.295
-0.285
-0.245
-0.22
-0.235
-0.29
-0.345
-0.32
-0.33
-0.285
-0.305
-0.325
-0.21
-0.24
-0.335
-0.32
-0.29
-0.235
-0.255
-0.265
-0.245
-0.235
-0.355
-0.33
-0.43
-0.455
-0.265
-0.28
-0.245
-0.2
-0.085
-0.02
-0.005
0.07
0.155
0.34
0.485
0.57
0.605
0.66
0.615
0.55
0.34
0.21
0.08
-0.03
0.01
-0.1
-0.17
-0.215
-0.31
-0.36
-0.285
-0.195
-0.165
-0.29
-0.24
-0.21
-0.245
-0.24
