# TIPE ECG 2021 - ECG-ID Database v1.0.0 par Physionet
# [Numéro de la personne, Période d'échantillonnage, Prénom, Age, Sexe, Date de l'enregistrement]
[34, 0.002, Jenny, 49, F, 24.05.2005]
-0.045
-0.095
-0.135
-0.105
-0.13
-0.09
-0.1
-0.125
-0.115
-0.065
-0.12
-0.09
-0.11
-0.12
-0.105
-0.09
-0.105
-0.1
-0.135
-0.115
-0.105
-0.095
-0.105
-0.095
-0.115
-0.11
-0.11
-0.105
-0.055
-0.035
-0.08
-0.09
-0.105
-0.125
-0.11
-0.06
-0.09
-0.105
-0.065
-0.11
-0.115
-0.135
-0.09
-0.08
-0.13
-0.135
-0.11
-0.025
-0.075
-0.095
-0.085
-0.065
-0.095
-0.115
-0.13
-0.1
-0.08
-0.065
-0.16
-0.115
-0.085
-0.165
-0.085
-0.13
-0.115
-0.09
-0.095
-0.1
-0.08
-0.125
-0.08
-0.12
-0.105
-0.115
-0.105
-0.09
-0.065
-0.1
-0.075
-0.075
-0.09
-0.11
-0.1
-0.085
-0.1
-0.095
-0.035
-0.065
-0.095
-0.1
-0.075
-0.095
-0.06
-0.085
-0.07
0.035
-0.035
-0.035
-0.075
-0.055
0.0
-0.03
0.0
-0.045
-0.14
-0.145
-0.09
-0.115
-0.18
-0.14
-0.115
-0.115
-0.105
-0.055
-0.075
-0.11
-0.12
-0.065
-0.125
-0.16
-0.155
-0.14
-0.095
-0.13
-0.12
-0.13
-0.135
-0.175
-0.2
-0.13
-0.08
-0.105
-0.04
-0.075
-0.095
-0.125
-0.115
-0.075
-0.095
-0.12
-0.055
-0.115
-0.145
-0.16
-0.19
-0.165
-0.095
-0.17
-0.155
-0.205
-0.245
-0.17
-0.085
-0.04
0.04
0.17
0.295
0.38
0.475
0.58
0.68
0.68
0.635
0.535
0.375
0.24
0.135
0.0
-0.06
-0.08
-0.145
-0.155
-0.125
-0.12
-0.125
-0.15
-0.185
-0.065
-0.075
-0.125
-0.11
-0.09
-0.07
-0.13
-0.125
-0.17
-0.06
-0.135
-0.165
-0.16
-0.14
-0.165
-0.155
-0.095
-0.09
-0.1
-0.075
-0.115
-0.14
-0.14
-0.18
-0.14
-0.13
-0.12
-0.135
-0.11
-0.17
-0.145
-0.13
-0.145
-0.12
-0.14
-0.095
-0.145
-0.12
-0.1
-0.15
-0.14
-0.145
-0.11
-0.11
-0.08
-0.125
-0.06
-0.07
-0.185
-0.115
-0.045
-0.09
-0.065
-0.15
-0.125
-0.105
-0.105
-0.105
-0.075
-0.125
-0.15
-0.13
-0.06
-0.09
-0.07
-0.07
-0.105
-0.09
-0.06
-0.06
-0.065
-0.08
-0.09
-0.055
0.0
-0.09
-0.07
-0.07
-0.06
-0.075
-0.04
-0.075
-0.02
0.01
-0.005
0.025
-0.01
0.015
-0.015
0.005
-0.015
-0.015
0.01
-0.015
0.035
0.005
0.05
0.025
0.075
0.01
0.065
-0.02
-0.025
0.03
0.015
0.03
0.03
0.025
0.055
0.02
0.01
0.0
0.025
0.0
0.0
-0.03
0.02
-0.005
-0.03
-0.025
0.01
-0.02
-0.055
-0.065
-0.07
-0.08
-0.075
-0.075
-0.075
-0.075
-0.075
-0.045
-0.05
-0.14
-0.11
-0.085
-0.095
-0.12
-0.125
-0.1
-0.115
-0.11
-0.14
-0.11
-0.095
-0.09
-0.12
-0.1
-0.075
-0.075
-0.155
-0.11
-0.09
-0.135
-0.125
-0.145
-0.18
-0.04
-0.15
-0.07
-0.055
-0.12
-0.075
-0.125
-0.135
-0.15
-0.035
-0.115
-0.09
-0.13
-0.16
-0.11
0.02
-0.13
-0.215
-0.11
-0.165
-0.16
-0.095
-0.065
-0.125
-0.1
-0.105
-0.14
-0.095
-0.04
-0.105
-0.115
-0.105
-0.14
-0.13
-0.09
-0.06
-0.135
-0.09
-0.125
-0.12
-0.085
-0.14
-0.08
-0.085
-0.11
-0.09
-0.085
-0.085
-0.06
-0.075
-0.135
-0.13
-0.085
-0.1
-0.08
-0.105
-0.065
-0.065
-0.065
-0.085
-0.135
-0.165
-0.09
-0.095
-0.11
-0.085
-0.015
-0.125
-0.16
-0.115
-0.075
-0.085
-0.14
-0.135
-0.125
-0.13
-0.125
-0.12
-0.115
-0.13
-0.09
-0.085
-0.085
-0.135
-0.125
-0.095
-0.09
-0.115
-0.08
-0.065
-0.085
-0.125
-0.13
-0.085
-0.075
-0.085
-0.06
-0.1
-0.025
-0.08
-0.095
-0.09
-0.11
-0.115
-0.065
-0.06
-0.035
-0.08
-0.085
-0.1
-0.105
-0.04
-0.03
-0.07
-0.07
-0.075
-0.08
-0.105
-0.13
-0.16
-0.12
-0.065
-0.065
-0.125
-0.145
-0.11
-0.15
-0.105
-0.105
-0.08
-0.095
-0.14
-0.145
-0.135
-0.145
-0.16
-0.1
-0.075
-0.145
-0.12
-0.08
-0.095
-0.115
-0.175
-0.135
-0.145
-0.105
-0.165
-0.165
-0.145
-0.155
-0.14
-0.085
-0.105
-0.17
-0.15
-0.125
-0.15
-0.145
-0.17
-0.225
-0.255
-0.225
-0.175
-0.105
-0.02
0.035
0.16
0.265
0.49
0.565
0.625
0.75
0.78
0.66
0.535
0.495
0.285
0.15
0.1
-0.005
-0.155
-0.145
-0.155
-0.2
-0.14
-0.06
-0.14
-0.15
-0.115
-0.155
-0.12
-0.145
-0.12
-0.135
-0.12
-0.095
-0.15
-0.165
-0.145
-0.17
-0.135
-0.115
-0.135
-0.15
-0.175
-0.16
-0.105
-0.18
-0.14
-0.145
-0.145
-0.145
-0.14
-0.165
-0.14
-0.12
-0.14
-0.125
-0.1
-0.145
-0.135
-0.125
-0.22
-0.2
-0.135
-0.155
-0.11
-0.15
-0.135
-0.165
-0.15
-0.115
-0.17
-0.135
-0.145
-0.12
-0.13
-0.11
-0.125
-0.155
-0.14
-0.165
-0.115
-0.13
-0.1
-0.07
-0.1
-0.135
-0.15
-0.07
-0.1
-0.135
-0.085
-0.12
-0.12
-0.145
-0.11
-0.12
-0.09
-0.1
-0.14
-0.13
-0.08
0.01
-0.07
-0.13
-0.115
-0.09
-0.08
-0.08
-0.05
-0.075
-0.1
-0.09
0.03
-0.025
-0.03
-0.02
0.005
-0.025
-0.025
-0.035
-0.03
-0.02
-0.005
-0.02
-0.01
0.0
-0.015
-0.03
-0.01
0.02
-0.015
0.035
0.035
-0.045
0.03
0.005
-0.01
-0.055
-0.045
-0.04
-0.05
-0.045
-0.035
-0.035
-0.06
-0.005
-0.04
-0.06
-0.02
-0.035
-0.125
-0.095
-0.075
-0.08
-0.1
-0.075
-0.125
-0.115
-0.05
-0.015
-0.065
-0.13
-0.125
-0.13
-0.095
-0.085
-0.14
-0.15
-0.105
-0.16
-0.145
-0.105
-0.11
-0.13
-0.14
-0.11
-0.1
-0.165
-0.175
-0.14
-0.14
-0.095
-0.09
-0.135
-0.14
-0.09
-0.13
-0.165
-0.12
-0.145
-0.16
-0.11
-0.095
-0.11
-0.115
-0.11
-0.135
-0.14
-0.16
-0.135
-0.14
-0.155
-0.155
-0.115
-0.15
-0.13
-0.145
-0.155
-0.105
-0.105
-0.12
-0.115
-0.135
-0.15
-0.12
-0.13
-0.14
-0.13
-0.12
-0.14
-0.14
-0.12
-0.105
-0.09
-0.135
-0.12
-0.1
-0.135
-0.175
-0.14
-0.1
-0.04
-0.135
-0.08
-0.08
-0.125
-0.115
-0.115
-0.185
-0.145
-0.11
-0.105
-0.12
-0.105
-0.11
-0.11
-0.135
-0.115
-0.14
-0.175
-0.12
-0.12
-0.1
-0.095
-0.125
-0.11
-0.125
-0.13
-0.08
-0.11
-0.135
-0.11
-0.12
-0.12
-0.16
-0.12
-0.11
-0.1
-0.095
-0.1
-0.105
-0.085
-0.13
-0.12
-0.1
-0.11
-0.11
-0.085
0.0
-0.09
-0.145
-0.075
-0.065
-0.08
-0.085
-0.095
-0.115
-0.1
-0.08
-0.08
-0.085
-0.05
-0.09
-0.055
-0.09
-0.08
-0.085
-0.105
-0.155
-0.125
-0.13
-0.1
-0.065
-0.095
-0.085
-0.11
-0.185
-0.19
-0.135
-0.16
-0.115
-0.125
-0.12
-0.16
-0.13
-0.125
-0.1
-0.115
-0.12
-0.15
-0.12
-0.12
-0.17
-0.16
-0.155
-0.08
-0.115
-0.105
-0.135
-0.155
-0.13
-0.145
-0.115
-0.15
-0.15
-0.135
-0.135
-0.205
-0.245
-0.265
-0.255
-0.21
-0.13
-0.145
-0.03
0.065
0.205
0.39
0.465
0.565
0.645
0.75
0.755
0.64
0.56
0.39
0.195
0.11
0.04
-0.09
-0.05
-0.11
-0.145
-0.055
-0.1
-0.125
-0.155
-0.135
-0.115
-0.13
-0.16
-0.14
-0.125
-0.16
-0.155
-0.165
-0.18
-0.135
-0.035
-0.15
-0.19
-0.075
-0.145
-0.125
-0.13
-0.165
-0.09
-0.125
-0.165
-0.17
-0.145
-0.15
-0.12
-0.16
-0.19
-0.265
-0.105
-0.115
-0.155
-0.09
-0.165
-0.16
-0.15
-0.145
-0.155
-0.125
-0.145
-0.13
-0.135
-0.175
-0.125
-0.145
-0.145
-0.08
-0.105
-0.145
-0.13
-0.095
-0.15
-0.1
-0.1
-0.115
-0.155
-0.15
-0.105
-0.1
-0.12
-0.135
-0.105
-0.115
-0.135
-0.13
-0.15
-0.09
-0.1
-0.135
-0.06
-0.105
-0.105
-0.085
-0.085
-0.075
-0.1
-0.07
-0.09
-0.09
-0.105
-0.1
-0.06
-0.045
-0.05
-0.05
-0.045
-0.035
-0.055
0.0
0.05
-0.055
-0.02
0.03
-0.01
0.05
-0.015
0.04
0.045
-0.01
0.075
-0.015
0.055
0.07
0.0
-0.01
-0.025
-0.01
0.03
-0.01
-0.01
-0.01
0.055
-0.005
0.01
-0.02
-0.055
-0.05
-0.02
-0.025
0.015
-0.01
-0.03
-0.045
-0.02
-0.03
-0.045
-0.045
-0.105
-0.105
-0.065
-0.09
-0.07
-0.07
-0.08
-0.06
-0.09
-0.085
-0.09
-0.09
-0.095
-0.09
-0.11
-0.115
-0.065
-0.095
-0.11
-0.08
-0.11
-0.07
-0.08
-0.13
-0.12
-0.085
-0.08
-0.09
-0.085
-0.1
-0.12
-0.08
-0.125
-0.1
-0.115
-0.09
-0.1
-0.11
-0.065
-0.045
-0.075
-0.13
-0.145
-0.09
-0.07
-0.09
-0.185
-0.1
-0.02
-0.085
-0.095
-0.14
-0.03
-0.105
-0.125
-0.08
-0.12
-0.165
-0.16
-0.145
-0.065
-0.15
-0.17
-0.12
-0.115
-0.13
-0.14
-0.085
-0.105
-0.145
-0.145
-0.125
-0.075
-0.085
-0.115
-0.075
-0.12
-0.145
-0.105
-0.105
-0.1
-0.14
-0.125
-0.095
-0.085
-0.085
-0.1
-0.075
-0.11
-0.075
-0.115
-0.135
-0.12
-0.105
-0.14
-0.05
-0.09
-0.085
-0.09
-0.055
-0.08
-0.07
-0.03
-0.1
-0.07
-0.08
-0.1
-0.09
-0.07
-0.1
-0.11
-0.085
-0.09
-0.075
-0.065
-0.115
-0.09
-0.02
-0.01
-0.04
-0.125
-0.095
-0.09
-0.055
-0.005
-0.02
-0.025
-0.065
-0.095
-0.03
-0.055
-0.1
-0.055
-0.1
-0.04
-0.05
-0.01
-0.05
-0.055
-0.055
-0.045
-0.01
-0.125
-0.13
-0.085
-0.1
-0.115
-0.11
-0.115
-0.185
-0.13
-0.185
-0.16
-0.125
-0.1
-0.115
-0.135
-0.155
-0.115
-0.15
-0.17
-0.155
-0.15
-0.12
-0.095
-0.125
-0.14
-0.11
-0.18
-0.155
-0.065
-0.165
-0.12
-0.18
-0.145
-0.105
-0.12
-0.15
-0.165
-0.18
-0.17
-0.135
-0.16
-0.175
-0.215
-0.29
-0.3
-0.28
-0.25
-0.255
-0.17
-0.065
0.125
0.27
0.445
0.585
0.805
0.91
0.92
0.95
0.925
0.785
0.65
0.425
0.28
0.12
-0.04
-0.065
-0.045
-0.07
-0.06
-0.115
-0.105
-0.1
-0.07
-0.15
-0.125
-0.155
-0.185
-0.18
-0.105
-0.07
-0.15
-0.19
-0.155
-0.145
-0.19
-0.155
-0.18
-0.16
-0.185
-0.17
-0.165
-0.135
-0.15
-0.155
-0.16
-0.175
-0.175
-0.085
-0.16
-0.135
-0.155
-0.155
-0.165
-0.18
-0.15
-0.15
-0.145
-0.115
-0.125
-0.145
-0.175
-0.14
-0.115
-0.09
-0.165
-0.165
-0.19
-0.15
-0.085
-0.13
-0.125
-0.18
-0.08
-0.035
-0.12
-0.12
-0.125
-0.15
-0.195
-0.14
-0.05
-0.1
-0.125
-0.14
-0.125
-0.125
-0.135
-0.135
-0.085
-0.08
-0.1
-0.095
-0.06
-0.035
-0.115
-0.095
-0.12
-0.05
-0.1
-0.12
-0.1
-0.09
-0.065
-0.1
-0.07
-0.025
-0.035
-0.015
-0.015
-0.03
-0.03
0.045
-0.005
0.005
-0.045
0.025
0.1
0.025
0.015
0.04
0.015
0.04
0.02
0.035
0.025
0.055
0.045
0.02
0.07
0.045
-0.005
0.035
0.095
0.02
0.05
0.055
0.015
-0.015
-0.025
-0.065
0.03
0.07
-0.04
-0.045
-0.005
-0.045
-0.135
-0.12
-0.04
-0.005
-0.125
-0.1
-0.045
-0.055
-0.1
-0.04
-0.15
-0.085
-0.1
-0.12
-0.11
-0.095
-0.055
-0.08
-0.07
-0.075
-0.14
-0.14
-0.115
-0.135
-0.085
-0.1
-0.12
-0.12
-0.1
-0.135
-0.085
-0.11
-0.065
-0.09
-0.07
-0.115
-0.15
-0.09
-0.115
-0.125
-0.15
-0.105
-0.14
-0.14
-0.135
-0.095
-0.11
-0.12
-0.08
-0.075
-0.115
-0.115
-0.08
-0.125
-0.145
-0.065
-0.1
-0.105
-0.075
-0.095
-0.165
-0.135
-0.07
-0.075
-0.07
-0.005
-0.08
-0.015
-0.115
-0.165
-0.05
0.0
-0.035
-0.105
-0.13
-0.1
-0.095
-0.09
-0.09
-0.15
-0.115
-0.11
-0.05
-0.055
-0.075
-0.075
-0.02
-0.085
-0.09
-0.06
-0.085
-0.085
-0.08
-0.09
-0.065
-0.04
-0.065
-0.07
-0.085
-0.08
-0.035
-0.075
-0.1
-0.045
-0.045
-0.025
-0.03
-0.08
-0.07
-0.08
-0.055
-0.055
-0.04
-0.04
-0.05
-0.04
-0.01
-0.015
-0.05
-0.02
-0.01
0.08
0.02
-0.035
-0.055
-0.06
0.02
-0.065
-0.055
-0.015
0.0
-0.025
-0.075
-0.09
-0.09
-0.07
-0.04
-0.085
-0.125
-0.145
-0.145
-0.065
-0.12
-0.1
-0.115
-0.17
-0.16
-0.1
-0.11
-0.115
-0.13
-0.105
-0.065
-0.11
-0.065
-0.1
-0.1
-0.085
-0.11
-0.15
-0.135
-0.08
-0.125
-0.105
-0.095
-0.135
-0.135
-0.13
-0.12
-0.12
-0.14
-0.125
-0.19
-0.2
-0.19
-0.255
-0.285
-0.315
-0.3
-0.22
-0.155
-0.015
0.15
0.37
0.52
0.685
0.825
0.95
1.005
1.015
0.88
0.73
0.56
0.395
0.22
0.09
-0.03
-0.1
-0.095
-0.08
-0.13
-0.08
-0.08
-0.045
-0.09
-0.11
-0.075
-0.06
-0.165
-0.16
-0.17
-0.145
-0.13
-0.125
-0.14
-0.135
-0.105
-0.095
-0.16
-0.21
-0.17
-0.13
-0.17
-0.115
-0.1
-0.135
-0.185
-0.155
-0.15
-0.14
-0.12
-0.125
-0.075
-0.125
-0.135
-0.105
-0.14
-0.12
-0.015
-0.105
-0.135
-0.15
-0.115
-0.125
-0.11
-0.085
-0.09
-0.145
-0.14
-0.125
-0.12
-0.07
-0.09
-0.085
-0.14
-0.115
-0.16
-0.065
-0.12
-0.155
-0.13
-0.105
-0.095
-0.085
-0.115
-0.085
-0.065
-0.08
-0.115
-0.115
-0.1
-0.095
-0.1
-0.065
-0.025
-0.075
-0.065
-0.05
-0.055
-0.085
-0.05
-0.065
-0.04
-0.065
-0.045
0.005
0.005
0.0
-0.04
0.055
0.045
0.035
-0.01
0.03
0.085
0.02
0.05
0.05
0.045
0.04
0.085
0.075
0.04
0.065
0.07
0.09
0.06
0.05
0.035
0.07
0.05
0.055
0.055
0.065
0.055
0.105
0.055
0.055
0.02
0.02
0.055
0.04
0.01
0.025
-0.01
0.015
0.04
0.005
-0.005
-0.015
-0.015
-0.075
-0.045
-0.03
-0.07
-0.06
-0.04
-0.045
-0.05
-0.08
-0.045
-0.07
-0.05
-0.07
-0.05
-0.09
-0.045
-0.05
-0.115
-0.08
-0.06
-0.13
-0.065
-0.05
-0.1
-0.09
-0.045
-0.105
-0.14
-0.08
-0.07
-0.085
-0.075
-0.055
0.03
-0.06
-0.08
-0.095
-0.08
-0.105
-0.105
-0.11
-0.115
-0.115
-0.095
-0.095
-0.075
-0.04
-0.06
-0.12
-0.095
-0.09
-0.055
-0.05
-0.05
-0.1
-0.07
-0.025
-0.045
-0.065
-0.08
-0.09
-0.03
-0.07
-0.08
-0.1
-0.045
-0.03
-0.03
-0.065
-0.075
-0.08
-0.035
-0.055
-0.08
-0.085
-0.095
-0.05
-0.01
-0.035
-0.07
-0.065
-0.045
-0.05
-0.04
-0.05
-0.075
-0.06
-0.045
-0.065
-0.035
-0.035
0.035
0.01
-0.015
-0.04
-0.045
-0.045
-0.035
-0.02
0.01
0.045
-0.01
-0.015
-0.015
0.01
-0.005
-0.015
0.04
0.095
0.03
0.03
0.05
0.095
0.035
-0.01
0.02
-0.005
0.025
0.02
-0.035
-0.025
-0.06
-0.095
-0.025
-0.035
-0.06
-0.04
-0.11
-0.075
-0.02
-0.02
-0.07
-0.03
-0.04
-0.035
-0.07
-0.02
-0.035
-0.04
-0.05
-0.055
-0.035
-0.04
-0.025
-0.055
-0.065
-0.045
-0.05
-0.04
-0.05
-0.03
-0.02
-0.035
-0.055
-0.045
-0.055
-0.08
-0.04
-0.065
-0.035
-0.085
-0.05
-0.155
-0.225
-0.195
-0.19
-0.22
-0.185
-0.015
0.07
0.28
0.5
0.715
0.84
0.885
0.95
1.055
1.04
0.875
0.815
0.54
0.415
0.24
0.175
0.09
0.0
0.0
-0.01
0.025
0.005
0.02
-0.01
0.035
0.015
-0.025
0.0
-0.015
-0.055
-0.04
-0.045
0.005
-0.03
-0.015
0.035
0.0
-0.04
0.0
-0.04
-0.07
-0.075
-0.03
-0.025
-0.03
-0.045
-0.02
-0.045
-0.035
0.035
0.025
0.015
-0.02
-0.025
-0.015
-0.035
-0.005
-0.01
-0.035
0.015
0.02
0.015
-0.015
0.005
-0.005
0.03
0.005
0.045
0.015
0.07
0.01
-0.02
0.035
0.01
0.015
0.025
0.03
0.015
0.02
0.01
0.035
0.015
0.02
0.075
0.04
0.05
0.11
0.025
0.035
0.06
0.055
0.055
0.055
0.05
0.07
0.065
0.095
0.02
0.075
0.125
0.145
0.115
0.09
0.06
0.12
0.16
0.185
0.18
0.195
0.21
0.195
0.175
0.16
0.19
0.18
0.165
0.15
0.16
0.19
0.22
0.2
0.2
0.205
0.215
0.235
0.26
0.24
0.265
0.205
0.18
0.21
0.22
0.21
0.205
0.21
0.225
0.195
0.2
0.19
0.175
0.15
0.185
0.185
0.16
0.155
0.15
0.14
0.12
0.15
0.135
0.12
0.115
0.13
0.135
0.135
0.13
0.12
0.08
0.095
0.145
0.125
0.09
0.055
0.12
0.11
0.175
0.13
0.11
0.165
0.155
0.06
0.09
0.085
0.115
0.095
0.08
0.05
0.09
0.075
0.12
0.13
0.08
0.085
0.095
0.125
0.075
0.12
0.105
0.095
0.105
0.105
0.1
0.095
0.11
0.085
0.075
0.08
0.05
0.075
0.125
0.1
0.1
0.125
0.1
0.065
0.11
0.16
0.145
0.09
0.13
0.12
0.11
0.085
0.105
0.09
0.11
0.095
0.16
0.09
0.075
0.11
0.085
0.115
0.15
0.1
0.11
0.12
0.09
0.08
0.135
0.14
0.085
0.145
0.16
0.17
0.155
0.115
0.08
0.11
0.11
0.135
0.14
0.115
0.06
0.145
0.15
0.11
0.145
0.155
0.13
0.125
0.175
0.165
0.19
0.19
0.145
0.19
0.18
0.105
0.09
0.12
0.125
0.125
0.09
0.09
0.1
0.03
0.0
0.07
0.065
0.075
0.07
0.065
0.01
0.01
0.02
0.075
0.01
-0.005
-0.015
0.025
0.05
0.04
-0.01
-0.015
-0.02
-0.01
-0.015
0.0
0.005
0.01
0.005
0.005
0.0
-0.01
-0.01
0.0
0.005
-0.035
0.025
-0.015
-0.075
-0.045
-0.07
-0.1
-0.185
-0.19
-0.21
-0.14
-0.22
-0.11
0.035
0.12
0.365
0.465
0.64
0.775
0.915
0.985
1.03
0.975
0.825
0.67
0.43
0.315
0.185
0.09
0.015
-0.02
-0.055
-0.06
-0.075
-0.025
-0.065
-0.07
-0.11
-0.125
-0.09
-0.12
-0.11
-0.11
-0.13
-0.1
-0.125
-0.12
-0.17
-0.135
-0.16
-0.145
-0.15
-0.15
-0.21
-0.125
-0.175
-0.17
-0.185
-0.195
-0.195
-0.235
-0.19
-0.175
-0.16
-0.165
-0.195
-0.23
-0.24
-0.25
-0.205
-0.25
-0.21
-0.185
-0.225
-0.175
-0.215
-0.245
-0.255
-0.215
-0.215
-0.25
-0.28
-0.23
-0.25
-0.24
-0.165
-0.155
-0.265
-0.305
-0.265
-0.265
-0.225
-0.285
-0.285
-0.28
-0.295
-0.285
-0.29
-0.275
-0.265
-0.3
-0.32
-0.35
-0.28
-0.285
-0.32
-0.32
-0.32
-0.31
-0.285
-0.335
-0.34
-0.325
-0.33
-0.375
-0.305
-0.305
-0.275
-0.295
-0.265
-0.31
-0.285
-0.235
-0.275
-0.28
-0.32
-0.315
-0.295
-0.285
-0.325
-0.305
-0.31
-0.305
-0.305
-0.315
-0.325
-0.305
-0.315
-0.315
-0.315
-0.345
-0.345
-0.34
-0.345
-0.36
-0.34
-0.4
-0.335
-0.345
-0.395
-0.38
-0.405
-0.42
-0.425
-0.48
-0.48
-0.405
-0.44
-0.46
-0.515
-0.53
-0.52
-0.555
-0.55
-0.58
-0.45
-0.55
-0.535
-0.555
-0.58
-0.605
-0.57
-0.585
-0.61
-0.535
-0.655
-0.675
-0.72
-0.65
-0.645
-0.71
-0.705
-0.66
-0.695
-0.69
-0.71
-0.715
-0.705
-0.715
-0.72
-0.73
-0.705
-0.705
-0.705
-0.74
-0.765
-0.745
-0.755
-0.755
-0.77
-0.775
-0.775
-0.805
-0.785
-0.815
-0.825
-0.82
-0.74
-0.76
-0.805
-0.825
-0.8
-0.855
-0.84
-0.82
-0.865
-0.865
-0.825
-0.85
-0.84
-0.845
-0.865
-0.865
-0.865
-0.86
-0.855
-0.87
-0.845
-0.89
-0.96
-0.915
-0.885
-0.885
-0.815
-0.975
-0.965
-0.935
-0.955
-0.875
-0.9
-0.96
-0.955
-1.0
-0.98
-0.93
-1.06
-1.01
-0.94
-0.885
-0.955
-1.005
-0.965
-0.97
-0.96
-1.015
-1.01
-0.965
-0.985
-1.0
-1.01
-0.945
-1.025
-1.02
-0.985
-1.025
-1.02
-1.015
-1.025
-1.045
-1.055
-1.05
-1.09
-1.085
-1.095
-1.105
-1.155
-1.14
-1.12
-1.11
-1.11
-1.16
-1.13
-1.16
-1.115
-1.175
-1.215
-1.185
-1.185
-1.24
-1.22
-1.215
-1.14
-1.155
-1.16
-1.215
-1.265
-1.22
-1.27
-1.26
-1.27
-1.3
-1.185
-1.235
-1.26
-1.225
-1.3
-1.31
-1.285
-1.295
-1.32
-1.325
-1.315
-1.405
-1.47
-1.47
-1.46
-1.47
-1.445
-1.37
-1.3
-1.17
-1.06
-0.875
-0.715
-0.62
-0.54
-0.415
-0.355
-0.435
-0.545
-0.705
-0.895
-1.1
-1.205
-1.205
-1.36
-1.375
-1.395
-1.41
-1.43
-1.425
-1.45
-1.455
-1.42
-1.41
-1.475
-1.495
-1.49
-1.495
-1.48
-1.475
-1.525
-1.51
-1.525
-1.515
-1.525
-1.495
-1.535
-1.505
-1.525
-1.51
-1.535
-1.535
-1.555
-1.585
-1.585
-1.57
-1.595
-1.605
-1.62
-1.565
-1.53
-1.55
-1.575
-1.62
-1.605
-1.57
-1.605
-1.655
-1.645
-1.575
-1.605
-1.645
-1.635
-1.675
-1.585
-1.63
-1.65
-1.59
-1.625
-1.615
-1.66
-1.68
-1.695
-1.59
-1.675
-1.65
-1.635
-1.68
-1.68
-1.72
-1.71
-1.675
-1.685
-1.675
-1.65
-1.685
-1.725
-1.67
-1.685
-1.7
-1.71
-1.69
-1.68
-1.665
-1.7
-1.69
-1.665
-1.685
-1.695
-1.665
-1.67
-1.66
-1.73
-1.69
-1.675
-1.67
-1.66
-1.67
-1.67
-1.665
-1.685
-1.705
-1.67
-1.685
-1.675
-1.625
-1.65
-1.67
-1.695
-1.735
-1.66
-1.655
-1.645
-1.67
-1.67
-1.685
-1.7
-1.725
-1.715
-1.65
-1.635
-1.7
-1.79
-1.72
-1.69
-1.7
-1.735
-1.735
-1.755
-1.745
-1.73
-1.785
-1.75
-1.795
-1.77
-1.825
-1.865
-1.83
-1.8
-1.885
-1.88
-1.875
-1.815
-1.825
-1.86
-1.895
-1.83
-1.87
-1.885
-1.9
-1.915
-1.905
-1.9
-1.935
-1.915
-1.885
-1.92
-1.89
-1.9
-1.94
-1.91
-1.925
-1.935
-1.905
-1.96
-1.91
-1.905
-1.93
-1.92
-1.92
-1.94
-1.93
-1.95
-1.94
-1.91
-1.95
-1.95
-1.935
-1.935
-1.97
-1.94
-1.99
-1.99
-1.9
-1.93
-1.955
-1.96
-1.975
-1.965
-1.97
-1.955
-1.965
-2.0
-1.965
-1.945
-1.965
-1.965
-1.94
-1.965
-1.96
-1.985
-2.05
-2.025
-1.935
-1.955
-1.995
-2.025
-2.035
-2.015
-2.01
-1.98
-2.01
-1.985
-1.945
-1.975
-2.0
-1.99
-1.98
-2.005
-2.02
-1.975
-1.955
-2.065
-2.03
-1.97
-1.94
-1.98
-2.0
-2.02
-2.02
-2.02
-2.015
-2.015
-2.005
-2.01
-1.97
-1.975
-2.0
-1.995
-1.99
-1.99
-1.965
-1.965
-1.995
-1.97
-1.985
-2.0
-1.995
-1.995
-2.015
-2.045
-2.055
-2.045
-2.055
-2.06
-2.045
-2.055
-2.075
-2.135
-2.04
-2.07
-2.08
-2.115
-2.045
-2.06
-2.08
-2.045
-2.095
-2.15
-2.055
-2.055
-2.035
-2.08
-2.095
-2.125
-2.13
-2.105
-2.13
-2.09
-2.07
-2.085
-2.125
-2.12
-2.075
-2.095
-2.12
-2.12
-2.1
-2.105
-2.125
-2.15
-2.235
-2.24
-2.245
-2.305
-2.245
-2.16
-2.065
-2.015
-1.89
-1.725
-1.585
-1.465
-1.365
-1.26
-1.26
-1.31
-1.41
-1.535
-1.765
-1.87
-1.985
-1.99
-2.09
-2.14
-2.15
-2.125
-2.12
-2.13
-2.13
-2.14
-2.15
-2.165
-2.13
-2.16
-2.155
-2.18
-2.18
-2.175
-2.165
-2.19
-2.205
-2.18
-2.145
-2.095
-2.165
-2.15
-2.15
-2.21
-2.195
-2.23
-2.175
-2.17
-2.13
-2.145
-2.185
-2.185
-2.15
-2.125
-2.085
-2.22
-2.25
-2.225
-2.17
-2.155
-2.17
-2.17
-2.175
-2.175
-2.2
-2.185
-2.19
-2.16
-2.135
-2.155
-2.17
-2.2
-2.195
-2.165
-2.165
-2.17
-2.21
-2.2
-2.18
-2.17
-2.195
-2.18
-2.185
-2.185
-2.2
-2.18
-2.195
-2.18
-2.165
-2.16
-2.17
-2.15
-2.165
-2.17
-2.155
-2.155
-2.16
-2.135
-2.14
-2.17
-2.16
-2.155
-2.15
-2.095
-2.14
-2.13
-2.08
-2.065
-2.15
-2.155
-2.055
-2.06
-2.035
-2.07
-2.07
-2.035
-2.105
-2.01
-2.035
-2.01
-2.025
-2.06
-2.045
-2.06
-2.125
-2.08
-2.07
-2.095
-2.075
-2.015
-2.09
-2.05
-2.025
-2.07
-2.07
-2.035
-2.08
-2.035
-2.085
-2.115
-2.085
-2.135
-2.1
-2.075
-2.085
-2.075
-2.1
-2.115
-2.085
-2.095
-2.13
-2.155
-2.165
-2.155
-2.165
-2.16
-2.15
-2.145
-2.135
-2.13
-2.175
-2.175
-2.18
-2.16
-2.125
-2.175
-2.165
-2.145
-2.11
-2.19
-2.15
-2.135
-2.17
-2.205
-2.195
-2.195
-2.19
-2.15
-2.175
-2.2
-2.1
-2.135
-2.175
-2.165
-2.17
-2.16
-2.185
-2.145
-2.185
-2.16
-2.13
-2.175
-2.205
-2.17
-2.18
-2.195
-2.265
-2.125
-2.095
-2.13
-2.125
-2.155
-2.165
-2.135
-2.14
-2.165
-2.19
-2.105
-2.12
-2.19
-2.165
-2.155
-2.17
-2.11
-2.065
-2.15
-2.115
-2.14
-2.17
-2.21
-2.16
-2.125
-2.125
-2.13
-2.145
-2.19
-2.155
-2.15
-2.18
-2.155
-2.15
-2.115
-2.13
-2.13
-2.135
-2.13
-2.11
-2.09
-2.12
-2.13
-2.11
-2.11
-2.135
-2.15
-2.13
-2.145
-2.08
-2.065
-2.125
-2.11
-2.065
-2.07
-2.05
-2.06
-2.06
-2.09
-2.035
-2.025
-2.07
-2.0
-2.045
-2.04
-2.09
-2.085
-2.0
-2.095
-2.11
-2.085
-2.12
-2.1
-2.085
-2.13
-2.11
-2.145
-2.16
-2.15
-2.09
-2.105
-2.125
-2.09
-2.125
-2.135
-2.13
-2.125
-2.14
-2.13
-2.1
-2.08
-2.105
-2.085
-2.105
-2.12
-2.125
-2.145
-2.12
-2.1
-2.165
-2.07
-2.09
-2.125
-2.075
-2.13
-2.085
-2.06
-2.07
-2.15
-2.08
-2.14
-2.155
-2.23
-2.25
-2.25
-2.18
-2.115
-2.025
-1.875
-1.715
-1.565
-1.44
-1.37
-1.23
-1.195
-1.235
-1.345
-1.485
-1.625
-1.735
-1.855
-1.915
-1.985
-2.06
-2.05
-2.055
-2.08
-2.08
-2.045
-2.055
-2.095
-2.075
-2.075
-2.055
-2.065
-2.12
-2.085
-2.095
-2.09
-2.025
-2.105
-2.135
-2.11
-2.08
-2.07
-2.12
-2.07
-2.04
-2.06
-2.105
-2.11
-2.02
-2.03
-2.04
-2.08
-2.085
-2.045
-2.05
-2.035
-2.035
-2.03
-2.065
-2.07
-2.1
-2.0
-2.01
-2.09
-2.075
-2.04
-2.035
-2.04
-2.005
-2.015
-2.065
-2.075
-2.07
-2.065
-2.045
-2.025
-2.025
-2.015
-1.995
-2.025
-2.03
-2.01
-2.03
-2.0
-2.025
-1.99
-2.005
-1.995
-1.955
-2.0
-2.015
-1.99
-2.0
-2.0
-2.025
-1.97
-1.98
-2.0
-1.93
-1.89
-1.92
-1.94
-1.995
-1.905
-1.925
-1.88
-1.925
-1.9
-1.88
-1.87
-1.91
-1.89
-1.885
-1.895
-1.865
-1.845
-1.865
-1.86
-1.865
-1.845
-1.87
-1.84
-1.865
-1.865
-1.845
-1.8
-1.845
-1.825
-1.775
-1.81
-1.825
-1.84
-1.8
-1.835
-1.805
-1.805
-1.84
-1.845
-1.815
-1.84
-1.85
-1.86
-1.84
-1.795
-1.855
-1.835
-1.86
-1.835
-1.86
-1.87
-1.895
-1.865
-1.85
-1.86
-1.86
-1.87
-1.87
-1.84
-1.88
-1.88
-1.905
-1.895
-1.845
-1.89
-1.895
-1.885
-1.93
-1.87
-1.89
-1.9
-1.92
-1.85
-1.89
-1.905
-1.9
-1.9
-1.85
-1.93
-1.815
-1.845
-1.88
-1.85
-1.9
-1.905
-1.85
-1.86
-1.875
-1.855
-1.895
-1.87
-1.825
-1.835
-1.875
-1.925
-1.895
-1.855
-1.865
-1.895
-1.85
-1.855
-1.85
-1.875
-1.86
-1.865
-1.83
-1.825
-1.83
-1.875
-1.84
-1.86
-1.855
-1.86
-1.865
-1.79
-1.83
-1.835
-1.845
-1.82
-1.805
-1.82
-1.805
-1.79
-1.825
-1.81
-1.805
-1.835
-1.81
-1.805
-1.805
-1.815
-1.79
-1.835
-1.825
-1.805
-1.73
-1.78
-1.715
-1.77
-1.79
-1.78
-1.78
-1.78
-1.775
-1.79
-1.755
-1.75
-1.77
-1.74
-1.795
-1.755
-1.755
-1.7
-1.765
-1.74
-1.73
-1.645
-1.725
-1.675
-1.69
-1.69
-1.705
-1.75
-1.735
-1.73
-1.64
-1.65
-1.675
-1.68
-1.66
-1.725
-1.725
-1.735
-1.785
-1.725
-1.68
-1.76
-1.745
-1.705
-1.715
-1.73
-1.76
-1.655
-1.745
-1.755
-1.675
-1.71
-1.75
-1.705
-1.71
-1.725
-1.74
-1.78
-1.695
-1.705
-1.71
-1.715
-1.71
-1.715
-1.72
-1.71
-1.67
-1.73
-1.675
-1.695
-1.71
-1.66
-1.67
-1.67
-1.745
-1.72
-1.705
-1.8
-1.83
-1.81
-1.82
-1.76
-1.7
-1.565
-1.44
-1.34
-1.175
-1.08
-0.975
-0.82
-0.72
-0.8
-0.86
-1.0
-1.195
-1.335
-1.48
-1.48
-1.61
-1.625
-1.605
-1.605
-1.545
-1.62
-1.645
-1.65
-1.595
-1.605
-1.685
-1.66
-1.64
-1.685
-1.695
-1.6
-1.63
-1.645
-1.615
-1.63
-1.64
-1.615
-1.605
-1.625
-1.665
-1.7
-1.67
-1.64
-1.68
-1.61
-1.56
-1.61
-1.61
-1.605
-1.63
-1.63
-1.64
-1.65
-1.605
-1.6
-1.645
-1.625
-1.565
-1.605
-1.605
-1.665
-1.625
-1.625
-1.64
-1.595
-1.595
-1.595
-1.585
-1.57
-1.595
-1.6
-1.585
-1.6
-1.58
-1.595
-1.57
-1.565
-1.57
-1.58
-1.565
-1.585
-1.61
-1.575
-1.525
-1.54
-1.545
-1.525
-1.535
-1.5
-1.515
-1.54
-1.58
-1.535
-1.525
-1.51
-1.475
-1.515
-1.475
-1.35
-1.455
-1.45
-1.49
-1.465
-1.465
-1.48
-1.44
-1.46
-1.46
-1.445
-1.425
-1.435
-1.435
-1.405
-1.4
-1.41
-1.38
-1.375
-1.38
-1.35
-1.31
-1.36
-1.41
-1.395
-1.375
-1.395
-1.335
-1.35
-1.355
-1.34
-1.37
-1.36
-1.375
-1.39
-1.38
-1.295
-1.32
-1.35
-1.395
-1.375
-1.39
-1.415
-1.435
-1.41
-1.42
-1.405
-1.415
-1.38
-1.35
-1.37
-1.42
-1.425
-1.435
-1.43
-1.435
-1.445
-1.41
-1.425
-1.42
-1.43
-1.41
-1.425
-1.425
-1.435
-1.415
-1.425
-1.375
-1.38
-1.45
-1.425
-1.415
-1.425
-1.405
-1.42
-1.435
-1.375
-1.365
-1.32
-1.39
-1.405
-1.41
-1.38
-1.415
-1.485
-1.365
-1.375
-1.37
-1.415
-1.42
-1.43
-1.335
-1.385
-1.405
-1.395
-1.325
-1.36
-1.38
-1.375
-1.38
-1.305
-1.375
-1.35
-1.345
-1.35
-1.375
-1.37
-1.36
-1.36
-1.34
-1.345
-1.35
-1.305
-1.35
-1.38
-1.355
-1.325
-1.255
-1.305
-1.36
-1.335
-1.34
-1.285
-1.365
-1.36
-1.36
-1.34
-1.285
-1.3
-1.32
-1.305
-1.28
-1.325
-1.3
-1.265
-1.295
-1.31
-1.295
-1.28
-1.295
-1.3
-1.265
-1.325
-1.285
-1.22
-1.225
-1.29
-1.3
-1.235
-1.27
-1.195
-1.26
-1.22
-1.28
-1.245
-1.22
-1.24
-1.295
-1.2
-1.135
-1.175
-1.26
-1.225
-1.225
-1.2
-1.215
-1.195
-1.165
-1.25
-1.205
-1.2
-1.2
-1.245
-1.225
-1.22
-1.27
-1.265
-1.265
-1.245
-1.225
-1.24
-1.235
-1.29
-1.23
-1.23
-1.27
-1.26
-1.23
-1.215
-1.25
-1.245
-1.235
-1.27
-1.245
-1.215
-1.22
-1.245
-1.24
-1.21
-1.205
-1.22
-1.22
-1.215
-1.19
-1.205
-1.175
-1.24
-1.21
-1.21
-1.23
-1.22
-1.24
-1.27
-1.25
-1.265
-1.295
-1.25
-1.27
-1.305
-1.255
-1.135
-0.955
-0.885
-0.755
-0.6
-0.56
-0.4
-0.29
-0.3
-0.39
-0.505
-0.685
-0.85
-0.87
-0.95
-1.05
-1.14
-1.165
-1.14
-1.13
-1.16
-1.2
-1.155
-1.13
-1.155
-1.17
-1.145
-1.155
-1.195
-1.19
-1.17
-1.225
-1.165
-1.185
-1.185
-1.13
-1.155
-1.155
-1.115
-1.17
-1.165
-1.175
-1.15
-1.15
-1.17
-1.18
-1.14
-1.14
-1.135
-1.18
-1.155
-1.175
-1.055
-1.125
-1.18
-1.095
-1.1
-1.105
-1.16
-1.125
-1.12
-1.13
-1.1
-1.095
-1.13
-1.15
-1.11
-1.075
-1.075
-1.045
-1.095
-1.16
-1.09
-1.055
-1.04
-1.06
-1.055
-1.045
-1.055
-1.04
-1.055
-1.095
-1.1
-1.105
-1.03
-1.075
-1.04
-1.08
-1.09
-1.11
-1.065
-1.0
-1.025
-1.015
-1.03
-1.025
-0.975
-0.99
-0.995
-1.015
-1.02
-1.045
-1.025
-0.965
-1.03
-0.945
-0.925
-0.935
-0.97
-0.965
-0.925
-0.925
-0.925
-0.92
-0.89
-0.925
-0.95
-0.885
-0.905
-0.885
-0.91
-0.905
-0.835
-0.905
-0.93
-0.89
-0.86
-0.87
-0.875
-0.86
-0.88
-0.89
-0.885
-0.86
-0.9
-0.89
-0.88
-0.87
-0.905
-0.895
-0.91
-0.9
-0.86
-0.9
-0.975
-0.985
-0.835
-0.87
-0.89
-0.87
-0.965
-0.97
-0.935
-0.89
-0.98
-0.89
-0.955
-0.98
-0.955
-0.955
-0.94
-0.915
-0.93
-0.925
-0.975
-0.945
-0.94
-0.93
-0.955
-0.965
-0.95
-0.935
-0.945
-0.92
-0.995
-0.94
-0.915
-0.965
-0.965
-0.975
-0.835
-0.925
-0.955
-0.915
-0.95
-0.935
-0.9
-0.93
-0.925
-0.925
-0.91
-0.92
-0.925
-0.93
-0.95
-0.92
-0.895
-0.9
-0.935
-0.91
-0.875
-0.88
-0.9
-0.915
-0.93
-0.885
-0.845
-0.89
-0.87
-0.865
-0.85
-0.865
-0.875
-0.895
-0.855
-0.88
-0.94
-0.88
-0.885
-0.865
-0.89
-0.94
-0.79
-0.84
-0.905
-0.81
-0.83
-0.87
-0.86
-0.875
-0.865
-0.85
-0.845
-0.84
-0.87
-0.845
-0.865
-0.895
-0.89
-0.835
-0.835
-0.815
-0.775
-0.785
-0.86
-0.83
-0.845
-0.825
-0.815
-0.82
-0.835
-0.855
-0.825
-0.845
-0.835
-0.815
-0.855
-0.855
-0.785
-0.795
-0.815
-0.775
-0.8
-0.825
-0.8
-0.785
-0.78
-0.745
-0.79
-0.79
-0.8
-0.78
-0.76
-0.775
-0.71
-0.745
-0.73
-0.765
-0.73
-0.765
-0.77
-0.765
-0.79
-0.845
-0.82
-0.815
-0.79
-0.74
-0.75
-0.79
-0.75
-0.805
-0.79
-0.785
-0.765
-0.805
-0.815
-0.795
-0.76
-0.785
-0.775
-0.79
-0.795
-0.79
-0.77
-0.775
-0.79
-0.79
-0.775
-0.79
-0.815
-0.84
-0.79
-0.765
-0.75
-0.775
-0.81
-0.79
-0.75
-0.74
-0.75
-0.755
-0.845
-0.865
-0.875
-0.895
-0.895
-0.885
-0.83
-0.775
-0.665
-0.485
-0.38
-0.27
-0.15
0.0
0.13
0.17
0.14
0.005
-0.1
-0.29
-0.425
-0.54
-0.61
-0.685
-0.71
-0.72
-0.73
-0.725
-0.73
-0.75
-0.695
-0.715
-0.67
-0.705
-0.755
-0.74
-0.755
-0.73
-0.74
-0.755
-0.735
-0.73
-0.745
-0.78
-0.68
-0.65
-0.715
-0.71
-0.64
-0.655
-0.775
-0.825
-0.765
-0.74
-0.785
-0.74
-0.74
-0.73
-0.735
-0.725
-0.75
-0.72
-0.73
-0.715
-0.72
-0.735
-0.735
-0.665
-0.685
-0.72
-0.66
-0.685
-0.71
-0.71
-0.705
-0.68
-0.68
-0.72
-0.695
-0.675
-0.685
-0.695
-0.69
-0.695
-0.705
-0.695
-0.67
-0.675
-0.655
-0.67
-0.71
-0.685
-0.65
-0.635
-0.61
-0.695
-0.69
-0.64
-0.655
-0.625
-0.565
-0.595
-0.67
-0.625
-0.615
-0.64
-0.655
-0.655
-0.57
-0.57
-0.655
-0.64
-0.535
-0.6
-0.555
-0.505
-0.595
-0.555
-0.515
-0.535
-0.55
-0.545
-0.53
-0.535
-0.515
-0.51
-0.53
-0.495
-0.525
-0.51
-0.54
-0.51
-0.465
-0.445
-0.53
-0.51
-0.505
-0.49
-0.525
-0.51
-0.48
-0.51
-0.525
-0.525
-0.525
-0.485
-0.56
-0.57
-0.55
-0.54
-0.555
-0.545
-0.525
-0.565
-0.565
-0.55
-0.585
-0.58
-0.595
-0.605
-0.52
-0.55
-0.545
-0.575
-0.555
-0.57
-0.575
-0.565
-0.595
-0.585
-0.59
-0.555
-0.585
-0.605
-0.59
-0.6
-0.54
-0.545
-0.61
-0.615
-0.61
-0.58
-0.605
-0.595
-0.55
-0.55
-0.575
-0.605
-0.62
-0.585
-0.565
-0.54
-0.545
-0.58
-0.58
-0.595
-0.6
-0.6
-0.555
-0.6
-0.555
-0.57
-0.575
-0.585
-0.6
-0.595
-0.55
-0.57
-0.55
-0.495
-0.525
-0.54
-0.545
-0.545
-0.525
-0.575
-0.55
-0.475
-0.535
-0.575
-0.485
-0.495
-0.56
-0.52
-0.515
-0.54
-0.54
-0.525
-0.53
-0.55
-0.55
-0.465
-0.52
-0.535
-0.52
-0.535
-0.55
-0.485
-0.495
-0.515
-0.525
-0.515
-0.55
-0.455
-0.48
-0.535
-0.505
-0.52
-0.51
-0.465
-0.525
-0.51
-0.425
-0.505
-0.51
-0.475
-0.54
-0.52
-0.515
-0.525
-0.47
-0.515
-0.465
-0.525
-0.53
-0.51
-0.455
-0.48
-0.45
-0.475
-0.465
-0.49
-0.485
-0.485
-0.47
-0.48
-0.495
-0.47
-0.49
-0.485
-0.445
-0.44
-0.45
-0.445
-0.44
-0.445
-0.445
-0.435
-0.435
-0.425
-0.41
-0.48
-0.32
-0.385
-0.335
-0.385
-0.525
-0.47
-0.46
-0.435
-0.47
-0.485
-0.51
-0.425
-0.445
-0.49
-0.45
-0.485
-0.455
-0.475
-0.465
-0.455
-0.455
-0.47
-0.465
-0.495
-0.47
-0.455
-0.46
-0.465
-0.495
-0.48
-0.43
-0.45
-0.415
-0.51
-0.52
-0.385
-0.43
-0.495
-0.5
-0.385
-0.425
-0.465
-0.475
-0.515
-0.48
-0.485
-0.505
-0.515
-0.55
-0.525
-0.555
-0.56
-0.5
-0.44
-0.315
-0.185
-0.06
0.06
0.205
0.3
0.38
0.44
0.465
0.28
0.215
0.04
-0.145
-0.23
-0.305
-0.385
-0.42
-0.405
-0.4
-0.42
-0.39
-0.395
-0.375
-0.41
-0.445
-0.465
-0.415
-0.335
-0.435
-0.395
-0.435
-0.475
-0.45
-0.38
-0.44
-0.475
-0.395
-0.41
-0.41
-0.465
-0.45
-0.475
-0.45
-0.46
-0.515
-0.44
-0.36
-0.435
-0.43
-0.425
-0.405
-0.425
-0.475
-0.41
-0.445
-0.395
-0.41
-0.41
-0.42
-0.42
-0.395
-0.395
-0.415
-0.415
-0.39
-0.43
-0.395
-0.425
-0.425
-0.37
-0.41
-0.415
-0.415
-0.39
-0.395
-0.38
-0.39
-0.4
-0.405
-0.365
-0.385
-0.355
-0.4
-0.4
-0.38
-0.36
-0.365
-0.35
-0.385
-0.375
-0.355
-0.325
-0.385
-0.3
-0.29
-0.335
-0.325
-0.34
-0.345
-0.36
-0.31
-0.36
-0.375
-0.29
-0.285
-0.275
-0.275
-0.18
-0.31
-0.295
-0.275
-0.29
-0.29
-0.275
-0.245
-0.24
-0.13
-0.235
-0.305
-0.295
-0.255
-0.28
-0.29
-0.345
-0.215
-0.165
-0.165
-0.215
-0.195
-0.18
-0.255
-0.265
-0.24
-0.245
-0.245
-0.26
-0.245
-0.275
-0.255
-0.21
-0.255
-0.29
-0.285
-0.265
-0.275
-0.27
-0.295
-0.285
-0.3
-0.3
-0.31
-0.295
-0.31
-0.295
-0.28
-0.32
-0.33
-0.325
-0.345
-0.32
-0.285
-0.265
-0.28
-0.345
-0.36
-0.305
-0.345
-0.275
-0.38
-0.35
-0.325
-0.35
-0.35
-0.3
-0.24
-0.285
-0.31
-0.255
-0.31
-0.37
-0.385
-0.325
-0.28
-0.285
-0.325
-0.31
-0.32
-0.3
-0.34
-0.34
-0.31
-0.35
-0.33
-0.295
-0.315
-0.315
-0.235
-0.295
-0.325
-0.31
-0.34
-0.335
-0.335
-0.27
-0.315
-0.325
-0.325
-0.32
-0.315
-0.32
-0.29
-0.315
-0.3
-0.295
-0.295
-0.29
-0.285
-0.305
-0.305
-0.295
-0.27
-0.295
-0.29
-0.25
-0.225
-0.285
-0.295
-0.29
-0.235
-0.205
-0.28
-0.245
-0.26
-0.255
-0.29
-0.235
-0.175
-0.275
-0.35
-0.255
-0.3
-0.235
-0.225
-0.27
-0.255
-0.275
-0.225
-0.305
-0.32
-0.295
-0.27
-0.29
-0.28
-0.28
-0.255
-0.29
-0.315
-0.345
-0.33
-0.195
-0.27
-0.29
-0.255
-0.215
-0.245
-0.17
-0.185
-0.265
-0.255
-0.275
-0.28
-0.26
-0.24
-0.235
-0.24
-0.21
-0.24
-0.25
-0.245
-0.25
-0.235
-0.225
-0.19
-0.24
-0.19
-0.245
-0.225
-0.26
-0.235
-0.215
-0.22
-0.2
-0.24
-0.225
-0.255
-0.22
-0.235
-0.27
-0.28
-0.26
-0.29
-0.28
-0.265
-0.23
-0.265
-0.255
-0.255
-0.265
-0.235
-0.265
-0.26
-0.28
-0.315
-0.315
-0.295
-0.255
-0.215
-0.195
-0.17
-0.255
-0.295
-0.27
-0.22
-0.26
-0.255
-0.225
-0.25
-0.295
-0.26
-0.25
-0.275
-0.275
-0.275
-0.245
-0.29
-0.325
-0.355
-0.38
-0.4
-0.33
-0.24
-0.215
-0.05
0.075
0.16
0.29
0.385
0.5
0.605
0.605
0.52
0.425
0.245
0.16
0.015
-0.135
-0.1
-0.2
-0.32
-0.235
-0.215
-0.22
-0.21
-0.22
-0.23
-0.215
-0.25
-0.265
-0.25
-0.235
-0.285
-0.24
-0.24
-0.245
-0.255
-0.23
-0.285
-0.255
-0.25
-0.265
-0.25
-0.23
-0.175
-0.27
-0.175
-0.195
-0.27
-0.24
-0.245
-0.225
-0.21
-0.225
-0.24
-0.23
-0.295
-0.26
-0.25
-0.19
-0.24
-0.25
-0.235
-0.2
-0.195
-0.19
-0.23
-0.25
-0.19
-0.27
-0.255
-0.195
-0.2
-0.225
-0.235
-0.14
-0.155
-0.18
-0.2
-0.23
-0.23
-0.22
-0.215
-0.19
-0.2
-0.195
-0.17
-0.185
-0.21
-0.18
-0.145
-0.19
-0.165
-0.235
-0.135
-0.16
-0.185
-0.145
-0.15
-0.165
-0.16
-0.155
-0.16
-0.115
-0.11
-0.155
-0.14
-0.115
-0.11
-0.095
-0.1
-0.105
-0.09
-0.075
-0.025
-0.08
-0.065
-0.065
-0.045
0.015
-0.04
-0.055
-0.07
-0.045
-0.055
-0.06
-0.05
-0.095
-0.05
-0.07
-0.09
-0.075
-0.02
0.04
-0.06
-0.055
-0.05
-0.075
-0.08
-0.1
-0.02
-0.025
-0.065
-0.035
-0.08
-0.095
-0.095
-0.12
-0.08
-0.07
-0.095
-0.12
-0.105
-0.105
-0.135
-0.165
-0.17
-0.155
-0.165
-0.175
-0.17
-0.115
-0.15
-0.16
-0.13
-0.16
-0.135
-0.16
-0.18
-0.165
-0.175
-0.175
-0.135
-0.15
-0.12
-0.15
-0.19
-0.15
-0.195
-0.215
-0.155
-0.16
-0.125
-0.115
-0.14
-0.14
-0.155
-0.16
-0.16
-0.18
-0.17
-0.17
-0.155
-0.14
-0.115
-0.155
-0.17
-0.165
-0.145
-0.155
-0.19
-0.135
-0.125
-0.13
-0.12
-0.15
-0.17
-0.16
-0.135
-0.2
-0.15
-0.155
-0.14
-0.12
-0.135
-0.105
-0.135
-0.145
-0.175
-0.155
-0.16
-0.12
-0.15
-0.11
-0.055
-0.18
-0.115
-0.105
-0.1
-0.09
-0.095
-0.125
-0.13
-0.125
-0.13
-0.1
-0.075
-0.165
-0.155
-0.14
-0.065
-0.115
-0.105
-0.14
-0.11
-0.085
-0.16
-0.15
-0.12
-0.13
-0.14
-0.11
-0.115
-0.125
-0.12
-0.15
-0.115
-0.13
-0.13
-0.12
-0.12
-0.135
-0.085
-0.1
-0.11
-0.1
-0.115
-0.14
-0.15
-0.1
-0.07
-0.105
-0.075
-0.09
-0.075
-0.08
-0.08
-0.085
-0.09
-0.06
-0.1
-0.06
-0.015
-0.025
-0.13
-0.055
-0.09
-0.13
-0.05
0.045
-0.02
-0.075
-0.075
-0.13
-0.12
-0.125
-0.155
-0.17
-0.165
-0.095
-0.075
-0.095
-0.155
-0.13
-0.12
-0.1
-0.15
-0.13
-0.11
-0.06
-0.145
-0.11
-0.125
-0.08
-0.13
-0.115
-0.13
-0.16
-0.16
-0.09
-0.12
-0.17
-0.02
-0.125
-0.155
-0.155
-0.135
-0.125
-0.145
-0.14
-0.13
-0.13
-0.14
-0.13
-0.155
-0.195
-0.22
-0.23
-0.23
-0.185
-0.125
-0.02
0.085
0.205
0.315
0.43
0.49
0.585
0.795
0.76
0.625
0.54
0.415
0.245
0.105
0.025
-0.075
-0.08
-0.13
-0.13
-0.105
-0.015
-0.005
-0.12
-0.13
-0.125
-0.18
-0.125
-0.145
-0.14
-0.16
-0.085
-0.075
-0.12
-0.09
-0.125
-0.2
-0.175
-0.17
-0.135
-0.14
-0.08
-0.115
-0.11
-0.07
-0.115
-0.085
-0.125
-0.13
-0.14
-0.15
-0.125
-0.085
-0.18
-0.105
-0.11
-0.13
-0.085
-0.12
-0.15
-0.135
-0.115
-0.115
-0.12
-0.12
-0.125
-0.13
-0.12
-0.13
-0.105
-0.115
-0.08
-0.105
-0.09
-0.105
-0.095
-0.105
-0.115
-0.11
-0.115
-0.115
-0.09
-0.115
-0.08
-0.085
-0.13
-0.105
-0.09
-0.045
-0.04
-0.055
-0.065
-0.085
-0.07
-0.07
-0.01
-0.055
-0.1
-0.07
-0.015
-0.025
-0.055
-0.09
-0.05
-0.045
-0.055
-0.05
-0.025
-0.02
-0.03
0.02
0.02
0.01
-0.015
0.0
-0.025
0.0
0.08
0.01
0.02
0.035
0.09
0.045
0.005
0.025
0.03
0.065
0.095
0.03
0.02
0.065
0.04
0.065
0.035
0.065
0.035
-0.015
-0.015
0.025
0.015
0.01
0.01
0.0
-0.01
0.0
-0.035
-0.06
-0.015
-0.04
-0.015
0.0
-0.05
-0.105
-0.055
-0.03
-0.045
-0.05
-0.07
-0.08
-0.09
-0.045
-0.08
-0.12
-0.095
-0.085
-0.105
-0.11
-0.04
-0.025
-0.07
-0.025
-0.075
-0.125
-0.08
-0.095
-0.12
-0.09
-0.11
-0.095
-0.105
-0.085
-0.06
-0.075
-0.045
-0.06
-0.15
-0.09
-0.065
-0.09
-0.09
-0.08
-0.08
-0.09
-0.095
-0.125
-0.13
-0.025
-0.06
-0.125
-0.085
-0.04
-0.055
-0.115
-0.085
-0.08
-0.11
-0.095
-0.105
-0.11
-0.075
-0.07
-0.075
-0.075
-0.09
-0.105
-0.1
-0.08
-0.055
-0.13
-0.105
-0.06
-0.07
-0.075
-0.095
-0.065
-0.095
-0.075
-0.07
-0.07
-0.055
-0.065
-0.05
-0.135
-0.055
-0.065
-0.075
-0.045
-0.06
-0.045
-0.09
-0.015
-0.025
-0.015
-0.095
-0.015
-0.085
-0.08
-0.07
-0.125
-0.095
-0.06
-0.055
-0.06
-0.08
-0.07
-0.08
-0.12
-0.075
-0.02
-0.065
-0.03
-0.04
-0.05
-0.055
-0.1
-0.08
-0.08
-0.115
-0.07
-0.065
-0.065
0.02
0.035
-0.015
-0.02
-0.065
-0.06
-0.04
-0.015
0.005
0.005
-0.01
-0.055
-0.03
-0.04
-0.04
-0.015
0.025
-0.035
-0.06
-0.055
-0.045
-0.02
-0.075
-0.04
-0.055
-0.07
-0.065
-0.1
-0.075
-0.055
-0.055
-0.05
-0.06
-0.1
-0.095
-0.085
-0.085
-0.065
-0.06
-0.04
-0.055
-0.12
-0.04
-0.04
-0.05
-0.105
-0.105
-0.07
-0.11
-0.115
-0.085
-0.07
0.055
-0.085
-0.08
-0.075
-0.07
-0.09
-0.075
-0.085
-0.135
-0.135
-0.15
-0.16
-0.165
-0.135
-0.075
0.06
0.175
0.3
0.41
0.545
0.62
0.71
0.82
0.795
0.66
0.58
0.44
0.3
0.175
0.055
-0.005
-0.015
0.015
-0.08
-0.035
-0.055
-0.065
-0.05
-0.08
-0.065
-0.09
-0.1
-0.075
-0.065
-0.1
-0.085
-0.075
-0.07
-0.075
-0.075
-0.095
-0.09
-0.08
-0.085
-0.07
-0.095
-0.115
-0.03
-0.05
-0.16
-0.025
-0.035
-0.06
-0.06
-0.1
-0.075
-0.085
-0.075
-0.055
-0.06
-0.15
-0.12
-0.11
0.06
-0.06
-0.02
-0.035
-0.045
-0.095
-0.095
-0.09
-0.08
-0.11
-0.085
-0.085
-0.07
-0.07
-0.075
-0.065
-0.065
-0.09
-0.075
-0.08
-0.02
-0.085
-0.04
-0.045
-0.05
-0.01
-0.05
0.005
-0.045
-0.09
-0.045
-0.055
-0.035
-0.02
-0.01
-0.03
-0.03
-0.025
-0.045
-0.035
-0.03
-0.015
-0.015
-0.005
0.0
0.015
0.045
0.005
0.025
0.015
0.01
0.015
0.07
0.08
0.06
0.055
0.065
0.085
0.045
0.085
0.17
0.07
0.04
0.115
0.05
0.115
0.12
0.075
0.015
0.025
0.055
0.095
0.07
0.11
0.075
0.1
0.08
0.08
0.07
0.06
0.045
0.015
0.065
0.03
0.03
0.055
-0.01
-0.04
0.03
0.03
0.0
0.02
0.035
0.01
-0.015
0.005
-0.005
0.015
-0.065
-0.03
-0.035
-0.085
-0.06
-0.07
-0.03
0.01
-0.085
-0.09
-0.065
0.005
-0.035
-0.02
0.015
-0.045
-0.035
-0.03
-0.05
-0.065
-0.055
-0.075
-0.09
-0.045
0.0
0.05
-0.04
-0.035
-0.045
-0.055
-0.015
-0.08
-0.045
-0.025
-0.055
-0.06
-0.035
-0.045
-0.04
-0.045
-0.02
0.01
-0.08
-0.085
-0.04
-0.075
-0.095
-0.01
-0.035
-0.075
0.02
-0.06
-0.09
-0.135
-0.04
-0.045
-0.05
-0.04
-0.08
-0.05
0.005
-0.04
-0.06
-0.07
-0.015
-0.005
-0.055
-0.05
-0.015
-0.035
-0.02
-0.03
-0.015
-0.035
-0.045
-0.035
-0.03
-0.03
-0.03
-0.06
-0.045
-0.025
-0.07
-0.015
-0.025
-0.015
-0.025
0.005
-0.03
-0.025
-0.06
-0.045
-0.02
-0.05
-0.03
-0.025
-0.005
0.015
-0.015
-0.01
-0.035
-0.05
-0.03
0.015
-0.055
-0.005
-0.015
0.025
0.01
-0.075
0.01
-0.005
-0.025
-0.055
-0.02
-0.03
0.005
0.0
0.055
0.0
-0.025
0.0
0.01
0.045
0.085
0.035
0.01
-0.03
0.025
0.075
0.12
-0.025
-0.035
0.025
-0.07
-0.05
-0.075
-0.01
-0.05
-0.065
-0.045
-0.055
-0.09
-0.015
-0.06
-0.055
-0.075
0.005
-0.045
-0.02
-0.05
-0.045
-0.06
-0.03
-0.025
-0.05
-0.095
-0.08
-0.045
-0.005
0.005
-0.02
-0.075
-0.04
-0.07
-0.015
-0.02
-0.015
-0.02
-0.025
-0.035
-0.08
-0.035
-0.065
-0.065
-0.125
-0.145
-0.12
-0.11
-0.125
-0.1
0.0
0.11
0.265
0.4
0.465
0.545
0.725
0.775
0.835
0.75
0.645
0.59
0.43
0.29
0.16
0.13
0.03
-0.06
-0.055
-0.07
-0.12
-0.045
0.03
0.045
0.0
-0.025
-0.05
-0.065
-0.08
-0.065
-0.04
-0.04
-0.04
-0.05
-0.07
-0.03
-0.075
0.0
-0.075
-0.05
-0.095
-0.025
-0.015
-0.045
-0.115
-0.065
-0.08
-0.085
-0.125
-0.06
-0.045
-0.12
0.005
-0.035
-0.05
-0.03
-0.055
-0.07
-0.075
-0.06
-0.075
0.025
-0.04
-0.085
-0.085
0.0
0.01
-0.095
-0.1
-0.06
-0.095
-0.065
-0.07
-0.045
-0.05
-0.015
-0.05
-0.04
-0.06
-0.05
-0.065
-0.03
0.03
-0.01
0.025
-0.065
-0.035
-0.06
-0.075
-0.015
-0.06
-0.04
0.01
-0.05
-0.045
-0.01
0.055
0.005
0.015
-0.035
-0.005
-0.045
0.03
0.065
0.095
0.055
0.0
-0.02
-0.015
0.03
0.03
0.055
0.045
0.08
0.06
0.155
0.065
0.08
0.105
0.085
0.065
0.1
0.12
0.1
0.075
0.035
0.135
0.1
0.07
0.075
0.14
0.095
0.09
0.1
0.08
0.085
0.08
0.115
0.065
0.045
0.06
0.025
0.03
0.04
0.045
0.055
-0.005
0.0
0.015
-0.01
0.025
0.035
-0.02
-0.025
-0.015
0.035
0.06
0.025
-0.065
-0.06
-0.04
-0.055
-0.02
-0.04
-0.07
0.0
0.025
-0.04
-0.06
-0.07
0.005
-0.055
-0.005
-0.005
-0.015
-0.065
-0.09
-0.035
-0.055
0.0
0.0
-0.01
-0.005
-0.045
-0.06
-0.07
0.005
0.0
-0.04
-0.06
0.01
0.0
-0.005
-0.07
-0.055
-0.055
-0.03
-0.06
-0.02
-0.02
-0.065
-0.04
-0.005
-0.08
-0.05
-0.045
-0.035
-0.04
-0.045
-0.06
-0.045
-0.065
-0.055
-0.015
-0.03
-0.055
0.03
-0.015
-0.06
-0.04
-0.02
-0.015
-0.025
-0.01
-0.025
-0.065
-0.045
-0.025
-0.055
-0.02
-0.02
-0.025
-0.035
0.015
-0.01
-0.01
-0.02
-0.03
-0.02
0.03
0.075
0.05
-0.075
-0.02
-0.025
-0.05
-0.055
-0.05
-0.055
-0.025
-0.025
-0.02
-0.035
0.01
0.015
-0.005
0.0
0.005
-0.01
0.01
-0.01
0.025
0.025
0.055
0.01
-0.005
-0.015
-0.015
-0.01
-0.01
-0.005
0.025
0.05
0.025
0.09
0.01
0.0
-0.005
-0.02
0.005
0.035
0.015
0.03
0.03
0.02
0.02
0.025
0.025
0.015
0.015
0.05
-0.035
-0.08
0.005
0.02
-0.015
-0.015
-0.03
-0.005
-0.03
-0.005
0.005
-0.005
-0.04
-0.04
-0.03
0.015
0.07
0.055
-0.05
-0.015
-0.015
-0.02
0.015
-0.03
-0.03
-0.035
0.015
0.0
0.0
-0.03
0.01
0.025
-0.01
-0.05
-0.05
-0.025
-0.04
-0.035
-0.08
-0.12
-0.06
-0.075
-0.09
-0.09
-0.105
-0.105
-0.005
0.07
0.135
0.27
0.45
0.505
0.625
0.815
0.875
0.835
0.775
0.67
0.605
0.425
0.265
0.185
0.055
-0.005
0.015
-0.01
0.01
0.005
-0.005
0.0
-0.015
0.005
-0.015
-0.025
-0.02
-0.01
-0.05
-0.05
-0.01
-0.015
-0.02
-0.015
-0.065
-0.065
-0.06
-0.035
-0.03
-0.025
-0.075
-0.035
-0.055
-0.04
0.01
0.01
-0.005
-0.035
-0.07
-0.055
-0.055
-0.015
-0.035
0.005
0.085
-0.03
-0.005
-0.02
0.03
0.005
-0.03
-0.045
-0.02
-0.045
-0.04
-0.035
-0.035
-0.035
-0.035
0.015
-0.005
-0.015
0.005
0.035
0.045
-0.09
-0.045
0.01
-0.04
-0.01
-0.025
-0.035
-0.02
0.025
0.005
-0.05
-0.015
-0.02
0.05
0.055
0.015
0.05
0.045
0.0
0.045
0.04
0.01
0.005
-0.03
0.01
0.035
0.04
0.105
0.105
0.045
0.05
0.07
0.11
0.09
0.085
0.1
0.095
0.12
0.155
0.155
0.13
0.115
0.105
0.12
0.18
0.145
0.125
0.155
0.12
0.075
0.09
0.11
0.14
0.13
0.155
0.14
0.145
0.085
0.105
0.175
0.14
0.135
0.13
0.11
0.05
0.145
0.115
0.05
0.045
0.055
0.065
0.08
0.075
0.045
0.04
0.065
0.05
0.015
0.0
0.035
0.105
0.045
0.01
0.035
0.025
0.02
0.005
0.045
0.0
-0.005
0.035
0.005
-0.015
-0.03
0.025
0.06
0.03
0.035
-0.04
-0.02
0.005
0.03
-0.005
-0.005
0.01
0.025
0.015
0.025
-0.01
-0.035
0.025
-0.02
-0.015
0.025
0.025
0.025
0.005
0.055
0.02
0.035
-0.015
-0.01
0.065
0.06
0.08
-0.04
-0.035
0.045
-0.015
0.0
0.04
-0.005
-0.01
0.02
-0.035
0.005
0.02
-0.02
-0.005
0.03
0.04
-0.02
-0.025
0.025
0.02
-0.02
-0.035
-0.015
-0.005
-0.02
0.025
0.06
0.025
0.01
0.025
0.025
0.005
0.02
0.015
-0.02
0.025
0.025
-0.015
0.025
0.025
0.09
0.035
0.015
0.01
-0.005
0.01
0.0
0.015
0.01
0.07
0.065
0.07
0.04
0.02
0.04
-0.01
0.005
-0.015
0.02
0.055
0.04
0.06
0.085
0.0
-0.005
0.045
0.065
0.06
0.015
0.01
0.0
0.035
0.025
0.05
0.06
0.08
0.07
0.065
0.035
0.065
0.095
0.06
0.015
0.08
0.035
0.1
0.07
0.07
0.085
0.1
0.025
0.045
0.075
0.025
0.02
-0.005
-0.025
0.0
0.03
0.03
0.015
-0.005
0.0
-0.025
-0.015
-0.03
-0.015
0.01
0.035
0.0
0.01
0.02
0.025
-0.005
0.025
0.025
0.06
-0.005
0.005
0.005
-0.015
-0.03
0.03
-0.015
0.025
0.005
0.01
0.01
0.015
-0.005
-0.005
-0.005
0.0
-0.04
-0.015
0.075
-0.125
-0.09
-0.005
0.075
0.16
0.285
0.455
0.57
0.625
0.76
0.85
0.845
0.83
0.71
0.55
0.365
0.29
0.16
0.115
0.04
0.04
0.01
0.03
0.04
0.05
0.055
0.06
0.015
-0.005
-0.005
-0.02
-0.015
-0.005
-0.005
-0.005
0.005
0.02
-0.045
-0.04
-0.01
-0.015
-0.005
-0.005
-0.025
-0.04
0.015
0.055
0.02
-0.05
-0.005
-0.02
-0.015
-0.025
-0.005
0.025
0.07
-0.01
-0.025
-0.035
-0.01
-0.015
-0.015
0.015
-0.02
0.015
0.05
-0.025
0.005
-0.02
-0.06
0.02
0.055
0.035
0.06
0.13
0.055
-0.05
-0.03
-0.025
-0.01
-0.05
0.005
0.01
0.005
0.05
0.03
0.0
0.02
0.01
0.02
-0.005
0.035
0.07
0.01
0.025
0.03
0.03
-0.005
0.03
0.015
0.085
0.1
0.04
0.03
0.07
0.11
0.075
0.065
0.055
0.07
0.09
0.075
0.125
0.105
0.095
0.105
0.1
0.15
0.115
0.115
0.145
0.15
0.15
0.16
0.165
0.145
0.135
0.22
0.165
0.15
0.175
0.21
0.19
0.17
0.15
0.135
0.15
0.135
0.125
0.12
0.13
0.125
0.13
0.065
0.075
0.145
0.07
0.065
0.065
0.075
0.045
0.12
0.08
0.085
0.09
0.055
0.04
-0.005
0.025
0.0
0.085
0.075
0.055
-0.025
-0.01
0.025
0.05
0.095
-0.015
0.05
0.045
0.045
0.05
0.11
0.02
0.0
0.05
-0.005
0.01
0.02
0.055
0.035
0.01
0.01
0.055
0.035
-0.02
0.025
0.03
-0.005
0.05
0.035
0.0
0.015
0.04
0.025
0.015
0.03
0.045
-0.005
0.01
-0.01
0.055
0.055
0.04
0.065
0.065
-0.005
0.01
0.005
0.0
0.045
0.04
0.005
0.055
0.035
0.03
0.1
0.015
0.01
0.045
0.055
0.02
-0.005
0.005
0.035
0.02
0.025
0.015
0.025
0.03
0.04
0.05
0.02
0.04
0.05
0.04
0.035
0.075
0.025
0.025
0.0
0.04
0.025
0.06
-0.015
-0.01
0.025
0.095
0.095
0.105
0.085
0.045
-0.01
0.015
0.025
0.105
0.08
0.04
0.025
0.05
0.065
0.05
0.06
0.06
0.025
0.05
0.05
0.035
0.03
0.045
0.055
0.05
0.06
0.095
0.035
0.04
0.03
0.01
0.055
0.085
0.07
0.12
0.05
0.075
0.02
0.04
0.1
0.16
0.135
0.08
0.085
0.09
0.075
0.08
0.09
0.09
0.095
0.055
0.055
0.005
0.045
0.095
0.065
0.105
0.09
0.095
0.0
0.01
0.005
0.07
0.01
0.005
0.025
0.01
0.02
0.005
0.025
0.005
-0.015
0.03
-0.005
0.025
0.145
0.035
0.07
0.035
-0.005
0.04
0.065
0.025
0.015
0.075
0.035
0.05
0.025
0.025
0.045
0.015
-0.035
0.03
0.005
-0.08
-0.105
-0.06
0.035
0.005
0.095
0.195
0.35
0.505
0.65
0.705
0.81
0.94
0.93
0.86
0.74
0.61
0.45
0.32
0.27
0.105
0.06
0.05
0.04
0.03
0.03
0.025
0.1
0.055
0.025
0.105
0.09
0.025
0.025
0.015
0.07
-0.005
0.03
-0.01
0.02
0.05
0.045
0.005
0.015
-0.005
-0.01
0.06
0.075
0.035
0.03
0.02
0.05
0.08
0.015
0.05
0.055
0.03
0.065
0.015
0.0
0.0
0.045
0.03
0.035
0.0
0.01
0.075
0.07
0.055
0.065
0.045
0.045
0.045
0.015
0.02
0.03
0.01
0.07
0.025
0.055
0.03
0.015
0.02
0.1
0.085
0.035
0.055
0.08
0.065
0.125
0.08
0.045
0.02
0.055
0.105
0.04
0.04
0.075
0.08
0.095
0.06
0.085
0.095
0.13
0.07
0.11
0.125
0.095
0.1
0.105
0.14
0.11
0.135
0.12
0.14
0.115
0.14
0.2
0.18
0.22
0.265
0.15
0.11
0.175
0.18
0.155
0.185
0.2
0.2
0.17
0.165
0.215
0.245
0.22
0.2
0.155
0.22
0.29
0.215
0.17
0.2
0.18
0.14
0.12
0.14
0.15
0.16
0.195
0.11
0.135
0.185
0.12
0.08
0.11
0.11
0.09
0.125
0.13
0.105
0.1
0.1
0.075
0.065
0.06
0.045
0.09
0.09
0.06
0.105
0.09
0.045
0.055
0.07
0.07
0.06
0.04
0.05
0.09
0.105
0.08
0.09
0.04
0.03
0.025
-0.01
0.075
0.13
0.105
0.1
0.095
0.09
0.09
0.07
0.08
0.11
0.13
0.045
0.03
0.03
0.045
0.08
0.085
0.15
0.07
0.11
0.035
0.075
0.05
0.045
0.04
0.07
0.075
0.085
0.08
0.055
0.075
0.095
0.075
0.075
0.105
0.065
0.045
0.15
0.09
0.105
0.065
0.085
0.08
0.1
0.08
0.085
0.045
0.06
0.075
0.12
0.1
0.11
0.125
0.085
0.1
0.1
0.07
0.08
0.095
0.125
0.125
0.095
0.12
0.09
0.045
0.175
0.095
0.075
0.11
0.1
0.095
0.09
0.135
0.145
0.03
0.055
0.11
0.16
0.115
0.095
0.13
0.09
0.12
0.065
0.035
0.125
0.115
0.115
0.11
0.09
0.16
0.14
0.065
0.075
0.1
0.13
0.125
0.07
0.135
0.11
0.13
0.165
0.125
0.095
0.12
0.12
0.12
0.15
0.14
0.145
0.14
0.155
0.135
0.115
0.165
0.165
0.105
0.105
0.12
0.105
0.135
0.09
0.08
0.085
0.085
0.075
0.075
0.075
0.08
0.065
0.135
0.11
0.085
0.08
0.095
0.085
0.085
0.095
0.09
0.095
0.085
0.12
0.115
0.09
0.095
0.11
0.105
0.11
0.085
0.07
0.08
0.205
0.165
0.12
0.065
0.075
0.05
0.09
0.145
0.09
0.03
0.005
0.04
0.015
0.05
0.095
0.18
0.27
0.36
0.53
0.665
0.715
0.825
0.925
0.94
0.83
0.72
0.555
0.455
0.375
0.235
0.145
0.09
0.135
0.13
0.105
0.085
0.115
0.11
0.105
0.11
0.115
0.11
0.105
0.09
0.085
0.09
0.09
0.075
0.07
0.095
0.08
0.07
0.085
0.1
0.06
0.07
0.09
0.07
0.125
0.085
0.105
0.105
0.105
0.15
0.09
0.115
0.065
0.14
0.065
0.095
0.12
0.13
0.13
0.1
0.08
0.085
0.125
0.13
0.095
0.095
0.13
0.125
0.07
0.075
0.11
0.085
0.135
0.11
0.09
0.125
0.16
0.095
0.095
0.145
0.125
0.14
0.13
0.09
0.125
0.135
0.105
0.14
0.125
0.155
0.11
0.125
0.195
0.14
0.17
0.16
0.11
0.145
0.155
0.17
0.16
0.17
0.175
0.19
0.165
0.165
0.22
0.19
0.205
0.265
0.205
0.2
0.185
0.215
0.265
0.25
0.245
0.25
0.25
0.24
0.255
0.275
0.255
0.265
0.285
0.34
0.285
0.265
0.315
0.255
0.21
0.24
0.28
0.23
0.24
0.225
0.245
0.245
0.285
0.26
0.27
0.255
0.32
0.205
0.215
0.305
0.185
0.105
0.12
0.175
0.165
0.225
0.165
0.14
0.17
0.165
0.13
0.13
0.15
0.215
0.25
0.145
0.13
0.165
0.145
0.105
0.15
0.14
0.1
0.11
0.155
0.155
0.115
0.135
0.175
0.15
0.145
0.1
0.135
0.11
0.115
0.18
0.19
0.16
0.125
0.11
0.13
0.135
0.14
0.135
0.11
0.13
0.105
0.145
0.15
0.135
0.14
0.09
0.165
0.115
0.17
0.17
0.11
0.17
0.09
0.17
0.18
0.23
0.15
0.125
0.15
0.145
0.11
0.1
0.145
0.155
0.145
0.14
0.165
0.08
0.135
0.13
0.095
0.155
0.135
0.125
0.125
0.14
0.235
0.165
0.195
0.19
0.11
0.155
0.145
0.14
0.15
0.17
0.205
0.16
0.12
0.135
0.14
0.195
0.145
0.14
0.135
0.145
0.155
0.14
0.15
0.16
0.13
0.135
0.155
0.145
0.15
0.15
0.145
0.145
0.16
0.16
0.16
0.13
0.135
0.15
0.15
0.18
0.17
0.13
0.16
0.165
0.185
0.16
0.16
0.18
0.15
0.18
0.17
0.165
0.16
0.185
0.26
0.205
0.155
0.11
0.16
0.16
0.22
0.225
0.2
0.205
0.19
0.19
0.19
0.195
0.175
0.18
0.175
0.195
0.145
0.145
0.135
0.215
0.12
0.135
0.22
0.14
0.04
0.14
0.205
0.2
0.095
0.125
0.145
0.13
0.145
0.155
0.17
0.145
0.115
0.11
0.165
0.13
0.145
0.165
0.12
0.125
0.1
0.13
0.125
0.125
0.13
0.155
0.12
0.13
0.155
0.155
0.115
0.115
0.11
0.105
0.075
0.06
0.035
0.055
0.085
0.105
0.17
0.285
0.43
0.53
0.68
0.78
0.875
0.9
0.97
0.96
0.845
0.695
0.57
0.48
0.3
0.21
0.15
0.14
0.16
0.13
0.165
0.18
0.19
0.24
0.125
0.12
0.135
0.1
0.09
0.14
0.145
0.13
0.12
0.1
0.145
0.145
0.12
0.085
0.12
0.105
0.09
0.11
0.12
0.105
0.105
0.185
0.135
0.11
0.13
0.11
0.145
0.08
0.195
0.135
0.105
0.125
0.125
0.12
0.115
0.075
0.08
0.1
0.18
0.135
0.12
0.135
0.145
0.13
0.115
0.145
0.19
0.145
0.16
0.11
0.145
0.13
0.155
0.12
0.12
0.13
0.12
0.14
0.14
0.12
0.145
0.13
0.145
0.18
0.155
0.12
0.19
0.125
0.1
0.11
0.215
0.21
0.165
0.135
0.22
0.16
0.13
0.175
0.175
0.155
0.205
0.235
0.19
0.14
0.18
0.195
0.205
0.375
0.26
0.235
0.27
0.275
0.23
0.285
0.275
0.285
0.245
0.28
0.26
0.25
0.255
0.28
0.265
0.29
0.275
0.265
0.295
0.25
0.25
0.31
0.245
0.255
0.27
0.335
0.3
0.165
0.265
0.22
0.23
0.195
0.19
0.19
0.155
0.185
0.195
0.15
0.155
0.14
0.17
0.175
0.195
0.145
0.12
0.15
0.15
0.13
0.145
0.145
0.135
0.17
0.175
0.155
0.155
0.19
0.125
0.125
0.14
0.14
0.18
0.12
0.12
0.175
0.18
0.16
0.13
0.155
0.095
0.13
0.235
0.17
0.165
0.085
0.085
0.105
0.135
0.115
0.115
0.11
0.175
0.115
0.115
0.225
0.11
0.085
0.01
0.1
0.14
0.165
0.13
0.125
0.185
0.165
0.14
0.145
0.125
0.1
0.095
0.15
0.135
0.145
0.105
0.09
0.165
0.19
0.155
0.175
0.08
0.1
0.1
0.13
0.13
0.12
0.125
0.145
0.095
0.12
0.15
0.125
0.115
0.15
0.145
0.125
0.145
0.145
0.115
0.095
0.12
0.185
0.13
0.145
0.135
0.22
0.155
0.105
0.11
0.2
0.125
0.09
0.09
0.14
0.15
0.15
0.135
0.155
0.12
0.145
0.15
0.155
0.16
0.18
0.17
0.18
0.16
0.16
0.125
0.17
0.16
0.115
0.13
0.145
0.13
0.12
0.195
0.15
0.165
0.205
0.195
0.14
0.18
0.17
0.16
0.16
0.18
0.185
0.13
0.165
0.13
0.165
0.155
0.235
0.14
0.145
0.125
0.13
0.13
0.1
0.1
0.095
0.105
0.135
0.16
0.12
0.105
0.095
0.12
0.07
0.085
0.13
0.105
0.17
0.125
0.12
0.135
0.155
0.15
0.115
0.09
0.065
0.095
0.125
0.13
0.125
0.125
0.125
0.135
0.09
0.075
0.135
0.125
0.09
0.14
0.1
0.07
0.09
0.0
-0.005
0.035
0.12
0.225
0.32
0.44
0.585
0.685
0.79
0.92
0.93
0.985
0.83
0.775
0.655
0.455
0.34
0.315
0.215
0.125
0.125
0.105
0.1
0.145
0.16
0.125
0.09
0.105
0.08
0.1
0.09
0.1
0.085
0.095
0.095
0.08
0.085
0.09
0.09
0.065
0.09
0.13
0.065
0.11
0.085
0.09
0.075
0.085
0.08
0.07
0.075
0.08
0.085
0.05
0.145
0.11
0.1
0.07
0.095
0.115
0.11
0.045
0.07
0.1
0.165
0.125
0.055
0.085
0.13
0.05
0.085
0.055
0.11
0.07
0.1
0.11
0.1
0.115
0.12
0.11
0.085
0.07
0.075
0.045
0.15
0.135
0.155
0.095
0.065
0.08
0.075
0.085
0.145
0.12
0.12
0.105
0.115
0.115
0.105
0.08
0.095
0.145
0.105
0.135
0.11
0.125
0.165
0.175
0.17
0.16
0.185
0.165
0.155
0.225
0.165
0.21
0.215
0.175
0.165
0.17
0.195
0.19
0.235
0.27
0.235
0.235
0.225
0.21
0.245
0.23
0.27
0.295
0.205
0.245
0.255
0.21
0.23
0.26
0.22
0.27
0.24
0.2
0.19
0.18
0.215
0.26
0.16
0.12
0.22
0.175
0.15
0.14
0.125
0.2
0.095
0.115
0.105
0.14
0.09
0.04
0.1
0.11
0.075
0.13
0.085
0.135
0.13
0.06
0.125
0.13
0.1
0.1
0.16
0.12
0.11
0.105
0.06
0.075
0.085
0.09
0.095
0.08
0.11
0.12
0.09
0.08
0.11
0.065
0.075
0.115
0.115
0.08
0.075
0.085
0.08
0.075
0.08
0.05
0.05
0.105
0.165
0.095
0.11
0.115
0.085
0.06
0.07
0.07
0.07
0.09
0.105
0.09
0.055
0.095
0.17
0.055
0.05
0.07
0.075
0.14
0.045
0.105
0.1
0.07
0.13
0.085
0.095
0.04
0.02
0.065
0.075
0.07
0.045
0.15
0.17
0.125
0.09
0.085
0.055
0.065
0.07
0.075
0.09
0.105
0.085
0.07
0.08
0.095
0.125
0.155
0.03
0.065
0.085
0.125
0.075
0.075
0.07
0.045
0.035
0.045
0.11
0.135
0.1
0.105
0.1
0.08
0.095
0.085
0.085
0.09
0.08
0.105
0.115
0.105
0.18
0.135
0.105
0.1
0.105
0.09
0.065
0.08
0.16
0.17
0.13
0.155
0.15
0.095
0.13
0.11
0.1
0.08
0.095
0.215
0.09
0.115
0.18
0.15
0.105
0.085
0.08
0.11
0.09
0.08
0.07
0.04
0.02
0.04
0.07
0.12
0.045
0.095
0.145
0.085
0.075
0.115
0.075
0.045
0.055
0.04
0.065
0.105
0.145
0.05
0.045
0.04
0.035
0.075
0.05
0.095
0.05
0.04
0.085
0.07
0.045
0.075
0.065
0.05
0.045
0.03
0.04
0.07
0.02
-0.01
-0.025
-0.015
-0.025
-0.005
0.015
0.095
0.23
0.385
0.545
0.675
0.72
0.755
0.805
0.895
0.86
0.78
0.665
0.515
0.405
0.245
0.17
0.085
0.055
0.085
0.14
0.1
0.055
0.055
0.09
0.105
0.045
0.045
0.025
0.0
-0.03
0.045
0.03
0.04
0.065
0.09
-0.005
0.01
0.035
0.03
0.015
0.0
0.0
0.01
0.06
0.005
0.05
0.11
0.0
0.04
0.04
0.025
0.025
0.08
0.06
0.03
0.03
0.02
0.015
0.05
0.02
-0.025
0.095
0.07
0.035
0.06
0.05
0.03
0.045
0.025
0.0
-0.04
0.07
0.045
0.065
0.045
0.03
0.045
0.025
0.02
0.02
0.035
0.055
0.115
0.055
0.005
0.045
0.07
0.02
0.025
0.045
0.025
0.025
0.09
0.08
0.04
0.005
0.1
0.025
0.065
0.135
0.075
0.105
0.09
0.065
0.07
0.115
0.16
0.13
0.105
0.14
0.08
0.08
0.165
0.215
0.155
0.145
0.085
0.13
0.15
0.145
0.165
0.17
0.17
0.165
0.145
0.215
0.14
0.15
0.15
0.145
0.195
0.225
0.175
0.18
0.18
0.185
0.135
0.135
0.145
0.14
0.15
0.125
0.14
0.1
0.14
0.07
0.09
0.12
0.05
0.05
0.055
0.155
0.15
0.085
0.115
0.055
0.025
0.055
0.04
0.025
0.04
0.06
0.065
0.02
0.035
0.06
0.05
0.0
0.045
-0.03
0.01
0.04
0.13
0.075
0.045
0.04
0.005
0.015
0.01
0.01
0.05
0.025
0.03
0.025
0.005
0.075
0.04
0.055
0.01
0.01
0.11
0.09
0.015
0.015
0.025
0.01
0.0
0.03
0.03
0.01
0.015
0.05
0.0
0.07
0.045
0.01
0.005
0.035
0.015
-0.015
0.05
0.04
0.075
0.06
0.03
0.015
0.035
0.055
0.025
0.04
0.025
0.035
0.015
0.015
0.01
0.075
0.005
-0.01
0.01
0.06
0.055
0.01
0.05
0.06
0.02
0.005
-0.015
0.025
0.02
0.055
0.11
0.04
0.055
0.04
-0.01
0.01
0.045
0.02
0.025
0.08
0.025
0.025
0.045
0.025
0.045
0.04
0.045
0.02
0.025
0.055
0.05
0.04
0.03
0.04
0.04
0.035
0.07
0.01
0.02
0.03
0.045
0.1
0.075
0.015
0.03
0.065
0.075
0.02
0.03
0.01
0.12
0.115
0.09
0.06
0.05
0.075
0.11
0.08
0.065
0.06
0.075
0.08
0.095
0.055
0.035
0.05
0.02
0.03
0.01
0.005
0.06
0.005
0.015
0.035
0.035
0.02
0.04
0.065
0.005
-0.025
-0.025
0.02
0.01
0.0
0.01
0.01
0.015
0.025
0.02
-0.03
-0.02
0.01
0.01
0.075
0.055
0.04
0.035
0.025
0.02
0.0
0.02
0.02
-0.04
0.065
-0.01
-0.07
-0.08
-0.07
-0.115
-0.085
-0.025
0.015
0.125
0.185
0.345
0.475
0.63
0.675
0.755
0.835
0.885
0.82
0.72
0.58
0.36
0.215
0.165
0.075
0.02
0.045
0.035
-0.01
-0.01
0.045
0.045
-0.06
0.005
0.09
-0.01
-0.025
0.04
0.0
-0.025
0.005
-0.01
-0.02
-0.04
-0.025
0.015
0.01
0.015
0.02
-0.03
-0.01
-0.05
-0.08
0.015
0.035
0.04
0.03
0.01
0.025
-0.015
0.005
-0.01
-0.045
-0.02
0.005
0.0
-0.005
0.005
0.015
-0.02
-0.005
-0.02
-0.045
-0.005
0.005
0.01
0.0
-0.025
-0.055
0.005
0.06
0.025
0.045
0.0
0.02
0.005
-0.03
-0.02
-0.005
0.045
0.015
0.005
-0.015
-0.005
0.005
0.005
0.005
0.02
0.04
0.03
0.025
0.02
0.005
0.005
0.0
0.025
0.03
0.025
0.03
0.09
0.05
0.005
0.04
0.055
0.045
0.105
0.1
0.075
0.065
0.06
0.065
0.15
0.11
0.11
0.12
0.11
0.175
0.13
0.12
0.105
0.095
0.14
0.135
0.14
0.135
0.14
0.165
0.13
0.15
0.195
0.165
0.11
0.125
0.11
0.095
0.09
0.105
0.13
0.11
0.115
0.115
0.1
0.115
0.05
0.015
0.06
0.085
0.05
0.035
0.045
0.06
0.065
0.035
0.045
0.025
0.095
0.06
0.025
0.015
0.005
0.005
-0.01
0.03
-0.005
-0.005
-0.015
0.005
-0.005
0.02
0.04
0.06
0.0
0.02
0.015
-0.02
0.015
-0.01
-0.005
0.0
-0.005
0.0
0.0
-0.01
-0.005
-0.03
0.015
-0.015
0.01
0.04
0.045
-0.03
-0.03
-0.02
-0.03
0.03
-0.01
0.015
0.01
0.045
-0.025
-0.04
-0.03
0.075
0.08
-0.055
-0.03
0.035
0.005
0.02
-0.02
-0.03
0.015
0.01
0.04
0.04
0.07
-0.035
-0.085
-0.005
0.025
-0.005
0.0
-0.01
0.01
-0.02
0.01
0.01
0.01
0.055
0.05
0.02
0.01
-0.025
-0.02
0.015
0.015
0.035
0.025
-0.02
-0.005
-0.015
0.035
-0.01
-0.04
0.035
0.04
0.0
0.025
-0.015
0.0
-0.01
0.005
0.0
0.015
0.015
0.005
0.05
-0.01
0.015
0.04
-0.005
-0.01
0.015
-0.025
-0.03
0.025
0.03
0.05
0.04
0.02
0.015
0.025
-0.04
0.02
0.0
0.02
0.045
0.035
0.07
0.06
0.045
0.04
0.045
0.04
0.055
0.07
0.02
0.07
0.045
0.05
0.01
0.04
0.07
0.1
0.015
0.055
0.065
0.05
0.06
-0.015
-0.05
-0.025
-0.015
-0.01
-0.01
-0.04
-0.02
0.015
0.0
0.03
-0.025
0.04
-0.03
-0.015
0.005
0.0
-0.01
-0.005
-0.005
0.0
0.0
-0.025
-0.015
-0.02
-0.01
-0.01
-0.01
-0.015
-0.015
-0.015
-0.03
-0.025
-0.03
-0.02
0.005
-0.025
-0.01
0.015
-0.05
-0.045
-0.085
-0.11
-0.125
-0.115
-0.01
0.015
0.115
0.205
0.285
0.39
0.525
0.575
0.71
0.89
0.78
0.69
0.65
0.54
0.335
0.215
0.14
0.01
-0.08
-0.05
-0.01
-0.015
-0.02
-0.03
-0.02
-0.02
-0.05
-0.07
-0.035
-0.01
0.085
0.0
-0.01
-0.005
0.0
-0.035
-0.06
-0.025
-0.04
-0.085
-0.005
-0.015
-0.02
-0.015
-0.015
-0.035
-0.01
-0.03
-0.015
-0.055
-0.055
-0.075
-0.02
0.0
0.005
-0.02
-0.035
-0.06
-0.03
-0.01
-0.005
-0.01
-0.03
-0.06
-0.035
-0.02
0.0
-0.025
-0.08
-0.04
-0.015
0.01
-0.005
-0.03
0.01
-0.045
-0.075
-0.02
-0.025
0.015
0.075
0.02
-0.03
-0.01
0.04
-0.015
-0.03
-0.075
-0.035
-0.04
0.005
-0.015
-0.025
-0.02
0.03
0.015
0.035
-0.015
0.02
0.025
0.035
0.01
0.035
0.025
0.005
0.02
0.03
0.065
0.02
0.055
0.105
0.115
0.12
0.06
0.14
0.07
0.145
0.095
0.05
0.06
0.155
0.075
0.085
0.105
0.115
0.09
0.11
0.14
0.1
0.115
0.12
0.09
0.115
0.1
0.1
0.085
0.105
0.085
0.08
0.08
0.08
0.085
0.08
0.07
0.05
0.035
0.05
0.04
0.025
0.02
0.015
0.06
0.08
0.005
-0.01
0.0
-0.01
-0.005
-0.015
-0.02
-0.03
0.0
-0.02
-0.04
0.0
-0.035
0.025
0.01
-0.02
0.0
0.015
0.105
-0.015
-0.005
-0.035
-0.045
-0.035
-0.05
-0.065
-0.02
-0.035
-0.04
-0.05
-0.06
-0.07
-0.115
0.015
0.04
-0.06
-0.065
-0.025
-0.035
-0.015
-0.01
-0.035
-0.025
-0.035
-0.05
-0.05
-0.03
-0.065
-0.065
-0.035
-0.05
-0.075
-0.005
-0.005
-0.075
-0.03
-0.015
0.005
-0.045
-0.01
-0.035
-0.045
-0.025
-0.025
-0.03
-0.045
-0.015
-0.025
-0.025
-0.03
-0.02
-0.045
-0.01
0.015
-0.045
-0.04
-0.005
0.005
-0.015
0.005
0.0
-0.02
-0.05
-0.045
-0.04
0.035
0.025
-0.015
-0.04
0.005
-0.025
-0.025
-0.03
0.055
-0.035
-0.04
-0.02
-0.025
-0.045
-0.045
-0.015
-0.035
-0.025
-0.04
-0.04
-0.03
0.06
-0.005
-0.01
-0.04
-0.05
-0.045
-0.01
0.01
0.005
-0.03
0.015
-0.015
0.02
-0.015
0.03
0.0
-0.055
-0.055
-0.01
-0.035
0.005
0.02
0.0
0.0
-0.005
-0.025
-0.01
0.0
0.0
-0.01
0.015
0.0
0.0
0.045
0.025
0.005
-0.01
-0.03
-0.04
0.025
-0.045
-0.045
-0.04
-0.05
-0.015
-0.045
-0.07
-0.09
-0.045
-0.05
-0.02
-0.01
-0.03
-0.025
-0.01
-0.055
-0.075
-0.045
-0.015
0.005
-0.025
-0.035
-0.075
-0.065
-0.04
-0.035
-0.055
-0.02
-0.03
0.0
-0.03
-0.05
-0.035
-0.1
-0.11
-0.095
-0.105
-0.045
-0.07
-0.105
-0.09
-0.095
-0.085
-0.17
-0.105
-0.145
-0.095
0.03
0.115
0.265
0.375
0.475
0.545
0.685
0.745
0.79
0.7
0.625
0.49
0.34
0.22
0.105
0.05
-0.015
-0.055
-0.045
-0.05
-0.045
-0.06
-0.045
-0.06
-0.045
-0.055
-0.045
-0.045
-0.055
-0.06
-0.085
-0.105
-0.075
-0.03
-0.09
0.005
-0.05
-0.075
-0.025
-0.04
-0.085
-0.175
0.035
-0.01
-0.07
-0.1
-0.115
-0.105
-0.13
-0.09
-0.1
-0.045
-0.045
-0.09
-0.09
-0.075
-0.025
-0.09
-0.08
-0.115
-0.04
-0.045
-0.06
-0.045
-0.065
-0.045
-0.09
-0.15
0.05
0.0
-0.13
-0.035
-0.04
-0.03
0.015
-0.085
-0.09
-0.07
-0.05
-0.045
-0.07
-0.09
-0.04
-0.04
-0.05
-0.03
-0.035
-0.045
-0.055
-0.07
-0.075
-0.055
-0.045
-0.04
-0.045
-0.02
-0.035
-0.04
-0.035
-0.025
-0.055
0.0
0.025
0.01
0.02
0.0
-0.005
0.03
0.06
0.01
0.015
0.05
0.02
0.03
0.075
0.11
0.07
0.06
0.055
0.005
0.165
0.18
0.105
0.125
0.09
0.04
0.04
0.095
0.08
0.075
0.065
0.08
0.08
0.105
0.095
0.13
0.085
0.035
-0.02
0.03
0.045
0.02
0.09
0.05
0.015
0.025
0.0
0.005
0.0
0.0
0.0
-0.015
-0.025
0.025
0.005
-0.015
-0.045
-0.035
-0.07
0.01
-0.025
-0.065
-0.045
-0.02
0.005
-0.045
-0.07
0.005
-0.055
-0.01
-0.03
-0.07
-0.035
-0.035
-0.04
-0.04
-0.085
-0.065
-0.05
-0.05
-0.02
-0.065
-0.025
-0.005
-0.025
-0.05
-0.025
-0.085
-0.07
-0.045
-0.085
-0.025
-0.045
-0.03
-0.07
-0.05
-0.075
-0.015
-0.025
-0.115
-0.085
0.01
0.01
-0.065
-0.055
-0.05
-0.01
-0.03
-0.075
-0.09
-0.095
-0.025
-0.025
-0.07
-0.035
-0.07
-0.055
0.0
-0.04
-0.07
-0.005
-0.04
-0.04
-0.06
-0.03
-0.055
-0.045
-0.035
-0.06
-0.075
-0.04
-0.035
-0.045
-0.04
-0.02
-0.02
-0.035
-0.015
-0.045
-0.045
0.025
-0.035
-0.06
-0.055
-0.035
-0.04
-0.045
-0.05
-0.04
-0.03
-0.01
-0.005
-0.035
-0.07
0.015
-0.025
-0.045
0.06
0.015
-0.035
-0.05
-0.055
0.01
-0.015
-0.04
-0.055
-0.045
-0.005
-0.055
-0.05
-0.02
-0.015
0.005
0.045
0.02
-0.045
-0.01
-0.055
-0.04
-0.02
0.015
-0.04
0.03
0.06
0.02
-0.005
0.025
-0.015
-0.015
-0.04
0.02
-0.025
-0.045
0.025
0.005
-0.06
-0.04
-0.035
-0.075
-0.07
-0.015
-0.03
-0.02
-0.015
-0.055
-0.08
-0.08
-0.09
-0.03
-0.055
-0.015
-0.02
-0.015
-0.065
-0.06
-0.085
-0.08
-0.07
-0.05
-0.09
0.005
-0.005
-0.065
-0.065
-0.06
-0.065
-0.05
-0.09
-0.08
-0.085
-0.045
-0.005
-0.085
-0.09
-0.115
-0.15
-0.165
-0.14
-0.08
0.055
0.19
0.255
0.395
0.525
0.655
0.665
0.7
0.82
0.755
0.665
0.51
0.385
0.255
0.15
0.06
0.01
-0.01
-0.055
-0.035
-0.035
-0.015
0.04
-0.05
-0.085
-0.085
-0.075
-0.015
-0.075
-0.1
-0.075
-0.055
0.015
-0.06
-0.08
-0.065
-0.085
-0.065
-0.065
-0.09
-0.055
-0.05
-0.1
-0.05
0.05
0.015
-0.125
-0.08
-0.105
-0.06
-0.015
-0.08
-0.03
-0.11
-0.05
-0.045
-0.08
-0.065
-0.055
-0.06
-0.005
-0.02
-0.07
-0.08
-0.11
-0.035
-0.03
-0.025
-0.06
-0.035
-0.035
-0.055
-0.02
-0.055
-0.06
-0.07
-0.055
-0.05
-0.07
-0.07
-0.025
-0.07
-0.06
-0.045
-0.025
-0.025
-0.035
-0.1
-0.03
-0.015
0.02
0.005
-0.025
0.0
0.035
-0.03
-0.03
-0.015
-0.005
0.03
0.0
-0.005
0.02
-0.05
0.065
0.03
0.055
0.035
0.04
0.045
0.04
0.09
0.04
0.02
0.07
0.09
0.06
0.035
0.05
0.13
0.135
0.135
0.12
0.08
0.07
0.095
0.06
0.075
0.02
0.115
0.145
0.1
0.145
0.125
0.115
0.055
0.05
0.065
0.09
0.05
0.055
0.065
0.06
0.08
0.08
0.005
0.035
0.035
0.01
-0.01
0.0
-0.015
0.03
0.02
0.0
-0.065
-0.015
-0.005
-0.025
-0.01
0.005
-0.035
-0.025
-0.04
-0.04
-0.015
-0.1
-0.05
0.01
0.005
0.05
0.005
0.005
-0.01
-0.015
0.01
0.005
-0.07
-0.04
0.0
-0.05
-0.01
-0.07
-0.02
-0.02
-0.02
-0.045
-0.06
-0.04
-0.075
0.0
0.01
-0.035
-0.085
-0.015
-0.06
-0.055
-0.055
-0.085
-0.05
-0.05
-0.065
-0.085
-0.045
-0.015
0.0
-0.005
-0.015
-0.045
-0.045
0.015
-0.03
-0.045
-0.055
-0.04
-0.065
-0.095
-0.055
0.005
-0.02
-0.04
-0.03
-0.035
-0.035
-0.035
-0.04
-0.025
-0.025
-0.06
-0.01
0.02
0.01
-0.015
-0.005
-0.05
-0.095
-0.06
-0.005
-0.035
0.025
-0.085
-0.075
-0.11
-0.09
0.02
0.06
0.005
-0.02
-0.03
0.03
-0.03
-0.07
-0.07
-0.025
-0.045
-0.005
0.01
-0.035
-0.045
0.025
-0.015
-0.04
0.035
-0.005
-0.05
-0.035
-0.025
-0.025
0.0
-0.005
-0.04
0.015
0.045
0.035
-0.035
-0.005
0.045
0.005
0.05
0.035
-0.005
-0.015
-0.025
-0.025
-0.02
-0.02
-0.045
0.015
0.015
-0.02
-0.06
-0.015
-0.01
0.0
-0.045
-0.055
-0.05
-0.06
-0.06
-0.085
-0.06
-0.035
-0.005
-0.03
-0.065
-0.055
-0.06
-0.005
-0.065
-0.02
-0.015
-0.09
-0.015
-0.005
-0.105
-0.055
-0.04
-0.045
-0.05
-0.055
-0.09
-0.095
-0.075
-0.125
-0.04
-0.04
-0.02
-0.045
-0.055
-0.045
-0.035
-0.185
-0.18
-0.175
-0.175
-0.15
-0.045
-0.015
0.11
0.275
0.42
0.535
0.61
0.69
0.81
0.825
0.745
0.675
0.525
0.435
0.215
0.12
0.08
-0.045
-0.07
-0.085
-0.08
-0.02
-0.025
-0.045
-0.045
-0.085
-0.06
-0.06
-0.075
-0.08
-0.055
-0.08
-0.085
-0.08
-0.075
-0.09
-0.07
-0.095
-0.095
-0.095
-0.075
-0.06
-0.075
-0.11
-0.07
-0.025
-0.075
-0.04
-0.05
-0.065
-0.085
-0.07
-0.105
-0.125
-0.13
-0.015
0.03
0.035
-0.095
-0.1
-0.045
-0.08
-0.055
-0.085
-0.06
-0.045
-0.06
-0.08
-0.08
-0.115
-0.095
-0.13
-0.085
-0.06
-0.06
-0.085
-0.095
-0.09
-0.02
-0.045
-0.085
-0.05
-0.02
-0.065
-0.07
-0.08
-0.07
-0.085
-0.05
-0.02
-0.025
-0.04
-0.075
-0.055
-0.05
-0.055
-0.035
-0.075
-0.065
0.0
-0.065
-0.06
-0.025
-0.06
-0.01
0.01
0.01
-0.015
0.035
0.02
-0.005
-0.005
0.065
0.06
0.045
-0.005
0.11
0.035
0.035
0.1
0.095
0.08
0.035
0.03
0.105
0.145
0.155
0.04
0.08
0.035
0.045
0.055
0.045
0.12
0.065
0.025
0.055
0.04
0.08
0.03
-0.01
0.0
0.02
0.055
0.035
0.03
0.035
-0.005
-0.005
-0.01
-0.02
0.005
0.0
-0.02
0.0
-0.05
-0.025
-0.04
-0.05
-0.015
-0.05
-0.04
-0.06
-0.06
-0.08
-0.06
-0.095
-0.07
-0.06
-0.065
-0.075
