# TIPE ECG 2021 - ECG-ID Database v1.0.0 par Physionet
# [Numéro de la personne, Période d'échantillonnage, Prénom, Age, Sexe, Date de l'enregistrement]
[34, 0.002, Jenny, 49, F, 12.05.2005]
-0.365
-0.37
-0.325
-0.315
-0.305
-0.245
-0.325
-0.35
-0.315
-0.3
-0.305
-0.305
-0.33
-0.305
-0.335
-0.33
-0.315
-0.315
-0.405
-0.31
-0.3
-0.3
-0.385
-0.29
-0.265
-0.555
-0.37
-0.335
-0.21
-0.22
-0.34
-0.41
-0.41
-0.355
-0.345
-0.385
-0.34
-0.295
-0.31
-0.39
-0.295
-0.245
-0.34
-0.405
-0.22
-0.38
-0.365
-0.285
-0.29
-0.3
-0.305
-0.285
-0.305
-0.32
-0.36
-0.35
-0.31
-0.305
-0.365
-0.295
-0.295
-0.305
-0.4
-0.32
-0.365
-0.3
-0.32
-0.38
-0.365
-0.245
-0.325
-0.38
-0.385
-0.385
-0.25
-0.285
-0.36
-0.32
-0.225
-0.27
-0.29
-0.35
-0.395
-0.27
-0.295
-0.39
-0.315
-0.37
-0.335
-0.29
-0.285
-0.325
-0.315
-0.34
-0.28
-0.26
-0.265
-0.35
-0.275
-0.3
-0.25
-0.235
-0.31
-0.33
-0.335
-0.325
-0.335
-0.27
-0.33
-0.325
-0.255
-0.295
-0.27
-0.31
-0.28
-0.28
-0.245
-0.26
-0.205
-0.365
-0.345
-0.295
-0.32
-0.22
-0.33
-0.345
-0.32
-0.32
-0.355
-0.38
-0.39
-0.43
-0.285
-0.355
-0.34
-0.335
-0.305
-0.37
-0.345
-0.355
-0.29
-0.375
-0.38
-0.23
-0.305
-0.345
-0.36
-0.32
-0.35
-0.365
-0.375
-0.395
-0.295
-0.36
-0.315
-0.41
-0.35
-0.31
-0.225
-0.365
-0.35
-0.38
-0.395
-0.49
-0.485
-0.505
-0.465
-0.325
-0.26
-0.21
-0.035
0.1
0.215
0.24
0.34
0.4
0.42
0.37
0.27
0.165
-0.075
-0.105
-0.21
-0.335
-0.35
-0.32
-0.22
-0.305
-0.365
-0.335
-0.335
-0.355
-0.335
-0.315
-0.475
-0.365
-0.27
-0.34
-0.385
-0.355
-0.345
-0.395
-0.42
-0.355
-0.285
-0.385
-0.34
-0.43
-0.395
-0.345
-0.37
-0.415
-0.365
-0.41
-0.4
-0.33
-0.295
-0.31
-0.415
-0.315
-0.34
-0.36
-0.395
-0.35
-0.325
-0.29
-0.335
-0.335
-0.365
-0.335
-0.34
-0.455
-0.425
-0.335
-0.385
-0.35
-0.365
-0.33
-0.325
-0.3
-0.3
-0.395
-0.31
-0.42
-0.345
-0.245
-0.44
-0.22
-0.275
-0.27
-0.315
-0.485
-0.325
-0.275
-0.405
-0.405
-0.295
-0.3
-0.325
-0.36
-0.33
-0.225
-0.315
-0.275
-0.375
-0.35
-0.295
-0.355
-0.295
-0.355
-0.33
-0.335
-0.285
-0.31
-0.29
-0.28
-0.27
-0.21
-0.245
-0.255
-0.25
-0.35
-0.305
-0.23
-0.245
-0.235
-0.15
-0.19
-0.18
-0.155
-0.24
-0.255
-0.27
-0.235
-0.2
-0.07
-0.18
-0.19
-0.2
-0.22
-0.235
-0.135
-0.18
-0.27
-0.18
-0.185
-0.25
-0.305
-0.33
-0.25
-0.23
-0.28
-0.34
-0.285
-0.25
-0.225
-0.31
-0.29
-0.26
-0.275
-0.36
-0.325
-0.35
-0.265
-0.42
-0.335
-0.3
-0.35
-0.185
-0.335
-0.34
-0.355
-0.38
-0.385
-0.36
-0.41
-0.275
-0.335
-0.33
-0.345
-0.36
-0.395
-0.355
-0.33
-0.345
-0.365
-0.33
-0.345
-0.37
-0.385
-0.385
-0.33
-0.325
-0.37
-0.35
-0.355
-0.345
-0.38
-0.325
-0.38
-0.325
-0.375
-0.4
-0.365
-0.325
-0.285
-0.34
-0.34
-0.295
-0.375
-0.46
-0.305
-0.305
-0.375
-0.33
-0.325
-0.38
-0.39
-0.37
-0.29
-0.355
-0.285
-0.38
-0.455
-0.295
-0.31
-0.38
-0.36
-0.405
-0.365
-0.365
-0.365
-0.33
-0.25
-0.315
-0.34
-0.305
-0.37
-0.425
-0.38
-0.375
-0.375
-0.37
-0.37
-0.33
-0.275
-0.375
-0.32
-0.42
-0.345
-0.34
-0.33
-0.365
-0.425
-0.275
-0.33
-0.385
-0.33
-0.315
-0.28
-0.29
-0.395
-0.325
-0.275
-0.33
-0.385
-0.335
-0.31
-0.44
-0.395
-0.365
-0.35
-0.335
-0.315
-0.295
-0.285
-0.37
-0.32
-0.37
-0.41
-0.31
-0.295
-0.38
-0.25
-0.27
-0.275
-0.375
-0.355
-0.355
-0.31
-0.375
-0.365
-0.305
-0.375
-0.36
-0.39
-0.34
-0.21
-0.39
-0.47
-0.27
-0.26
-0.335
-0.27
-0.33
-0.38
-0.395
-0.355
-0.285
-0.345
-0.29
-0.345
-0.35
-0.28
-0.315
-0.375
-0.365
-0.315
-0.245
-0.3
-0.3
-0.295
-0.36
-0.325
-0.315
-0.375
-0.28
-0.34
-0.37
-0.38
-0.35
-0.4
-0.335
-0.39
-0.41
-0.31
-0.3
-0.35
-0.32
-0.335
-0.315
-0.37
-0.395
-0.415
-0.39
-0.365
-0.345
-0.325
-0.39
-0.425
-0.37
-0.315
-0.42
-0.265
-0.345
-0.455
-0.385
-0.43
-0.345
-0.38
-0.42
-0.375
-0.38
-0.32
-0.325
-0.605
-0.505
-0.355
-0.415
-0.415
-0.33
-0.13
-0.07
0.07
0.115
0.235
0.33
0.435
0.525
0.355
0.19
0.03
-0.18
-0.255
-0.205
-0.27
-0.405
-0.305
-0.38
-0.365
-0.38
-0.285
-0.345
-0.34
-0.33
-0.335
-0.375
-0.405
-0.405
-0.42
-0.315
-0.38
-0.425
-0.43
-0.375
-0.35
-0.46
-0.38
-0.4
-0.385
-0.355
-0.36
-0.37
-0.41
-0.375
-0.425
-0.34
-0.38
-0.375
-0.5
-0.395
-0.36
-0.35
-0.46
-0.385
-0.335
-0.38
-0.39
-0.4
-0.32
-0.305
-0.37
-0.355
-0.385
-0.365
-0.405
-0.4
-0.42
-0.375
-0.41
-0.455
-0.355
-0.295
-0.345
-0.345
-0.405
-0.375
-0.355
-0.475
-0.385
-0.4
-0.43
-0.365
-0.255
-0.36
-0.395
-0.32
-0.305
-0.44
-0.435
-0.365
-0.355
-0.32
-0.325
-0.395
-0.37
-0.325
-0.325
-0.36
-0.335
-0.37
-0.34
-0.33
-0.34
-0.195
-0.295
-0.28
-0.195
-0.29
-0.3
-0.25
-0.24
-0.25
-0.315
-0.32
-0.245
-0.195
-0.245
-0.3
-0.27
-0.21
-0.205
-0.21
-0.25
-0.2
-0.26
-0.16
-0.175
-0.25
-0.285
-0.255
-0.235
-0.215
-0.13
-0.235
-0.255
-0.23
-0.175
-0.275
-0.28
-0.355
-0.33
-0.235
-0.315
-0.325
-0.38
-0.265
-0.295
-0.43
-0.34
-0.37
-0.25
-0.34
-0.32
-0.415
-0.355
-0.325
-0.405
-0.355
-0.32
-0.315
-0.405
-0.45
-0.33
-0.335
-0.315
-0.285
-0.375
-0.5
-0.44
-0.355
-0.365
-0.355
-0.35
-0.33
-0.375
-0.37
-0.32
-0.455
-0.4
-0.365
-0.365
-0.34
-0.4
-0.3
-0.35
-0.38
-0.39
-0.42
-0.4
-0.345
-0.37
-0.415
-0.365
-0.425
-0.41
-0.385
-0.31
-0.37
-0.43
-0.36
-0.365
-0.355
-0.33
-0.45
-0.435
-0.38
-0.345
-0.375
-0.425
-0.375
-0.355
-0.38
-0.345
-0.205
-0.41
-0.425
-0.4
-0.405
-0.365
-0.285
-0.37
-0.305
-0.35
-0.5
-0.45
-0.32
-0.43
-0.345
-0.26
-0.39
-0.395
-0.395
-0.34
-0.39
-0.38
-0.35
-0.43
-0.26
-0.285
-0.39
-0.44
-0.33
-0.345
-0.365
-0.43
-0.325
-0.36
-0.395
-0.5
-0.395
-0.35
-0.285
-0.3
-0.34
-0.33
-0.37
-0.425
-0.41
-0.34
-0.34
-0.39
-0.37
-0.325
-0.325
-0.395
-0.37
-0.365
-0.28
-0.44
-0.48
-0.435
-0.445
-0.34
-0.35
-0.41
-0.355
-0.4
-0.415
-0.25
-0.41
-0.445
-0.35
-0.38
-0.35
-0.39
-0.36
-0.35
-0.4
-0.305
-0.39
-0.315
-0.355
-0.42
-0.375
-0.32
-0.45
-0.38
-0.315
-0.375
-0.39
-0.365
-0.34
-0.34
-0.31
-0.35
-0.29
-0.32
-0.445
-0.38
-0.33
-0.295
-0.28
-0.355
-0.335
-0.37
-0.37
-0.455
-0.4
-0.4
-0.39
-0.355
-0.36
-0.435
-0.35
-0.315
-0.39
-0.415
-0.28
-0.355
-0.385
-0.46
-0.405
-0.385
-0.34
-0.37
-0.49
-0.435
-0.33
-0.315
-0.48
-0.425
-0.41
-0.385
-0.395
-0.355
-0.335
-0.375
-0.445
-0.38
-0.375
-0.44
-0.36
-0.445
-0.475
-0.35
-0.45
-0.5
-0.53
-0.61
-0.475
-0.395
-0.365
-0.285
-0.055
0.08
0.04
0.155
0.24
0.3
0.32
0.335
0.265
0.22
-0.065
-0.155
-0.235
-0.355
-0.405
-0.39
-0.32
-0.37
-0.37
-0.395
-0.39
-0.3
-0.3
-0.385
-0.495
-0.32
-0.39
-0.41
-0.285
-0.37
-0.445
-0.42
-0.375
-0.425
-0.505
-0.465
-0.435
-0.385
-0.39
-0.43
-0.41
-0.355
-0.39
-0.41
-0.52
-0.38
-0.415
-0.445
-0.425
-0.43
-0.3
-0.365
-0.475
-0.53
-0.305
-0.335
-0.49
-0.375
-0.425
-0.43
-0.465
-0.35
-0.33
-0.375
-0.455
-0.42
-0.37
-0.305
-0.345
-0.475
-0.43
-0.305
-0.42
-0.43
-0.405
-0.395
-0.385
-0.395
-0.47
-0.38
-0.445
-0.365
-0.39
-0.375
-0.47
-0.485
-0.275
-0.405
-0.37
-0.34
-0.33
-0.315
-0.365
-0.375
-0.38
-0.495
-0.455
-0.27
-0.34
-0.37
-0.295
-0.445
-0.325
-0.255
-0.32
-0.335
-0.31
-0.3
-0.235
-0.35
-0.355
-0.295
-0.24
-0.305
-0.305
-0.29
-0.23
-0.225
-0.245
-0.235
-0.26
-0.21
-0.24
-0.285
-0.235
-0.29
-0.24
-0.17
-0.315
-0.27
-0.2
-0.27
-0.3
-0.245
-0.19
-0.24
-0.325
-0.245
-0.27
-0.365
-0.355
-0.36
-0.335
-0.345
-0.305
-0.31
-0.345
-0.34
-0.305
-0.365
-0.365
-0.36
-0.32
-0.335
-0.445
-0.475
-0.31
-0.345
-0.35
-0.31
-0.37
-0.405
-0.4
-0.385
-0.355
-0.455
-0.385
-0.285
-0.305
-0.305
-0.31
-0.455
-0.52
-0.365
-0.33
-0.325
-0.415
-0.4
-0.4
-0.37
-0.435
-0.44
-0.4
-0.405
-0.455
-0.45
-0.36
-0.365
-0.4
-0.31
-0.365
-0.37
-0.42
-0.37
-0.35
-0.355
-0.355
-0.39
-0.39
-0.385
-0.39
-0.43
-0.36
-0.43
-0.405
-0.3
-0.445
-0.27
-0.435
-0.415
-0.38
-0.385
-0.325
-0.235
-0.38
-0.365
-0.45
-0.35
-0.41
-0.375
-0.36
-0.415
-0.32
-0.325
-0.385
-0.505
-0.48
-0.325
-0.335
-0.375
-0.35
-0.385
-0.29
-0.27
-0.345
-0.42
-0.36
-0.345
-0.355
-0.355
-0.365
-0.35
-0.45
-0.33
-0.315
-0.37
-0.4
-0.37
-0.33
-0.39
-0.41
-0.37
-0.315
-0.32
-0.385
-0.43
-0.345
-0.355
-0.385
-0.38
-0.38
-0.36
-0.34
-0.41
-0.4
-0.36
-0.27
-0.37
-0.335
-0.32
-0.395
-0.42
-0.41
-0.415
-0.43
-0.375
-0.29
-0.32
-0.365
-0.29
-0.355
-0.37
-0.385
-0.45
-0.33
-0.425
-0.435
-0.255
-0.21
-0.315
-0.38
-0.3
-0.325
-0.38
-0.435
-0.39
-0.245
-0.305
-0.29
-0.315
-0.345
-0.35
-0.27
-0.32
-0.36
-0.31
-0.27
-0.35
-0.39
-0.4
-0.345
-0.44
-0.345
-0.365
-0.44
-0.38
-0.33
-0.37
-0.36
-0.37
-0.375
-0.39
-0.395
-0.37
-0.365
-0.335
-0.285
-0.31
-0.455
-0.435
-0.345
-0.33
-0.395
-0.415
-0.375
-0.37
-0.435
-0.425
-0.365
-0.39
-0.4
-0.36
-0.39
-0.365
-0.365
-0.47
-0.405
-0.42
-0.355
-0.42
-0.51
-0.555
-0.48
-0.465
-0.48
-0.345
-0.35
-0.255
-0.145
-0.005
0.05
0.18
0.245
0.375
0.355
0.32
0.325
0.135
-0.04
-0.21
-0.19
-0.215
-0.36
-0.3
-0.345
-0.385
-0.375
-0.28
-0.3
-0.335
-0.365
-0.45
-0.4
-0.445
-0.415
-0.345
-0.425
-0.495
-0.365
-0.44
-0.405
-0.41
-0.395
-0.41
-0.385
-0.325
-0.455
-0.45
-0.41
-0.405
-0.465
-0.42
-0.375
-0.45
-0.42
-0.39
-0.375
-0.295
-0.44
-0.435
-0.345
-0.38
-0.3
-0.405
-0.41
-0.36
-0.345
-0.335
-0.46
-0.39
-0.43
-0.325
-0.475
-0.455
-0.375
-0.34
-0.325
-0.405
-0.365
-0.395
-0.395
-0.325
-0.405
-0.39
-0.325
-0.41
-0.435
-0.385
-0.375
-0.445
-0.435
-0.43
-0.36
-0.305
-0.295
-0.295
-0.34
-0.36
-0.39
-0.37
-0.42
-0.355
-0.325
-0.315
-0.255
-0.275
-0.295
-0.3
-0.265
-0.35
-0.385
-0.31
-0.3
-0.275
-0.375
-0.34
-0.325
-0.22
-0.25
-0.22
-0.27
-0.27
-0.3
-0.285
-0.16
-0.21
-0.2
-0.235
-0.225
-0.245
-0.165
-0.205
-0.26
-0.275
-0.285
-0.26
-0.2
-0.24
-0.15
-0.275
-0.305
-0.285
-0.27
-0.235
-0.15
-0.26
-0.245
-0.225
-0.285
-0.33
-0.29
-0.235
-0.34
-0.385
-0.32
-0.345
-0.31
-0.33
-0.335
-0.36
-0.285
-0.3
-0.33
-0.415
-0.38
-0.39
-0.33
-0.34
-0.395
-0.425
-0.41
-0.375
-0.315
-0.355
-0.36
-0.305
-0.345
-0.37
-0.37
-0.415
-0.41
-0.295
-0.315
-0.34
-0.325
-0.36
-0.39
-0.325
-0.32
-0.355
-0.39
-0.375
-0.35
-0.39
-0.34
-0.345
-0.395
-0.405
-0.39
-0.44
-0.345
-0.315
-0.395
-0.395
-0.38
-0.335
-0.38
-0.35
-0.38
-0.435
-0.4
-0.325
-0.345
-0.275
-0.235
-0.305
-0.42
-0.36
-0.4
-0.495
-0.445
-0.37
-0.43
-0.31
-0.275
-0.43
-0.295
-0.35
-0.285
-0.3
-0.315
-0.315
-0.35
-0.385
-0.375
-0.33
-0.3
-0.35
-0.33
-0.3
-0.29
-0.335
-0.37
-0.355
-0.355
-0.32
-0.35
-0.345
-0.34
-0.38
-0.33
-0.335
-0.355
-0.345
-0.365
-0.33
-0.33
-0.385
-0.25
-0.27
-0.395
-0.35
-0.29
-0.205
-0.26
-0.375
-0.33
-0.255
-0.375
-0.41
-0.45
-0.42
-0.29
-0.27
-0.25
-0.37
-0.31
-0.435
-0.365
-0.375
-0.325
-0.32
-0.315
-0.315
-0.31
-0.335
-0.26
-0.27
-0.355
-0.44
-0.395
-0.275
-0.31
-0.385
-0.345
-0.255
-0.32
-0.32
-0.315
-0.36
-0.315
-0.26
-0.345
-0.32
-0.325
-0.3
-0.3
-0.32
-0.385
-0.35
-0.28
-0.285
-0.295
-0.255
-0.305
-0.335
-0.335
-0.43
-0.395
-0.375
-0.3
-0.375
-0.365
-0.3
-0.315
-0.32
-0.35
-0.33
-0.39
-0.4
-0.37
-0.355
-0.375
-0.255
-0.31
-0.365
-0.405
-0.335
-0.37
-0.32
-0.37
-0.425
-0.355
-0.385
-0.415
-0.44
-0.31
-0.215
-0.26
-0.38
-0.415
-0.415
-0.275
-0.325
-0.385
-0.465
-0.485
-0.465
-0.445
-0.355
-0.3
-0.24
-0.115
0.01
0.075
0.255
0.325
0.415
0.46
0.355
0.23
0.13
0.035
-0.105
-0.245
-0.36
-0.35
-0.38
-0.335
-0.335
-0.36
-0.37
-0.3
-0.305
-0.37
-0.31
-0.32
-0.285
-0.34
-0.415
-0.45
-0.38
-0.39
-0.34
-0.325
-0.33
-0.34
-0.35
-0.405
-0.355
-0.39
-0.43
-0.36
-0.4
-0.445
-0.355
-0.35
-0.315
-0.34
-0.43
-0.365
-0.4
-0.325
-0.21
-0.335
-0.365
-0.34
-0.345
-0.365
-0.415
-0.45
-0.39
-0.345
-0.28
-0.39
-0.395
-0.37
-0.355
-0.33
-0.46
-0.375
-0.33
-0.3
-0.285
-0.285
-0.345
-0.435
-0.365
-0.33
-0.32
-0.345
-0.445
-0.36
-0.315
-0.385
-0.43
-0.36
-0.435
-0.38
-0.35
-0.41
-0.375
-0.285
-0.255
-0.245
-0.235
-0.245
-0.36
-0.335
-0.34
-0.335
-0.26
-0.21
-0.255
-0.325
-0.19
-0.22
-0.35
-0.285
-0.245
-0.235
-0.29
-0.295
-0.19
-0.165
-0.22
-0.145
-0.29
-0.275
-0.205
-0.18
-0.27
-0.24
-0.225
-0.22
-0.195
-0.15
-0.165
-0.275
-0.28
-0.18
-0.145
-0.22
-0.22
-0.225
-0.215
-0.29
-0.235
-0.24
-0.135
-0.23
-0.3
-0.25
-0.345
-0.28
-0.26
-0.37
-0.255
-0.245
-0.29
-0.335
-0.295
-0.31
-0.38
-0.4
-0.305
-0.315
-0.285
-0.265
-0.325
-0.275
-0.415
-0.37
-0.405
-0.28
-0.305
-0.29
-0.335
-0.33
-0.365
-0.345
-0.35
-0.305
-0.295
-0.385
-0.43
-0.29
-0.315
-0.315
-0.375
-0.375
-0.37
-0.33
-0.32
-0.32
-0.315
-0.36
-0.38
-0.34
-0.305
-0.33
-0.365
-0.25
-0.285
-0.31
-0.43
-0.38
-0.325
-0.44
-0.46
-0.48
-0.35
-0.37
-0.42
-0.4
-0.335
-0.35
-0.36
-0.295
-0.405
-0.38
-0.385
-0.385
-0.26
-0.215
-0.285
-0.335
-0.325
-0.325
-0.335
-0.31
-0.24
-0.355
-0.335
-0.315
-0.355
-0.41
-0.315
-0.34
-0.29
-0.255
-0.335
-0.355
-0.32
-0.365
-0.325
-0.295
-0.37
-0.32
-0.32
-0.375
-0.395
-0.36
-0.29
-0.26
-0.345
-0.445
-0.34
-0.305
-0.335
-0.31
-0.32
-0.37
-0.245
-0.31
-0.33
-0.355
-0.365
-0.32
-0.395
-0.36
-0.335
-0.31
-0.37
-0.31
-0.305
-0.42
-0.34
-0.37
-0.38
-0.26
-0.325
-0.26
-0.32
-0.355
-0.33
-0.325
-0.425
-0.285
-0.305
-0.37
-0.365
-0.29
-0.27
-0.295
-0.275
-0.335
-0.305
-0.33
-0.42
-0.305
-0.26
-0.315
-0.225
-0.305
-0.25
-0.34
-0.32
-0.3
-0.37
-0.31
-0.325
-0.295
-0.3
-0.365
-0.335
-0.37
-0.33
-0.35
-0.37
-0.36
-0.315
-0.285
-0.33
-0.33
-0.43
-0.31
-0.335
-0.35
-0.525
-0.32
-0.3
-0.335
-0.35
-0.36
-0.355
-0.385
-0.37
-0.35
-0.365
-0.315
-0.31
-0.28
-0.315
-0.335
-0.34
-0.345
-0.265
-0.32
-0.365
-0.35
-0.305
-0.45
-0.48
-0.54
-0.455
-0.475
-0.445
-0.41
-0.325
-0.265
-0.1
-0.01
0.11
0.19
0.25
0.47
0.51
0.37
0.28
0.145
0.075
-0.01
-0.125
-0.225
-0.33
-0.375
-0.355
-0.32
-0.305
-0.305
-0.34
-0.305
-0.24
-0.285
-0.395
-0.4
-0.365
-0.38
-0.335
-0.325
-0.325
-0.415
-0.36
-0.375
-0.455
-0.42
-0.325
-0.315
-0.355
-0.315
-0.365
-0.34
-0.37
-0.345
-0.385
-0.38
-0.435
-0.415
-0.535
-0.31
-0.28
-0.375
-0.345
-0.325
-0.35
-0.38
-0.39
-0.385
-0.375
-0.37
-0.315
-0.35
-0.415
-0.325
-0.435
-0.41
-0.385
-0.335
-0.35
-0.325
-0.34
-0.26
-0.36
-0.375
-0.415
-0.365
-0.37
-0.355
-0.43
-0.235
-0.38
-0.32
-0.21
-0.3
-0.415
-0.345
-0.3
-0.355
-0.285
-0.28
-0.37
-0.4
-0.295
-0.375
-0.4
-0.305
-0.24
-0.315
-0.305
-0.28
-0.255
-0.26
-0.305
-0.325
-0.31
-0.275
-0.26
-0.33
-0.255
-0.23
-0.225
-0.19
-0.27
-0.305
-0.28
-0.27
-0.18
-0.185
-0.225
-0.195
-0.235
-0.16
-0.245
-0.19
-0.21
-0.265
-0.23
-0.235
-0.21
-0.19
-0.235
-0.25
-0.26
-0.16
-0.155
-0.21
-0.285
-0.285
-0.24
-0.2
-0.24
-0.28
-0.205
-0.285
-0.245
-0.295
-0.345
-0.29
-0.3
-0.29
-0.255
-0.285
-0.35
-0.355
-0.365
-0.31
-0.32
-0.39
-0.32
-0.31
-0.345
-0.315
-0.265
-0.41
-0.34
-0.31
-0.39
-0.35
-0.365
-0.375
-0.395
-0.29
-0.325
-0.425
-0.33
-0.365
-0.39
-0.33
-0.3
-0.36
-0.36
-0.32
-0.31
-0.25
-0.335
-0.36
-0.465
-0.41
-0.285
-0.345
-0.365
-0.34
-0.4
-0.375
-0.335
-0.31
-0.3
-0.33
-0.34
-0.335
-0.365
-0.345
-0.255
-0.34
-0.365
-0.4
-0.4
-0.415
-0.325
-0.355
-0.44
-0.3
-0.28
-0.325
-0.4
-0.375
-0.34
-0.395
-0.385
-0.33
-0.29
-0.335
-0.33
-0.32
-0.24
-0.37
-0.385
-0.35
-0.385
-0.265
-0.345
-0.355
-0.305
-0.33
-0.345
-0.37
-0.375
-0.35
-0.265
-0.31
-0.32
-0.32
-0.28
-0.355
-0.325
-0.395
-0.43
-0.315
-0.295
-0.265
-0.34
-0.37
-0.385
-0.395
-0.375
-0.37
-0.4
-0.38
-0.325
-0.31
-0.375
-0.375
-0.335
-0.355
-0.295
-0.345
-0.34
-0.435
-0.315
-0.395
-0.28
-0.265
-0.34
-0.31
-0.29
-0.295
-0.31
-0.405
-0.405
-0.465
-0.415
-0.25
-0.28
-0.31
-0.335
-0.315
-0.31
-0.275
-0.265
-0.3
-0.345
-0.25
-0.36
-0.33
-0.21
-0.175
-0.285
-0.295
-0.335
-0.37
-0.36
-0.385
-0.39
-0.315
-0.43
-0.365
-0.38
-0.385
-0.335
-0.375
-0.365
-0.385
-0.36
-0.36
-0.365
-0.385
-0.405
-0.405
-0.375
-0.365
-0.31
-0.3
-0.35
-0.435
-0.405
-0.4
-0.41
-0.415
-0.39
-0.345
-0.365
-0.37
-0.385
-0.375
-0.345
-0.425
-0.445
-0.41
-0.36
-0.34
-0.405
-0.41
-0.475
-0.385
-0.43
-0.365
-0.09
-0.135
-0.015
0.11
0.145
0.235
0.335
0.405
0.28
0.265
0.06
-0.01
-0.15
-0.175
-0.355
-0.39
-0.33
-0.36
-0.4
-0.34
-0.415
-0.39
-0.36
-0.315
-0.4
-0.415
-0.405
-0.46
-0.51
-0.415
-0.275
-0.415
-0.39
-0.425
-0.325
-0.38
-0.375
-0.4
-0.45
-0.45
-0.405
-0.43
-0.445
-0.405
-0.37
-0.425
-0.475
-0.37
-0.42
-0.415
-0.405
-0.435
-0.425
-0.44
-0.395
-0.42
-0.39
-0.345
-0.465
-0.455
-0.415
-0.415
-0.505
-0.42
-0.26
-0.29
-0.365
-0.435
-0.46
-0.42
-0.38
-0.33
-0.4
-0.43
-0.365
-0.405
-0.425
-0.31
-0.465
-0.445
-0.435
-0.455
-0.41
-0.39
-0.415
-0.46
-0.395
-0.435
-0.31
-0.38
-0.305
-0.385
-0.41
-0.39
-0.38
-0.38
-0.42
-0.375
-0.39
-0.28
-0.255
-0.305
-0.285
-0.44
-0.375
-0.28
-0.325
-0.355
-0.32
-0.3
-0.325
-0.3
-0.29
-0.31
-0.325
-0.31
-0.28
-0.235
-0.2
-0.24
-0.215
-0.21
-0.265
-0.245
-0.245
-0.335
-0.26
-0.33
-0.205
-0.23
-0.28
-0.245
-0.345
-0.38
-0.3
-0.295
-0.32
-0.29
-0.23
-0.375
-0.325
-0.25
-0.35
-0.365
-0.27
-0.34
-0.42
-0.34
-0.36
-0.36
-0.39
-0.43
-0.445
-0.395
-0.33
-0.36
-0.33
-0.36
-0.38
-0.415
-0.42
-0.4
-0.35
-0.355
-0.445
-0.425
-0.395
-0.4
-0.43
-0.4
-0.43
-0.505
-0.345
-0.315
-0.445
-0.47
-0.43
-0.425
-0.39
-0.36
-0.38
-0.415
-0.475
-0.49
-0.445
-0.44
-0.43
-0.41
-0.455
-0.465
-0.445
-0.47
-0.395
-0.37
-0.445
-0.46
-0.47
-0.435
-0.375
-0.405
-0.45
-0.465
-0.39
-0.45
-0.43
-0.45
-0.39
-0.44
-0.465
-0.56
-0.435
-0.33
-0.405
-0.32
-0.355
-0.445
-0.495
-0.385
-0.39
-0.465
-0.515
-0.51
-0.435
-0.37
-0.37
-0.415
-0.435
-0.455
-0.455
-0.375
-0.39
-0.355
-0.335
-0.485
-0.465
-0.44
-0.49
-0.335
-0.355
-0.385
-0.42
-0.38
-0.44
-0.535
-0.44
-0.275
-0.34
-0.46
-0.405
-0.47
-0.465
-0.44
-0.45
-0.53
-0.525
-0.435
-0.4
-0.42
-0.37
-0.395
-0.415
-0.37
-0.425
-0.46
-0.425
-0.4
-0.46
-0.42
-0.36
-0.31
-0.365
-0.37
-0.31
-0.395
-0.39
-0.465
-0.515
-0.48
-0.405
-0.41
-0.365
-0.355
-0.365
-0.405
-0.4
-0.37
-0.405
-0.255
-0.455
-0.335
-0.415
-0.4
-0.415
-0.365
-0.45
-0.44
-0.495
-0.38
-0.365
-0.395
-0.41
-0.5
-0.445
-0.435
-0.46
-0.375
-0.475
-0.42
-0.41
-0.43
-0.445
-0.46
-0.505
-0.455
-0.515
-0.46
-0.38
-0.34
-0.42
-0.46
-0.47
-0.46
-0.51
-0.49
-0.45
-0.41
-0.425
-0.345
-0.47
-0.49
-0.45
-0.425
-0.445
-0.495
-0.525
-0.535
-0.48
-0.515
-0.565
-0.58
-0.62
-0.48
-0.345
-0.34
-0.245
-0.065
0.075
0.11
0.225
0.305
0.35
0.34
0.26
0.18
-0.095
-0.2
-0.335
-0.4
-0.42
-0.415
-0.29
-0.31
-0.47
-0.425
-0.435
-0.42
-0.505
-0.405
-0.385
-0.45
-0.53
-0.465
-0.42
-0.44
-0.51
-0.56
-0.535
-0.47
-0.49
-0.515
-0.395
-0.435
-0.515
-0.465
-0.44
-0.495
-0.57
-0.455
-0.44
-0.43
-0.45
-0.435
-0.43
-0.495
-0.475
-0.46
-0.46
-0.41
-0.365
-0.475
-0.54
-0.545
-0.49
-0.415
-0.48
-0.42
-0.425
-0.38
-0.46
-0.51
-0.485
-0.415
-0.435
-0.43
-0.41
-0.44
-0.36
-0.415
-0.45
-0.465
-0.505
-0.465
-0.35
-0.405
-0.445
-0.46
-0.45
-0.47
-0.445
-0.405
-0.355
-0.49
-0.455
-0.455
-0.42
-0.415
-0.415
-0.43
-0.43
-0.37
-0.42
-0.38
-0.38
-0.385
-0.44
-0.42
-0.33
-0.425
-0.39
-0.325
-0.31
-0.33
-0.36
-0.365
-0.32
-0.39
-0.325
-0.295
-0.355
-0.39
-0.345
-0.31
-0.255
-0.33
-0.25
-0.33
-0.315
-0.25
-0.285
-0.305
-0.23
-0.295
-0.29
-0.31
-0.3
-0.27
-0.315
-0.355
-0.3
-0.31
-0.275
-0.285
-0.355
-0.31
-0.4
-0.45
-0.315
-0.34
-0.405
-0.355
-0.375
-0.375
-0.4
-0.43
-0.44
-0.38
-0.325
-0.34
-0.465
-0.405
-0.395
-0.395
-0.41
-0.42
-0.34
-0.395
-0.35
-0.385
-0.39
-0.495
-0.525
-0.44
-0.445
-0.465
-0.51
-0.42
-0.44
-0.415
-0.315
-0.345
-0.375
-0.485
-0.465
-0.475
-0.465
-0.495
-0.455
-0.35
-0.36
-0.35
-0.485
-0.5
-0.47
-0.435
-0.395
-0.355
-0.455
-0.505
-0.475
-0.32
-0.435
-0.485
-0.415
-0.46
-0.44
-0.46
-0.36
-0.4
-0.425
-0.42
-0.41
-0.455
-0.405
-0.37
-0.42
-0.4
-0.36
-0.405
-0.32
-0.33
-0.42
-0.45
-0.395
-0.44
-0.5
-0.41
-0.415
-0.365
-0.38
-0.375
-0.395
-0.49
-0.37
-0.34
-0.34
-0.375
-0.365
-0.49
-0.38
-0.22
-0.35
-0.385
-0.425
-0.44
-0.4
-0.4
-0.435
-0.455
-0.385
-0.325
-0.34
-0.415
-0.445
-0.415
-0.47
-0.425
-0.36
-0.41
-0.43
-0.435
-0.42
-0.405
-0.425
-0.36
-0.475
-0.345
-0.375
-0.435
-0.345
-0.41
-0.48
-0.5
-0.34
-0.365
-0.34
-0.36
-0.325
-0.3
-0.305
-0.37
-0.405
-0.31
-0.45
-0.39
-0.415
-0.33
-0.385
-0.365
-0.315
-0.27
-0.34
-0.33
-0.41
-0.415
-0.29
-0.245
-0.325
-0.35
-0.335
-0.375
-0.365
-0.325
-0.285
-0.4
-0.555
-0.475
-0.355
-0.345
-0.385
-0.365
-0.36
-0.42
-0.345
-0.265
-0.435
-0.465
-0.445
-0.4
-0.385
-0.41
-0.39
-0.465
-0.415
-0.405
-0.38
-0.36
-0.41
-0.38
-0.36
-0.415
-0.435
-0.435
-0.375
-0.395
-0.43
-0.435
-0.445
-0.49
-0.52
-0.55
-0.455
-0.44
-0.47
-0.405
-0.255
-0.03
-0.005
0.065
0.205
0.29
0.29
0.4
0.405
0.245
0.175
0.04
-0.06
-0.22
-0.275
-0.32
-0.36
-0.32
-0.355
-0.38
-0.37
-0.325
-0.33
-0.345
-0.355
-0.29
-0.385
-0.385
-0.405
-0.32
-0.39
-0.405
-0.45
-0.375
-0.44
-0.34
-0.38
-0.4
-0.425
-0.48
-0.45
-0.445
-0.41
-0.35
-0.37
-0.4
-0.355
-0.41
-0.41
-0.405
-0.36
-0.395
-0.405
-0.335
-0.285
-0.335
-0.41
-0.41
-0.405
-0.405
-0.36
-0.27
-0.355
-0.41
-0.385
-0.315
-0.37
-0.355
-0.42
-0.36
-0.38
-0.33
-0.365
-0.545
-0.33
-0.405
-0.35
-0.365
-0.37
-0.37
-0.28
-0.335
-0.4
-0.305
-0.4
-0.37
-0.405
-0.3
-0.36
-0.335
-0.38
-0.345
-0.28
-0.27
-0.26
-0.325
-0.395
-0.42
-0.28
-0.275
-0.31
-0.275
-0.315
-0.33
-0.355
-0.33
-0.36
-0.145
-0.145
-0.245
-0.285
-0.23
-0.29
-0.23
-0.35
-0.26
-0.215
-0.285
-0.185
-0.16
-0.185
-0.125
-0.215
-0.225
-0.21
-0.23
-0.18
-0.21
-0.225
-0.21
-0.19
-0.16
-0.18
-0.18
-0.22
-0.24
-0.19
-0.27
-0.315
-0.215
-0.145
-0.245
-0.185
-0.29
-0.265
-0.305
-0.29
-0.265
-0.255
-0.27
-0.305
-0.35
-0.325
-0.245
-0.355
-0.435
-0.275
-0.27
-0.385
-0.39
-0.305
-0.295
-0.23
-0.28
-0.335
-0.29
-0.345
-0.295
-0.415
-0.325
-0.195
-0.285
-0.375
-0.385
-0.375
-0.33
-0.32
-0.33
-0.315
-0.365
-0.24
-0.27
-0.295
-0.36
-0.385
-0.365
-0.33
-0.32
-0.335
-0.27
-0.245
-0.29
-0.31
-0.425
-0.355
-0.37
-0.365
-0.355
-0.315
-0.26
-0.285
-0.32
-0.27
-0.31
-0.315
-0.32
-0.35
-0.35
-0.38
-0.295
-0.235
-0.38
-0.335
-0.325
-0.345
-0.3
-0.265
-0.255
-0.26
-0.325
-0.345
-0.355
-0.325
-0.33
-0.295
-0.375
-0.285
-0.25
-0.335
-0.285
-0.27
-0.27
-0.315
-0.345
-0.345
-0.34
-0.25
-0.17
-0.23
-0.265
-0.19
-0.275
-0.34
-0.225
-0.32
-0.38
-0.415
-0.3
-0.28
-0.145
-0.235
-0.315
-0.32
-0.325
-0.25
-0.29
-0.325
-0.255
-0.33
-0.385
-0.285
-0.245
-0.295
-0.305
-0.31
-0.32
-0.135
-0.255
-0.275
-0.245
-0.185
-0.24
-0.255
-0.2
-0.3
-0.285
-0.245
-0.31
-0.275
-0.225
-0.265
-0.24
-0.265
-0.23
-0.305
-0.295
-0.3
-0.255
-0.245
-0.295
-0.315
-0.28
-0.305
-0.24
-0.26
-0.335
-0.315
-0.35
-0.31
-0.3
-0.305
-0.285
-0.34
-0.385
-0.35
-0.3
-0.235
-0.235
-0.325
-0.295
-0.325
-0.355
-0.25
-0.15
-0.21
-0.265
-0.265
-0.265
-0.275
-0.225
-0.25
-0.27
-0.295
-0.33
-0.33
-0.34
-0.325
-0.425
-0.4
-0.395
-0.445
-0.385
-0.38
-0.36
-0.275
-0.07
0.09
0.115
0.25
0.38
0.495
0.56
0.485
0.4
0.31
0.105
0.005
-0.075
-0.195
-0.23
-0.305
-0.18
-0.315
-0.33
-0.25
-0.25
-0.21
-0.28
-0.31
-0.275
-0.26
-0.285
-0.22
-0.28
-0.31
-0.355
-0.32
-0.31
-0.315
-0.255
-0.24
-0.265
-0.41
-0.31
-0.335
-0.415
-0.275
-0.275
-0.265
-0.255
-0.18
-0.34
-0.295
-0.305
-0.27
-0.285
-0.31
-0.34
-0.215
-0.3
-0.33
-0.27
-0.3
-0.36
-0.335
-0.3
-0.305
-0.24
-0.22
-0.245
-0.32
-0.325
-0.305
-0.31
-0.285
-0.285
-0.27
-0.315
-0.27
-0.21
-0.27
-0.23
-0.1
-0.28
-0.355
-0.255
-0.185
-0.17
-0.27
-0.4
-0.29
-0.245
-0.275
-0.28
-0.28
-0.32
-0.295
-0.25
-0.165
-0.21
-0.215
-0.25
-0.255
-0.215
-0.25
-0.24
-0.275
-0.24
-0.17
-0.195
-0.165
-0.175
-0.21
-0.205
-0.065
-0.12
-0.14
-0.17
-0.205
-0.11
-0.075
-0.125
-0.18
-0.085
-0.11
-0.07
-0.165
-0.17
-0.1
-0.03
-0.06
-0.125
-0.165
-0.045
-0.1
-0.18
-0.13
-0.075
-0.18
-0.185
-0.155
-0.07
-0.17
-0.245
-0.12
-0.185
-0.195
-0.17
-0.2
-0.135
-0.105
-0.155
-0.29
-0.19
-0.01
-0.13
-0.315
-0.305
-0.185
-0.25
-0.255
-0.17
-0.275
-0.315
-0.255
-0.26
-0.215
-0.255
-0.275
-0.305
-0.28
-0.235
-0.185
-0.245
-0.205
-0.315
-0.24
-0.2
-0.255
-0.19
-0.265
-0.25
-0.25
-0.225
-0.25
-0.31
-0.315
-0.23
-0.155
-0.26
-0.22
-0.195
-0.24
-0.32
-0.295
-0.17
-0.305
-0.185
-0.245
-0.3
-0.28
-0.24
-0.275
-0.21
-0.165
-0.18
-0.33
-0.175
-0.205
-0.21
-0.245
-0.335
-0.27
-0.16
-0.23
-0.255
-0.27
-0.215
-0.16
-0.285
-0.24
-0.205
-0.225
-0.215
-0.195
-0.19
-0.22
-0.2
-0.28
-0.295
-0.17
-0.145
-0.25
-0.26
-0.25
-0.285
-0.245
-0.13
-0.24
-0.24
-0.225
-0.18
-0.265
-0.24
-0.225
-0.25
-0.29
-0.195
-0.215
-0.255
-0.225
-0.305
-0.2
-0.21
-0.21
-0.215
-0.24
-0.205
-0.205
-0.225
-0.255
-0.23
-0.195
-0.22
-0.15
-0.145
-0.17
-0.255
-0.16
-0.175
-0.16
-0.07
-0.25
-0.175
-0.185
-0.225
-0.23
-0.235
-0.155
-0.225
-0.155
-0.215
-0.22
-0.15
-0.145
-0.295
-0.245
-0.145
-0.175
-0.175
-0.205
-0.255
-0.235
-0.225
-0.095
-0.15
-0.25
-0.19
-0.18
-0.32
-0.27
-0.17
-0.2
-0.245
-0.235
-0.235
-0.175
-0.23
-0.245
-0.185
-0.19
-0.265
-0.335
-0.215
-0.235
-0.24
-0.235
-0.25
-0.245
-0.245
-0.245
-0.23
-0.26
-0.24
-0.225
-0.275
-0.205
-0.26
-0.225
-0.165
-0.26
-0.335
-0.335
-0.32
-0.275
-0.305
-0.23
-0.245
-0.145
-0.035
0.17
0.215
0.31
0.47
0.475
0.51
0.59
0.505
0.355
0.245
0.135
0.01
-0.105
-0.2
-0.205
-0.23
-0.13
-0.22
-0.22
-0.21
-0.125
-0.105
-0.225
-0.14
-0.2
-0.355
-0.39
-0.25
-0.18
-0.225
-0.25
-0.305
-0.285
-0.285
-0.215
-0.22
-0.265
-0.255
-0.255
-0.17
-0.29
-0.3
-0.155
-0.205
-0.245
-0.24
-0.305
-0.185
-0.19
-0.205
-0.245
-0.29
-0.135
-0.28
-0.23
-0.235
-0.205
-0.23
-0.255
-0.27
-0.22
-0.175
-0.225
-0.255
-0.23
-0.195
-0.215
-0.18
-0.205
-0.23
-0.16
-0.25
-0.255
-0.22
-0.155
-0.19
-0.15
-0.235
-0.265
-0.26
-0.24
-0.285
-0.205
-0.27
-0.17
-0.155
-0.14
-0.215
-0.115
-0.17
-0.235
-0.185
-0.115
-0.055
-0.245
-0.085
-0.045
-0.135
-0.295
-0.23
-0.18
-0.2
-0.22
-0.11
-0.145
-0.13
-0.125
-0.085
-0.07
-0.035
-0.115
-0.165
-0.09
-0.115
-0.125
-0.06
-0.085
-0.1
-0.08
-0.065
-0.035
-0.09
-0.1
0.01
-0.05
-0.02
0.03
-0.02
-0.12
-0.11
-0.02
-0.03
-0.045
-0.095
-0.115
-0.155
-0.165
-0.1
-0.07
-0.09
-0.13
-0.155
-0.11
-0.09
-0.19
-0.215
-0.075
-0.065
-0.14
-0.165
-0.16
-0.24
-0.23
-0.225
-0.165
-0.185
-0.145
-0.155
-0.165
-0.215
-0.165
-0.225
-0.24
-0.215
-0.335
-0.115
-0.14
-0.2
-0.24
-0.11
-0.085
-0.135
-0.185
-0.2
-0.185
-0.215
-0.135
-0.17
-0.205
-0.235
-0.275
-0.275
-0.13
-0.245
-0.18
-0.125
-0.12
-0.22
-0.2
-0.265
-0.27
-0.17
-0.125
-0.145
-0.12
-0.21
-0.325
-0.2
-0.22
-0.255
-0.23
-0.19
-0.225
-0.105
-0.15
-0.235
-0.225
-0.185
-0.21
-0.21
-0.255
-0.185
-0.18
-0.185
-0.245
-0.17
-0.21
-0.155
-0.2
-0.225
-0.105
-0.21
-0.215
-0.215
-0.165
-0.22
-0.18
-0.13
-0.115
-0.08
-0.245
-0.21
-0.105
-0.2
-0.145
-0.11
-0.085
-0.105
-0.145
-0.195
-0.205
-0.145
-0.185
-0.16
-0.12
-0.08
-0.27
-0.2
-0.24
-0.21
-0.24
-0.22
-0.17
-0.19
-0.21
-0.195
-0.125
-0.17
-0.235
-0.19
-0.25
-0.21
-0.22
-0.26
-0.08
-0.055
-0.14
-0.09
-0.12
-0.14
-0.13
-0.085
-0.05
-0.155
-0.165
-0.125
-0.14
-0.22
-0.04
-0.05
-0.055
-0.16
-0.225
-0.205
-0.165
-0.2
-0.22
-0.165
-0.215
-0.225
-0.14
-0.16
-0.165
-0.225
-0.21
-0.215
-0.17
-0.235
-0.18
-0.21
-0.135
-0.17
-0.225
-0.155
-0.185
-0.16
-0.175
-0.06
-0.11
-0.245
-0.25
-0.27
-0.18
-0.235
-0.18
-0.095
-0.195
-0.2
-0.21
-0.255
-0.175
-0.17
-0.145
-0.21
-0.23
-0.355
-0.38
-0.325
-0.23
-0.25
-0.09
-0.005
0.09
0.225
0.395
0.45
0.505
0.635
0.665
0.47
0.39
0.28
0.075
-0.01
-0.055
-0.135
-0.1
-0.175
-0.145
-0.2
-0.225
-0.16
-0.195
-0.21
-0.14
-0.145
-0.085
-0.17
-0.215
-0.235
-0.19
-0.215
-0.27
-0.195
-0.155
-0.185
-0.245
-0.23
-0.175
-0.18
-0.165
-0.18
-0.16
-0.25
-0.17
-0.225
-0.21
-0.175
-0.175
-0.275
-0.21
-0.24
-0.255
-0.145
-0.195
-0.24
-0.175
-0.25
-0.22
-0.245
-0.21
-0.17
-0.225
-0.2
-0.245
-0.17
-0.175
-0.155
-0.23
-0.22
-0.255
-0.2
-0.205
-0.2
-0.115
-0.2
-0.195
-0.185
-0.18
-0.185
-0.215
-0.195
-0.2
-0.155
-0.105
-0.18
-0.185
-0.15
-0.225
-0.205
-0.15
-0.095
-0.18
-0.18
-0.165
-0.115
-0.04
-0.155
-0.095
-0.23
-0.17
-0.14
-0.105
-0.135
-0.095
-0.09
-0.065
-0.09
-0.07
-0.105
-0.01
-0.01
-0.09
-0.05
-0.105
-0.105
-0.06
0.02
0.015
-0.02
-0.035
-0.045
-0.115
-0.07
-0.115
-0.06
0.02
-0.02
-0.065
-0.07
-0.03
-0.005
-0.045
-0.05
-0.065
-0.09
-0.14
-0.125
-0.085
-0.1
-0.07
-0.025
-0.055
-0.15
-0.115
-0.095
-0.12
-0.09
-0.115
-0.115
-0.15
-0.15
-0.145
-0.145
-0.145
-0.185
-0.16
-0.195
-0.185
-0.15
-0.195
-0.165
-0.205
-0.165
-0.1
-0.095
-0.15
-0.225
-0.26
-0.19
-0.09
-0.105
-0.115
-0.21
-0.185
-0.17
-0.1
-0.18
-0.245
-0.095
-0.1
-0.145
-0.17
-0.155
-0.16
-0.17
-0.1
-0.18
-0.16
-0.12
-0.18
-0.32
-0.2
-0.175
-0.17
-0.18
-0.2
-0.165
-0.245
-0.16
-0.17
-0.19
-0.175
-0.125
-0.31
-0.185
-0.225
-0.19
-0.16
-0.175
-0.195
-0.195
-0.23
-0.205
-0.135
-0.115
-0.175
-0.225
-0.205
-0.2
-0.155
-0.19
-0.165
-0.22
-0.27
-0.145
-0.11
-0.115
-0.195
-0.065
-0.065
-0.16
-0.1
-0.095
-0.24
-0.265
-0.105
-0.105
-0.23
-0.2
-0.165
-0.135
-0.19
-0.16
-0.13
-0.13
-0.19
-0.15
-0.155
-0.15
-0.2
-0.12
-0.115
-0.145
-0.225
-0.08
-0.155
-0.095
-0.025
0.0
-0.17
-0.135
-0.085
-0.215
-0.105
-0.155
-0.2
-0.18
-0.25
-0.12
-0.135
-0.17
-0.175
-0.135
-0.19
-0.105
-0.125
-0.14
-0.085
-0.165
-0.11
-0.12
-0.11
-0.115
-0.12
-0.13
-0.175
-0.07
-0.2
-0.25
-0.19
-0.195
-0.18
-0.16
-0.14
-0.14
-0.17
-0.165
-0.16
-0.245
-0.195
-0.23
-0.165
-0.145
-0.17
-0.19
-0.165
-0.14
-0.175
-0.195
-0.155
-0.115
-0.175
-0.215
-0.16
-0.16
-0.145
-0.265
-0.215
-0.285
-0.095
-0.04
-0.135
-0.13
-0.18
-0.265
-0.19
-0.335
-0.335
-0.305
-0.175
-0.32
-0.27
-0.115
0.02
0.095
0.28
0.335
0.465
0.505
0.6
0.665
0.685
0.435
0.35
0.115
0.11
-0.075
-0.06
-0.215
-0.155
-0.09
-0.135
-0.155
-0.175
-0.195
-0.205
-0.21
-0.185
-0.16
-0.18
-0.235
-0.17
-0.255
-0.18
-0.13
-0.26
-0.285
-0.19
-0.19
-0.205
-0.19
-0.17
-0.15
-0.19
-0.19
-0.14
-0.205
-0.195
-0.135
-0.19
-0.16
-0.145
-0.06
-0.21
-0.17
-0.02
-0.085
-0.265
-0.305
-0.25
-0.21
-0.185
-0.245
-0.005
-0.16
-0.13
-0.235
-0.205
-0.225
-0.22
-0.16
-0.13
-0.105
-0.12
-0.145
-0.19
-0.25
-0.295
-0.24
-0.175
-0.165
-0.18
-0.25
-0.19
-0.13
-0.2
-0.195
-0.165
-0.16
-0.175
-0.205
-0.185
-0.14
-0.145
-0.14
-0.09
-0.105
-0.135
-0.085
-0.135
-0.105
-0.11
-0.13
-0.095
-0.13
-0.19
-0.095
-0.07
-0.06
-0.035
-0.02
-0.075
-0.12
0.005
-0.045
-0.1
-0.035
-0.005
-0.04
-0.035
-0.03
0.03
-0.08
-0.02
-0.045
-0.045
-0.07
0.0
0.025
-0.02
-0.065
-0.04
-0.02
-0.025
0.075
0.01
-0.17
-0.1
-0.01
0.095
-0.045
-0.17
-0.18
-0.09
-0.06
-0.18
-0.12
-0.06
-0.11
-0.09
-0.185
-0.18
-0.17
-0.145
-0.12
-0.105
-0.15
-0.155
-0.135
-0.135
-0.17
-0.115
-0.105
-0.22
-0.15
-0.215
-0.24
-0.175
-0.1
-0.22
-0.17
-0.165
-0.135
-0.15
-0.09
-0.16
-0.14
-0.135
-0.135
-0.22
-0.19
-0.135
-0.07
-0.15
-0.215
-0.22
-0.08
-0.115
-0.17
-0.155
-0.155
-0.185
-0.19
-0.205
-0.195
-0.155
-0.135
-0.205
-0.245
-0.18
-0.15
-0.16
-0.24
-0.145
-0.295
-0.155
-0.145
-0.17
-0.24
-0.18
-0.08
-0.13
-0.225
-0.135
-0.15
-0.24
-0.17
-0.19
-0.22
-0.23
-0.145
-0.105
-0.19
-0.145
-0.235
-0.14
-0.12
-0.115
-0.125
-0.125
-0.19
-0.155
-0.185
-0.14
-0.235
-0.16
-0.12
-0.15
-0.23
-0.115
-0.155
-0.145
-0.14
-0.155
-0.165
-0.115
-0.175
-0.22
-0.265
-0.185
-0.22
-0.07
-0.095
-0.11
0.0
-0.17
-0.15
-0.115
-0.165
-0.18
-0.09
-0.05
-0.13
-0.1
-0.1
-0.195
-0.09
-0.14
-0.16
-0.245
-0.16
-0.11
-0.075
-0.075
-0.14
-0.155
-0.145
-0.16
-0.11
-0.02
0.01
-0.07
-0.185
-0.11
-0.045
-0.13
-0.105
-0.115
-0.165
-0.14
-0.095
-0.095
-0.115
-0.145
-0.23
-0.2
-0.175
-0.205
-0.17
-0.18
-0.17
-0.15
-0.19
-0.19
-0.175
-0.18
-0.115
-0.125
-0.125
-0.185
-0.105
-0.23
-0.08
-0.165
-0.115
-0.175
-0.24
-0.14
-0.105
-0.21
-0.155
-0.145
-0.1
-0.195
-0.18
-0.17
-0.28
-0.12
-0.075
-0.235
-0.265
-0.28
-0.32
-0.265
-0.335
-0.26
-0.155
-0.215
-0.05
-0.03
0.125
0.34
0.46
0.595
0.6
0.685
0.56
0.485
0.395
0.25
0.15
0.055
-0.06
-0.145
-0.18
-0.15
-0.145
-0.175
-0.16
-0.155
-0.12
-0.15
-0.15
-0.23
-0.26
-0.215
-0.155
-0.255
-0.175
-0.195
-0.17
-0.19
-0.21
-0.215
-0.235
-0.22
-0.32
-0.215
-0.03
-0.055
-0.31
-0.22
-0.19
-0.18
-0.205
-0.2
-0.175
-0.185
-0.135
-0.15
-0.255
-0.255
-0.23
-0.225
-0.26
-0.13
-0.095
-0.215
-0.27
-0.16
-0.175
-0.185
-0.15
-0.17
-0.23
-0.2
-0.265
-0.25
-0.18
-0.22
-0.145
-0.12
-0.18
-0.22
-0.2
-0.19
-0.205
-0.18
-0.165
-0.16
-0.2
-0.135
-0.105
-0.17
-0.185
-0.255
-0.1
-0.11
-0.155
-0.16
-0.1
-0.105
-0.16
-0.21
-0.185
-0.095
-0.115
-0.155
-0.055
-0.015
-0.095
-0.14
-0.11
-0.13
-0.045
-0.03
-0.085
-0.14
-0.085
-0.045
-0.01
-0.1
-0.075
-0.055
0.03
0.025
-0.09
-0.05
0.04
0.035
0.045
0.01
-0.015
0.0
-0.04
-0.085
-0.055
-0.06
-0.065
-0.02
-0.01
-0.02
0.025
-0.115
-0.01
-0.085
-0.055
-0.08
-0.095
-0.08
-0.075
-0.09
-0.12
-0.085
-0.1
-0.13
-0.085
-0.13
-0.115
-0.085
-0.125
-0.12
-0.12
-0.185
-0.075
-0.09
-0.095
-0.175
-0.135
-0.065
-0.13
-0.125
-0.195
-0.205
-0.11
-0.145
-0.18
-0.14
-0.175
-0.195
-0.13
-0.175
-0.15
-0.105
-0.135
-0.235
-0.265
-0.165
-0.14
-0.155
-0.125
-0.08
-0.135
-0.135
-0.185
-0.15
-0.2
-0.205
-0.185
-0.165
-0.155
-0.115
-0.145
-0.135
-0.145
-0.185
-0.195
-0.135
-0.115
-0.175
-0.19
-0.155
-0.18
-0.17
-0.135
-0.115
-0.17
-0.22
-0.165
-0.185
-0.175
-0.195
-0.15
-0.145
-0.16
-0.16
-0.125
-0.155
-0.14
-0.16
-0.185
-0.095
-0.195
-0.215
-0.195
-0.13
-0.11
-0.05
-0.01
-0.15
-0.175
-0.145
-0.205
-0.14
-0.105
-0.095
-0.24
-0.24
-0.205
-0.11
-0.11
-0.1
-0.145
-0.105
-0.135
-0.16
-0.21
-0.12
-0.215
-0.18
-0.195
-0.125
-0.19
-0.18
-0.11
-0.12
-0.115
-0.075
-0.215
-0.16
-0.135
-0.15
-0.205
-0.185
-0.175
-0.17
-0.13
-0.12
-0.155
-0.155
-0.165
-0.15
-0.15
-0.125
-0.14
-0.195
-0.155
-0.095
-0.05
-0.175
-0.225
0.015
-0.085
-0.115
-0.22
-0.165
-0.145
-0.08
-0.205
-0.25
-0.175
-0.21
-0.14
-0.155
-0.145
-0.095
-0.12
-0.23
-0.255
-0.225
-0.235
-0.195
-0.16
-0.16
-0.235
-0.25
-0.185
-0.145
-0.205
-0.2
-0.26
-0.295
-0.26
-0.245
-0.28
-0.16
-0.03
-0.05
-0.17
-0.24
-0.29
-0.24
-0.405
-0.35
-0.31
-0.295
-0.095
0.025
0.065
0.23
0.295
0.5
0.45
0.625
0.7
0.61
0.43
0.375
0.165
0.055
-0.1
-0.195
-0.225
-0.165
-0.185
-0.26
-0.16
-0.2
-0.205
-0.17
-0.175
-0.225
-0.23
-0.27
-0.3
-0.24
-0.1
-0.205
-0.135
-0.2
-0.22
-0.27
-0.185
-0.2
-0.2
-0.235
-0.185
-0.155
-0.17
-0.15
-0.2
-0.11
-0.12
-0.255
-0.27
-0.255
-0.39
-0.235
-0.12
-0.165
-0.2
-0.24
-0.22
-0.175
-0.24
-0.305
-0.095
-0.13
-0.235
-0.195
-0.225
-0.24
-0.255
-0.23
-0.165
-0.255
-0.275
-0.265
-0.23
-0.22
-0.215
-0.2
-0.18
-0.115
-0.205
-0.195
-0.165
-0.195
-0.23
-0.2
-0.175
-0.195
-0.21
-0.24
-0.215
-0.205
-0.195
-0.23
-0.21
-0.13
-0.12
-0.215
-0.215
-0.145
-0.19
-0.155
-0.095
-0.175
-0.13
-0.135
-0.125
-0.09
-0.115
-0.135
-0.17
-0.075
-0.04
0.01
-0.075
-0.035
-0.195
-0.18
-0.005
-0.1
-0.2
-0.02
-0.08
-0.135
-0.1
-0.095
-0.105
-0.025
0.0
-0.02
-0.05
-0.17
-0.1
-0.085
-0.125
-0.13
-0.18
-0.055
-0.115
-0.145
-0.155
-0.105
-0.105
-0.125
-0.115
-0.115
-0.08
-0.165
-0.125
-0.25
-0.225
-0.235
-0.2
0.0
-0.205
-0.2
-0.195
-0.2
-0.215
-0.205
-0.19
-0.24
-0.17
-0.135
-0.185
-0.3
-0.205
-0.17
-0.155
-0.285
-0.3
-0.165
-0.19
-0.24
-0.205
-0.165
-0.25
-0.27
-0.17
-0.265
-0.31
-0.205
-0.265
-0.24
-0.245
-0.13
-0.17
-0.31
-0.31
-0.24
-0.25
-0.16
-0.265
-0.33
-0.27
-0.265
-0.3
-0.235
-0.26
-0.235
-0.24
-0.2
-0.28
-0.185
-0.26
-0.35
-0.27
-0.26
-0.185
-0.215
-0.295
-0.235
-0.305
-0.25
-0.255
-0.33
-0.25
-0.255
-0.285
-0.24
-0.22
-0.28
-0.305
-0.28
-0.285
-0.24
-0.25
-0.255
-0.285
-0.31
-0.24
-0.29
-0.345
-0.28
-0.295
-0.28
-0.29
-0.29
-0.33
-0.375
-0.415
-0.4
-0.365
-0.38
-0.37
-0.42
-0.38
-0.425
-0.345
-0.36
-0.42
-0.46
-0.43
-0.415
-0.385
-0.41
-0.45
-0.435
-0.365
-0.455
-0.455
-0.35
-0.46
-0.41
-0.42
-0.515
-0.53
-0.53
-0.435
-0.455
-0.51
-0.48
-0.455
-0.54
-0.435
-0.52
-0.61
-0.52
-0.485
-0.545
-0.365
-0.455
-0.555
-0.52
-0.535
-0.555
-0.615
-0.475
-0.455
-0.47
-0.48
-0.42
-0.395
-0.54
-0.52
-0.485
-0.475
-0.435
-0.56
-0.445
-0.355
-0.48
-0.475
-0.45
-0.415
-0.43
-0.525
-0.505
-0.525
-0.505
-0.51
-0.44
-0.52
-0.555
-0.42
-0.435
-0.47
-0.47
-0.5
-0.575
-0.505
-0.505
-0.55
-0.51
-0.595
-0.655
-0.69
-0.615
-0.415
-0.455
-0.4
-0.335
-0.155
0.08
0.235
0.18
0.23
0.38
0.29
0.18
0.05
-0.045
-0.145
-0.32
-0.395
-0.48
-0.52
-0.49
-0.445
-0.515
-0.535
-0.45
-0.475
-0.48
-0.44
-0.415
-0.47
-0.595
-0.525
-0.55
-0.495
-0.6
-0.61
-0.59
-0.605
-0.58
-0.57
-0.66
-0.62
-0.65
-0.64
-0.59
-0.61
-0.595
-0.605
-0.65
-0.61
-0.615
-0.65
-0.58
-0.6
-0.66
-0.595
-0.64
-0.61
-0.58
-0.65
-0.615
-0.655
-0.645
-0.66
-0.57
-0.605
-0.62
-0.64
-0.74
-0.765
-0.685
-0.65
-0.715
-0.645
-0.645
-0.675
-0.695
-0.71
-0.75
-0.73
-0.755
-0.75
-0.7
-0.67
-0.67
-0.635
-0.64
-0.66
-0.745
-0.8
-0.64
-0.765
-0.69
-0.57
-0.585
-0.69
-0.635
-0.625
-0.6
-0.63
-0.68
-0.645
-0.565
-0.52
-0.58
-0.615
-0.56
-0.48
-0.605
-0.45
-0.47
-0.595
-0.605
-0.57
-0.5
-0.445
-0.42
-0.44
-0.425
-0.43
-0.5
-0.52
-0.465
-0.3
-0.37
-0.29
-0.29
-0.39
-0.435
-0.405
-0.33
-0.42
-0.435
-0.37
-0.36
-0.345
-0.255
-0.31
-0.36
-0.47
-0.465
-0.41
-0.38
-0.44
-0.395
-0.435
-0.345
-0.465
-0.33
-0.325
-0.48
-0.5
-0.4
-0.305
-0.39
-0.5
-0.455
-0.47
-0.44
-0.355
-0.395
-0.5
-0.42
-0.34
-0.445
-0.46
-0.53
-0.51
-0.415
-0.41
-0.47
-0.475
-0.345
-0.4
-0.44
-0.385
-0.4
-0.365
-0.435
-0.39
-0.425
-0.42
-0.385
-0.365
-0.285
-0.405
-0.355
-0.44
-0.38
-0.38
-0.455
-0.345
-0.405
-0.41
-0.33
-0.34
-0.365
-0.355
-0.28
-0.39
-0.485
-0.45
-0.375
-0.27
-0.39
-0.415
-0.4
-0.45
-0.37
-0.415
-0.33
-0.375
-0.455
-0.285
-0.23
-0.295
-0.435
-0.37
-0.4
-0.28
-0.425
-0.36
-0.26
-0.315
-0.365
-0.28
-0.385
-0.355
-0.34
-0.39
-0.35
-0.485
-0.335
-0.245
-0.36
-0.345
-0.37
-0.405
-0.395
-0.32
-0.325
-0.29
-0.335
-0.36
-0.32
-0.34
-0.385
-0.34
-0.23
-0.275
-0.36
-0.36
-0.29
-0.295
-0.31
-0.285
-0.29
-0.285
-0.28
-0.305
-0.41
-0.3
-0.315
-0.295
-0.265
-0.275
-0.285
-0.345
-0.295
-0.24
-0.265
-0.335
-0.24
-0.105
-0.25
-0.31
-0.315
-0.295
-0.335
-0.32
-0.215
-0.215
-0.29
-0.3
-0.24
-0.31
-0.375
-0.32
-0.385
-0.375
-0.425
-0.325
-0.295
-0.27
-0.23
-0.27
-0.28
-0.295
-0.27
-0.355
-0.345
-0.315
-0.385
-0.355
-0.37
-0.385
-0.25
-0.33
-0.415
-0.415
-0.335
-0.29
-0.305
-0.305
-0.335
-0.29
-0.33
-0.39
-0.325
-0.3
-0.385
-0.375
-0.31
-0.425
-0.375
-0.38
-0.4
-0.41
-0.275
-0.215
-0.175
0.02
0.185
0.17
0.31
0.36
0.455
0.47
0.445
0.3
0.195
0.075
0.005
-0.085
-0.17
-0.32
-0.385
-0.19
-0.17
-0.235
-0.2
-0.265
-0.28
-0.385
-0.38
-0.365
-0.18
-0.35
-0.275
-0.345
-0.34
-0.36
-0.35
-0.35
-0.28
-0.255
-0.225
-0.23
-0.28
-0.33
-0.315
-0.3
-0.395
-0.3
-0.365
-0.295
-0.315
-0.325
-0.34
-0.36
-0.295
-0.275
-0.325
-0.31
-0.3
-0.295
-0.265
-0.265
-0.335
-0.335
-0.27
-0.255
-0.23
-0.28
-0.3
-0.285
-0.26
-0.305
-0.285
-0.3
-0.325
-0.255
-0.11
-0.125
-0.3
-0.35
-0.33
-0.215
-0.3
-0.22
-0.27
-0.285
-0.27
-0.27
-0.255
-0.355
-0.345
-0.325
-0.26
-0.245
-0.215
-0.265
-0.21
-0.22
-0.285
-0.2
-0.195
-0.17
-0.21
-0.3
-0.24
-0.24
-0.18
-0.11
-0.135
-0.095
-0.21
-0.225
-0.22
-0.25
-0.255
-0.16
-0.06
-0.185
-0.155
-0.09
-0.15
-0.15
-0.13
-0.18
-0.155
-0.075
-0.155
-0.155
-0.095
-0.175
-0.145
-0.125
-0.16
-0.14
-0.11
-0.075
-0.1
-0.16
-0.21
-0.14
-0.16
-0.155
-0.17
-0.145
-0.12
-0.135
-0.145
-0.095
-0.205
-0.17
-0.165
-0.17
-0.185
-0.215
-0.235
-0.295
-0.265
-0.19
-0.255
-0.22
-0.17
-0.29
-0.195
-0.245
-0.26
-0.225
-0.285
-0.295
-0.23
-0.285
-0.255
-0.15
-0.225
-0.27
-0.085
-0.2
-0.31
-0.285
-0.245
-0.225
-0.28
-0.215
-0.21
-0.255
-0.25
-0.245
-0.3
-0.23
-0.17
-0.265
-0.25
-0.24
-0.265
-0.305
-0.26
-0.235
-0.25
-0.26
-0.275
-0.275
-0.25
-0.25
-0.24
-0.32
-0.245
-0.3
-0.32
-0.31
-0.165
-0.165
-0.175
-0.225
-0.225
-0.255
-0.175
-0.205
-0.185
-0.17
-0.245
-0.29
-0.21
-0.22
-0.26
-0.27
-0.2
-0.205
-0.25
-0.145
-0.17
-0.21
-0.26
-0.19
-0.21
-0.18
-0.09
-0.135
-0.325
-0.33
-0.105
-0.27
-0.31
-0.2
-0.085
-0.19
-0.205
-0.18
-0.28
-0.27
-0.19
-0.18
-0.18
-0.23
-0.235
-0.27
-0.175
-0.125
-0.27
-0.285
-0.235
-0.14
-0.265
-0.095
-0.185
-0.275
-0.22
-0.145
-0.225
-0.27
-0.24
-0.22
-0.19
-0.2
-0.23
-0.18
-0.18
-0.155
-0.22
-0.22
-0.18
-0.205
-0.12
-0.095
-0.2
-0.21
-0.19
-0.09
-0.17
-0.185
-0.145
-0.235
-0.155
-0.24
-0.26
-0.19
-0.255
-0.275
-0.22
-0.185
-0.255
-0.255
-0.17
-0.3
-0.315
-0.245
-0.105
-0.22
-0.22
-0.205
-0.17
-0.195
-0.285
-0.245
-0.145
-0.2
-0.3
-0.3
-0.215
-0.17
-0.265
-0.235
-0.225
-0.26
-0.285
-0.2
-0.21
-0.2
-0.265
-0.215
-0.205
-0.385
-0.39
-0.28
-0.4
-0.32
-0.185
-0.21
-0.12
-0.05
0.08
0.23
0.405
0.475
0.545
0.54
0.53
0.42
0.315
0.185
0.08
-0.05
-0.11
-0.18
-0.205
-0.23
-0.255
-0.225
-0.23
-0.155
-0.195
-0.185
-0.185
-0.16
-0.225
-0.235
-0.26
-0.265
-0.265
-0.325
-0.265
-0.195
-0.265
-0.27
-0.22
-0.175
-0.24
-0.21
-0.315
-0.335
-0.27
-0.17
-0.255
-0.23
-0.19
-0.245
-0.175
-0.2
-0.26
-0.31
-0.32
-0.225
-0.205
-0.14
-0.31
-0.07
-0.2
-0.225
-0.205
-0.24
-0.265
-0.155
-0.295
-0.315
-0.275
-0.235
-0.23
-0.305
-0.24
-0.245
-0.255
-0.22
-0.23
-0.245
-0.2
-0.125
-0.18
-0.175
-0.25
-0.23
-0.245
-0.245
-0.175
-0.2
-0.225
-0.21
-0.25
-0.2
-0.235
-0.205
-0.18
-0.16
-0.15
-0.23
-0.245
-0.155
-0.14
-0.165
-0.18
-0.175
-0.1
-0.12
-0.075
-0.165
-0.185
-0.16
-0.1
-0.17
-0.095
-0.1
-0.13
-0.095
-0.105
-0.025
-0.08
-0.07
0.03
-0.115
-0.11
0.0
0.13
0.07
-0.155
-0.19
-0.075
-0.05
-0.08
-0.17
-0.155
-0.02
-0.075
-0.085
-0.07
-0.12
-0.12
-0.095
-0.11
-0.105
-0.135
-0.16
-0.13
-0.15
-0.13
-0.11
-0.095
-0.1
-0.185
-0.27
-0.24
-0.22
-0.2
-0.195
-0.17
-0.17
-0.175
-0.315
-0.21
-0.15
-0.18
-0.22
-0.195
-0.13
-0.17
-0.26
-0.24
-0.255
-0.195
-0.215
-0.14
-0.16
-0.085
-0.22
-0.325
-0.325
-0.21
-0.175
-0.18
-0.205
-0.19
-0.2
-0.235
-0.185
-0.155
-0.165
-0.18
-0.165
-0.19
-0.13
-0.235
-0.24
-0.28
-0.205
-0.195
-0.24
-0.16
-0.175
-0.155
-0.185
-0.195
-0.2
-0.13
-0.165
-0.33
-0.23
-0.32
-0.31
-0.18
-0.22
-0.26
-0.195
-0.11
-0.21
-0.185
-0.165
-0.115
-0.05
-0.15
-0.27
-0.275
-0.225
-0.085
-0.155
-0.255
-0.19
-0.115
-0.24
-0.22
-0.175
-0.125
-0.13
-0.135
-0.17
-0.185
-0.22
-0.225
-0.24
-0.165
-0.22
-0.205
-0.2
-0.085
-0.06
-0.2
-0.265
-0.225
-0.145
-0.19
-0.16
-0.215
-0.21
-0.25
-0.21
-0.185
-0.14
-0.135
-0.125
-0.145
-0.21
-0.155
-0.15
-0.145
-0.115
-0.21
-0.195
-0.185
-0.245
-0.18
-0.09
-0.07
-0.18
-0.125
-0.165
-0.185
-0.07
-0.105
-0.185
-0.135
-0.18
-0.13
-0.115
-0.17
-0.22
-0.145
-0.06
-0.175
-0.105
-0.18
-0.135
-0.14
-0.255
-0.21
-0.175
-0.22
-0.22
-0.24
-0.225
-0.21
-0.22
-0.11
-0.13
-0.205
-0.23
-0.225
-0.135
-0.155
-0.17
-0.175
-0.205
-0.21
-0.2
-0.24
-0.265
-0.225
-0.21
-0.2
-0.205
-0.165
-0.185
-0.18
-0.175
-0.16
-0.145
-0.215
-0.2
-0.2
-0.16
-0.175
-0.24
-0.365
-0.205
-0.28
-0.29
-0.21
-0.19
-0.085
-0.03
0.05
0.1
0.335
0.25
0.315
0.56
0.59
0.545
0.45
0.38
0.195
0.145
-0.09
-0.065
-0.155
-0.175
-0.22
-0.22
-0.1
-0.145
-0.025
-0.08
-0.18
-0.265
-0.215
-0.135
-0.15
-0.165
-0.26
-0.205
-0.225
-0.24
-0.27
-0.31
-0.25
-0.28
-0.16
-0.2
-0.34
-0.22
-0.185
-0.165
-0.085
-0.145
-0.14
-0.215
-0.155
-0.18
-0.155
-0.095
-0.175
-0.245
-0.305
-0.245
-0.23
-0.175
-0.23
-0.155
-0.17
-0.19
-0.16
-0.205
-0.215
-0.12
-0.105
-0.205
-0.185
-0.135
-0.22
-0.195
-0.18
-0.135
-0.205
-0.225
-0.25
-0.29
-0.12
-0.19
-0.185
-0.14
-0.21
-0.125
-0.145
-0.195
-0.155
-0.17
-0.1
-0.13
-0.18
-0.175
-0.125
-0.155
-0.275
-0.17
-0.14
-0.16
-0.11
-0.035
-0.08
-0.06
-0.09
-0.17
-0.095
-0.175
-0.125
-0.06
-0.08
-0.085
-0.065
-0.09
-0.105
-0.1
-0.04
0.05
-0.035
-0.045
-0.01
-0.025
-0.01
-0.04
-0.115
-0.055
-0.045
0.015
-0.035
-0.035
0.03
0.01
-0.015
-0.06
0.02
-0.035
-0.015
-0.07
-0.075
-0.095
-0.07
-0.105
-0.085
-0.1
-0.065
-0.085
-0.145
-0.04
-0.045
-0.085
-0.19
-0.105
-0.105
-0.095
-0.12
-0.15
-0.125
-0.105
-0.19
-0.05
-0.03
-0.25
-0.19
-0.17
-0.24
-0.19
-0.11
-0.165
-0.19
-0.2
-0.145
-0.175
-0.125
-0.165
-0.15
-0.095
-0.125
-0.255
-0.16
-0.16
-0.155
-0.17
-0.205
-0.105
-0.18
-0.195
-0.185
-0.125
-0.13
-0.2
-0.235
-0.125
-0.13
-0.135
-0.23
-0.175
-0.125
-0.18
-0.155
-0.18
-0.2
-0.14
-0.08
-0.16
-0.225
-0.195
-0.18
-0.13
-0.17
-0.135
-0.17
-0.155
-0.135
-0.08
-0.075
-0.115
-0.17
-0.18
-0.155
-0.11
-0.17
-0.19
-0.175
-0.13
-0.16
-0.145
-0.125
-0.175
-0.13
-0.17
-0.06
-0.105
-0.07
-0.195
-0.19
-0.19
-0.165
-0.14
-0.195
-0.13
-0.085
-0.15
-0.135
-0.13
-0.14
-0.175
-0.085
-0.12
-0.15
-0.14
-0.09
-0.14
-0.165
-0.12
-0.175
-0.21
-0.105
-0.115
-0.15
-0.08
-0.13
-0.165
-0.125
-0.12
-0.21
-0.005
-0.205
-0.105
-0.16
-0.17
-0.085
-0.07
-0.11
-0.195
-0.175
-0.095
-0.1
-0.075
-0.135
0.015
-0.08
-0.22
-0.2
-0.08
-0.115
-0.1
0.005
-0.09
-0.045
-0.085
-0.09
-0.115
-0.125
-0.205
-0.205
-0.11
-0.06
-0.06
-0.1
-0.14
-0.135
-0.14
-0.085
-0.14
-0.175
-0.155
-0.215
-0.27
-0.155
-0.13
-0.13
-0.115
-0.08
-0.065
-0.15
-0.165
-0.185
-0.205
-0.13
-0.16
-0.09
-0.075
-0.14
-0.23
-0.165
-0.155
-0.13
-0.215
-0.14
-0.06
-0.145
-0.115
-0.15
-0.285
-0.21
-0.25
-0.28
-0.255
-0.29
-0.235
-0.195
-0.06
0.01
0.06
0.175
0.29
0.41
0.515
0.625
0.655
0.575
0.495
0.405
0.28
0.12
-0.02
-0.12
-0.155
-0.16
-0.165
-0.125
-0.05
-0.08
-0.155
-0.12
-0.115
-0.16
-0.19
-0.135
-0.06
-0.07
-0.245
-0.175
-0.1
-0.155
-0.235
-0.175
-0.24
-0.19
-0.205
-0.205
-0.145
-0.17
-0.2
-0.205
-0.16
-0.14
-0.205
-0.17
-0.145
-0.13
-0.125
-0.16
-0.2
-0.155
-0.08
-0.125
-0.155
-0.21
-0.235
-0.215
-0.135
-0.19
-0.14
-0.155
-0.2
-0.165
-0.22
-0.14
-0.16
-0.155
-0.16
-0.22
-0.12
-0.14
-0.175
-0.165
-0.14
-0.1
-0.13
-0.115
-0.14
-0.23
-0.185
-0.185
-0.18
-0.17
-0.17
-0.09
-0.1
-0.135
-0.145
-0.085
-0.055
-0.13
-0.115
-0.04
-0.07
-0.12
0.02
-0.045
-0.055
-0.055
-0.1
-0.115
-0.13
-0.13
-0.135
-0.045
0.025
-0.055
-0.07
-0.055
-0.12
-0.035
-0.01
-0.04
-0.045
-0.025
-0.07
-0.035
-0.035
-0.01
0.04
-0.055
-0.04
0.055
-0.03
-0.08
-0.015
-0.035
-0.015
-0.01
0.04
0.115
0.05
-0.02
-0.045
-0.03
-0.02
-0.025
-0.12
-0.055
-0.075
-0.07
-0.08
-0.055
-0.085
-0.05
-0.075
-0.09
-0.075
-0.105
-0.12
-0.065
-0.12
-0.21
-0.13
-0.09
-0.125
-0.13
-0.155
-0.1
-0.16
-0.13
-0.185
-0.14
0.025
-0.04
-0.155
0.05
-0.16
-0.265
-0.13
-0.16
-0.13
-0.155
-0.12
-0.05
-0.115
-0.185
-0.22
-0.25
-0.175
-0.175
-0.185
-0.18
-0.2
-0.205
-0.165
-0.03
-0.09
-0.15
-0.06
-0.045
-0.12
-0.17
-0.145
-0.185
-0.19
-0.16
-0.155
-0.135
-0.145
-0.105
-0.195
-0.17
-0.135
-0.11
-0.13
-0.145
-0.085
-0.07
-0.12
-0.15
-0.165
-0.175
-0.145
-0.07
-0.075
-0.105
-0.16
-0.165
-0.11
-0.115
-0.155
-0.115
-0.135
-0.165
-0.175
-0.095
-0.155
-0.115
-0.09
-0.065
-0.19
-0.21
-0.205
0.025
0.0
-0.035
-0.14
-0.025
-0.07
-0.235
-0.17
-0.26
-0.115
-0.075
-0.165
-0.16
-0.145
-0.19
-0.14
-0.095
-0.18
-0.19
-0.19
-0.09
-0.09
-0.11
-0.055
-0.045
-0.165
-0.18
-0.15
-0.1
-0.165
-0.095
-0.14
-0.055
-0.075
0.0
-0.055
-0.11
-0.16
-0.1
-0.08
-0.05
-0.075
-0.13
-0.12
-0.08
-0.13
-0.14
-0.165
-0.145
-0.155
-0.13
-0.115
-0.115
-0.08
-0.1
-0.145
-0.115
-0.205
-0.135
-0.15
-0.155
-0.13
-0.155
-0.16
-0.17
-0.185
0.065
-0.12
-0.16
-0.16
-0.185
-0.105
-0.14
-0.155
-0.15
-0.145
-0.13
-0.095
-0.24
-0.235
-0.2
-0.155
-0.08
-0.1
-0.24
-0.12
-0.105
-0.16
-0.185
-0.19
-0.155
-0.32
-0.26
-0.255
-0.18
-0.14
-0.115
0.04
0.13
0.23
0.33
0.34
0.45
0.665
0.59
0.565
0.505
0.42
0.28
0.17
0.015
-0.095
-0.155
-0.195
-0.185
-0.215
-0.14
-0.145
-0.085
-0.11
-0.105
-0.15
-0.135
-0.17
-0.2
-0.165
-0.21
-0.095
-0.09
-0.19
-0.205
-0.155
-0.2
-0.115
-0.2
-0.155
-0.245
-0.2
-0.18
-0.145
-0.055
-0.135
-0.235
-0.15
-0.175
-0.16
-0.165
-0.2
-0.13
-0.15
-0.245
-0.195
-0.135
-0.14
-0.195
-0.155
-0.23
-0.24
-0.165
-0.18
-0.1
-0.205
-0.095
-0.185
-0.18
-0.225
-0.2
-0.185
-0.22
-0.195
-0.12
-0.175
-0.2
0.01
-0.14
-0.245
-0.165
-0.15
-0.145
-0.135
-0.115
-0.105
-0.195
-0.24
-0.19
-0.155
-0.18
-0.185
-0.18
-0.06
-0.105
-0.1
-0.105
-0.09
-0.045
-0.13
-0.15
-0.065
-0.145
-0.145
-0.165
-0.07
-0.06
-0.085
-0.1
-0.145
-0.06
-0.045
0.035
-0.03
-0.055
0.0
-0.045
-0.165
-0.08
0.005
-0.005
-0.065
-0.05
-0.03
-0.08
0.01
0.1
-0.03
-0.02
-0.115
-0.08
-0.02
0.04
-0.115
-0.065
-0.02
-0.055
-0.1
-0.05
-0.065
-0.095
-0.115
-0.075
-0.035
0.015
-0.09
-0.03
-0.205
-0.155
-0.12
-0.135
-0.125
-0.17
-0.115
-0.145
-0.175
-0.165
-0.225
-0.195
-0.175
-0.185
-0.13
-0.195
-0.21
-0.135
-0.095
-0.135
-0.21
-0.195
-0.175
-0.15
-0.145
-0.125
-0.165
-0.17
-0.15
-0.22
-0.23
-0.24
-0.18
-0.15
-0.115
-0.165
-0.12
-0.17
-0.26
-0.24
-0.175
-0.145
-0.2
-0.225
-0.095
-0.13
-0.045
-0.16
-0.16
-0.155
-0.18
-0.22
-0.19
-0.215
-0.205
-0.06
-0.08
-0.18
-0.13
-0.105
-0.24
-0.175
-0.18
-0.165
-0.175
-0.2
-0.14
-0.22
-0.205
-0.105
-0.095
-0.155
-0.195
-0.14
-0.175
-0.275
-0.21
-0.18
-0.18
-0.21
-0.18
-0.14
-0.175
-0.195
-0.055
-0.125
-0.165
-0.195
-0.15
-0.15
-0.145
-0.205
-0.195
-0.12
-0.095
-0.195
-0.17
-0.135
-0.15
-0.13
-0.105
-0.175
-0.135
-0.1
-0.14
-0.125
-0.16
-0.145
-0.11
-0.195
-0.09
-0.17
-0.2
-0.155
-0.17
-0.225
-0.14
-0.11
-0.125
-0.145
-0.18
-0.16
-0.12
-0.13
-0.135
-0.19
-0.175
-0.15
0.02
-0.005
-0.22
-0.09
-0.115
-0.095
-0.18
-0.15
-0.01
-0.1
-0.075
-0.11
-0.225
-0.29
-0.25
-0.22
-0.16
-0.17
-0.18
-0.205
-0.19
-0.175
-0.28
-0.225
-0.2
-0.16
-0.145
-0.16
-0.2
-0.19
-0.195
-0.19
-0.175
-0.155
-0.16
-0.19
-0.165
-0.14
-0.205
-0.215
-0.225
-0.145
-0.165
-0.125
-0.205
-0.225
-0.185
-0.165
-0.165
-0.125
-0.22
-0.335
-0.325
-0.31
-0.27
-0.26
-0.17
-0.17
0.02
0.14
0.255
0.435
0.42
0.565
0.63
0.665
0.57
0.49
0.355
0.12
0.075
0.02
-0.155
-0.15
-0.13
-0.125
-0.155
-0.215
-0.185
-0.14
-0.17
-0.14
-0.265
-0.195
-0.17
-0.14
-0.16
-0.26
-0.22
-0.225
-0.305
-0.295
-0.26
-0.22
-0.15
-0.18
-0.23
-0.205
-0.2
-0.17
-0.24
-0.205
-0.16
-0.225
-0.25
-0.185
-0.135
-0.185
-0.14
-0.19
-0.195
-0.225
-0.195
-0.205
-0.235
-0.155
-0.25
-0.205
-0.115
-0.18
-0.23
-0.2
-0.215
-0.225
-0.175
-0.205
-0.23
-0.115
-0.125
-0.215
-0.255
-0.17
-0.09
-0.1
-0.11
-0.21
-0.31
-0.2
-0.16
-0.195
-0.18
-0.085
-0.05
-0.2
-0.21
-0.21
-0.215
-0.26
-0.13
-0.11
-0.215
-0.185
-0.19
-0.195
-0.155
-0.1
-0.085
-0.195
-0.335
-0.165
-0.06
-0.075
-0.095
-0.145
-0.095
-0.12
-0.145
-0.155
-0.11
-0.105
-0.12
-0.07
-0.035
-0.055
-0.035
0.01
-0.015
-0.085
-0.05
-0.06
-0.07
-0.085
-0.01
0.04
-0.09
-0.04
-0.06
-0.045
-0.02
-0.095
-0.125
-0.045
-0.07
-0.155
-0.135
-0.04
-0.06
-0.105
-0.145
-0.065
0.0
-0.005
-0.205
-0.205
-0.105
-0.07
-0.055
-0.135
-0.23
-0.21
-0.165
-0.15
-0.12
-0.135
-0.11
-0.17
-0.16
-0.185
-0.23
-0.21
-0.19
-0.07
-0.21
-0.21
-0.18
-0.26
-0.225
-0.17
-0.17
-0.19
-0.165
-0.14
-0.15
-0.225
-0.195
-0.195
-0.25
-0.2
-0.19
-0.235
-0.25
-0.225
-0.23
-0.205
-0.11
-0.125
-0.15
-0.19
-0.185
-0.24
-0.18
-0.18
-0.18
-0.215
-0.12
-0.13
-0.22
-0.245
-0.175
-0.195
-0.24
-0.165
-0.165
-0.235
-0.185
-0.155
-0.12
-0.16
-0.295
-0.26
-0.215
-0.18
-0.205
-0.11
-0.245
-0.19
-0.21
-0.085
-0.205
-0.195
-0.2
-0.225
-0.23
-0.2
-0.155
-0.175
-0.245
-0.155
-0.155
-0.19
-0.2
-0.215
-0.05
-0.115
-0.17
-0.185
-0.23
-0.145
-0.17
-0.195
-0.315
-0.23
-0.175
-0.2
-0.09
-0.155
-0.235
-0.185
-0.22
-0.235
-0.125
-0.185
-0.215
-0.265
-0.205
-0.08
-0.15
-0.22
-0.205
-0.195
-0.19
-0.175
-0.14
-0.09
-0.235
-0.205
-0.13
-0.095
-0.125
-0.165
-0.23
-0.19
-0.13
-0.205
-0.08
-0.115
-0.22
-0.1
-0.13
-0.19
-0.19
-0.165
-0.15
-0.21
-0.19
-0.055
-0.145
-0.17
-0.175
-0.195
-0.16
-0.3
-0.36
-0.2
-0.165
-0.19
-0.105
-0.205
-0.185
-0.16
-0.185
-0.23
-0.275
-0.265
-0.18
-0.17
-0.245
-0.24
-0.25
-0.205
-0.255
-0.255
-0.215
-0.22
-0.15
-0.255
-0.22
-0.23
-0.195
-0.18
-0.2
-0.225
-0.25
-0.23
-0.28
-0.29
-0.36
-0.375
-0.37
-0.305
-0.235
-0.105
-0.09
0.02
0.135
0.305
0.295
0.43
0.485
0.57
0.505
0.4
0.355
0.13
0.06
-0.05
-0.19
-0.205
-0.205
-0.17
-0.22
-0.115
-0.22
-0.245
-0.21
-0.08
-0.18
-0.215
-0.265
-0.23
-0.17
-0.2
-0.19
-0.25
-0.28
-0.215
-0.265
-0.23
-0.22
-0.23
-0.32
-0.245
-0.23
-0.165
-0.125
-0.18
-0.33
-0.305
-0.275
-0.275
-0.2
-0.175
-0.255
-0.29
-0.22
-0.22
-0.19
-0.12
-0.285
-0.41
-0.29
-0.205
-0.175
-0.28
-0.285
-0.22
-0.14
-0.2
-0.26
-0.28
-0.215
-0.25
-0.195
-0.145
-0.275
-0.22
-0.275
-0.255
-0.195
-0.17
-0.095
-0.215
-0.17
-0.205
-0.175
-0.13
-0.17
-0.18
-0.215
-0.305
-0.19
-0.145
-0.165
-0.14
-0.195
-0.26
-0.12
-0.18
-0.175
-0.175
-0.055
-0.17
-0.225
-0.095
-0.125
-0.21
-0.155
-0.11
-0.18
-0.12
-0.17
-0.03
-0.08
-0.095
-0.08
-0.09
-0.105
-0.115
-0.165
-0.115
-0.115
-0.14
-0.095
-0.08
-0.01
0.0
0.05
-0.035
-0.05
-0.125
-0.09
-0.03
-0.005
-0.035
-0.02
-0.045
-0.15
-0.12
-0.155
-0.155
-0.275
-0.145
-0.145
-0.115
-0.07
-0.15
-0.14
-0.135
-0.215
-0.125
-0.105
-0.16
-0.145
-0.19
-0.2
-0.095
-0.14
-0.22
-0.175
-0.295
-0.235
-0.24
-0.12
-0.23
-0.215
-0.195
-0.165
-0.29
-0.035
-0.055
-0.28
-0.22
-0.18
-0.21
-0.22
-0.285
-0.14
-0.19
-0.255
-0.2
-0.17
-0.2
-0.15
-0.16
-0.125
-0.23
-0.205
-0.175
-0.22
-0.205
-0.275
-0.21
-0.145
-0.215
-0.185
-0.195
-0.225
-0.275
-0.245
-0.29
-0.28
-0.24
-0.215
-0.185
-0.145
-0.19
-0.215
-0.2
-0.25
-0.17
-0.22
-0.245
-0.225
-0.22
-0.205
-0.225
-0.26
-0.22
-0.2
-0.195
-0.17
-0.14
-0.145
-0.14
-0.26
-0.175
-0.18
-0.16
-0.15
-0.19
-0.22
-0.205
-0.17
-0.185
-0.17
-0.18
-0.26
-0.18
-0.2
-0.22
-0.21
-0.13
-0.185
-0.26
-0.135
-0.24
-0.19
-0.235
-0.15
-0.205
-0.17
-0.125
-0.235
-0.24
-0.225
-0.215
-0.095
-0.125
-0.205
-0.195
-0.205
-0.155
-0.17
-0.21
-0.205
-0.19
-0.195
-0.285
-0.18
-0.19
-0.19
-0.135
-0.13
-0.22
-0.135
-0.095
-0.155
-0.16
-0.185
-0.165
-0.155
-0.13
-0.2
-0.225
-0.17
-0.145
-0.165
-0.185
-0.12
-0.17
-0.235
-0.105
-0.23
-0.13
-0.25
-0.195
-0.3
-0.28
-0.22
-0.15
-0.105
-0.19
-0.115
-0.17
-0.225
-0.21
-0.28
-0.155
-0.2
-0.215
-0.29
-0.245
-0.255
-0.17
-0.15
-0.215
-0.195
-0.155
-0.25
-0.265
-0.295
-0.225
-0.2
-0.245
-0.24
-0.205
-0.29
-0.375
-0.25
-0.235
-0.215
-0.325
-0.34
-0.27
-0.135
-0.04
-0.065
0.085
0.175
0.255
0.35
0.53
0.585
0.655
0.42
0.315
0.115
0.025
0.04
-0.085
-0.105
-0.21
-0.16
-0.22
-0.145
-0.19
-0.235
-0.11
-0.215
-0.285
-0.225
-0.115
-0.18
-0.22
-0.19
-0.22
-0.32
-0.24
-0.245
-0.25
-0.16
-0.165
-0.3
-0.26
-0.245
-0.205
-0.27
-0.225
-0.265
-0.32
-0.215
-0.245
-0.13
-0.215
-0.075
-0.165
-0.33
-0.23
-0.25
-0.21
-0.265
-0.285
-0.14
-0.175
-0.115
-0.125
-0.275
-0.335
-0.23
-0.18
-0.165
-0.235
-0.155
-0.185
-0.235
-0.245
-0.205
-0.23
-0.235
-0.19
-0.175
-0.13
-0.23
-0.305
-0.27
-0.16
-0.135
-0.145
-0.22
-0.22
-0.12
-0.205
-0.205
-0.19
-0.22
-0.23
-0.23
-0.23
-0.14
-0.13
-0.235
-0.21
-0.225
-0.14
-0.12
-0.16
-0.15
-0.18
-0.19
-0.155
-0.095
-0.125
-0.1
0.16
-0.03
-0.08
-0.11
-0.18
-0.145
-0.205
-0.075
-0.065
-0.035
-0.015
-0.06
-0.09
-0.075
-0.05
-0.075
-0.055
-0.07
-0.06
-0.1
-0.09
-0.15
-0.19
-0.15
-0.105
-0.14
-0.06
-0.01
-0.105
-0.03
-0.155
-0.11
-0.065
-0.13
-0.16
-0.19
-0.13
-0.15
-0.05
-0.14
-0.235
-0.25
-0.215
-0.25
-0.255
-0.245
-0.205
-0.16
-0.115
-0.22
-0.14
-0.215
-0.325
-0.275
-0.16
-0.17
-0.18
-0.18
-0.18
-0.165
-0.23
-0.15
-0.205
-0.305
-0.29
-0.23
-0.165
-0.145
-0.27
-0.215
-0.205
-0.215
-0.225
-0.255
-0.17
-0.24
-0.215
-0.165
-0.145
-0.125
-0.18
-0.34
-0.225
-0.165
-0.19
-0.225
-0.29
-0.25
-0.285
-0.16
-0.135
-0.17
-0.115
-0.335
-0.26
-0.24
-0.285
-0.275
-0.255
-0.26
-0.325
-0.23
-0.21
-0.235
-0.27
-0.245
-0.16
-0.21
-0.185
-0.15
-0.23
-0.2
-0.245
-0.225
-0.2
-0.24
-0.235
-0.17
-0.175
-0.175
-0.165
-0.19
-0.215
-0.24
-0.225
-0.165
-0.165
-0.19
-0.27
-0.15
-0.205
-0.275
-0.23
-0.2
-0.22
-0.25
-0.245
-0.195
-0.235
-0.175
-0.19
-0.21
-0.22
-0.08
-0.25
-0.23
-0.2
-0.2
-0.235
-0.22
-0.17
-0.275
-0.225
-0.13
-0.135
-0.165
-0.245
-0.135
-0.185
-0.175
-0.215
-0.245
-0.225
-0.21
-0.135
-0.165
-0.14
-0.23
-0.17
-0.135
-0.14
-0.185
-0.185
-0.235
-0.2
-0.175
-0.17
-0.225
-0.25
-0.215
-0.265
-0.225
-0.205
-0.21
-0.165
-0.25
-0.245
-0.25
-0.215
-0.255
-0.225
-0.205
-0.175
-0.195
-0.275
-0.27
-0.205
-0.265
-0.185
-0.22
-0.075
-0.275
-0.185
-0.29
-0.265
-0.12
-0.235
-0.28
-0.31
-0.265
-0.27
-0.19
-0.28
-0.32
-0.26
-0.26
-0.27
-0.255
-0.29
-0.33
-0.37
-0.3
-0.145
-0.125
0.01
0.12
0.255
0.38
0.395
0.47
0.45
0.46
0.39
0.205
0.095
-0.005
-0.14
-0.19
-0.185
-0.205
-0.18
-0.13
-0.095
-0.23
-0.345
-0.24
-0.22
-0.24
-0.185
-0.265
-0.27
-0.27
-0.245
-0.155
-0.185
-0.33
-0.24
-0.245
-0.285
-0.22
-0.25
-0.24
-0.23
-0.255
-0.175
-0.205
-0.295
-0.3
-0.07
-0.13
-0.26
-0.22
-0.2
-0.27
-0.435
-0.285
-0.29
-0.245
-0.28
-0.325
-0.295
-0.3
-0.26
-0.135
-0.26
-0.245
-0.225
-0.325
-0.2
-0.195
-0.235
-0.21
-0.27
-0.22
-0.275
-0.22
-0.265
-0.3
-0.22
-0.245
-0.26
-0.25
-0.255
-0.21
-0.295
-0.155
-0.035
-0.065
-0.29
-0.345
-0.29
-0.275
-0.24
-0.245
-0.205
-0.145
-0.175
-0.205
-0.145
-0.185
-0.155
-0.195
-0.21
-0.185
-0.185
-0.23
-0.18
-0.185
-0.14
-0.11
-0.12
-0.115
-0.17
-0.185
-0.16
-0.11
-0.105
-0.05
-0.08
-0.105
-0.15
-0.075
-0.12
-0.11
-0.105
-0.125
0.025
-0.035
-0.07
-0.13
-0.06
-0.095
-0.12
-0.095
-0.11
-0.025
-0.055
-0.055
-0.21
-0.18
-0.145
-0.17
-0.205
-0.23
-0.15
-0.125
-0.1
-0.145
-0.195
-0.235
-0.225
-0.13
-0.21
-0.195
-0.235
-0.19
-0.24
-0.18
-0.135
-0.225
-0.13
-0.24
-0.265
-0.23
-0.24
-0.215
-0.28
-0.22
-0.255
-0.235
-0.205
-0.215
-0.175
-0.31
-0.275
-0.27
-0.23
-0.185
-0.18
-0.25
-0.26
-0.205
-0.245
-0.23
-0.27
-0.28
-0.265
-0.2
-0.17
-0.195
-0.16
-0.095
-0.28
-0.355
-0.27
-0.2
-0.175
-0.235
-0.215
-0.27
-0.25
-0.235
-0.145
-0.14
-0.14
-0.14
-0.3
-0.255
-0.225
-0.295
-0.27
-0.145
-0.255
-0.265
-0.24
-0.23
-0.25
-0.25
-0.235
-0.255
-0.24
-0.24
-0.205
-0.17
-0.225
-0.18
-0.185
-0.2
-0.13
-0.26
-0.175
-0.24
-0.215
-0.185
-0.28
-0.2
-0.12
-0.175
-0.23
-0.24
-0.26
-0.23
-0.12
-0.205
-0.18
-0.225
-0.23
-0.225
-0.2
-0.3
-0.265
-0.225
-0.195
-0.205
-0.165
-0.15
-0.14
-0.21
-0.24
-0.235
-0.205
-0.205
-0.19
-0.22
-0.19
-0.2
-0.135
-0.195
-0.215
-0.195
-0.155
-0.145
-0.065
-0.15
-0.185
-0.09
-0.065
-0.19
-0.2
-0.215
-0.27
-0.26
-0.25
-0.14
-0.185
-0.29
-0.25
-0.255
-0.265
-0.285
-0.21
-0.185
-0.225
-0.23
-0.195
-0.21
-0.175
-0.21
-0.34
-0.31
-0.17
-0.215
-0.255
-0.34
-0.335
-0.31
-0.275
-0.23
-0.26
-0.26
-0.21
-0.25
-0.215
-0.165
-0.2
-0.295
-0.25
-0.22
-0.23
-0.28
-0.29
-0.255
-0.325
-0.365
-0.295
-0.39
-0.31
-0.23
-0.19
-0.09
0.05
0.155
0.24
0.255
0.43
0.545
0.495
0.425
0.385
0.225
0.255
-0.085
-0.155
-0.165
-0.155
-0.24
-0.28
-0.2
-0.235
-0.215
-0.225
-0.215
-0.255
-0.235
-0.25
-0.285
-0.24
-0.2
-0.26
-0.315
-0.275
-0.27
-0.32
-0.205
-0.155
-0.25
-0.255
-0.24
-0.225
-0.245
-0.27
-0.275
-0.29
-0.22
-0.195
-0.22
-0.185
-0.18
-0.31
-0.315
-0.315
-0.265
-0.25
-0.265
-0.3
-0.285
-0.275
-0.265
-0.26
-0.185
-0.215
-0.22
-0.24
-0.245
-0.245
-0.25
-0.275
-0.24
-0.16
-0.215
-0.28
-0.28
-0.27
-0.245
-0.265
-0.21
-0.2
-0.235
-0.155
-0.145
-0.18
-0.125
-0.295
-0.305
-0.22
-0.265
-0.185
-0.245
-0.3
-0.26
-0.165
-0.17
-0.22
-0.225
-0.205
-0.205
-0.19
-0.185
-0.15
-0.18
-0.2
-0.185
-0.18
-0.13
-0.16
-0.21
-0.11
-0.065
-0.15
-0.14
-0.165
-0.14
-0.105
-0.11
-0.205
-0.11
-0.055
-0.105
-0.16
-0.15
-0.13
-0.115
-0.055
0.0
-0.125
-0.02
-0.08
-0.11
-0.1
-0.05
-0.09
-0.19
-0.165
-0.165
-0.125
-0.175
-0.16
-0.215
-0.225
-0.205
-0.11
-0.16
-0.185
-0.11
-0.145
-0.14
-0.315
-0.255
-0.195
-0.2
-0.215
-0.125
-0.155
-0.165
-0.215
-0.275
-0.255
-0.285
-0.26
-0.32
-0.135
-0.13
-0.2
-0.205
-0.27
-0.255
-0.275
-0.265
-0.29
-0.285
-0.265
-0.23
-0.24
-0.185
-0.205
-0.175
-0.24
-0.22
-0.29
-0.23
-0.16
-0.32
-0.29
-0.185
-0.265
-0.3
-0.255
-0.2
-0.27
-0.28
-0.265
-0.295
-0.245
-0.22
-0.26
-0.21
-0.2
-0.2
-0.255
-0.22
-0.24
-0.285
-0.27
-0.225
-0.225
-0.175
-0.25
-0.295
-0.275
-0.23
-0.21
-0.25
-0.275
-0.28
-0.24
-0.2
-0.065
-0.25
-0.36
-0.235
-0.245
-0.265
-0.215
-0.22
-0.19
-0.23
-0.21
-0.28
-0.265
-0.155
-0.295
-0.215
-0.28
-0.25
-0.205
-0.215
-0.295
-0.3
-0.09
-0.095
-0.17
-0.16
-0.185
-0.21
-0.185
-0.22
-0.19
-0.18
-0.25
-0.215
-0.215
-0.265
-0.28
-0.235
-0.19
-0.225
-0.23
-0.25
-0.23
-0.21
-0.205
-0.19
-0.235
-0.18
-0.25
-0.225
-0.195
-0.17
-0.21
-0.2
-0.195
-0.235
-0.225
-0.245
-0.21
-0.225
-0.23
-0.195
-0.265
-0.245
-0.235
-0.295
-0.265
-0.225
-0.2
-0.16
-0.175
-0.335
-0.29
-0.26
-0.23
-0.215
-0.2
-0.23
-0.135
-0.185
-0.265
-0.305
-0.22
-0.245
-0.275
-0.165
-0.315
-0.345
-0.28
-0.19
-0.22
-0.26
-0.24
-0.25
-0.295
-0.245
-0.245
-0.265
-0.34
-0.335
-0.405
-0.375
-0.32
-0.21
-0.04
0.025
0.145
0.255
0.315
0.435
0.535
0.5
0.405
0.32
0.18
0.075
-0.035
-0.07
-0.175
-0.18
-0.22
-0.225
-0.205
-0.18
-0.245
-0.245
-0.23
-0.26
-0.23
-0.205
-0.26
-0.23
-0.23
-0.305
-0.31
-0.26
-0.205
-0.235
-0.22
-0.285
-0.325
-0.29
-0.23
-0.23
-0.27
-0.29
-0.265
-0.195
-0.265
-0.19
-0.225
-0.235
-0.255
-0.21
-0.265
-0.19
-0.22
-0.24
-0.22
-0.235
-0.295
-0.25
-0.305
-0.275
-0.33
-0.28
-0.24
-0.275
-0.21
-0.26
-0.285
-0.27
-0.24
-0.275
-0.28
-0.26
-0.285
-0.255
-0.22
-0.225
-0.22
-0.225
-0.135
-0.3
-0.32
-0.21
-0.185
-0.225
-0.205
-0.265
-0.27
-0.185
-0.195
-0.27
-0.285
-0.255
-0.215
-0.14
-0.11
-0.205
-0.265
-0.18
-0.155
-0.13
-0.145
-0.125
-0.13
-0.125
-0.19
-0.17
-0.105
-0.245
-0.235
-0.205
-0.11
0.04
-0.09
-0.07
-0.14
-0.145
-0.07
-0.09
-0.09
-0.1
-0.125
-0.01
-0.085
-0.165
-0.11
-0.115
-0.155
-0.09
-0.085
-0.095
-0.13
-0.15
-0.14
-0.115
-0.15
-0.15
-0.155
-0.21
-0.19
-0.21
-0.14
-0.165
-0.185
-0.17
-0.19
-0.19
-0.195
-0.18
-0.2
-0.2
-0.195
-0.095
-0.115
-0.23
-0.31
-0.25
-0.225
-0.21
-0.215
-0.235
-0.155
-0.205
-0.21
-0.11
-0.105
-0.2
-0.325
-0.32
-0.32
-0.23
-0.255
-0.195
-0.185
-0.255
-0.215
-0.22
-0.2
-0.24
-0.21
-0.17
-0.2
-0.305
-0.265
-0.2
-0.2
-0.275
-0.285
-0.3
-0.27
-0.255
-0.185
-0.235
-0.24
-0.18
-0.17
-0.245
-0.24
-0.235
-0.35
-0.285
-0.125
-0.3
-0.31
-0.295
-0.155
-0.16
-0.285
-0.205
-0.22
-0.185
-0.21
-0.285
-0.305
-0.195
-0.17
-0.33
-0.265
-0.18
-0.195
-0.19
-0.19
-0.265
-0.185
-0.15
-0.18
-0.26
-0.23
-0.24
-0.235
-0.29
-0.275
-0.175
-0.195
-0.14
-0.225
-0.245
-0.145
-0.17
-0.175
-0.235
-0.24
-0.29
-0.205
-0.225
-0.15
-0.105
-0.155
-0.165
-0.27
-0.2
-0.225
-0.265
-0.19
-0.175
-0.11
-0.28
-0.18
-0.175
-0.21
-0.2
-0.19
-0.185
-0.24
-0.16
-0.205
-0.21
-0.23
-0.255
-0.215
-0.235
-0.195
-0.185
-0.145
-0.16
-0.12
-0.2
-0.255
-0.26
-0.275
-0.25
-0.165
-0.195
-0.235
-0.235
-0.26
-0.2
-0.225
-0.29
-0.225
-0.22
-0.23
-0.125
-0.195
-0.235
-0.21
-0.22
-0.095
-0.195
-0.34
-0.22
-0.15
-0.225
-0.215
-0.245
-0.19
-0.225
-0.26
-0.3
-0.285
-0.155
-0.27
-0.195
-0.235
-0.24
-0.235
-0.285
-0.29
-0.27
-0.36
-0.29
-0.3
-0.31
-0.28
-0.165
-0.115
0.015
0.145
0.365
0.34
0.485
0.52
0.525
0.48
0.415
0.245
0.095
-0.015
-0.065
-0.185
-0.22
-0.315
-0.23
-0.165
-0.08
-0.165
-0.19
-0.235
-0.275
-0.275
-0.27
-0.275
-0.16
-0.28
-0.25
-0.22
-0.185
-0.29
-0.345
-0.275
-0.245
-0.205
-0.265
-0.28
-0.26
-0.265
-0.245
-0.21
-0.265
-0.25
-0.22
-0.225
-0.25
-0.25
-0.26
-0.295
-0.21
-0.24
-0.27
-0.23
-0.21
-0.25
-0.3
-0.2
-0.18
-0.21
-0.275
-0.27
-0.215
-0.195
-0.205
-0.245
-0.22
-0.265
-0.245
-0.305
-0.255
-0.185
-0.32
-0.32
-0.14
-0.17
-0.22
-0.095
-0.135
-0.22
-0.275
-0.31
-0.245
-0.24
-0.21
-0.175
-0.23
-0.245
-0.125
-0.15
-0.22
-0.31
-0.22
-0.235
-0.195
-0.115
-0.25
-0.225
-0.16
-0.135
-0.21
-0.175
-0.16
-0.14
-0.135
-0.095
-0.15
-0.135
-0.09
-0.145
-0.215
-0.14
-0.07
-0.09
-0.125
-0.08
-0.1
-0.175
-0.16
-0.145
-0.03
-0.11
-0.07
-0.07
-0.135
-0.215
-0.04
-0.035
-0.045
-0.16
-0.135
-0.11
-0.12
-0.085
-0.06
-0.225
-0.14
-0.16
-0.115
-0.085
-0.155
-0.285
-0.195
-0.155
-0.215
-0.185
-0.205
-0.2
-0.225
-0.23
-0.225
-0.225
-0.18
-0.12
-0.19
-0.13
-0.24
-0.24
-0.22
-0.23
-0.195
-0.22
-0.32
-0.315
-0.12
-0.26
-0.135
-0.205
-0.365
-0.265
-0.315
-0.34
-0.29
-0.16
-0.095
-0.165
-0.205
-0.22
-0.225
-0.24
-0.245
-0.27
-0.25
-0.21
-0.22
-0.28
-0.265
-0.16
-0.21
-0.17
-0.24
-0.2
-0.19
-0.23
-0.215
-0.2
-0.225
-0.24
-0.355
-0.285
-0.28
-0.25
-0.27
-0.225
-0.185
-0.23
-0.24
-0.24
-0.27
-0.215
-0.17
-0.28
-0.225
-0.18
-0.235
-0.34
-0.315
-0.21
-0.3
-0.295
-0.2
-0.275
-0.27
-0.23
-0.265
-0.34
-0.32
-0.25
-0.26
-0.205
-0.2
-0.275
-0.25
-0.2
-0.19
-0.265
-0.265
-0.175
-0.24
-0.175
-0.25
-0.3
-0.245
-0.235
-0.265
-0.16
-0.21
-0.255
-0.3
-0.295
-0.185
-0.155
-0.115
-0.135
-0.215
-0.22
-0.205
-0.225
-0.31
-0.245
-0.285
-0.245
-0.13
-0.17
-0.205
-0.14
-0.245
-0.2
-0.28
-0.275
-0.29
-0.2
-0.245
-0.265
-0.225
-0.235
-0.115
-0.185
-0.265
-0.25
-0.24
-0.2
-0.205
-0.25
-0.145
-0.23
-0.31
-0.29
-0.295
-0.245
-0.23
-0.255
-0.32
-0.27
-0.185
-0.18
-0.275
-0.295
-0.3
-0.28
-0.255
-0.255
-0.245
-0.205
-0.18
-0.225
-0.195
-0.265
-0.29
-0.195
-0.25
-0.255
-0.24
-0.28
-0.265
-0.245
-0.19
-0.37
-0.285
-0.22
-0.215
-0.37
-0.28
-0.225
-0.32
-0.375
-0.35
-0.295
-0.305
-0.345
-0.165
-0.07
0.05
0.105
0.205
0.32
0.445
0.485
0.465
0.37
0.275
0.135
0.02
-0.075
-0.155
-0.175
-0.21
-0.22
-0.23
-0.27
-0.305
-0.32
-0.19
-0.225
-0.285
-0.23
-0.24
-0.23
-0.235
-0.31
-0.295
-0.32
-0.235
-0.305
-0.33
-0.25
-0.215
-0.195
-0.285
-0.235
-0.245
-0.37
-0.255
-0.275
-0.24
-0.27
-0.295
-0.305
-0.27
-0.195
-0.32
-0.285
-0.23
-0.265
-0.31
-0.305
-0.3
-0.285
-0.325
-0.335
-0.215
-0.225
-0.22
-0.265
-0.295
-0.305
-0.225
-0.315
-0.225
-0.32
-0.25
-0.255
-0.3
-0.22
-0.355
-0.24
-0.27
-0.22
-0.28
-0.295
-0.285
-0.305
-0.21
-0.205
-0.265
-0.3
-0.33
-0.315
-0.24
-0.14
-0.22
-0.21
-0.215
-0.25
-0.215
-0.18
-0.17
-0.305
-0.165
-0.22
-0.205
-0.21
-0.25
-0.11
-0.19
-0.19
-0.16
-0.225
-0.17
-0.19
-0.16
-0.16
-0.16
-0.055
-0.115
-0.25
-0.225
-0.12
-0.145
-0.14
-0.155
-0.125
-0.13
-0.11
-0.02
-0.175
-0.1
-0.16
-0.12
-0.125
-0.15
-0.165
-0.12
-0.08
-0.08
-0.175
-0.18
-0.145
-0.21
-0.22
-0.2
-0.175
-0.155
-0.2
-0.23
-0.165
-0.27
-0.2
-0.235
-0.13
-0.26
-0.315
-0.21
-0.16
-0.145
-0.27
-0.24
-0.26
-0.275
-0.26
-0.27
-0.275
-0.255
-0.13
-0.255
-0.27
-0.235
-0.23
-0.27
-0.265
-0.22
-0.355
-0.215
-0.255
-0.205
-0.235
-0.25
-0.255
-0.27
-0.245
-0.32
-0.265
-0.24
-0.32
-0.235
-0.25
-0.275
-0.275
-0.235
-0.275
-0.27
-0.25
-0.245
-0.26
-0.295
-0.245
-0.36
-0.345
-0.3
-0.3
-0.24
-0.245
-0.285
-0.26
-0.2
-0.2
-0.265
-0.26
-0.29
-0.275
-0.28
-0.255
-0.28
-0.255
-0.22
-0.3
-0.365
-0.29
-0.175
-0.23
-0.315
-0.25
-0.18
-0.275
-0.3
-0.17
-0.255
-0.335
-0.35
-0.245
-0.285
-0.19
-0.285
-0.22
-0.045
-0.295
-0.31
-0.29
-0.275
-0.275
-0.245
-0.19
-0.25
-0.28
-0.205
-0.25
-0.255
-0.275
-0.3
-0.275
-0.215
-0.175
-0.235
-0.255
-0.25
-0.29
-0.265
-0.21
-0.22
-0.185
-0.2
-0.3
-0.26
-0.18
-0.29
-0.315
-0.29
-0.17
-0.185
-0.215
-0.175
-0.195
-0.22
-0.26
-0.22
-0.2
-0.225
-0.265
-0.195
-0.19
-0.15
-0.135
-0.125
-0.125
-0.18
-0.255
-0.215
-0.25
-0.29
-0.31
-0.3
-0.235
-0.285
-0.255
-0.2
-0.19
-0.32
-0.23
-0.265
-0.305
-0.215
-0.19
-0.155
-0.285
-0.305
-0.22
-0.32
-0.23
-0.235
-0.3
-0.26
-0.285
-0.26
-0.325
-0.19
-0.22
-0.195
-0.2
-0.28
-0.33
-0.3
-0.285
-0.31
-0.265
-0.2
-0.265
-0.285
-0.36
-0.295
-0.325
-0.42
-0.385
-0.265
-0.29
-0.22
-0.16
-0.04
0.035
0.15
0.255
0.335
0.425
0.555
0.545
0.385
0.295
0.08
0.025
-0.095
-0.155
-0.135
-0.18
-0.22
-0.235
-0.2
-0.305
-0.24
-0.215
-0.17
-0.3
-0.265
-0.215
-0.135
-0.205
-0.24
-0.34
-0.335
-0.235
-0.195
-0.285
-0.245
-0.28
-0.225
-0.305
-0.24
-0.295
-0.325
-0.32
-0.22
-0.27
-0.21
-0.205
-0.24
-0.26
-0.355
-0.305
-0.255
-0.265
-0.265
-0.245
