# TIPE ECG 2021 - ECG-ID Database v1.0.0 par Physionet
# [Numéro de la personne, Période d'échantillonnage, Prénom, Age, Sexe, Date de l'enregistrement]
[35, 0.002, Richard, 25, H, 13.05.2005]
-0.98
-0.935
-0.88
-0.94
-0.945
-0.925
-0.885
-0.87
-0.915
-0.94
-0.925
-0.935
-0.93
-0.92
-0.915
-0.95
-0.945
-0.94
-0.905
-0.92
-0.91
-0.9
-0.91
-0.92
-0.91
-0.875
-0.895
-0.905
-0.945
-0.945
-0.915
-0.97
-0.93
-0.915
-0.92
-0.89
-0.895
-0.92
-0.915
-0.905
-0.925
-0.9
-0.915
-0.87
-0.875
-0.88
-0.885
-0.895
-0.9
-0.85
-0.905
-0.91
-0.905
-0.89
-0.905
-0.925
-0.9
-0.855
-0.88
-0.9
-0.86
-0.845
-0.92
-0.905
-0.935
-0.955
-0.905
-0.885
-0.87
-0.875
-0.905
-0.92
-0.93
-0.92
-0.925
-0.9
-0.92
-0.895
-0.91
-0.9
-0.91
-0.915
-0.9
-0.925
-0.895
-0.885
-0.91
-0.91
-0.905
-0.91
-0.895
-0.905
-0.91
-0.89
-0.885
-0.91
-0.9
-0.92
-0.895
-0.92
-0.855
-0.835
-0.88
-0.935
-0.92
-0.92
-0.91
-0.905
-0.91
-0.91
-0.925
-0.97
-0.92
-0.905
-0.9
-0.92
-0.89
-0.9
-0.925
-0.895
-0.915
-0.93
-0.9
-0.895
-0.895
-0.9
-0.885
-0.865
-0.92
-0.895
-0.94
-0.97
-0.945
-0.905
-0.885
-0.905
-0.885
-0.88
-0.87
-0.89
-0.89
-0.855
-0.815
-0.885
-0.905
-0.905
-0.895
-0.895
-0.855
-0.85
-0.89
-0.84
-0.855
-0.85
-0.83
-0.855
-0.87
-0.83
-0.79
-0.77
-0.85
-0.87
-0.87
-0.875
-0.865
-0.835
-0.865
-0.89
-0.895
-0.915
-0.91
-0.935
-0.895
-0.89
-0.83
-0.875
-0.925
-0.89
-0.865
-0.915
-0.92
-0.92
-0.89
-0.87
-0.905
-0.91
-0.915
-0.9
-0.93
-0.91
-0.89
-0.9
-0.87
-0.875
-0.86
-0.955
-0.93
-0.915
-0.9
-0.895
-0.865
-0.91
-0.89
-0.905
-0.905
-0.905
-0.905
-0.94
-0.9
-0.925
-0.955
-0.96
-0.985
-1.03
-1.065
-1.065
-1.02
-0.96
-0.865
-0.86
-0.74
-0.585
-0.435
-0.28
-0.13
0.0
0.095
0.065
0.065
-0.01
-0.09
-0.18
-0.28
-0.415
-0.55
-0.63
-0.68
-0.675
-0.665
-0.685
-0.785
-0.835
-0.845
-0.85
-0.87
-0.88
-0.88
-0.89
-0.88
-0.875
-0.9
-0.89
-0.875
-0.86
-0.865
-0.855
-0.865
-0.885
-0.86
-0.87
-0.915
-0.91
-0.87
-0.865
-0.87
-0.865
-0.895
-0.9
-0.825
-0.84
-0.855
-0.85
-0.86
-0.885
-0.885
-0.825
-0.765
-0.83
-0.845
-0.85
-0.84
-0.835
-0.83
-0.85
-0.84
-0.845
-0.81
-0.78
-0.78
-0.86
-0.87
-0.835
-0.835
-0.815
-0.825
-0.805
-0.79
-0.78
-0.8
-0.805
-0.78
-0.765
-0.79
-0.785
-0.78
-0.74
-0.735
-0.745
-0.77
-0.755
-0.795
-0.77
-0.75
-0.7
-0.675
-0.675
-0.665
-0.7
-0.635
-0.635
-0.635
-0.635
-0.645
-0.655
-0.635
-0.615
-0.605
-0.645
-0.6
-0.605
-0.6
-0.575
-0.555
-0.585
-0.595
-0.6
-0.615
-0.58
-0.615
-0.625
-0.65
-0.67
-0.63
-0.635
-0.605
-0.645
-0.705
-0.685
-0.685
-0.7
-0.71
-0.71
-0.745
-0.72
-0.67
-0.66
-0.75
-0.83
-0.815
-0.81
-0.77
-0.765
-0.765
-0.765
-0.675
-0.76
-0.825
-0.86
-0.83
-0.8
-0.87
-0.84
-0.88
-0.83
-0.835
-0.775
-0.8
-0.845
-0.82
-0.82
-0.795
-0.805
-0.805
-0.83
-0.83
-0.83
-0.82
-0.83
-0.86
-0.855
-0.84
-0.835
-0.845
-0.86
-0.875
-0.835
-0.78
-0.775
-0.78
-0.825
-0.83
-0.82
-0.795
-0.81
-0.845
-0.81
-0.82
-0.82
-0.85
-0.84
-0.81
-0.82
-0.815
-0.845
-0.845
-0.835
-0.82
-0.795
-0.805
-0.805
-0.805
-0.835
-0.815
-0.81
-0.8
-0.805
-0.845
-0.825
-0.825
-0.855
-0.845
-0.84
-0.81
-0.82
-0.775
-0.77
-0.81
-0.78
-0.785
-0.78
-0.815
-0.785
-0.78
-0.835
-0.795
-0.815
-0.77
-0.795
-0.785
-0.785
-0.78
-0.775
-0.77
-0.78
-0.82
-0.815
-0.775
-0.785
-0.795
-0.75
-0.78
-0.775
-0.765
-0.765
-0.785
-0.795
-0.8
-0.845
-0.825
-0.775
-0.76
-0.725
-0.76
-0.75
-0.76
-0.8
-0.815
-0.78
-0.78
-0.775
-0.76
-0.74
-0.77
-0.78
-0.78
-0.79
-0.795
-0.785
-0.755
-0.765
-0.805
-0.775
-0.805
-0.76
-0.755
-0.785
-0.785
-0.785
-0.785
-0.78
-0.775
-0.815
-0.795
-0.77
-0.77
-0.76
-0.755
-0.765
-0.775
-0.775
-0.8
-0.78
-0.82
-0.785
-0.795
-0.79
-0.775
-0.765
-0.79
-0.78
-0.71
-0.755
-0.765
-0.775
-0.755
-0.79
-0.785
-0.785
-0.785
-0.815
-0.775
-0.795
-0.765
-0.755
-0.765
-0.785
-0.775
-0.765
-0.755
-0.785
-0.79
-0.795
-0.79
-0.76
-0.755
-0.75
-0.81
-0.755
-0.76
-0.745
-0.775
-0.75
-0.745
-0.74
-0.765
-0.73
-0.775
-0.745
-0.71
-0.66
-0.69
-0.73
-0.715
-0.71
-0.725
-0.69
-0.67
-0.71
-0.725
-0.705
-0.705
-0.72
-0.715
-0.72
-0.695
-0.72
-0.75
-0.775
-0.755
-0.75
-0.75
-0.765
-0.745
-0.775
-0.77
-0.765
-0.8
-0.78
-0.765
-0.75
-0.76
-0.815
-0.775
-0.785
-0.815
-0.785
-0.795
-0.82
-0.765
-0.735
-0.79
-0.775
-0.765
-0.75
-0.76
-0.76
-0.79
-0.805
-0.81
-0.785
-0.78
-0.785
-0.795
-0.78
-0.79
-0.775
-0.79
-0.795
-0.815
-0.82
-0.83
-0.83
-0.9
-0.885
-0.955
-0.95
-0.88
-0.775
-0.7
-0.655
-0.545
-0.41
-0.28
-0.095
0.04
0.115
0.195
0.19
0.105
0.07
-0.035
-0.125
-0.23
-0.395
-0.52
-0.575
-0.565
-0.6
-0.655
-0.66
-0.685
-0.72
-0.735
-0.735
-0.75
-0.805
-0.81
-0.83
-0.815
-0.775
-0.76
-0.745
-0.77
-0.755
-0.755
-0.755
-0.765
-0.82
-0.77
-0.795
-0.8
-0.795
-0.795
-0.77
-0.755
-0.775
-0.76
-0.765
-0.725
-0.725
-0.74
-0.795
-0.74
-0.74
-0.755
-0.8
-0.75
-0.735
-0.765
-0.735
-0.755
-0.715
-0.715
-0.77
-0.755
-0.745
-0.735
-0.75
-0.76
-0.745
-0.73
-0.71
-0.7
-0.68
-0.69
-0.685
-0.72
-0.735
-0.685
-0.665
-0.66
-0.725
-0.695
-0.65
-0.675
-0.67
-0.66
-0.635
-0.64
-0.645
-0.665
-0.625
-0.625
-0.63
-0.615
-0.61
-0.55
-0.575
-0.55
-0.555
-0.565
-0.535
-0.56
-0.51
-0.5
-0.53
-0.56
-0.525
-0.46
-0.475
-0.5
-0.53
-0.485
-0.495
-0.505
-0.525
-0.535
-0.505
-0.525
-0.535
-0.535
-0.48
-0.52
-0.555
-0.555
-0.595
-0.61
-0.6
-0.605
-0.58
-0.595
-0.61
-0.63
-0.615
-0.665
-0.62
-0.695
-0.7
-0.705
-0.74
-0.715
-0.72
-0.69
-0.7
-0.7
-0.72
-0.725
-0.725
-0.71
-0.745
-0.755
-0.715
-0.745
-0.72
-0.745
-0.77
-0.775
-0.785
-0.765
-0.755
-0.76
-0.76
-0.76
-0.75
-0.73
-0.745
-0.78
-0.765
-0.745
-0.77
-0.79
-0.77
-0.76
-0.79
-0.785
-0.785
-0.745
-0.76
-0.79
-0.775
-0.78
-0.78
-0.835
-0.8
-0.775
-0.77
-0.76
-0.74
-0.805
-0.8
-0.765
-0.745
-0.755
-0.82
-0.785
-0.77
-0.75
-0.805
-0.795
-0.79
-0.79
-0.83
-0.81
-0.82
-0.76
-0.73
-0.775
-0.77
-0.765
-0.755
-0.82
-0.84
-0.805
-0.79
-0.775
-0.76
-0.775
-0.745
-0.745
-0.73
-0.77
-0.805
-0.795
-0.76
-0.8
-0.795
-0.775
-0.735
-0.735
-0.75
-0.785
-0.76
-0.78
-0.775
-0.73
-0.695
-0.755
-0.785
-0.76
-0.78
-0.755
-0.735
-0.74
-0.775
-0.765
-0.815
-0.79
-0.76
-0.745
-0.765
-0.775
-0.75
-0.76
-0.755
-0.76
-0.795
-0.78
-0.75
-0.745
-0.735
-0.765
-0.78
-0.755
-0.785
-0.775
-0.78
-0.78
-0.81
-0.78
-0.795
-0.765
-0.76
-0.75
-0.745
-0.73
-0.765
-0.79
-0.76
-0.81
-0.78
-0.75
-0.76
-0.74
-0.775
-0.79
-0.77
-0.775
-0.785
-0.82
-0.795
-0.785
-0.765
-0.775
-0.765
-0.79
-0.825
-0.77
-0.74
-0.745
-0.81
-0.8
-0.76
-0.76
-0.75
-0.815
-0.805
-0.775
-0.785
-0.75
-0.755
-0.745
-0.765
-0.79
-0.79
-0.785
-0.785
-0.795
-0.77
-0.78
-0.76
-0.75
-0.78
-0.77
-0.755
-0.78
-0.8
-0.77
-0.735
-0.74
-0.735
-0.76
-0.75
-0.75
-0.73
-0.76
-0.78
-0.72
-0.74
-0.75
-0.75
-0.71
-0.71
-0.7
-0.685
-0.675
-0.7
-0.725
-0.755
-0.755
-0.785
-0.715
-0.685
-0.685
-0.75
-0.76
-0.785
-0.805
-0.765
-0.775
-0.765
-0.775
-0.77
-0.805
-0.79
-0.775
-0.775
-0.78
-0.79
-0.805
-0.785
-0.72
-0.8
-0.81
-0.825
-0.81
-0.8
-0.79
-0.77
-0.78
-0.785
-0.785
-0.765
-0.75
-0.745
-0.82
-0.8
-0.755
-0.76
-0.795
-0.825
-0.78
-0.815
-0.81
-0.775
-0.725
-0.795
-0.88
-0.855
-0.88
-0.91
-0.92
-0.92
-0.945
-0.89
-0.85
-0.765
-0.68
-0.55
-0.42
-0.24
-0.075
0.045
0.18
0.225
0.23
0.105
0.05
-0.01
-0.09
-0.21
-0.41
-0.55
-0.61
-0.565
-0.585
-0.625
-0.66
-0.67
-0.675
-0.7
-0.77
-0.755
-0.775
-0.78
-0.81
-0.765
-0.735
-0.765
-0.755
-0.765
-0.775
-0.785
-0.81
-0.755
-0.73
-0.735
-0.75
-0.76
-0.755
-0.765
-0.745
-0.76
-0.73
-0.76
-0.735
-0.72
-0.76
-0.725
-0.68
-0.72
-0.725
-0.725
-0.735
-0.755
-0.72
-0.715
-0.705
-0.71
-0.755
-0.73
-0.74
-0.76
-0.685
-0.63
-0.68
-0.74
-0.735
-0.71
-0.69
-0.69
-0.685
-0.68
-0.675
-0.665
-0.675
-0.685
-0.68
-0.67
-0.625
-0.635
-0.645
-0.665
-0.64
-0.595
-0.625
-0.61
-0.61
-0.59
-0.58
-0.595
-0.55
-0.575
-0.535
-0.515
-0.53
-0.53
-0.52
-0.535
-0.495
-0.505
-0.535
-0.55
-0.485
-0.47
-0.46
-0.45
-0.48
-0.44
-0.455
-0.47
-0.44
-0.44
-0.425
-0.49
-0.51
-0.475
-0.49
-0.505
-0.49
-0.51
-0.54
-0.535
-0.54
-0.56
-0.575
-0.585
-0.59
-0.585
-0.605
-0.595
-0.59
-0.6
-0.62
-0.635
-0.64
-0.63
-0.67
-0.67
-0.675
-0.67
-0.605
-0.64
-0.72
-0.705
-0.705
-0.725
-0.695
-0.7
-0.655
-0.71
-0.75
-0.705
-0.68
-0.74
-0.7
-0.705
-0.725
-0.725
-0.705
-0.685
-0.725
-0.715
-0.69
-0.695
-0.695
-0.705
-0.725
-0.735
-0.725
-0.7
-0.71
-0.73
-0.735
-0.725
-0.7
-0.735
-0.7
-0.715
-0.68
-0.695
-0.715
-0.715
-0.725
-0.72
-0.75
-0.715
-0.74
-0.725
-0.695
-0.695
-0.75
-0.73
-0.76
-0.71
-0.7
-0.72
-0.74
-0.725
-0.685
-0.7
-0.73
-0.755
-0.7
-0.72
-0.69
-0.695
-0.725
-0.695
-0.735
-0.695
-0.735
-0.72
-0.715
-0.695
-0.695
-0.71
-0.685
-0.685
-0.72
-0.7
-0.695
-0.645
-0.615
-0.635
-0.68
-0.725
-0.715
-0.7
-0.675
-0.705
-0.705
-0.66
-0.67
-0.655
-0.66
-0.695
-0.685
-0.625
-0.655
-0.725
-0.725
-0.685
-0.695
-0.72
-0.68
-0.685
-0.67
-0.68
-0.7
-0.685
-0.655
-0.695
-0.715
-0.69
-0.69
-0.7
-0.705
-0.685
-0.635
-0.66
-0.715
-0.7
-0.705
-0.73
-0.725
-0.73
-0.7
-0.715
-0.7
-0.68
-0.68
-0.67
-0.69
-0.69
-0.66
-0.685
-0.72
-0.68
-0.69
-0.68
-0.705
-0.715
-0.65
-0.655
-0.685
-0.65
-0.73
-0.735
-0.725
-0.745
-0.695
-0.69
-0.645
-0.715
-0.71
-0.7
-0.7
-0.705
-0.675
-0.72
-0.74
-0.715
-0.72
-0.725
-0.7
-0.695
-0.7
-0.665
-0.63
-0.655
-0.67
-0.72
-0.685
-0.675
-0.64
-0.665
-0.685
-0.69
-0.675
-0.63
-0.625
-0.64
-0.655
-0.635
-0.63
-0.635
-0.625
-0.6
-0.59
-0.63
-0.61
-0.665
-0.635
-0.645
-0.645
-0.635
-0.64
-0.65
-0.66
-0.66
-0.66
-0.695
-0.67
-0.705
-0.75
-0.71
-0.675
-0.635
-0.665
-0.71
-0.7
-0.68
-0.675
-0.675
-0.65
-0.665
-0.72
-0.72
-0.705
-0.7
-0.695
-0.71
-0.715
-0.67
-0.685
-0.695
-0.685
-0.67
-0.7
-0.695
-0.685
-0.71
-0.71
-0.7
-0.685
-0.67
-0.66
-0.7
-0.72
-0.685
-0.7
-0.675
-0.745
-0.805
-0.85
-0.86
-0.835
-0.765
-0.79
-0.735
-0.605
-0.495
-0.37
-0.24
-0.085
0.08
0.22
0.28
0.305
0.29
0.205
0.105
0.025
-0.07
-0.205
-0.35
-0.45
-0.5
-0.5
-0.515
-0.515
-0.545
-0.615
-0.615
-0.625
-0.67
-0.68
-0.65
-0.65
-0.66
-0.665
-0.65
-0.635
-0.65
-0.635
-0.605
-0.635
-0.67
-0.68
-0.665
-0.65
-0.67
-0.655
-0.645
-0.65
-0.61
-0.635
-0.63
-0.595
-0.635
-0.63
-0.63
-0.64
-0.655
-0.645
-0.62
-0.61
-0.615
-0.62
-0.62
-0.64
-0.6
-0.625
-0.64
-0.645
-0.605
-0.6
-0.605
-0.575
-0.525
-0.535
-0.6
-0.635
-0.605
-0.56
-0.58
-0.59
-0.56
-0.555
-0.525
-0.56
-0.58
-0.56
-0.545
-0.515
-0.495
-0.52
-0.54
-0.53
-0.505
-0.495
-0.495
-0.485
-0.49
-0.46
-0.52
-0.435
-0.445
-0.43
-0.395
-0.42
-0.42
-0.415
-0.405
-0.405
-0.39
-0.385
-0.42
-0.31
-0.32
-0.36
-0.37
-0.365
-0.36
-0.355
-0.36
-0.36
-0.355
-0.4
-0.38
-0.37
-0.425
-0.395
-0.395
-0.445
-0.425
-0.39
-0.365
-0.415
-0.45
-0.48
-0.505
-0.515
-0.545
-0.51
-0.515
-0.52
-0.545
-0.55
-0.545
-0.51
-0.51
-0.58
-0.59
-0.56
-0.555
-0.53
-0.575
-0.645
-0.605
-0.615
-0.6
-0.575
-0.59
-0.605
-0.585
-0.605
-0.62
-0.62
-0.585
-0.565
-0.64
-0.635
-0.63
-0.625
-0.575
-0.595
-0.605
-0.63
-0.63
-0.615
-0.645
-0.645
-0.595
-0.575
-0.58
-0.625
-0.645
-0.605
-0.615
-0.595
-0.635
-0.655
-0.62
-0.61
-0.585
-0.59
-0.605
-0.575
-0.555
-0.65
-0.69
-0.64
-0.625
-0.64
-0.6
-0.595
-0.665
-0.605
-0.62
-0.615
-0.63
-0.57
-0.59
-0.635
-0.635
-0.605
-0.605
-0.585
-0.605
-0.595
-0.615
-0.615
-0.615
-0.625
-0.59
-0.565
-0.585
-0.58
-0.59
-0.64
-0.6
-0.56
-0.575
-0.565
-0.57
-0.55
-0.54
-0.575
-0.58
-0.575
-0.54
-0.565
-0.59
-0.63
-0.57
-0.575
-0.595
-0.59
-0.555
-0.555
-0.61
-0.595
-0.605
-0.58
-0.57
-0.575
-0.56
-0.59
-0.56
-0.555
-0.61
-0.61
-0.595
-0.57
-0.565
-0.6
-0.62
-0.6
-0.565
-0.585
-0.625
-0.615
-0.595
-0.575
-0.535
-0.59
-0.615
-0.565
-0.57
-0.575
-0.615
-0.61
-0.595
-0.61
-0.59
-0.62
-0.55
-0.52
-0.59
-0.565
-0.59
-0.605
-0.615
-0.6
-0.58
-0.6
-0.58
-0.575
-0.59
-0.595
-0.575
-0.56
-0.565
-0.58
-0.595
-0.61
-0.605
-0.575
-0.585
-0.55
-0.575
-0.555
-0.55
-0.565
-0.555
-0.525
-0.53
-0.545
-0.54
-0.57
-0.52
-0.53
-0.48
-0.49
-0.485
-0.51
-0.52
-0.495
-0.555
-0.56
-0.54
-0.52
-0.555
-0.525
-0.51
-0.54
-0.585
-0.59
-0.57
-0.61
-0.625
-0.585
-0.605
-0.58
-0.59
-0.575
-0.59
-0.585
-0.575
-0.58
-0.565
-0.59
-0.62
-0.575
-0.585
-0.58
-0.56
-0.59
-0.605
-0.6
-0.62
-0.615
-0.585
-0.56
-0.57
-0.575
-0.565
-0.605
-0.59
-0.58
-0.58
-0.595
-0.595
-0.59
-0.57
-0.61
-0.67
-0.75
-0.755
-0.71
-0.725
-0.695
-0.695
-0.6
-0.49
-0.41
-0.275
-0.15
0.025
0.21
0.365
0.4
0.43
0.36
0.315
0.21
0.13
0.03
-0.145
-0.305
-0.405
-0.41
-0.395
-0.43
-0.435
-0.485
-0.515
-0.5
-0.495
-0.525
-0.55
-0.59
-0.625
-0.59
-0.55
-0.575
-0.55
-0.54
-0.56
-0.565
-0.565
-0.565
-0.55
-0.555
-0.55
-0.54
-0.56
-0.52
-0.545
-0.555
-0.57
-0.58
-0.555
-0.57
-0.525
-0.52
-0.52
-0.525
-0.47
-0.52
-0.495
-0.515
-0.495
-0.505
-0.56
-0.515
-0.495
-0.515
-0.535
-0.52
-0.55
-0.53
-0.525
-0.525
-0.505
-0.485
-0.495
-0.48
-0.47
-0.47
-0.46
-0.465
-0.47
-0.48
-0.48
-0.48
-0.465
-0.45
-0.42
-0.405
-0.415
-0.42
-0.41
-0.425
-0.43
-0.41
-0.425
-0.395
-0.38
-0.395
-0.385
-0.365
-0.32
-0.325
-0.285
-0.31
-0.3
-0.335
-0.28
-0.285
-0.28
-0.28
-0.275
-0.245
-0.27
-0.24
-0.22
-0.25
-0.28
-0.305
-0.285
-0.27
-0.27
-0.29
-0.305
-0.335
-0.345
-0.33
-0.305
-0.335
-0.32
-0.355
-0.375
-0.36
-0.37
-0.4
-0.405
-0.425
-0.4
-0.42
-0.45
-0.43
-0.425
-0.445
-0.465
-0.44
-0.495
-0.465
-0.45
-0.5
-0.515
-0.485
-0.48
-0.475
-0.505
-0.505
-0.505
-0.535
-0.5
-0.515
-0.5
-0.49
-0.54
-0.545
-0.515
-0.495
-0.505
-0.54
-0.505
-0.54
-0.54
-0.52
-0.54
-0.515
-0.525
-0.49
-0.525
-0.555
-0.53
-0.56
-0.525
-0.52
-0.515
-0.545
-0.55
-0.55
-0.55
-0.55
-0.5
-0.52
-0.545
-0.535
-0.53
-0.52
-0.53
-0.55
-0.55
-0.52
-0.565
-0.485
-0.52
-0.545
-0.54
-0.5
-0.525
-0.515
-0.53
-0.465
-0.485
-0.465
-0.505
-0.575
-0.6
-0.52
-0.475
-0.51
-0.495
-0.51
-0.515
-0.495
-0.52
-0.51
-0.495
-0.495
-0.495
-0.505
-0.525
-0.515
-0.505
-0.47
-0.49
-0.49
-0.495
-0.485
-0.485
-0.48
-0.505
-0.495
-0.49
-0.505
-0.505
-0.485
-0.47
-0.465
-0.5
-0.46
-0.47
-0.505
-0.475
-0.47
-0.495
-0.48
-0.505
-0.485
-0.5
-0.5
-0.455
-0.48
-0.525
-0.435
-0.45
-0.54
-0.53
-0.51
-0.475
-0.485
-0.505
-0.5
-0.53
-0.53
-0.495
-0.48
-0.48
-0.49
-0.535
-0.49
-0.455
-0.47
-0.485
-0.485
-0.485
-0.51
-0.495
-0.49
-0.475
-0.485
-0.47
-0.475
-0.465
-0.445
-0.465
-0.44
-0.45
-0.46
-0.465
-0.455
-0.46
-0.465
-0.465
-0.435
-0.43
-0.46
-0.45
-0.415
-0.44
-0.44
-0.4
-0.385
-0.47
-0.495
-0.475
-0.47
-0.505
-0.525
-0.515
-0.515
-0.475
-0.47
-0.5
-0.48
-0.51
-0.51
-0.525
-0.525
-0.505
-0.52
-0.515
-0.49
-0.475
-0.51
-0.515
-0.52
-0.475
-0.475
-0.52
-0.51
-0.5
-0.49
-0.485
-0.515
-0.57
-0.535
-0.52
-0.485
-0.47
-0.48
-0.535
-0.545
-0.54
-0.515
-0.475
-0.54
-0.55
-0.545
-0.55
-0.62
-0.7
-0.685
-0.65
-0.635
-0.575
-0.465
-0.415
-0.335
-0.18
0.0
0.17
0.325
0.43
0.485
0.485
0.45
0.37
0.295
0.165
0.02
-0.15
-0.25
-0.335
-0.35
-0.315
-0.335
-0.405
-0.405
-0.41
-0.49
-0.515
-0.5
-0.47
-0.45
-0.485
-0.51
-0.505
-0.505
-0.525
-0.51
-0.48
-0.42
-0.48
-0.5
-0.5
-0.485
-0.495
-0.485
-0.48
-0.495
-0.505
-0.445
-0.43
-0.495
-0.49
-0.445
-0.435
-0.45
-0.495
-0.48
-0.505
-0.48
-0.435
-0.46
-0.435
-0.465
-0.435
-0.44
-0.47
-0.46
-0.455
-0.44
-0.385
-0.355
-0.405
-0.45
-0.455
-0.44
-0.47
-0.41
-0.41
-0.385
-0.38
-0.41
-0.39
-0.375
-0.39
-0.37
-0.38
-0.41
-0.38
-0.36
-0.355
-0.275
-0.325
-0.375
-0.32
-0.33
-0.325
-0.32
-0.285
-0.235
-0.3
-0.305
-0.26
-0.24
-0.25
-0.24
-0.25
-0.25
-0.22
-0.21
-0.225
-0.26
-0.26
-0.215
-0.155
-0.18
-0.18
-0.22
-0.215
-0.205
-0.21
-0.2
-0.24
-0.265
-0.2
-0.225
-0.225
-0.245
-0.225
-0.265
-0.32
-0.315
-0.3
-0.315
-0.33
-0.305
-0.29
-0.305
-0.36
-0.395
-0.37
-0.355
-0.38
-0.38
-0.405
-0.435
-0.415
-0.44
-0.4
-0.41
-0.445
-0.455
-0.42
-0.41
-0.425
-0.42
-0.49
-0.475
-0.445
-0.42
-0.455
-0.435
-0.445
-0.46
-0.44
-0.485
-0.48
-0.43
-0.455
-0.46
-0.455
-0.46
-0.43
-0.47
-0.48
-0.46
-0.45
-0.47
-0.49
-0.475
-0.49
-0.465
-0.5
-0.48
-0.46
-0.45
-0.435
-0.475
-0.485
-0.49
-0.44
-0.455
-0.475
-0.495
-0.505
-0.465
-0.44
-0.435
-0.46
-0.475
-0.48
-0.455
-0.425
-0.43
-0.435
-0.445
-0.44
-0.405
-0.37
-0.455
-0.505
-0.49
-0.465
-0.475
-0.455
-0.43
-0.425
-0.435
-0.455
-0.48
-0.45
-0.43
-0.435
-0.43
-0.395
-0.405
-0.41
-0.42
-0.44
-0.44
-0.375
-0.4
-0.44
-0.455
-0.42
-0.445
-0.44
-0.42
-0.4
-0.42
-0.425
-0.44
-0.41
-0.415
-0.455
-0.41
-0.365
-0.43
-0.425
-0.43
-0.445
-0.425
-0.44
-0.465
-0.455
-0.43
-0.43
-0.415
-0.445
-0.46
-0.46
-0.42
-0.405
-0.43
-0.445
-0.435
-0.395
-0.405
-0.475
-0.425
-0.38
-0.4
-0.425
-0.455
-0.42
-0.41
-0.39
-0.41
-0.415
-0.425
-0.485
-0.425
-0.43
-0.43
-0.41
-0.355
-0.345
-0.37
-0.44
-0.405
-0.355
-0.365
-0.38
-0.355
-0.39
-0.405
-0.365
-0.345
-0.37
-0.395
-0.38
-0.42
-0.4
-0.395
-0.385
-0.42
-0.455
-0.425
-0.445
-0.465
-0.435
-0.43
-0.425
-0.475
-0.445
-0.425
-0.405
-0.45
-0.47
-0.455
-0.44
-0.42
-0.43
-0.45
-0.47
-0.47
-0.46
-0.46
-0.395
-0.415
-0.42
-0.42
-0.43
-0.37
-0.41
-0.405
-0.455
-0.44
-0.43
-0.465
-0.44
-0.435
-0.44
-0.425
-0.445
-0.455
-0.52
-0.525
-0.515
-0.5
-0.58
-0.595
-0.545
-0.495
-0.42
-0.29
-0.15
0.01
0.145
0.32
0.445
0.53
0.535
0.515
0.43
0.43
0.395
0.265
0.09
-0.065
-0.2
-0.3
-0.295
-0.265
-0.315
-0.395
-0.395
-0.39
-0.32
-0.405
-0.41
-0.405
-0.415
-0.425
-0.41
-0.455
-0.43
-0.44
-0.435
-0.43
-0.405
-0.4
-0.38
-0.45
-0.465
-0.425
-0.365
-0.395
-0.435
-0.44
-0.415
-0.435
-0.43
-0.42
-0.365
-0.4
-0.395
-0.34
-0.395
-0.41
-0.415
-0.36
-0.37
-0.36
-0.34
-0.345
-0.36
-0.355
-0.38
-0.39
-0.34
-0.37
-0.37
-0.35
-0.335
-0.37
-0.375
-0.345
-0.34
-0.34
-0.33
-0.315
-0.285
-0.305
-0.3
-0.27
-0.305
-0.3
-0.31
-0.305
-0.29
-0.285
-0.24
-0.235
-0.22
-0.255
-0.24
-0.205
-0.185
-0.215
-0.235
-0.205
-0.205
-0.19
-0.17
-0.185
-0.195
-0.15
-0.135
-0.125
-0.11
-0.125
-0.14
-0.125
-0.115
-0.16
-0.13
-0.1
-0.15
-0.155
-0.145
-0.125
-0.13
-0.135
-0.185
-0.185
-0.19
-0.175
-0.21
-0.205
-0.185
-0.235
-0.23
-0.225
-0.265
-0.225
-0.235
-0.29
-0.28
-0.305
-0.31
-0.33
-0.35
-0.32
-0.33
-0.335
-0.305
-0.295
-0.37
-0.365
-0.375
-0.39
-0.37
-0.385
-0.39
-0.39
-0.41
-0.4
-0.37
-0.385
-0.39
-0.41
-0.39
-0.36
-0.405
-0.405
-0.37
-0.405
-0.41
-0.385
-0.385
-0.42
-0.41
-0.395
-0.4
-0.39
-0.39
-0.43
-0.41
-0.39
-0.375
-0.425
-0.45
-0.415
-0.43
-0.405
-0.4
-0.405
-0.315
-0.39
-0.45
-0.45
-0.435
-0.42
-0.405
-0.415
-0.36
-0.39
-0.43
-0.41
-0.4
-0.43
-0.4
-0.385
-0.38
-0.395
-0.405
-0.37
-0.385
-0.405
-0.415
-0.43
-0.365
-0.315
-0.34
-0.365
-0.355
-0.345
-0.335
-0.315
-0.35
-0.395
-0.365
-0.35
-0.365
-0.38
-0.36
-0.365
-0.31
-0.345
-0.34
-0.33
-0.35
-0.365
-0.305
-0.22
-0.325
-0.365
-0.395
-0.37
-0.33
-0.375
-0.38
-0.32
-0.34
-0.365
-0.4
-0.37
-0.41
-0.375
-0.325
-0.3
-0.32
-0.34
-0.35
-0.375
-0.39
-0.38
-0.365
-0.365
-0.345
-0.325
-0.34
-0.315
-0.33
-0.39
-0.36
-0.355
-0.36
-0.345
-0.29
-0.245
-0.325
-0.355
-0.34
-0.325
-0.335
-0.315
-0.31
-0.235
-0.235
-0.315
-0.295
-0.35
-0.24
-0.285
-0.345
-0.34
-0.335
-0.37
-0.355
-0.33
-0.33
-0.395
-0.37
-0.355
-0.38
-0.35
-0.38
-0.32
-0.35
-0.315
-0.33
-0.365
-0.395
-0.38
-0.36
-0.36
-0.34
-0.34
-0.355
-0.4
-0.385
-0.37
-0.365
-0.355
-0.335
-0.335
-0.315
-0.375
-0.365
-0.38
-0.38
-0.37
-0.38
-0.36
-0.345
-0.31
-0.365
-0.375
-0.335
-0.34
-0.39
-0.405
-0.375
-0.42
-0.43
-0.44
-0.455
-0.52
-0.48
-0.405
-0.355
-0.27
-0.115
-0.035
0.13
0.335
0.47
0.52
0.465
0.425
0.4
0.375
0.38
0.26
0.15
-0.025
-0.17
-0.235
-0.26
-0.28
-0.315
-0.34
-0.325
-0.345
-0.34
-0.325
-0.345
-0.34
-0.355
-0.39
-0.39
-0.35
-0.34
-0.34
-0.335
-0.31
-0.265
-0.29
-0.355
-0.32
-0.335
-0.33
-0.345
-0.36
-0.33
-0.335
-0.31
-0.295
-0.29
-0.31
-0.315
-0.27
-0.295
-0.295
-0.265
-0.315
-0.32
-0.27
-0.24
-0.275
-0.295
-0.295
-0.28
-0.22
-0.28
-0.305
-0.29
-0.26
-0.24
-0.29
-0.285
-0.255
-0.26
-0.23
-0.18
-0.19
-0.25
-0.225
-0.22
-0.275
-0.2
-0.225
-0.23
-0.205
-0.16
-0.18
-0.14
-0.105
-0.16
-0.19
-0.19
-0.195
-0.12
-0.135
-0.11
-0.105
-0.14
-0.115
-0.055
-0.07
-0.055
-0.055
-0.05
-0.025
-0.025
0.005
-0.005
-0.03
-0.04
0.005
0.01
-0.02
-0.01
-0.02
-0.01
-0.03
-0.055
0.01
-0.025
-0.03
-0.09
-0.105
-0.005
0.015
0.0
-0.08
-0.07
-0.06
-0.105
-0.125
-0.155
-0.13
-0.135
-0.145
-0.18
-0.175
-0.185
-0.175
-0.13
-0.18
-0.215
-0.19
-0.18
-0.215
-0.21
-0.21
-0.185
-0.17
-0.21
-0.24
-0.27
-0.27
-0.235
-0.255
-0.25
-0.23
-0.295
-0.27
-0.21
-0.25
-0.265
-0.265
-0.275
-0.295
-0.255
-0.255
-0.235
-0.22
-0.265
-0.285
-0.26
-0.295
-0.29
-0.285
-0.295
-0.255
-0.22
-0.25
-0.305
-0.275
-0.24
-0.245
-0.3
-0.265
-0.27
-0.28
-0.255
-0.255
-0.245
-0.285
-0.28
-0.26
-0.275
-0.205
-0.205
-0.255
-0.255
-0.245
-0.25
-0.265
-0.26
-0.22
-0.205
-0.215
-0.215
-0.21
-0.215
-0.215
-0.235
-0.24
-0.205
-0.215
-0.225
-0.195
-0.2
-0.23
-0.205
-0.225
-0.19
-0.175
-0.14
-0.18
-0.22
-0.21
-0.21
-0.225
-0.28
-0.185
-0.215
-0.205
-0.2
-0.225
-0.245
-0.225
-0.185
-0.195
-0.24
-0.24
-0.245
-0.21
-0.2
-0.175
-0.17
-0.195
-0.215
-0.185
-0.19
-0.23
-0.255
-0.245
-0.2
-0.22
-0.21
-0.18
-0.155
-0.16
-0.19
-0.25
-0.23
-0.225
-0.215
-0.19
-0.185
-0.215
-0.18
-0.205
-0.2
-0.225
-0.215
-0.185
-0.135
-0.11
-0.14
-0.17
-0.165
-0.205
-0.18
-0.16
-0.14
-0.165
-0.22
-0.23
-0.255
-0.195
-0.21
-0.23
-0.24
-0.245
-0.235
-0.23
-0.215
-0.265
-0.25
-0.25
-0.195
-0.205
-0.215
-0.24
-0.23
-0.215
-0.22
-0.215
-0.21
-0.23
-0.23
-0.22
-0.22
-0.245
-0.265
-0.23
-0.23
-0.205
-0.245
-0.235
-0.275
-0.21
-0.19
-0.195
-0.255
-0.24
-0.21
-0.215
-0.255
-0.28
-0.3
-0.34
-0.34
-0.365
-0.35
-0.305
-0.275
-0.245
-0.225
-0.125
-0.03
0.1
0.265
0.475
0.59
0.595
0.64
0.635
0.615
0.54
0.49
0.44
0.315
0.165
0.04
-0.085
-0.13
-0.165
-0.145
-0.175
-0.15
-0.155
-0.135
-0.185
-0.19
-0.185
-0.205
-0.235
-0.255
-0.24
-0.2
-0.175
-0.17
-0.215
-0.215
-0.21
-0.225
-0.235
-0.19
-0.155
-0.17
-0.18
-0.22
-0.225
-0.215
-0.215
-0.21
-0.175
-0.175
-0.19
-0.215
-0.155
-0.19
-0.22
-0.21
-0.17
-0.18
-0.205
-0.17
-0.16
-0.165
-0.14
-0.16
-0.155
-0.185
-0.16
-0.155
-0.155
-0.125
-0.12
-0.15
-0.14
-0.145
-0.155
-0.165
-0.095
-0.11
-0.105
-0.115
-0.115
-0.115
-0.11
-0.085
-0.085
-0.1
-0.085
-0.08
-0.11
-0.085
-0.085
-0.03
-0.06
-0.01
0.005
-0.015
0.0
0.005
-0.005
0.025
0.06
0.05
0.095
0.07
0.05
0.015
-0.005
0.015
0.07
0.07
0.07
0.1
0.06
0.035
0.025
0.05
0.06
-0.01
0.005
0.04
0.025
0.005
-0.015
-0.005
-0.06
-0.025
-0.02
-0.025
-0.03
-0.05
-0.1
-0.115
-0.135
-0.13
-0.085
-0.12
-0.1
-0.105
-0.115
-0.145
-0.135
-0.12
-0.135
-0.14
-0.19
-0.21
-0.185
-0.15
-0.18
-0.13
-0.14
-0.2
-0.19
-0.185
-0.2
-0.18
-0.19
-0.245
-0.235
-0.245
-0.195
-0.185
-0.185
-0.21
-0.185
-0.21
-0.235
-0.215
-0.19
-0.165
-0.205
-0.28
-0.255
-0.195
-0.185
-0.215
-0.22
-0.235
-0.21
-0.21
-0.235
-0.24
-0.22
-0.19
-0.195
-0.21
-0.245
-0.2
-0.19
-0.22
-0.22
-0.2
-0.22
-0.21
-0.235
-0.23
-0.235
-0.21
-0.22
-0.2
-0.21
-0.185
-0.165
-0.19
-0.175
-0.18
-0.185
-0.21
-0.19
-0.185
-0.165
-0.185
-0.145
-0.15
-0.17
-0.185
-0.18
-0.17
-0.175
-0.185
-0.19
-0.185
-0.185
-0.21
-0.155
-0.18
-0.15
-0.12
-0.155
-0.175
-0.19
-0.17
-0.175
-0.125
-0.135
-0.18
-0.15
-0.18
-0.205
-0.17
-0.175
-0.18
-0.16
-0.17
-0.17
-0.125
-0.12
-0.155
-0.195
-0.185
-0.155
-0.145
-0.17
-0.145
-0.175
-0.145
-0.12
-0.155
-0.155
-0.17
-0.17
-0.195
-0.17
-0.175
-0.16
-0.13
-0.125
-0.135
-0.11
-0.1
-0.115
-0.13
-0.095
-0.095
-0.115
-0.145
-0.165
-0.165
-0.17
-0.195
-0.205
-0.19
-0.145
-0.15
-0.18
-0.205
-0.19
-0.17
-0.155
-0.18
-0.195
-0.17
-0.16
-0.205
-0.21
-0.215
-0.225
-0.215
-0.19
-0.17
-0.13
-0.185
-0.19
-0.21
-0.18
-0.18
-0.195
-0.23
-0.2
-0.16
-0.175
-0.195
-0.195
-0.2
-0.17
-0.17
-0.17
-0.19
-0.19
-0.215
-0.26
-0.255
-0.25
-0.285
-0.305
-0.325
-0.315
-0.3
-0.275
-0.275
-0.135
-0.025
0.125
0.265
0.415
0.51
0.62
0.73
0.765
0.73
0.675
0.57
0.555
0.445
0.265
0.145
0.045
-0.01
0.01
-0.01
-0.045
-0.07
-0.145
-0.165
-0.17
-0.17
-0.175
-0.18
-0.16
-0.175
-0.115
-0.175
-0.19
-0.185
-0.185
-0.185
-0.185
-0.175
-0.155
-0.16
-0.16
-0.215
-0.21
-0.17
-0.155
-0.175
-0.17
-0.175
-0.16
-0.15
-0.14
-0.17
-0.18
-0.19
-0.16
-0.16
-0.12
-0.145
-0.115
-0.11
-0.13
-0.16
-0.145
-0.13
-0.14
-0.11
-0.135
-0.115
-0.15
-0.14
-0.155
-0.115
-0.13
-0.145
-0.115
-0.11
-0.09
-0.1
-0.095
-0.075
-0.07
-0.05
-0.075
-0.075
-0.09
-0.11
-0.12
-0.045
-0.05
-0.035
-0.035
-0.045
-0.035
-0.035
-0.02
-0.015
0.035
0.115
0.085
0.03
0.065
0.1
0.08
-0.005
0.04
0.05
0.065
0.07
0.06
0.095
0.085
0.09
0.08
0.09
0.045
0.045
0.07
0.07
0.055
0.05
0.04
0.045
0.025
0.005
0.015
0.0
0.025
0.005
-0.025
-0.01
-0.03
-0.055
-0.105
-0.05
-0.09
-0.115
-0.07
-0.04
-0.025
-0.1
-0.125
-0.19
-0.185
-0.125
-0.1
-0.11
-0.17
-0.17
-0.11
-0.105
-0.175
-0.155
-0.13
-0.095
-0.12
-0.155
-0.155
-0.22
-0.195
-0.19
-0.15
-0.19
-0.18
-0.16
-0.155
-0.195
-0.16
-0.16
-0.195
-0.15
-0.17
-0.155
-0.165
-0.155
-0.17
-0.19
-0.21
-0.215
-0.155
-0.13
-0.215
-0.2
-0.16
-0.175
-0.18
-0.175
-0.165
-0.195
-0.17
-0.185
-0.19
-0.175
-0.18
-0.18
-0.165
-0.215
-0.2
-0.17
-0.155
-0.18
-0.2
-0.195
-0.205
-0.19
-0.175
-0.18
-0.155
-0.14
-0.15
-0.215
-0.19
-0.155
-0.175
-0.16
-0.16
-0.145
-0.16
-0.19
-0.195
-0.195
-0.15
-0.17
-0.12
-0.145
-0.18
-0.16
-0.145
-0.12
-0.15
-0.125
-0.135
-0.13
-0.175
-0.195
-0.165
-0.135
-0.155
-0.17
-0.16
-0.135
-0.16
-0.18
-0.15
-0.165
-0.145
-0.115
-0.16
-0.155
-0.155
-0.14
-0.135
-0.155
-0.16
-0.16
-0.17
-0.135
-0.145
-0.175
-0.165
-0.13
-0.115
-0.16
-0.16
-0.14
-0.14
-0.14
-0.115
-0.155
-0.165
-0.145
-0.135
-0.13
-0.13
-0.125
-0.155
-0.09
-0.125
-0.16
-0.08
-0.115
-0.105
-0.11
-0.095
-0.07
-0.07
-0.055
-0.055
-0.075
-0.11
-0.105
-0.095
-0.13
-0.125
-0.145
-0.15
-0.13
-0.135
-0.15
-0.14
-0.14
-0.145
-0.175
-0.17
-0.115
-0.13
-0.15
-0.14
-0.165
-0.165
-0.17
-0.155
-0.15
-0.14
-0.18
-0.18
-0.14
-0.17
-0.145
-0.115
-0.135
-0.16
-0.17
-0.16
-0.16
-0.175
-0.155
-0.155
-0.145
-0.175
-0.15
-0.125
-0.145
-0.145
-0.145
-0.1
-0.14
-0.17
-0.175
-0.195
-0.22
-0.195
-0.265
-0.325
-0.305
-0.255
-0.22
-0.19
-0.12
0.035
0.17
0.325
0.47
0.635
0.76
0.845
0.865
0.775
0.68
0.605
0.575
0.46
0.28
0.16
0.055
0.05
0.085
0.05
0.03
-0.085
-0.085
-0.09
-0.105
-0.155
-0.17
-0.145
-0.16
-0.09
-0.1
-0.165
-0.15
-0.16
-0.15
-0.125
-0.13
-0.15
-0.125
-0.1
-0.14
-0.16
-0.17
-0.14
-0.13
-0.145
-0.15
-0.12
-0.085
-0.025
-0.095
-0.17
-0.175
-0.15
-0.075
-0.115
-0.12
-0.1
-0.135
-0.12
-0.115
-0.095
-0.125
-0.155
-0.095
-0.095
-0.105
-0.1
-0.095
-0.09
-0.08
-0.075
-0.1
-0.105
-0.08
-0.045
-0.045
-0.09
-0.155
-0.075
-0.06
-0.045
-0.035
-0.055
-0.06
-0.035
-0.03
-0.055
-0.045
0.0
-0.005
-0.015
-0.015
0.035
0.085
0.025
0.0
0.015
0.065
0.055
0.075
0.05
0.06
0.09
0.105
0.08
0.08
0.105
0.12
0.105
0.11
0.085
0.075
0.125
0.15
0.08
0.11
0.135
0.085
0.06
0.05
0.095
0.07
0.085
0.06
0.03
0.0
0.035
0.055
0.04
0.015
-0.045
-0.045
-0.03
-0.03
-0.05
-0.085
-0.11
-0.06
-0.06
-0.045
-0.015
-0.085
-0.125
-0.125
-0.13
-0.135
-0.1
-0.115
-0.125
-0.11
-0.145
-0.145
-0.135
-0.105
-0.165
-0.135
-0.13
-0.115
-0.15
-0.18
-0.155
-0.125
-0.13
-0.13
-0.125
-0.15
-0.095
-0.06
-0.135
-0.18
-0.16
-0.15
-0.175
-0.165
-0.135
-0.14
-0.125
-0.145
-0.115
-0.115
-0.155
-0.13
-0.155
-0.19
-0.16
-0.15
-0.15
-0.16
-0.11
-0.12
-0.14
-0.165
-0.145
-0.165
-0.215
-0.145
-0.105
-0.125
-0.14
-0.095
-0.125
-0.145
-0.16
-0.12
-0.175
-0.175
-0.13
-0.115
-0.13
-0.165
-0.155
-0.17
-0.125
-0.12
-0.14
-0.16
-0.145
-0.14
-0.145
-0.145
-0.125
-0.1
-0.06
-0.145
-0.17
-0.165
-0.145
-0.12
-0.125
-0.14
-0.16
-0.115
-0.155
-0.13
-0.09
-0.08
-0.085
-0.12
-0.135
-0.12
-0.125
-0.105
-0.085
-0.115
-0.105
-0.115
-0.12
-0.13
-0.105
-0.12
-0.135
-0.125
-0.09
-0.12
-0.12
-0.13
-0.11
-0.125
-0.105
-0.105
-0.155
-0.125
-0.14
-0.095
-0.115
-0.125
-0.11
-0.135
-0.17
-0.13
-0.135
-0.125
-0.105
-0.075
-0.115
-0.1
-0.12
-0.13
-0.125
-0.15
-0.15
-0.155
-0.17
-0.1
-0.12
-0.125
-0.105
-0.105
-0.1
-0.125
-0.12
-0.095
-0.085
-0.15
-0.18
-0.145
-0.14
-0.15
-0.125
-0.14
-0.17
-0.12
-0.09
-0.11
-0.1
-0.105
-0.15
-0.135
-0.125
-0.115
-0.135
-0.135
-0.12
-0.14
-0.16
-0.13
-0.125
-0.085
-0.085
-0.085
-0.1
-0.095
-0.085
-0.095
-0.105
-0.075
-0.065
-0.08
-0.085
-0.075
-0.06
-0.065
-0.085
-0.095
-0.095
-0.045
-0.05
-0.045
-0.07
-0.045
-0.075
-0.125
-0.095
-0.14
-0.14
-0.115
-0.135
-0.125
-0.125
-0.135
-0.135
-0.13
-0.125
-0.115
-0.12
-0.19
-0.14
-0.18
-0.15
-0.14
-0.17
-0.135
-0.13
-0.15
-0.145
-0.12
-0.155
-0.16
-0.145
-0.145
-0.18
-0.18
-0.16
-0.115
-0.165
-0.165
-0.17
-0.13
-0.15
-0.135
-0.11
-0.16
-0.205
-0.185
-0.165
-0.165
-0.2
-0.235
-0.285
-0.325
-0.3
-0.325
-0.32
-0.215
-0.105
0.015
0.1
0.25
0.42
0.565
0.67
0.825
0.845
0.86
0.77
0.695
0.65
0.555
0.37
0.2
0.12
0.035
0.02
0.065
0.02
-0.01
-0.03
-0.065
-0.07
-0.125
-0.165
-0.12
-0.135
-0.145
-0.175
-0.155
-0.155
-0.16
-0.175
-0.165
-0.15
-0.185
-0.18
-0.125
-0.15
-0.16
-0.155
-0.195
-0.165
-0.16
-0.15
-0.15
-0.15
-0.175
-0.17
-0.13
-0.115
-0.11
-0.13
-0.11
-0.145
-0.135
-0.185
-0.175
-0.15
-0.135
-0.155
-0.14
-0.12
-0.13
-0.13
-0.13
-0.115
-0.125
-0.125
-0.15
-0.125
-0.16
-0.105
-0.1
-0.11
-0.12
-0.125
-0.09
-0.06
-0.075
-0.085
-0.115
-0.115
-0.08
-0.06
-0.09
-0.08
-0.055
-0.07
-0.035
-0.06
-0.04
-0.015
0.01
-0.005
-0.01
-0.025
0.03
0.025
0.02
0.08
0.095
0.08
0.075
0.025
0.035
0.05
0.05
0.07
0.075
0.08
0.03
0.075
0.09
0.085
0.075
0.105
0.1
0.06
0.02
0.04
0.02
0.015
0.02
0.06
0.05
0.04
-0.06
-0.045
-0.04
-0.035
0.0
-0.07
-0.115
-0.12
-0.1
-0.11
-0.1
-0.08
-0.09
-0.11
-0.14
-0.165
-0.165
-0.16
-0.175
-0.145
-0.095
-0.135
-0.17
-0.17
-0.165
-0.15
-0.135
-0.195
-0.185
-0.21
-0.19
-0.185
-0.125
-0.18
-0.22
-0.2
-0.19
-0.12
-0.16
-0.2
-0.245
-0.205
-0.18
-0.175
-0.2
-0.205
-0.205
-0.17
-0.175
-0.2
-0.245
-0.17
-0.18
-0.19
-0.18
-0.2
-0.185
-0.17
-0.175
-0.19
-0.21
-0.21
-0.2
-0.175
-0.18
-0.195
-0.21
-0.19
-0.18
-0.15
-0.1
-0.145
-0.145
-0.16
-0.2
-0.225
-0.25
-0.21
-0.235
-0.24
-0.245
-0.21
-0.225
-0.195
-0.2
-0.225
-0.195
-0.205
-0.2
-0.18
-0.2
-0.205
-0.21
-0.16
-0.2
-0.175
-0.16
-0.195
-0.2
-0.215
-0.185
-0.21
-0.205
-0.19
-0.185
-0.185
-0.22
-0.21
-0.175
-0.115
-0.135
-0.195
-0.175
-0.19
-0.185
-0.195
-0.21
-0.21
-0.215
-0.185
-0.15
-0.145
-0.175
-0.185
-0.19
-0.18
-0.14
-0.15
-0.195
-0.16
-0.21
-0.23
-0.21
-0.22
-0.185
-0.17
-0.17
-0.18
-0.155
-0.145
-0.185
-0.18
-0.21
-0.16
-0.17
-0.19
-0.195
-0.19
-0.18
-0.16
-0.2
-0.225
-0.2
-0.2
-0.195
-0.175
-0.17
-0.14
-0.155
-0.185
-0.21
-0.24
-0.205
-0.22
-0.225
-0.21
-0.2
-0.18
-0.19
-0.2
-0.17
-0.18
-0.195
-0.205
-0.225
-0.21
-0.21
-0.195
-0.21
-0.225
-0.17
-0.17
-0.185
-0.175
-0.195
-0.165
-0.155
-0.205
-0.215
-0.2
-0.2
-0.175
-0.1
-0.185
-0.285
-0.235
-0.205
-0.19
-0.19
-0.2
-0.19
-0.205
-0.185
-0.185
-0.205
-0.195
-0.24
-0.225
-0.205
-0.195
-0.185
-0.18
-0.17
-0.16
-0.205
-0.225
-0.235
-0.235
-0.17
-0.175
-0.17
-0.19
-0.17
-0.155
-0.16
-0.175
-0.21
-0.155
-0.19
-0.155
-0.165
-0.16
-0.18
-0.195
-0.15
-0.13
-0.095
-0.13
-0.125
-0.165
-0.135
-0.14
-0.155
-0.185
-0.165
-0.12
-0.225
-0.22
-0.205
-0.195
-0.21
-0.215
-0.225
-0.23
-0.225
-0.215
-0.225
-0.21
-0.195
-0.19
-0.21
-0.205
-0.235
-0.235
-0.245
-0.21
-0.205
-0.245
-0.26
-0.27
-0.2
-0.19
-0.23
-0.265
-0.23
-0.205
-0.25
-0.24
-0.215
-0.21
-0.235
-0.21
-0.225
-0.24
-0.25
-0.27
-0.215
-0.25
-0.245
-0.26
-0.315
-0.315
-0.335
-0.355
-0.37
-0.365
-0.355
-0.26
-0.13
-0.04
0.055
0.245
0.395
0.54
0.69
0.74
0.75
0.765
0.665
0.535
0.495
0.395
0.2
0.07
0.01
0.01
0.005
-0.06
-0.09
-0.145
-0.15
-0.2
-0.22
-0.245
-0.24
-0.21
-0.215
-0.215
-0.225
-0.275
-0.24
-0.245
-0.235
-0.205
-0.255
-0.245
-0.23
-0.225
-0.21
-0.23
-0.265
-0.24
-0.245
-0.245
-0.19
-0.225
-0.245
-0.195
-0.225
-0.21
-0.225
-0.22
-0.205
-0.19
-0.205
-0.225
-0.195
-0.235
-0.215
-0.23
-0.17
-0.17
-0.215
-0.2
-0.235
-0.23
-0.235
-0.155
-0.165
-0.165
-0.18
-0.17
-0.175
-0.22
-0.175
-0.17
-0.21
-0.155
-0.155
-0.155
-0.15
-0.175
-0.165
-0.165
-0.15
-0.12
-0.11
-0.135
-0.115
-0.115
-0.095
-0.1
-0.085
-0.08
-0.07
-0.045
-0.035
-0.06
-0.05
-0.08
0.02
0.01
-0.03
-0.04
0.01
0.05
0.005
0.025
0.045
0.045
0.01
-0.01
0.0
0.01
0.01
0.01
0.035
0.04
0.0
-0.01
0.015
-0.025
-0.035
-0.055
-0.04
-0.065
-0.055
-0.085
-0.095
-0.115
-0.14
-0.15
-0.135
-0.135
-0.115
-0.13
-0.14
-0.115
-0.185
-0.215
-0.21
-0.22
-0.24
-0.19
-0.165
-0.18
-0.205
-0.205
-0.21
-0.23
-0.255
-0.26
-0.23
-0.23
-0.215
-0.22
-0.245
-0.225
-0.205
-0.22
-0.225
-0.27
-0.26
-0.23
-0.26
-0.275
-0.235
-0.245
-0.225
-0.24
-0.27
-0.28
-0.25
-0.205
-0.21
-0.235
-0.255
-0.23
-0.26
-0.265
-0.26
-0.205
-0.225
-0.205
-0.22
-0.27
-0.315
-0.265
-0.24
-0.25
-0.235
-0.25
-0.265
-0.245
-0.21
-0.22
-0.25
-0.25
-0.28
-0.26
-0.25
-0.255
-0.24
-0.225
-0.235
-0.255
-0.25
-0.265
-0.26
-0.255
-0.265
-0.27
-0.265
-0.265
-0.265
-0.23
-0.26
-0.245
-0.265
-0.24
-0.22
-0.225
-0.23
-0.24
-0.21
-0.165
-0.2
-0.26
-0.235
-0.285
-0.235
-0.23
-0.215
-0.21
-0.235
-0.23
-0.225
-0.205
-0.185
-0.22
-0.21
-0.19
-0.235
-0.215
-0.25
-0.225
-0.21
-0.23
-0.225
-0.23
-0.225
-0.255
-0.21
-0.215
-0.16
-0.175
-0.245
-0.235
-0.2
-0.205
-0.23
-0.24
-0.25
-0.215
-0.22
-0.195
-0.175
-0.245
-0.28
-0.21
-0.23
-0.245
-0.19
-0.24
-0.25
-0.21
-0.185
-0.21
-0.22
-0.215
-0.205
-0.25
-0.27
-0.24
-0.235
-0.245
-0.255
-0.195
-0.21
-0.26
-0.235
-0.225
-0.24
-0.245
-0.245
-0.225
-0.235
-0.255
-0.245
-0.2
-0.21
-0.215
-0.235
-0.225
-0.205
-0.24
-0.245
-0.21
-0.195
-0.21
-0.23
-0.24
-0.28
-0.24
-0.26
-0.225
-0.215
-0.24
-0.255
-0.24
-0.23
-0.235
-0.28
-0.265
-0.22
-0.215
-0.21
-0.205
-0.22
-0.215
-0.22
-0.26
-0.27
-0.21
-0.185
-0.195
-0.215
-0.255
-0.23
-0.22
-0.25
-0.285
-0.26
-0.215
-0.155
-0.215
-0.19
-0.21
-0.235
-0.22
-0.23
-0.235
-0.195
-0.15
-0.17
-0.195
-0.18
-0.175
-0.165
-0.185
-0.16
-0.13
-0.17
-0.14
-0.165
-0.175
-0.16
-0.16
-0.16
-0.12
-0.18
-0.23
-0.245
-0.255
-0.265
-0.24
-0.22
-0.23
-0.245
-0.245
-0.235
-0.22
-0.19
-0.225
-0.275
-0.265
-0.22
-0.24
-0.24
-0.255
-0.285
-0.265
-0.23
-0.235
-0.23
-0.225
-0.21
-0.225
-0.175
-0.165
-0.21
-0.3
-0.26
-0.225
-0.215
-0.225
-0.26
-0.275
-0.275
-0.265
-0.245
-0.24
-0.18
-0.23
-0.28
-0.31
-0.355
-0.325
-0.37
-0.36
-0.38
-0.35
-0.245
-0.22
-0.125
0.015
0.195
0.34
0.485
0.625
0.76
0.765
0.765
0.69
0.61
0.59
0.54
0.365
0.19
0.015
-0.06
-0.04
-0.06
-0.11
-0.13
-0.145
-0.155
-0.155
-0.195
-0.235
-0.23
-0.175
-0.185
-0.2
-0.25
-0.24
-0.245
-0.23
-0.215
-0.185
-0.205
-0.22
-0.24
-0.24
-0.2
-0.2
-0.215
-0.17
-0.195
-0.24
-0.23
-0.23
-0.22
-0.23
-0.155
-0.155
-0.18
-0.245
-0.23
-0.235
-0.2
-0.165
-0.175
-0.22
-0.2
-0.175
-0.195
-0.205
-0.185
-0.18
-0.15
-0.135
-0.165
-0.155
-0.15
-0.12
-0.14
-0.15
-0.155
-0.195
-0.1
-0.105
-0.11
-0.125
-0.125
-0.11
-0.125
-0.055
-0.075
-0.09
-0.12
-0.115
-0.11
-0.055
0.005
-0.03
-0.06
-0.045
-0.005
0.035
-0.025
-0.045
0.0
-0.04
-0.01
0.05
0.035
0.065
0.025
0.02
0.09
0.085
0.065
0.075
0.07
0.085
0.07
0.06
0.08
0.05
0.07
0.07
0.05
0.06
0.07
0.07
0.02
0.04
-0.005
0.015
0.02
0.0
-0.035
-0.03
-0.015
-0.09
-0.07
-0.075
-0.015
-0.015
-0.125
-0.105
-0.085
-0.085
-0.11
-0.155
-0.18
-0.16
-0.195
-0.175
-0.175
-0.15
-0.16
-0.17
-0.145
-0.125
-0.16
-0.19
-0.175
-0.185
-0.205
-0.17
-0.165
-0.17
-0.185
-0.185
-0.195
-0.225
-0.2
-0.23
-0.165
-0.17
-0.135
-0.145
-0.2
-0.185
-0.225
-0.23
-0.23
-0.225
-0.225
-0.215
-0.21
-0.195
-0.18
-0.165
-0.205
-0.205
-0.18
-0.18
-0.19
-0.175
-0.185
-0.205
-0.22
-0.215
-0.2
-0.2
-0.235
-0.23
-0.21
-0.225
-0.225
-0.14
-0.15
-0.21
-0.18
-0.18
-0.185
-0.185
-0.22
-0.155
-0.165
-0.205
-0.135
-0.15
-0.165
-0.17
-0.17
-0.17
-0.165
-0.16
-0.15
-0.13
-0.145
-0.115
-0.16
-0.18
-0.195
-0.185
-0.15
-0.16
-0.165
-0.12
-0.1
-0.14
-0.15
-0.155
-0.17
-0.135
-0.13
-0.115
-0.11
-0.11
-0.1
-0.135
-0.135
-0.14
-0.16
-0.135
-0.13
-0.165
-0.185
-0.15
-0.14
-0.115
-0.125
-0.19
-0.12
-0.14
-0.125
-0.115
-0.11
-0.125
-0.12
-0.185
-0.205
-0.13
-0.125
-0.155
-0.15
-0.13
-0.05
-0.115
-0.125
-0.16
-0.155
-0.16
-0.16
-0.14
-0.125
-0.165
-0.155
-0.125
-0.16
-0.15
-0.12
-0.14
-0.14
-0.14
-0.12
-0.15
-0.145
-0.13
-0.11
-0.145
-0.2
-0.165
-0.185
-0.155
-0.16
-0.125
-0.105
-0.13
-0.11
-0.165
-0.175
-0.155
-0.19
-0.155
-0.17
-0.175
-0.17
-0.165
-0.13
-0.105
-0.135
-0.155
-0.13
-0.115
-0.1
-0.115
-0.11
-0.15
-0.125
-0.115
-0.12
-0.12
-0.135
-0.095
-0.085
-0.07
-0.09
-0.125
-0.045
-0.065
-0.1
-0.09
-0.085
-0.07
-0.085
-0.085
-0.085
-0.075
-0.085
-0.075
-0.06
-0.125
-0.165
-0.165
-0.15
-0.165
-0.17
-0.15
-0.12
-0.095
-0.12
-0.13
-0.14
-0.11
-0.12
-0.155
-0.145
-0.135
-0.19
-0.15
-0.09
-0.11
-0.18
-0.13
-0.115
-0.145
-0.185
-0.17
-0.17
-0.15
-0.165
-0.17
-0.13
-0.12
-0.185
-0.175
-0.1
-0.155
-0.18
-0.16
-0.16
-0.19
-0.2
-0.185
-0.165
-0.17
-0.185
-0.16
-0.23
-0.295
-0.285
-0.225
-0.14
-0.045
0.095
0.245
0.335
0.525
0.655
0.705
0.66
0.615
0.62
0.565
0.515
0.475
0.365
0.16
0.04
-0.07
-0.115
-0.125
-0.115
-0.165
-0.175
-0.085
0.015
-0.1
-0.16
-0.15
-0.19
-0.16
-0.15
-0.15
-0.145
-0.13
-0.135
-0.135
-0.145
-0.13
-0.15
-0.15
-0.15
-0.095
-0.07
-0.1
-0.1
-0.14
-0.125
-0.135
-0.115
-0.15
-0.135
-0.12
-0.075
-0.08
-0.13
-0.125
-0.125
-0.08
-0.095
-0.125
-0.1
-0.09
-0.125
-0.11
-0.05
-0.1
-0.09
-0.12
-0.08
-0.055
-0.03
-0.06
-0.09
-0.07
-0.07
-0.06
-0.065
-0.05
-0.065
-0.04
-0.045
-0.03
-0.05
-0.02
-0.025
-0.045
-0.025
-0.005
0.005
-0.045
-0.025
0.055
0.03
0.06
0.08
0.105
0.025
0.03
0.075
0.065
0.085
0.09
0.105
0.145
0.155
0.175
0.145
0.12
0.105
0.145
0.15
0.18
0.15
0.115
0.12
0.13
0.14
0.15
0.11
0.13
0.145
0.09
0.065
0.07
0.095
0.075
0.055
0.09
0.105
0.055
0.005
-0.005
-0.015
-0.005
0.02
-0.02
-0.035
-0.03
-0.035
-0.065
-0.05
-0.02
-0.06
-0.085
-0.065
-0.085
-0.145
-0.135
-0.095
-0.1
-0.1
-0.055
-0.065
-0.12
-0.13
-0.12
-0.15
-0.155
-0.175
-0.12
-0.15
-0.115
-0.125
-0.125
-0.095
-0.16
-0.155
-0.14
-0.14
-0.15
-0.155
-0.135
-0.135
-0.145
-0.165
-0.14
-0.15
-0.155
-0.21
-0.125
-0.185
-0.165
-0.16
-0.13
-0.165
-0.18
-0.14
-0.11
-0.125
-0.125
-0.135
-0.135
-0.12
-0.135
-0.13
-0.105
-0.1
-0.13
-0.15
-0.145
-0.13
-0.16
-0.145
-0.105
-0.12
-0.115
-0.14
-0.16
-0.125
-0.12
-0.12
-0.075
-0.06
-0.015
-0.02
-0.09
-0.155
-0.16
-0.12
-0.1
-0.105
-0.105
-0.085
-0.08
-0.145
-0.085
-0.075
-0.125
-0.145
-0.095
-0.065
-0.06
-0.07
-0.085
-0.12
-0.095
-0.12
-0.105
-0.11
-0.08
-0.04
-0.09
-0.05
-0.08
-0.12
-0.105
-0.025
-0.085
-0.095
-0.095
-0.095
-0.035
-0.03
-0.09
-0.12
-0.085
-0.06
-0.09
-0.08
-0.1
-0.095
-0.075
-0.08
-0.08
-0.09
-0.015
-0.015
-0.015
-0.07
-0.12
-0.18
-0.16
-0.085
-0.06
-0.08
-0.07
-0.065
-0.095
-0.085
-0.12
-0.085
-0.06
-0.05
-0.05
-0.04
-0.025
-0.025
-0.115
-0.12
-0.005
-0.03
-0.065
-0.04
-0.035
-0.04
-0.04
-0.03
-0.04
-0.035
-0.035
-0.03
-0.02
-0.025
0.0
0.02
-0.02
-0.025
-0.07
-0.015
0.005
-0.025
-0.07
-0.1
-0.075
-0.03
-0.08
-0.09
-0.115
-0.075
-0.03
-0.055
-0.065
-0.09
-0.06
-0.09
-0.065
-0.1
-0.095
-0.12
-0.055
-0.115
-0.095
-0.095
-0.07
-0.12
-0.105
-0.08
-0.09
-0.07
-0.07
-0.085
-0.085
-0.07
-0.055
-0.065
-0.05
-0.1
-0.095
-0.12
-0.1
-0.12
-0.1
-0.06
-0.03
-0.045
-0.11
-0.165
-0.155
-0.2
-0.215
-0.16
-0.105
-0.08
-0.06
0.06
0.19
0.305
0.44
0.615
0.66
0.675
0.7
0.665
0.61
0.6
0.555
0.46
0.355
0.18
0.06
0.005
-0.01
-0.06
-0.065
-0.08
-0.025
-0.035
-0.015
-0.045
-0.08
-0.055
-0.07
-0.075
-0.09
-0.11
-0.085
-0.05
-0.065
-0.02
-0.01
-0.02
-0.005
-0.01
-0.06
-0.08
-0.08
-0.06
-0.075
-0.025
-0.04
-0.055
-0.055
-0.07
-0.015
-0.05
-0.035
-0.015
-0.025
-0.015
-0.015
-0.01
-0.045
-0.025
-0.06
-0.015
-0.005
-0.02
-0.01
-0.025
-0.03
0.01
0.03
0.0
-0.02
-0.02
-0.04
-0.02
0.015
0.04
0.03
0.025
0.04
0.08
0.065
-0.015
-0.02
0.05
0.035
0.06
0.045
0.075
0.12
0.125
0.07
0.06
0.115
0.13
0.145
0.15
0.11
0.115
0.135
0.145
0.165
0.155
0.16
0.17
0.205
0.195
0.17
0.215
0.205
0.195
0.225
0.205
0.215
0.215
0.24
0.19
0.16
0.205
0.215
0.18
0.17
0.18
0.125
0.14
0.18
0.16
0.135
0.175
0.12
0.085
0.075
0.04
0.05
0.02
0.01
0.07
0.02
0.045
0.05
-0.02
-0.02
0.02
0.0
-0.015
-0.015
-0.06
-0.03
0.0
-0.055
-0.075
-0.03
-0.035
-0.09
-0.1
-0.08
-0.055
-0.06
-0.03
-0.015
0.025
-0.09
-0.09
-0.085
-0.05
-0.06
-0.03
-0.055
-0.065
-0.11
-0.065
-0.07
-0.055
-0.08
-0.11
-0.06
-0.055
-0.12
-0.11
-0.085
-0.1
-0.085
-0.12
-0.115
-0.1
-0.095
-0.065
-0.065
-0.075
-0.095
-0.12
-0.075
-0.075
-0.08
-0.095
-0.05
-0.06
-0.11
-0.085
-0.025
-0.05
-0.115
-0.085
-0.085
-0.095
-0.075
-0.065
0.0
-0.03
-0.065
-0.07
-0.055
-0.045
-0.075
-0.05
-0.02
-0.075
-0.065
-0.06
-0.065
-0.025
-0.04
-0.03
-0.015
-0.02
-0.03
-0.02
-0.02
-0.03
-0.03
-0.035
-0.065
-0.065
-0.05
-0.045
-0.04
-0.025
-0.035
-0.06
-0.035
-0.03
-0.045
-0.025
-0.055
-0.06
-0.025
-0.055
-0.045
-0.005
-0.04
-0.08
-0.05
-0.065
-0.075
-0.055
-0.025
-0.06
-0.05
-0.015
0.005
-0.02
-0.025
-0.02
-0.055
-0.055
-0.055
-0.07
-0.035
-0.035
-0.025
-0.035
-0.025
-0.03
-0.01
-0.015
0.0
-0.05
-0.03
-0.03
-0.02
0.01
0.08
0.02
0.035
0.025
0.015
0.0
0.0
-0.025
0.01
-0.06
-0.045
-0.065
-0.04
-0.08
-0.08
-0.045
-0.05
-0.045
-0.075
-0.07
-0.055
-0.065
-0.035
-0.03
-0.015
-0.065
-0.045
-0.04
-0.035
-0.035
-0.06
-0.075
-0.04
-0.05
-0.09
-0.115
-0.095
-0.05
-0.045
-0.035
0.015
-0.045
-0.155
-0.11
-0.09
-0.055
-0.03
-0.025
-0.045
-0.07
-0.055
-0.06
-0.115
-0.085
-0.08
-0.095
-0.105
-0.135
-0.155
-0.17
-0.125
-0.06
0.01
0.11
0.215
0.375
0.525
0.65
0.73
0.785
0.785
0.725
0.66
0.66
0.66
0.575
0.43
0.265
0.12
0.005
0.075
0.065
0.015
0.01
0.015
0.03
0.025
-0.025
0.0
0.025
-0.01
-0.065
-0.035
-0.03
-0.08
-0.04
-0.025
-0.005
-0.005
-0.04
-0.055
-0.065
0.015
0.02
-0.05
-0.025
-0.015
-0.02
-0.025
-0.02
0.01
-0.035
-0.04
-0.01
-0.02
0.0
0.005
-0.02
0.02
0.02
0.015
-0.025
-0.01
-0.005
0.0
0.045
0.02
0.025
0.01
-0.005
0.035
0.03
0.03
0.04
0.02
0.035
0.05
0.015
0.035
0.045
0.06
0.07
0.06
0.075
0.08
0.125
0.125
0.055
0.05
0.085
0.09
0.11
0.145
0.175
0.155
0.115
0.13
0.125
0.145
0.165
0.185
0.175
0.205
0.21
0.22
0.225
0.21
0.19
0.24
0.25
0.25
0.235
0.23
0.255
0.22
0.24
0.255
0.215
0.24
0.24
0.22
0.225
0.235
0.225
0.24
0.21
0.195
0.165
0.17
0.17
0.15
0.14
0.13
0.1
0.105
0.12
0.095
0.085
0.085
0.1
0.07
0.05
0.04
0.045
0.03
0.04
0.025
0.01
0.035
0.015
0.0
-0.015
-0.005
0.0
0.02
0.04
0.01
0.01
0.0
-0.055
-0.03
-0.04
-0.035
-0.065
0.02
0.035
0.015
0.005
0.015
-0.005
-0.01
0.005
-0.01
-0.015
0.01
-0.005
-0.025
-0.04
-0.035
-0.04
-0.03
-0.04
-0.035
-0.035
0.005
0.015
-0.04
-0.04
-0.035
-0.075
-0.04
-0.05
-0.03
-0.02
0.005
-0.04
-0.065
-0.06
-0.035
-0.025
-0.05
-0.01
0.01
0.0
-0.01
-0.005
-0.025
0.0
0.005
-0.025
0.0
-0.01
-0.015
0.01
0.02
-0.03
-0.025
0.005
-0.01
0.02
0.0
0.0
-0.01
0.025
0.03
0.01
0.005
-0.01
-0.015
-0.03
0.005
0.015
0.04
-0.005
0.015
0.035
0.045
-0.005
0.015
0.02
0.01
0.035
0.06
0.035
-0.045
-0.04
0.015
0.02
0.015
0.065
0.04
0.01
0.035
-0.01
0.01
0.025
0.07
0.025
0.04
0.03
0.065
0.065
0.045
-0.03
-0.02
0.02
0.025
0.03
0.05
0.02
0.015
0.02
0.035
0.08
0.05
0.035
0.04
0.045
0.095
0.065
0.035
0.08
0.08
0.065
0.07
0.07
0.045
0.01
0.01
0.005
0.015
-0.005
-0.035
0.025
0.06
0.04
-0.015
-0.025
-0.005
0.01
-0.01
0.015
-0.015
0.015
0.085
-0.01
-0.055
-0.025
0.005
0.025
0.005
0.01
0.035
0.005
-0.015
-0.015
-0.01
0.01
-0.01
0.0
-0.005
-0.02
-0.035
-0.02
0.065
0.045
0.04
-0.005
-0.005
-0.015
-0.02
-0.02
-0.05
-0.085
-0.065
-0.105
-0.09
-0.07
-0.04
-0.025
0.02
0.095
0.28
0.44
0.61
0.735
0.845
0.935
0.965
0.9
0.84
0.81
0.74
0.66
0.545
0.37
0.22
0.185
0.2
0.18
0.17
0.1
0.1
0.065
0.045
0.04
0.02
0.02
0.01
0.06
0.025
0.015
-0.03
0.01
0.035
0.045
0.03
0.03
0.015
0.055
0.1
0.08
0.04
0.07
0.07
0.05
0.065
0.06
0.035
0.065
0.09
0.035
0.06
0.115
0.085
0.045
0.02
0.04
0.07
0.07
0.105
0.085
0.04
0.06
0.105
0.095
0.105
0.095
0.105
0.095
0.085
0.08
0.095
0.12
0.125
0.095
0.1
0.095
0.11
0.14
0.155
0.115
0.1
0.125
0.165
0.135
0.165
0.155
0.16
0.18
0.195
0.215
0.205
0.22
0.205
0.21
0.21
0.22
0.265
0.28
0.27
0.285
0.275
0.295
0.3
0.325
0.34
0.3
0.295
0.345
0.34
0.325
0.305
0.32
0.315
0.315
0.32
0.285
0.3
0.31
0.375
0.315
0.26
0.275
0.255
0.245
0.21
0.215
0.22
0.225
0.205
0.215
0.185
0.215
0.195
0.19
0.165
0.14
0.1
0.15
0.16
0.15
0.13
0.105
0.105
0.13
0.09
0.065
0.125
0.13
0.075
0.075
0.09
0.06
0.055
0.065
0.1
0.06
0.065
0.075
0.095
0.055
0.05
0.07
0.075
0.06
0.085
0.065
0.025
0.085
0.075
0.075
0.07
0.045
0.04
0.04
0.025
0.07
0.09
0.125
0.125
0.05
0.03
0.04
0.05
0.03
0.015
0.03
0.055
0.04
0.05
0.065
0.09
0.09
0.045
0.045
0.025
0.02
0.065
0.085
0.05
0.07
0.115
0.035
0.015
0.035
0.065
0.045
0.05
0.025
0.09
0.065
0.04
0.045
0.08
0.065
0.03
0.045
0.1
0.125
0.09
0.055
0.035
0.06
0.05
0.09
0.085
0.08
0.075
0.09
0.115
0.1
0.12
0.055
0.085
0.08
0.07
0.065
0.07
0.07
0.08
0.07
0.1
0.085
0.105
0.09
0.09
0.085
0.05
0.055
0.06
0.1
0.07
0.015
0.09
0.11
0.12
0.085
0.08
0.05
0.065
0.09
0.11
0.08
0.075
0.11
0.12
0.09
0.085
0.105
0.085
0.055
0.095
0.065
0.07
0.075
0.105
0.095
0.09
0.1
0.115
0.115
0.15
0.155
0.13
0.15
0.14
0.1
0.105
0.125
0.125
0.12
0.155
0.095
0.07
0.02
0.03
0.025
0.06
0.1
0.085
0.055
0.06
0.05
0.04
0.04
0.055
0.045
0.05
0.07
0.065
0.075
0.05
0.055
0.03
0.025
0.035
0.05
0.07
0.05
0.055
0.03
0.035
0.03
0.03
0.08
0.065
0.105
0.085
0.05
0.015
0.07
0.1
0.06
0.015
0.02
0.0
-0.01
-0.01
-0.015
-0.08
-0.09
-0.055
-0.065
0.0
0.065
0.155
0.25
0.42
0.575
0.75
0.88
0.955
0.975
0.985
0.935
0.89
0.79
0.765
0.63
0.475
0.305
0.225
0.205
0.21
0.17
0.195
0.18
0.175
0.175
0.13
0.115
0.04
0.06
0.075
0.045
0.055
0.08
0.095
0.055
0.035
0.07
0.08
0.05
0.055
0.075
0.065
0.07
0.1
0.075
0.115
0.07
0.07
0.1
0.065
0.045
0.035
0.06
0.075
0.11
0.085
0.09
0.105
0.06
0.115
0.08
0.11
0.105
0.135
0.12
0.11
0.085
0.085
0.09
0.1
0.065
0.105
0.12
0.14
0.145
0.145
0.17
0.15
0.11
0.155
0.13
0.1
0.13
0.155
0.155
0.19
0.145
0.17
0.165
0.175
0.19
0.21
0.2
0.2
0.17
0.205
0.205
0.215
0.24
0.24
0.255
0.265
0.31
0.33
0.28
0.29
0.295
0.315
0.305
0.32
0.3
0.295
0.3
0.325
0.35
0.31
0.33
0.315
0.35
0.29
0.28
0.26
0.23
0.29
0.31
0.25
0.245
0.265
0.305
0.235
0.18
0.19
0.19
0.195
0.21
0.195
0.1
0.125
0.17
0.15
0.125
0.09
0.145
0.1
0.13
0.145
0.105
0.09
0.09
0.105
0.085
0.075
0.09
0.11
0.07
0.06
0.085
0.075
0.07
0.075
0.085
0.105
0.12
0.07
0.075
0.105
0.01
-0.015
0.055
0.065
0.04
0.01
0.035
0.055
0.1
0.06
0.03
0.065
0.115
0.1
0.11
0.08
0.07
0.075
0.035
0.075
0.085
0.06
0.07
0.035
0.055
0.045
0.04
0.075
0.09
0.09
0.06
0.095
0.09
0.085
0.045
0.05
0.04
0.03
0.09
0.085
0.05
0.05
0.045
0.06
0.07
0.05
0.05
0.045
0.055
0.065
0.07
0.075
0.075
0.045
0.06
0.09
0.085
0.06
0.095
0.125
0.11
0.06
0.075
0.075
0.1
0.07
0.055
0.045
0.075
0.105
0.085
0.09
0.08
0.035
0.05
0.055
0.08
0.085
0.1
0.11
0.1
0.075
0.035
0.07
0.07
0.065
0.06
0.05
0.05
0.105
0.105
0.085
0.1
0.07
0.08
0.08
0.065
0.06
0.1
0.08
0.055
0.075
0.085
0.08
0.05
0.045
0.06
0.065
0.075
0.075
0.1
0.085
0.06
0.07
0.065
0.09
0.055
0.105
0.065
0.075
0.09
0.09
0.14
0.105
0.105
0.14
0.1
0.135
0.145
0.095
0.11
0.095
0.09
0.105
0.115
0.15
0.115
0.125
0.15
0.155
0.16
0.17
0.095
0.085
0.075
0.1
0.11
0.095
0.06
0.07
0.055
0.09
0.065
0.04
0.07
0.115
0.08
0.075
0.065
0.065
0.09
0.105
0.11
0.09
0.065
0.05
0.05
0.065
0.095
0.095
0.095
0.09
0.065
0.05
0.06
0.075
0.1
0.065
0.065
0.055
0.04
0.055
0.08
0.07
0.08
0.065
0.055
0.075
0.045
0.035
0.005
-0.05
-0.085
-0.075
-0.04
-0.02
-0.02
0.05
0.145
0.255
0.305
0.4
0.575
0.755
0.885
0.995
1.065
1.09
1.025
0.925
0.865
0.775
0.62
0.43
0.35
0.295
0.29
0.275
0.24
0.205
0.165
0.17
0.13
0.125
0.095
0.085
0.08
0.11
0.08
0.095
0.1
0.085
0.085
0.085
0.085
0.1
0.065
0.075
0.075
0.11
0.13
0.17
0.13
0.095
0.105
0.135
0.075
0.055
0.095
0.095
0.12
0.09
0.1
0.13
0.12
0.135
0.115
0.11
0.155
0.15
0.135
0.115
0.09
0.115
0.12
0.14
0.14
0.135
0.14
0.14
0.115
0.13
0.17
0.14
0.125
0.165
0.175
0.235
0.185
0.18
0.195
0.2
0.13
0.17
0.165
0.18
0.18
0.22
0.245
0.24
0.245
0.225
0.21
0.22
0.235
0.25
0.27
0.27
0.26
0.335
0.325
0.315
0.31
0.325
0.335
0.32
0.325
0.35
0.365
0.34
0.36
0.37
0.345
0.345
0.39
0.35
0.305
0.35
0.34
0.36
0.31
0.28
0.305
0.325
0.315
0.265
0.255
0.26
0.25
0.245
0.21
0.195
0.21
0.2
0.165
0.175
0.19
0.185
0.165
0.125
0.16
0.155
0.125
0.145
0.16
0.155
0.165
0.145
0.15
0.14
0.11
0.075
0.09
0.125
0.115
0.085
0.135
0.135
0.105
0.15
0.095
0.085
0.08
0.095
0.085
0.095
0.095
0.07
0.115
0.145
0.225
0.14
0.04
0.08
0.09
0.085
0.09
0.105
0.105
0.125
0.11
0.115
0.075
0.065
0.08
0.11
0.125
0.115
0.12
0.07
0.085
0.075
0.075
0.08
0.075
0.09
0.085
0.125
0.11
0.105
0.125
0.065
0.05
0.08
0.095
0.105
0.13
0.12
0.14
0.12
0.13
0.115
0.07
0.155
0.145
0.05
0.06
0.06
0.065
0.085
0.13
0.135
0.1
0.08
0.105
0.095
0.105
0.145
0.08
0.105
0.11
0.095
0.095
0.11
0.115
0.13
0.125
0.135
0.135
0.115
0.1
0.105
0.11
0.13
0.09
0.1
0.125
0.13
0.14
0.15
0.165
0.075
0.08
0.105
0.105
0.15
0.13
0.15
0.095
0.08
0.08
0.12
0.115
0.065
0.12
0.125
0.115
0.115
0.1
0.115
0.105
0.11
0.095
0.115
0.09
0.095
0.1
0.105
0.12
0.1
0.14
0.155
0.135
0.12
0.085
0.115
0.11
0.095
0.09
0.115
0.095
0.095
0.135
0.13
0.11
0.12
0.125
0.125
0.11
0.125
0.125
0.125
0.135
0.135
0.105
0.13
0.14
0.115
0.18
0.14
0.15
0.185
0.195
0.19
0.185
0.145
0.17
0.18
0.145
0.185
0.205
0.17
0.155
0.17
0.13
0.145
0.15
0.135
0.12
0.125
0.135
0.115
0.11
0.135
0.105
0.07
0.085
0.115
0.095
0.12
0.14
0.175
0.1
0.085
0.08
0.1
0.085
0.11
0.11
0.08
0.075
0.09
0.11
0.12
0.085
0.11
0.075
0.105
0.08
0.1
0.1
0.1
0.145
0.11
0.095
0.105
0.12
0.135
0.11
0.07
0.05
0.015
0.0
-0.005
-0.045
-0.035
0.005
0.065
0.11
0.195
0.345
0.505
0.705
0.845
0.965
1.08
1.105
1.115
1.015
0.92
0.885
0.785
0.65
0.47
0.38
0.32
0.335
0.29
0.21
0.17
0.215
0.235
0.19
0.155
0.15
0.13
0.12
0.115
0.14
0.115
0.1
0.12
0.14
0.165
0.155
0.14
0.11
0.095
0.12
0.125
0.12
0.105
0.11
0.115
0.12
0.13
0.12
0.125
0.145
0.155
0.17
0.15
0.145
0.105
0.125
0.14
0.135
0.165
0.145
0.13
0.11
0.135
0.16
0.17
0.17
0.15
0.165
0.145
0.15
0.17
0.155
0.16
0.185
0.215
0.205
0.22
0.195
0.195
0.175
0.185
0.215
0.215
0.235
0.24
0.21
0.215
0.235
0.25
0.24
0.24
0.26
0.305
0.325
0.305
0.24
0.295
0.29
0.28
0.3
0.33
0.32
0.315
0.36
0.345
0.37
0.39
0.34
0.355
0.365
0.365
0.37
0.385
0.395
0.395
0.375
0.375
0.34
0.36
0.385
0.375
0.355
0.34
0.335
0.305
0.32
0.32
0.35
0.305
0.295
0.275
0.215
0.18
0.21
0.29
0.25
0.265
0.235
0.28
0.195
0.1
0.14
0.23
0.185
0.135
0.15
0.15
0.19
0.145
0.14
0.145
0.11
0.115
0.13
0.165
0.12
0.14
0.13
0.125
0.1
0.1
0.115
0.13
0.1
0.105
0.12
0.11
0.12
0.11
0.075
0.11
0.14
0.12
0.105
0.155
0.145
0.13
0.155
0.13
0.05
0.085
0.105
0.15
0.13
0.1
0.12
0.11
0.095
0.095
0.145
0.11
0.1
0.105
0.08
0.1
0.12
0.13
0.11
0.095
0.105
0.105
0.085
0.095
0.08
0.12
0.14
0.105
0.13
0.17
0.105
0.065
0.125
0.145
0.105
0.1
0.12
0.13
0.125
0.13
0.115
0.13
0.135
0.12
0.125
0.13
0.16
0.1
0.135
0.125
0.095
0.11
0.12
0.105
0.125
0.105
0.105
0.115
0.13
0.13
0.1
0.1
0.1
0.125
0.145
0.14
0.145
0.11
0.115
0.11
0.1
0.13
0.15
0.125
0.125
0.155
0.13
0.14
0.1
0.13
0.12
0.13
0.17
0.17
0.1
0.06
0.145
0.13
0.14
0.1
0.065
0.12
0.105
0.09
0.12
0.14
0.11
0.115
0.09
0.08
0.1
0.15
0.115
0.09
0.1
0.065
0.08
0.115
0.145
0.14
0.13
0.13
0.135
0.115
0.115
0.155
0.085
0.09
0.125
0.12
0.08
0.125
0.105
0.115
0.205
0.205
0.15
0.16
0.13
0.12
0.12
0.13
0.13
0.155
0.165
0.16
0.15
0.175
0.155
0.17
0.225
0.205
0.185
0.155
0.17
0.155
0.145
0.19
0.125
0.145
0.175
0.135
0.145
0.14
0.16
0.115
0.08
0.08
0.1
0.08
0.1
0.11
0.12
0.125
0.09
0.1
0.125
0.13
0.09
0.08
0.1
0.11
0.11
0.075
0.085
0.11
0.125
0.1
0.08
0.1
0.105
0.085
0.125
0.095
0.1
0.095
0.115
0.125
0.1
0.1
0.13
0.115
0.13
0.075
0.05
0.025
-0.045
-0.065
-0.065
-0.035
-0.01
-0.025
0.03
0.145
0.275
0.395
0.545
0.75
0.91
1.07
1.115
1.095
1.055
0.995
0.93
0.85
0.725
0.57
0.43
0.3
0.315
0.33
0.245
0.215
0.19
0.235
0.18
0.115
0.1
0.11
0.085
0.1
0.1
0.06
0.105
0.145
0.125
0.1
0.075
0.11
0.13
0.115
0.09
0.08
0.14
0.1
0.125
0.115
0.105
0.065
0.1
0.13
0.13
0.13
0.13
0.115
0.105
0.16
0.155
0.115
0.12
0.155
0.135
0.13
0.135
0.125
0.13
0.17
0.16
0.135
0.16
0.17
0.155
0.14
0.16
0.145
0.17
0.19
0.12
0.17
0.185
0.205
0.205
0.215
0.19
0.18
0.2
0.23
0.23
0.175
0.23
0.205
0.2
0.21
0.235
0.25
0.265
0.31
0.27
0.235
0.255
0.31
0.335
0.315
0.355
0.37
0.33
0.29
0.315
0.335
0.36
0.38
0.36
0.37
0.355
0.39
0.39
0.395
0.375
0.375
0.35
0.32
0.285
0.335
0.33
0.275
0.345
0.33
0.335
0.28
0.325
0.34
0.28
0.255
0.235
0.235
0.22
0.205
0.175
0.165
0.19
0.21
0.155
0.225
0.195
0.135
0.135
0.16
0.18
0.205
0.2
0.155
0.155
0.105
0.08
0.05
0.105
0.095
0.11
0.14
0.105
0.11
0.11
0.085
0.14
0.135
0.16
0.09
0.085
0.105
0.115
0.135
0.135
0.145
0.08
0.075
0.06
0.035
0.05
0.055
0.055
0.08
0.085
0.13
0.09
0.06
0.085
0.055
0.08
0.11
0.095
0.12
0.11
0.115
0.1
0.095
0.13
0.1
0.105
0.1
0.085
0.08
0.1
0.13
0.07
0.075
0.085
0.11
0.095
0.075
0.1
0.075
0.06
0.08
0.08
0.12
0.09
0.07
0.09
0.065
0.14
0.175
0.175
0.14
0.095
0.1
0.12
0.1
0.15
0.17
0.18
0.14
0.075
0.035
0.055
0.125
0.165
0.205
0.105
0.05
0.065
0.1
0.105
0.14
0.125
0.115
0.07
0.075
0.065
0.095
0.085
0.095
0.12
0.105
0.07
0.065
0.125
0.16
0.14
0.13
0.085
0.095
0.115
0.11
0.125
0.125
0.115
0.095
0.085
0.05
0.075
0.065
0.09
0.105
0.145
0.125
0.12
0.06
0.045
0.105
0.095
0.12
0.115
0.105
0.095
0.09
0.09
0.105
0.08
0.09
0.095
0.125
0.135
0.11
0.135
0.075
0.15
0.175
0.125
0.085
0.1
0.1
0.14
0.125
0.155
0.145
0.135
0.135
0.135
0.095
0.16
0.155
0.19
0.18
0.135
0.115
0.055
0.05
0.08
0.105
0.095
0.075
0.08
0.165
0.095
0.045
0.035
0.065
0.065
0.075
0.065
0.045
0.075
0.095
0.07
0.09
0.065
0.075
0.08
0.07
0.06
0.035
0.065
0.095
0.085
0.07
0.035
0.04
0.06
0.075
0.07
0.05
0.09
0.09
0.07
0.075
0.08
0.025
0.02
-0.01
-0.015
-0.05
-0.06
-0.015
-0.03
0.01
0.07
0.11
0.245
0.42
0.495
0.69
0.855
0.955
0.97
0.91
0.93
0.885
0.815
0.75
0.635
0.485
0.36
0.25
0.185
0.14
0.095
0.055
0.09
0.105
0.095
0.14
0.14
0.105
0.085
0.015
-0.025
-0.005
0.09
0.06
0.04
0.085
0.09
0.07
0.03
0.07
0.08
0.06
0.095
0.115
0.095
0.035
0.045
0.065
0.1
0.065
0.08
0.085
0.105
0.095
0.115
0.085
0.085
0.085
0.115
0.105
0.12
0.1
0.11
0.085
0.1
0.15
0.13
0.11
0.11
0.115
0.09
0.115
0.12
0.135
0.12
0.135
0.16
0.145
0.135
0.145
0.13
0.165
0.145
0.155
0.17
0.165
0.165
0.19
0.17
0.22
0.2
0.185
0.2
0.225
0.23
0.25
0.235
0.27
0.335
0.32
0.28
0.26
0.25
0.245
0.32
0.36
0.32
0.36
0.39
0.375
0.31
0.305
0.275
0.315
0.36
0.32
0.325
0.33
0.335
0.34
0.295
0.25
0.27
0.28
0.28
0.275
0.255
0.235
0.24
0.195
0.17
0.175
0.175
0.19
0.17
0.185
0.17
0.15
0.1
0.12
0.13
0.125
0.09
0.095
0.13
0.14
0.09
0.065
0.055
0.025
0.06
0.05
0.045
0.05
0.075
0.1
0.06
0.055
0.04
0.035
0.045
0.055
0.02
0.05
0.07
0.08
0.055
0.005
0.01
-0.015
0.015
0.1
0.075
0.055
0.06
0.02
0.025
0.01
0.01
0.01
0.04
0.035
0.03
0.05
0.025
0.035
0.02
0.03
0.0
0.035
0.085
0.025
0.02
0.05
0.045
0.035
0.05
0.055
0.025
0.055
0.07
0.11
0.135
0.155
0.115
0.045
0.015
0.075
0.065
0.045
0.07
0.065
0.065
0.065
0.03
0.045
0.075
0.08
0.095
0.06
0.06
0.08
0.095
0.095
0.1
0.115
0.08
0.07
0.08
0.08
0.03
0.06
0.11
0.065
0.07
0.095
0.065
0.06
0.11
0.12
0.075
0.02
0.025
0.055
0.095
0.035
0.025
0.085
0.08
0.075
0.115
0.095
0.03
0.02
0.05
0.085
0.085
0.075
0.035
0.015
0.005
0.045
0.06
0.085
0.06
0.055
0.075
0.05
0.005
0.045
0.07
0.045
0.04
0.075
0.095
0.03
0.07
0.09
0.05
0.085
0.075
0.07
0.105
0.12
0.115
0.12
0.085
0.12
0.07
0.04
0.035
0.04
0.035
0.065
0.06
0.055
0.035
0.02
0.035
0.045
0.035
0.005
0.035
0.06
0.04
0.005
0.025
0.045
0.01
0.0
0.0
0.025
0.06
0.04
0.055
0.03
0.025
-0.01
-0.005
0.03
0.07
0.02
-0.01
0.005
0.005
0.045
0.09
0.025
-0.005
-0.005
0.035
0.015
0.005
0.035
0.04
0.04
0.015
-0.05
-0.03
-0.06
-0.135
-0.115
-0.12
-0.09
-0.01
0.055
0.13
0.25
0.37
0.51
0.655
0.74
0.87
0.875
0.86
0.83
0.78
0.67
0.66
0.515
0.365
0.245
0.135
0.09
0.045
0.045
0.02
0.025
0.04
0.06
0.045
0.035
0.04
0.055
0.11
0.035
0.01
0.01
0.0
0.01
0.055
0.015
0.025
0.055
0.025
0.0
0.05
0.005
0.0
0.04
0.075
0.01
0.035
0.035
0.055
0.025
0.05
0.055
0.065
0.07
0.03
0.035
0.06
0.035
0.07
0.055
0.07
0.075
0.06
0.055
0.1
0.085
0.09
0.11
0.09
0.095
0.1
0.085
0.12
0.16
0.115
0.085
0.11
0.145
0.07
0.135
0.13
0.125
0.12
0.125
0.11
0.13
0.12
0.14
0.21
0.14
0.165
0.19
0.15
0.195
0.245
0.255
0.275
0.23
0.235
0.21
0.215
0.27
0.255
0.27
0.27
0.26
0.275
0.285
0.31
0.26
0.305
0.31
0.3
0.27
0.305
0.295
0.28
0.29
0.305
0.315
0.255
0.205
0.22
0.23
0.205
0.135
0.16
0.205
0.19
0.215
0.18
0.16
0.14
0.155
0.145
0.11
0.08
0.09
0.11
0.115
0.09
0.115
0.11
0.055
0.03
0.065
0.055
0.015
0.035
0.08
0.08
0.05
0.04
0.045
0.035
0.06
0.035
0.05
0.0
0.065
0.045
0.075
0.035
0.02
0.035
0.055
0.03
0.03
0.0
0.04
0.0
0.01
0.01
0.01
0.03
0.025
0.0
0.01
0.01
0.01
0.005
-0.005
0.015
0.02
0.015
0.025
-0.015
0.005
0.055
0.045
-0.01
-0.015
0.06
0.075
0.035
0.005
0.025
0.085
0.06
0.03
-0.02
0.02
0.06
0.065
0.055
0.09
0.08
0.04
-0.005
0.02
0.03
0.07
0.075
0.06
0.04
0.055
0.055
0.05
0.065
0.08
0.09
0.07
0.055
0.065
0.04
0.055
0.08
0.055
0.06
0.045
0.045
0.065
0.065
0.065
0.09
0.085
0.065
0.08
0.065
0.02
0.01
0.055
0.06
0.055
0.08
0.035
-0.02
0.045
0.09
0.04
0.015
0.045
0.07
0.07
0.09
0.045
0.055
0.11
0.1
0.025
0.075
0.045
0.06
0.065
0.055
0.06
0.055
0.065
0.07
0.08
0.085
0.06
0.095
0.125
0.11
0.1
0.105
0.1
0.09
0.075
0.025
0.075
0.125
0.055
0.06
0.01
0.03
0.025
0.025
0.01
0.02
0.04
0.03
0.025
-0.01
0.0
0.01
0.01
0.0
0.01
0.035
0.04
0.03
0.045
0.035
0.035
0.01
0.005
0.03
0.015
0.0
0.025
0.03
0.02
0.035
0.03
0.025
0.045
0.055
-0.005
0.01
0.01
0.04
0.01
0.07
0.02
-0.03
-0.095
-0.08
-0.145
-0.18
-0.12
-0.06
-0.02
0.015
0.13
0.22
0.395
0.555
0.72
0.85
0.895
0.945
0.925
0.88
0.825
0.755
0.665
0.56
0.38
0.245
0.175
0.145
0.185
0.16
0.125
0.1
0.11
0.09
0.08
0.015
0.02
0.005
0.015
0.045
0.115
0.065
0.03
0.07
0.045
0.0
0.025
0.025
0.015
0.025
0.005
0.07
0.03
0.02
0.02
0.055
0.045
0.02
0.03
0.075
0.05
0.055
0.045
0.06
0.06
0.03
0.03
0.05
0.085
0.065
0.105
0.055
0.04
0.075
0.08
0.045
0.055
0.095
0.06
0.085
0.095
0.095
0.095
0.09
0.065
0.065
0.085
0.105
0.12
0.13
0.135
0.17
0.145
0.125
0.095
0.145
0.14
0.1
0.155
0.185
0.18
0.185
0.205
0.19
0.205
0.21
0.2
0.19
0.235
0.245
0.23
0.215
0.25
0.275
0.285
0.26
0.285
0.255
0.24
0.3
0.31
0.3
0.26
0.24
0.23
0.265
0.25
0.26
0.255
0.24
0.23
0.3
0.27
0.21
0.22
0.215
0.175
0.145
0.165
0.165
0.155
0.17
0.175
0.15
0.15
0.13
0.1
0.07
0.085
0.085
0.1
0.08
0.075
0.09
0.04
0.045
0.015
0.015
0.05
0.06
0.03
0.035
0.025
0.005
0.055
0.045
0.015
0.03
0.025
0.04
0.07
0.055
0.04
0.03
0.0
0.03
0.01
0.005
0.02
0.005
0.005
0.02
0.015
0.0
0.0
0.01
0.01
0.04
0.03
0.035
-0.005
0.01
0.025
0.01
0.025
0.0
0.005
0.01
0.03
0.015
-0.01
-0.01
0.005
0.035
0.02
0.02
0.01
0.015
0.035
0.015
0.02
0.02
0.035
0.025
-0.005
0.035
0.07
0.04
0.0
0.02
0.005
0.01
0.035
0.03
0.035
0.045
0.01
0.02
0.02
0.025
0.05
0.07
0.08
0.07
0.07
0.025
0.04
0.025
0.02
0.03
0.02
0.055
0.03
0.01
0.02
0.035
0.04
0.05
0.03
0.01
0.035
0.085
0.075
0.06
0.06
0.06
0.03
0.045
0.06
0.065
0.025
0.04
0.04
0.015
0.035
0.03
0.055
0.08
0.08
0.045
0.05
0.055
0.03
0.045
0.065
0.05
0.08
0.095
0.07
0.08
0.075
0.065
0.065
0.075
0.11
0.075
0.03
0.01
0.025
0.065
0.05
0.035
0.0
-0.01
-0.01
0.02
0.015
0.005
0.015
0.015
-0.015
-0.01
-0.01
0.0
0.07
0.045
0.005
0.01
-0.005
0.0
-0.01
-0.025
-0.01
0.01
-0.005
-0.01
0.025
-0.02
0.01
0.03
0.025
-0.03
-0.01
-0.015
-0.005
-0.005
0.005
0.02
0.0
0.0
-0.075
-0.105
-0.11
-0.19
-0.125
-0.13
-0.11
-0.04
0.03
0.1
0.185
0.35
0.48
0.675
0.825
0.92
0.95
0.955
0.91
0.845
0.765
0.675
0.58
0.415
0.295
0.185
0.16
0.17
0.14
0.075
0.055
0.06
0.06
0.03
0.02
-0.015
-0.005
0.01
0.005
0.015
0.01
0.015
0.02
0.0
0.03
0.05
0.02
0.035
0.055
0.015
0.01
0.01
0.01
0.045
0.05
0.07
0.05
0.025
0.035
0.01
0.015
0.01
0.01
0.035
0.0
0.04
0.005
0.005
0.0
0.01
0.06
0.095
0.055
0.07
0.035
0.01
0.08
0.08
0.08
0.095
0.1
0.095
0.085
0.085
0.105
0.085
0.11
0.14
0.1
0.12
0.14
0.14
0.11
0.08
0.135
0.125
0.19
0.18
0.16
0.15
0.13
0.135
0.135
0.17
0.195
0.21
0.2
0.255
0.215
0.2
0.215
0.28
0.26
0.265
0.295
0.275
0.31
0.295
0.27
0.275
0.27
0.285
0.28
0.28
0.28
0.265
0.25
0.245
0.235
0.245
0.28
0.265
0.26
0.245
0.19
0.15
0.165
0.155
0.19
0.19
0.165
0.09
0.11
0.13
0.125
0.14
0.13
0.075
0.035
0.055
0.065
0.07
0.07
0.035
0.02
0.045
0.055
0.08
0.035
0.055
0.05
0.03
0.025
0.045
0.035
0.035
0.035
0.05
0.0
0.035
0.02
0.035
0.055
0.035
-0.005
0.015
0.035
0.015
0.04
0.065
-0.01
0.005
0.03
-0.025
-0.045
0.02
0.035
0.05
0.075
0.025
-0.03
-0.01
0.04
-0.005
0.015
0.045
0.065
-0.01
-0.01
-0.01
-0.01
0.01
0.0
0.0
-0.015
0.0
0.005
0.0
0.01
0.015
0.0
0.02
0.015
0.03
0.05
0.085
0.065
0.045
0.0
-0.015
-0.01
0.02
0.035
0.055
0.04
0.05
0.02
0.025
0.05
0.025
0.035
0.025
0.055
0.065
0.075
0.065
0.01
0.02
0.04
0.06
0.035
0.025
0.05
0.055
0.05
0.04
0.06
0.035
0.015
0.025
0.015
0.005
0.015
0.055
0.08
0.04
0.05
0.06
0.02
0.045
0.04
0.04
0.05
0.03
0.05
0.045
0.08
0.055
0.045
0.055
0.03
0.015
0.04
0.04
0.035
0.065
0.045
0.035
0.04
0.085
0.03
0.015
0.085
0.085
0.03
0.015
0.055
0.075
0.09
0.09
0.115
0.12
0.145
0.105
0.075
0.09
0.11
0.12
0.08
0.09
0.085
0.03
0.025
0.04
0.05
0.06
0.055
0.06
0.04
0.0
0.035
-0.01
0.015
0.035
0.045
0.025
0.015
0.025
0.045
0.05
-0.005
0.005
0.015
0.015
0.03
0.05
0.03
0.01
0.005
0.005
0.01
0.065
0.02
0.015
0.02
0.025
0.025
0.045
0.05
0.015
0.03
0.04
0.015
0.0
0.005
-0.005
-0.02
-0.045
-0.12
-0.11
-0.125
-0.085
-0.045
-0.025
0.03
0.145
0.25
0.39
0.55
0.74
0.88
0.98
1.02
1.02
0.98
0.89
0.805
0.71
0.565
0.375
0.26
0.2
0.22
0.215
0.155
0.185
0.155
0.13
0.11
0.085
0.005
0.03
0.02
0.01
0.005
0.065
0.06
0.08
0.055
0.045
0.035
0.04
0.035
0.01
0.0
0.03
0.04
0.075
0.085
0.095
0.09
0.015
0.02
0.025
0.035
0.025
-0.005
0.07
0.09
0.06
0.1
0.05
0.045
0.055
0.06
0.05
0.055
0.08
0.065
0.075
0.095
0.07
0.095
0.07
0.075
0.1
0.1
0.105
0.06
0.075
0.115
0.105
0.13
0.15
0.12
0.115
0.12
0.11
0.13
0.145
0.135
0.16
0.135
0.155
0.195
0.205
0.195
0.195
0.15
0.17
0.18
0.205
0.25
0.245
0.215
0.23
0.205
0.23
0.25
0.27
0.28
0.265
0.285
0.3
0.305
0.31
0.27
0.29
0.29
0.29
0.27
0.26
0.285
0.255
0.215
0.245
0.275
0.27
0.24
0.24
0.225
0.195
0.215
0.185
0.185
0.17
0.185
0.16
0.12
0.135
0.11
0.11
0.11
0.105
0.135
0.08
0.03
0.04
0.075
0.095
0.085
0.105
0.075
0.125
0.07
0.03
0.02
0.035
0.05
0.05
0.035
0.04
0.04
0.06
0.03
0.045
0.08
0.035
0.03
0.05
0.085
0.05
0.075
0.025
0.02
0.025
0.015
0.02
0.065
0.065
0.02
0.03
0.0
-0.02
0.055
0.03
0.05
0.06
0.05
0.065
0.02
0.04
0.04
0.03
0.0
0.02
0.025
0.045
0.025
0.02
0.05
0.035
0.03
0.045
0.04
0.005
0.045
0.02
0.045
0.07
0.07
0.04
0.06
0.055
0.04
0.055
0.045
0.045
0.03
0.035
0.045
0.04
0.0
0.085
0.065
0.075
0.11
0.07
0.07
0.03
0.015
0.065
0.09
0.05
0.045
0.025
0.04
0.05
0.065
0.065
0.065
0.07
0.08
0.095
0.08
0.085
0.04
0.03
0.04
0.05
0.075
0.075
0.07
0.06
0.075
0.055
0.055
0.05
0.03
0.05
0.075
0.065
0.065
0.105
0.075
-0.01
0.025
0.07
