# TIPE ECG 2021 - ECG-ID Database v1.0.0 par Physionet
# [Numéro de la personne, Période d'échantillonnage, Prénom, Age, Sexe, Date de l'enregistrement]
[36, 0.002, Jesse, 24, H, 12.05.2005]
-0.015
-0.035
-0.06
-0.06
-0.075
-0.06
-0.05
-0.075
-0.095
-0.055
-0.025
-0.025
-0.055
-0.06
-0.05
-0.005
-0.045
-0.09
-0.065
-0.015
-0.02
-0.02
-0.005
-0.03
-0.045
-0.015
-0.025
-0.01
0.015
-0.03
-0.08
-0.08
-0.065
-0.035
-0.04
-0.05
-0.045
-0.055
0.005
-0.055
-0.055
-0.025
-0.005
-0.025
-0.005
-0.02
-0.035
-0.035
0.02
0.0
0.01
-0.005
-0.03
-0.045
-0.05
-0.075
-0.05
0.01
0.0
0.0
0.0
-0.005
-0.02
-0.045
-0.025
-0.04
-0.03
-0.045
-0.005
0.025
0.015
0.02
-0.02
-0.035
0.005
-0.005
-0.02
-0.04
-0.025
-0.01
-0.01
-0.015
-0.095
-0.05
-0.035
0.0
-0.04
-0.05
0.015
0.04
0.005
0.02
-0.01
-0.025
-0.025
-0.02
-0.02
-0.015
-0.03
0.02
0.01
-0.03
-0.015
-0.035
-0.035
-0.05
-0.045
0.015
0.03
0.01
-0.055
-0.08
-0.08
-0.065
-0.05
-0.045
-0.035
-0.01
0.01
0.015
-0.005
-0.025
-0.05
-0.075
-0.03
-0.02
-0.02
0.005
0.015
-0.005
-0.025
-0.01
-0.045
-0.03
-0.02
-0.02
-0.025
-0.02
0.04
-0.01
-0.03
-0.02
-0.035
-0.065
-0.02
0.005
-0.04
-0.025
-0.035
-0.02
0.0
-0.01
-0.04
-0.045
-0.065
-0.06
-0.03
-0.005
-0.01
-0.035
-0.065
0.02
0.015
-0.01
-0.075
-0.055
-0.015
0.05
-0.02
-0.035
-0.005
0.02
-0.07
-0.055
-0.025
0.01
-0.04
0.0
-0.015
-0.015
-0.02
-0.025
-0.03
-0.04
-0.035
-0.06
-0.02
0.05
0.005
-0.055
-0.035
-0.025
-0.06
-0.04
-0.03
-0.025
-0.025
-0.01
-0.03
-0.045
-0.01
-0.015
-0.04
-0.08
-0.06
-0.01
0.015
0.005
0.0
0.025
-0.005
-0.03
-0.02
-0.04
-0.04
-0.045
-0.025
0.02
-0.01
-0.03
-0.055
-0.035
-0.005
-0.03
-0.02
-0.01
0.02
0.03
-0.035
-0.03
-0.025
-0.025
-0.06
-0.015
-0.01
-0.035
-0.005
0.05
-0.005
0.0
0.01
-0.045
-0.05
0.0
-0.01
-0.03
0.005
0.055
0.02
0.0
0.0
-0.04
-0.025
-0.065
-0.035
-0.015
0.01
-0.01
-0.02
-0.015
0.01
0.01
0.02
0.045
-0.01
-0.015
0.02
0.02
-0.03
-0.04
-0.01
-0.035
0.0
0.015
0.0
0.005
0.055
0.04
0.01
0.02
0.055
0.005
0.01
0.035
0.035
0.035
0.06
0.07
0.04
0.065
0.06
0.065
0.06
0.06
0.065
0.04
0.06
0.06
0.04
0.04
0.1
0.1
0.07
0.06
0.07
0.045
0.02
0.035
0.055
0.005
-0.01
0.0
-0.01
0.015
0.03
0.02
0.035
0.02
0.045
0.02
0.0
0.005
0.03
0.005
-0.025
0.0
0.075
0.06
0.05
0.055
0.015
0.0
0.015
0.04
0.025
0.005
0.065
0.04
0.015
0.02
0.04
-0.01
0.02
0.05
0.02
0.05
0.08
0.06
0.085
0.135
0.15
0.11
0.095
0.145
0.165
0.235
0.275
0.305
0.34
0.32
0.36
0.335
0.31
0.345
0.325
0.275
0.13
-0.045
-0.2
-0.245
-0.31
-0.395
-0.415
-0.365
-0.32
-0.255
-0.165
-0.11
-0.11
-0.05
-0.05
-0.02
-0.045
-0.025
-0.02
0.035
0.05
0.05
0.095
0.02
0.0
0.005
0.075
0.065
0.06
0.105
0.115
0.08
0.08
0.06
0.065
0.04
0.04
0.075
0.035
0.05
0.085
0.11
0.1
0.1
0.115
0.12
0.115
0.085
0.09
0.11
0.115
0.11
0.1
0.095
0.095
0.13
0.125
0.125
0.195
0.145
0.09
0.06
0.05
0.095
0.095
0.065
0.11
0.11
0.13
0.16
0.17
0.105
0.11
0.115
0.105
0.13
0.135
0.15
0.165
0.19
0.155
0.145
0.16
0.14
0.125
0.18
0.165
0.17
0.17
0.245
0.165
0.185
0.2
0.22
0.21
0.225
0.205
0.225
0.24
0.245
0.245
0.255
0.27
0.245
0.22
0.265
0.27
0.285
0.31
0.35
0.31
0.305
0.33
0.335
0.34
0.325
0.355
0.36
0.365
0.405
0.35
0.345
0.375
0.335
0.345
0.375
0.36
0.385
0.385
0.39
0.42
0.42
0.4
0.36
0.3
0.32
0.36
0.35
0.345
0.35
0.345
0.29
0.26
0.215
0.235
0.235
0.22
0.195
0.2
0.21
0.19
0.155
0.16
0.16
0.11
0.13
0.14
0.13
0.115
0.095
0.055
0.09
0.11
0.11
0.08
0.1
0.055
0.04
0.105
0.13
0.12
0.085
0.1
0.105
0.105
0.1
0.08
0.07
0.125
0.13
0.11
0.095
0.045
0.07
0.085
0.055
0.065
0.08
0.105
0.075
0.105
0.105
0.125
0.07
0.06
0.08
0.07
0.045
0.065
0.09
0.1
0.09
0.1
0.085
0.095
0.075
0.085
0.115
0.115
0.105
0.12
0.11
0.11
0.095
0.065
0.075
0.065
0.045
0.07
0.11
0.125
0.11
0.115
0.09
0.165
0.15
0.165
0.14
0.13
0.1
0.11
0.095
0.125
0.085
0.1
0.09
0.09
0.12
0.16
0.12
0.135
0.115
0.095
0.08
0.125
0.165
0.13
0.14
0.175
0.155
0.135
0.1
0.125
0.08
0.11
0.085
0.1
0.095
0.12
0.095
0.13
0.17
0.135
0.095
0.095
0.12
0.115
0.11
0.13
0.15
0.14
0.15
0.135
0.12
0.105
0.08
0.095
0.135
0.155
0.105
0.11
0.12
0.115
0.09
0.06
0.095
0.065
0.12
0.17
0.14
0.13
0.105
0.15
0.1
0.1
0.115
0.115
0.145
0.15
0.135
0.12
0.115
0.11
0.08
0.055
0.07
0.05
0.1
0.17
0.18
0.15
0.145
0.115
0.135
0.11
0.065
0.12
0.145
0.13
0.13
0.12
0.12
0.125
0.085
0.105
0.11
0.09
0.125
0.17
0.14
0.09
0.085
0.12
0.13
0.11
0.11
0.08
0.135
0.14
0.14
0.13
0.085
0.09
0.09
0.1
0.125
0.13
0.16
0.155
0.105
0.125
0.13
0.085
0.08
0.1
0.11
0.135
0.115
0.155
0.18
0.11
0.09
0.08
0.1
0.115
0.155
0.14
0.145
0.15
0.135
0.085
0.085
0.095
0.13
0.13
0.15
0.11
0.125
0.11
0.105
0.11
0.12
0.09
0.1
0.13
0.09
0.1
0.14
0.14
0.115
0.115
0.105
0.135
0.11
0.12
0.115
0.11
0.15
0.12
0.075
0.125
0.135
0.135
0.115
0.12
0.12
0.115
0.115
0.145
0.085
0.145
0.11
0.075
0.1
0.125
0.125
0.13
0.105
0.115
0.13
0.13
0.075
0.085
0.08
0.085
0.1
0.11
0.125
0.06
0.14
0.105
0.115
0.1
0.115
0.095
0.07
0.095
0.135
0.11
0.08
0.105
0.14
0.105
0.13
0.09
0.075
0.115
0.105
0.095
0.12
0.135
0.12
0.135
0.12
0.135
0.145
0.17
0.145
0.15
0.15
0.2
0.155
0.155
0.15
0.11
0.135
0.175
0.145
0.11
0.155
0.215
0.18
0.165
0.145
0.155
0.12
0.14
0.12
0.115
0.155
0.13
0.095
0.1
0.11
0.08
0.04
0.12
0.14
0.09
0.11
0.13
0.09
0.065
0.02
0.055
0.13
0.12
0.12
0.14
0.13
0.115
0.095
0.085
0.09
0.07
0.095
0.125
0.11
0.06
0.095
0.075
0.07
0.1
0.115
0.075
0.08
0.08
0.085
0.1
0.14
0.13
0.125
0.125
0.125
0.16
0.19
0.235
0.265
0.315
0.345
0.385
0.39
0.385
0.38
0.275
0.27
0.32
0.28
0.16
-0.01
-0.115
-0.2
-0.215
-0.25
-0.275
-0.26
-0.24
-0.17
-0.155
-0.135
-0.035
-0.065
-0.045
0.01
0.015
0.03
0.04
0.07
0.1
0.09
0.105
0.065
0.095
0.09
0.095
0.085
0.125
0.16
0.17
0.115
0.095
0.065
0.09
0.135
0.11
0.13
0.155
0.135
0.12
0.13
0.1
0.1
0.145
0.195
0.16
0.2
0.185
0.125
0.145
0.16
0.11
0.12
0.13
0.14
0.16
0.165
0.15
0.12
0.11
0.19
0.19
0.16
0.13
0.145
0.145
0.12
0.17
0.215
0.185
0.165
0.135
0.125
0.135
0.175
0.19
0.2
0.19
0.165
0.14
0.175
0.19
0.195
0.205
0.215
0.23
0.215
0.265
0.24
0.205
0.215
0.195
0.22
0.265
0.23
0.255
0.295
0.275
0.24
0.26
0.295
0.28
0.245
0.295
0.295
0.31
0.28
0.335
0.36
0.335
0.32
0.33
0.325
0.33
0.31
0.36
0.395
0.395
0.385
0.39
0.365
0.325
0.34
0.39
0.42
0.425
0.435
0.395
0.405
0.435
0.4
0.34
0.355
0.365
0.295
0.34
0.365
0.345
0.26
0.24
0.295
0.275
0.25
0.245
0.215
0.195
0.22
0.2
0.18
0.185
0.16
0.135
0.15
0.095
0.075
0.09
0.13
0.11
0.1
0.115
0.085
0.1
0.095
0.095
0.075
0.06
0.055
0.085
0.085
0.14
0.065
0.02
0.05
0.065
0.05
0.065
0.01
0.02
0.085
0.08
0.115
0.055
0.03
0.03
0.03
0.055
0.06
0.09
0.065
0.035
0.0
0.025
0.025
0.035
0.065
0.055
0.08
0.035
0.05
0.095
0.01
0.035
0.045
0.055
0.065
0.075
0.07
0.055
0.055
0.065
0.02
0.05
0.05
0.03
0.035
0.07
0.095
0.06
0.04
0.045
0.06
0.09
0.03
0.05
0.07
0.105
0.02
0.06
0.085
0.075
0.045
0.045
0.05
0.07
0.06
0.12
0.12
0.045
0.035
0.035
0.0
0.01
0.045
0.05
0.105
0.12
0.11
0.095
0.095
0.0
0.03
0.055
0.03
0.025
0.075
0.085
0.055
0.07
0.075
0.055
0.06
0.105
0.11
0.025
0.0
0.05
0.065
0.05
0.095
0.085
0.035
0.065
0.07
0.015
0.05
0.095
0.08
0.12
0.08
0.02
-0.025
0.02
0.055
0.04
0.05
0.09
0.08
0.04
0.07
0.095
0.075
0.06
0.065
0.04
0.045
0.06
0.08
0.06
0.08
0.045
0.08
0.05
-0.005
0.025
0.065
0.085
0.095
0.085
0.04
0.085
0.035
0.025
0.04
0.035
0.055
0.07
0.085
0.03
0.04
0.045
0.09
0.085
0.04
-0.04
0.02
0.06
0.075
0.04
0.04
0.035
0.05
0.09
0.055
0.03
0.085
0.105
0.03
0.035
0.05
0.04
0.05
0.02
0.03
0.055
0.08
0.065
0.07
0.08
0.045
0.03
0.045
0.04
0.015
0.035
0.08
0.07
0.095
0.055
0.06
0.07
0.065
0.07
0.085
0.09
0.13
0.115
0.08
0.065
0.06
0.065
0.09
0.055
0.065
0.155
0.125
0.085
0.095
0.105
0.11
0.06
0.05
0.07
0.07
0.1
0.15
0.155
0.11
0.1
0.095
0.06
0.035
0.005
0.02
0.035
0.065
0.035
0.055
0.075
0.07
0.04
0.055
0.04
-0.015
0.035
0.05
0.035
0.035
0.025
0.055
0.035
0.03
0.02
0.05
0.075
0.05
0.045
0.03
0.02
0.01
0.03
0.02
0.03
0.055
0.065
0.065
0.035
0.03
0.075
0.075
0.08
0.085
0.105
0.095
0.105
0.165
0.18
0.26
0.27
0.27
0.28
0.295
0.3
0.295
0.31
0.245
0.24
0.155
0.065
-0.1
-0.24
-0.275
-0.335
-0.385
-0.355
-0.255
-0.245
-0.195
-0.145
-0.09
-0.075
-0.07
-0.075
-0.075
-0.01
0.01
-0.005
0.03
0.035
0.045
0.015
0.05
0.055
0.055
0.065
0.08
0.1
0.125
0.055
0.035
0.04
0.06
0.1
0.11
0.1
0.065
0.055
0.055
0.085
0.1
0.08
0.08
0.07
0.11
0.1
0.075
0.07
0.065
0.065
0.105
0.13
0.085
0.095
0.115
0.12
0.085
0.065
0.085
0.14
0.115
0.13
0.11
0.09
0.09
0.125
0.14
0.145
0.135
0.135
0.12
0.095
0.12
0.1
0.105
0.14
0.145
0.135
0.16
0.195
0.115
0.125
0.16
0.165
0.14
0.165
0.175
0.19
0.19
0.17
0.145
0.205
0.185
0.18
0.135
0.2
0.225
0.215
0.225
0.28
0.215
0.25
0.245
0.215
0.27
0.28
0.33
0.34
0.335
0.315
0.31
0.305
0.295
0.275
0.275
0.345
0.35
0.315
0.335
0.345
0.35
0.36
0.36
0.38
0.37
0.405
0.405
0.35
0.34
0.33
0.34
0.335
0.305
0.305
0.31
0.295
0.26
0.27
0.245
0.195
0.195
0.205
0.18
0.195
0.18
0.23
0.175
0.085
0.045
0.08
0.11
0.12
0.13
0.07
0.065
0.1
0.08
0.05
0.08
0.05
0.0
0.0
0.04
0.04
0.07
0.045
-0.005
0.05
0.075
0.055
0.045
0.025
0.04
0.055
0.065
0.06
0.025
0.035
0.03
-0.025
0.0
0.025
0.02
0.045
0.0
-0.02
0.0
0.025
0.04
0.005
-0.015
0.025
0.045
0.015
0.02
0.005
-0.02
-0.005
0.055
0.005
0.02
0.03
0.045
0.045
0.05
0.025
0.005
0.02
0.02
0.005
0.035
0.045
0.04
0.055
0.065
0.005
-0.03
0.0
0.03
0.005
-0.025
0.01
0.045
0.045
0.055
0.01
0.01
0.035
0.02
0.0
0.05
0.055
0.035
0.04
0.065
0.03
0.045
0.075
0.045
0.005
-0.015
0.025
0.055
0.08
0.045
0.055
0.025
0.04
0.035
0.05
0.04
0.01
-0.01
0.01
0.08
0.07
0.055
0.045
0.045
0.05
0.075
0.045
0.01
0.0
0.035
0.045
0.02
0.055
0.055
0.015
0.01
0.05
0.06
0.07
0.07
0.03
0.03
0.03
0.015
0.01
0.04
0.03
0.025
0.09
0.075
0.055
0.01
0.03
0.015
-0.005
0.0
0.01
0.02
0.025
0.015
0.0
0.03
0.06
0.035
0.03
0.03
0.025
0.02
0.05
0.03
0.05
0.06
0.04
0.025
0.02
0.05
0.01
0.0
-0.005
0.08
0.04
0.005
0.01
-0.03
0.005
0.015
0.0
-0.005
0.055
0.025
0.0
0.035
0.06
0.045
0.0
0.015
0.005
0.03
0.075
0.05
0.035
0.035
0.04
0.015
0.045
0.035
0.025
0.03
0.055
0.035
0.045
0.045
0.025
-0.005
-0.01
-0.02
0.005
0.025
0.03
0.045
0.04
0.075
0.055
0.0
0.01
0.025
0.0
-0.025
0.03
0.05
0.035
0.03
0.03
0.045
0.04
0.04
0.015
0.08
0.075
0.065
0.03
0.075
0.09
0.05
0.075
0.055
0.065
0.1
0.115
0.075
0.095
0.115
0.085
0.075
0.08
0.045
0.04
0.065
0.095
0.075
0.075
0.13
0.07
0.055
0.105
0.07
0.05
0.11
0.1
0.05
0.035
0.03
0.035
-0.015
0.035
0.025
0.0
0.025
0.015
0.005
-0.02
0.065
0.07
0.01
-0.01
0.01
0.02
0.045
0.03
0.035
0.045
0.06
0.02
0.01
-0.005
0.01
0.025
0.05
0.065
0.025
0.035
0.035
0.02
0.035
0.025
0.02
0.02
0.1
0.115
0.1
0.08
0.105
0.135
0.16
0.25
0.24
0.275
0.315
0.335
0.35
0.3
0.295
0.29
0.31
0.23
0.07
-0.055
-0.17
-0.245
-0.295
-0.345
-0.405
-0.365
-0.29
-0.23
-0.22
-0.175
-0.095
-0.025
-0.075
-0.055
0.005
-0.045
-0.015
0.015
0.04
0.05
0.075
0.1
0.055
-0.005
0.035
0.05
0.05
0.075
0.075
0.055
0.1
0.06
0.055
0.05
0.045
0.035
0.085
0.095
0.05
0.075
0.105
0.07
0.08
0.08
0.07
0.07
0.045
0.075
0.06
0.085
0.1
0.11
0.07
0.07
0.055
0.055
0.085
0.09
0.065
0.1
0.12
0.12
0.16
0.13
0.17
0.07
0.105
0.105
0.065
0.12
0.15
0.13
0.11
0.095
0.075
0.11
0.145
0.12
0.135
0.16
0.16
0.13
0.16
0.18
0.17
0.1
0.13
0.15
0.125
0.18
0.21
0.16
0.16
0.175
0.21
0.215
0.21
0.185
0.21
0.2
0.24
0.26
0.305
0.31
0.25
0.24
0.23
0.27
0.255
0.335
0.325
0.27
0.3
0.31
0.31
0.305
0.29
0.31
0.35
0.34
0.34
0.35
0.35
0.315
0.345
0.375
0.395
0.345
0.33
0.345
0.335
0.325
0.33
0.31
0.26
0.24
0.26
0.215
0.195
0.245
0.235
0.16
0.155
0.16
0.135
0.135
0.12
0.11
0.08
0.155
0.125
0.085
0.05
0.065
0.025
0.09
0.07
0.05
0.03
0.065
0.06
0.025
0.01
0.02
0.02
0.025
0.01
-0.01
0.02
0.045
0.045
0.055
0.035
0.02
0.01
0.025
0.04
0.02
0.04
0.015
0.01
0.005
-0.01
0.03
0.02
0.0
0.01
-0.02
0.005
0.02
0.035
0.055
0.015
0.015
0.01
0.015
-0.01
-0.02
0.04
0.06
0.02
0.01
0.03
0.005
-0.05
-0.015
0.025
0.005
-0.01
0.005
0.02
-0.005
0.01
0.0
0.01
-0.015
-0.03
-0.035
0.005
0.03
-0.015
-0.005
-0.015
-0.015
-0.04
0.015
0.025
-0.005
0.02
0.03
-0.035
0.005
0.03
0.015
-0.005
-0.005
-0.01
-0.005
0.01
0.03
0.05
0.075
0.09
0.05
0.005
0.01
0.035
0.03
0.03
0.005
0.03
0.03
0.04
0.02
0.0
0.015
0.015
0.02
0.03
0.04
0.04
0.0
0.005
0.02
0.005
-0.01
-0.04
-0.025
0.045
0.035
0.065
0.045
0.03
0.015
-0.035
-0.005
0.015
0.01
0.06
0.04
0.015
0.005
0.005
0.02
0.015
-0.005
0.01
0.02
0.03
0.055
0.02
0.02
0.025
0.005
0.005
0.01
0.02
0.02
0.02
0.025
0.03
0.02
-0.02
0.005
-0.015
-0.045
-0.015
0.03
0.04
0.025
0.03
0.04
0.015
-0.015
-0.025
-0.01
-0.03
0.015
0.045
0.045
-0.01
-0.025
-0.005
0.0
-0.015
0.0
0.005
-0.04
-0.005
-0.005
0.035
0.055
0.03
0.0
0.01
0.0
0.005
0.01
0.005
-0.01
0.01
0.02
-0.02
-0.045
-0.005
-0.005
0.0
0.0
0.02
-0.015
0.0
0.005
-0.03
-0.035
0.005
-0.02
-0.025
0.015
-0.01
-0.015
-0.02
0.02
-0.01
-0.045
-0.03
-0.08
-0.065
-0.03
-0.03
-0.025
-0.005
0.03
0.01
0.02
0.015
0.0
-0.02
0.03
-0.02
-0.05
-0.03
-0.06
-0.015
0.0
0.0
-0.005
-0.01
-0.01
-0.025
-0.055
-0.04
0.02
-0.015
-0.035
-0.05
-0.05
-0.065
-0.03
-0.015
-0.005
-0.01
-0.01
-0.06
-0.03
-0.045
-0.04
0.0
0.05
0.005
-0.015
-0.055
0.0
0.02
-0.015
0.01
-0.01
-0.03
0.01
0.08
0.08
0.075
0.03
-0.025
-0.025
-0.005
0.01
-0.005
0.03
0.035
0.025
0.025
0.03
0.01
0.015
-0.01
-0.035
-0.06
-0.01
-0.02
-0.04
-0.045
-0.065
-0.085
-0.04
-0.045
-0.08
-0.105
-0.035
-0.05
-0.085
-0.065
-0.05
-0.06
-0.1
-0.055
-0.06
-0.05
-0.05
-0.1
-0.045
-0.08
-0.07
-0.055
-0.075
-0.04
-0.1
-0.075
-0.03
-0.07
-0.065
-0.07
-0.085
-0.06
-0.055
-0.08
-0.1
-0.08
-0.035
-0.02
-0.01
0.035
-0.005
0.015
0.05
0.06
-0.45
-0.465
-0.41
-0.45
-0.415
-0.33
-0.23
-0.195
-0.145
-0.13
-0.11
-0.125
-0.12
-0.115
-0.08
-0.085
-0.09
-0.04
-0.06
-0.035
-0.04
-0.06
-0.025
-0.06
-0.05
-0.015
0.0
-0.035
-0.025
-0.045
-0.08
-0.085
-0.055
-0.04
-0.035
-0.005
0.04
-0.005
-0.015
-0.025
-0.045
-0.07
-0.05
0.025
0.025
0.005
-0.015
-0.02
0.01
-0.015
-0.03
-0.055
-0.07
-0.04
-0.01
-0.015
-0.005
-0.01
-0.005
0.005
-0.015
0.01
0.02
0.005
0.01
0.045
0.055
0.035
0.02
0.015
0.01
0.035
0.025
-0.04
0.02
0.03
0.025
0.025
0.025
0.035
0.045
0.065
0.09
0.07
0.055
0.1
0.105
0.065
0.085
0.065
0.065
0.08
0.105
0.095
0.095
0.13
0.1
0.115
0.11
0.115
0.11
0.13
0.195
0.2
0.215
0.225
0.225
0.21
0.195
0.195
0.16
0.175
0.24
0.215
0.24
0.265
0.255
0.23
0.23
0.24
0.25
0.24
0.23
0.255
0.27
0.23
0.245
0.225
0.21
0.185
0.17
0.175
0.18
0.145
0.165
0.19
0.14
0.105
0.06
0.03
0.06
0.06
0.045
0.055
0.07
0.03
-0.045
-0.06
-0.03
-0.005
-0.01
0.0
-0.05
-0.085
-0.085
-0.06
-0.07
-0.045
-0.035
-0.085
-0.11
-0.08
-0.075
-0.1
-0.09
-0.075
-0.12
-0.08
-0.1
-0.115
-0.115
-0.1
-0.09
-0.1
-0.05
-0.085
-0.07
-0.1
-0.095
-0.105
-0.105
-0.085
-0.115
-0.115
-0.08
-0.085
-0.08
-0.07
-0.095
-0.155
-0.14
-0.11
-0.075
-0.085
-0.075
-0.09
-0.1
-0.1
-0.1
-0.13
-0.15
-0.09
-0.075
-0.06
-0.07
-0.095
-0.11
-0.13
-0.13
-0.115
-0.095
-0.105
-0.13
-0.1
-0.075
-0.08
-0.055
-0.09
-0.075
-0.1
-0.115
-0.04
-0.115
-0.085
-0.05
-0.1
-0.075
-0.095
-0.075
-0.12
-0.115
-0.1
-0.08
-0.03
-0.015
-0.105
-0.105
-0.095
-0.09
-0.07
-0.06
-0.105
-0.12
-0.045
-0.045
-0.06
-0.085
-0.075
-0.075
-0.1
-0.085
-0.07
-0.055
-0.105
-0.045
-0.005
-0.105
-0.105
-0.085
-0.07
-0.045
-0.075
-0.11
-0.11
-0.065
-0.055
-0.075
-0.04
-0.03
-0.09
-0.065
-0.095
-0.1
-0.08
-0.07
-0.11
-0.07
-0.05
-0.055
-0.095
-0.115
-0.075
-0.065
-0.045
-0.05
-0.065
-0.05
-0.09
-0.075
-0.1
-0.055
-0.055
-0.09
-0.09
-0.075
-0.11
-0.08
-0.08
-0.13
-0.075
-0.035
-0.055
-0.085
-0.065
-0.07
-0.075
-0.04
-0.025
-0.06
-0.065
-0.08
-0.09
-0.085
-0.055
-0.065
-0.04
-0.08
-0.08
-0.11
-0.085
-0.065
-0.105
-0.1
-0.05
-0.055
-0.1
-0.105
-0.06
-0.11
-0.07
-0.075
-0.055
-0.06
-0.04
-0.095
-0.08
-0.06
-0.07
-0.095
-0.06
-0.07
-0.095
-0.09
-0.08
-0.08
-0.095
-0.125
-0.05
-0.06
-0.035
-0.075
-0.075
-0.035
-0.07
-0.085
-0.095
-0.09
-0.095
-0.09
-0.08
-0.105
-0.115
-0.11
-0.065
-0.05
-0.105
-0.125
-0.08
-0.07
-0.05
-0.045
-0.055
-0.1
-0.06
-0.06
-0.04
-0.045
-0.045
-0.105
-0.075
-0.04
-0.08
-0.075
-0.085
-0.065
-0.065
-0.04
-0.045
-0.03
-0.015
0.01
-0.01
-0.015
-0.03
-0.085
-0.065
-0.015
0.015
-0.015
-0.015
-0.085
-0.08
-0.07
-0.04
-0.045
-0.01
-0.02
0.03
0.015
-0.01
-0.07
-0.035
0.01
-0.02
-0.03
-0.035
-0.03
-0.06
-0.1
-0.085
-0.095
-0.1
-0.095
-0.07
-0.065
-0.075
-0.08
-0.09
-0.06
-0.105
-0.085
-0.055
-0.045
-0.035
-0.055
-0.07
-0.045
-0.065
-0.105
-0.085
-0.1
-0.1
-0.045
-0.025
-0.06
-0.09
-0.105
-0.075
-0.065
-0.09
-0.06
-0.06
-0.05
-0.095
-0.085
-0.07
-0.035
-0.015
-0.005
0.0
-0.055
-0.04
0.03
0.1
0.145
0.16
0.205
0.2
0.21
0.22
0.245
0.225
0.225
0.19
0.095
-0.03
-0.13
-0.3
-0.385
-0.43
-0.4
-0.45
-0.405
-0.39
-0.355
-0.26
-0.22
-0.18
-0.135
-0.145
-0.1
-0.125
-0.075
-0.09
-0.085
-0.055
-0.045
-0.055
-0.07
-0.065
-0.09
-0.07
0.015
-0.02
-0.05
-0.055
-0.06
-0.06
-0.015
-0.005
-0.02
-0.01
0.005
-0.045
-0.04
-0.015
-0.02
-0.045
-0.04
-0.02
-0.025
-0.015
0.005
0.0
0.03
0.0
-0.025
-0.005
0.0
0.0
-0.04
-0.02
0.035
0.03
0.005
0.04
0.0
0.01
0.02
0.01
-0.025
-0.015
0.045
0.05
0.005
0.015
-0.015
-0.025
0.015
0.025
0.01
0.055
0.055
0.04
0.04
0.045
0.02
0.005
0.085
0.085
0.085
0.095
0.1
0.09
0.035
0.07
0.085
0.055
0.065
0.045
0.07
0.1
0.12
0.12
0.125
0.11
0.085
0.14
0.155
0.165
0.16
0.21
0.185
0.145
0.145
0.165
0.185
0.19
0.225
0.21
0.215
0.245
0.27
0.255
0.23
0.22
0.22
0.225
0.265
0.275
0.26
0.265
0.26
0.27
0.235
0.2
0.235
0.245
0.255
0.25
0.215
0.195
0.165
0.18
0.175
0.12
0.05
0.075
0.13
0.095
0.07
0.075
0.055
0.045
0.06
0.07
-0.015
-0.015
0.01
0.0
0.045
0.02
-0.005
-0.005
-0.035
-0.045
-0.065
0.0
-0.03
-0.07
-0.02
0.035
-0.025
-0.03
-0.07
-0.065
-0.06
-0.05
-0.045
-0.01
-0.02
0.0
-0.04
-0.065
-0.04
-0.08
-0.095
-0.065
-0.035
-0.085
-0.07
-0.07
-0.065
-0.085
-0.065
-0.015
-0.035
-0.04
-0.025
-0.07
-0.075
-0.04
-0.035
-0.06
-0.03
-0.055
-0.075
-0.035
-0.05
-0.06
-0.08
-0.005
-0.045
-0.055
-0.045
-0.065
-0.05
-0.05
-0.05
-0.06
-0.04
-0.04
-0.035
-0.03
-0.04
-0.085
-0.085
-0.055
-0.06
-0.075
-0.05
-0.08
-0.055
0.005
-0.02
-0.025
-0.045
-0.07
-0.05
-0.06
-0.02
0.02
-0.01
-0.01
-0.025
-0.05
-0.04
-0.06
-0.08
-0.065
-0.005
-0.01
-0.02
-0.025
-0.005
-0.02
-0.015
-0.035
-0.055
-0.055
-0.05
-0.07
0.005
-0.005
0.005
-0.03
-0.055
-0.04
-0.035
-0.015
-0.025
-0.02
-0.05
-0.045
-0.03
-0.005
-0.035
-0.045
-0.07
-0.03
0.02
0.005
-0.015
-0.02
-0.045
-0.04
-0.065
-0.045
-0.075
-0.06
-0.025
-0.025
-0.03
-0.005
0.015
0.02
-0.02
-0.025
-0.02
-0.055
-0.05
-0.005
0.0
0.015
-0.02
-0.05
-0.025
0.015
-0.02
-0.06
-0.015
-0.04
-0.02
0.005
-0.015
-0.035
-0.045
-0.035
-0.02
-0.03
-0.04
-0.065
-0.01
0.005
0.005
-0.03
-0.02
-0.015
-0.075
-0.045
-0.025
-0.02
-0.01
0.015
0.01
0.0
-0.025
-0.035
0.015
-0.02
-0.025
-0.02
-0.02
0.0
-0.005
-0.03
-0.015
-0.045
-0.055
-0.02
-0.025
-0.02
-0.035
-0.03
-0.005
-0.065
-0.01
0.0
-0.03
-0.04
-0.015
0.0
-0.015
-0.01
-0.04
-0.08
-0.06
0.0
-0.02
0.01
0.005
-0.01
-0.025
-0.045
-0.02
-0.045
-0.035
-0.02
-0.035
0.015
0.02
-0.01
-0.015
0.01
0.005
-0.03
-0.02
-0.02
-0.045
0.02
-0.015
-0.015
-0.05
0.03
-0.035
-0.065
-0.07
-0.03
-0.02
-0.025
-0.01
-0.005
-0.025
0.02
-0.05
-0.065
-0.06
-0.005
0.01
0.01
-0.015
-0.045
-0.025
-0.015
-0.015
-0.005
-0.01
-0.045
-0.035
0.015
0.03
0.0
0.03
0.005
-0.035
-0.045
-0.05
-0.035
-0.05
-0.015
-0.015
0.02
-0.02
-0.055
-0.045
-0.02
-0.015
-0.05
-0.01
0.0
-0.015
-0.035
0.015
-0.01
-0.05
0.0
-0.03
-0.05
-0.055
0.01
-0.005
-0.015
0.005
0.01
-0.025
-0.005
0.02
0.005
-0.005
-0.02
-0.045
-0.005
-0.045
-0.02
-0.015
-0.01
-0.015
-0.01
-0.005
0.015
-0.025
-0.01
-0.025
0.0
0.015
0.0
-0.05
-0.04
0.0
-0.005
0.02
0.04
0.015
-0.015
-0.03
0.035
0.02
0.035
0.045
0.04
0.07
0.095
0.09
0.04
0.01
-0.01
-0.015
0.005
0.01
0.08
0.05
0.045
0.04
0.055
0.05
0.07
0.05
0.04
0.01
0.03
0.01
0.01
0.015
-0.055
-0.085
-0.055
-0.01
0.01
0.025
-0.05
-0.05
-0.025
-0.03
-0.03
0.01
0.005
0.01
-0.005
-0.04
-0.02
0.0
-0.035
-0.015
-0.015
0.0
0.01
-0.065
-0.04
0.0
-0.005
0.005
0.01
0.005
-0.03
-0.005
0.015
-0.015
-0.055
0.0
0.015
0.005
0.01
0.03
0.025
0.055
0.055
0.04
0.055
0.12
0.175
0.195
0.255
0.315
0.285
0.32
0.31
0.295
0.255
0.29
0.26
0.135
-0.025
-0.145
-0.235
-0.25
-0.34
-0.455
-0.44
-0.32
-0.27
-0.235
-0.165
-0.15
-0.12
-0.07
-0.045
-0.09
-0.07
-0.03
-0.025
-0.025
-0.015
-0.02
-0.03
-0.04
-0.005
0.01
-0.015
0.0
0.03
0.05
-0.015
0.025
-0.005
0.02
0.025
-0.005
0.005
-0.005
0.03
0.035
0.02
0.05
0.035
0.03
0.025
0.005
0.015
0.055
0.05
0.015
0.01
0.02
0.02
0.07
0.065
0.03
0.02
0.075
0.045
0.095
0.065
0.055
0.06
0.07
0.075
0.015
0.03
0.045
0.055
0.06
0.05
0.095
0.09
0.05
0.065
0.07
0.08
0.08
0.085
0.06
0.065
0.065
0.055
0.09
0.095
0.085
0.1
0.12
0.095
0.12
0.15
0.135
0.11
0.125
0.135
0.09
0.125
0.145
0.15
0.17
0.215
0.225
0.19
0.155
0.175
0.17
0.205
0.23
0.265
0.225
0.25
0.21
0.23
0.225
0.25
0.285
0.32
0.3
0.275
0.28
0.31
0.3
0.275
0.225
0.275
0.33
0.34
0.315
0.315
0.28
0.265
0.295
0.29
0.225
0.225
0.275
0.285
0.25
0.235
0.23
0.19
0.16
0.135
0.145
0.11
0.1
0.16
0.105
0.115
0.085
0.065
0.055
0.03
0.025
0.0
0.01
0.04
0.03
0.04
0.035
0.05
0.03
-0.005
0.0
0.0
-0.035
-0.01
-0.025
-0.01
-0.025
-0.005
0.005
0.005
-0.035
-0.065
-0.05
-0.045
-0.05
-0.015
0.0
-0.03
-0.055
-0.045
-0.06
-0.045
-0.035
0.0
0.01
-0.025
-0.075
-0.035
0.01
0.0
-0.035
-0.05
-0.04
-0.01
0.01
-0.045
-0.02
-0.02
-0.05
0.005
-0.03
-0.03
-0.005
0.055
0.02
-0.02
-0.115
-0.13
-0.055
-0.01
-0.025
-0.01
0.01
0.005
-0.075
-0.055
0.05
-0.015
-0.02
-0.05
-0.04
-0.035
-0.01
-0.07
-0.12
-0.08
-0.045
0.05
0.055
0.06
0.05
0.085
-0.04
-0.065
0.045
0.04
0.015
0.04
0.065
0.06
0.05
-0.035
0.015
0.14
0.125
-0.03
-0.115
-0.06
0.065
0.125
0.085
0.085
0.095
0.11
0.03
-0.01
0.105
0.15
0.035
0.13
0.125
0.09
0.185
0.19
0.18
0.175
0.175
0.185
0.235
0.23
0.26
0.21
0.25
0.165
0.075
0.11
0.215
0.27
0.24
0.235
0.295
0.38
0.28
0.23
0.21
0.255
0.29
0.22
0.255
0.265
0.275
0.31
0.43
0.49
0.49
0.36
0.37
0.385
0.38
0.39
0.275
0.275
0.46
0.395
0.42
0.42
0.485
0.495
0.365
0.335
0.305
0.36
0.32
0.32
0.34
0.295
0.515
0.58
0.73
0.67
0.63
0.49
0.49
0.43
0.47
0.45
0.46
0.53
0.44
0.505
0.49
0.47
0.445
0.57
0.67
0.785
0.41
0.305
0.285
0.285
0.4
0.53
0.68
0.65
0.7
0.76
0.695
0.59
0.645
0.59
0.585
0.65
0.57
0.455
0.58
0.615
0.665
0.615
0.525
0.565
0.565
0.64
0.725
0.685
0.57
0.57
0.585
0.68
0.56
0.58
0.595
0.575
0.69
0.79
0.64
0.515
0.465
0.615
0.545
0.42
0.495
0.645
0.685
0.545
0.53
0.49
0.675
0.615
0.64
0.79
0.52
0.545
0.57
0.605
0.655
0.785
0.7
0.725
0.745
0.64
0.52
0.505
0.45
0.71
0.81
0.675
0.56
0.75
0.735
0.58
0.675
0.75
0.75
0.72
0.515
0.49
0.58
0.54
0.49
0.565
0.76
0.98
0.87
0.65
0.61
0.645
0.88
0.54
0.41
0.635
0.65
0.57
0.565
0.62
0.795
0.85
0.815
0.72
0.77
0.765
0.74
0.715
0.735
0.685
0.69
0.67
0.83
0.895
0.845
0.79
0.81
0.88
0.705
0.82
0.865
0.715
0.615
0.79
0.795
0.725
0.755
0.865
1.09
1.135
0.99
0.825
0.895
0.985
0.915
0.87
0.975
0.835
0.835
0.9
0.87
0.985
0.815
0.81
0.89
1.055
0.98
0.945
0.99
0.915
0.915
0.97
1.135
0.91
0.875
1.005
0.945
1.035
1.005
0.94
0.975
0.99
0.97
0.975
0.95
1.025
1.075
1.065
1.08
0.99
1.0
0.94
1.07
0.925
0.92
0.955
1.005
1.02
1.07
1.08
1.115
1.055
1.035
1.055
1.04
0.99
0.98
0.96
1.075
1.055
1.035
1.06
1.035
1.01
1.055
1.065
1.085
1.05
1.025
0.99
1.025
1.06
1.06
1.04
1.035
1.045
1.05
1.075
1.01
1.075
1.075
1.08
1.11
1.07
1.035
1.055
1.065
1.035
1.035
1.005
1.025
1.035
1.035
1.12
1.115
1.09
1.12
1.105
1.075
1.085
1.125
1.16
1.06
1.115
1.065
1.06
1.13
1.095
1.06
1.06
1.145
1.09
1.105
1.115
1.13
1.155
1.155
1.145
1.16
1.105
1.08
1.085
1.04
1.05
1.07
1.06
1.08
1.045
1.055
1.105
1.05
1.045
1.06
1.075
1.11
1.09
1.125
1.075
1.05
1.055
1.115
1.1
1.065
1.025
1.06
1.095
1.115
1.08
1.035
1.07
1.1
1.075
1.08
1.1
1.04
1.095
1.095
1.105
1.145
1.12
1.08
1.11
1.09
1.06
1.065
1.08
1.135
1.125
1.05
1.055
1.105
1.135
1.195
1.22
1.305
1.33
1.335
1.32
1.335
1.345
1.315
1.28
1.29
1.32
1.145
1.035
0.88
0.715
0.655
0.63
0.585
0.605
0.665
0.73
0.8
0.885
0.915
0.925
0.885
0.925
0.97
0.955
0.96
0.94
0.975
1.04
1.03
1.015
1.01
1.005
0.955
0.975
1.0
1.015
1.01
1.075
1.065
1.055
1.0
1.005
1.025
1.1
1.0
1.01
1.04
1.07
1.02
1.02
0.995
0.985
0.995
1.005
0.99
0.97
0.96
0.97
0.98
0.975
1.01
1.045
1.035
0.995
0.965
0.95
0.965
0.975
0.98
0.95
0.97
1.01
0.995
0.95
0.97
0.985
0.995
1.005
1.0
1.035
1.035
1.0
0.975
0.995
0.995
0.975
1.02
1.06
1.03
1.025
1.055
1.015
0.99
1.02
1.025
1.005
1.02
1.02
1.015
1.035
1.01
1.0
1.005
0.99
1.045
1.045
1.09
1.07
1.045
1.06
1.075
1.06
1.05
1.065
1.08
1.085
1.09
1.085
1.085
1.125
1.13
1.125
1.11
1.13
1.145
1.12
1.105
1.13
1.105
1.135
1.19
1.165
1.13
1.15
1.15
1.165
1.145
1.145
1.15
1.115
1.11
1.085
1.06
1.06
1.08
1.03
1.035
1.01
0.985
0.965
0.965
0.93
0.91
0.94
0.935
0.915
0.895
0.925
0.875
0.855
0.855
0.81
0.805
0.755
0.72
0.745
0.76
0.785
0.81
0.83
0.825
0.765
0.715
0.7
0.75
0.745
0.76
0.745
0.805
0.77
0.755
0.725
0.73
0.765
0.75
0.72
0.755
0.725
0.695
0.74
0.745
0.72
0.73
0.72
0.72
0.745
0.74
0.735
0.735
0.725
0.69
0.665
0.715
0.715
0.71
0.73
0.72
0.71
0.705
0.705
0.67
0.665
0.71
0.695
0.71
0.715
0.735
0.71
0.67
0.69
0.67
0.66
0.7
0.71
0.675
0.625
0.685
0.71
0.7
0.755
0.715
0.645
0.66
0.64
0.645
0.695
0.68
0.67
0.655
0.665
0.665
0.655
0.645
0.66
0.645
0.68
0.685
0.69
0.665
0.645
0.645
0.585
0.615
0.635
0.66
0.675
0.69
0.655
0.675
0.68
0.65
0.63
0.625
0.62
0.63
0.68
0.7
0.65
0.655
0.64
0.61
0.625
0.635
0.625
0.63
0.64
0.675
0.64
0.61
0.6
0.625
0.625
0.61
0.615
0.625
0.595
0.645
0.625
0.61
0.585
0.54
0.54
0.555
0.565
0.62
0.635
0.59
0.615
0.575
0.61
0.56
0.59
0.615
0.615
0.59
0.58
0.55
0.585
0.6
0.575
0.545
0.545
0.585
0.59
0.535
0.57
0.555
0.595
0.615
0.585
0.56
0.575
0.595
0.55
0.55
0.57
0.59
0.585
0.575
0.565
0.535
0.535
0.54
0.57
0.555
0.575
0.58
0.575
0.575
0.57
0.485
0.515
0.54
0.5
0.505
0.57
0.545
0.57
0.59
0.55
0.52
0.555
0.545
0.52
0.54
0.54
0.515
0.49
0.525
0.555
0.53
0.525
0.54
0.535
0.51
0.53
0.53
0.535
0.545
0.56
0.53
0.5
0.52
0.53
0.545
0.56
0.535
0.525
0.495
0.51
0.5
0.51
0.49
0.48
0.51
0.515
0.49
0.525
0.515
0.48
0.48
0.48
0.5
0.51
0.465
0.495
0.5
0.505
0.495
0.48
0.505
0.49
0.45
0.47
0.495
0.505
0.5
0.47
0.5
0.52
0.48
0.485
0.47
0.445
0.455
0.5
0.485
0.505
0.505
0.495
0.46
0.425
0.435
0.465
0.485
0.475
0.46
0.405
0.45
0.44
0.435
0.46
0.44
0.445
0.485
0.505
0.47
0.435
0.445
0.455
0.455
0.45
0.43
0.455
0.455
0.42
0.43
0.455
0.465
0.43
0.42
0.43
0.465
0.43
0.47
0.465
0.43
0.445
0.465
0.41
0.44
0.48
0.47
0.455
0.46
0.43
0.45
0.46
0.445
0.385
0.385
0.4
0.41
0.435
0.455
0.465
0.455
0.455
0.46
0.44
0.425
0.44
0.405
0.41
0.42
0.395
0.415
0.445
0.445
0.4
0.415
0.425
0.43
0.395
0.43
0.435
0.455
0.495
0.425
0.38
0.43
0.395
0.42
0.44
0.405
0.42
0.42
0.43
0.42
0.38
0.4
0.435
0.43
0.42
0.445
0.45
0.45
0.435
0.4
0.4
0.43
0.445
0.455
0.435
0.44
0.415
0.39
0.465
0.46
0.44
0.445
0.46
0.445
0.425
0.445
0.46
0.435
0.46
0.48
0.455
0.46
0.46
0.435
0.425
0.45
0.475
0.41
0.41
0.405
0.35
0.375
0.385
0.35
0.375
0.415
0.38
0.37
0.375
0.355
0.35
0.395
0.38
0.355
0.395
0.375
0.37
0.325
0.355
0.355
0.365
0.4
0.375
0.355
0.385
0.39
0.385
0.365
0.38
0.355
0.375
0.4
0.395
0.355
0.335
0.355
0.375
0.37
0.37
0.315
0.315
0.365
0.435
0.43
0.425
0.415
0.43
0.47
0.475
0.54
0.59
0.645
0.635
0.63
0.68
0.68
0.685
0.62
0.61
0.625
0.48
0.335
0.17
0.035
0.08
0.045
-0.055
-0.04
0.01
0.025
0.105
0.16
0.21
0.27
0.26
0.255
0.27
0.28
0.295
0.305
0.31
0.325
0.345
0.37
0.385
0.345
0.34
0.33
0.38
0.37
0.375
0.39
0.355
0.365
0.4
0.405
0.44
0.41
0.38
0.355
0.38
0.4
0.355
0.36
0.385
0.37
0.39
0.335
0.38
0.375
0.39
0.36
0.325
0.38
0.49
0.42
0.37
0.36
0.365
0.355
0.41
0.39
0.365
0.385
0.405
0.38
0.37
0.405
0.395
0.405
0.44
0.395
0.35
0.39
0.445
0.415
0.39
0.375
0.355
0.37
0.425
0.4
0.455
0.48
0.47
0.435
0.465
0.44
0.385
0.41
0.485
0.485
0.425
0.43
0.46
0.51
0.495
0.445
0.45
0.455
0.485
0.495
0.48
0.49
0.49
0.47
0.515
0.57
0.56
0.535
0.535
0.555
0.565
0.58
0.595
0.62
0.575
0.56
0.55
0.57
0.59
0.605
0.6
0.64
0.655
0.625
0.63
0.625
0.61
0.59
0.625
0.645
0.635
0.615
0.59
0.59
0.57
0.555
0.54
0.545
0.545
0.48
0.455
0.46
0.46
0.435
0.44
0.415
0.37
0.375
0.375
0.35
0.34
0.355
0.375
0.405
0.375
0.355
0.31
0.275
0.295
0.29
0.29
0.31
0.275
0.27
0.285
0.32
0.295
0.245
0.26
0.23
0.255
0.315
0.285
0.25
0.23
0.26
0.235
0.245
0.245
0.21
0.25
0.305
0.275
0.235
0.235
0.255
0.215
0.295
0.255
0.21
0.225
0.235
0.21
0.235
0.25
0.235
0.245
0.26
0.24
0.23
0.23
0.285
0.255
0.235
0.245
0.235
0.19
0.225
0.24
0.275
0.265
0.27
0.23
0.22
0.245
0.22
0.21
0.24
0.235
0.21
0.215
0.23
0.255
0.24
0.23
0.2
0.215
0.23
0.24
0.215
0.25
0.28
0.23
0.21
0.235
0.21
0.225
0.235
0.24
0.24
0.27
0.275
0.27
0.255
0.265
0.23
0.205
0.225
0.235
0.25
0.265
0.26
0.25
0.23
0.225
0.225
0.195
0.215
0.195
0.21
0.25
0.27
0.25
0.225
0.265
0.235
0.205
0.25
0.195
0.21
0.205
0.225
0.245
0.235
0.27
0.22
0.2
0.235
0.23
0.245
0.235
0.225
0.22
0.2
0.19
0.215
0.265
0.23
0.22
0.21
0.27
0.265
0.235
0.23
0.22
0.215
0.21
0.22
0.205
0.18
0.21
0.225
0.175
0.205
0.195
0.23
0.24
0.215
0.185
0.195
0.215
0.225
0.215
0.2
0.18
0.21
0.235
0.235
0.22
0.22
0.17
0.2
0.2
0.24
0.195
0.2
0.2
0.195
0.16
0.165
0.24
0.235
0.2
0.195
0.16
0.175
0.21
0.205
0.185
0.2
0.205
0.185
0.205
0.26
0.2
0.19
0.175
0.19
0.2
0.2
0.245
0.24
0.21
0.2
0.19
0.21
0.17
0.155
0.145
0.2
0.245
0.22
0.205
0.175
0.17
0.145
0.185
0.185
0.19
0.21
0.23
0.185
0.18
0.18
0.17
0.135
0.18
0.23
0.175
0.185
0.185
0.16
0.2
0.215
0.175
0.185
0.205
0.175
0.155
0.175
0.22
0.15
0.16
0.195
0.18
0.2
0.22
0.185
0.155
0.205
0.23
0.19
0.2
0.185
0.155
0.15
0.125
0.16
0.165
0.18
0.17
0.21
0.21
0.165
0.135
0.14
0.175
0.18
0.165
0.16
0.185
0.195
0.175
0.195
0.175
0.195
0.19
0.175
0.16
0.21
0.185
0.14
0.14
0.185
0.15
0.13
0.175
0.185
0.205
0.2
0.175
0.16
0.11
0.12
0.155
0.18
0.16
0.165
0.17
0.195
0.165
0.165
0.205
0.175
0.14
0.185
0.155
0.18
0.2
0.195
0.145
0.155
0.155
0.16
0.135
0.135
0.175
0.17
0.16
0.16
0.18
0.225
0.21
0.2
0.185
0.23
0.17
0.155
0.21
0.22
0.165
0.19
0.205
0.205
0.215
0.22
0.16
0.195
0.21
0.215
0.185
0.185
0.215
0.205
0.21
0.225
0.23
0.245
0.25
0.255
0.235
0.26
0.225
0.19
0.18
0.175
0.155
0.13
0.165
0.155
0.155
0.14
0.13
0.12
0.115
0.11
0.155
0.16
0.2
0.17
0.155
0.14
0.195
0.18
0.15
0.125
0.15
0.145
0.19
0.175
0.17
0.145
0.14
0.125
0.18
0.185
0.13
0.14
0.12
0.155
0.105
0.16
0.155
0.13
0.145
0.18
0.14
0.115
0.15
0.185
0.19
0.19
0.225
0.21
0.23
0.265
0.305
0.34
0.4
0.46
0.465
0.49
0.51
0.475
0.43
0.415
0.405
0.365
0.255
0.09
-0.055
-0.145
-0.21
-0.245
-0.225
-0.26
-0.21
-0.13
-0.045
0.0
-0.03
0.03
0.065
0.085
0.085
0.08
0.095
0.1
0.165
0.17
0.165
0.2
0.17
0.11
0.15
0.16
0.13
0.145
0.2
0.195
0.165
0.16
0.16
0.14
0.185
0.17
0.155
0.195
0.215
0.2
0.195
0.21
0.2
0.145
0.175
0.185
0.165
0.195
0.205
0.19
0.2
0.175
0.165
0.205
0.23
0.195
0.18
0.205
0.22
0.215
0.2
0.185
0.185
0.19
0.215
0.215
0.21
0.215
0.225
0.225
0.245
0.22
0.22
0.22
0.23
0.25
0.235
0.23
0.245
0.245
0.235
0.235
0.215
0.21
0.21
0.215
0.29
0.32
0.325
0.25
0.275
0.315
0.3
0.27
0.28
0.26
0.315
0.32
0.335
0.28
0.3
0.355
0.375
0.385
0.4
0.38
0.365
0.36
0.435
0.43
0.43
0.43
0.41
0.425
0.39
0.385
0.4
0.445
0.45
0.43
0.445
0.48
0.46
0.475
0.465
0.455
0.43
0.43
0.45
0.48
0.445
0.455
0.4
0.38
0.4
0.365
0.335
0.43
0.385
0.35
0.335
0.315
0.26
0.27
0.29
0.265
0.255
0.25
0.235
0.21
0.2
0.205
0.22
0.205
0.195
0.13
0.145
0.15
0.155
0.125
0.135
0.12
0.14
0.175
0.115
0.09
0.115
0.12
0.095
0.1
0.11
0.12
0.09
0.105
0.135
0.135
0.125
0.07
0.07
0.125
0.115
0.085
0.135
0.09
0.075
0.085
0.105
0.08
0.12
0.14
0.125
0.095
0.06
0.085
0.11
0.095
0.095
0.12
0.115
0.085
0.09
0.075
0.1
0.1
0.095
0.075
0.075
0.105
0.09
0.06
0.06
0.04
0.085
0.105
0.105
0.095
0.11
0.105
0.08
0.07
0.08
0.055
0.115
0.12
0.115
0.1
0.1
0.095
0.08
0.085
0.135
0.11
0.09
0.11
0.09
0.06
0.11
0.12
0.11
0.08
0.1
0.105
0.1
0.1
0.065
0.09
0.14
0.105
0.12
0.095
0.1
0.115
0.13
0.1
0.09
0.065
0.095
0.11
0.105
0.095
0.1
0.1
0.125
0.12
0.07
0.075
0.07
0.075
0.075
0.125
0.11
0.105
0.09
0.11
0.095
0.095
0.13
0.14
0.12
0.075
0.075
0.08
0.07
0.095
0.09
0.08
0.105
0.125
0.12
0.07
0.1
0.085
0.07
0.095
0.105
0.115
0.13
0.075
0.09
0.095
0.095
0.095
0.1
0.085
0.115
0.12
0.09
0.12
0.115
0.085
0.06
0.055
0.1
0.07
0.055
0.06
0.085
0.09
0.09
0.075
0.11
0.105
0.115
0.065
0.075
0.105
0.085
0.11
0.125
0.1
0.11
0.06
0.065
0.09
0.055
0.06
0.095
0.085
0.08
0.095
0.07
0.04
0.065
0.08
0.095
0.09
0.125
0.11
0.08
0.085
0.035
0.055
0.08
0.095
0.09
0.08
0.12
0.08
0.065
0.095
0.09
0.07
0.095
0.065
0.05
0.045
0.09
0.07
0.1
0.1
0.08
0.085
0.04
0.035
0.055
0.09
0.115
0.08
0.06
0.08
0.09
0.08
0.08
0.055
0.05
0.06
0.055
0.06
0.09
0.085
0.085
0.065
0.04
0.045
0.065
0.095
0.085
0.08
0.06
0.05
0.045
0.055
0.105
0.05
0.07
0.1
0.07
0.085
0.065
0.085
0.055
0.05
0.055
0.045
0.06
0.08
0.045
0.055
0.06
0.09
0.055
0.06
0.075
0.12
0.07
0.075
0.04
0.03
0.04
0.07
0.055
0.09
0.085
0.035
0.05
0.065
0.075
0.075
0.03
0.025
0.07
0.06
0.04
0.07
0.07
0.1
0.075
0.055
0.075
0.065
0.045
0.05
0.05
0.035
0.045
0.075
0.1
0.095
0.085
0.1
0.075
0.085
0.065
0.05
0.115
0.085
0.07
0.095
0.1
0.075
0.075
0.095
0.045
-0.01
0.05
0.07
0.075
0.09
0.07
0.11
0.125
0.12
0.04
0.055
0.085
0.115
0.14
0.08
0.075
0.075
0.06
0.08
0.09
0.075
0.085
0.11
0.125
0.125
0.095
0.085
0.09
0.105
0.12
0.1
0.095
0.1
0.11
0.1
0.125
0.14
0.135
0.095
0.085
0.07
0.135
0.16
0.07
0.04
0.035
-0.025
0.04
0.02
0.025
0.02
0.09
0.105
0.06
0.085
0.055
0.04
0.02
0.05
0.055
0.045
0.055
0.025
0.02
0.045
0.11
0.12
0.04
0.005
0.045
0.085
0.07
0.055
0.05
0.025
0.015
0.005
0.035
0.05
0.035
0.03
0.065
0.05
0.07
0.065
0.08
0.08
0.115
0.125
0.065
0.085
0.16
0.205
0.255
0.275
0.29
0.33
0.36
0.415
0.385
0.325
0.345
0.4
0.29
0.08
-0.065
-0.16
-0.235
-0.26
-0.355
-0.385
-0.325
-0.295
-0.225
-0.155
-0.13
-0.125
-0.065
-0.055
-0.045
-0.01
0.0
0.01
0.03
0.05
0.035
0.015
0.045
0.035
0.025
0.035
0.08
0.065
0.065
0.055
0.07
0.075
0.07
0.075
0.05
0.08
0.085
0.08
0.075
0.095
0.075
0.075
0.12
0.105
0.065
0.07
0.06
0.085
0.1
0.1
0.07
0.02
0.065
0.1
0.095
0.12
0.145
0.08
0.12
0.12
0.06
0.105
0.085
0.1
0.12
0.145
0.17
0.13
0.11
0.115
0.1
0.13
0.105
0.135
0.125
0.15
0.16
0.115
0.12
0.16
0.145
0.14
0.135
0.125
0.11
0.155
0.185
0.185
0.18
0.19
0.205
0.185
0.19
0.16
0.16
0.235
0.21
0.22
0.245
0.24
0.195
0.185
0.175
0.255
0.305
0.27
0.275
0.31
0.335
0.31
0.295
0.295
0.335
0.35
0.33
0.31
0.33
0.365
0.36
0.365
0.33
0.375
0.38
0.32
0.355
0.41
0.43
0.43
0.365
0.37
0.37
0.37
0.32
0.325
0.335
0.35
0.335
0.335
0.325
0.295
0.255
0.215
0.225
0.215
0.225
0.225
0.19
0.19
0.185
0.175
0.085
0.095
0.115
0.105
0.1
0.095
0.12
0.1
0.09
0.095
0.07
0.07
0.045
0.045
0.075
0.045
0.045
-0.015
0.005
0.005
0.03
0.035
0.055
0.015
0.03
0.075
0.055
0.015
0.035
0.03
0.015
0.035
0.05
0.055
0.0
0.03
0.015
0.04
0.04
-0.005
0.015
0.01
-0.015
-0.075
0.0
0.005
-0.01
0.01
0.02
0.02
0.05
0.06
0.05
0.005
0.01
0.02
0.025
0.045
0.005
0.02
-0.02
0.015
0.02
-0.015
0.035
0.04
0.015
0.03
0.075
0.065
0.02
0.02
-0.04
-0.01
0.005
0.04
0.05
0.04
0.06
0.05
0.03
0.04
-0.015
0.0
-0.005
0.08
0.06
0.035
0.015
-0.02
0.025
0.07
0.055
0.035
0.075
0.07
0.065
0.05
0.07
0.075
0.075
0.045
0.065
0.085
0.085
0.07
0.035
0.05
0.07
0.035
0.06
0.055
0.04
0.055
0.065
0.06
0.05
0.055
0.025
0.005
0.03
0.025
0.025
0.045
0.07
0.08
0.06
0.02
0.055
0.055
0.02
0.035
0.035
0.05
0.07
0.07
0.025
0.05
0.035
0.025
0.005
0.06
0.03
0.065
0.095
0.095
0.05
0.03
0.055
0.035
0.02
0.03
0.03
0.025
0.05
0.035
0.07
0.11
0.1
0.05
0.055
0.03
0.015
0.03
0.03
0.01
0.04
0.04
0.03
0.015
0.03
-0.01
-0.03
0.035
0.08
0.105
0.085
0.055
0.06
0.02
0.045
0.06
0.04
0.075
0.07
0.025
0.02
0.035
0.01
0.025
0.03
0.06
0.05
0.01
0.06
0.035
0.0
0.0
-0.015
0.03
0.02
0.0
0.04
0.09
0.07
0.035
0.025
0.04
0.025
0.025
0.02
0.02
0.02
0.04
0.015
0.005
0.005
0.015
0.01
0.03
0.045
0.025
0.065
0.105
0.02
0.01
0.045
0.05
0.015
-0.005
0.015
0.02
0.035
0.06
0.05
0.06
0.04
0.01
-0.005
0.025
0.05
0.06
0.04
0.06
0.02
0.045
0.045
0.02
0.0
0.04
0.03
0.0
-0.035
0.045
0.08
0.015
0.045
0.065
0.02
0.03
0.04
0.035
0.03
0.04
0.035
0.03
0.04
0.04
0.025
0.005
0.015
0.04
0.06
0.045
0.04
0.04
0.05
0.035
0.065
0.055
-0.005
0.0
0.045
0.07
0.015
0.01
0.045
0.01
-0.01
0.025
0.02
0.02
-0.005
0.065
0.06
0.075
0.065
0.075
0.045
0.06
0.05
-0.005
0.0
0.02
0.055
0.065
0.03
0.045
0.005
-0.005
0.03
0.025
0.05
0.05
0.04
0.07
0.055
0.035
0.02
0.05
0.065
0.025
0.065
0.045
0.025
0.04
0.03
0.05
0.01
0.02
0.035
0.04
0.07
0.075
0.06
0.055
0.035
0.04
0.09
0.05
0.02
0.015
0.08
0.115
0.085
0.08
0.065
0.07
0.06
0.05
0.06
0.09
0.09
0.125
0.095
0.105
0.14
0.125
0.055
0.09
0.075
0.085
0.12
0.135
0.135
0.08
0.06
0.035
0.035
0.04
0.08
0.03
0.025
0.055
0.075
0.04
0.045
0.02
0.035
0.04
0.01
0.02
0.075
0.025
0.025
0.025
0.07
0.02
0.0
0.04
0.045
0.03
0.07
0.045
0.045
0.05
0.035
0.0
-0.01
-0.005
0.0
0.01
0.025
0.07
0.08
0.1
0.115
0.06
0.005
0.0
0.055
0.06
0.04
0.05
0.12
0.11
0.12
0.095
0.16
0.22
0.26
0.32
0.365
0.375
0.35
0.37
0.375
0.295
0.34
0.29
0.13
-0.03
-0.155
-0.225
-0.315
-0.37
-0.39
-0.395
-0.33
-0.25
-0.215
-0.14
-0.1
-0.05
-0.02
-0.035
0.01
-0.005
-0.02
-0.02
-0.01
0.07
0.12
0.055
0.045
0.01
0.025
0.04
0.045
0.02
0.015
0.045
0.065
0.095
0.07
0.07
0.075
0.05
0.05
0.03
0.065
0.07
0.1
0.1
0.11
0.105
0.085
0.105
0.035
0.045
0.04
0.075
0.115
0.07
0.045
0.06
0.08
0.09
0.085
0.05
0.055
0.09
0.105
0.07
0.055
0.1
0.09
0.09
0.1
0.08
0.085
0.115
0.1
0.105
0.08
0.075
0.09
0.095
0.07
0.115
0.11
0.15
0.175
0.11
0.13
0.13
0.08
0.15
0.18
0.155
0.125
0.165
0.16
0.135
0.12
0.165
0.185
0.185
0.19
0.21
0.23
0.22
0.23
0.185
0.19
0.215
0.195
0.2
0.265
0.23
0.25
0.295
0.33
0.3
0.305
0.305
0.265
0.265
0.29
0.28
0.29
0.33
0.325
0.34
0.355
0.315
0.32
0.33
0.345
0.35
0.365
0.365
0.325
0.335
0.315
0.285
0.305
0.24
0.2
0.215
0.255
0.26
0.21
0.185
0.235
0.19
0.135
0.14
0.12
0.085
0.085
0.1
0.135
0.11
0.095
0.065
0.055
0.07
0.015
0.01
0.02
0.045
0.005
-0.005
-0.005
-0.005
-0.025
-0.03
-0.045
0.015
0.025
-0.005
-0.03
-0.005
-0.01
-0.015
-0.005
-0.04
-0.01
-0.055
0.01
-0.01
-0.02
-0.025
0.025
0.02
-0.03
-0.035
-0.03
-0.015
-0.005
0.0
0.005
-0.045
-0.04
-0.035
-0.025
-0.055
-0.045
-0.05
0.01
-0.055
-0.045
-0.02
-0.035
-0.065
-0.065
-0.04
-0.01
-0.045
-0.045
0.0
-0.01
0.0
-0.005
-0.015
-0.04
-0.035
-0.045
-0.045
-0.015
-0.04
-0.035
-0.06
-0.02
-0.015
-0.025
0.0
-0.015
-0.065
-0.025
-0.02
-0.015
-0.01
0.0
-0.035
-0.04
0.01
-0.045
-0.075
-0.055
-0.015
0.01
-0.02
-0.005
-0.05
-0.045
-0.055
-0.065
-0.035
-0.005
-0.015
-0.01
-0.025
-0.01
-0.03
-0.02
-0.02
-0.035
-0.05
-0.02
0.03
-0.015
-0.02
-0.02
-0.015
-0.03
-0.05
-0.03
-0.025
-0.01
-0.01
-0.015
-0.005
-0.02
-0.035
-0.045
-0.015
-0.03
-0.015
-0.005
-0.02
-0.015
-0.045
-0.045
-0.025
-0.03
-0.055
-0.06
-0.04
-0.005
0.01
0.01
-0.015
-0.05
-0.055
-0.01
-0.025
-0.045
-0.04
-0.055
-0.02
-0.005
-0.015
-0.025
-0.025
0.005
0.015
-0.025
-0.035
-0.025
-0.035
-0.06
-0.04
-0.03
-0.065
-0.04
-0.045
-0.04
-0.005
-0.01
-0.035
-0.015
-0.02
-0.05
-0.065
-0.02
-0.03
-0.03
-0.015
0.005
-0.03
-0.025
-0.04
-0.075
-0.055
-0.045
-0.065
-0.08
-0.015
0.01
0.01
0.005
-0.035
-0.04
-0.01
-0.04
-0.035
-0.05
-0.005
-0.025
-0.035
-0.045
-0.05
-0.075
-0.06
-0.045
-0.035
-0.035
-0.02
-0.01
-0.04
-0.03
-0.01
-0.03
-0.03
-0.05
-0.05
-0.045
-0.015
-0.03
-0.02
-0.045
-0.015
-0.025
-0.03
-0.03
-0.05
-0.07
-0.025
-0.03
-0.01
-0.04
-0.02
-0.05
-0.04
-0.035
-0.01
-0.03
-0.015
-0.005
-0.035
-0.015
-0.045
-0.03
-0.015
-0.005
-0.07
-0.08
-0.015
0.01
0.0
-0.045
-0.04
-0.03
-0.035
-0.015
-0.035
-0.05
-0.02
-0.02
-0.035
-0.005
-0.02
-0.035
-0.01
-0.035
-0.05
-0.03
-0.025
-0.045
-0.075
-0.06
-0.02
-0.025
-0.07
-0.055
-0.025
0.02
0.01
-0.025
-0.02
-0.025
-0.03
-0.08
-0.02
-0.02
-0.045
-0.035
-0.005
-0.07
-0.025
-0.02
-0.035
-0.005
-0.05
-0.07
-0.04
-0.035
-0.02
-0.035
-0.02
-0.01
-0.01
-0.005
-0.03
-0.03
-0.02
-0.02
0.01
0.025
0.0
-0.015
0.0
0.02
0.055
0.055
-0.015
-0.02
0.01
0.01
0.065
0.045
0.01
0.025
0.025
0.03
0.055
0.025
0.0
-0.005
0.01
0.075
0.06
0.025
0.01
0.02
0.035
0.025
-0.025
-0.02
-0.025
-0.005
-0.025
-0.07
-0.03
-0.02
-0.03
0.005
0.01
-0.02
-0.03
0.005
-0.03
-0.035
-0.075
-0.055
-0.05
0.025
-0.005
-0.045
-0.07
-0.055
-0.04
0.005
-0.015
-0.015
-0.02
-0.02
-0.05
-0.035
-0.02
-0.025
-0.035
-0.03
-0.03
-0.055
-0.01
0.005
-0.025
-0.04
-0.025
-0.03
-0.005
0.015
0.02
0.02
0.035
0.09
0.13
0.165
0.205
0.275
0.24
0.27
0.32
0.325
0.285
0.275
0.24
0.245
0.095
-0.01
-0.17
-0.295
-0.33
-0.405
-0.45
-0.4
-0.395
-0.34
-0.275
-0.23
-0.21
-0.18
-0.125
-0.11
-0.075
-0.025
-0.05
-0.08
-0.035
0.015
-0.025
-0.04
-0.025
-0.015
0.0
0.015
0.045
-0.01
0.005
0.035
0.01
0.03
0.01
-0.005
0.005
0.035
0.03
-0.005
-0.005
0.02
0.025
0.035
-0.005
-0.005
0.005
-0.005
0.005
0.05
0.09
0.04
0.01
0.01
0.03
0.04
0.045
0.055
0.04
0.045
0.04
0.045
0.055
0.055
0.055
0.03
0.04
0.105
0.105
0.085
0.06
0.05
0.065
0.105
0.07
0.02
0.065
0.075
0.07
0.075
0.115
0.08
0.045
0.08
0.08
0.14
0.15
0.1
0.13
0.115
0.11
0.115
0.135
0.095
0.13
0.125
0.13
0.155
0.18
0.21
0.195
0.185
0.18
0.16
0.2
0.195
0.25
0.28
0.215
0.26
0.285
0.29
0.285
0.255
0.27
0.285
0.285
0.31
0.34
0.355
0.35
0.265
0.305
0.335
0.33
0.305
0.365
0.35
0.32
0.34
0.365
0.33
0.37
0.34
0.32
0.305
0.325
0.295
0.305
0.285
0.235
0.215
0.215
0.22
0.195
0.2
0.215
0.2
0.155
0.15
0.12
0.125
0.125
0.125
0.105
0.12
0.13
0.12
0.07
0.03
0.045
0.015
0.05
0.065
0.04
0.06
0.09
0.035
0.005
-0.005
-0.01
0.035
0.055
0.04
-0.015
0.01
0.04
0.01
0.02
0.01
0.03
0.015
0.02
0.02
0.025
0.02
0.015
0.025
0.08
0.06
0.015
0.015
0.0
-0.01
-0.03
0.04
0.045
0.065
0.05
0.015
0.04
0.04
0.04
0.05
-0.005
0.04
0.04
0.04
0.055
0.01
-0.005
0.005
-0.005
0.0
0.03
0.075
0.03
0.02
-0.01
0.02
0.045
0.035
0.05
0.04
0.035
0.07
0.055
0.01
0.045
0.085
0.015
0.01
0.09
0.055
0.04
0.065
0.085
0.02
0.025
0.015
0.06
0.09
0.075
0.08
0.09
0.1
0.075
0.055
0.05
0.075
0.06
0.05
0.07
0.04
0.055
0.065
0.045
0.085
0.055
0.045
0.06
0.06
0.065
0.065
0.095
0.125
0.115
0.09
0.055
0.005
0.04
0.075
0.09
0.075
0.085
0.1
0.095
0.095
0.095
0.075
0.06
0.035
0.1
0.07
0.085
0.14
0.09
0.135
0.095
0.065
0.04
0.085
0.075
0.11
0.1
0.095
0.05
0.07
0.125
0.055
0.07
0.095
0.08
0.09
0.105
0.11
0.09
0.085
0.09
0.085
0.08
0.095
0.085
0.085
0.075
0.08
0.075
0.06
0.075
0.065
0.055
0.07
0.14
0.09
0.1
0.095
0.11
0.07
0.09
0.085
0.05
0.105
0.13
0.105
0.075
0.125
0.115
0.06
0.05
0.05
0.06
0.09
0.1
0.06
0.07
0.06
0.105
0.115
0.11
0.115
0.09
0.075
0.095
0.09
0.115
0.105
0.135
0.17
0.105
0.065
0.115
0.105
0.085
0.095
0.095
0.06
0.08
0.08
0.12
0.075
0.06
0.07
0.08
0.115
0.105
0.11
0.1
0.095
0.095
0.035
0.095
0.12
0.14
0.12
0.125
0.115
0.11
0.085
0.105
0.055
0.075
0.08
0.05
0.09
0.195
0.155
0.145
0.1
0.125
0.11
0.11
0.12
0.1
0.09
0.105
0.13
0.08
0.075
0.09
0.065
0.07
0.09
0.105
0.125
0.15
0.17
0.095
0.12
0.105
0.085
0.14
0.09
0.095
0.115
0.125
0.145
0.085
0.09
0.055
0.11
0.13
0.1
0.09
0.12
0.095
0.115
0.1
0.065
0.03
0.125
0.165
0.165
0.1
0.11
0.14
0.135
0.095
0.115
0.085
0.065
0.1
0.095
0.08
0.11
0.17
0.15
0.135
0.125
0.07
0.09
0.12
0.12
0.14
0.135
0.145
0.145
0.145
0.16
0.13
0.145
0.14
0.125
0.11
0.16
0.175
0.18
0.19
0.215
0.2
0.19
0.18
0.16
0.14
0.175
0.16
0.17
0.19
0.21
0.18
0.165
0.17
0.125
0.145
0.21
0.23
0.26
0.195
0.155
0.16
0.115
0.12
0.135
0.09
0.11
0.15
0.145
0.115
0.09
0.075
0.115
0.11
0.115
0.125
0.15
0.165
0.14
0.095
0.12
0.1
0.115
0.11
0.095
0.095
0.12
0.115
0.115
0.085
0.115
0.1
0.08
0.11
0.12
0.09
0.13
0.16
0.155
0.135
0.15
0.095
0.14
0.15
0.155
0.165
0.195
0.175
0.205
0.17
0.245
0.285
0.325
0.395
0.445
0.49
0.515
0.505
0.47
0.485
0.45
0.415
0.29
0.13
-0.085
-0.195
-0.195
-0.275
-0.37
-0.36
-0.31
-0.29
-0.195
-0.09
-0.065
-0.075
0.01
0.035
0.045
0.025
0.105
0.065
0.085
0.145
0.11
0.16
0.165
0.155
0.145
0.17
0.165
0.12
0.135
0.16
0.175
0.155
0.19
0.165
0.17
0.2
0.17
0.175
0.19
0.2
0.18
0.175
0.215
0.22
0.245
0.22
0.215
0.17
0.205
0.21
0.18
0.18
0.215
0.245
0.21
0.235
0.24
0.21
0.21
0.24
0.23
0.245
0.25
0.275
0.29
0.27
0.22
0.24
0.26
0.255
0.23
0.275
0.33
0.275
0.25
0.32
0.29
0.265
0.265
0.265
0.255
0.3
0.35
0.33
0.305
0.33
0.305
0.35
0.305
0.3
0.305
0.36
0.385
0.365
0.375
0.4
0.35
0.385
0.4
0.35
0.295
0.36
0.435
0.505
0.465
0.455
0.47
0.47
0.475
0.52
0.525
0.515
0.5
0.51
0.53
0.53
0.485
0.5
0.55
0.57
0.575
0.555
0.525
0.54
0.56
0.54
0.545
0.6
0.615
0.605
0.55
0.53
0.525
0.52
0.47
0.485
0.495
0.51
0.48
0.46
0.45
0.47
0.435
0.36
0.34
0.335
0.3
0.345
0.31
0.31
0.295
0.27
0.245
0.26
0.24
0.245
0.245
0.24
0.22
0.18
0.19
0.215
0.18
0.125
0.16
0.155
0.095
0.16
0.18
0.11
0.145
0.205
0.17
0.155
0.165
0.16
0.15
0.14
0.135
0.13
0.155
0.17
0.23
0.17
0.135
0.1
0.09
0.095
0.105
0.135
0.145
0.145
0.14
0.14
0.16
0.14
0.065
0.145
0.125
0.14
0.135
0.15
0.09
0.075
0.12
0.145
0.13
0.135
0.125
0.095
0.14
0.16
0.135
0.155
0.15
0.115
0.125
0.125
0.125
0.115
0.165
0.135
0.135
0.165
0.15
0.145
0.13
0.125
0.13
0.095
0.14
0.145
0.13
0.16
0.15
0.14
0.145
0.125
0.13
0.14
0.14
0.16
0.165
0.155
0.13
0.07
0.145
0.18
0.135
0.13
0.175
0.165
0.145
0.11
0.125
0.095
0.14
0.15
0.095
0.17
0.18
0.18
0.145
0.125
0.14
0.14
0.16
0.145
0.13
0.125
0.155
0.155
0.13
0.175
0.165
0.15
0.145
0.13
0.135
0.12
0.135
0.165
0.14
0.155
0.16
0.125
0.14
0.155
0.175
0.155
0.15
0.16
0.145
0.16
0.135
0.12
0.155
0.125
0.125
0.11
0.155
0.165
0.13
0.105
0.13
0.135
0.14
0.145
0.155
0.145
0.155
0.16
0.145
0.125
0.115
0.135
0.175
0.18
0.17
0.13
0.105
0.115
0.16
0.135
0.145
0.13
0.18
0.16
0.115
0.12
0.165
0.175
0.16
0.135
0.16
0.12
0.115
0.11
0.12
0.135
0.125
0.12
0.18
0.17
0.105
0.1
0.125
0.125
0.125
0.15
0.155
0.16
0.14
0.12
0.115
0.13
0.18
0.115
0.1
0.145
0.185
0.14
0.115
0.16
0.12
0.135
0.145
0.125
0.13
0.15
0.15
0.16
0.13
0.15
0.155
0.16
0.16
0.165
0.13
0.165
0.175
0.195
0.155
0.125
0.14
0.175
0.19
0.22
0.205
0.215
0.2
0.21
0.19
0.2
0.2
0.23
0.215
0.165
0.21
0.265
0.255
0.245
0.24
0.2
0.225
0.21
0.185
0.215
0.215
0.245
0.19
0.16
0.16
0.105
0.08
0.13
0.115
0.16
0.125
0.155
0.165
0.115
0.105
0.16
0.13
0.125
0.115
0.135
0.145
0.13
0.105
0.095
0.155
0.11
0.08
0.115
0.135
0.145
0.12
0.145
0.15
0.16
0.145
0.12
0.115
0.16
0.145
0.145
0.12
0.135
0.12
0.135
0.13
0.175
0.195
0.175
0.165
0.215
0.295
0.385
0.38
0.435
0.455
0.515
0.51
0.54
0.505
0.455
0.44
0.47
0.29
0.115
-0.035
-0.225
-0.27
-0.325
-0.415
-0.385
-0.385
-0.3
-0.205
-0.16
-0.085
-0.05
-0.03
-0.025
0.0
0.045
0.13
0.13
0.115
0.11
0.1
0.11
0.13
0.115
0.105
0.12
0.14
0.12
0.155
0.165
0.105
0.13
0.15
0.145
0.145
0.165
0.215
0.215
0.195
0.15
0.165
0.115
0.165
0.18
0.175
0.115
0.15
0.155
0.16
0.155
0.18
0.145
0.205
0.19
0.21
0.205
0.205
0.185
0.195
0.185
0.2
0.2
0.195
0.215
0.215
0.19
0.2
0.215
0.215
0.21
0.2
0.205
0.235
0.245
0.215
0.235
0.235
0.215
0.26
0.285
0.255
0.235
0.25
0.26
0.255
0.295
0.29
0.26
0.3
0.295
0.235
0.26
0.32
0.345
0.335
0.34
0.33
0.32
0.36
0.36
0.365
0.345
0.355
0.375
0.385
0.42
0.495
0.425
0.41
0.45
0.505
0.445
0.46
0.5
0.49
0.525
0.57
0.535
0.53
0.505
0.54
0.545
0.535
0.51
0.535
0.555
0.57
0.56
0.55
0.525
0.52
0.5
0.515
0.525
0.485
0.465
0.46
0.425
0.455
0.445
0.42
0.395
0.4
0.365
0.31
0.295
0.315
0.29
0.26
0.25
0.195
0.18
0.195
0.18
0.19
0.195
0.185
0.145
0.15
0.175
0.1
0.11
0.14
0.135
0.125
0.12
0.14
0.13
0.125
0.095
0.07
0.06
0.09
0.07
0.06
0.1
0.11
0.135
0.095
0.115
0.085
0.06
0.05
0.065
0.065
0.065
0.105
0.07
0.04
0.08
0.04
0.07
0.035
0.06
0.035
0.03
0.08
0.09
0.095
0.08
0.05
0.025
0.045
0.1
0.085
0.08
0.08
0.1
0.095
0.04
0.02
0.055
0.09
0.055
0.065
0.105
0.095
0.11
0.085
0.075
0.03
0.07
0.07
0.01
0.115
0.075
0.11
0.09
0.075
0.045
0.005
0.03
0.05
0.03
0.065
0.135
0.075
0.045
0.06
0.06
0.085
0.095
0.025
0.05
0.125
0.14
0.05
0.095
0.04
0.015
0.03
0.035
0.06
0.06
0.085
0.115
0.135
0.095
0.08
0.08
0.03
0.095
0.11
0.06
0.07
0.095
0.06
0.08
0.075
0.095
0.03
0.055
0.105
0.08
0.085
0.1
0.075
0.085
0.105
0.06
0.04
0.08
0.09
0.08
0.09
0.13
0.095
0.095
0.115
0.1
0.085
0.11
0.08
0.065
0.095
0.12
0.11
0.1
0.045
0.085
0.125
0.125
0.105
0.07
0.105
0.105
0.075
0.08
0.065
0.095
0.07
0.105
0.13
0.105
0.09
0.08
0.085
0.1
0.15
0.145
0.105
0.095
0.095
0.11
0.115
0.12
0.115
0.11
0.13
0.105
0.11
0.08
0.125
0.105
0.145
0.125
0.12
0.12
0.09
0.09
0.165
0.15
0.125
0.14
0.105
0.125
0.17
0.215
0.185
0.155
0.15
0.18
0.165
0.155
0.145
0.175
0.195
0.185
0.135
0.15
0.155
0.21
0.2
0.17
0.2
0.215
0.21
0.23
0.195
0.18
0.23
0.26
0.225
0.2
0.25
0.235
0.19
0.21
0.195
0.165
0.18
0.175
0.155
0.145
0.16
0.145
0.15
0.165
0.145
0.09
0.11
0.13
0.115
0.155
0.15
0.155
0.165
0.2
0.16
0.145
0.18
0.175
0.15
0.165
0.145
0.14
0.12
0.135
0.13
0.15
0.225
0.195
0.205
0.22
0.205
0.18
0.21
0.215
0.195
0.205
0.2
0.23
0.245
0.25
0.23
0.24
0.245
0.315
0.385
0.46
0.5
0.57
0.6
0.625
0.66
0.665
0.635
0.575
0.57
0.435
0.29
0.095
-0.065
-0.065
-0.17
-0.215
-0.23
-0.16
-0.15
-0.135
-0.04
0.065
0.14
0.2
0.21
0.23
0.235
0.27
0.25
0.255
0.275
0.285
0.325
0.365
0.335
0.375
0.355
0.38
0.355
0.365
0.38
0.365
0.39
0.44
0.395
0.345
0.385
0.435
0.445
0.465
0.48
0.465
0.45
0.45
0.435
0.44
0.445
0.465
0.48
0.505
0.505
0.5
0.5
0.52
0.525
0.51
0.515
0.51
0.455
0.5
0.49
0.5
0.505
0.53
0.565
0.56
0.575
0.565
0.58
0.58
0.57
0.555
0.555
0.59
0.56
0.59
0.625
0.64
0.585
0.65
0.65
0.62
0.625
0.645
0.64
0.665
0.675
0.67
0.7
0.725
0.73
0.74
0.77
0.81
0.795
0.74
0.76
0.76
0.72
0.745
0.75
0.79
0.81
0.83
0.81
0.855
0.925
0.875
0.835
0.845
0.83
0.875
0.9
0.87
0.895
0.925
0.935
0.905
0.895
0.905
0.895
0.915
0.95
0.995
1.025
1.025
0.965
0.93
0.925
0.945
0.89
0.835
0.9
0.975
0.985
0.945
0.785
0.715
0.755
0.81
0.785
0.715
0.735
0.74
0.67
0.67
0.685
0.635
0.595
0.64
0.615
0.54
0.61
0.61
0.565
0.55
0.51
0.435
0.465
0.495
0.46
0.41
0.465
0.47
0.475
0.45
0.41
0.4
0.395
0.38
0.38
0.345
0.38
0.41
0.395
0.415
0.415
0.395
0.405
0.42
0.355
0.365
0.4
0.43
0.405
0.355
0.38
0.395
0.4
0.355
0.36
0.36
0.395
0.355
0.355
0.365
0.385
0.35
0.365
0.38
0.365
0.345
0.385
0.365
0.315
0.33
0.385
0.33
0.305
0.235
0.235
0.33
0.485
0.365
0.395
0.375
0.335
0.305
0.36
0.36
0.34
0.365
0.39
0.37
0.33
0.365
0.385
0.36
0.35
0.35
0.35
0.39
0.35
0.38
0.335
0.34
0.355
0.33
0.34
0.35
0.335
0.335
0.39
0.375
0.36
0.35
0.31
0.295
0.315
0.355
0.36
0.355
0.365
0.36
0.335
0.34
0.335
0.34
0.335
0.375
0.345
0.305
0.325
0.345
0.345
0.32
0.315
0.305
0.33
0.35
0.34
0.32
0.3
0.325
0.375
0.35
0.365
0.32
0.305
0.285
0.305
0.34
0.365
0.36
0.36
0.33
0.315
0.315
0.34
0.325
0.295
0.335
0.34
0.28
0.3
0.345
0.295
0.31
0.31
0.305
0.35
0.35
0.345
0.325
0.34
0.365
0.37
0.355
0.275
0.26
0.245
0.305
0.355
0.335
0.35
0.34
0.33
0.3
0.345
0.32
0.295
0.3
0.29
0.295
0.33
0.33
0.295
0.29
0.315
0.295
0.325
0.335
0.335
0.32
0.355
0.31
0.285
0.31
0.32
0.335
0.315
0.365
0.33
0.335
0.31
0.36
0.335
0.33
0.355
0.35
0.365
0.41
0.345
0.32
0.31
0.295
0.305
0.34
0.35
0.35
0.36
0.33
0.32
0.35
0.34
0.33
0.35
0.365
0.35
0.365
0.335
0.315
0.305
0.27
0.275
0.27
0.26
0.275
0.285
0.305
0.325
0.275
0.255
0.245
0.245
0.26
0.275
0.305
0.3
0.305
0.295
0.28
0.3
0.285
0.315
0.27
0.24
0.27
0.275
0.24
0.265
0.31
0.275
0.31
0.275
0.25
0.255
0.285
0.27
0.25
0.305
0.325
0.35
0.34
0.34
0.34
0.42
0.34
0.43
0.45
0.515
0.555
0.53
0.56
0.535
0.535
0.51
0.525
0.515
0.475
0.305
0.2
0.07
-0.01
-0.03
-0.075
-0.11
-0.115
-0.09
-0.035
0.08
0.115
0.15
0.15
0.165
0.115
0.165
0.225
0.215
0.22
0.24
0.22
0.205
0.25
0.245
0.24
0.23
0.265
0.235
0.215
0.265
0.25
0.245
0.255
0.275
0.225
0.245
0.225
0.21
0.22
0.255
0.24
0.23
0.26
0.305
0.24
0.255
0.215
0.21
0.195
0.255
0.24
0.225
0.25
0.25
0.2
0.235
0.265
0.255
0.205
0.255
0.25
0.27
0.215
0.225
0.245
0.235
0.205
0.18
0.205
0.24
0.24
0.215
0.27
0.225
0.175
0.235
0.245
0.225
0.275
0.28
0.245
0.215
0.22
0.24
0.205
0.265
0.3
0.235
0.255
0.275
0.26
0.25
0.31
0.305
0.26
0.25
0.245
0.26
0.305
0.335
0.34
0.32
0.345
0.335
0.325
0.305
0.335
0.34
0.355
0.42
0.345
0.345
0.36
0.38
0.345
0.395
0.39
0.375
0.41
0.38
0.39
0.41
0.39
0.38
0.37
0.37
0.395
0.42
0.425
0.42
0.38
0.41
0.365
0.34
0.325
0.305
0.325
0.325
0.33
0.315
0.25
0.24
0.245
0.22
0.205
0.215
0.2
0.17
0.195
0.17
0.16
0.17
0.14
0.105
0.115
0.14
0.08
0.105
0.145
0.11
0.08
0.1
0.09
0.09
0.07
0.055
0.07
0.07
0.075
0.08
0.085
0.08
0.1
0.085
0.095
0.065
0.03
0.04
0.095
0.035
0.045
0.085
0.08
0.085
0.065
0.085
0.06
0.06
0.08
0.06
0.065
0.085
0.11
0.07
0.06
0.03
0.055
0.035
0.1
0.08
0.04
0.065
0.07
0.07
0.06
0.06
0.075
0.055
0.07
0.065
0.055
0.09
0.08
0.07
0.105
0.12
0.1
0.125
0.085
0.1
0.08
0.085
0.125
0.125
0.1
0.145
0.1
0.105
0.135
0.125
0.135
0.145
0.165
0.145
0.17
0.135
0.155
0.175
0.165
0.145
0.185
0.175
0.135
0.15
0.115
0.12
0.125
0.19
0.205
0.205
0.21
0.165
0.175
0.125
0.175
0.18
0.175
0.175
0.215
0.16
0.17
0.185
0.195
0.13
0.15
0.17
0.195
0.21
0.22
0.19
0.175
0.2
0.215
0.155
0.145
0.145
0.14
0.19
0.195
0.19
0.2
0.22
0.175
0.185
0.19
0.175
0.17
0.175
0.18
0.195
0.175
0.205
0.195
0.225
0.17
0.12
0.18
0.23
0.25
0.175
0.19
0.2
0.205
0.155
0.23
0.235
0.17
0.19
0.23
0.22
0.18
0.2
0.185
0.22
0.24
0.205
0.215
0.26
0.25
0.255
0.23
0.215
0.215
0.23
0.295
0.26
0.22
0.22
0.23
0.285
0.275
0.225
0.19
0.17
0.18
0.19
0.18
0.17
0.215
0.22
0.175
0.19
0.14
0.205
0.155
0.195
0.205
0.19
0.255
0.195
0.19
0.19
0.13
0.145
0.155
0.165
0.175
0.17
0.18
0.175
0.165
0.14
0.14
0.19
0.205
0.19
0.175
0.18
0.185
0.19
0.2
0.145
0.165
0.195
0.16
0.145
0.13
0.195
0.225
0.195
0.185
0.165
0.185
0.21
0.21
0.25
0.36
0.42
0.39
0.365
0.385
0.365
0.355
0.395
0.355
0.29
0.28
0.17
0.06
-0.035
-0.055
-0.15
-0.22
-0.205
-0.195
-0.125
-0.075
-0.005
0.005
0.025
0.075
0.065
0.07
0.095
0.085
0.115
0.15
0.165
0.135
0.08
0.13
0.17
0.16
0.15
0.17
0.185
0.2
0.185
0.18
0.16
0.145
0.155
0.17
0.24
0.22
0.145
0.135
0.18
0.17
0.15
0.165
0.145
0.17
0.205
0.165
0.155
0.175
0.18
0.195
0.155
0.185
0.17
0.19
0.19
0.175
0.155
0.2
0.19
0.17
0.195
0.19
0.185
0.19
0.16
0.17
0.19
0.23
0.2
0.2
0.195
0.17
0.175
0.19
0.175
0.16
0.24
0.24
0.235
0.22
0.18
0.19
0.195
0.22
0.21
0.225
0.25
0.23
0.23
0.24
0.25
0.25
0.26
0.265
0.235
0.235
0.245
0.265
0.26
0.31
0.29
0.285
0.295
0.32
0.325
0.325
0.315
0.36
0.355
0.36
0.35
0.365
0.345
0.345
0.42
0.38
0.345
0.385
0.41
0.39
0.39
0.375
0.405
0.41
0.395
0.39
0.4
0.43
0.41
0.365
0.345
0.37
0.315
0.315
0.305
0.29
0.31
0.29
0.26
0.265
0.275
0.225
0.22
0.23
0.195
0.17
0.17
0.17
0.16
0.135
0.14
0.125
0.105
0.11
0.095
0.11
0.125
0.16
0.115
0.105
0.12
0.095
0.07
0.09
0.085
0.06
0.105
0.11
0.07
0.095
0.095
0.06
0.05
0.05
0.09
0.085
0.08
0.08
0.07
0.075
0.075
0.045
0.05
0.08
0.085
0.06
0.105
0.085
0.03
0.05
0.05
0.035
0.035
0.035
0.075
0.065
0.085
0.09
0.06
0.035
0.045
0.045
0.035
0.025
0.02
0.03
0.08
0.065
0.075
0.07
0.045
0.065
0.045
0.04
0.035
0.01
0.065
0.1
0.07
0.075
0.075
0.04
0.04
0.005
0.02
0.02
0.07
0.105
0.095
0.11
0.115
0.045
0.015
0.05
0.025
0.04
0.08
0.055
0.07
0.065
0.065
0.055
0.035
0.015
0.065
0.08
0.1
0.055
0.04
0.03
0.045
0.02
0.05
0.055
0.045
0.055
0.06
0.055
0.07
0.095
0.075
0.055
0.07
0.07
0.05
0.035
0.075
0.05
0.03
0.05
0.055
0.035
0.055
0.035
0.035
0.06
0.09
0.08
0.055
0.035
0.025
0.055
0.1
0.035
0.035
0.065
0.06
0.04
0.075
0.08
0.055
0.015
0.03
0.025
0.05
0.1
0.095
0.085
0.065
0.05
0.05
0.035
0.055
0.08
0.08
0.09
0.065
0.05
0.04
0.055
0.045
0.085
0.1
0.05
0.055
0.1
0.11
0.09
0.105
0.08
0.06
0.085
0.09
0.065
0.075
0.105
0.14
0.115
0.125
0.145
0.115
0.095
0.09
0.04
0.075
0.095
0.095
0.065
0.07
0.05
0.02
0.045
0.06
0.04
0.07
0.095
0.07
0.065
0.055
0.06
0.06
0.045
0.025
0.055
0.025
0.03
0.085
0.065
0.03
0.04
0.03
0.035
0.045
0.05
0.075
0.08
0.04
0.075
0.055
0.06
0.035
0.04
0.04
0.07
0.08
0.095
0.095
0.055
0.05
0.085
0.045
0.095
0.15
0.125
0.115
0.115
0.14
0.18
0.22
0.275
0.31
0.34
0.325
0.33
0.355
0.385
0.345
0.31
0.345
0.3
0.15
0.03
-0.12
-0.225
-0.265
-0.27
-0.345
-0.33
-0.195
-0.14
-0.13
-0.05
-0.035
-0.04
-0.005
0.035
0.04
0.01
-0.015
0.015
0.035
0.075
0.07
0.075
0.1
0.13
0.11
0.06
0.05
0.055
0.095
0.115
0.12
0.07
0.045
0.075
0.085
0.09
0.115
0.07
0.07
0.12
0.095
0.1
0.14
0.125
0.11
0.115
0.105
0.075
0.105
0.105
0.09
0.095
0.145
0.13
0.13
0.095
0.135
0.125
0.11
0.095
0.135
0.115
0.125
0.12
0.12
0.095
0.115
0.125
0.17
0.14
0.11
0.13
0.14
0.115
0.11
0.14
0.165
0.145
0.145
0.145
0.17
0.165
0.17
0.175
0.165
0.18
0.185
0.13
0.165
0.175
0.16
0.185
0.205
0.195
0.205
0.24
0.225
0.225
0.23
0.205
0.205
0.24
0.265
0.285
0.27
0.27
0.275
0.255
0.27
0.28
0.315
0.325
0.33
0.305
0.31
0.345
0.34
0.315
0.33
0.34
0.35
0.345
0.375
0.395
0.37
0.325
0.325
0.31
0.345
0.355
0.275
0.275
0.33
0.31
0.27
0.29
0.225
0.215
0.235
0.21
0.185
0.225
0.24
0.195
0.17
0.17
0.16
0.14
0.1
0.09
0.055
0.09
0.125
0.105
0.095
0.09
0.08
0.08
0.075
0.06
0.06
0.1
0.09
0.07
0.08
0.07
0.04
0.02
0.035
0.06
0.04
0.055
0.075
0.08
0.045
0.055
0.015
0.025
0.055
0.02
0.02
0.07
0.095
0.055
0.025
0.04
0.05
0.055
0.04
0.005
-0.005
0.055
0.06
0.05
0.035
0.06
0.045
0.045
0.055
0.07
0.055
0.055
0.04
0.035
0.065
0.075
0.04
0.02
0.025
0.035
0.015
0.075
0.095
0.05
0.045
0.06
0.03
0.025
0.04
0.015
0.065
0.1
-0.02
0.015
0.055
0.07
0.05
0.07
0.02
0.025
0.025
0.08
0.045
0.005
0.035
0.095
0.05
0.02
0.005
0.03
0.07
0.125
0.09
0.025
0.05
0.07
0.055
0.07
0.055
0.04
0.035
0.06
0.105
0.065
0.06
0.055
0.04
0.045
0.035
0.04
0.035
0.055
0.05
0.07
0.05
0.035
0.055
0.07
0.06
0.035
0.05
0.1
0.085
0.07
0.06
0.045
-0.005
0.03
0.04
0.03
0.07
0.075
0.08
0.1
0.08
0.05
0.06
0.065
0.055
0.025
0.055
0.085
0.07
0.07
0.05
0.05
0.05
0.055
0.045
0.055
0.095
0.095
0.065
0.05
0.05
0.06
0.045
0.04
0.01
0.04
0.06
0.045
0.075
0.085
0.055
0.035
0.055
0.045
0.045
0.06
0.075
0.075
0.075
0.05
0.05
0.06
0.055
0.045
0.045
0.02
0.065
0.075
0.05
0.045
0.045
0.04
0.055
0.085
0.08
0.03
0.04
0.07
0.09
0.065
0.035
0.035
0.04
0.055
0.04
0.055
0.075
0.065
0.07
0.04
0.065
0.055
0.025
0.015
0.025
0.045
0.075
0.045
0.05
0.065
0.07
0.07
0.025
0.025
0.035
0.05
0.085
0.05
0.055
0.055
0.04
0.005
0.065
0.055
0.04
0.05
0.065
0.04
0.035
0.025
0.055
0.05
0.065
0.055
0.055
0.04
0.065
0.045
0.075
0.08
0.07
0.045
0.05
0.025
0.025
0.065
0.08
0.07
0.05
0.06
0.065
0.03
0.06
0.04
0.05
0.04
0.035
0.08
0.07
0.08
0.04
-0.015
-0.005
0.065
0.03
