# TIPE ECG 2021 - ECG-ID Database v1.0.0 par Physionet
# [N° de la personne, N° de l'enregistrement, Période d'échantillonnage, Prénom, Age, Sexe, Date de l'enregistrement]
[2, 16, 0.002, "Emma", 23, "F", "05.04.2005"]
0.215
0.24
0.355
0.415
0.45
0.48
0.445
0.44
0.34
0.33
0.36
0.45
0.45
0.485
0.525
0.5
0.475
0.435
0.34
0.39
0.45
0.42
0.47
0.52
0.525
0.465
0.465
0.465
0.385
0.355
0.39
0.45
0.485
0.53
0.565
0.535
0.54
0.485
0.39
0.41
0.4
0.43
0.505
0.51
0.54
0.5
0.495
0.51
0.37
0.36
0.335
0.465
0.49
0.59
0.585
0.565
0.535
0.53
0.405
0.38
0.395
0.49
0.53
0.61
0.58
0.57
0.5
0.505
0.465
0.51
0.465
0.53
0.51
0.575
0.575
0.6
0.515
0.505
0.455
0.5
0.55
0.565
0.58
0.615
0.655
0.645
0.58
0.55
0.595
0.55
0.535
0.565
0.66
0.69
0.695
0.705
0.64
0.66
0.61
0.62
0.595
0.66
0.7
0.73
0.7
0.69
0.665
0.615
0.585
0.61
0.575
0.685
0.71
0.71
0.68
0.675
0.665
0.5
0.56
0.59
0.555
0.62
0.635
0.65
0.595
0.555
0.515
0.49
0.425
0.425
0.47
0.52
0.555
0.545
0.51
0.505
0.47
0.38
0.375
0.315
0.39
0.48
0.5
0.485
0.485
0.44
0.38
0.415
0.445
0.365
0.365
0.4
0.575
0.49
0.44
0.445
0.41
0.31
0.345
0.4
0.44
0.43
0.5
0.51
0.49
0.46
0.435
0.35
0.355
0.34
0.375
0.375
0.52
0.46
0.475
0.46
0.4
0.355
0.375
0.365
0.39
0.38
0.44
0.435
0.52
0.45
0.42
0.355
0.35
0.375
0.405
0.46
0.49
0.525
0.5
0.455
0.455
0.355
0.37
0.35
0.395
0.4
0.435
0.62
0.51
0.445
0.425
0.31
0.395
0.365
0.38
0.43
0.56
0.545
0.505
0.44
0.4
0.375
0.38
0.39
0.405
0.45
0.53
0.515
0.46
0.46
0.42
0.355
0.405
0.365
0.4
0.44
0.535
0.52
0.485
0.48
0.42
0.32
0.35
0.41
0.44
0.475
0.435
0.515
0.46
0.475
0.36
0.365
0.38
0.39
0.44
0.525
0.485
0.53
0.445
0.43
0.38
0.365
0.41
0.37
0.43
0.455
0.47
0.495
0.495
0.41
0.36
0.395
0.33
0.395
0.425
0.51
0.485
0.5
0.435
0.485
0.385
0.33
0.325
0.315
0.46
0.475
0.505
0.48
0.44
0.44
0.405
0.42
0.365
0.44
0.485
0.47
0.445
0.465
0.405
0.425
0.425
0.375
0.375
0.37
0.415
0.505
0.47
0.46
0.445
0.43
0.39
0.385
0.39
0.42
0.475
0.465
0.515
0.495
0.48
0.425
0.385
0.355
0.385
0.385
0.43
0.53
0.475
0.46
0.455
0.52
0.395
0.365
0.395
0.4
0.445
0.5
0.52
0.495
0.41
0.445
0.345
0.36
0.375
0.45
0.43
0.48
0.465
0.525
0.46
0.435
0.42
0.385
0.42
0.42
0.455
0.465
0.495
0.48
0.47
0.415
0.355
0.375
0.385
0.415
0.465
0.51
0.495
0.53
0.45
0.41
0.37
0.38
0.36
0.4
0.485
0.525
0.495
0.5
0.43
0.45
0.415
0.4
0.415
0.465
0.47
0.495
0.52
0.47
0.425
0.405
0.315
0.365
0.415
0.465
0.52
0.54
0.545
0.485
0.495
0.435
0.375
0.375
0.445
0.455
0.525
0.605
0.525
0.53
0.5
0.395
0.42
0.415
0.44
0.445
0.495
0.545
0.545
0.575
0.525
0.44
0.425
0.42
0.48
0.43
0.485
0.52
0.53
0.465
0.435
0.36
0.35
0.385
0.42
0.435
0.465
0.46
0.465
0.46
0.405
0.41
0.415
0.385
0.415
0.44
0.515
0.495
0.49
0.43
0.47
0.365
0.405
0.375
0.39
0.425
0.455
0.525
0.525
0.435
0.375
0.36
0.365
0.365
0.39
0.36
0.455
0.49
0.48
0.48
0.53
0.515
0.57
0.61
0.755
0.845
1.035
1.025
1.025
0.81
0.71
0.65
0.645
0.57
0.505
0.435
0.295
0.16
0.23
0.23
0.17
0.105
0.165
0.245
0.27
0.305
0.38
0.45
0.415
0.385
0.37
0.365
0.415
0.37
0.455
0.485
0.475
0.525
0.495
0.45
0.48
0.41
0.435
0.46
0.475
0.44
0.48
0.53
0.56
0.41
0.425
0.39
0.455
0.48
0.46
0.49
0.58
0.57
0.5
0.445
0.415
0.415
0.43
0.445
0.44
0.495
0.55
0.565
0.54
0.46
0.47
0.455
0.495
0.495
0.49
0.505
0.555
0.54
0.565
0.545
0.445
0.435
0.46
0.44
0.525
0.54
0.545
0.58
0.53
0.56
0.47
0.445
0.485
0.48
0.495
0.645
0.66
0.585
0.55
0.585
0.505
0.47
0.465
0.535
0.62
0.655
0.67
0.665
0.645
0.625
0.63
0.525
0.535
0.61
0.66
0.705
0.74
0.695
0.7
0.615
0.62
0.64
0.605
0.655
0.665
0.735
0.76
0.765
0.73
0.7
0.625
0.615
0.635
0.675
0.685
0.715
0.7
0.745
0.69
0.685
0.68
0.6
0.53
0.62
0.58
0.645
0.655
0.655
0.575
0.595
0.51
0.4
0.555
0.555
0.515
0.645
0.52
0.475
0.505
0.475
0.41
0.445
0.45
0.415
0.455
0.535
0.56
0.525
0.47
0.445
0.395
0.395
0.435
0.425
0.45
0.515
0.5
0.485
0.46
0.46
0.44
0.42
0.38
0.425
0.435
0.515
0.55
0.5
0.455
0.435
0.325
0.365
0.405
0.435
0.465
0.505
0.48
0.525
0.47
0.43
0.4
0.4
0.4
0.42
0.435
0.5
0.5
0.535
0.495
0.475
0.36
0.385
0.45
0.455
0.5
0.47
0.54
0.58
0.52
0.47
0.38
0.405
0.445
0.49
0.51
0.57
0.525
0.515
0.48
0.445
0.43
0.44
0.405
0.495
0.55
0.54
0.55
0.5
0.51
0.445
0.355
0.33
0.41
0.475
0.49
0.54
0.55
0.545
0.505
0.405
0.42
0.46
0.47
0.49
0.6
0.535
0.52
0.495
0.45
0.375
0.385
0.38
0.46
0.505
0.59
0.525
0.525
0.55
0.51
0.41
0.345
0.395
0.48
0.43
0.5
0.545
0.51
0.51
0.47
0.43
0.405
0.43
0.42
0.52
0.525
0.515
0.55
0.495
0.48
0.435
0.385
0.44
0.415
0.505
0.51
0.52
0.505
0.445
0.425
0.46
0.395
0.415
0.475
0.465
0.555
0.555
0.53
0.525
0.465
0.435
0.41
0.385
0.45
0.505
0.565
0.565
0.505
0.485
0.45
0.465
0.39
0.4
0.48
0.48
0.57
0.535
0.47
0.495
0.505
0.36
0.375
0.45
0.475
0.525
0.57
0.58
0.515
0.49
0.445
0.435
0.42
0.425
0.51
0.515
0.49
0.52
0.565
0.475
0.49
0.435
0.435
0.385
0.425
0.49
0.555
0.62
0.52
0.505
0.495
0.435
0.39
0.43
0.5
0.56
0.535
0.58
0.54
0.505
0.48
0.455
0.365
0.43
0.505
0.505
0.55
0.555
0.5
0.45
0.47
0.455
0.465
0.44
0.49
0.55
0.54
0.545
0.565
0.48
0.435
0.425
0.465
0.475
0.525
0.535
0.55
0.555
0.5
0.495
0.405
0.485
0.505
0.5
0.505
0.53
0.595
0.57
0.57
0.535
0.43
0.465
0.425
0.465
0.505
0.59
0.605
0.57
0.595
0.56
0.485
0.46
0.51
0.545
0.525
0.595
0.585
0.55
0.565
0.535
0.485
0.505
0.45
0.52
0.53
0.6
0.55
0.545
0.535
0.485
0.38
0.435
0.44
0.425
0.495
0.55
0.58
0.59
0.49
0.465
0.47
0.45
0.465
0.41
0.48
0.525
0.57
0.55
0.525
0.485
0.38
0.405
0.44
0.5
0.525
0.525
0.545
0.545
0.465
0.485
0.405
0.445
0.42
0.445
0.495
0.57
0.63
0.705
0.72
0.755
0.815
0.945
0.92
1.025
1.02
1.07
0.9
0.815
0.74
0.635
0.455
0.365
0.19
0.22
0.25
0.3
0.31
0.315
0.355
0.32
0.32
0.315
0.375
0.405
0.495
0.55
0.54
0.535
0.555
0.46
0.395
0.43
0.415
0.57
0.555
0.605
0.56
0.63
0.49
0.475
0.44
0.435
0.445
0.53
0.56
0.575
0.59
0.535
0.56
0.475
0.46
0.53
0.51
0.545
0.61
0.58
0.635
0.615
0.565
0.565
0.525
0.46
0.475
0.51
0.595
0.665
0.635
0.61
0.585
0.495
0.455
0.45
0.47
0.625
0.66
0.695
0.585
0.625
0.595
0.495
0.5
0.535
0.53
0.555
0.675
0.665
0.68
0.66
0.62
0.54
0.505
0.62
0.63
0.595
0.68
0.69
0.685
0.63
0.62
0.58
0.57
0.605
0.64
0.705
0.695
0.735
0.71
0.685
0.68
0.585
0.63
0.645
0.715
0.76
0.81
0.8
0.765
0.755
0.735
0.675
0.69
0.69
0.795
0.825
0.795
0.815
0.83
0.78
0.76
0.71
0.705
0.645
0.71
0.76
0.86
0.81
0.79
0.75
0.665
0.58
0.58
0.65
0.67
0.675
0.69
0.695
0.68
0.635
0.575
0.495
0.5
0.525
0.55
0.58
0.665
0.6
0.58
0.535
0.555
0.535
0.51
0.49
0.535
0.51
0.56
0.595
0.62
0.545
0.495
0.435
0.455
0.475
0.535
0.565
0.57
0.6
0.575
0.54
0.475
0.43
0.495
0.4
0.51
0.58
0.54
0.64
0.56
0.525
0.45
0.45
0.465
0.525
0.495
0.55
0.6
0.6
0.535
0.525
0.47
0.465
0.5
0.52
0.51
0.59
0.59
0.56
0.54
0.515
0.46
0.425
0.445
0.51
0.555
0.645
0.64
0.62
0.525
0.535
0.49
0.5
0.48
0.515
0.57
0.585
0.57
0.6
0.58
0.555
0.475
0.485
0.495
0.53
0.56
0.585
0.66
0.57
0.65
0.565
0.49
0.45
0.44
0.48
0.54
0.61
0.62
0.635
0.57
0.505
0.485
0.44
0.53
0.54
0.59
0.65
0.595
0.64
0.54
0.53
0.415
0.45
0.43
0.505
0.595
0.63
0.605
0.63
0.555
0.525
0.47
0.46
0.54
0.525
0.59
0.605
0.575
0.565
0.525
0.505
0.505
0.44
0.43
0.5
0.545
0.575
0.65
0.625
0.56
0.515
0.47
0.485
0.48
0.53
0.57
0.59
0.565
0.54
0.505
0.57
0.48
0.48
0.47
0.53
0.61
0.585
0.635
0.56
0.55
0.51
0.455
0.465
0.47
0.51
0.565
0.58
0.58
0.605
0.565
0.475
0.495
0.44
0.5
0.6
0.59
0.61
0.575
0.605
0.515
0.485
0.455
0.455
0.49
0.515
0.565
0.63
0.62
0.57
0.585
0.505
0.46
0.44
0.51
0.55
0.555
0.59
0.625
0.55
0.525
0.46
0.485
0.495
0.49
0.585
0.61
0.595
0.615
0.585
0.565
0.445
0.4
0.465
0.525
0.51
0.64
0.67
0.6
0.56
0.525
0.5
0.46
0.455
0.57
0.565
0.605
0.55
0.57
0.53
0.485
0.44
0.455
0.465
0.55
0.525
0.585
0.63
0.585
0.555
0.53
0.595
0.465
0.47
0.515
0.525
0.585
0.635
0.61
0.56
0.52
0.47
0.465
0.56
0.48
0.535
0.61
0.6
0.59
0.55
0.52
0.45
0.435
0.5
0.5
0.585
0.615
0.61
0.615
0.565
0.51
0.52
0.455
0.51
0.585
0.565
0.605
0.59
0.66
0.61
0.58
0.575
0.54
0.53
0.555
0.59
0.64
0.645
0.61
0.58
0.525
0.525
0.525
0.565
0.565
0.605
0.675
0.62
0.62
0.605
0.54
0.455
0.56
0.525
0.56
0.585
0.665
0.65
0.63
0.57
0.505
0.465
0.465
0.505
0.505
0.56
0.6
0.61
0.58
0.525
0.535
0.46
0.45
0.535
0.515
0.56
0.58
0.615
0.565
0.535
0.52
0.49
0.48
0.505
0.545
0.57
0.64
0.61
0.54
0.495
0.44
0.445
0.475
0.47
0.52
0.585
0.675
0.735
0.73
0.72
0.735
0.865
0.955
0.995
1.04
1.14
0.99
0.91
0.83
0.775
0.655
0.575
0.455
0.275
0.265
0.35
0.38
0.4
0.37
0.32
0.29
0.305
0.395
0.405
0.465
0.59
0.52
0.62
0.59
0.51
0.455
0.51
0.475
0.52
0.55
0.655
0.64
0.625
0.58
0.57
0.495
0.47
0.45
0.53
0.53
0.66
0.675
0.645
0.59
0.57
0.48
0.54
0.52
0.54
0.59
0.7
0.68
0.61
0.615
0.53
0.475
0.55
0.525
0.575
0.59
0.695
0.645
0.63
0.625
0.615
0.525
0.535
0.505
0.565
0.57
0.68
0.665
0.63
0.65
0.62
0.54
0.52
0.585
0.63
0.66
0.705
0.705
0.675
0.605
0.605
0.555
0.6
0.555
0.595
0.675
0.72
0.755
0.71
0.665
0.58
0.605
0.62
0.635
0.735
0.775
0.725
0.785
0.745
0.69
0.65
0.65
0.645
0.685
0.755
0.78
0.83
0.875
0.83
0.745
0.695
0.72
0.695
0.765
0.8
0.83
0.895
0.85
0.805
0.78
0.76
0.725
0.705
0.74
0.76
0.83
0.805
0.815
0.77
0.7
0.71
0.705
0.72
0.65
0.695
0.745
0.705
0.675
0.635
0.68
0.59
0.545
0.57
0.565
0.61
0.685
0.66
0.64
0.63
0.545
0.505
0.47
0.475
0.56
0.615
0.715
0.675
0.62
0.565
0.555
0.475
0.465
0.52
0.5
0.54
0.63
0.625
0.595
0.6
0.55
0.48
0.525
0.54
0.48
0.505
0.595
0.595
0.605
0.595
0.57
0.44
0.515
0.49
0.45
0.5
0.575
0.575
0.585
0.535
0.525
0.425
0.475
0.48
0.525
0.52
0.59
0.605
0.59
0.6
0.545
0.48
0.495
0.525
0.555
0.565
0.58
0.63
0.615
0.62
0.55
0.46
0.48
0.47
0.515
0.58
0.635
0.585
0.62
0.58
0.56
0.415
0.515
0.525
0.54
0.58
0.655
0.665
0.635
0.605
0.535
0.525
0.445
0.565
0.565
0.595
0.61
0.61
0.585
0.56
0.515
0.48
0.565
0.475
0.555
0.62
0.63
0.61
0.62
0.575
0.525
0.535
0.47
0.46
0.525
0.61
0.69
0.605
0.605
0.555
0.48
0.51
0.48
0.46
0.55
0.62
0.625
0.625
0.62
0.545
0.525
0.515
0.49
0.525
0.57
0.62
0.59
0.605
0.565
0.54
0.51
0.495
0.47
0.5
0.585
0.6
0.59
0.605
0.58
0.575
0.495
0.48
0.46
0.57
0.64
0.64
0.615
0.595
0.575
0.59
0.475
0.46
0.53
0.555
0.515
0.61
0.615
0.625
0.615
0.53
0.525
0.465
0.46
0.525
0.565
0.65
0.575
0.57
0.59
0.615
0.46
0.485
0.48
0.565
0.57
0.625
0.63
0.595
0.525
0.515
0.51
0.465
0.51
0.51
0.555
0.655
0.65
0.58
0.59
0.545
0.5
0.465
0.535
0.525
0.525
0.615
0.59
0.59
0.61
0.505
0.44
0.465
0.49
0.55
0.57
0.65
0.61
0.6
0.575
0.565
0.505
0.48
0.495
0.565
0.59
0.615
0.685
0.605
0.605
0.555
0.465
0.515
0.565
0.66
0.645
0.63
0.62
0.61
0.625
0.57
0.57
0.51
0.535
0.575
0.6
0.66
0.665
0.635
0.625
0.575
0.49
0.5
0.505
0.625
0.595
0.58
0.62
0.585
0.535
0.54
0.545
0.495
0.505
0.545
0.575
0.635
0.595
0.565
0.525
0.525
0.45
0.46
0.485
0.525
0.64
0.615
0.58
0.52
0.555
0.52
0.465
0.43
0.535
0.535
0.59
0.58
0.67
0.585
0.465
0.5
0.465
0.46
0.485
0.555
0.57
0.595
0.68
0.695
0.735
0.775
0.88
0.9
1.01
1.035
1.12
0.95
0.925
0.81
0.765
0.625
0.565
0.43
0.345
0.235
0.34
0.4
0.36
0.32
0.31
0.265
0.285
0.38
0.39
0.45
0.52
0.57
0.6
0.57
0.545
0.44
0.455
0.47
0.48
0.51
0.585
0.715
0.67
0.565
0.525
0.46
0.51
0.51
0.55
0.57
0.65
0.655
0.61
0.585
0.56
0.59
0.535
0.515
0.585
0.61
0.63
0.615
0.58
0.585
0.58
0.555
0.58
0.54
0.555
0.62
0.685
0.66
0.64
0.555
0.57
0.56
0.53
0.58
0.575
0.615
0.65
0.635
0.7
0.615
0.575
0.56
0.515
0.595
0.62
0.665
0.685
0.68
0.745
0.68
0.595
0.6
0.58
0.58
0.64
0.675
0.74
0.77
0.725
0.655
0.605
0.62
0.625
0.63
0.7
0.775
0.78
0.735
0.75
0.77
0.71
0.69
0.71
0.68
0.775
0.82
0.865
0.83
0.83
0.8
0.755
0.73
0.73
0.8
0.81
0.865
0.87
0.885
0.84
0.81
0.79
0.76
0.785
0.76
0.79
0.905
0.87
0.8
0.785
0.745
0.755
0.69
0.7
0.72
0.715
0.715
0.78
0.725
0.635
0.655
0.595
0.585
0.545
0.55
0.57
0.7
0.72
0.665
0.595
0.565
0.465
0.565
0.54
0.525
0.59
0.66
0.64
0.585
0.615
0.575
0.45
0.5
0.49
0.53
0.605
0.635
0.61
0.615
0.585
0.525
0.46
0.48
0.505
0.515
0.53
0.6
0.62
0.555
0.58
0.62
0.48
0.44
0.48
0.595
0.55
0.595
0.59
0.605
0.58
0.6
0.435
0.48
0.495
0.515
0.57
0.625
0.625
0.625
0.56
0.5
0.46
0.515
0.52
0.545
0.6
0.645
0.655
0.565
0.595
0.54
0.505
0.475
0.56
0.6
0.62
0.68
0.625
0.61
0.575
0.53
0.505
0.52
0.555
0.635
0.58
0.59
0.645
0.61
0.555
0.5
0.52
0.535
0.55
0.53
0.61
0.66
0.69
0.61
0.6
0.5
0.45
0.455
0.53
0.585
0.645
0.645
0.56
0.57
0.6
0.575
0.5
0.485
0.525
0.635
0.64
0.595
0.6
0.57
0.53
0.51
0.535
0.455
0.505
0.6
0.625
0.61
0.57
0.54
0.54
0.475
0.485
0.52
0.555
0.595
0.655
0.605
0.625
0.58
0.55
0.5
0.525
0.5
0.525
0.545
0.635
0.59
0.62
0.61
0.56
0.465
0.46
0.45
0.575
0.53
0.635
0.635
0.595
0.58
0.565
0.43
0.525
0.515
0.535
0.565
0.585
0.6
0.595
0.5
0.52
0.455
0.5
0.54
0.56
0.55
0.635
0.63
0.635
0.58
0.575
0.46
0.42
0.47
0.535
0.575
0.635
0.655
0.59
0.61
0.545
0.485
0.485
0.44
0.465
0.54
0.61
0.62
0.585
0.555
0.545
0.475
0.46
0.52
0.55
0.535
0.63
0.63
0.63
0.605
0.53
0.465
0.505
0.55
0.545
0.535
0.6
0.595
0.705
0.59
0.525
0.51
0.435
0.43
0.52
0.635
0.655
0.68
0.64
0.6
0.575
0.495
0.555
0.585
0.575
0.64
0.68
0.645
0.61
0.59
0.555
0.545
0.52
0.56
0.58
0.63
0.64
0.66
0.595
0.55
0.48
0.475
0.46
0.475
0.57
0.6
0.635
0.645
0.55
0.5
0.465
0.48
0.445
0.475
0.555
0.64
0.58
0.535
0.525
0.48
0.51
0.51
0.455
0.535
0.545
0.605
0.57
0.63
0.58
0.525
0.475
0.475
0.48
0.47
0.535
0.63
0.58
0.49
0.515
0.49
0.46
0.47
0.56
0.65
0.74
0.875
0.935
1.005
1.03
1.105
0.98
0.905
0.815
0.755
0.745
0.75
0.67
0.575
0.31
0.25
0.17
0.225
0.265
0.33
0.35
0.46
0.43
0.44
0.44
0.43
0.425
0.405
0.41
0.47
0.58
0.645
0.59
0.545
0.49
0.515
0.49
0.475
0.455
0.5
0.55
0.64
0.6
0.56
0.515
0.55
0.505
0.525
0.49
0.51
0.585
0.62
0.6
0.65
0.595
0.47
0.485
0.495
0.495
0.595
0.62
0.605
0.615
0.595
0.54
0.49
0.475
0.45
0.485
0.535
0.585
0.615
0.595
0.645
0.54
0.505
0.525
0.51
0.52
0.5
0.57
0.645
0.67
0.575
0.52
0.54
0.575
0.525
0.54
0.55
0.645
0.655
0.645
0.635
0.62
0.545
0.52
0.49
0.545
0.64
0.66
0.655
0.7
0.66
0.615
0.545
0.545
0.555
0.62
0.705
0.735
0.725
0.745
0.665
0.645
0.65
0.65
0.635
0.67
0.665
0.78
0.745
0.785
0.73
0.72
0.67
0.645
0.675
0.69
0.695
0.775
0.775
0.725
0.685
0.645
0.64
0.59
0.615
0.655
0.655
0.675
0.655
0.665
0.675
0.595
0.53
0.545
0.5
0.47
0.535
0.64
0.59
0.63
0.52
0.45
0.39
0.35
0.4
0.485
0.5
0.565
0.515
0.505
0.51
0.4
0.38
0.405
0.32
0.415
0.49
0.46
0.47
0.445
0.435
0.395
0.375
0.34
0.34
0.445
0.41
0.485
0.515
0.445
0.375
0.385
0.34
0.34
0.355
0.375
0.4
0.485
0.445
0.445
0.395
0.375
0.325
0.32
0.36
0.365
0.435
0.47
0.425
0.45
0.395
0.35
0.335
0.33
0.305
0.335
0.36
0.485
0.465
0.415
0.325
0.355
0.315
0.365
0.385
0.38
0.44
0.425
0.425
0.42
0.365
0.395
0.36
0.31
0.29
0.31
0.37
0.48
0.47
0.43
0.36
0.315
0.32
0.315
0.3
0.355
0.45
0.45
0.455
0.375
0.37
0.29
0.25
0.285
0.325
0.32
0.42
0.31
0.39
0.35
0.385
0.365
0.33
0.295
0.28
0.275
0.4
0.45
0.375
0.3
0.34
0.285
0.245
0.245
0.265
0.31
0.365
0.325
0.36
0.34
0.34
0.27
0.235
0.24
0.305
0.325
0.43
0.35
0.34
0.275
0.215
0.245
0.24
0.255
0.25
0.32
0.33
0.36
0.35
0.29
0.265
0.19
0.25
0.215
0.215
0.355
0.345
0.315
0.285
0.265
0.26
0.21
0.165
0.25
0.195
0.255
0.34
0.335
0.315
0.275
0.255
0.185
0.17
0.245
0.28
0.31
0.29
0.345
0.28
0.265
0.245
0.17
0.11
0.15
0.245
0.305
0.315
0.305
0.305
0.2
0.24
0.2
0.185
0.2
0.24
0.23
0.27
0.275
0.265
0.295
0.24
0.16
0.145
0.205
0.225
0.24
0.265
0.245
0.22
0.19
0.17
0.165
0.18
0.19
0.2
0.23
0.245
0.3
0.285
0.24
0.165
0.22
0.145
0.12
0.19
0.24
0.235
0.235
0.27
0.25
0.215
0.17
0.145
0.19
0.19
0.255
0.275
0.265
0.26
0.185
0.12
0.135
0.215
0.2
0.215
0.31
0.245
0.235
0.275
0.205
0.14
0.22
0.155
0.165
0.23
0.33
0.285
0.265
0.23
0.26
0.15
0.145
0.145
0.17
0.19
0.27
0.265
0.265
0.22
0.205
0.155
0.075
0.065
0.14
0.175
0.185
0.22
0.235
0.15
0.085
0.08
0.135
0.16
0.125
0.165
0.195
0.165
0.195
0.14
0.165
0.085
0.095
0.02
0.095
0.14
0.16
0.21
0.18
0.145
0.125
0.075
0.09
0.07
0.11
0.1
0.195
0.195
0.17
0.16
0.17
0.17
0.27
0.3
0.43
0.555
0.595
0.69
0.735
0.605
0.525
0.33
0.315
0.27
0.295
0.165
0.065
-0.115
-0.14
-0.19
-0.095
-0.11
-0.105
-0.135
-0.02
0.01
0.07
0.075
0.065
0.085
0.055
0.0
0.06
0.09
0.07
0.1
0.13
0.255
0.19
0.135
0.175
0.115
0.02
0.06
0.16
0.22
0.2
0.185
0.18
0.17
0.09
0.06
0.025
0.055
0.16
0.22
0.185
0.155
0.19
0.105
0.06
0.045
0.02
0.08
0.1
0.225
0.205
0.21
0.185
0.16
0.07
0.09
0.095
0.095
0.15
0.205
0.225
0.195
0.15
0.14
0.085
0.085
0.09
0.155
0.185
0.16
0.195
0.205
0.205
0.165
0.14
0.085
0.09
0.14
0.145
0.2
0.245
0.215
0.21
0.17
0.12
0.155
0.135
0.195
0.19
0.22
0.305
0.255
0.215
0.24
0.185
0.16
0.17
0.22
0.25
0.31
0.325
0.34
0.3
0.26
0.235
0.25
0.24
0.21
0.3
0.36
0.37
0.35
0.295
0.285
0.215
0.275
0.21
0.275
0.295
0.395
0.335
0.315
0.26
0.265
0.19
0.19
0.195
0.245
0.245
0.285
0.265
0.245
0.19
0.175
0.08
0.045
0.05
0.08
0.16
0.18
0.14
0.165
0.105
0.09
-0.01
-0.025
0.035
0.095
0.06
0.075
0.15
0.145
0.095
0.05
-0.025
-0.03
-0.04
0.06
0.075
0.11
0.11
0.095
0.015
0.05
-0.015
-0.065
-0.035
0.01
0.03
0.085
0.055
0.09
0.05
0.015
0.005
-0.025
-0.04
-0.015
0.055
0.075
0.105
0.075
0.03
-0.01
-0.025
-0.01
-0.01
-0.01
0.025
0.075
0.15
0.065
-0.01
-0.01
-0.02
-0.025
-0.03
0.035
0.09
0.1
0.11
0.08
0.04
-0.03
-0.045
-0.04
0.005
0.06
0.095
0.045
0.07
0.07
0.04
0.035
-0.025
0.015
-0.015
0.04
0.115
0.13
0.09
0.04
0.025
0.005
-0.055
-0.07
-0.03
0.075
0.1
0.095
0.085
0.065
0.025
-0.02
-0.04
-0.005
-0.005
-0.005
0.07
0.095
0.13
0.06
0.05
0.0
-0.06
-0.02
0.055
0.085
0.075
0.085
0.085
0.065
0.025
0.01
0.0
-0.01
-0.03
0.01
0.105
0.11
0.095
0.07
-0.05
-0.06
-0.02
-0.05
-0.025
0.04
0.08
0.13
0.09
0.075
0.03
-0.025
-0.08
-0.065
-0.035
0.015
0.09
0.09
0.09
0.035
0.07
-0.05
-0.02
0.005
0.035
0.015
0.065
0.05
0.04
0.095
0.035
-0.045
-0.075
-0.01
0.045
0.035
0.085
0.1
0.07
0.035
-0.03
-0.055
-0.065
-0.02
0.03
0.055
0.125
0.125
0.1
0.05
-0.035
-0.07
-0.02
-0.01
-0.005
0.04
0.13
0.155
0.085
0.07
0.025
-0.01
-0.03
-0.1
0.04
0.11
0.14
0.15
0.165
0.04
0.055
0.035
-0.02
0.025
0.09
0.095
0.11
0.145
0.095
0.045
-0.07
-0.07
-0.065
0.005
0.055
0.1
0.07
0.05
0.04
-0.03
-0.07
-0.085
-0.025
-0.065
-0.03
0.045
0.065
0.035
0.02
0.0
-0.03
-0.05
-0.025
-0.03
0.04
0.085
0.1
0.07
-0.015
-0.01
-0.07
-0.055
-0.06
-0.05
0.01
0.06
0.065
0.03
0.03
0.01
-0.11
-0.095
-0.08
-0.05
-0.04
0.04
0.095
0.18
0.165
0.21
0.225
0.285
0.345
0.455
0.52
0.535
0.43
0.305
0.265
0.185
0.08
-0.02
-0.135
-0.265
-0.25
-0.165
-0.18
-0.145
-0.155
-0.21
-0.265
-0.26
-0.25
-0.145
-0.115
-0.005
-0.015
-0.01
-0.025
0.005
-0.085
-0.045
-0.065
-0.01
0.0
0.085
0.115
0.08
0.035
-0.05
-0.035
0.01
0.02
0.01
0.03
0.14
0.135
0.11
0.075
0.03
-0.025
-0.04
-0.005
0.02
0.02
0.075
0.095
0.13
0.06
0.015
0.01
0.0
0.0
0.005
0.035
0.095
0.14
0.095
0.035
0.035
0.02
0.02
0.02
0.04
0.07
0.1
0.15
0.16
0.045
0.045
0.05
0.005
-0.005
0.075
0.13
0.185
0.195
0.16
0.08
0.04
0.045
0.05
0.06
0.1
0.175
0.19
0.165
0.185
0.155
0.07
0.085
0.075
0.14
0.15
0.185
0.225
0.26
0.235
0.215
0.15
0.11
0.155
0.195
0.23
0.29
0.29
0.315
0.285
0.26
0.19
0.215
0.245
0.275
0.285
0.335
0.335
0.345
0.325
0.265
0.23
0.18
0.17
0.195
0.205
0.31
0.315
0.26
0.26
0.24
0.14
0.115
0.11
0.145
0.165
0.225
0.19
0.205
0.17
0.14
0.025
0.04
-0.03
0.04
0.075
0.13
0.115
0.09
0.065
0.0
-0.015
-0.015
0.015
0.02
0.02
0.1
0.125
0.135
0.02
0.01
-0.08
-0.05
-0.03
-0.035
0.0
0.055
0.05
0.05
0.035
0.025
-0.035
0.005
0.01
-0.035
0.03
0.085
0.05
0.05
0.035
0.005
-0.08
-0.075
-0.075
0.04
0.06
0.075
0.085
0.065
0.03
-0.02
-0.09
-0.08
-0.03
0.1
0.055
0.065
0.08
0.07
-0.01
-0.015
-0.04
-0.05
-0.03
0.005
0.07
0.095
0.095
0.1
0.045
0.01
-0.02
-0.045
0.005
0.075
0.12
0.095
0.065
0.085
0.05
-0.02
-0.035
-0.01
0.015
0.04
0.145
0.13
0.095
0.095
0.0
0.01
0.0
-0.06
-0.035
0.1
0.115
0.1
0.06
0.095
0.07
0.02
-0.02
-0.025
0.02
0.045
0.095
0.05
0.105
0.06
0.02
-0.015
-0.02
-0.01
0.015
0.03
0.115
0.08
0.07
0.08
-0.005
-0.02
-0.02
-0.08
0.0
0.035
0.13
0.1
0.05
0.05
0.045
0.005
-0.025
-0.025
-0.005
0.015
0.115
0.155
0.075
0.06
0.03
-0.005
0.005
-0.005
0.02
0.03
0.055
0.075
0.125
0.075
0.03
-0.03
0.01
-0.02
0.03
0.08
0.11
0.1
0.105
0.045
0.005
-0.06
0.01
-0.005
0.005
0.045
0.095
0.125
0.13
0.11
0.075
0.02
0.065
0.055
0.095
0.08
0.155
0.155
0.115
0.095
0.13
0.075
0.0
-0.005
0.075
0.075
0.14
0.115
0.21
0.085
0.035
-0.02
0.0
0.03
0.035
0.04
0.085
0.07
0.12
0.05
-0.03
-0.065
-0.04
0.005
0.025
0.075
0.105
0.085
0.095
0.04
0.01
0.015
-0.01
0.03
-0.015
0.035
0.115
0.105
0.09
0.03
0.0
-0.005
-0.045
-0.025
0.075
0.12
0.13
0.09
0.08
0.025
-0.03
-0.065
-0.07
-0.04
0.025
0.075
0.135
0.165
0.22
0.36
0.29
0.315
0.465
0.535
0.54
0.53
0.46
0.37
0.265
0.21
0.085
0.005
-0.105
-0.235
-0.245
-0.125
-0.105
-0.17
-0.17
-0.145
-0.175
-0.15
-0.17
-0.11
-0.03
0.06
0.075
0.085
0.06
0.045
-0.015
-0.01
0.045
0.02
0.03
0.1
0.185
0.12
0.1
0.025
-0.005
0.04
0.035
0.0
0.075
0.18
0.115
0.1
0.085
0.045
0.005
0.055
0.025
0.09
0.095
0.16
0.155
0.15
0.105
0.08
0.035
0.025
0.05
0.085
0.065
0.13
0.165
0.185
0.13
0.125
0.01
0.02
0.015
0.07
0.12
0.17
0.175
0.205
0.14
0.09
0.015
0.045
0.065
0.115
0.14
0.2
0.16
0.145
0.15
0.11
0.055
0.045
0.08
0.145
0.16
0.225
0.21
0.175
0.135
0.095
0.07
0.08
0.08
0.155
0.255
0.31
0.295
0.26
0.19
0.15
0.16
0.195
0.23
0.235
0.285
0.295
0.285
0.25
0.28
0.275
0.25
0.2
0.205
0.24
0.3
0.31
0.285
0.255
0.185
0.215
0.17
0.17
0.23
0.22
0.29
0.285
0.285
0.215
0.14
0.08
0.11
0.08
0.09
0.11
0.16
0.135
0.19
0.105
0.085
-0.015
-0.02
-0.045
-0.06
-0.045
0.06
0.075
0.07
0.015
-0.06
-0.055
-0.105
-0.09
-0.05
-0.025
0.01
0.015
-0.025
-0.05
-0.04
-0.095
-0.115
-0.13
-0.08
-0.065
-0.025
-0.025
-0.015
-0.02
-0.065
-0.16
-0.195
-0.2
-0.15
-0.105
0.02
-0.02
-0.03
-0.065
-0.085
-0.17
-0.175
-0.18
-0.175
-0.15
-0.045
-0.04
-0.07
-0.09
-0.14
-0.18
-0.195
-0.18
-0.14
-0.12
-0.04
-0.05
-0.025
-0.14
-0.16
-0.23
-0.21
-0.21
-0.17
-0.19
-0.085
-0.05
-0.015
-0.165
-0.155
-0.225
-0.24
-0.235
-0.16
-0.135
-0.06
-0.105
-0.105
-0.135
-0.225
-0.23
-0.24
-0.245
-0.21
-0.17
-0.14
-0.16
-0.175
-0.21
-0.29
-0.28
-0.21
-0.22
-0.175
-0.18
-0.15
-0.18
-0.185
-0.26
-0.29
-0.285
-0.315
-0.255
-0.245
-0.255
-0.2
-0.155
-0.24
-0.295
-0.305
-0.36
-0.355
-0.305
-0.28
-0.31
-0.26
-0.19
-0.215
-0.275
-0.33
-0.39
-0.35
-0.34
-0.365
-0.265
-0.225
-0.255
-0.305
-0.32
-0.405
-0.435
-0.425
-0.365
-0.31
-0.26
-0.285
-0.3
-0.35
-0.375
-0.435
-0.42
-0.43
-0.415
-0.375
-0.34
-0.355
-0.34
-0.32
-0.405
-0.43
-0.465
-0.45
-0.435
-0.415
-0.315
-0.32
-0.33
-0.44
-0.455
-0.515
-0.525
-0.515
-0.47
-0.45
-0.405
-0.33
-0.355
-0.43
-0.485
-0.49
-0.545
-0.535
-0.505
-0.48
-0.425
-0.405
-0.425
-0.425
-0.5
-0.54
-0.595
-0.525
-0.5
-0.505
-0.465
-0.435
-0.485
-0.51
-0.535
-0.605
-0.55
-0.565
-0.525
-0.495
-0.445
-0.465
-0.43
-0.495
-0.52
-0.565
-0.61
-0.62
-0.57
-0.57
-0.465
-0.46
-0.475
-0.555
-0.605
-0.635
-0.54
-0.66
-0.58
-0.545
-0.505
-0.555
-0.595
-0.605
-0.58
-0.715
-0.685
-0.685
-0.655
-0.695
-0.575
-0.58
-0.62
-0.685
-0.7
-0.715
-0.76
-0.775
-0.705
-0.655
-0.6
-0.66
-0.625
-0.68
-0.71
-0.79
-0.85
-0.765
-0.775
-0.685
-0.615
-0.635
-0.69
-0.77
-0.805
-0.87
-0.835
-0.85
-0.77
-0.685
-0.695
-0.68
-0.71
-0.775
-0.835
-0.9
-0.9
-0.805
-0.67
-0.55
-0.495
-0.425
-0.325
-0.32
-0.33
-0.345
-0.425
-0.49
-0.54
-0.5
-0.61
-0.665
-0.775
-0.95
-1.165
-1.195
-1.18
-1.095
-1.06
-0.99
-0.94
-0.935
-0.975
-0.985
-1.065
-1.005
-0.99
-0.965
-0.875
-0.845
-0.825
-0.785
-0.86
-0.935
-0.99
-0.895
-0.94
-0.935
-0.94
-0.835
-0.815
-0.855
-0.875
-0.875
-0.98
-0.985
-0.97
-0.91
-0.94
-0.855
-0.855
-0.86
-0.87
-0.935
-1.015
-1.04
-1.03
-0.96
-0.93
-0.86
-0.875
-0.915
-0.91
-0.975
-0.92
-1.03
-1.03
-0.94
-0.98
-0.855
-0.875
-0.915
-0.985
-0.96
-1.0
-1.05
-1.02
-0.99
-0.965
-0.925
-0.9
-0.865
-0.92
-1.0
-1.06
-1.035
-1.01
-0.965
-0.96
-0.91
-0.9
-0.915
-0.96
-0.975
-1.06
-1.075
-1.075
-1.015
-0.92
-0.85
-0.865
-0.885
-0.975
-0.95
-1.01
-1.015
-1.01
-0.96
-0.93
-0.83
-0.835
-0.84
-0.89
-0.95
-0.98
-1.0
-0.99
-0.875
-0.825
-0.82
-0.825
-0.855
-0.89
-0.95
-0.97
-0.98
-0.93
-0.88
-0.85
-0.865
-0.875
-0.855
-0.92
-1.0
-0.995
-1.05
-1.015
-0.99
-0.955
-0.975
-0.975
-0.96
-1.005
-1.105
-1.11
-1.12
-1.11
-1.115
-1.075
-1.08
-1.105
-1.12
-1.115
-1.185
-1.245
-1.23
-1.17
-1.21
-1.14
-1.145
-1.15
-1.185
-1.24
-1.305
-1.26
-1.27
-1.295
-1.265
-1.14
-1.135
-1.16
-1.195
-1.295
-1.315
-1.325
-1.345
-1.32
-1.26
-1.195
-1.185
-1.205
-1.245
-1.265
-1.385
-1.345
-1.31
-1.32
-1.285
-1.215
-1.21
-1.19
-1.27
-1.295
-1.34
-1.355
-1.335
-1.325
-1.3
-1.22
-1.27
-1.205
-1.225
-1.295
-1.38
-1.38
-1.355
-1.32
-1.31
-1.275
-1.27
-1.235
-1.31
-1.255
-1.375
-1.405
-1.37
-1.32
-1.31
-1.285
-1.285
-1.285
-1.345
-1.275
-1.355
-1.41
-1.38
-1.33
-1.32
-1.255
-1.255
-1.26
-1.34
-1.34
-1.38
-1.33
-1.395
-1.36
-1.28
-1.275
-1.255
-1.28
-1.37
-1.325
-1.38
-1.41
-1.38
-1.36
-1.33
-1.285
-1.275
-1.315
-1.355
-1.4
-1.45
-1.415
-1.37
-1.355
-1.32
-1.285
-1.3
-1.305
-1.385
-1.36
-1.43
-1.43
-1.43
-1.39
-1.35
-1.335
-1.325
-1.275
-1.4
-1.405
-1.45
-1.455
-1.42
-1.38
-1.325
-1.3
-1.35
-1.345
-1.395
-1.45
-1.42
-1.43
-1.405
-1.37
-1.33
-1.335
-1.335
-1.4
-1.41
-1.43
-1.46
-1.41
-1.41
-1.375
-1.375
-1.355
-1.355
-1.315
-1.42
-1.43
-1.435
-1.475
-1.42
-1.44
-1.345
-1.33
-1.35
-1.415
-1.45
-1.445
-1.49
-1.48
-1.385
-1.395
-1.355
-1.33
-1.35
-1.395
-1.405
-1.45
-1.5
-1.485
-1.465
-1.415
-1.35
-1.365
-1.405
-1.41
-1.43
-1.43
-1.49
-1.475
-1.445
-1.395
-1.375
-1.395
-1.355
-1.36
-1.435
-1.51
-1.51
-1.48
-1.45
-1.455
-1.335
-1.335
-1.365
-1.37
-1.41
-1.51
-1.525
-1.525
-1.5
-1.38
-1.335
-1.3
-1.365
-1.42
-1.41
-1.475
-1.485
-1.46
-1.415
-1.395
-1.385
-1.41
-1.35
-1.39
-1.39
-1.44
-1.47
-1.47
-1.425
-1.37
-1.33
-1.335
-1.335
-1.435
-1.375
-1.455
-1.475
-1.405
-1.395
-1.39
-1.315
-1.33
-1.365
-1.38
-1.415
-1.45
-1.49
-1.445
-1.42
-1.405
-1.32
-1.335
-1.355
-1.4
-1.46
-1.51
-1.525
-1.515
-1.475
-1.45
-1.29
-1.35
-1.375
-1.4
-1.47
-1.52
-1.535
-1.445
-1.46
-1.41
-1.435
-1.35
-1.345
-1.41
-1.485
-1.54
-1.52
-1.48
-1.475
-1.385
-1.385
-1.385
-1.405
-1.445
-1.49
-1.515
-1.515
-1.5
-1.4
-1.365
-1.385
-1.45
-1.43
-1.495
-1.5
-1.465
-1.42
-1.275
-1.125
-1.015
-0.93
-0.88
-0.84
-0.875
-0.97
-1.1
-1.235
-1.24
-1.245
-1.27
-1.385
-1.53
-1.635
-1.72
-1.795
-1.74
-1.685
-1.605
-1.54
-1.45
-1.455
-1.45
-1.465
-1.48
-1.545
-1.51
-1.535
-1.46
-1.41
-1.355
-1.375
-1.395
-1.38
-1.38
-1.45
-1.48
-1.46
-1.405
-1.38
-1.315
-1.33
-1.32
-1.375
-1.415
-1.44
-1.47
-1.425
-1.42
-1.385
-1.325
-1.315
-1.295
-1.35
-1.37
-1.44
-1.455
-1.435
-1.395
-1.36
-1.285
-1.295
-1.34
-1.385
-1.365
-1.445
-1.45
-1.445
-1.37
-1.34
-1.3
-1.325
-1.32
-1.26
-1.325
-1.415
-1.46
-1.4
-1.355
-1.285
-1.28
-1.245
-1.25
-1.27
-1.305
-1.365
-1.445
-1.39
-1.35
-1.245
-1.19
-1.21
-1.26
-1.305
-1.3
-1.335
-1.36
-1.39
-1.32
-1.255
-1.17
-1.19
-1.21
-1.26
-1.27
-1.315
-1.36
-1.325
-1.205
-1.155
-1.135
-1.14
-1.19
-1.225
-1.23
-1.19
-1.2
-1.215
-1.2
-1.11
-1.085
-1.11
-1.135
-1.165
-1.185
-1.235
-1.155
-1.15
-1.12
-1.08
-1.065
-1.095
-1.125
-1.145
-1.2
-1.21
-1.275
-1.285
-1.25
-1.22
-1.17
-1.15
-1.24
-1.27
-1.33
-1.33
-1.33
-1.325
-1.325
-1.26
-1.27
-1.295
-1.315
-1.37
-1.435
-1.35
-1.36
-1.395
-1.335
-1.26
-1.315
-1.3
-1.355
-1.38
-1.42
-1.445
-1.405
-1.395
-1.375
-1.29
-1.32
-1.33
-1.345
-1.39
-1.465
-1.405
-1.42
-1.425
-1.365
-1.275
-1.295
-1.34
-1.365
-1.39
-1.46
-1.505
-1.415
-1.45
-1.36
-1.295
-1.28
-1.32
-1.36
-1.355
-1.46
-1.485
-1.44
-1.42
-1.35
-1.295
-1.3
-1.295
-1.35
-1.36
-1.43
-1.415
-1.395
-1.365
-1.36
-1.28
-1.32
-1.34
-1.365
-1.41
-1.46
-1.425
-1.4
-1.33
-1.32
-1.285
-1.3
-1.285
-1.35
-1.355
-1.4
-1.405
-1.38
-1.325
-1.34
-1.255
-1.265
-1.315
-1.37
-1.385
-1.43
-1.43
-1.35
-1.305
-1.345
-1.29
-1.27
-1.255
-1.315
-1.33
-1.405
-1.37
-1.415
-1.335
-1.305
-1.255
-1.28
-1.285
-1.365
-1.35
-1.405
-1.445
-1.38
-1.395
-1.335
-1.26
-1.23
-1.27
-1.325
-1.41
-1.38
-1.365
-1.315
-1.31
-1.28
-1.25
-1.27
-1.265
-1.34
-1.365
-1.39
-1.4
-1.38
-1.38
-1.275
-1.25
-1.275
-1.27
-1.32
-1.37
-1.395
-1.405
-1.39
-1.37
-1.26
-1.25
-1.28
-1.33
-1.38
-1.37
-1.39
-1.405
-1.385
-1.27
-1.235
-1.3
-1.23
-1.3
-1.33
-1.375
-1.405
-1.375
-1.31
-1.32
-1.275
-1.25
-1.24
-1.28
-1.33
-1.435
-1.43
-1.39
-1.405
-1.34
-1.24
-1.295
-1.295
-1.32
-1.295
-1.4
-1.38
-1.395
-1.395
-1.35
-1.275
-1.215
-1.27
-1.325
-1.335
-1.39
-1.4
-1.43
-1.375
-1.335
-1.255
-1.275
-1.245
-1.295
-1.335
-1.415
-1.395
-1.395
-1.38
-1.365
-1.29
-1.255
-1.245
-1.285
-1.35
-1.42
-1.425
-1.42
-1.325
-1.3
-1.255
-1.25
-1.26
-1.33
-1.39
-1.425
-1.455
-1.365
-1.36
-1.33
-1.255
-1.285
-1.315
-1.335
-1.315
-1.395
-1.435
-1.42
-1.35
-1.325
-1.255
-1.245
-1.275
-1.34
-1.35
-1.42
-1.405
-1.375
-1.345
-1.335
-1.285
-1.255
-1.31
-1.41
-1.4
-1.465
-1.435
-1.36
-1.335
-1.29
-1.315
-1.33
-1.285
-1.36
-1.36
-1.46
-1.42
-1.425
-1.37
-1.3
-1.3
-1.345
-1.31
-1.265
-1.45
-1.395
-1.415
-1.345
-1.335
-1.28
-1.255
-1.24
-1.29
-1.345
-1.425
-1.385
-1.37
-1.365
-1.31
-1.255
-1.265
-1.27
-1.27
-1.38
-1.435
-1.395
-1.41
-1.39
-1.37
-1.36
-1.345
-1.375
-1.355
-1.385
-1.425
-1.455
-1.45
-1.455
-1.42
-1.285
-1.305
-1.345
-1.355
-1.42
-1.44
-1.485
-1.47
-1.45
-1.43
-1.335
-1.42
-1.345
-1.39
-1.435
-1.495
-1.46
-1.48
-1.455
-1.41
-1.365
-1.35
-1.36
-1.41
-1.46
-1.54
-1.52
-1.53
-1.495
-1.495
-1.415
-1.385
-1.405
-1.39
-1.395
-1.43
-1.365
-1.295
-1.19
-1.07
-0.92
-0.865
-0.865
-0.905
-0.955
-1.15
-1.305
-1.285
-1.325
-1.36
-1.38
-1.57
-1.645
-1.725
-1.645
-1.73
-1.73
-1.68
-1.605
-1.56
-1.51
-1.5
-1.525
-1.505
-1.51
-1.59
-1.55
-1.525
-1.475
-1.445
-1.395
-1.44
-1.42
-1.47
-1.49
-1.535
-1.565
-1.485
-1.46
-1.435
-1.405
-1.445
-1.46
-1.42
-1.45
-1.505
-1.57
-1.51
-1.49
-1.43
-1.38
-1.38
-1.415
-1.495
-1.48
-1.565
-1.545
-1.505
-1.45
-1.41
-1.385
-1.445
-1.375
-1.44
-1.55
-1.525
-1.52
-1.525
-1.45
-1.425
-1.375
-1.425
-1.45
-1.45
-1.51
-1.48
-1.54
-1.485
-1.46
-1.37
-1.355
-1.375
-1.41
-1.445
-1.495
-1.5
-1.53
-1.47
-1.425
-1.365
-1.375
-1.375
-1.405
-1.4
-1.47
-1.485
-1.5
-1.41
-1.4
-1.295
-1.37
-1.385
-1.37
-1.4
-1.46
-1.36
-1.37
-1.365
-1.31
-1.29
-1.235
-1.24
-1.27
-1.31
-1.35
-1.345
-1.37
-1.295
-1.29
-1.22
-1.225
-1.22
-1.25
-1.235
-1.325
-1.355
-1.355
-1.275
-1.265
-1.21
-1.3
-1.235
-1.26
-1.32
-1.385
-1.38
-1.365
-1.365
-1.3
-1.26
-1.28
-1.31
-1.385
-1.445
-1.49
-1.515
-1.53
-1.52
-1.455
-1.42
-1.44
-1.455
-1.435
-1.51
-1.56
-1.51
-1.51
-1.515
-1.515
-1.46
-1.475
-1.475
-1.495
-1.545
-1.61
-1.6
-1.575
-1.555
-1.515
-1.51
-1.43
-1.475
-1.56
-1.545
-1.635
-1.66
-1.62
-1.615
-1.5
-1.495
-1.505
-1.51
-1.545
-1.575
-1.655
-1.665
-1.675
-1.59
-1.56
-1.505
-1.525
-1.575
-1.56
-1.585
-1.635
-1.65
-1.66
-1.555
-1.53
-1.535
-1.535
-1.555
-1.62
-1.62
-1.63
-1.635
-1.605
-1.575
-1.57
-1.51
-1.54
-1.545
-1.575
-1.635
-1.625
-1.625
-1.62
-1.615
-1.51
-1.55
-1.555
-1.58
-1.54
-1.63
-1.635
-1.695
-1.61
-1.59
-1.5
-1.545
-1.465
-1.505
-1.605
-1.66
-1.665
-1.67
-1.66
-1.62
-1.56
-1.58
-1.55
-1.545
-1.59
-1.67
-1.675
-1.565
-1.625
-1.645
-1.55
-1.555
-1.58
-1.61
-1.6
-1.62
-1.615
-1.695
-1.68
-1.605
-1.56
-1.53
-1.595
-1.585
-1.64
-1.69
-1.685
-1.69
-1.65
-1.59
-1.555
-1.54
-1.515
-1.61
-1.635
-1.705
-1.71
-1.72
-1.675
-1.61
-1.505
-1.545
-1.535
-1.645
-1.62
-1.67
-1.665
-1.675
-1.63
-1.565
-1.535
-1.555
-1.575
-1.585
-1.59
-1.645
-1.67
-1.7
-1.605
-1.65
-1.505
-1.53
-1.55
-1.595
-1.585
-1.705
-1.67
-1.63
-1.645
-1.63
-1.56
-1.555
-1.525
-1.565
-1.635
-1.73
-1.72
-1.65
-1.625
-1.585
-1.565
-1.54
-1.58
-1.615
-1.645
-1.68
-1.725
-1.64
-1.595
-1.595
-1.555
-1.565
-1.515
-1.58
-1.63
-1.73
-1.7
-1.69
-1.55
-1.535
-1.555
-1.55
-1.53
-1.605
-1.635
-1.705
-1.7
-1.685
-1.64
-1.56
-1.56
-1.58
-1.56
-1.64
-1.685
-1.735
-1.69
-1.645
-1.65
-1.575
-1.51
-1.51
-1.57
-1.615
-1.66
-1.675
-1.655
-1.6
-1.605
-1.555
-1.49
-1.545
-1.56
-1.63
-1.665
-1.675
-1.665
-1.57
-1.62
-1.57
-1.525
-1.55
-1.555
-1.57
-1.62
-1.645
-1.64
-1.615
-1.545
-1.56
-1.525
-1.495
-1.57
-1.58
-1.62
-1.64
-1.615
-1.61
-1.58
-1.495
-1.41
-1.45
-1.475
-1.54
-1.635
-1.655
-1.58
-1.505
-1.565
-1.49
-1.46
-1.52
-1.55
-1.55
-1.66
-1.6
-1.645
-1.615
-1.54
-1.45
-1.48
-1.5
-1.55
-1.585
-1.675
-1.675
-1.66
-1.635
-1.59
-1.54
-1.49
-1.525
-1.6
-1.59
-1.635
-1.675
-1.67
-1.64
-1.59
-1.535
-1.51
-1.535
-1.595
-1.56
-1.665
-1.675
-1.665
-1.59
-1.575
-1.51
-1.5
-1.5
-1.585
-1.65
-1.63
-1.68
-1.69
-1.66
-1.605
-1.475
-1.44
-1.34
-1.31
-1.235
-1.275
-1.225
-1.125
-1.095
-1.115
-1.165
-1.28
-1.335
-1.405
-1.46
-1.61
-1.735
-1.875
-1.885
-1.8
-1.72
-1.725
-1.72
-1.805
-1.8
-1.815
-1.78
-1.755
-1.575
-1.58
-1.62
-1.565
-1.56
-1.62
-1.625
-1.63
-1.6
-1.605
-1.585
-1.54
-1.5
-1.455
-1.55
-1.53
-1.605
-1.62
-1.605
-1.54
-1.535
-1.48
-1.445
-1.48
-1.525
-1.525
-1.575
-1.625
-1.595
-1.55
-1.485
-1.455
-1.43
-1.475
-1.49
-1.535
-1.585
-1.58
-1.56
-1.515
-1.48
-1.435
-1.415
-1.445
-1.42
-1.465
-1.555
-1.575
-1.545
-1.515
-1.53
-1.44
-1.43
-1.43
-1.4
-1.505
-1.565
-1.47
-1.435
-1.47
-1.44
-1.405
-1.38
-1.385
-1.425
-1.49
-1.525
-1.505
-1.45
-1.465
-1.445
-1.3
-1.32
-1.35
-1.4
-1.385
-1.485
-1.485
-1.41
-1.38
-1.405
-1.325
-1.33
-1.31
-1.355
-1.37
-1.405
-1.35
-1.345
-1.31
-1.315
-1.255
-1.23
-1.225
-1.21
-1.25
-1.365
-1.375
-1.335
-1.305
-1.26
-1.17
-1.21
-1.195
-1.23
-1.285
-1.33
-1.355
-1.33
-1.285
-1.255
-1.195
-1.24
-1.255
-1.29
-1.35
-1.385
-1.365
-1.395
-1.38
-1.425
-1.29
-1.305
-1.36
-1.455
-1.42
-1.49
-1.505
-1.49
-1.47
-1.445
-1.41
-1.44
-1.41
-1.475
-1.545
-1.575
-1.535
-1.545
-1.53
-1.48
-1.445
-1.405
-1.425
-1.525
-1.525
-1.565
-1.57
-1.56
-1.53
-1.51
-1.475
-1.47
-1.46
-1.49
-1.555
-1.595
-1.575
-1.56
-1.52
-1.46
-1.465
-1.455
-1.495
-1.545
-1.565
-1.59
-1.59
-1.585
-1.495
-1.495
-1.495
-1.465
-1.495
-1.535
-1.6
-1.63
-1.615
-1.63
-1.475
-1.49
-1.445
-1.415
-1.465
-1.535
-1.58
-1.555
-1.57
-1.56
-1.52
-1.46
-1.475
-1.445
-1.475
-1.535
-1.57
-1.58
-1.57
-1.505
-1.48
-1.47
-1.48
-1.46
-1.45
-1.545
-1.655
-1.59
-1.52
-1.54
-1.52
-1.48
-1.425
-1.41
-1.49
-1.545
-1.525
-1.61
-1.66
-1.6
-1.54
-1.405
-1.44
-1.46
-1.505
-1.515
-1.585
-1.61
-1.545
-1.525
-1.51
-1.44
-1.49
-1.455
-1.475
-1.525
-1.615
-1.585
-1.62
-1.56
-1.51
-1.455
-1.495
-1.5
-1.53
-1.555
-1.565
-1.59
-1.56
-1.595
-1.435
-1.41
-1.53
-1.545
-1.505
-1.48
-1.58
-1.61
-1.595
-1.545
-1.535
-1.47
-1.425
-1.44
-1.515
-1.56
-1.605
-1.59
-1.56
-1.52
-1.505
-1.42
-1.475
-1.505
-1.55
-1.58
-1.625
-1.555
-1.59
-1.5
-1.495
-1.465
-1.47
-1.525
-1.52
-1.555
-1.645
-1.615
-1.595
-1.495
-1.49
-1.465
-1.4
-1.41
-1.52
-1.585
-1.55
-1.59
-1.555
-1.565
-1.53
-1.44
-1.465
-1.44
-1.52
-1.57
-1.65
-1.585
-1.565
-1.49
-1.475
-1.45
-1.48
-1.52
-1.555
-1.585
-1.59
-1.605
-1.63
-1.54
-1.455
-1.45
-1.465
-1.465
-1.575
-1.55
-1.545
-1.605
-1.555
-1.515
-1.49
-1.455
-1.445
-1.5
-1.48
-1.545
-1.59
-1.595
-1.56
-1.465
-1.435
-1.415
-1.46
-1.47
-1.54
-1.52
-1.58
-1.535
-1.555
-1.47
-1.39
-1.38
-1.44
-1.455
-1.5
-1.53
-1.545
-1.585
-1.52
-1.46
-1.405
-1.385
-1.385
-1.435
-1.465
-1.52
-1.55
-1.525
-1.47
-1.42
-1.335
-1.375
-1.425
-1.455
-1.485
-1.57
-1.57
-1.565
-1.49
-1.465
-1.425
-1.425
-1.475
-1.555
-1.52
-1.555
-1.57
-1.54
-1.5
-1.525
-1.465
-1.435
-1.485
-1.465
-1.52
-1.575
-1.57
-1.585
-1.505
-1.44
-1.43
-1.445
-1.43
-1.455
-1.515
-1.59
-1.59
-1.585
-1.48
-1.49
-1.435
-1.435
-1.51
-1.56
-1.555
-1.57
-1.595
-1.54
-1.465
-1.375
-1.27
-1.175
-1.09
-1.13
-1.105
-1.09
-1.035
-1.085
-1.12
-1.195
-1.21
-1.24
-1.3
-1.485
-1.57
-1.81
-1.83
-1.805
-1.72
-1.645
-1.62
-1.605
-1.635
-1.615
-1.645
-1.63
-1.605
-1.585
-1.515
-1.455
-1.38
-1.405
-1.44
-1.48
-1.53
-1.5
-1.545
-1.495
-1.495
-1.405
-1.395
-1.41
-1.425
-1.46
-1.49
-1.52
-1.52
-1.49
-1.455
-1.37
-1.355
-1.385
-1.43
-1.495
-1.545
-1.505
-1.535
-1.485
-1.47
-1.33
-1.34
-1.405
-1.405
-1.4
-1.495
-1.46
-1.52
-1.47
-1.465
-1.335
-1.39
-1.365
-1.42
-1.41
-1.435
-1.485
-1.475
-1.475
-1.435
-1.37
-1.35
-1.355
-1.4
-1.41
-1.495
-1.48
-1.495
-1.425
-1.365
-1.325
-1.35
-1.325
-1.365
-1.39
-1.46
-1.51
-1.445
-1.425
-1.415
-1.285
-1.29
-1.29
-1.355
-1.355
-1.445
-1.405
-1.375
-1.305
-1.35
-1.265
-1.265
-1.265
-1.305
-1.3
-1.38
-1.34
-1.35
-1.315
-1.24
-1.16
-1.18
-1.18
-1.245
-1.285
-1.295
-1.33
-1.35
-1.3
-1.245
-1.11
-1.125
-1.175
-1.235
-1.275
-1.34
-1.35
-1.325
-1.295
-1.27
-1.22
-1.26
-1.25
-1.29
-1.335
-1.38
-1.425
-1.38
-1.385
-1.385
-1.325
-1.365
-1.35
-1.39
-1.45
-1.52
-1.51
-1.505
-1.465
-1.4
-1.38
-1.36
-1.45
-1.475
-1.55
-1.545
-1.61
-1.57
-1.54
-1.44
-1.445
-1.405
-1.405
-1.48
-1.52
-1.53
-1.565
-1.565
-1.535
-1.46
-1.41
-1.43
-1.485
-1.495
-1.595
-1.59
-1.545
-1.525
-1.45
-1.455
-1.42
-1.47
-1.45
-1.52
-1.56
-1.61
-1.55
-1.53
-1.495
-1.425
-1.47
-1.47
-1.505
-1.515
-1.57
-1.57
-1.57
-1.535
-1.495
-1.48
-1.48
-1.465
-1.465
-1.56
-1.545
-1.535
-1.555
-1.525
-1.505
-1.395
-1.4
-1.435
-1.485
-1.54
-1.565
-1.59
-1.55
-1.52
-1.485
-1.445
-1.42
-1.43
-1.48
-1.49
-1.585
-1.595
-1.56
-1.525
-1.52
-1.46
-1.45
-1.44
-1.485
-1.53
-1.59
-1.545
-1.57
-1.575
-1.51
-1.43
-1.41
-1.445
-1.535
-1.515
-1.6
-1.595
-1.57
-1.545
-1.55
-1.52
-1.42
-1.455
-1.5
-1.55
-1.62
-1.595
-1.6
-1.58
-1.51
-1.51
-1.485
-1.47
-1.555
-1.57
-1.66
-1.63
-1.59
-1.575
-1.575
-1.505
-1.47
-1.505
-1.535
-1.55
-1.61
-1.675
-1.695
-1.605
-1.52
-1.47
-1.53
-1.535
-1.545
-1.56
-1.64
-1.655
-1.63
-1.575
-1.58
-1.52
-1.49
-1.515
-1.595
-1.64
-1.64
-1.67
-1.65
-1.635
-1.495
-1.495
-1.535
-1.57
-1.615
-1.655
-1.615
-1.62
-1.63
-1.63
-1.585
-1.535
-1.54
-1.58
-1.605
-1.635
-1.705
-1.64
-1.635
-1.56
-1.55
-1.57
-1.565
-1.56
-1.645
-1.705
-1.685
-1.695
-1.62
-1.58
-1.52
-1.555
-1.575
-1.615
-1.65
-1.68
-1.705
-1.765
-1.64
-1.63
-1.59
-1.605
-1.51
-1.585
-1.65
-1.675
-1.7
-1.71
-1.73
-1.605
-1.555
-1.575
-1.575
-1.6
-1.635
-1.715
-1.775
-1.75
-1.645
-1.66
-1.575
-1.545
-1.595
-1.66
-1.655
-1.7
-1.73
-1.73
-1.685
-1.7
-1.57
-1.61
-1.585
-1.64
-1.645
-1.755
-1.775
-1.655
-1.615
-1.705
-1.605
-1.615
-1.615
-1.62
-1.635
-1.705
-1.715
-1.735
-1.63
-1.6
-1.56
-1.575
-1.61
-1.665
-1.65
-1.71
-1.69
-1.69
-1.665
-1.63
-1.565
-1.555
-1.565
-1.615
-1.65
-1.725
-1.76
-1.725
-1.655
-1.59
-1.565
-1.625
-1.58
-1.61
-1.665
-1.755
-1.795
-1.745
-1.73
-1.675
-1.65
-1.645
-1.625
-1.705
-1.675
-1.705
-1.76
-1.765
-1.725
-1.7
-1.675
-1.63
-1.695
-1.705
-1.75
-1.775
-1.755
-1.75
-1.66
-1.665
-1.62
-1.645
-1.68
-1.735
-1.755
-1.8
-1.805
-1.775
-1.78
-1.69
-1.675
-1.66
-1.705
-1.725
-1.75
-1.79
-1.7
-1.615
-1.51
-1.385
-1.33
-1.315
-1.23
-1.185
-1.29
-1.335
-1.365
-1.465
-1.51
-1.455
-1.545
-1.595
-1.77
-1.95
-2.07
-2.07
-1.995
-1.925
-1.915
-1.775
-1.795
-1.77
-1.765
-1.79
-1.825
-1.85
-1.825
-1.79
-1.7
-1.645
-1.605
-1.625
-1.68
-1.725
-1.8
-1.76
-1.735
-1.74
-1.675
-1.63
-1.635
-1.64
-1.665
-1.71
-1.78
-1.77
-1.705
-1.7
-1.685
-1.64
-1.545
-1.615
-1.63
-1.645
-1.715
-1.76
-1.75
-1.735
-1.685
-1.555
-1.57
-1.61
-1.625
-1.625
-1.68
-1.735
-1.75
-1.695
-1.605
-1.55
-1.595
-1.585
-1.645
-1.665
-1.705
-1.72
-1.685
-1.67
-1.645
-1.575
-1.52
-1.545
-1.57
-1.605
-1.685
-1.65
-1.655
-1.66
-1.625
-1.58
-1.535
-1.52
-1.545
-1.565
-1.66
-1.645
-1.64
-1.6
-1.55
-1.405
-1.43
-1.46
-1.505
-1.57
-1.625
-1.62
-1.595
-1.56
-1.485
-1.48
-1.475
-1.385
-1.415
-1.49
-1.52
-1.55
-1.49
-1.46
-1.4
-1.375
-1.4
-1.375
-1.415
-1.465
-1.5
-1.475
-1.49
-1.405
-1.445
-1.365
-1.325
-1.395
-1.455
-1.48
-1.535
-1.495
-1.48
-1.415
-1.405
-1.445
-1.45
-1.495
-1.545
-1.56
-1.6
-1.605
-1.605
-1.58
-1.535
-1.505
-1.5
-1.525
-1.59
-1.67
-1.635
-1.69
-1.7
-1.64
-1.585
-1.6
-1.585
-1.635
-1.68
-1.72
-1.705
-1.71
-1.69
-1.665
-1.59
-1.59
-1.625
-1.62
-1.665
-1.73
-1.745
-1.73
-1.675
-1.68
-1.59
-1.555
-1.635
-1.655
-1.66
-1.735
-1.76
-1.735
-1.7
-1.655
-1.55
-1.585
-1.6
-1.655
-1.695
-1.765
-1.695
-1.74
-1.675
-1.67
-1.59
-1.585
-1.535
-1.675
-1.61
-1.725
-1.735
-1.685
-1.705
-1.615
-1.58
-1.565
-1.54
-1.555
-1.605
-1.685
-1.71
-1.735
-1.635
-1.6
-1.54
-1.535
-1.58
-1.59
-1.62
-1.745
-1.705
-1.655
-1.59
-1.56
-1.56
-1.58
-1.555
-1.595
-1.675
-1.685
-1.695
-1.68
-1.62
-1.585
-1.57
-1.56
-1.52
-1.57
-1.615
-1.69
-1.735
-1.67
-1.62
-1.54
-1.545
-1.565
-1.555
-1.605
-1.65
-1.73
-1.675
-1.68
-1.61
-1.545
-1.505
-1.55
-1.56
-1.62
-1.665
-1.685
-1.68
-1.68
-1.645
-1.595
-1.55
-1.555
-1.56
-1.655
-1.67
-1.645
-1.66
-1.67
-1.635
-1.57
-1.545
-1.53
-1.575
-1.595
-1.635
-1.665
-1.66
-1.665
-1.57
-1.595
-1.565
-1.55
-1.59
-1.59
-1.675
-1.7
-1.67
-1.65
-1.62
-1.55
-1.54
-1.5
-1.55
-1.58
-1.61
-1.63
-1.67
-1.685
-1.65
-1.55
-1.505
-1.52
-1.495
-1.58
-1.64
-1.64
-1.71
-1.675
-1.57
-1.53
-1.51
-1.55
-1.58
-1.61
-1.685
-1.665
-1.645
-1.625
-1.6
-1.55
-1.52
-1.545
-1.53
-1.6
-1.64
-1.63
-1.615
-1.605
-1.605
-1.49
-1.465
-1.56
-1.54
-1.58
-1.64
-1.59
-1.605
-1.56
-1.595
-1.515
-1.545
-1.54
-1.52
-1.565
-1.61
-1.65
-1.59
-1.59
-1.56
-1.535
-1.54
-1.495
-1.545
-1.54
-1.6
-1.58
-1.6
-1.57
-1.56
-1.465
-1.47
-1.47
-1.55
-1.58
-1.62
-1.625
-1.605
-1.565
-1.535
-1.45
-1.485
-1.435
-1.495
-1.54
-1.58
-1.585
-1.62
-1.54
-1.535
-1.49
-1.475
-1.48
-1.535
-1.585
-1.62
-1.605
-1.605
-1.54
-1.45
-1.455
-1.43
-1.445
-1.515
-1.55
-1.6
-1.615
-1.555
-1.525
-1.405
-1.445
-1.455
-1.455
-1.455
-1.555
-1.545
-1.595
-1.58
-1.505
-1.42
-1.415
-1.41
-1.475
-1.465
-1.49
-1.515
-1.555
-1.55
-1.43
-1.44
-1.385
-1.37
-1.43
-1.45
-1.54
-1.53
-1.57
-1.46
-1.41
-1.345
-1.42
-1.365
-1.39
-1.495
-1.535
-1.48
-1.515
-1.5
-1.47
-1.42
-1.425
-1.405
-1.445
-1.485
-1.52
-1.565
-1.545
-1.495
-1.485
-1.43
-1.46
-1.47
-1.4
-1.45
-1.52
-1.565
-1.575
-1.51
-1.485
-1.455
-1.41
-1.445
-1.425
-1.485
-1.545
-1.605
-1.485
-1.49
-1.465
-1.38
-1.43
-1.445
-1.42
-1.46
-1.535
-1.53
-1.535
-1.465
-1.405
-1.25
-1.18
-1.155
-1.055
-1.03
-1.005
-1.0
-1.01
-1.075
-1.155
-1.11
-1.175
-1.17
-1.315
-1.445
-1.755
-1.78
-1.775
-1.725
-1.67
-1.565
-1.58
-1.565
-1.6
-1.565
-1.625
-1.6
-1.565
-1.51
-1.465
-1.415
-1.42
-1.345
-1.37
-1.405
-1.47
-1.45
-1.485
-1.445
-1.415
-1.385
-1.355
-1.33
-1.405
-1.405
-1.48
-1.45
-1.435
-1.375
-1.38
-1.34
-1.255
-1.35
-1.355
-1.395
-1.445
-1.45
-1.42
-1.38
-1.35
-1.305
-1.295
-1.31
-1.375
-1.405
-1.45
-1.425
-1.415
-1.33
-1.28
-1.315
-1.31
-1.235
-1.3
-1.365
-1.46
-1.435
-1.405
-1.36
-1.29
-1.275
-1.265
-1.25
-1.325
-1.39
-1.405
-1.35
-1.365
-1.34
-1.29
-1.245
-1.225
-1.24
-1.255
-1.34
-1.335
-1.345
-1.33
-1.27
-1.195
-1.18
-1.235
-1.215
-1.285
-1.335
-1.295
-1.24
-1.2
-1.165
-1.135
-1.175
-1.115
-1.125
-1.165
-1.21
-1.26
-1.255
-1.21
-1.125
-1.045
-1.095
-1.05
-1.07
-1.11
-1.19
-1.17
-1.17
-1.16
-1.09
-1.055
-1.015
-1.015
-1.075
-1.095
-1.14
-1.17
-1.21
-1.12
-1.105
-1.055
-1.06
-1.03
-1.075
-1.145
-1.27
-1.265
-1.3
-1.245
-1.165
-1.135
-1.125
-1.19
-1.205
-1.285
-1.315
-1.325
-1.285
-1.32
-1.265
-1.205
-1.25
-1.23
-1.32
-1.335
-1.39
-1.415
-1.39
-1.355
-1.325
-1.225
-1.215
-1.205
-1.265
-1.245
-1.365
-1.37
-1.385
-1.355
-1.3
-1.26
-1.24
-1.255
-1.295
-1.295
-1.415
-1.365
-1.37
-1.32
-1.3
-1.26
-1.215
-1.29
-1.285
-1.31
-1.375
-1.375
-1.36
-1.34
-1.305
-1.235
-1.22
-1.305
-1.31
-1.33
-1.37
-1.34
-1.31
-1.285
-1.26
-1.21
-1.255
-1.22
-1.285
-1.31
-1.39
-1.375
-1.325
-1.29
-1.245
-1.225
-1.18
-1.175
-1.22
-1.32
-1.375
-1.375
-1.335
-1.295
-1.2
-1.22
-1.17
-1.18
-1.24
-1.285
-1.37
-1.345
-1.31
-1.26
-1.235
-1.185
-1.205
-1.185
-1.225
-1.34
-1.31
-1.37
-1.3
-1.245
-1.19
-1.215
-1.18
-1.225
-1.26
-1.335
-1.365
-1.305
-1.255
-1.245
-1.205
-1.165
-1.165
-1.205
-1.23
-1.3
-1.35
-1.375
-1.285
-1.2
-1.145
-1.19
-1.19
-1.23
-1.25
-1.325
-1.285
-1.3
-1.285
-1.235
-1.16
-1.14
-1.185
-1.215
-1.24
-1.325
-1.285
-1.315
-1.24
-1.22
-1.205
-1.175
-1.145
-1.22
-1.225
-1.29
-1.325
-1.27
-1.22
-1.25
-1.18
-1.185
-1.15
-1.2
-1.2
-1.275
-1.325
-1.32
-1.3
-1.255
-1.155
-1.155
-1.12
-1.18
-1.23
-1.305
-1.285
-1.265
-1.215
-1.195
-1.12
-1.14
-1.135
-1.195
-1.265
-1.33
-1.28
-1.255
-1.185
-1.165
-1.16
-1.1
-1.05
-1.205
-1.245
-1.28
-1.26
-1.245
-1.205
-1.17
-1.095
-1.13
-1.105
-1.045
-1.14
-1.195
-1.2
-1.245
-1.19
-1.15
-1.155
-1.175
-1.08
-1.11
-1.14
-1.215
-1.185
-1.205
-1.105
-1.135
-1.065
-1.14
-1.06
-1.17
-1.19
-1.26
-1.245
-1.26
-1.155
-1.12
-1.1
-1.125
-1.12
-1.145
-1.21
-1.205
-1.24
-1.245
-1.18
-1.14
-1.115
-1.05
-1.095
-1.165
-1.23
-1.215
-1.315
-1.25
-1.195
-1.105
-1.085
-1.1
-1.15
-1.19
-1.25
-1.225
-1.25
-1.205
-1.155
-1.095
-1.145
-1.16
-1.17
-1.21
-1.23
-1.265
-1.29
-1.15
-1.115
-0.975
-0.915
-0.855
-0.84
-0.79
-0.805
-0.73
-0.715
-0.73
-0.765
-0.81
-0.875
-0.905
-0.94
-1.095
-1.33
-1.415
-1.475
-1.44
-1.375
-1.295
-1.3
-1.255
-1.305
-1.305
-1.31
-1.335
-1.32
-1.255
-1.19
-1.11
-1.07
-1.055
-1.11
-1.12
-1.215
-1.17
-1.16
-1.14
-1.07
-0.98
-1.04
-1.03
-1.065
-1.115
-1.165
-1.145
-1.185
-1.115
-1.1
-1.04
-0.97
-0.995
-1.06
-1.07
-1.175
-1.16
-1.115
-1.115
-1.06
-1.01
-0.94
-0.975
-1.02
-1.115
-1.18
-1.145
-1.17
-1.065
-0.985
-0.995
-0.975
-0.98
-1.08
-1.05
-1.11
-1.04
-1.14
-1.05
-0.985
-0.915
-0.93
-0.92
-0.985
-1.02
-1.12
-1.12
-1.065
-0.965
-0.965
-0.945
-0.92
-0.925
-1.0
-1.015
-1.1
-1.045
-1.05
-0.95
-0.91
-0.875
-0.89
-0.93
-0.915
-0.97
-1.025
-0.975
-0.97
-0.93
-0.87
-0.85
-0.805
-0.845
-0.925
-0.895
-0.96
-0.9
-0.89
-0.855
-0.74
-0.69
-0.75
-0.735
-0.83
-0.86
-0.885
-0.855
-0.835
-0.81
-0.67
-0.725
-0.735
-0.76
-0.8
-0.855
-0.865
-0.88
-0.84
-0.805
-0.735
-0.745
-0.775
-0.83
-0.885
-0.93
-0.94
-0.925
-0.95
-0.915
-0.825
-0.865
-0.885
-0.935
-1.005
-1.075
-1.06
-1.055
-1.03
-1.03
-0.945
-0.865
-0.87
-0.995
-1.0
-1.075
-1.09
-1.085
-1.085
-1.05
-0.945
-0.91
-0.995
-1.05
-1.025
-1.14
-1.025
-1.115
-1.07
-1.0
-0.94
-0.95
-0.93
-1.01
-1.065
-1.14
-1.145
-1.125
-1.045
-1.005
-0.96
-1.0
-0.98
-1.02
-1.015
-1.06
-1.065
-1.1
-1.06
-1.025
-0.93
-0.985
-0.86
-0.96
-1.005
-1.085
-1.11
-1.12
-0.995
-1.005
-0.895
-0.92
-0.92
-1.025
-0.98
-1.05
-1.05
-1.065
-0.97
-0.96
-0.935
-0.89
-0.955
-0.98
-0.99
-1.04
-1.085
-1.075
-1.03
-0.91
-0.915
-0.93
-0.95
-1.015
-0.98
-1.055
-1.03
-0.98
-0.965
-0.915
-0.9
-0.92
-0.875
-0.93
-0.935
-1.06
-1.08
-1.04
-1.05
-0.92
-0.895
-0.89
-0.925
-0.94
-1.03
-1.055
-1.0
-1.035
-1.005
-0.875
-0.87
-0.91
-0.93
-0.975
-1.035
-1.06
-1.02
-1.03
-1.02
-0.945
-0.93
-0.925
-0.895
-0.905
-1.065
-1.06
-0.995
-0.98
-0.965
-0.895
-0.87
-0.915
-0.95
-0.94
-0.985
-1.06
-1.06
-0.985
-0.98
-0.905
-0.885
-0.89
-0.92
-0.94
-1.03
-1.035
-1.015
-0.985
-1.0
-0.905
-0.88
-0.89
-0.89
-0.94
-0.99
-1.04
-1.045
-0.995
-1.015
-0.855
-0.835
-0.865
-0.9
-0.965
-1.025
-1.015
-0.99
-0.97
-0.95
-0.895
-0.885
-0.905
-0.835
-0.875
-0.99
-0.985
-1.065
-0.99
-0.97
-0.84
-0.84
-0.88
-0.89
-0.945
-1.03
-1.005
-0.995
-0.945
-0.915
-0.845
-0.84
-0.85
-0.885
-0.94
-1.0
-0.995
-0.955
-0.93
-0.88
-0.87
-0.845
-0.845
-0.87
-0.9
-0.975
-0.98
-0.97
-0.865
-0.875
-0.78
-0.78
-0.78
-0.89
-0.895
-0.975
-0.97
-0.93
-0.885
-0.81
-0.755
-0.75
-0.77
-0.88
-0.91
-0.965
-0.93
-0.935
-0.88
-0.855
-0.8
-0.795
-0.845
-0.905
-0.925
-0.995
-0.965
-0.935
-0.875
-0.84
-0.795
-0.795
-0.855
-0.93
-0.97
-0.995
-0.985
-0.94
-0.95
-0.82
-0.785
-0.84
-0.835
-0.925
-0.945
-0.975
-0.915
-0.95
-0.935
-0.885
-0.82
-0.8
-0.805
-0.935
-0.945
-0.985
-0.95
-0.945
-0.885
-0.84
-0.855
-0.845
-0.875
-0.885
-0.885
-0.865
-0.77
-0.66
-0.53
-0.455
-0.375
-0.305
-0.385
-0.43
-0.595
-0.7
-0.71
-0.695
-0.73
-0.77
-0.895
-1.05
-1.06
-1.105
-1.15
-1.165
-1.17
-1.105
-1.025
-0.925
-0.845
-0.89
-0.885
-0.92
-0.97
-0.94
-0.96
-0.93
-0.855
-0.775
-0.745
-0.785
-0.83
-0.805
-0.89
-0.925
-0.91
-0.87
-0.81
-0.76
-0.775
-0.785
-0.79
-0.815
-0.92
-0.875
-0.875
-0.84
-0.78
-0.74
-0.745
-0.72
-0.785
-0.8
-0.87
-0.845
-0.855
-0.83
-0.795
-0.72
-0.725
-0.69
-0.775
-0.815
-0.845
-0.865
-0.835
-0.805
-0.695
-0.68
-0.695
-0.71
-0.74
-0.825
-0.815
-0.845
-0.8
-0.755
-0.705
-0.685
-0.64
-0.695
-0.745
-0.79
-0.765
-0.795
-0.745
-0.715
-0.665
-0.63
-0.625
-0.68
-0.705
-0.755
-0.79
-0.765
-0.725
-0.67
-0.645
-0.56
-0.55
-0.59
-0.62
-0.68
-0.74
-0.68
-0.685
-0.645
-0.515
-0.48
-0.57
-0.525
-0.565
-0.58
-0.68
-0.66
-0.635
-0.545
-0.395
-0.475
-0.5
-0.485
-0.54
-0.59
-0.6
-0.595
-0.585
-0.55
-0.47
-0.44
-0.46
-0.48
-0.555
-0.655
-0.69
-0.62
-0.605
-0.565
-0.525
-0.535
-0.515
-0.625
-0.7
-0.7
-0.72
-0.705
-0.655
-0.675
-0.625
-0.65
-0.6
-0.685
-0.745
-0.825
-0.82
-0.84
-0.77
-0.735
-0.615
-0.685
-0.74
-0.705
-0.75
-0.82
-0.8
-0.84
-0.785
-0.755
-0.665
-0.705
-0.72
-0.725
-0.78
-0.82
-0.805
-0.825
-0.815
-0.725
-0.68
-0.71
-0.67
-0.695
-0.725
-0.8
-0.815
-0.845
-0.825
-0.77
-0.7
-0.69
-0.7
-0.755
-0.69
-0.845
-0.815
-0.83
-0.79
-0.73
-0.66
-0.69
-0.71
-0.765
-0.735
-0.805
-0.775
-0.78
-0.745
-0.71
-0.65
-0.645
-0.655
-0.715
-0.725
-0.77
-0.805
-0.82
-0.705
-0.74
-0.655
-0.63
-0.64
-0.695
-0.71
-0.79
-0.725
-0.76
-0.745
-0.65
-0.62
-0.645
-0.655
-0.71
-0.735
-0.775
-0.82
-0.765
-0.705
-0.655
-0.575
-0.59
-0.585
-0.71
-0.735
-0.765
-0.76
-0.75
-0.695
-0.63
-0.605
-0.6
-0.635
-0.695
-0.715
-0.73
-0.755
-0.74
-0.66
-0.56
-0.635
-0.605
-0.635
-0.705
-0.78
-0.78
-0.745
-0.71
-0.705
-0.635
-0.62
-0.635
-0.58
-0.66
-0.745
-0.735
-0.765
-0.71
-0.655
-0.655
-0.585
-0.625
-0.645
-0.675
-0.745
-0.75
-0.7
-0.705
-0.68
-0.575
-0.565
-0.615
-0.625
-0.7
-0.69
-0.74
-0.735
-0.7
-0.65
-0.525
-0.605
-0.61
-0.62
-0.63
-0.735
-0.705
-0.71
-0.675
-0.625
-0.565
-0.595
-0.57
-0.63
-0.655
-0.785
-0.73
-0.735
-0.66
-0.67
-0.565
-0.58
-0.535
-0.595
-0.635
-0.71
-0.67
-0.705
-0.69
-0.64
-0.53
-0.58
-0.585
-0.605
-0.6
-0.635
-0.715
-0.74
-0.655
-0.655
-0.57
-0.54
-0.51
-0.645
-0.635
-0.67
-0.715
-0.735
-0.67
-0.61
-0.53
-0.555
-0.505
-0.595
-0.64
-0.725
-0.72
-0.64
-0.605
-0.625
-0.54
-0.545
-0.58
-0.63
-0.625
-0.67
-0.665
-0.63
-0.585
-0.6
-0.52
-0.505
-0.57
-0.6
-0.59
-0.71
-0.645
-0.645
-0.59
-0.55
-0.51
-0.535
-0.54
-0.595
-0.64
-0.66
-0.685
-0.685
-0.635
-0.525
-0.515
-0.495
-0.51
-0.59
-0.625
-0.635
-0.63
-0.585
-0.55
-0.5
-0.48
-0.5
-0.495
-0.575
-0.57
-0.575
-0.605
-0.625
-0.575
-0.475
-0.455
-0.49
-0.48
-0.565
-0.61
-0.565
-0.565
-0.58
-0.525
-0.455
-0.43
-0.485
-0.51
-0.56
-0.635
-0.63
-0.65
-0.605
-0.57
-0.525
-0.515
-0.535
-0.585
-0.51
-0.625
-0.55
-0.64
-0.645
-0.555
-0.54
-0.525
-0.51
-0.535
-0.565
-0.655
-0.67
-0.6
-0.58
-0.59
-0.45
-0.48
-0.52
-0.57
-0.56
-0.625
-0.615
-0.565
-0.61
-0.565
-0.485
-0.52
-0.52
-0.545
-0.54
-0.64
-0.65
-0.58
-0.535
-0.375
-0.24
-0.215
-0.15
-0.075
-0.095
-0.13
-0.13
-0.185
-0.255
-0.315
-0.235
-0.255
-0.4
-0.555
-0.685
-0.85
-0.835
-0.845
-0.79
-0.71
-0.625
-0.61
-0.595
-0.62
-0.675
-0.705
-0.66
-0.605
-0.57
-0.465
-0.4
-0.475
-0.445
-0.52
-0.48
-0.57
-0.575
-0.555
-0.495
-0.44
-0.45
-0.43
-0.455
-0.49
-0.525
-0.575
-0.575
-0.56
-0.525
-0.47
-0.4
-0.455
-0.42
-0.475
-0.455
-0.505
-0.545
-0.525
-0.495
-0.43
-0.375
-0.39
-0.42
-0.5
-0.465
-0.495
-0.5
-0.545
-0.435
-0.41
-0.39
-0.355
-0.395
-0.455
-0.475
-0.47
-0.495
-0.49
-0.455
-0.405
-0.34
-0.365
-0.33
-0.41
-0.49
-0.49
-0.46
-0.455
-0.405
-0.33
-0.375
-0.405
-0.325
-0.345
-0.435
-0.47
-0.45
-0.475
-0.355
-0.285
-0.3
-0.295
-0.315
-0.37
-0.405
-0.41
-0.43
-0.34
-0.3
-0.24
-0.235
-0.22
-0.245
-0.3
-0.36
-0.325
-0.33
-0.305
-0.245
-0.15
-0.155
-0.145
-0.175
-0.225
-0.295
-0.29
-0.305
-0.265
-0.285
-0.13
-0.135
-0.15
-0.12
-0.25
-0.335
-0.295
-0.295
-0.31
-0.21
-0.17
-0.17
-0.21
-0.27
-0.32
-0.35
-0.35
-0.365
-0.345
-0.325
-0.26
-0.27
-0.29
-0.345
-0.38
-0.475
-0.475
-0.43
-0.41
-0.375
-0.34
-0.33
-0.345
-0.4
-0.425
-0.48
-0.515
-0.5
-0.45
-0.45
-0.335
-0.355
-0.35
-0.39
-0.36
-0.465
-0.505
-0.495
-0.425
-0.435
-0.365
-0.385
-0.37
-0.405
-0.41
-0.495
-0.485
-0.53
-0.455
-0.385
-0.305
-0.375
-0.37
-0.405
-0.45
-0.49
-0.49
-0.475
-0.425
-0.38
-0.335
-0.375
-0.325
-0.355
-0.465
-0.5
-0.495
-0.465
-0.455
-0.36
-0.33
-0.345
-0.34
-0.41
-0.45
-0.43
-0.405
-0.41
-0.35
-0.355
-0.355
-0.32
-0.325
-0.445
-0.415
-0.505
-0.44
-0.445
-0.375
-0.33
-0.275
-0.335
-0.375
-0.395
-0.41
-0.445
-0.46
-0.425
-0.385
-0.33
-0.365
-0.355
-0.31
-0.31
-0.375
-0.385
-0.415
-0.42
-0.345
-0.325
-0.265
-0.27
-0.305
-0.35
-0.44
-0.42
-0.41
-0.405
-0.385
-0.33
-0.275
-0.26
-0.355
-0.365
-0.43
-0.44
-0.405
-0.395
-0.4
-0.295
-0.275
-0.28
-0.32
-0.36
-0.44
-0.37
-0.46
-0.43
-0.34
-0.29
-0.305
-0.32
-0.275
-0.325
-0.405
-0.42
-0.39
-0.39
-0.35
-0.25
-0.265
-0.28
-0.315
-0.35
-0.435
-0.465
-0.33
-0.335
-0.35
-0.245
-0.245
-0.24
-0.31
-0.385
-0.465
-0.42
-0.41
-0.345
-0.33
-0.29
-0.235
-0.25
-0.32
-0.315
-0.395
-0.435
-0.405
-0.355
-0.31
-0.265
-0.235
-0.25
-0.295
-0.31
-0.39
-0.395
-0.395
-0.37
-0.33
-0.27
-0.255
-0.265
-0.27
-0.33
-0.41
-0.395
-0.385
-0.36
-0.28
-0.285
-0.265
-0.265
-0.205
-0.31
-0.395
-0.37
-0.37
-0.305
-0.27
-0.21
-0.225
-0.27
-0.33
-0.335
-0.41
-0.39
-0.37
-0.325
-0.275
-0.245
-0.2
-0.265
-0.3
-0.325
-0.395
-0.37
-0.365
-0.3
-0.295
-0.2
-0.21
-0.26
-0.275
-0.34
-0.37
-0.37
-0.315
-0.31
-0.28
-0.255
-0.23
-0.25
-0.345
-0.35
-0.29
-0.31
-0.395
-0.26
-0.22
-0.22
-0.17
-0.235
-0.32
-0.33
-0.33
-0.34
-0.315
-0.3
-0.145
-0.15
-0.17
-0.28
-0.245
-0.32
-0.33
-0.315
-0.3
-0.235
-0.16
-0.15
-0.16
-0.18
-0.25
-0.315
-0.27
-0.245
-0.24
-0.24
-0.18
-0.145
-0.165
-0.19
-0.235
-0.335
-0.33
-0.32
-0.275
-0.25
-0.155
-0.18
-0.19
-0.215
-0.285
-0.315
-0.33
-0.3
-0.275
-0.26
-0.205
-0.2
-0.16
-0.185
-0.265
-0.355
-0.325
-0.32
-0.32
-0.3
-0.205
-0.175
-0.17
-0.26
-0.26
-0.355
-0.36
-0.255
-0.25
-0.24
-0.17
-0.185
-0.185
-0.21
-0.245
-0.36
-0.325
-0.335
-0.3
-0.275
-0.195
-0.18
-0.145
-0.15
-0.11
-0.095
-0.035
0.085
0.215
0.305
0.415
0.335
0.25
0.1
0.03
-0.04
-0.145
-0.265
-0.31
-0.42
-0.44
-0.4
-0.36
-0.44
-0.39
-0.485
-0.485
-0.4
-0.315
-0.24
-0.19
-0.195
-0.215
-0.24
-0.29
-0.25
-0.3
-0.29
-0.225
-0.195
-0.155
-0.145
-0.145
-0.125
-0.22
-0.275
-0.28
-0.255
-0.205
-0.135
-0.125
-0.115
-0.135
-0.2
-0.225
-0.27
-0.245
-0.23
-0.15
-0.095
-0.11
-0.1
-0.11
-0.185
-0.205
-0.255
-0.265
-0.235
-0.16
-0.035
-0.065
-0.07
-0.095
-0.14
-0.215
-0.205
-0.185
-0.22
-0.16
-0.08
-0.065
-0.075
-0.105
-0.13
-0.175
-0.18
-0.19
-0.155
-0.145
-0.035
-0.07
-0.03
0.0
-0.13
-0.18
-0.18
-0.185
-0.14
-0.105
-0.03
-0.005
-0.02
-0.015
-0.035
-0.12
-0.115
-0.13
-0.1
-0.04
0.09
0.09
0.095
-0.01
-0.02
-0.11
-0.075
-0.065
-0.04
0.065
0.2
0.115
0.105
0.06
0.115
0.025
0.01
0.02
0.04
0.07
0.15
0.17
0.22
0.13
0.055
0.005
0.02
0.04
0.065
0.1
0.155
0.155
0.1
0.085
0.03
-0.04
-0.03
-0.015
0.03
0.07
0.11
0.095
0.02
0.005
-0.05
-0.075
-0.105
-0.11
-0.085
-0.025
-0.04
-0.005
0.02
-0.085
-0.13
-0.205
-0.225
-0.205
-0.175
-0.08
-0.02
-0.045
-0.065
-0.085
-0.115
-0.215
-0.165
-0.195
-0.13
-0.095
-0.08
-0.065
-0.1
-0.16
-0.205
-0.2
-0.17
-0.16
-0.095
-0.08
-0.01
-0.04
-0.065
-0.08
-0.08
-0.255
-0.245
-0.19
-0.14
-0.045
-0.065
-0.045
-0.095
-0.055
-0.165
-0.21
-0.18
-0.165
-0.085
-0.085
-0.055
-0.03
-0.045
-0.115
-0.17
-0.205
-0.19
-0.185
-0.11
-0.035
0.01
0.0
-0.005
-0.09
-0.17
-0.145
-0.155
-0.135
-0.095
-0.015
-0.07
-0.035
-0.085
-0.13
-0.11
-0.065
-0.095
-0.125
-0.09
0.03
-0.015
-0.025
-0.065
-0.06
-0.155
-0.115
-0.13
-0.03
0.0
0.0
0.015
-0.005
-0.05
-0.095
-0.16
-0.125
-0.115
-0.015
-0.045
0.0
-0.015
-0.01
-0.005
-0.065
-0.12
-0.14
-0.115
-0.06
-0.095
0.01
0.015
0.01
-0.03
-0.06
-0.145
-0.175
-0.125
-0.05
-0.065
0.015
0.045
0.035
-0.005
-0.06
-0.12
-0.11
-0.11
-0.05
-0.07
-0.02
0.015
-0.015
-0.03
-0.04
-0.11
-0.1
-0.095
-0.055
-0.07
0.005
0.005
-0.02
-0.06
-0.095
-0.115
-0.105
-0.075
-0.04
-0.03
0.045
0.05
0.005
-0.075
-0.085
-0.135
-0.16
-0.09
-0.025
0.025
0.075
0.035
0.01
-0.02
-0.065
-0.075
-0.07
-0.07
-0.03
0.0
0.035
0.055
0.02
-0.055
-0.12
-0.115
-0.125
-0.115
-0.055
0.09
0.055
0.005
0.06
-0.005
-0.1
-0.145
-0.14
-0.055
-0.02
0.07
0.03
0.005
0.015
0.0
-0.06
-0.13
-0.105
-0.075
-0.035
-0.015
0.1
0.05
0.065
0.02
-0.1
-0.115
-0.06
-0.02
-0.03
0.07
0.12
0.05
0.035
0.005
-0.05
-0.05
-0.125
-0.05
0.0
0.095
0.11
0.055
0.005
-0.015
-0.025
-0.045
-0.045
0.005
0.035
0.135
0.095
0.095
0.055
0.065
0.01
-0.05
-0.055
-0.035
-0.035
0.08
0.065
0.105
0.045
0.015
-0.04
-0.05
-0.115
-0.03
-0.015
0.17
0.035
0.03
0.025
-0.005
-0.095
-0.07
-0.115
-0.08
-0.015
0.08
0.115
0.08
0.01
-0.035
-0.09
-0.075
-0.095
-0.035
0.015
0.135
0.055
0.075
0.0
0.0
-0.055
-0.065
-0.065
-0.065
-0.005
0.065
0.025
0.065
-0.005
-0.065
-0.125
-0.065
0.0
0.115
0.24
0.31
0.425
0.46
0.53
0.505
0.405
0.32
0.25
0.215
0.29
0.255
0.18
0.065
-0.11
-0.28
-0.32
-0.29
-0.26
-0.17
-0.11
-0.155
-0.095
-0.07
-0.145
-0.14
-0.18
-0.105
-0.08
-0.045
0.03
0.07
0.065
0.085
0.06
-0.005
-0.06
-0.055
-0.01
0.02
0.06
0.12
0.135
0.135
0.04
0.04
-0.005
-0.03
0.015
0.03
0.11
0.14
0.08
0.12
0.03
-0.035
-0.045
-0.015
-0.005
0.02
0.1
0.155
0.195
0.14
0.055
0.005
-0.01
0.015
0.005
0.07
0.17
0.16
0.175
0.12
0.07
0.02
-0.055
-0.03
0.02
0.15
0.205
0.185
0.155
0.14
0.035
0.005
-0.04
0.035
0.08
0.195
0.19
0.17
0.185
0.15
0.08
0.005
0.04
0.035
0.09
0.11
0.185
0.25
0.275
0.23
0.155
0.09
0.13
0.165
0.115
0.165
0.245
0.24
0.265
0.265
0.23
0.155
0.1
0.15
0.26
0.3
0.34
0.35
0.3
0.27
0.26
0.185
0.19
0.215
0.24
0.265
0.35
0.34
0.345
0.31
0.24
0.13
0.135
0.16
0.22
0.26
0.31
0.25
0.245
0.18
0.135
0.0
0.02
0.05
0.045
0.1
0.21
0.155
0.115
0.045
0.015
-0.055
-0.055
-0.07
-0.005
0.04
0.08
0.02
0.035
-0.08
0.0
-0.14
-0.085
-0.055
-0.035
0.0
0.025
0.04
0.0
-0.075
-0.11
-0.13
-0.1
-0.09
-0.065
-0.035
0.0
0.035
-0.005
-0.085
-0.155
-0.215
-0.205
-0.075
-0.04
-0.02
0.03
-0.045
-0.075
-0.13
-0.15
-0.2
-0.165
-0.125
-0.08
0.0
0.015
-0.03
-0.09
-0.095
-0.2
-0.175
-0.165
-0.175
-0.14
-0.015
0.0
-0.055
-0.075
-0.07
-0.165
-0.23
-0.205
-0.145
-0.1
-0.065
-0.02
-0.06
-0.075
-0.12
-0.215
-0.195
-0.155
-0.17
-0.13
-0.075
-0.03
-0.025
-0.08
-0.155
-0.225
-0.21
-0.205
-0.205
-0.145
-0.06
-0.06
-0.1
-0.095
-0.23
-0.23
-0.265
-0.22
-0.215
-0.165
-0.105
-0.025
-0.105
-0.16
-0.18
-0.275
-0.29
-0.305
-0.265
-0.205
-0.095
-0.115
-0.145
-0.14
-0.21
-0.3
-0.285
-0.275
-0.245
-0.195
-0.135
-0.22
-0.185
-0.21
-0.245
-0.3
-0.32
-0.34
-0.285
-0.24
-0.18
-0.175
-0.175
-0.165
-0.275
-0.37
-0.385
-0.36
-0.27
-0.26
-0.23
-0.24
-0.23
-0.19
-0.295
-0.36
-0.335
-0.375
-0.34
-0.295
-0.21
-0.195
-0.24
-0.33
-0.37
-0.41
-0.4
-0.375
-0.32
-0.295
-0.195
-0.225
-0.275
-0.33
-0.395
-0.425
-0.395
-0.395
-0.4
-0.34
-0.28
-0.285
-0.275
-0.365
-0.41
-0.445
-0.485
-0.43
-0.36
-0.33
-0.34
-0.295
-0.335
-0.395
-0.42
-0.46
-0.455
-0.39
-0.38
-0.3
-0.335
-0.355
-0.395
-0.435
-0.47
-0.505
-0.495
-0.465
-0.395
-0.365
-0.38
-0.385
-0.395
-0.43
-0.48
-0.47
-0.475
-0.48
-0.44
-0.365
-0.32
-0.33
-0.425
-0.515
-0.535
-0.525
-0.515
-0.46
-0.41
-0.355
-0.33
-0.365
-0.395
-0.475
-0.585
-0.52
-0.455
-0.485
-0.46
-0.39
-0.385
-0.415
-0.44
-0.46
-0.525
-0.565
-0.605
-0.525
-0.49
-0.385
-0.43
-0.45
-0.495
-0.575
-0.615
-0.63
-0.615
-0.585
-0.54
-0.485
-0.485
-0.525
-0.595
-0.58
-0.62
-0.65
-0.625
-0.6
-0.585
-0.505
-0.54
-0.53
-0.555
-0.555
-0.64
-0.65
-0.67
-0.685
-0.655
-0.605
-0.555
-0.54
-0.565
-0.595
-0.675
-0.71
-0.735
-0.645
-0.63
-0.625
-0.6
-0.595
-0.635
-0.67
-0.695
-0.615
-0.575
-0.45
-0.37
-0.27
-0.22
-0.115
-0.1
-0.2
-0.33
-0.455
-0.525
-0.425
-0.465
-0.525
-0.625
-0.83
-1.0
-0.945
-1.035
-0.985
-0.97
-0.91
-0.79
-0.785
-0.77
-0.745
-0.8
-0.855
-0.85
-0.825
-0.795
-0.725
-0.67
-0.585
-0.64
-0.7
-0.75
-0.76
-0.81
-0.775
-0.78
-0.735
-0.695
-0.59
-0.585
-0.625
-0.75
-0.77
-0.82
-0.78
-0.8
-0.7
-0.625
-0.665
-0.665
-0.665
-0.725
-0.835
-0.855
-0.795
-0.735
-0.745
-0.685
-0.67
-0.67
-0.695
-0.765
-0.8
-0.84
-0.775
-0.785
-0.665
-0.665
-0.695
-0.68
-0.755
-0.725
-0.805
-0.83
-0.845
-0.78
-0.78
-0.655
-0.665
-0.64
-0.705
-0.77
-0.84
-0.875
-0.815
-0.795
-0.73
-0.675
-0.71
-0.725
-0.66
-0.745
-0.795
-0.775
-0.81
-0.785
-0.745
-0.66
-0.645
-0.665
-0.74
-0.76
-0.85
-0.83
-0.79
-0.735
-0.695
-0.55
-0.625
-0.595
-0.655
-0.665
-0.73
-0.755
-0.76
-0.705
-0.605
-0.53
-0.575
-0.58
-0.605
-0.645
-0.69
-0.67
-0.71
-0.685
-0.62
-0.535
-0.55
-0.58
-0.605
-0.675
-0.745
-0.72
-0.765
-0.65
-0.635
-0.635
-0.66
-0.67
-0.755
-0.825
-0.905
-0.795
-0.795
-0.805
-0.78
-0.775
-0.76
-0.79
-0.86
-0.895
-0.93
-0.92
-0.905
-0.865
-0.795
-0.83
-0.815
-0.845
-0.925
-0.895
-0.985
-0.97
-0.97
-0.855
-0.835
-0.81
-0.8
-0.825
-0.915
-0.965
-0.985
-0.97
-0.965
-0.925
-0.86
-0.855
-0.82
-0.83
-0.92
-1.005
-0.995
-1.055
-0.995
-0.96
-0.865
-0.85
-0.81
-0.87
-0.93
-0.935
-0.985
-1.06
-0.965
-0.91
-0.85
-0.86
-0.835
-0.88
-0.905
-0.99
-0.965
-1.0
-0.94
-0.895
-0.825
-0.845
-0.84
-0.865
-0.925
-0.935
-0.985
-1.025
-0.94
-0.89
-0.815
-0.84
-0.87
-0.835
-0.875
-1.005
-0.985
-0.975
-0.97
-0.905
-0.805
-0.825
-0.82
-0.865
-0.885
-0.945
-0.915
-0.935
-0.935
-0.915
-0.82
-0.805
-0.85
-0.955
-0.85
-0.98
-0.92
-0.95
-0.96
-0.9
-0.79
-0.83
-0.82
-0.825
-0.885
-1.02
-1.015
-0.95
-0.9
-0.885
-0.87
-0.785
-0.845
-0.84
-0.88
-0.975
-0.99
-0.985
-0.945
-0.89
-0.785
-0.835
-0.815
-0.905
-0.935
-0.955
-0.98
-0.99
-0.885
-0.855
-0.8
-0.81
-0.83
-0.865
-0.92
-0.97
-0.98
-0.955
-0.89
-0.86
-0.815
-0.775
-0.83
-0.925
-0.935
-0.99
-1.025
-0.955
-0.87
-0.87
-0.835
-0.795
-0.83
-0.865
-0.95
-1.015
-1.045
-0.915
-0.895
-0.83
-0.82
-0.8
-0.82
-0.875
-0.94
-0.99
-0.945
-0.895
-0.9
-0.845
-0.805
-0.81
-0.85
-0.875
-0.915
-0.975
-0.925
-0.91
-0.885
-0.785
-0.845
-0.8
-0.82
-0.865
-0.95
-0.97
-0.98
-0.985
-0.885
-0.845
-0.83
-0.81
-0.845
-0.865
-0.91
-0.94
-0.955
-0.895
-0.89
-0.805
-0.8
-0.755
-0.815
-0.865
-0.97
-0.88
-0.91
-0.87
-0.86
-0.85
-0.77
-0.745
-0.79
-0.9
-0.885
-0.925
-0.945
-0.9
-0.83
-0.75
-0.725
-0.765
-0.85
-0.785
-0.81
-0.885
-0.915
-0.88
-0.83
-0.79
-0.78
-0.79
-0.81
-0.8
-0.875
-0.87
-0.88
-0.87
-0.82
-0.78
-0.72
-0.745
-0.805
-0.79
-0.84
-0.845
-0.835
-0.845
-0.745
-0.71
-0.72
-0.735
-0.82
-0.84
-0.84
-0.835
-0.865
-0.825
-0.8
-0.7
-0.725
-0.74
-0.74
-0.755
-0.82
-0.84
-0.845
-0.77
-0.735
-0.725
-0.7
-0.69
-0.74
-0.805
-0.88
-0.835
-0.79
-0.755
-0.7
-0.665
-0.665
-0.675
-0.67
-0.735
-0.805
-0.785
-0.79
-0.735
-0.685
-0.64
-0.655
-0.655
-0.64
-0.74
-0.815
-0.76
-0.76
-0.73
-0.665
-0.64
-0.65
-0.715
-0.74
-0.76
-0.82
-0.78
-0.805
-0.735
-0.62
-0.635
-0.65
-0.695
-0.77
-0.795
-0.83
-0.77
-0.765
-0.77
-0.695
-0.68
-0.645
-0.685
-0.74
-0.805
-0.835
-0.82
-0.78
-0.76
-0.64
-0.615
-0.59
-0.685
-0.71
-0.785
-0.845
-0.805
-0.81
-0.685
-0.63
-0.63
-0.695
-0.7
-0.665
-0.735
-0.67
-0.65
-0.535
-0.415
-0.26
-0.185
-0.12
-0.115
-0.205
-0.36
-0.5
-0.515
-0.515
-0.55
-0.54
-0.625
-0.795
-0.915
-0.93
-0.95
-0.935
-0.975
-0.855
-0.82
-0.77
-0.645
-0.71
-0.74
-0.78
-0.775
-0.76
-0.795
-0.68
-0.665
-0.6
-0.62
-0.59
-0.6
-0.66
-0.775
-0.685
-0.655
-0.635
-0.62
-0.53
-0.56
-0.5
-0.595
-0.645
-0.72
-0.72
-0.695
-0.635
-0.625
-0.54
-0.53
-0.53
-0.6
-0.585
-0.69
-0.695
-0.71
-0.67
-0.6
-0.52
-0.5
-0.475
-0.565
-0.635
-0.665
-0.68
-0.64
-0.58
-0.57
-0.525
-0.535
-0.555
-0.61
-0.645
-0.62
