# TIPE ECG 2021 - ECG-ID Database v1.0.0 par Physionet
# [Numéro de la personne, Période d'échantillonnage, Prénom, Age, Sexe, Date de l'enregistrement]
[38, 0.002, Tyler, 28, H, 12.05.2005]
0.345
0.34
0.375
0.38
0.39
0.425
0.415
0.435
0.43
0.45
0.43
0.425
0.405
0.355
0.38
0.435
0.41
0.415
0.36
0.38
0.4
0.375
0.42
0.43
0.405
0.355
0.31
0.35
0.365
0.355
0.42
0.475
0.455
0.445
0.435
0.405
0.45
0.425
0.4
0.405
0.425
0.41
0.42
0.4
0.415
0.425
0.42
0.42
0.42
0.365
0.37
0.43
0.425
0.415
0.37
0.425
0.43
0.455
0.4
0.395
0.44
0.44
0.455
0.45
0.445
0.445
0.425
0.44
0.42
0.44
0.4
0.435
0.415
0.425
0.475
0.45
0.435
0.38
0.415
0.35
0.355
0.385
0.415
0.385
0.375
0.355
0.38
0.435
0.36
0.335
0.365
0.3
0.39
0.4
0.38
0.38
0.37
0.4
0.37
0.375
0.37
0.345
0.36
0.365
0.375
0.36
0.35
0.36
0.375
0.37
0.355
0.375
0.35
0.33
0.355
0.36
0.38
0.365
0.39
0.36
0.37
0.365
0.37
0.39
0.345
0.34
0.34
0.36
0.34
0.375
0.365
0.365
0.295
0.345
0.345
0.315
0.295
0.32
0.315
0.315
0.39
0.435
0.47
0.415
0.4
0.43
0.545
0.695
0.735
0.775
0.825
0.715
0.66
0.63
0.665
0.61
0.56
0.555
0.475
0.365
0.32
0.24
0.205
0.27
0.295
0.245
0.29
0.31
0.285
0.285
0.31
0.335
0.335
0.325
0.37
0.345
0.285
0.305
0.315
0.32
0.305
0.32
0.315
0.32
0.295
0.3
0.245
0.24
0.22
0.195
0.2
0.19
0.285
0.27
0.255
0.225
0.27
0.275
0.28
0.285
0.3
0.295
0.27
0.225
0.265
0.315
0.315
0.245
0.26
0.295
0.315
0.305
0.32
0.33
0.335
0.34
0.35
0.375
0.375
0.405
0.445
0.435
0.425
0.385
0.345
0.4
0.39
0.425
0.425
0.445
0.42
0.42
0.445
0.47
0.465
0.475
0.455
0.48
0.455
0.48
0.53
0.49
0.43
0.48
0.47
0.455
0.51
0.545
0.53
0.535
0.53
0.54
0.545
0.535
0.565
0.59
0.615
0.61
0.58
0.64
0.63
0.63
0.555
0.595
0.605
0.61
0.635
0.615
0.62
0.685
0.625
0.59
0.64
0.655
0.64
0.67
0.68
0.685
0.635
0.67
0.65
0.66
0.615
0.6
0.615
0.635
0.62
0.59
0.555
0.57
0.525
0.525
0.525
0.485
0.45
0.48
0.535
0.4
0.37
0.395
0.335
0.37
0.32
0.355
0.365
0.31
0.285
0.31
0.3
0.34
0.315
0.28
0.23
0.23
0.255
0.29
0.305
0.315
0.28
0.245
0.27
0.24
0.24
0.24
0.225
0.25
0.28
0.265
0.28
0.32
0.285
0.26
0.225
0.235
0.235
0.275
0.245
0.235
0.285
0.27
0.22
0.255
0.27
0.22
0.22
0.235
0.265
0.315
0.31
0.31
0.29
0.295
0.24
0.3
0.3
0.295
0.285
0.24
0.3
0.295
0.265
0.235
0.25
0.265
0.25
0.33
0.325
0.25
0.26
0.28
0.315
0.29
0.25
0.27
0.275
0.27
0.28
0.265
0.245
0.305
0.25
0.27
0.275
0.285
0.28
0.295
0.295
0.28
0.31
0.325
0.325
0.3
0.29
0.32
0.305
0.315
0.295
0.285
0.365
0.375
0.305
0.32
0.31
0.34
0.32
0.29
0.185
0.24
0.3
0.28
0.275
0.32
0.28
0.21
0.235
0.25
0.215
0.24
0.27
0.27
0.28
0.28
0.28
0.27
0.24
0.235
0.26
0.255
0.27
0.28
0.255
0.255
0.245
0.19
0.28
0.26
0.235
0.26
0.285
0.265
0.24
0.245
0.255
0.285
0.28
0.265
0.24
0.265
0.305
0.305
0.305
0.235
0.25
0.24
0.3
0.26
0.285
0.255
0.21
0.205
0.23
0.23
0.25
0.245
0.16
0.185
0.21
0.205
0.235
0.225
0.24
0.29
0.225
0.295
0.315
0.405
0.47
0.52
0.585
0.595
0.65
0.68
0.645
0.57
0.525
0.545
0.545
0.57
0.525
0.415
0.3
0.245
0.17
0.245
0.32
0.295
0.23
0.255
0.215
0.245
0.28
0.27
0.265
0.295
0.3
0.27
0.285
0.32
0.35
0.37
0.29
0.265
0.22
0.25
0.285
0.3
0.285
0.295
0.34
0.265
0.28
0.28
0.24
0.235
0.315
0.33
0.305
0.33
0.33
0.33
0.32
0.29
0.26
0.27
0.335
0.36
0.35
0.34
0.37
0.33
0.355
0.35
0.29
0.3
0.31
0.32
0.295
0.29
0.295
0.29
0.285
0.275
0.29
0.305
0.27
0.295
0.335
0.35
0.285
0.27
0.255
0.285
0.295
0.28
0.325
0.31
0.28
0.335
0.335
0.34
0.315
0.29
0.25
0.28
0.305
0.255
0.255
0.32
0.365
0.31
0.295
0.35
0.305
0.325
0.325
0.31
0.325
0.34
0.365
0.315
0.33
0.39
0.37
0.38
0.32
0.355
0.345
0.405
0.365
0.38
0.435
0.415
0.37
0.385
0.375
0.33
0.355
0.345
0.37
0.37
0.38
0.37
0.335
0.325
0.285
0.285
0.285
0.315
0.32
0.275
0.255
0.235
0.2
0.2
0.175
0.17
0.13
0.165
0.155
0.095
0.065
0.1
0.02
0.02
0.045
-0.005
0.06
0.07
0.075
0.035
0.015
-0.005
0.0
-0.01
-0.01
-0.01
-0.015
0.0
-0.02
-0.055
-0.01
-0.045
-0.08
-0.035
-0.015
-0.08
-0.045
0.0
-0.04
-0.04
-0.02
0.0
-0.04
-0.03
-0.005
-0.04
0.0
-0.06
-0.075
-0.065
-0.035
-0.055
-0.055
-0.025
-0.03
-0.075
-0.095
-0.05
-0.08
-0.08
-0.085
-0.105
-0.095
-0.08
-0.075
-0.11
-0.095
-0.055
-0.04
-0.075
-0.08
-0.05
-0.075
-0.06
-0.09
-0.095
-0.05
-0.035
-0.12
-0.125
-0.15
-0.1
-0.065
-0.1
-0.115
-0.11
-0.07
-0.075
-0.065
-0.045
-0.1
-0.15
-0.17
-0.165
-0.14
-0.135
-0.085
-0.11
-0.12
-0.13
-0.12
-0.12
-0.135
-0.125
-0.125
-0.11
-0.105
-0.135
-0.135
-0.13
-0.15
-0.21
-0.165
-0.165
-0.15
-0.145
-0.095
-0.12
-0.16
-0.175
-0.205
-0.235
-0.205
-0.195
-0.235
-0.22
-0.18
-0.205
-0.205
-0.205
-0.185
-0.265
-0.26
-0.205
-0.19
-0.215
-0.17
-0.185
-0.225
-0.235
-0.255
-0.255
-0.22
-0.2
-0.265
-0.235
-0.19
-0.215
-0.245
-0.25
-0.255
-0.26
-0.225
-0.225
-0.26
-0.3
-0.235
-0.235
-0.225
-0.33
-0.315
-0.27
-0.27
-0.245
-0.27
-0.3
-0.26
-0.295
-0.29
-0.275
-0.285
-0.325
-0.305
-0.285
-0.335
-0.33
-0.265
-0.28
-0.27
-0.23
-0.185
-0.145
-0.115
-0.135
-0.05
0.005
0.02
0.035
0.035
-0.08
-0.085
-0.145
-0.12
-0.065
-0.065
-0.09
-0.17
-0.285
-0.34
-0.36
-0.35
-0.315
-0.23
-0.23
-0.29
-0.265
-0.22
-0.25
-0.23
-0.255
-0.24
-0.21
-0.245
-0.245
-0.25
-0.235
-0.215
-0.225
-0.315
-0.265
-0.245
-0.285
-0.28
-0.24
-0.28
-0.315
-0.2
-0.2
-0.245
-0.29
-0.26
-0.265
-0.335
-0.29
-0.31
-0.28
-0.245
-0.25
-0.305
-0.31
-0.3
-0.245
-0.275
-0.285
-0.27
-0.28
-0.29
-0.3
-0.32
-0.305
-0.305
-0.24
-0.245
-0.33
-0.32
-0.29
-0.275
-0.285
-0.295
-0.27
-0.265
-0.25
-0.255
-0.27
-0.27
-0.28
-0.34
-0.33
-0.29
-0.34
-0.325
-0.305
-0.27
-0.285
-0.24
-0.26
-0.285
-0.3
-0.28
-0.275
-0.28
-0.305
-0.285
-0.235
-0.225
-0.22
-0.215
-0.26
-0.215
-0.205
-0.195
-0.15
-0.14
-0.285
-0.25
-0.18
-0.21
-0.235
-0.13
-0.125
-0.155
-0.175
-0.17
-0.175
-0.145
-0.145
-0.175
-0.165
-0.175
-0.17
-0.19
-0.14
-0.15
-0.15
-0.165
-0.16
-0.145
-0.165
-0.165
-0.165
-0.205
-0.22
-0.225
-0.225
-0.215
-0.175
-0.23
-0.265
-0.305
-0.3
-0.335
-0.33
-0.3
-0.355
-0.38
-0.35
-0.39
-0.425
-0.385
-0.42
-0.435
-0.415
-0.445
-0.47
-0.455
-0.425
-0.485
-0.525
-0.505
-0.465
-0.455
-0.435
-0.495
-0.545
-0.53
-0.485
-0.525
-0.49
-0.465
-0.5
-0.5
-0.5
-0.495
-0.515
-0.53
-0.505
-0.525
-0.495
-0.52
-0.52
-0.49
-0.515
-0.54
-0.535
-0.525
-0.505
-0.535
-0.535
-0.515
-0.47
-0.49
-0.5
-0.505
-0.53
-0.455
-0.475
-0.515
-0.505
-0.47
-0.455
-0.485
-0.47
-0.48
-0.47
-0.45
-0.44
-0.48
-0.465
-0.47
-0.505
-0.525
-0.56
-0.54
-0.47
-0.455
-0.47
-0.465
-0.495
-0.485
-0.49
-0.515
-0.53
-0.5
-0.485
-0.545
-0.56
-0.54
-0.505
-0.505
-0.51
-0.525
-0.545
-0.565
-0.525
-0.48
-0.46
-0.56
-0.565
-0.525
-0.555
-0.62
-0.58
-0.54
-0.51
-0.53
-0.525
-0.54
-0.545
-0.57
-0.56
-0.545
-0.55
-0.56
-0.53
-0.505
-0.52
-0.575
-0.575
-0.57
-0.615
-0.64
-0.62
-0.595
-0.53
-0.57
-0.59
-0.605
-0.625
-0.605
-0.665
-0.665
-0.66
-0.64
-0.61
-0.615
-0.62
-0.63
-0.61
-0.6
-0.605
-0.67
-0.68
-0.69
-0.68
-0.63
-0.61
-0.635
-0.635
-0.58
-0.6
-0.64
-0.66
-0.66
-0.695
-0.64
-0.655
-0.67
-0.68
-0.65
-0.625
-0.635
-0.65
-0.67
-0.66
-0.67
-0.71
-0.705
-0.66
-0.635
-0.71
-0.695
-0.66
-0.66
-0.655
-0.66
-0.67
-0.69
-0.7
-0.72
-0.735
-0.685
-0.66
-0.665
-0.66
-0.66
-0.66
-0.665
-0.615
-0.57
-0.575
-0.535
-0.51
-0.535
-0.555
-0.53
-0.485
-0.385
-0.47
-0.53
-0.56
-0.5
-0.505
-0.57
-0.545
-0.525
-0.595
-0.655
-0.715
-0.77
-0.75
-0.73
-0.675
-0.67
-0.645
-0.715
-0.655
-0.64
-0.635
-0.615
-0.605
-0.63
-0.635
-0.69
-0.685
-0.645
-0.645
-0.675
-0.645
-0.615
-0.695
-0.705
-0.67
-0.685
-0.64
-0.645
-0.685
-0.625
-0.63
-0.69
-0.74
-0.68
-0.675
-0.685
-0.645
-0.615
-0.68
-0.69
-0.67
-0.66
-0.685
-0.64
-0.635
-0.69
-0.65
-0.685
-0.74
-0.65
-0.65
-0.695
-0.68
-0.735
-0.645
-0.625
-0.625
-0.685
-0.725
-0.685
-0.705
-0.695
-0.685
-0.64
-0.7
-0.765
-0.725
-0.615
-0.605
-0.6
-0.645
-0.675
-0.685
-0.685
-0.65
-0.635
-0.64
-0.62
-0.635
-0.645
-0.62
-0.66
-0.66
-0.665
-0.63
-0.625
-0.64
-0.61
-0.66
-0.65
-0.61
-0.615
-0.575
-0.61
-0.615
-0.595
-0.58
-0.58
-0.57
-0.55
-0.585
-0.615
-0.66
-0.555
-0.52
-0.5
-0.54
-0.535
-0.59
-0.615
-0.595
-0.58
-0.535
-0.525
-0.55
-0.525
-0.565
-0.595
-0.555
-0.56
-0.57
-0.595
-0.56
-0.51
-0.575
-0.605
-0.57
-0.635
-0.64
-0.67
-0.62
-0.645
-0.66
-0.685
-0.715
-0.685
-0.685
-0.72
-0.77
-0.76
-0.775
-0.735
-0.71
-0.775
-0.785
-0.785
-0.76
-0.805
-0.815
-0.81
-0.805
-0.81
-0.795
-0.785
-0.825
-0.82
-0.825
-0.835
-0.825
-0.785
-0.8
-0.805
-0.82
-0.89
-0.885
-0.845
-0.805
-0.775
-0.795
-0.82
-0.83
-0.85
-0.815
-0.785
-0.835
-0.815
-0.825
-0.85
-0.85
-0.85
-0.845
-0.805
-0.8
-0.925
-0.91
-0.875
-0.785
-0.82
-0.85
-0.84
-0.85
-0.835
-0.83
-0.815
-0.895
-0.85
-0.83
-0.82
-0.83
-0.815
-0.79
-0.835
-0.895
-0.87
-0.82
-0.84
-0.81
-0.875
-0.92
-0.875
-0.84
-0.875
-0.865
-0.855
-0.85
-0.86
-0.835
-0.83
-0.825
-0.815
-0.845
-0.86
-0.865
-0.825
-0.85
-0.84
-0.85
-0.88
-0.88
-0.87
-0.875
-0.835
-0.83
-0.86
-0.86
-0.84
-0.875
-0.935
-0.855
-0.8
-0.835
-0.9
-0.86
-0.85
-0.83
-0.875
-0.88
-0.835
-0.835
-0.91
-0.945
-0.86
-0.875
-0.845
-0.89
-0.895
-0.9
-0.895
-0.905
-0.865
-0.87
-0.88
-0.885
-0.86
-0.885
-0.825
-0.89
-0.92
-0.905
-0.895
-0.935
-0.85
-0.845
-0.895
-0.91
-0.91
-0.88
-0.91
-0.895
-0.895
-0.91
-0.85
-0.83
-0.92
-0.905
-0.89
-0.915
-0.915
-0.875
-0.895
-0.91
-0.925
-0.905
-0.93
-0.92
-0.89
-0.9
-0.91
-0.91
-0.885
-0.895
-0.83
-0.85
-0.875
-0.865
-0.87
-0.855
-0.845
-0.86
-0.855
-0.895
-0.955
-0.965
-0.925
-0.865
-0.865
-0.89
-0.91
-0.945
-0.92
-0.885
-0.87
-0.895
-0.89
-0.89
-0.87
-0.96
-0.9
-0.885
-0.945
-0.9
-0.905
-0.935
-0.93
-0.95
-0.915
-0.95
-0.935
-0.955
-0.955
-0.935
-0.895
-0.91
-0.935
-0.93
-0.885
-0.91
-0.92
-0.925
-0.9
-0.98
-0.98
-0.93
-0.93
-0.905
-0.9
-0.92
-0.935
-0.95
-0.965
-0.935
-0.935
-0.96
-0.93
-0.96
-0.905
-0.935
-0.96
-0.95
-0.93
-0.89
-0.935
-0.915
-0.975
-0.93
-0.95
-0.99
-1.0
-0.97
-0.965
-0.94
-0.94
-0.95
-0.945
-0.945
-0.87
-0.82
-0.885
-0.92
-0.9
-0.86
-0.795
-0.73
-0.695
-0.7
-0.67
-0.745
-0.74
-0.71
-0.765
-0.775
-0.74
-0.74
-0.805
-0.85
-0.925
-0.97
-0.99
-1.025
-1.045
-0.955
-0.965
-0.92
-0.915
-0.865
-0.88
-0.855
-0.85
-0.845
-0.895
-0.975
-0.92
-0.895
-0.9
-0.905
-0.93
-0.955
-0.965
-0.94
-0.94
-0.93
-0.93
-0.905
-0.895
-0.92
-0.915
-0.92
-0.91
-0.885
-0.915
-0.93
-0.86
-0.865
-0.88
-0.925
-0.94
-0.94
-0.93
-0.91
-0.94
-0.945
-0.905
-0.94
-0.915
-0.89
-0.91
-0.925
-0.87
-0.86
-0.985
-0.94
-0.875
-0.88
-0.885
-0.88
-0.89
-0.86
-0.86
-0.86
-0.995
-0.935
-0.915
-0.91
-0.88
-0.855
-0.89
-0.93
-0.9
-0.9
-0.87
-0.88
-0.905
-0.87
-0.855
-0.865
-0.845
-0.88
-0.855
-0.84
-0.855
-0.92
-0.87
-0.8
-0.765
-0.86
-0.865
-0.86
-0.85
-0.835
-0.84
-0.85
-0.815
-0.78
-0.83
-0.83
-0.835
-0.815
-0.795
-0.775
-0.8
-0.765
-0.755
-0.78
-0.745
-0.75
-0.765
-0.775
-0.78
-0.82
-0.82
-0.81
-0.785
-0.755
-0.75
-0.71
-0.735
-0.76
-0.745
-0.775
-0.785
-0.775
-0.775
-0.81
-0.795
-0.795
-0.755
-0.795
-0.755
-0.815
-0.875
-0.88
-0.9
-0.88
-0.905
-0.93
-0.96
-0.93
-0.93
-0.95
-0.93
-0.925
-0.965
-0.975
-0.945
-0.945
-0.965
-0.96
-0.975
-0.99
-1.015
-0.985
-1.03
-0.975
-0.985
-1.07
-1.09
-1.035
-0.98
-1.02
-0.995
-1.0
-1.005
-1.03
-1.015
-0.99
-1.005
-1.015
-1.015
-1.045
-1.025
-0.99
-1.005
-1.015
-1.01
-1.04
-1.065
-1.03
-1.06
-1.015
-1.01
-0.995
-1.0
-0.99
-0.95
-0.97
-1.025
-1.03
-0.97
-0.95
-0.975
-1.035
-1.045
-1.0
-1.01
-1.055
-0.985
-1.04
-1.045
-1.05
-1.01
-1.005
-1.025
-1.065
-1.075
-1.04
-0.995
-0.985
-1.01
-0.995
-1.015
-1.025
-1.05
-1.055
-1.0
-1.04
-1.025
-0.98
-0.955
-1.015
-1.02
-0.995
-1.045
-1.055
-1.005
-0.98
-1.015
-1.005
-0.995
-1.055
-1.05
-1.005
-1.07
-1.05
-1.045
-1.065
-1.025
-1.005
-1.02
-1.07
-1.05
-1.06
-1.06
-1.025
-1.005
-1.02
-1.03
-1.035
-1.0
-1.045
-1.035
-1.055
-1.075
-1.045
-1.02
-1.02
-1.01
-0.95
-1.01
-1.02
-1.02
-1.05
-1.075
-1.01
-0.985
-1.05
-1.04
-0.975
-1.015
-1.015
-1.03
-1.065
-1.09
-1.055
-1.03
-1.055
-1.06
-1.06
-1.03
-1.015
-1.03
-1.045
-1.045
-1.01
-1.035
-1.035
-1.0
-1.055
-1.075
-1.04
-1.08
-1.03
-1.0
-0.99
-1.085
-1.045
-1.07
-1.035
-1.085
-1.055
-1.065
-1.07
-1.055
-1.045
-1.02
-1.015
-1.08
-1.1
-1.08
-1.02
-1.025
-1.03
-1.08
-1.035
-1.015
-1.05
-1.055
-1.045
-1.06
-1.01
-1.03
-1.03
-1.04
-1.035
-1.035
-1.04
-1.075
-1.065
-1.07
-1.085
-1.055
-1.0
-1.05
-1.0
-1.005
-1.035
-1.035
-1.035
-1.075
-1.065
-1.0
-1.06
-1.085
-1.025
-1.01
-1.025
-1.075
-1.04
-1.1
-1.095
-1.02
-1.06
-1.01
-1.045
-1.1
-1.08
-1.06
-1.06
-1.055
-1.075
-1.08
-1.055
-1.04
-1.035
-1.08
-1.12
-1.08
-1.02
-1.02
-1.07
-1.09
-1.02
-1.025
-1.055
-1.045
-1.055
-1.06
-1.04
-1.025
-0.95
-1.03
-1.055
-1.05
-1.0
-1.02
-1.07
-1.06
-1.07
-1.09
-1.045
-1.01
-1.065
-1.045
-1.01
-1.05
-1.095
-1.065
-1.12
-1.07
-1.005
-1.035
-1.015
-0.995
-0.995
-0.985
-1.05
-1.015
-1.035
-1.055
-1.055
-0.99
-1.045
-1.06
-1.03
-1.08
-1.055
-1.025
-1.015
-1.01
-1.005
-1.015
-1.07
-1.035
-0.97
-0.98
-0.985
-0.98
-0.975
-0.995
-1.04
-1.055
-1.06
-1.01
-1.03
-1.04
-1.075
-1.07
-1.09
-1.055
-1.01
-1.0
-1.05
-1.11
-1.03
-1.07
-1.095
-1.085
-1.085
-1.07
-1.085
-1.095
-1.04
-1.035
-1.03
-1.05
-1.105
-1.065
-1.055
-1.085
-1.065
-1.04
-1.04
-1.065
-1.08
-1.11
-1.13
-1.085
-1.045
-1.06
-1.0
-1.005
-1.06
-1.035
-1.04
-1.015
-1.035
-1.005
-1.065
-1.065
-1.04
-1.025
-1.04
-1.075
-1.09
-1.12
-1.06
-1.095
-0.995
-1.005
-1.04
-1.02
-0.985
-0.905
-0.915
-0.895
-0.825
-0.805
-0.87
-0.84
-0.865
-0.9
-0.915
-0.89
-0.845
-0.85
-0.905
-0.98
-1.03
-1.09
-1.16
-1.095
-1.035
-1.025
-1.005
-1.025
-1.015
-1.02
-1.05
-1.03
-1.025
-1.025
-1.02
-0.995
-0.995
-1.05
-1.04
-1.02
-1.01
-1.025
-1.055
-1.025
-1.005
-0.97
-1.015
-1.03
-1.015
-1.005
-0.99
-0.995
-0.93
-0.995
-1.035
-1.01
-0.97
-0.98
-1.04
-1.08
-1.03
-0.98
-1.005
-1.055
-1.045
-0.95
-0.975
-1.0
-1.0
-1.05
-1.03
-1.0
-0.995
-1.025
-0.95
-0.915
-0.925
-0.975
-1.005
-1.015
-0.985
-0.955
-0.97
-0.99
-0.94
-0.935
-1.0
-1.0
-0.975
-1.0
-0.995
-0.975
-0.93
-0.975
-0.99
-0.955
-0.925
-0.945
-0.96
-0.95
-0.945
-0.93
-0.915
-0.94
-0.895
-0.89
-0.905
-0.92
-0.98
-0.96
-0.985
-0.92
-0.85
-0.865
-0.91
-0.935
-0.955
-0.875
-0.855
-0.905
-0.905
-0.855
-0.895
-0.895
-0.86
-0.83
-0.82
-0.875
-0.865
-0.83
-0.85
-0.86
-0.845
-0.85
-0.815
-0.815
-0.8
-0.89
-0.87
-0.87
-0.86
-0.85
-0.87
-0.84
-0.845
-0.82
-0.845
-0.835
-0.86
-0.88
-0.905
-0.88
-0.895
-0.855
-0.86
-0.89
-0.945
-0.905
-0.92
-0.93
-0.945
-0.955
-1.005
-1.01
-0.975
-0.985
-0.995
-1.01
-1.025
-1.105
-1.07
-1.035
-1.085
-1.1
-1.04
-1.03
-1.02
-1.015
-1.05
-1.11
-1.06
-1.05
-1.07
-1.1
-1.07
-1.065
-1.085
-1.085
-1.08
-1.13
-1.08
-1.08
-1.07
-1.07
-1.03
-1.025
-1.03
-1.06
-1.075
-1.07
-1.08
-1.06
-1.07
-1.08
-1.075
-1.08
-1.08
-1.09
-1.075
-1.075
-1.09
-1.11
-1.12
-1.15
-1.14
-1.085
-1.055
-1.045
-1.1
-1.085
-1.03
-1.075
-1.095
-1.07
-1.025
-1.045
-1.09
-1.095
-1.105
-1.09
-1.07
-1.065
-1.095
-1.07
-1.055
-1.025
-0.995
-1.05
-1.06
-1.085
-1.13
-1.1
-1.07
-1.07
-1.085
-1.065
-1.11
-1.025
-1.1
-1.115
-1.095
-1.07
-1.115
-1.07
-1.07
-1.085
-1.125
-1.08
-1.075
-1.07
-1.07
-1.06
-1.085
-1.11
-1.055
-1.05
-1.07
-1.085
-1.075
-1.065
-1.08
-1.13
-1.045
-1.085
-1.055
-1.08
-1.095
-1.065
-1.085
-1.1
-1.075
-1.075
-1.07
-1.075
-1.1
-1.115
-1.085
-1.055
-1.025
-1.035
-1.105
-1.105
-1.105
-1.03
-1.04
-1.08
-1.105
-1.06
-1.075
-1.03
-1.05
-1.085
-1.16
-1.1
-1.09
-1.1
-1.085
-1.04
-1.025
-1.05
-1.09
-1.105
-1.14
-1.065
-1.04
-1.055
-1.075
-1.045
-1.065
-1.07
-1.08
-1.12
-1.105
-1.08
-1.085
-1.08
-1.055
-1.005
-1.03
-1.05
-1.085
-1.1
-1.05
-1.085
-1.08
-1.075
-1.05
-1.045
-1.06
-1.07
-1.115
-1.15
-1.12
-1.07
-1.06
-1.12
-1.05
-1.035
-1.07
-1.065
-1.07
-1.105
-1.095
-1.055
-1.085
-1.095
-1.105
-1.04
-1.075
-1.075
-1.095
-1.085
-1.1
-1.06
-1.06
-1.08
-1.08
-1.09
-1.115
-1.01
-0.965
-0.995
-1.12
-1.07
-1.045
-1.07
-1.105
-1.075
-1.05
-1.025
-1.095
-1.075
-1.04
-1.05
-1.095
-1.075
-1.03
-1.06
-1.065
-1.065
-1.055
-1.105
-1.1
-1.075
-1.07
-1.05
-1.055
-1.08
-1.09
-1.09
-1.09
-1.095
-1.095
-1.055
-1.065
-1.08
-1.06
-1.0
-1.035
-1.1
-1.105
-1.09
-1.06
-1.065
-1.035
-1.02
-1.01
-1.035
-1.03
-1.06
-1.06
-1.095
-1.08
-0.975
-0.995
-1.055
-1.04
-1.0
-1.06
-1.025
-1.075
-1.095
-1.04
-1.005
-1.01
-1.02
-1.02
-1.02
-1.055
-1.035
-1.05
-1.125
-1.12
-1.105
-1.04
-1.03
-1.03
-1.03
-1.025
-1.065
-1.085
-1.11
-1.065
-1.045
-1.065
-1.06
-1.045
-1.07
-1.055
-1.055
-1.04
-1.06
-1.08
-1.055
-1.055
-1.115
-1.085
-1.065
-1.08
-1.045
-1.045
-1.06
-1.1
-1.075
-1.145
-1.105
-1.005
-1.035
-1.065
-1.05
-1.025
-1.11
-1.08
-1.035
-1.03
-1.045
-1.03
-1.01
-1.065
-1.11
-1.055
-1.12
-1.125
-1.11
-1.07
-1.115
-1.08
-1.035
-1.04
-1.09
-1.025
-0.98
-0.935
-0.91
-0.915
-0.88
-0.835
-0.78
-0.795
-0.81
-0.87
-0.935
-0.905
-0.87
-0.91
-0.93
-0.91
-0.965
-1.04
-1.12
-1.135
-1.145
-1.09
-1.07
-1.15
-1.15
-1.055
-0.99
-0.965
-1.015
-1.02
-1.015
-1.04
-1.04
-1.0
-0.995
-0.995
-1.04
-1.045
-1.015
-1.055
-1.04
-0.925
-1.025
-1.03
-1.055
-1.035
-1.01
-0.98
-0.985
-1.04
-1.01
-0.98
-1.025
-1.075
-1.03
-0.99
-1.02
-0.97
-1.005
-1.01
-0.975
-0.96
-0.99
-1.005
-0.99
-0.96
-1.005
-0.995
-1.03
-1.045
-1.075
-1.015
-0.975
-0.975
-0.97
-0.95
-0.97
-1.02
-1.025
-1.015
-1.045
-1.01
-0.975
-0.995
-0.975
-0.965
-0.975
-0.97
-0.985
-0.975
-0.98
-0.94
-0.94
-0.88
-0.955
-0.955
-0.94
-0.91
-0.97
-0.985
-0.96
-0.98
-0.975
-0.97
-0.91
-0.915
-0.89
-0.93
-0.92
-0.945
-0.945
-0.915
-0.895
-0.865
-0.815
-0.885
-0.88
-0.89
-0.865
-0.89
-0.845
-0.88
-0.91
-0.9
-0.795
-0.785
-0.8
-0.845
-0.845
-0.835
-0.805
-0.8
-0.88
-0.875
-0.805
-0.84
-0.83
-0.84
-0.82
-0.805
-0.825
-0.79
-0.82
-0.86
-0.84
-0.86
-0.855
-0.83
-0.83
-0.835
-0.85
-0.845
-0.89
-0.955
-0.865
-0.875
-0.915
-0.935
-0.9
-0.935
-0.95
-0.975
-0.98
-0.97
-1.005
-0.995
-1.01
-1.035
-1.04
-0.99
-1.05
-1.065
-1.07
-1.05
-1.055
-1.065
-1.06
-1.07
-1.06
-1.08
-1.01
-0.985
-1.045
-1.085
-1.08
-1.075
-1.105
-1.05
-1.04
-1.08
-1.02
-0.995
-1.075
-1.09
-1.07
-1.07
-1.07
-1.075
-1.05
-1.07
-1.025
-1.02
-0.995
-0.965
-1.015
-1.085
-1.035
-1.07
-1.065
-1.11
-1.045
-1.01
-1.0
-1.015
-1.045
-1.055
-1.08
-1.03
-1.035
-1.04
-1.02
-1.065
-1.03
-1.025
-1.065
-1.05
-1.005
-1.055
-1.02
-1.005
-1.005
-0.995
-1.08
-1.085
-1.1
-1.03
-1.03
-1.025
-1.015
-1.055
-1.06
-1.015
-1.015
-0.995
-1.05
-1.04
-1.055
-1.02
-1.045
-1.03
-1.01
-1.02
-1.055
-1.03
-1.03
-1.03
-1.025
-1.015
-1.07
-1.045
-1.035
-1.03
-1.025
-1.0
-1.045
-1.065
-1.055
-1.045
-1.065
-1.015
-1.01
-1.045
-1.025
-1.025
-1.03
-1.045
-1.145
-0.995
-0.995
-1.015
-1.03
-1.06
-1.04
-1.035
-1.055
-1.06
-1.005
-1.015
-1.085
-1.045
-1.035
-1.025
-0.99
-0.985
-1.02
-1.03
-1.04
-1.03
-1.04
-1.01
-1.055
-1.035
-1.01
-0.98
-1.005
-1.0
-1.01
-1.035
-1.09
-1.0
-1.015
-1.065
-1.03
-0.95
-0.995
-1.04
-1.055
-1.05
-1.05
-1.03
-1.05
-1.03
-1.02
-1.0
-1.06
-1.07
-1.04
-1.005
-1.045
-1.025
-1.03
-1.045
-1.025
-1.03
-1.03
-1.04
-0.975
-1.07
-1.11
-1.045
-1.01
-1.01
-1.035
-1.02
-1.035
-0.99
-0.98
-1.0
-1.055
-1.08
-1.02
-0.96
-0.985
-1.055
-1.09
-1.065
-1.005
-1.01
-1.03
-1.005
-1.0
-1.0
-0.995
-0.975
-0.995
-1.03
-1.005
-1.01
-1.025
-1.02
-1.03
-1.04
-1.025
-1.065
-1.025
-1.035
-0.995
-1.055
-1.075
-1.065
-1.035
-0.98
-0.965
-0.96
-0.975
-0.97
-1.0
-1.01
-1.03
-1.0
-0.94
-0.95
-0.995
-1.025
-1.04
-0.985
-0.98
-1.0
-1.02
-1.005
-0.995
-0.96
-0.99
-0.96
-0.945
-0.975
-0.94
-0.96
-0.975
-0.99
-1.01
-1.005
-1.005
-0.945
-0.92
-0.995
-1.04
-1.005
-0.96
-0.97
-1.0
-1.05
-1.075
-0.97
-0.985
-1.01
-1.005
-1.02
-1.005
-0.955
-0.955
-1.0
-0.965
-1.01
-1.0
-1.0
-0.97
-1.0
-1.05
-0.995
-1.0
-0.995
-1.015
-1.015
-1.06
-0.99
-0.94
-0.95
-1.0
-1.015
-1.005
-0.97
-0.955
-1.025
-1.025
-1.02
-0.995
-0.965
-0.975
-0.96
-0.965
-1.0
-0.985
-0.985
-0.975
-0.94
-0.915
-0.97
-0.985
-0.99
-0.955
-0.955
-0.9
-0.895
-0.925
-0.865
-0.8
-0.715
-0.66
-0.735
-0.715
-0.72
-0.75
-0.725
-0.77
-0.805
-0.765
-0.805
-0.805
-0.83
-0.955
-1.015
-1.005
-1.03
-0.98
-0.925
-0.94
-0.97
-0.96
-0.915
-0.9
-0.865
-0.855
-0.905
-0.905
-0.91
-0.935
-0.985
-0.94
-0.91
-0.915
-0.945
-0.905
-0.935
-0.875
-0.85
-0.885
-0.91
-0.84
-0.82
-0.92
-0.935
-0.875
-0.925
-0.855
-0.855
-0.88
-0.885
-0.84
-0.845
-0.835
-0.85
-0.935
-0.95
-0.915
-0.885
-0.865
-0.925
-0.88
-0.885
-0.915
-0.86
-0.85
-0.88
-0.835
-0.83
-0.815
-0.845
-0.85
-0.89
-0.87
-0.835
-0.835
-0.885
-0.88
-0.84
-0.855
-0.87
-0.855
-0.84
-0.85
-0.845
-0.81
-0.82
-0.81
-0.795
-0.81
-0.82
-0.805
-0.8
-0.785
-0.79
-0.785
-0.775
-0.77
-0.79
-0.77
-0.79
-0.765
-0.74
-0.83
-0.77
-0.795
-0.8
-0.765
-0.7
-0.69
-0.7
-0.745
-0.72
-0.69
-0.71
-0.75
-0.79
-0.735
-0.7
-0.72
-0.73
-0.685
-0.715
-0.705
-0.645
-0.61
-0.635
-0.665
-0.73
-0.7
-0.68
-0.65
-0.65
-0.625
-0.64
-0.65
-0.665
-0.66
-0.635
-0.685
-0.665
-0.64
-0.68
-0.65
-0.64
-0.69
-0.705
-0.715
-0.725
-0.735
-0.7
-0.725
-0.81
-0.835
-0.82
-0.815
-0.81
-0.815
-0.795
-0.84
-0.825
-0.88
-0.89
-0.87
-0.84
-0.865
-0.87
-0.86
-0.82
-0.82
-0.87
-0.925
-0.945
-0.91
-0.9
-0.9
-0.905
-0.945
-0.895
-0.93
-0.925
-0.89
-0.89
-0.89
-0.89
-0.935
-0.945
-0.905
-0.91
-0.915
-0.875
-0.885
-0.87
-0.84
-0.875
-0.895
-0.835
-0.845
-0.89
-0.885
-0.86
-0.915
-0.92
-0.905
-0.905
-0.88
-0.885
-0.905
-0.865
-0.89
-0.875
-0.87
-0.855
-0.86
-0.85
-0.87
-0.825
-0.825
-0.845
-0.86
-0.91
-0.895
-0.92
-0.89
-0.86
-0.905
-0.875
-0.87
-0.905
-0.88
-0.82
-0.87
-0.85
-0.875
-0.86
-0.91
-0.895
-0.86
-0.925
-0.87
-0.82
-0.835
-0.845
-0.81
-0.845
-0.895
-0.92
-0.85
-0.915
-0.885
-0.9
-0.91
-0.88
-0.84
-0.825
-0.85
-0.865
-0.86
-0.885
-0.87
-0.85
-0.85
-0.84
-0.835
-0.875
-0.915
-0.895
-0.86
-0.91
-0.915
-0.85
-0.83
-0.82
-0.83
-0.86
-0.835
-0.88
-0.925
-0.89
-0.895
-0.86
-0.885
-0.89
-0.84
-0.84
-0.855
-0.85
-0.84
-0.885
-0.855
-0.825
-0.825
-0.89
-0.8
-0.81
-0.895
-0.87
-0.905
-0.89
-0.895
-0.855
-0.87
-0.89
-0.795
-0.87
-0.885
-0.865
-0.855
-0.905
-0.815
-0.83
-0.825
-0.845
-0.85
-0.86
-0.855
-0.865
-0.885
-0.9
-0.865
-0.83
-0.845
-0.83
-0.805
-0.85
-0.845
-0.84
-0.81
-0.86
-0.825
-0.885
-0.85
-0.845
-0.87
-0.86
-0.89
-0.86
-0.83
-0.85
-0.825
-0.845
-0.855
-0.89
-0.805
-0.81
-0.83
-0.81
-0.83
-0.85
-0.86
-0.845
-0.855
-0.805
-0.8
-0.825
-0.855
-0.825
-0.85
-0.885
-0.83
-0.865
-0.885
-0.815
-0.78
-0.89
-0.885
-0.875
-0.84
-0.805
-0.79
-0.83
-0.84
-0.765
-0.8
-0.845
-0.81
-0.8
-0.825
-0.8
-0.77
-0.79
-0.835
-0.855
-0.805
-0.855
-0.835
-0.89
-0.86
-0.85
-0.855
-0.86
-0.885
-0.855
-0.84
-0.835
-0.845
-0.835
-0.875
-0.885
-0.86
-0.845
-0.845
-0.845
-0.845
-0.88
-0.845
-0.85
-0.885
-0.89
-0.81
-0.81
-0.815
-0.8
-0.865
-0.895
-0.92
-0.875
-0.855
-0.87
-0.865
-0.915
-0.885
-0.895
-0.845
-0.85
-0.845
-0.815
-0.89
-0.87
-0.87
-0.865
-0.865
-0.805
-0.815
-0.83
-0.815
-0.835
-0.87
-0.845
-0.835
-0.755
-0.665
-0.65
-0.65
-0.635
-0.64
-0.645
-0.705
-0.77
-0.725
-0.715
-0.715
-0.68
-0.65
-0.72
-0.825
-0.86
-0.925
-0.91
-0.89
-0.9
-0.88
-0.87
-0.885
-0.88
-0.85
-0.815
-0.8
-0.775
-0.78
-0.845
-0.87
-0.855
-0.845
-0.855
-0.825
-0.815
-0.8
-0.79
-0.83
-0.81
-0.79
-0.805
-0.76
-0.805
-0.815
-0.83
-0.77
-0.855
-0.89
-0.855
-0.81
-0.84
-0.875
-0.865
-0.82
-0.835
-0.86
-0.845
-0.82
-0.835
-0.795
-0.82
-0.855
-0.8
-0.82
-0.855
-0.835
-0.835
-0.86
-0.845
-0.82
-0.79
-0.795
-0.82
-0.815
-0.81
-0.83
-0.82
-0.82
-0.825
-0.825
-0.77
-0.835
-0.85
-0.825
-0.805
-0.82
-0.78
-0.785
-0.835
-0.76
-0.78
-0.815
-0.805
-0.87
-0.805
-0.76
-0.76
-0.785
-0.785
-0.75
-0.745
-0.745
-0.78
-0.765
-0.72
-0.74
-0.725
-0.79
-0.77
-0.76
-0.79
-0.75
-0.755
-0.715
-0.705
-0.725
-0.68
-0.665
-0.705
-0.665
-0.71
-0.8
-0.79
-0.775
-0.67
-0.645
-0.655
-0.695
-0.66
-0.65
-0.625
-0.67
-0.705
-0.735
-0.695
-0.68
-0.66
-0.65
-0.665
-0.64
-0.67
-0.715
-0.705
-0.65
-0.725
-0.81
-0.795
-0.72
-0.725
-0.76
-0.815
-0.79
-0.75
-0.76
-0.805
-0.835
-0.8
-0.84
-0.855
-0.82
-0.795
-0.9
-0.94
-0.89
-0.94
-0.93
-0.875
-0.88
-0.905
-0.93
-0.93
-0.925
-0.905
-0.885
-0.9
-0.865
-0.87
-0.905
-0.915
-0.865
-0.89
-0.885
-0.88
-0.905
-0.975
-0.935
-0.89
-0.93
-0.97
-0.965
-0.975
-0.965
-0.86
-0.85
-0.915
-0.895
-0.915
-0.915
-0.905
-0.88
-0.925
-0.905
-0.875
-0.91
-0.935
-0.86
-0.865
-0.885
-0.855
-0.865
-0.865
-0.92
-0.89
-0.885
-0.92
-0.875
-0.895
-0.915
-0.935
-0.885
-0.88
-0.875
-0.86
-0.915
-0.91
-0.87
-0.875
-0.905
-0.875
-0.82
-0.845
-0.87
-0.85
-0.84
-0.845
-0.865
-0.865
-0.855
-0.85
-0.86
-0.89
-0.85
-0.83
-0.915
-0.94
-0.89
-0.845
-0.85
-0.845
-0.83
-0.835
-0.81
-0.855
-0.86
-0.885
-0.845
-0.85
-0.84
-0.795
-0.81
-0.895
-0.845
-0.85
-0.86
-0.835
-0.795
-0.82
-0.81
-0.81
-0.85
-0.855
-0.86
-0.84
-0.835
-0.825
-0.825
-0.825
-0.805
-0.79
-0.805
-0.765
-0.81
-0.805
-0.85
-0.78
-0.76
-0.825
-0.83
-0.8
-0.805
-0.845
-0.855
-0.795
-0.79
-0.8
-0.81
-0.78
-0.805
-0.77
-0.8
-0.82
-0.79
-0.77
-0.775
-0.81
-0.765
-0.74
-0.74
-0.72
-0.75
-0.805
-0.78
-0.755
-0.73
-0.72
-0.73
-0.795
-0.755
-0.72
-0.735
-0.735
-0.675
-0.685
-0.74
-0.76
-0.725
-0.675
-0.695
-0.705
-0.725
-0.71
-0.73
-0.71
-0.725
-0.665
-0.66
-0.705
-0.69
-0.66
-0.705
-0.68
-0.68
-0.645
-0.665
-0.665
-0.64
-0.635
-0.56
-0.65
-0.63
-0.63
-0.65
-0.645
-0.655
-0.61
-0.585
-0.59
-0.615
-0.645
-0.675
-0.595
-0.515
-0.505
-0.555
-0.605
-0.58
-0.615
-0.655
-0.53
-0.525
-0.565
-0.56
-0.6
-0.59
-0.525
-0.555
-0.605
-0.595
-0.53
-0.57
-0.57
-0.53
-0.55
-0.565
-0.53
-0.51
-0.56
-0.525
-0.52
-0.52
-0.565
-0.56
-0.53
-0.58
-0.505
-0.505
-0.52
-0.475
-0.46
-0.48
-0.465
-0.475
-0.475
-0.485
-0.46
-0.535
-0.55
-0.475
-0.475
-0.485
-0.48
-0.435
-0.44
-0.45
-0.44
-0.425
-0.5
-0.465
-0.455
-0.47
-0.4
-0.395
-0.42
-0.425
-0.34
-0.32
-0.34
-0.41
-0.41
-0.45
-0.41
-0.43
-0.4
-0.365
-0.325
-0.345
-0.295
-0.185
-0.135
-0.13
-0.13
-0.09
-0.09
-0.165
-0.14
-0.19
-0.195
-0.165
-0.155
-0.175
-0.22
-0.285
-0.325
-0.39
-0.375
-0.33
-0.28
-0.295
-0.295
-0.275
-0.27
-0.275
-0.25
-0.225
-0.22
-0.215
-0.245
-0.23
-0.21
-0.195
-0.27
-0.225
-0.245
-0.205
-0.2
-0.16
-0.22
-0.19
-0.195
-0.17
-0.15
-0.19
-0.18
-0.205
-0.195
-0.2
-0.155
-0.135
-0.17
-0.15
-0.09
-0.12
-0.17
-0.125
-0.11
-0.095
-0.12
-0.12
-0.05
-0.06
-0.095
-0.115
-0.14
-0.135
-0.055
-0.105
-0.12
-0.105
-0.04
-0.075
-0.075
-0.05
-0.085
-0.085
-0.085
-0.08
-0.06
0.02
0.01
0.005
-0.04
-0.02
-0.035
-0.03
0.025
0.02
-0.045
0.03
0.045
-0.025
-0.02
-0.01
0.0
0.06
0.03
0.055
0.055
0.05
0.05
0.1
0.145
0.145
0.05
0.04
0.05
0.1
0.12
0.155
0.12
0.1
0.145
0.12
0.14
0.165
0.195
0.21
0.22
0.235
0.185
0.195
0.21
0.23
0.255
0.275
0.245
0.245
0.235
0.245
0.25
0.265
0.295
0.305
0.32
0.265
0.275
0.285
0.28
0.29
0.26
0.25
0.255
0.25
0.26
0.22
0.215
0.195
0.17
0.22
0.23
0.18
0.16
0.12
0.15
0.175
0.195
0.14
0.155
0.165
0.125
0.12
0.155
0.06
0.075
0.115
0.17
0.12
0.19
0.215
0.135
0.035
0.06
0.105
0.1
0.13
0.105
0.105
0.085
0.15
0.155
0.115
0.15
0.115
0.085
0.125
0.135
0.13
0.17
0.185
0.15
0.115
0.19
0.13
0.115
0.095
0.135
0.155
0.19
0.175
0.105
0.12
0.14
0.13
0.16
0.155
0.16
0.18
0.155
0.145
0.17
0.195
0.205
0.15
0.18
0.18
0.195
0.215
0.2
0.205
0.215
0.165
0.185
0.165
0.185
0.19
0.16
0.155
0.21
0.25
0.215
0.22
0.22
0.2
0.205
0.225
0.23
0.235
0.195
0.145
0.16
0.225
0.2
0.14
0.185
0.23
0.26
0.245
0.2
0.165
0.21
0.22
0.23
0.22
0.215
0.19
0.195
0.2
0.235
0.22
0.19
0.24
0.29
0.255
0.24
0.2
0.185
0.205
0.23
0.21
0.195
0.16
0.23
0.22
0.19
0.255
0.265
0.245
0.24
0.285
0.29
0.195
0.23
0.27
0.25
0.21
0.185
0.215
0.26
0.24
0.23
0.23
0.25
0.22
0.225
0.205
0.2
0.24
0.25
0.25
0.265
0.275
0.255
0.185
0.215
0.195
0.235
0.26
0.255
0.21
0.225
0.225
0.255
0.245
0.205
0.17
0.21
0.235
0.29
0.195
0.23
0.265
0.285
0.195
0.255
0.245
0.26
0.24
0.265
0.255
0.26
0.25
0.185
0.21
0.275
0.25
0.24
0.27
0.22
0.245
0.225
0.215
0.21
0.275
0.28
0.245
0.265
0.31
0.31
0.245
0.2
0.2
0.215
0.22
0.24
0.235
0.235
0.255
0.24
0.205
0.22
0.235
0.175
0.17
0.235
0.235
0.25
0.27
0.265
0.24
0.305
0.32
0.225
0.29
0.33
0.265
0.265
0.265
0.27
0.25
0.23
0.215
0.225
0.225
0.31
0.255
0.23
0.295
0.255
0.18
0.22
0.265
0.2
0.185
0.185
0.185
0.175
0.14
0.13
0.185
0.24
0.27
0.16
0.21
0.205
0.19
0.24
0.215
0.2
0.215
0.21
0.185
0.17
0.195
0.21
0.215
0.265
0.295
0.215
0.185
0.215
0.18
0.165
0.2
0.23
0.25
0.21
0.22
0.22
0.215
0.215
0.215
0.205
0.21
0.2
0.205
0.19
0.165
0.125
0.17
0.23
0.285
0.295
0.32
0.315
0.36
0.43
0.47
0.435
0.43
0.4
0.39
0.4
0.395
0.35
0.365
0.37
0.34
0.23
0.15
0.095
0.085
0.15
0.155
0.17
0.155
0.17
0.18
0.19
0.28
0.26
0.25
0.26
0.245
0.225
0.15
0.185
0.255
0.285
0.245
0.22
0.255
0.245
0.235
0.21
0.21
0.25
0.215
0.235
0.22
0.18
0.165
0.23
0.255
0.235
0.235
0.225
0.195
0.25
0.205
0.22
0.24
0.24
0.285
0.25
0.195
0.245
0.26
0.235
0.205
0.185
0.17
0.235
0.195
0.205
0.21
0.26
0.295
0.28
0.23
0.215
0.255
0.255
0.24
0.195
0.21
0.25
0.275
0.265
0.245
0.235
0.245
0.245
0.22
0.23
0.24
0.25
0.265
0.255
0.29
0.265
0.26
0.29
0.32
0.325
0.26
0.29
0.3
0.365
0.35
0.305
0.205
0.26
0.255
0.285
0.31
0.335
0.315
0.325
0.285
0.295
0.355
0.37
0.345
0.365
0.41
0.405
0.38
0.35
0.405
0.375
0.315
0.385
0.43
0.385
0.405
0.425
0.41
0.425
0.43
0.39
0.33
0.345
0.37
0.335
0.32
0.355
0.36
0.345
0.295
0.29
0.325
0.335
0.345
0.33
0.28
0.32
0.32
0.29
0.215
0.245
0.205
0.155
0.17
0.135
0.155
0.2
0.19
0.16
0.17
0.115
0.145
0.175
0.125
0.08
0.13
0.165
0.13
0.105
0.125
0.135
0.11
0.11
0.09
0.06
0.08
0.13
0.125
0.08
0.09
0.125
0.12
0.16
0.125
0.105
0.13
0.165
0.085
0.065
0.135
0.1
0.085
0.045
0.045
0.04
0.115
0.155
0.115
0.1
0.11
0.09
0.06
0.09
0.095
0.12
0.13
0.09
0.1
0.11
0.11
0.065
0.09
0.08
0.085
0.125
0.135
0.155
0.17
0.175
0.13
0.08
0.085
0.12
0.085
0.075
0.11
0.08
0.085
0.065
0.075
0.045
0.095
0.1
0.1
0.075
0.09
0.1
0.095
0.07
0.015
0.055
0.09
0.08
0.075
0.065
0.135
0.1
0.08
0.04
0.015
0.035
0.085
0.04
0.045
0.09
0.08
0.085
0.09
0.11
0.005
-0.01
0.045
0.055
0.03
0.0
0.045
0.025
0.04
0.06
0.055
0.015
0.04
0.03
0.045
0.045
0.05
0.035
-0.005
0.005
0.035
0.015
0.045
0.055
-0.035
-0.03
0.095
0.05
0.03
0.035
0.05
0.005
-0.015
-0.04
-0.005
0.025
0.055
0.025
0.055
0.03
-0.01
0.01
0.02
0.05
0.05
0.055
0.0
0.02
0.05
0.015
-0.04
-0.07
0.03
0.045
0.015
0.02
0.025
0.015
0.02
-0.025
0.03
0.015
0.005
0.04
0.025
-0.015
0.015
-0.01
-0.015
0.015
0.01
-0.035
-0.005
0.03
-0.045
0.01
0.085
0.065
0.01
0.045
0.035
0.03
0.045
0.035
-0.015
0.02
0.005
0.025
0.015
0.045
0.03
-0.045
-0.115
-0.06
-0.04
0.005
-0.06
-0.06
-0.01
-0.025
-0.01
0.025
-0.01
-0.015
-0.06
-0.04
-0.02
-0.03
-0.05
-0.015
-0.065
-0.065
-0.025
-0.07
0.0
-0.04
-0.055
-0.06
-0.04
-0.03
-0.01
-0.035
-0.045
-0.05
-0.06
-0.01
-0.03
-0.045
-0.04
-0.03
-0.035
-0.045
-0.045
-0.015
-0.095
-0.085
-0.05
-0.06
-0.01
0.005
-0.025
-0.085
-0.095
-0.05
-0.035
-0.045
-0.1
-0.125
-0.055
-0.005
0.0
0.03
0.065
0.005
0.08
0.17
0.205
0.19
0.16
0.11
0.105
0.085
0.095
0.095
0.105
0.14
0.105
0.02
-0.09
-0.185
-0.19
-0.145
-0.11
-0.12
-0.065
-0.055
-0.06
-0.055
-0.065
-0.05
-0.06
-0.02
-0.055
0.025
0.045
0.07
-0.025
-0.03
-0.05
-0.13
-0.095
-0.005
0.015
-0.055
-0.09
-0.04
-0.015
-0.035
-0.055
-0.095
-0.08
-0.07
-0.03
-0.035
-0.025
-0.03
-0.055
-0.02
-0.04
-0.05
-0.075
-0.075
-0.04
-0.035
-0.03
0.02
0.015
-0.055
-0.095
-0.04
-0.035
-0.03
-0.065
-0.085
-0.065
-0.055
-0.07
-0.04
-0.04
-0.06
-0.06
-0.075
-0.035
-0.005
0.035
0.025
-0.02
-0.045
-0.045
0.005
0.025
0.045
-0.105
-0.07
-0.025
-0.005
-0.02
-0.03
-0.035
-0.04
-0.01
0.02
0.035
0.02
0.05
0.0
0.07
0.03
-0.025
0.015
0.075
0.09
0.095
0.03
0.03
0.06
0.05
0.03
0.04
0.025
0.095
0.065
0.05
0.045
0.05
0.085
0.065
0.085
0.115
0.075
0.13
0.09
0.095
0.07
0.095
0.13
0.105
0.09
0.14
0.12
0.1
0.135
0.125
0.1
0.08
0.11
0.11
0.085
0.07
0.035
0.055
0.06
-0.035
-0.06
0.035
0.01
0.025
0.04
0.035
-0.035
-0.11
-0.1
-0.115
-0.095
-0.125
-0.115
-0.15
-0.16
-0.175
-0.155
-0.175
-0.125
-0.07
-0.09
-0.1
-0.17
-0.22
-0.21
-0.18
-0.155
-0.18
-0.18
-0.155
-0.13
-0.125
-0.15
-0.18
-0.195
-0.155
-0.155
-0.145
-0.19
-0.195
-0.17
-0.135
-0.15
-0.21
-0.17
-0.14
-0.155
-0.12
-0.155
-0.135
-0.105
-0.145
-0.135
-0.145
-0.085
-0.11
-0.24
-0.235
-0.26
-0.23
-0.165
-0.135
-0.145
-0.185
-0.205
-0.2
-0.155
-0.135
-0.155
-0.175
-0.16
-0.145
-0.15
-0.135
-0.15
-0.165
-0.16
-0.12
-0.155
-0.18
-0.19
-0.19
-0.155
-0.19
-0.175
-0.16
-0.16
-0.165
-0.185
-0.26
-0.18
-0.155
-0.19
-0.185
-0.195
-0.225
-0.2
-0.145
-0.13
-0.16
-0.15
-0.17
-0.155
-0.195
-0.18
-0.15
-0.165
-0.205
-0.19
-0.2
-0.155
-0.1
-0.115
-0.235
-0.23
-0.255
-0.215
-0.225
-0.24
-0.18
-0.125
-0.11
-0.235
-0.22
-0.175
-0.21
-0.23
-0.215
-0.25
-0.245
-0.17
-0.125
-0.16
-0.175
-0.155
-0.21
-0.215
-0.175
-0.17
-0.205
-0.19
-0.205
-0.24
-0.215
-0.18
-0.22
-0.21
-0.22
-0.215
-0.195
-0.13
-0.135
-0.245
-0.235
-0.26
-0.245
-0.245
-0.225
-0.245
-0.175
-0.155
-0.17
-0.23
-0.235
-0.215
-0.21
-0.195
-0.17
-0.22
-0.17
-0.17
-0.255
-0.275
-0.245
-0.18
-0.175
-0.19
-0.195
-0.235
-0.195
-0.17
-0.2
-0.26
-0.16
-0.165
-0.21
-0.205
-0.14
-0.175
-0.165
-0.14
-0.18
-0.195
-0.225
-0.255
-0.21
-0.17
-0.175
-0.205
-0.24
-0.205
-0.235
-0.23
-0.25
-0.235
-0.255
-0.27
-0.205
-0.17
-0.205
-0.225
-0.205
-0.215
-0.23
-0.25
-0.265
-0.235
-0.21
-0.225
-0.16
-0.205
-0.285
-0.25
-0.23
-0.255
-0.245
-0.24
-0.205
-0.285
-0.255
-0.245
-0.235
-0.215
-0.225
-0.235
-0.23
-0.185
-0.175
-0.215
-0.255
-0.235
-0.25
-0.245
-0.205
-0.21
-0.22
-0.235
-0.285
-0.285
-0.255
-0.205
-0.27
-0.3
-0.215
-0.175
-0.17
-0.125
-0.13
-0.095
-0.01
-0.025
0.02
0.055
-0.03
-0.02
0.0
-0.1
-0.135
-0.11
-0.07
-0.015
-0.015
-0.06
-0.23
-0.32
-0.31
-0.26
-0.28
-0.295
-0.23
-0.23
-0.21
-0.235
-0.185
-0.18
-0.17
-0.23
-0.255
-0.2
-0.205
-0.165
-0.175
-0.22
-0.135
-0.21
-0.235
-0.195
-0.185
-0.22
-0.18
-0.23
-0.22
-0.185
-0.2
-0.19
-0.18
-0.215
-0.22
-0.2
-0.11
-0.14
-0.23
-0.205
-0.175
-0.205
-0.195
-0.17
-0.21
-0.2
-0.18
-0.245
-0.195
-0.17
-0.21
-0.2
-0.12
-0.17
-0.15
-0.15
-0.13
-0.195
-0.215
-0.18
-0.19
-0.15
-0.14
-0.195
-0.155
-0.15
-0.185
-0.185
-0.205
-0.19
-0.175
-0.135
-0.14
-0.15
-0.23
-0.195
-0.145
-0.135
-0.12
-0.1
-0.13
-0.13
-0.135
-0.12
-0.135
-0.17
-0.15
-0.1
-0.14
-0.115
-0.155
-0.15
-0.095
-0.11
-0.13
-0.085
-0.08
-0.02
0.045
0.015
-0.12
-0.135
-0.09
-0.045
-0.01
-0.055
-0.015
-0.05
-0.075
-0.035
-0.03
-0.015
0.015
0.03
-0.03
-0.015
0.015
-0.02
0.015
-0.005
0.005
-0.045
-0.015
0.01
-0.025
-0.065
-0.06
-0.03
-0.05
-0.095
-0.115
-0.025
-0.015
-0.06
-0.08
-0.1
-0.115
-0.125
-0.135
-0.145
-0.175
-0.155
-0.17
-0.16
-0.14
-0.13
-0.19
-0.195
-0.24
-0.28
-0.245
-0.275
-0.23
-0.23
-0.275
-0.205
-0.24
-0.255
-0.245
-0.24
-0.245
-0.22
-0.225
-0.235
-0.285
-0.285
-0.22
-0.235
-0.29
-0.265
-0.215
-0.305
-0.275
-0.25
-0.27
-0.225
-0.215
-0.245
-0.285
-0.245
-0.295
-0.22
-0.22
-0.275
-0.285
-0.24
-0.275
-0.305
-0.255
-0.225
-0.21
-0.205
-0.195
-0.285
-0.3
-0.215
-0.245
-0.265
-0.26
-0.265
-0.265
-0.25
-0.27
-0.265
-0.285
-0.215
-0.185
-0.24
-0.245
-0.26
-0.23
-0.18
-0.2
-0.275
-0.26
-0.21
-0.21
-0.235
-0.26
-0.25
-0.255
-0.27
-0.245
-0.245
-0.16
-0.18
-0.255
-0.215
-0.25
-0.25
-0.235
-0.285
-0.295
-0.295
-0.255
-0.195
-0.18
-0.24
-0.275
-0.235
-0.24
-0.27
-0.225
-0.235
-0.295
-0.265
-0.225
-0.245
-0.245
-0.2
-0.235
-0.225
-0.23
-0.21
-0.255
-0.235
-0.26
-0.26
-0.23
-0.225
-0.215
-0.245
-0.23
-0.26
-0.195
-0.185
-0.215
-0.255
-0.25
-0.225
-0.24
-0.2
-0.235
-0.275
-0.265
-0.28
-0.265
-0.225
-0.18
-0.22
-0.285
-0.255
-0.25
-0.245
-0.235
-0.185
-0.2
-0.215
-0.235
-0.235
-0.23
-0.205
-0.22
-0.265
-0.175
-0.16
-0.21
-0.255
-0.25
-0.25
-0.205
-0.185
-0.23
-0.23
-0.175
-0.16
-0.215
-0.185
-0.235
-0.26
-0.23
-0.25
-0.29
-0.28
-0.2
-0.285
-0.29
-0.255
-0.235
-0.23
-0.245
-0.21
-0.285
-0.27
-0.22
-0.21
-0.265
-0.265
-0.27
-0.27
-0.25
-0.29
-0.295
-0.245
-0.225
-0.205
-0.245
-0.235
-0.185
-0.21
-0.205
-0.27
-0.27
-0.24
-0.215
-0.245
-0.22
-0.225
-0.205
-0.235
-0.255
-0.285
-0.27
-0.25
-0.21
-0.255
-0.26
-0.26
-0.3
-0.305
-0.26
-0.24
-0.235
-0.225
-0.26
-0.22
-0.16
-0.125
-0.135
-0.135
-0.085
-0.025
0.03
0.06
0.165
0.15
0.06
-0.01
-0.08
-0.095
-0.05
-0.065
-0.1
-0.23
-0.29
-0.335
-0.335
-0.32
-0.245
-0.235
-0.24
-0.22
-0.21
-0.215
-0.21
-0.195
-0.185
-0.18
-0.16
-0.215
-0.22
-0.215
-0.205
-0.195
-0.17
-0.215
-0.255
-0.255
-0.265
-0.275
-0.19
-0.11
-0.175
-0.2
-0.175
-0.2
-0.19
-0.19
-0.175
-0.21
-0.19
-0.19
-0.215
-0.165
-0.145
-0.19
-0.195
-0.18
-0.205
-0.255
-0.195
-0.255
-0.215
-0.17
-0.175
-0.185
-0.145
-0.175
-0.155
-0.265
-0.225
-0.2
-0.135
-0.16
-0.19
-0.165
-0.165
-0.165
-0.17
-0.15
-0.14
-0.2
-0.24
-0.185
-0.11
-0.105
-0.15
-0.17
-0.16
-0.17
-0.145
-0.15
-0.15
-0.125
-0.095
-0.15
-0.15
-0.125
-0.17
-0.105
-0.085
-0.105
-0.085
-0.115
-0.12
-0.08
-0.075
-0.055
-0.065
-0.08
0.01
-0.025
-0.06
-0.07
-0.1
-0.06
-0.05
-0.075
-0.045
-0.09
-0.065
0.015
0.03
0.025
-0.015
0.01
-0.005
-0.01
0.01
-0.02
-0.015
-0.02
-0.01
0.05
-0.04
-0.05
-0.075
0.0
0.01
0.015
0.045
0.0
-0.04
-0.015
-0.025
-0.075
-0.105
-0.055
-0.095
-0.085
-0.13
-0.13
-0.13
-0.195
-0.19
-0.175
-0.16
-0.195
-0.21
-0.205
-0.25
-0.245
-0.24
-0.255
-0.315
-0.245
-0.215
-0.25
-0.235
-0.27
-0.31
-0.275
-0.24
-0.225
-0.205
-0.215
-0.295
-0.34
-0.345
-0.27
-0.285
-0.28
-0.25
-0.245
-0.26
-0.245
-0.2
-0.18
-0.275
-0.265
-0.27
-0.28
-0.305
-0.255
-0.26
-0.26
-0.255
-0.27
-0.295
-0.265
-0.275
-0.285
-0.265
-0.25
-0.225
-0.265
-0.24
-0.235
-0.26
-0.2
-0.215
-0.27
-0.255
-0.16
-0.255
-0.315
-0.27
-0.22
-0.215
-0.28
-0.255
-0.3
-0.26
-0.245
-0.295
-0.31
-0.265
-0.22
-0.29
-0.215
-0.215
-0.315
-0.33
-0.24
-0.235
-0.28
-0.31
-0.305
-0.31
-0.225
-0.28
-0.255
-0.235
-0.245
-0.245
-0.24
-0.27
-0.3
-0.305
-0.26
-0.245
-0.3
-0.275
-0.225
-0.26
-0.31
-0.26
-0.25
-0.285
-0.29
-0.305
-0.265
-0.22
-0.235
-0.27
-0.275
-0.225
-0.275
-0.27
-0.275
-0.28
-0.26
-0.205
-0.215
-0.23
-0.245
-0.315
-0.26
-0.265
-0.305
-0.315
-0.34
-0.24
-0.27
-0.35
-0.345
-0.26
-0.245
-0.22
-0.305
-0.235
-0.26
-0.22
-0.295
-0.315
-0.265
-0.22
-0.26
-0.275
-0.275
-0.24
-0.23
-0.23
-0.26
-0.23
-0.245
-0.27
-0.3
-0.245
-0.22
-0.265
-0.27
-0.18
-0.255
-0.295
-0.28
-0.26
-0.29
-0.27
-0.265
-0.295
-0.315
-0.265
-0.31
-0.32
-0.285
-0.235
-0.245
-0.3
-0.34
-0.325
-0.245
-0.225
-0.285
-0.34
-0.29
-0.275
-0.32
-0.315
-0.305
-0.235
-0.22
-0.245
-0.275
-0.305
-0.26
-0.3
-0.32
-0.27
-0.225
-0.28
-0.275
-0.265
-0.255
-0.31
-0.285
-0.26
-0.24
-0.245
-0.265
-0.255
-0.275
-0.255
-0.265
-0.275
-0.23
-0.265
-0.28
-0.275
-0.225
-0.205
-0.255
-0.23
-0.22
-0.21
-0.2
-0.19
-0.15
-0.09
-0.11
-0.05
0.0
-0.055
-0.08
-0.105
-0.085
-0.075
-0.06
-0.065
-0.165
-0.13
-0.145
-0.185
-0.32
-0.365
-0.285
-0.28
-0.28
-0.26
-0.235
-0.23
-0.205
-0.19
-0.215
-0.235
-0.23
-0.185
-0.245
-0.245
-0.225
-0.215
-0.15
-0.205
-0.215
-0.225
-0.175
-0.175
-0.235
-0.26
-0.235
-0.23
-0.2
-0.22
-0.215
-0.175
-0.205
-0.235
-0.225
-0.185
-0.185
-0.225
-0.15
-0.195
-0.17
-0.225
-0.245
-0.22
-0.18
-0.15
-0.19
-0.165
-0.18
-0.2
-0.145
-0.125
-0.18
-0.215
-0.22
-0.185
-0.195
-0.225
-0.21
-0.16
-0.15
-0.195
-0.22
-0.2
-0.165
-0.125
-0.195
-0.17
-0.105
-0.1
-0.1
-0.19
-0.165
-0.225
-0.215
-0.165
-0.135
-0.14
-0.215
-0.16
-0.155
-0.155
-0.125
-0.16
-0.14
-0.11
-0.115
-0.115
-0.085
-0.105
-0.105
-0.115
-0.095
-0.11
-0.095
-0.07
-0.08
-0.055
-0.05
-0.05
-0.07
-0.11
-0.12
-0.075
-0.04
0.055
-0.01
0.005
-0.005
-0.05
-0.085
-0.02
-0.02
-0.05
-0.035
-0.03
-0.035
-0.01
0.0
-0.015
-0.01
-0.02
-0.01
-0.03
-0.015
-0.01
-0.005
-0.045
-0.04
-0.075
-0.165
-0.13
-0.13
-0.12
-0.135
-0.105
-0.155
-0.16
-0.14
-0.15
-0.175
-0.155
-0.18
-0.245
-0.245
-0.275
-0.24
-0.19
-0.23
-0.23
-0.21
-0.25
-0.245
-0.235
-0.22
-0.23
-0.175
-0.155
-0.16
-0.255
-0.26
-0.255
-0.235
-0.22
-0.255
-0.245
-0.23
-0.23
-0.22
-0.195
-0.215
-0.195
-0.205
-0.225
-0.24
-0.295
-0.255
-0.25
-0.235
-0.265
-0.265
-0.2
-0.165
-0.245
-0.295
-0.265
-0.265
-0.22
-0.24
-0.245
-0.265
-0.26
-0.24
-0.21
-0.195
-0.22
-0.215
-0.195
-0.205
-0.23
-0.225
-0.205
-0.22
-0.25
-0.25
-0.255
-0.25
-0.205
-0.185
-0.21
-0.19
-0.19
-0.195
-0.24
-0.19
-0.18
-0.24
-0.18
-0.18
-0.155
-0.285
-0.22
-0.24
-0.27
-0.3
-0.285
-0.24
-0.205
-0.23
-0.275
-0.24
-0.255
-0.25
-0.23
-0.22
-0.255
-0.24
-0.2
-0.19
-0.18
-0.22
-0.245
-0.215
-0.215
-0.225
-0.19
-0.185
-0.185
-0.185
-0.235
-0.26
-0.25
-0.26
-0.225
-0.215
-0.24
-0.195
-0.175
-0.18
-0.19
-0.17
-0.2
-0.265
-0.24
-0.215
-0.23
-0.205
-0.16
-0.17
-0.23
-0.25
-0.235
-0.18
-0.21
-0.245
-0.255
-0.21
-0.19
-0.225
-0.225
-0.195
-0.195
-0.225
-0.235
-0.255
-0.275
-0.24
-0.18
-0.17
-0.165
-0.18
-0.17
-0.145
-0.14
-0.155
-0.175
-0.195
-0.18
-0.19
-0.2
-0.165
-0.175
-0.195
-0.265
-0.265
-0.27
-0.235
-0.225
-0.165
-0.155
-0.165
-0.235
-0.255
-0.215
-0.17
-0.235
-0.215
-0.22
-0.265
-0.19
-0.185
-0.25
-0.28
-0.27
-0.19
-0.14
-0.19
-0.205
-0.23
-0.215
-0.215
-0.205
-0.17
-0.185
-0.24
-0.205
-0.2
-0.24
-0.24
-0.23
-0.215
-0.185
-0.235
-0.23
-0.205
-0.175
-0.175
-0.23
-0.195
-0.205
-0.155
-0.205
-0.24
-0.2
-0.2
-0.21
-0.205
-0.195
-0.21
-0.215
-0.23
-0.22
-0.2
-0.14
-0.155
-0.11
-0.12
-0.11
-0.055
-0.115
0.03
0.08
0.02
0.005
0.045
0.0
-0.03
-0.035
-0.03
-0.015
0.015
-0.08
-0.095
-0.145
-0.185
-0.24
-0.22
-0.245
-0.195
-0.18
-0.18
-0.19
-0.17
-0.145
-0.115
-0.135
-0.14
-0.19
-0.19
-0.135
-0.15
-0.19
-0.215
-0.14
-0.125
-0.14
-0.145
-0.155
-0.135
-0.15
-0.18
-0.15
-0.115
-0.095
-0.135
-0.145
-0.16
-0.19
-0.185
-0.185
-0.16
-0.145
-0.115
-0.1
-0.1
-0.13
-0.105
-0.07
-0.135
-0.145
-0.13
-0.12
-0.155
-0.17
-0.175
-0.11
-0.06
-0.08
-0.13
-0.13
-0.1
-0.135
-0.12
-0.09
-0.1
-0.12
-0.07
-0.065
-0.085
-0.095
-0.1
-0.11
-0.105
-0.095
-0.075
-0.065
-0.05
-0.065
-0.06
-0.085
-0.1
-0.055
0.005
0.02
-0.08
-0.045
-0.135
-0.1
-0.04
-0.045
-0.04
-0.06
-0.005
-0.02
-0.07
0.005
0.0
0.015
0.04
0.07
0.0
-0.02
0.035
0.06
0.045
0.085
0.115
0.055
0.03
0.04
0.005
0.1
0.095
0.115
0.055
0.04
0.055
0.07
0.06
0.08
0.11
0.06
0.07
0.1
0.12
0.105
0.115
0.105
0.135
0.115
0.035
0.03
0.025
0.01
0.02
0.005
-0.015
-0.015
-0.055
-0.04
-0.015
-0.025
-0.01
-0.035
-0.115
-0.09
-0.055
-0.07
-0.12
-0.125
-0.14
-0.135
-0.105
-0.135
-0.15
-0.13
-0.135
-0.15
-0.115
-0.155
-0.175
-0.22
-0.135
-0.14
-0.145
-0.145
-0.165
-0.185
-0.205
-0.15
-0.065
-0.07
-0.11
-0.13
-0.14
-0.155
-0.17
-0.185
-0.085
-0.155
-0.16
-0.15
-0.155
-0.195
-0.155
-0.185
-0.2
-0.17
-0.135
-0.145
-0.2
-0.14
-0.17
-0.16
-0.085
-0.085
-0.14
-0.165
-0.12
-0.12
-0.125
-0.165
-0.125
-0.14
-0.14
-0.145
-0.165
-0.145
-0.115
-0.14
-0.14
-0.145
-0.115
-0.175
-0.145
-0.115
-0.13
-0.135
-0.09
-0.11
-0.065
-0.07
-0.12
-0.17
-0.11
-0.115
-0.135
-0.155
-0.165
-0.22
-0.14
-0.095
-0.125
-0.16
-0.16
-0.135
-0.14
-0.125
-0.155
-0.185
-0.15
-0.13
-0.1
-0.115
-0.155
-0.145
-0.125
-0.12
-0.16
-0.13
-0.15
-0.14
-0.13
-0.105
-0.095
-0.125
-0.145
-0.145
-0.14
-0.135
-0.125
-0.11
-0.155
-0.145
-0.13
-0.14
-0.105
-0.1
-0.125
-0.14
-0.14
-0.12
-0.115
-0.145
-0.15
-0.08
-0.12
-0.145
-0.125
-0.19
-0.17
-0.1
-0.145
-0.15
-0.12
-0.095
-0.17
-0.205
-0.155
-0.14
-0.15
-0.16
-0.15
-0.15
-0.135
-0.08
-0.07
-0.125
-0.145
-0.175
-0.175
-0.19
-0.21
-0.125
-0.065
-0.065
-0.135
-0.13
-0.07
-0.085
-0.085
-0.13
-0.13
-0.125
-0.115
-0.1
-0.1
-0.125
-0.115
-0.115
-0.09
-0.08
-0.09
-0.08
-0.1
-0.12
-0.105
-0.125
-0.13
-0.145
-0.13
-0.12
-0.155
-0.095
-0.105
-0.17
-0.185
-0.18
-0.155
-0.15
-0.115
-0.13
-0.175
-0.17
-0.12
-0.12
-0.12
-0.1
-0.135
-0.14
-0.15
-0.165
-0.175
-0.155
-0.115
-0.15
-0.12
-0.13
-0.1
-0.145
-0.115
-0.15
-0.125
-0.14
-0.125
-0.13
-0.145
-0.155
-0.115
-0.09
-0.08
-0.105
-0.15
-0.185
-0.135
-0.075
-0.165
-0.16
-0.14
-0.17
-0.1
-0.115
-0.125
-0.135
-0.1
-0.12
-0.155
-0.14
-0.165
-0.155
-0.155
-0.205
-0.18
-0.06
0.0
0.035
0.045
0.01
0.06
0.105
0.13
0.135
0.15
0.12
0.075
0.085
0.12
0.105
0.06
0.045
-0.005
-0.085
-0.18
-0.17
-0.21
-0.185
-0.2
-0.175
-0.145
-0.105
-0.04
-0.075
-0.145
-0.045
-0.08
-0.11
-0.1
-0.1
-0.155
-0.105
-0.035
-0.02
-0.06
-0.1
-0.06
-0.035
-0.075
-0.11
-0.095
-0.115
-0.085
-0.12
-0.065
-0.045
-0.1
-0.02
-0.035
-0.1
-0.075
-0.105
-0.135
-0.1
-0.085
-0.065
-0.05
-0.025
-0.075
-0.1
-0.085
-0.055
-0.105
-0.105
-0.095
-0.09
-0.045
0.0
-0.005
0.0
-0.08
-0.135
-0.075
-0.075
-0.07
-0.015
0.035
-0.015
-0.065
-0.085
-0.05
-0.085
-0.075
-0.06
-0.015
0.005
-0.015
-0.04
0.02
0.005
-0.055
-0.05
-0.04
-0.08
-0.05
0.035
0.02
-0.015
-0.03
-0.045
-0.055
0.005
0.06
0.02
0.02
0.045
0.065
0.06
0.09
0.05
0.025
0.095
0.07
0.05
0.05
0.01
0.065
0.065
0.12
0.115
0.08
0.1
0.085
0.07
0.1
0.155
0.145
0.155
0.17
0.17
0.14
0.1
0.095
0.1
0.11
0.105
0.095
0.125
0.115
0.115
0.115
0.085
0.06
0.045
0.045
0.02
0.035
0.015
0.05
0.015
0.05
-0.06
-0.035
-0.055
-0.035
-0.06
-0.07
-0.065
-0.115
-0.125
-0.12
-0.09
-0.105
-0.115
-0.145
-0.035
-0.02
-0.09
-0.07
-0.095
-0.15
-0.12
-0.09
-0.125
-0.115
-0.12
-0.1
-0.125
-0.175
-0.155
-0.12
-0.11
-0.13
-0.11
-0.105
-0.13
-0.14
-0.12
-0.17
-0.16
-0.15
-0.13
-0.19
-0.195
-0.14
-0.07
-0.07
-0.095
-0.12
-0.15
-0.105
-0.1
-0.09
-0.11
-0.125
-0.12
-0.09
-0.085
-0.09
-0.13
-0.155
-0.12
-0.09
-0.145
-0.09
-0.105
-0.105
-0.1
-0.125
-0.115
-0.08
-0.045
-0.08
-0.115
-0.16
-0.17
-0.115
-0.11
-0.1
-0.085
-0.105
-0.11
-0.08
-0.13
-0.145
-0.125
-0.1
-0.075
-0.08
-0.12
-0.145
-0.17
-0.12
-0.13
-0.05
-0.1
-0.165
-0.155
-0.095
-0.105
-0.105
-0.08
-0.09
-0.105
-0.125
-0.085
-0.115
-0.075
-0.135
-0.12
-0.15
-0.155
-0.135
-0.095
-0.105
-0.11
-0.165
-0.17
-0.115
-0.1
-0.12
-0.15
-0.135
-0.085
-0.09
-0.11
-0.05
-0.07
-0.115
-0.13
-0.125
-0.115
-0.125
-0.115
-0.13
-0.11
-0.17
-0.115
-0.125
-0.13
-0.08
-0.07
-0.08
-0.08
-0.06
-0.105
-0.13
-0.1
-0.065
-0.12
-0.14
-0.125
-0.13
-0.09
-0.03
-0.035
-0.135
-0.095
-0.055
-0.11
-0.1
-0.1
-0.115
-0.1
-0.07
-0.075
-0.03
-0.03
-0.005
-0.08
-0.085
-0.18
-0.13
-0.06
-0.065
-0.09
-0.085
-0.11
-0.095
-0.105
-0.055
-0.07
-0.115
-0.055
-0.025
-0.06
-0.08
-0.105
-0.145
-0.16
-0.1
-0.08
-0.105
-0.05
-0.05
-0.085
-0.16
-0.085
-0.055
-0.075
-0.13
-0.11
-0.175
-0.13
-0.125
-0.09
-0.07
-0.11
-0.115
-0.085
-0.06
-0.075
-0.09
-0.11
-0.15
-0.165
-0.155
-0.095
-0.115
-0.105
-0.145
-0.11
-0.07
-0.075
-0.095
-0.13
-0.14
-0.08
-0.08
-0.095
-0.08
-0.065
-0.09
-0.08
-0.1
-0.135
-0.16
-0.105
-0.125
-0.125
-0.075
-0.085
-0.06
-0.025
0.015
0.075
0.095
0.09
0.125
0.17
0.185
0.115
0.085
0.07
0.07
0.035
0.06
0.065
-0.045
-0.085
-0.135
-0.22
-0.225
-0.185
-0.155
-0.18
-0.14
-0.11
-0.13
-0.06
-0.015
-0.02
-0.045
-0.01
0.01
-0.085
-0.11
-0.075
-0.06
-0.07
-0.055
-0.085
-0.07
-0.07
-0.085
-0.095
-0.045
-0.045
-0.075
-0.07
-0.05
-0.04
-0.045
-0.045
-0.06
0.0
-0.025
-0.035
-0.045
-0.045
-0.045
-0.045
-0.08
0.01
-0.005
-0.055
-0.09
-0.055
-0.03
-0.045
-0.02
-0.075
-0.03
-0.02
-0.035
-0.025
-0.04
-0.015
-0.055
-0.04
-0.045
-0.05
-0.025
0.015
0.025
-0.015
-0.055
-0.055
-0.04
-0.04
-0.045
0.02
0.0
-0.01
-0.045
-0.05
-0.02
0.005
0.015
0.02
-0.025
-0.015
-0.015
-0.03
0.05
0.06
0.01
0.015
0.05
0.07
0.025
0.02
0.03
0.025
0.05
0.065
0.05
0.05
0.095
0.115
0.12
0.13
0.105
0.075
0.1
0.1
0.11
0.105
0.1
0.135
0.17
0.17
0.155
0.16
0.085
0.03
0.055
0.095
0.11
0.13
0.145
0.115
0.145
0.025
0.035
0.065
0.13
0.11
0.09
0.115
0.12
0.06
0.05
0.025
0.02
0.03
0.035
0.015
0.01
-0.025
-0.04
-0.025
-0.06
-0.085
-0.055
-0.085
-0.07
-0.115
-0.105
-0.065
-0.1
-0.135
-0.11
-0.06
-0.095
-0.11
-0.11
-0.145
-0.135
-0.15
-0.125
-0.095
-0.095
-0.11
-0.115
-0.1
-0.105
-0.13
-0.15
-0.105
-0.11
-0.125
-0.11
-0.09
-0.105
-0.09
-0.135
-0.175
-0.165
-0.075
-0.07
-0.11
-0.16
-0.18
-0.155
-0.11
-0.13
-0.11
-0.13
-0.125
-0.155
-0.12
-0.1
-0.11
-0.15
-0.115
-0.085
-0.11
-0.1
-0.06
-0.08
-0.135
-0.095
-0.1
-0.095
-0.115
-0.115
-0.155
-0.135
-0.175
-0.11
-0.105
-0.04
-0.08
-0.12
-0.09
-0.08
-0.115
-0.11
-0.135
-0.165
-0.13
-0.105
-0.1
-0.085
-0.115
-0.135
-0.145
-0.105
-0.135
-0.165
-0.17
-0.145
-0.15
-0.14
-0.12
-0.14
-0.15
-0.145
-0.17
-0.125
-0.105
-0.135
-0.095
-0.105
-0.145
-0.165
-0.18
-0.135
-0.125
-0.19
-0.125
-0.02
-0.075
-0.09
-0.065
-0.11
-0.08
-0.065
-0.1
-0.16
-0.135
-0.135
-0.175
-0.15
-0.155
-0.11
-0.125
-0.1
-0.09
-0.135
-0.165
-0.125
-0.165
-0.165
-0.155
-0.12
-0.08
-0.09
-0.095
-0.15
-0.095
-0.135
-0.125
-0.165
-0.14
-0.185
-0.175
-0.105
-0.18
-0.115
-0.095
-0.165
-0.1
-0.1
-0.16
-0.15
-0.105
-0.085
-0.125
-0.175
-0.155
-0.09
-0.135
-0.095
-0.075
-0.095
-0.09
-0.085
-0.125
-0.125
-0.12
-0.085
-0.095
-0.115
-0.095
-0.09
-0.04
-0.06
-0.085
-0.14
-0.1
-0.125
-0.095
-0.09
-0.065
-0.015
-0.04
-0.105
-0.195
-0.155
-0.07
-0.05
-0.12
-0.145
-0.13
-0.08
-0.105
-0.115
-0.11
-0.115
-0.115
-0.085
-0.095
-0.09
-0.08
-0.095
-0.17
-0.13
-0.135
-0.115
-0.1
-0.105
-0.15
-0.12
-0.11
-0.11
-0.06
-0.12
-0.17
-0.095
-0.12
-0.145
-0.12
-0.095
-0.14
-0.145
-0.125
-0.1
-0.13
-0.1
-0.02
-0.045
-0.085
-0.1
-0.085
-0.08
-0.105
-0.13
-0.115
-0.065
-0.085
-0.145
-0.125
-0.115
-0.11
-0.14
-0.105
-0.085
-0.12
-0.105
-0.065
-0.095
-0.08
-0.08
-0.045
-0.015
0.045
0.1
0.1
0.095
0.2
0.205
0.135
0.12
0.1
0.065
0.08
0.11
0.095
0.085
0.035
-0.1
-0.215
-0.215
-0.145
-0.09
-0.12
-0.115
-0.115
-0.05
-0.025
-0.075
-0.065
-0.04
-0.075
-0.065
-0.035
-0.03
-0.04
-0.025
-0.04
-0.03
0.01
0.04
-0.03
-0.085
-0.07
-0.085
-0.085
-0.075
-0.055
-0.05
-0.055
-0.02
-0.035
-0.055
-0.05
-0.05
-0.035
0.01
-0.035
-0.05
-0.055
-0.04
-0.03
-0.03
-0.01
-0.1
-0.085
0.0
0.055
0.01
-0.03
-0.005
-0.015
-0.05
-0.06
-0.05
-0.045
-0.02
0.005
-0.01
-0.085
-0.055
-0.005
0.04
0.02
-0.05
0.015
0.045
0.0
-0.025
-0.005
0.05
0.045
0.065
0.075
0.02
0.035
-0.015
0.0
0.02
0.015
0.03
-0.03
-0.015
-0.005
0.025
0.08
0.14
0.095
0.01
0.065
0.1
0.075
0.065
0.12
0.115
0.105
0.11
0.115
0.11
0.09
0.1
0.115
0.2
0.205
0.115
0.1
0.155
0.135
0.145
0.15
0.15
0.13
0.175
0.21
0.14
0.125
0.115
0.145
0.18
0.215
0.15
0.23
0.195
0.205
0.16
0.145
0.15
0.145
0.11
0.135
0.105
0.115
0.095
0.095
0.04
0.065
0.065
0.06
0.015
-0.005
0.015
0.0
0.025
0.03
0.005
-0.02
-0.005
-0.04
-0.045
-0.04
-0.05
-0.05
-0.06
-0.02
-0.03
-0.06
-0.04
-0.045
-0.015
-0.07
-0.06
-0.075
-0.095
-0.05
-0.025
-0.035
-0.045
-0.05
0.005
-0.015
-0.05
-0.06
-0.045
-0.06
-0.06
-0.01
0.005
0.015
-0.07
-0.065
-0.075
-0.06
-0.025
-0.025
0.02
-0.01
-0.02
-0.025
0.0
0.02
-0.07
-0.06
-0.045
-0.03
-0.05
0.0
0.04
0.03
-0.01
-0.045
-0.025
-0.02
-0.015
-0.015
-0.025
-0.04
-0.015
-0.025
-0.015
-0.01
-0.015
0.005
-0.01
-0.02
-0.01
0.005
-0.015
-0.005
0.03
-0.015
-0.015
0.02
0.015
-0.015
-0.01
-0.005
0.0
-0.055
-0.025
-0.015
0.005
-0.02
-0.015
-0.025
-0.015
-0.055
0.0
0.025
-0.015
-0.025
-0.015
0.02
-0.01
0.045
0.055
0.025
0.02
-0.045
-0.035
-0.03
-0.035
0.02
0.015
0.015
-0.015
-0.02
-0.005
0.025
-0.005
-0.03
-0.095
0.015
0.015
0.0
0.065
0.025
-0.02
-0.025
-0.005
0.005
0.015
0.035
0.025
-0.005
-0.01
0.02
0.065
0.085
0.04
0.045
0.045
0.0
0.015
-0.025
-0.02
-0.005
-0.005
0.005
0.01
0.01
0.015
0.045
0.04
-0.02
0.03
-0.02
0.0
0.01
0.05
-0.015
0.0
0.025
0.02
-0.05
-0.02
0.01
0.045
0.04
-0.045
-0.02
0.045
0.08
0.065
0.045
0.055
0.075
0.08
0.03
0.05
0.065
0.08
0.04
0.03
0.045
0.025
0.05
0.095
0.065
0.075
0.065
0.08
0.055
0.13
0.115
0.095
0.05
0.095
0.06
0.035
0.03
0.025
0.065
0.08
0.04
0.045
0.075
0.04
0.015
0.005
0.045
0.04
0.02
-0.015
-0.025
0.02
0.105
0.095
0.055
0.065
0.065
0.06
0.055
0.04
0.06
0.06
0.06
0.07
0.08
0.1
0.06
0.08
0.075
0.08
0.06
0.085
0.105
0.095
0.085
0.08
0.025
0.01
0.04
0.04
0.06
0.08
0.11
0.08
0.055
0.12
0.09
0.07
0.11
0.085
0.06
0.085
0.09
0.055
0.055
0.025
0.045
0.06
0.085
0.07
0.125
0.16
0.17
0.165
0.21
0.225
0.355
0.4
0.39
0.34
0.305
0.355
0.29
0.27
0.35
0.345
0.26
0.265
0.2
0.08
0.04
0.06
0.14
0.165
0.175
0.11
0.13
0.155
0.17
0.18
0.155
0.2
0.145
0.16
0.17
0.13
0.11
0.155
0.165
0.13
0.17
0.175
0.105
0.1
0.155
0.21
0.185
0.11
0.14
0.15
0.105
0.13
0.1
0.12
0.195
0.16
0.095
0.135
0.15
0.14
0.195
0.215
0.17
0.175
0.15
0.17
0.155
0.21
0.21
0.185
0.185
0.205
0.245
0.21
0.205
0.21
0.215
0.22
0.23
0.275
0.22
0.23
0.23
0.155
0.13
0.125
0.18
0.17
0.19
0.235
0.245
0.28
0.24
0.22
0.205
0.215
0.265
0.28
0.28
0.29
0.32
0.3
0.245
0.28
0.27
0.25
0.31
0.235
0.295
0.3
0.31
0.29
0.335
0.36
0.375
0.36
0.36
0.325
0.33
0.36
0.375
0.32
0.38
0.325
0.37
0.37
0.39
0.425
0.485
0.44
0.41
0.39
0.42
0.43
0.41
0.43
0.46
0.465
0.41
0.37
0.405
0.41
0.425
0.44
0.4
0.39
0.375
0.415
0.425
0.41
0.4
0.33
0.315
0.31
0.295
0.3
0.27
0.28
0.265
0.28
0.295
0.27
0.28
0.25
0.26
0.26
0.23
0.215
0.24
0.29
0.305
0.2
0.19
0.21
0.235
0.215
0.225
0.205
0.215
0.26
0.285
0.28
0.275
0.23
0.2
0.205
0.215
0.24
0.235
0.22
0.265
0.275
0.3
0.285
0.25
0.265
0.29
0.245
0.23
0.245
0.26
0.245
0.255
0.255
0.275
0.25
0.225
0.275
0.265
0.25
0.29
0.29
0.275
0.285
0.315
0.305
0.31
0.285
0.285
0.305
0.335
0.305
0.305
0.295
0.295
0.255
0.315
0.295
0.305
0.335
0.315
0.3
0.26
0.28
0.27
0.305
0.295
0.295
0.265
0.325
0.295
0.275
0.295
0.335
0.315
0.3
0.36
0.385
0.33
0.32
0.325
0.305
0.33
0.315
0.31
0.29
0.295
0.35
0.345
0.37
0.42
0.41
0.34
0.27
0.34
0.38
0.33
0.285
0.325
0.345
0.32
0.305
0.335
0.36
0.325
0.34
0.33
0.345
0.345
0.27
0.3
0.3
0.28
0.355
0.37
0.345
0.33
0.345
0.325
0.345
0.335
0.325
0.345
0.325
0.245
0.32
0.395
0.39
0.34
0.375
0.34
0.37
0.41
0.365
0.305
0.335
0.355
0.395
0.425
0.4
0.37
0.33
0.345
0.36
0.35
0.385
0.395
0.385
0.375
0.4
0.36
0.335
0.32
0.315
0.31
0.325
0.345
0.355
0.355
0.37
0.35
0.405
0.395
0.34
0.36
0.41
0.36
0.345
0.375
0.37
0.32
0.295
0.305
0.32
0.405
0.37
0.285
0.325
0.365
0.315
0.29
0.325
0.33
0.315
0.35
0.345
0.36
0.285
0.3
0.37
0.37
0.37
0.3
0.295
0.34
0.35
0.345
0.27
0.31
0.305
0.325
0.355
0.355
0.3
0.315
0.26
0.275
0.3
0.31
0.34
0.285
0.335
0.33
0.285
0.315
0.315
0.35
0.275
0.285
0.39
0.345
0.29
0.325
0.29
0.27
0.315
0.32
0.29
0.285
0.31
0.31
0.315
0.32
0.29
0.325
0.345
0.345
0.4
0.45
0.5
0.52
0.54
0.605
0.62
0.58
0.505
0.465
0.405
0.375
0.37
0.405
0.415
0.33
0.25
0.18
0.18
0.2
0.215
0.23
0.26
0.275
0.245
0.29
0.26
0.26
0.365
0.375
0.37
0.36
0.34
0.37
0.295
0.325
0.35
0.355
0.32
0.325
0.325
0.345
0.335
0.335
0.35
0.305
0.28
0.295
0.3
0.31
0.3
0.295
0.345
0.33
0.325
0.275
0.295
0.345
0.37
0.375
0.35
0.335
0.3
0.335
0.4
0.285
0.265
0.345
0.375
0.315
0.34
0.355
0.35
0.37
0.345
0.32
0.26
0.33
0.345
0.32
0.345
0.39
0.335
0.305
0.335
0.36
0.34
0.38
0.335
0.295
0.325
0.37
0.375
0.385
0.37
0.365
0.365
0.37
0.37
0.355
0.365
0.355
0.395
0.4
0.39
0.355
0.385
0.365
0.395
0.4
0.455
0.47
0.39
0.35
0.415
0.425
0.39
0.425
0.45
0.4
0.49
0.525
0.48
0.5
0.41
0.485
0.495
0.55
0.415
0.41
0.43
0.47
0.44
0.475
0.495
0.5
0.5
0.485
0.445
0.43
0.48
0.525
0.465
0.465
0.48
0.425
0.39
0.47
0.45
0.375
0.39
0.39
0.405
0.39
0.355
0.325
0.33
0.33
0.335
0.2
0.235
0.295
0.28
0.25
0.28
0.24
0.2
0.2
0.23
0.245
0.215
0.205
0.21
0.215
0.215
0.21
0.23
0.265
0.275
0.185
0.195
0.19
0.19
0.16
0.18
0.15
0.16
0.195
0.19
0.245
0.26
0.18
0.17
0.215
0.17
0.15
0.165
0.245
0.19
0.185
0.2
0.225
0.22
0.21
0.2
0.19
0.215
0.235
0.175
0.19
0.21
0.225
0.225
0.13
0.19
0.155
0.185
0.175
0.19
0.18
0.24
0.21
0.175
0.19
0.21
0.165
0.15
0.115
0.215
0.255
0.255
0.21
0.23
0.195
0.215
0.175
0.23
0.185
0.16
0.16
0.18
0.165
0.15
0.215
0.195
0.16
0.16
0.175
0.19
0.21
0.21
0.195
0.175
0.19
0.175
0.18
0.18
0.18
0.2
0.225
0.275
0.225
0.165
0.14
0.165
0.095
0.065
0.135
0.175
0.165
0.215
0.2
0.19
0.225
0.135
0.125
0.165
0.185
0.22
0.165
0.145
0.19
0.17
0.18
0.16
0.16
0.2
0.205
0.145
0.16
0.2
0.15
0.145
0.2
0.165
0.165
0.2
0.18
0.21
0.225
0.205
0.195
0.17
0.13
0.16
0.13
0.135
0.15
0.14
0.18
0.155
0.17
0.16
0.155
0.16
0.16
0.195
0.2
0.155
0.18
0.19
0.21
0.175
0.175
0.135
0.115
0.205
0.235
0.185
0.205
0.175
0.13
0.18
0.195
0.18
0.135
0.18
0.15
0.15
0.18
0.17
0.195
0.155
0.225
0.13
0.145
0.165
0.125
0.13
0.175
0.165
0.155
0.14
0.15
0.145
0.135
0.185
0.135
0.14
0.145
0.11
0.14
0.17
0.185
0.13
0.085
0.085
0.125
0.14
0.15
0.135
0.08
0.12
0.135
0.16
0.17
0.19
0.19
0.145
0.17
0.165
0.085
0.025
0.13
0.205
0.155
0.12
0.135
0.115
0.17
0.175
0.16
0.15
0.16
0.095
0.14
0.12
0.085
0.115
0.125
0.12
0.085
0.13
0.205
0.215
0.185
0.2
0.22
0.305
0.37
0.355
0.365
0.36
0.33
0.285
0.235
0.255
0.265
0.35
0.435
0.295
0.185
0.17
0.07
0.055
0.095
0.1
0.075
0.065
0.135
0.14
0.155
0.15
0.18
0.19
0.205
0.22
0.165
0.14
0.195
0.165
0.17
0.11
0.105
0.18
0.185
0.175
0.135
0.15
0.145
0.135
0.15
0.16
0.13
0.075
0.19
0.18
0.135
0.095
0.115
0.17
0.11
0.155
0.15
0.115
0.12
0.16
0.165
0.18
0.195
0.205
0.17
0.12
0.14
0.155
0.16
0.165
0.13
0.195
0.21
0.14
0.17
0.165
0.185
0.185
0.17
0.175
0.17
0.175
0.195
0.2
0.16
0.175
0.215
0.225
0.185
0.155
0.155
0.205
0.225
0.21
0.165
0.19
0.17
0.2
0.18
0.205
0.23
0.235
0.22
0.2
0.185
0.18
0.205
0.19
0.18
0.26
0.225
0.235
0.285
0.265
0.215
0.205
0.245
0.3
0.265
0.28
0.295
0.325
0.305
0.3
0.28
0.315
0.255
0.255
0.285
0.31
0.34
0.32
0.335
0.29
0.27
0.285
0.235
0.305
0.29
0.29
0.285
0.285
0.285
0.27
0.215
0.27
0.25
0.215
0.235
0.22
0.2
0.195
0.225
0.18
0.135
0.115
0.105
0.1
0.13
0.105
0.095
0.09
0.095
0.11
0.115
0.085
0.08
0.07
0.115
0.095
0.04
0.025
0.035
0.055
0.06
0.03
0.015
0.01
0.005
-0.025
0.01
0.085
0.065
0.055
0.075
0.02
0.005
0.005
0.04
0.045
0.02
0.125
0.105
0.035
0.015
0.03
0.035
0.05
0.085
0.07
0.125
0.12
0.11
-0.04
0.04
0.085
0.06
0.065
0.025
0.045
0.145
0.095
0.03
-0.035
0.035
0.055
0.0
0.025
0.04
0.02
0.035
0.04
0.045
0.07
0.055
0.06
0.09
0.085
0.05
0.025
0.06
0.045
0.03
0.05
0.06
-0.015
0.025
0.11
0.125
0.11
0.06
0.045
0.06
0.035
0.0
-0.01
0.005
0.07
0.045
0.06
0.09
0.09
0.045
0.03
0.03
-0.005
0.045
0.07
0.025
0.03
0.06
0.02
-0.02
-0.005
0.0
0.02
-0.015
-0.015
0.005
0.035
0.025
0.03
0.045
0.045
0.055
0.045
0.02
0.035
0.03
0.055
0.08
0.035
0.02
-0.03
0.0
-0.02
-0.025
0.025
-0.04
-0.015
0.045
0.07
0.005
0.005
0.025
0.035
0.035
0.06
0.03
0.035
0.04
0.06
0.0
0.0
0.035
0.025
0.055
0.03
-0.015
-0.04
-0.015
0.005
0.035
0.01
0.025
0.0
0.065
0.01
-0.08
-0.055
0.02
0.015
0.025
0.075
0.08
0.035
-0.03
-0.025
0.0
0.03
0.04
0.035
0.045
0.105
0.03
-0.025
-0.01
0.03
0.07
0.09
0.095
-0.005
-0.02
0.02
0.045
0.01
0.035
0.025
-0.005
-0.025
0.02
-0.005
0.02
0.05
0.035
-0.02
-0.02
-0.035
-0.06
-0.025
0.025
0.025
0.01
-0.005
0.0
-0.015
-0.045
-0.03
-0.03
-0.035
-0.025
-0.005
-0.005
-0.01
-0.04
-0.045
-0.06
-0.055
-0.105
-0.01
0.05
0.005
0.015
0.0
-0.03
-0.07
-0.045
-0.035
-0.01
-0.01
0.04
0.045
0.035
-0.045
-0.085
-0.03
-0.02
-0.04
-0.05
0.0
0.025
0.01
-0.05
-0.045
-0.02
0.0
-0.02
-0.02
-0.02
-0.03
-0.035
-0.02
0.005
0.035
0.055
0.055
0.055
0.055
0.13
0.23
0.235
0.21
0.19
0.185
0.225
0.18
0.145
0.155
0.195
0.19
0.095
0.0
-0.035
-0.1
-0.065
-0.08
-0.1
-0.045
-0.01
-0.035
0.045
0.045
-0.005
0.0
0.025
0.005
-0.015
-0.01
0.0
0.005
-0.02
0.03
0.01
-0.01
-0.03
-0.05
0.0
-0.01
0.03
0.045
0.045
0.065
0.06
-0.01
-0.01
-0.015
-0.065
-0.055
0.0
0.01
0.005
-0.02
-0.01
0.005
-0.02
-0.005
0.035
-0.01
0.06
0.105
0.08
-0.045
-0.025
-0.04
-0.01
0.01
-0.005
0.025
0.01
0.035
0.03
-0.015
0.0
0.01
0.02
0.025
-0.01
0.025
0.045
0.065
0.03
0.05
0.07
0.05
0.025
0.005
0.045
0.065
0.04
0.035
0.035
0.01
0.115
0.08
0.03
0.075
0.07
0.07
0.075
0.1
0.105
0.075
0.095
0.09
0.055
0.1
0.12
0.07
0.12
0.175
0.135
0.135
0.155
0.15
0.115
0.185
0.15
0.14
0.165
0.16
0.18
0.17
0.145
0.14
0.11
0.18
0.22
0.225
0.2
0.21
0.17
0.23
0.25
0.18
0.175
0.145
0.17
0.145
0.17
0.235
0.145
0.17
0.145
0.135
0.1
0.105
0.11
0.09
0.045
0.04
0.08
0.065
0.04
-0.02
-0.005
0.04
0.025
0.035
0.025
-0.005
-0.105
-0.095
-0.055
-0.02
-0.05
-0.065
-0.01
0.01
-0.015
-0.02
-0.1
-0.085
-0.08
-0.055
-0.05
-0.035
-0.07
-0.06
-0.06
-0.045
-0.04
-0.055
-0.035
-0.02
-0.035
-0.085
-0.065
-0.045
-0.005
-0.045
-0.05
-0.015
0.0
-0.045
-0.04
0.0
-0.01
-0.08
-0.02
-0.025
-0.045
-0.025
-0.035
-0.11
-0.07
-0.035
-0.06
-0.065
-0.075
-0.045
-0.01
0.015
0.025
0.0
-0.025
-0.055
-0.05
-0.03
-0.005
-0.015
0.025
0.04
0.01
-0.055
-0.02
-0.02
-0.06
-0.03
-0.01
0.005
-0.02
-0.05
-0.045
-0.04
-0.035
-0.01
-0.035
-0.02
0.015
-0.045
-0.03
0.015
0.005
-0.04
0.015
0.0
0.01
0.05
0.01
-0.015
-0.015
0.05
0.025
-0.03
-0.025
-0.04
-0.03
0.0
0.02
0.015
0.0
0.02
-0.01
-0.025
0.015
-0.01
-0.06
-0.03
0.005
0.01
-0.005
-0.01
-0.02
0.005
0.005
0.02
0.025
0.01
0.02
-0.04
0.015
0.015
-0.01
0.01
-0.005
-0.03
-0.03
0.015
0.05
0.025
0.035
0.045
0.05
0.035
0.035
0.04
0.005
0.0
0.03
0.01
0.04
0.02
-0.02
-0.045
-0.02
0.005
0.015
0.025
0.02
0.035
0.015
-0.01
0.025
0.02
0.01
0.0
0.03
-0.03
-0.005
-0.005
0.015
0.04
0.025
0.045
0.06
0.085
0.1
0.08
0.045
0.05
0.055
0.065
0.02
0.005
0.04
0.055
0.05
0.07
0.06
0.04
0.075
0.08
0.055
0.085
0.095
0.09
0.09
0.08
0.1
0.14
0.115
0.095
0.11
0.155
0.12
0.04
0.065
0.13
0.135
0.105
0.05
0.01
0.055
0.08
0.065
0.09
0.07
0.065
0.08
0.095
0.12
0.095
0.075
0.145
0.105
0.065
0.08
0.11
0.14
0.11
0.115
0.14
0.07
0.11
0.1
0.11
0.1
0.115
0.12
0.07
0.11
0.12
0.11
0.135
0.13
0.105
0.13
0.085
0.08
0.06
0.075
0.095
0.15
0.12
0.095
0.065
0.095
0.145
0.125
0.12
0.11
0.145
0.045
0.095
0.11
0.14
0.1
0.215
0.175
0.11
0.14
0.15
0.15
0.14
0.12
0.125
0.145
0.155
0.17
0.165
0.11
0.165
0.19
0.195
0.185
0.2
0.28
0.395
0.405
0.41
0.425
0.415
0.39
0.38
0.365
0.32
0.37
0.37
0.275
0.26
0.19
0.17
0.06
0.065
0.13
0.135
0.135
0.185
0.23
0.225
0.2
0.175
0.2
0.265
0.225
0.195
0.205
0.245
0.195
0.185
0.21
0.2
0.21
0.21
0.225
0.18
0.2
0.24
0.245
0.235
0.22
0.16
0.185
0.185
0.195
0.24
0.26
0.265
0.245
0.26
0.3
0.29
0.24
0.23
0.25
0.21
0.215
0.175
0.245
0.265
0.23
0.225
0.265
0.26
0.24
0.26
0.25
0.265
0.245
0.215
0.245
0.23
0.195
0.255
0.25
0.225
0.25
0.305
0.27
0.285
0.335
0.31
0.23
0.215
0.27
0.365
0.355
0.32
0.315
0.29
0.29
0.31
0.325
0.34
0.32
0.345
0.33
0.35
0.315
0.325
0.33
0.285
0.35
0.375
0.355
0.36
0.325
0.3
0.32
0.335
0.37
0.375
0.385
0.375
0.37
0.385
0.44
0.44
0.405
0.415
0.39
0.4
0.43
0.44
0.37
0.38
0.46
0.48
0.41
0.43
0.475
0.455
0.45
0.46
0.44
0.46
0.465
0.4
0.39
0.415
0.37
0.355
0.34
0.36
0.35
0.335
0.345
0.31
0.28
0.225
0.23
0.22
0.21
0.245
0.2
0.235
0.24
0.21
0.18
0.18
0.2
0.155
0.205
0.195
0.18
0.195
0.165
0.11
0.125
0.19
0.185
0.175
0.18
0.17
0.15
0.165
0.195
0.17
0.16
0.195
0.2
0.16
0.15
0.185
0.175
0.18
0.21
0.16
0.13
0.18
0.2
0.16
0.14
0.115
0.17
0.155
0.09
0.145
0.14
0.195
0.18
0.12
0.08
0.1
0.135
0.14
0.195
0.155
0.155
0.175
0.14
0.19
0.235
0.175
0.13
0.13
0.17
0.155
0.145
0.165
0.135
0.15
0.145
0.12
0.165
0.21
0.155
0.12
0.135
0.125
0.135
0.13
0.14
0.14
0.13
0.15
0.2
0.155
0.13
0.155
0.125
0.09
0.12
0.06
0.1
0.135
0.14
0.14
0.13
0.125
0.09
0.1
0.11
0.085
0.14
0.14
0.115
0.125
0.13
0.16
0.135
0.135
0.12
0.145
0.125
0.13
0.125
0.12
0.13
0.115
0.095
0.11
0.07
0.085
0.105
0.12
0.075
0.075
0.08
0.06
0.1
0.145
0.07
0.1
0.12
0.11
0.08
0.1
0.09
0.135
0.09
0.07
0.115
0.09
0.075
0.12
0.065
0.065
0.115
0.095
0.09
0.09
0.085
0.06
0.11
0.095
0.055
0.105
0.115
0.14
0.135
0.09
0.065
0.065
0.08
0.1
0.125
0.08
0.065
0.075
0.01
0.01
0.04
0.02
0.045
0.1
0.09
0.07
0.09
0.055
0.035
0.04
0.085
0.04
0.07
0.1
0.045
0.085
0.065
0.095
0.095
0.07
0.065
0.055
0.075
0.11
0.045
0.085
0.145
0.065
0.05
0.105
0.115
0.095
0.08
0.08
0.08
0.075
0.085
0.08
0.095
0.025
