# TIPE ECG 2021 - ECG-ID Database v1.0.0 par Physionet
# [N° de la personne, N° de l'enregistrement, Période d'échantillonnage, Prénom, Age, Sexe, Date de l'enregistrement]
[2, 19, 0.002, "Emma", 23, "F", "05.04.2005"]
-0.5
-0.46
-0.355
-0.355
-0.335
-0.38
-0.465
-0.54
-0.57
-0.575
-0.51
-0.445
-0.38
-0.365
-0.355
-0.39
-0.48
-0.51
-0.56
-0.58
-0.515
-0.455
-0.4
-0.355
-0.375
-0.395
-0.485
-0.53
-0.555
-0.595
-0.535
-0.45
-0.395
-0.385
-0.385
-0.405
-0.5
-0.555
-0.555
-0.545
-0.49
-0.415
-0.38
-0.355
-0.375
-0.41
-0.515
-0.54
-0.575
-0.555
-0.505
-0.42
-0.385
-0.355
-0.365
-0.425
-0.505
-0.54
-0.57
-0.55
-0.5
-0.41
-0.395
-0.345
-0.375
-0.405
-0.475
-0.515
-0.535
-0.535
-0.475
-0.405
-0.355
-0.32
-0.36
-0.395
-0.505
-0.53
-0.575
-0.555
-0.48
-0.39
-0.37
-0.36
-0.37
-0.445
-0.52
-0.57
-0.6
-0.58
-0.505
-0.425
-0.4
-0.375
-0.395
-0.445
-0.56
-0.585
-0.595
-0.58
-0.515
-0.425
-0.4
-0.395
-0.4
-0.455
-0.53
-0.565
-0.595
-0.565
-0.505
-0.415
-0.37
-0.35
-0.395
-0.48
-0.55
-0.605
-0.635
-0.555
-0.46
-0.36
-0.27
-0.225
-0.25
-0.245
-0.265
-0.265
-0.3
-0.31
-0.325
-0.32
-0.335
-0.365
-0.445
-0.56
-0.725
-0.845
-0.875
-0.81
-0.725
-0.66
-0.605
-0.57
-0.56
-0.61
-0.655
-0.655
-0.65
-0.6
-0.5
-0.415
-0.375
-0.37
-0.415
-0.475
-0.535
-0.58
-0.575
-0.525
-0.475
-0.385
-0.37
-0.365
-0.405
-0.49
-0.535
-0.56
-0.57
-0.53
-0.43
-0.385
-0.34
-0.325
-0.37
-0.47
-0.535
-0.545
-0.545
-0.5
-0.44
-0.38
-0.34
-0.35
-0.375
-0.465
-0.525
-0.56
-0.545
-0.495
-0.405
-0.345
-0.34
-0.325
-0.37
-0.45
-0.51
-0.545
-0.52
-0.46
-0.37
-0.34
-0.295
-0.28
-0.325
-0.44
-0.48
-0.49
-0.48
-0.425
-0.34
-0.29
-0.255
-0.265
-0.32
-0.4
-0.43
-0.44
-0.425
-0.38
-0.27
-0.235
-0.225
-0.225
-0.27
-0.315
-0.36
-0.395
-0.375
-0.305
-0.215
-0.21
-0.185
-0.185
-0.205
-0.315
-0.365
-0.385
-0.375
-0.305
-0.245
-0.2
-0.18
-0.205
-0.27
-0.345
-0.385
-0.415
-0.41
-0.35
-0.28
-0.245
-0.235
-0.26
-0.335
-0.425
-0.46
-0.485
-0.475
-0.4
-0.32
-0.325
-0.31
-0.345
-0.39
-0.48
-0.525
-0.545
-0.5
-0.435
-0.355
-0.34
-0.335
-0.36
-0.43
-0.485
-0.525
-0.56
-0.525
-0.44
-0.385
-0.335
-0.305
-0.345
-0.405
-0.48
-0.52
-0.53
-0.51
-0.42
-0.36
-0.365
-0.325
-0.355
-0.425
-0.495
-0.52
-0.52
-0.485
-0.415
-0.36
-0.34
-0.315
-0.35
-0.435
-0.49
-0.505
-0.53
-0.475
-0.38
-0.35
-0.335
-0.305
-0.355
-0.44
-0.475
-0.515
-0.52
-0.475
-0.39
-0.37
-0.325
-0.325
-0.355
-0.445
-0.48
-0.52
-0.535
-0.49
-0.395
-0.35
-0.32
-0.345
-0.375
-0.465
-0.505
-0.525
-0.52
-0.475
-0.38
-0.335
-0.305
-0.315
-0.37
-0.445
-0.52
-0.53
-0.535
-0.47
-0.38
-0.35
-0.305
-0.345
-0.415
-0.46
-0.5
-0.525
-0.55
-0.5
-0.375
-0.35
-0.325
-0.34
-0.405
-0.505
-0.515
-0.545
-0.53
-0.48
-0.37
-0.33
-0.295
-0.345
-0.4
-0.465
-0.495
-0.5
-0.495
-0.45
-0.35
-0.31
-0.27
-0.33
-0.375
-0.46
-0.495
-0.53
-0.495
-0.43
-0.365
-0.325
-0.27
-0.315
-0.385
-0.45
-0.49
-0.53
-0.515
-0.425
-0.35
-0.33
-0.315
-0.345
-0.425
-0.5
-0.53
-0.535
-0.5
-0.46
-0.38
-0.355
-0.36
-0.38
-0.42
-0.47
-0.515
-0.54
-0.515
-0.455
-0.38
-0.34
-0.315
-0.355
-0.42
-0.49
-0.52
-0.555
-0.525
-0.425
-0.38
-0.34
-0.32
-0.36
-0.425
-0.495
-0.545
-0.565
-0.51
-0.41
-0.325
-0.255
-0.22
-0.22
-0.22
-0.235
-0.225
-0.29
-0.275
-0.26
-0.27
-0.31
-0.3
-0.385
-0.535
-0.69
-0.795
-0.79
-0.76
-0.675
-0.62
-0.53
-0.535
-0.55
-0.59
-0.645
-0.63
-0.605
-0.535
-0.445
-0.37
-0.33
-0.345
-0.385
-0.465
-0.5
-0.535
-0.5
-0.48
-0.39
-0.34
-0.32
-0.295
-0.335
-0.46
-0.505
-0.51
-0.495
-0.45
-0.365
-0.31
-0.3
-0.305
-0.345
-0.45
-0.485
-0.52
-0.495
-0.44
-0.355
-0.3
-0.28
-0.3
-0.325
-0.435
-0.465
-0.505
-0.465
-0.4
-0.335
-0.285
-0.265
-0.3
-0.34
-0.4
-0.455
-0.465
-0.405
-0.395
-0.28
-0.27
-0.245
-0.255
-0.31
-0.39
-0.39
-0.405
-0.405
-0.355
-0.235
-0.19
-0.18
-0.2
-0.26
-0.34
-0.37
-0.39
-0.34
-0.28
-0.19
-0.15
-0.13
-0.165
-0.225
-0.29
-0.305
-0.32
-0.285
-0.215
-0.145
-0.135
-0.12
-0.115
-0.155
-0.26
-0.285
-0.31
-0.28
-0.225
-0.135
-0.105
-0.105
-0.16
-0.215
-0.29
-0.345
-0.36
-0.305
-0.23
-0.195
-0.165
-0.165
-0.215
-0.3
-0.355
-0.4
-0.415
-0.39
-0.3
-0.245
-0.24
-0.245
-0.28
-0.365
-0.4
-0.42
-0.46
-0.4
-0.34
-0.285
-0.255
-0.27
-0.295
-0.38
-0.43
-0.455
-0.465
-0.415
-0.31
-0.265
-0.23
-0.24
-0.285
-0.375
-0.42
-0.455
-0.46
-0.415
-0.31
-0.275
-0.25
-0.23
-0.275
-0.365
-0.44
-0.455
-0.445
-0.395
-0.315
-0.275
-0.245
-0.24
-0.28
-0.36
-0.4
-0.435
-0.42
-0.405
-0.28
-0.235
-0.21
-0.24
-0.27
-0.38
-0.415
-0.45
-0.44
-0.395
-0.28
-0.25
-0.21
-0.245
-0.28
-0.355
-0.395
-0.425
-0.44
-0.395
-0.295
-0.25
-0.23
-0.235
-0.295
-0.38
-0.405
-0.43
-0.41
-0.35
-0.245
-0.22
-0.205
-0.195
-0.285
-0.385
-0.41
-0.41
-0.395
-0.36
-0.28
-0.235
-0.21
-0.245
-0.28
-0.365
-0.415
-0.42
-0.395
-0.33
-0.255
-0.225
-0.22
-0.24
-0.29
-0.39
-0.4
-0.425
-0.4
-0.325
-0.225
-0.195
-0.185
-0.22
-0.285
-0.355
-0.39
-0.41
-0.355
-0.285
-0.195
-0.18
-0.18
-0.21
-0.285
-0.35
-0.38
-0.38
-0.35
-0.29
-0.21
-0.15
-0.145
-0.19
-0.27
-0.335
-0.355
-0.39
-0.37
-0.325
-0.255
-0.19
-0.195
-0.23
-0.32
-0.345
-0.415
-0.42
-0.37
-0.285
-0.235
-0.21
-0.2
-0.25
-0.335
-0.37
-0.395
-0.41
-0.34
-0.285
-0.21
-0.19
-0.195
-0.24
-0.32
-0.385
-0.4
-0.42
-0.39
-0.305
-0.24
-0.21
-0.215
-0.28
-0.37
-0.405
-0.415
-0.415
-0.345
-0.2
-0.095
-0.02
-0.015
-0.02
-0.075
-0.125
-0.2
-0.245
-0.28
-0.25
-0.255
-0.27
-0.325
-0.42
-0.62
-0.68
-0.71
-0.695
-0.615
-0.505
-0.465
-0.4
-0.41
-0.405
-0.455
-0.495
-0.485
-0.475
-0.415
-0.32
-0.265
-0.25
-0.235
-0.265
-0.395
-0.425
-0.445
-0.45
-0.38
-0.28
-0.24
-0.23
-0.26
-0.32
-0.37
-0.435
-0.46
-0.43
-0.39
-0.31
-0.245
-0.225
-0.25
-0.305
-0.39
-0.42
-0.46
-0.425
-0.38
-0.3
-0.26
-0.23
-0.24
-0.315
-0.39
-0.41
-0.445
-0.425
-0.395
-0.305
-0.25
-0.25
-0.275
-0.32
-0.385
-0.425
-0.445
-0.415
-0.375
-0.29
-0.235
-0.22
-0.26
-0.33
-0.385
-0.44
-0.435
-0.39
-0.31
-0.25
-0.23
-0.21
-0.24
-0.295
-0.345
-0.4
-0.395
-0.37
-0.295
-0.235
-0.175
-0.175
-0.205
-0.26
-0.335
-0.35
-0.355
-0.33
-0.225
-0.2
-0.19
-0.17
-0.235
-0.315
-0.36
-0.395
-0.385
-0.365
-0.28
-0.24
-0.24
-0.23
-0.265
-0.36
-0.435
-0.45
-0.475
-0.46
-0.385
-0.33
-0.3
-0.31
-0.385
-0.465
-0.54
-0.555
-0.56
-0.53
-0.445
-0.42
-0.39
-0.405
-0.46
-0.52
-0.58
-0.615
-0.61
-0.575
-0.505
-0.465
-0.44
-0.44
-0.5
-0.595
-0.64
-0.66
-0.66
-0.595
-0.505
-0.465
-0.475
-0.47
-0.51
-0.625
-0.67
-0.7
-0.68
-0.595
-0.535
-0.525
-0.5
-0.495
-0.565
-0.655
-0.695
-0.73
-0.7
-0.645
-0.555
-0.53
-0.525
-0.535
-0.575
-0.67
-0.72
-0.755
-0.745
-0.685
-0.58
-0.55
-0.535
-0.565
-0.64
-0.735
-0.745
-0.765
-0.765
-0.71
-0.62
-0.59
-0.545
-0.6
-0.66
-0.77
-0.785
-0.795
-0.8
-0.735
-0.655
-0.61
-0.595
-0.625
-0.675
-0.795
-0.845
-0.845
-0.815
-0.75
-0.685
-0.655
-0.62
-0.67
-0.745
-0.805
-0.865
-0.885
-0.855
-0.795
-0.72
-0.695
-0.695
-0.7
-0.775
-0.845
-0.86
-0.905
-0.865
-0.81
-0.73
-0.71
-0.735
-0.76
-0.805
-0.87
-0.93
-0.93
-0.905
-0.84
-0.775
-0.73
-0.715
-0.74
-0.835
-0.91
-0.94
-0.96
-0.935
-0.86
-0.79
-0.755
-0.775
-0.795
-0.9
-0.94
-0.96
-0.98
-0.945
-0.87
-0.815
-0.775
-0.795
-0.86
-0.935
-1.005
-1.025
-1.04
-0.995
-0.925
-0.875
-0.845
-0.86
-0.89
-0.995
-1.005
-1.065
-1.08
-1.03
-0.955
-0.9
-0.895
-0.91
-0.94
-1.03
-1.07
-1.09
-1.095
-1.07
-0.985
-0.94
-0.89
-0.89
-0.985
-1.095
-1.11
-1.155
-1.14
-1.1
-0.995
-0.955
-0.895
-0.92
-0.955
-1.0
-0.985
-0.97
-0.895
-0.83
-0.735
-0.755
-0.77
-0.87
-0.985
-1.095
-1.16
-1.25
-1.32
-1.365
-1.31
-1.29
-1.24
-1.24
-1.3
-1.385
-1.385
-1.365
-1.315
-1.24
-1.135
-1.085
-1.03
-1.06
-1.11
-1.19
-1.205
-1.23
-1.23
-1.18
-1.085
-1.04
-1.02
-1.03
-1.11
-1.175
-1.22
-1.245
-1.21
-1.135
-1.075
-1.055
-1.02
-1.045
-1.125
-1.185
-1.235
-1.245
-1.2
-1.14
-1.085
-1.045
-1.045
-1.07
-1.155
-1.21
-1.245
-1.25
-1.21
-1.155
-1.09
-1.045
-1.03
-1.075
-1.15
-1.21
-1.235
-1.265
-1.23
-1.175
-1.06
-1.04
-1.02
-1.06
-1.135
-1.19
-1.215
-1.215
-1.185
-1.12
-1.06
-1.025
-1.025
-1.07
-1.125
-1.16
-1.18
-1.2
-1.17
-1.075
-1.005
-0.95
-0.95
-0.985
-1.08
-1.14
-1.13
-1.16
-1.11
-1.04
-0.98
-0.96
-0.94
-0.98
-1.065
-1.105
-1.15
-1.14
-1.075
-1.035
-1.025
-0.975
-0.97
-1.035
-1.125
-1.175
-1.21
-1.185
-1.16
-1.085
-1.055
-1.015
-1.02
-1.1
-1.185
-1.22
-1.275
-1.275
-1.245
-1.14
-1.115
-1.08
-1.095
-1.155
-1.245
-1.285
-1.34
-1.325
-1.28
-1.2
-1.165
-1.135
-1.155
-1.21
-1.29
-1.325
-1.355
-1.35
-1.285
-1.195
-1.155
-1.1
-1.145
-1.2
-1.295
-1.335
-1.38
-1.33
-1.27
-1.165
-1.165
-1.13
-1.14
-1.195
-1.305
-1.335
-1.365
-1.345
-1.28
-1.15
-1.15
-1.125
-1.145
-1.205
-1.285
-1.325
-1.355
-1.31
-1.27
-1.18
-1.14
-1.12
-1.155
-1.21
-1.275
-1.315
-1.34
-1.335
-1.235
-1.17
-1.135
-1.125
-1.165
-1.2
-1.29
-1.305
-1.32
-1.325
-1.245
-1.17
-1.145
-1.12
-1.155
-1.245
-1.32
-1.33
-1.355
-1.3
-1.225
-1.16
-1.115
-1.105
-1.17
-1.25
-1.305
-1.34
-1.35
-1.295
-1.22
-1.175
-1.155
-1.13
-1.165
-1.245
-1.295
-1.32
-1.35
-1.31
-1.21
-1.16
-1.12
-1.125
-1.17
-1.25
-1.305
-1.325
-1.34
-1.29
-1.19
-1.15
-1.13
-1.11
-1.155
-1.235
-1.295
-1.33
-1.325
-1.285
-1.195
-1.12
-1.075
-1.115
-1.16
-1.255
-1.305
-1.32
-1.32
-1.3
-1.2
-1.135
-1.105
-1.125
-1.155
-1.23
-1.275
-1.32
-1.31
-1.235
-1.13
-1.11
-1.06
-1.09
-1.145
-1.225
-1.285
-1.3
-1.26
-1.2
-1.125
-1.1
-1.06
-1.09
-1.155
-1.225
-1.28
-1.295
-1.265
-1.26
-1.145
-1.12
-1.07
-1.115
-1.195
-1.245
-1.265
-1.305
-1.295
-1.25
-1.14
-1.115
-1.095
-1.115
-1.15
-1.245
-1.295
-1.31
-1.27
-1.245
-1.145
-1.085
-1.045
-1.1
-1.18
-1.255
-1.285
-1.315
-1.3
-1.215
-1.12
-1.1
-1.075
-1.1
-1.14
-1.24
-1.225
-1.22
-1.15
-1.025
-0.91
-0.81
-0.765
-0.8
-0.915
-1.045
-1.12
-1.19
-1.185
-1.18
-1.18
-1.23
-1.285
-1.34
-1.4
-1.435
-1.465
-1.485
-1.44
-1.34
-1.22
-1.185
-1.14
-1.155
-1.195
-1.265
-1.27
-1.27
-1.23
-1.15
-1.07
-1.04
-1.045
-1.075
-1.125
-1.19
-1.22
-1.23
-1.195
-1.135
-1.06
-1.02
-0.985
-1.04
-1.13
-1.155
-1.195
-1.175
-1.165
-1.08
-1.03
-0.99
-0.965
-1.02
-1.085
-1.13
-1.18
-1.175
-1.12
-1.065
-0.98
-0.95
-0.96
-1.0
-1.08
-1.13
-1.145
-1.15
-1.1
-1.01
-0.94
-0.935
-0.93
-0.95
-1.065
-1.105
-1.125
-1.115
-1.055
-0.985
-0.945
-0.885
-0.88
-0.93
-1.015
-1.055
-1.06
-1.06
-1.025
-0.925
-0.86
-0.825
-0.85
-0.89
-0.96
-0.995
-1.015
-0.98
-0.915
-0.85
-0.795
-0.765
-0.755
-0.82
-0.905
-0.93
-0.96
-0.95
-0.89
-0.795
-0.775
-0.73
-0.77
-0.815
-0.89
-0.945
-1.005
-0.975
-0.88
-0.825
-0.81
-0.775
-0.805
-0.845
-0.95
-0.995
-1.03
-0.975
-0.925
-0.85
-0.845
-0.85
-0.86
-0.925
-0.985
-1.045
-1.055
-1.03
-0.98
-0.9
-0.87
-0.845
-0.9
-0.93
-1.005
-1.055
-1.08
-1.035
-0.96
-0.91
-0.875
-0.88
-0.895
-0.94
-1.025
-1.045
-1.055
-1.02
-0.98
-0.905
-0.88
-0.865
-0.875
-0.935
-1.015
-1.04
-1.055
-1.03
-0.95
-0.88
-0.84
-0.81
-0.845
-0.92
-1.005
-1.025
-1.04
-0.995
-0.89
-0.87
-0.815
-0.81
-0.85
-0.93
-0.98
-1.035
-1.025
-0.97
-0.915
-0.845
-0.805
-0.815
-0.83
-0.92
-0.99
-1.0
-1.005
-0.96
-0.875
-0.835
-0.82
-0.815
-0.84
-0.935
-0.99
-1.025
-1.005
-0.96
-0.885
-0.84
-0.785
-0.8
-0.85
-0.95
-0.99
-0.985
-0.995
-0.93
-0.85
-0.8
-0.77
-0.77
-0.805
-0.905
-0.95
-0.99
-0.985
-0.945
-0.825
-0.8
-0.745
-0.76
-0.84
-0.88
-0.94
-0.985
-0.96
-0.92
-0.845
-0.79
-0.735
-0.765
-0.82
-0.925
-0.97
-0.97
-0.925
-0.905
-0.81
-0.77
-0.735
-0.735
-0.79
-0.875
-0.915
-0.96
-0.95
-0.86
-0.76
-0.75
-0.735
-0.755
-0.825
-0.895
-0.925
-0.93
-0.895
-0.835
-0.745
-0.715
-0.7
-0.73
-0.785
-0.87
-0.905
-0.92
-0.91
-0.845
-0.775
-0.72
-0.695
-0.71
-0.765
-0.85
-0.885
-0.885
-0.855
-0.805
-0.72
-0.705
-0.655
-0.7
-0.735
-0.835
-0.885
-0.895
-0.84
-0.755
-0.71
-0.705
-0.685
-0.72
-0.775
-0.825
-0.87
-0.895
-0.895
-0.825
-0.765
-0.685
-0.68
-0.72
-0.79
-0.855
-0.895
-0.91
-0.875
-0.795
-0.71
-0.665
-0.685
-0.73
-0.8
-0.865
-0.89
-0.87
-0.85
-0.78
-0.7
-0.685
-0.68
-0.715
-0.785
-0.835
-0.85
-0.855
-0.835
-0.76
-0.71
-0.66
-0.655
-0.68
-0.695
-0.725
-0.705
-0.655
-0.545
-0.425
-0.33
-0.35
-0.395
-0.52
-0.655
-0.725
-0.815
-0.865
-0.87
-0.885
-0.905
-0.88
-0.885
-0.91
-0.98
-1.01
-1.015
-0.975
-0.89
-0.795
-0.72
-0.67
-0.655
-0.705
-0.78
-0.81
-0.825
-0.785
-0.765
-0.665
-0.61
-0.575
-0.595
-0.66
-0.735
-0.775
-0.79
-0.765
-0.73
-0.645
-0.59
-0.58
-0.57
-0.62
-0.735
-0.76
-0.765
-0.75
-0.71
-0.605
-0.55
-0.545
-0.59
-0.615
-0.685
-0.705
-0.75
-0.72
-0.675
-0.6
-0.535
-0.515
-0.55
-0.595
-0.68
-0.71
-0.715
-0.685
-0.64
-0.55
-0.51
-0.475
-0.535
-0.545
-0.605
-0.665
-0.7
-0.665
-0.605
-0.52
-0.495
-0.455
-0.485
-0.53
-0.595
-0.645
-0.635
-0.61
-0.525
-0.45
-0.39
-0.37
-0.41
-0.48
-0.55
-0.58
-0.62
-0.56
-0.48
-0.37
-0.34
-0.33
-0.355
-0.415
-0.495
-0.53
-0.56
-0.52
-0.425
-0.37
-0.34
-0.315
-0.38
-0.455
-0.52
-0.565
-0.565
-0.52
-0.45
-0.39
-0.365
-0.345
-0.385
-0.47
-0.56
-0.6
-0.58
-0.555
-0.495
-0.455
-0.405
-0.415
-0.475
-0.525
-0.595
-0.65
-0.635
-0.59
-0.535
-0.495
-0.445
-0.43
-0.48
-0.565
-0.615
-0.65
-0.64
-0.63
-0.55
-0.5
-0.44
-0.41
-0.49
-0.575
-0.615
-0.64
-0.64
-0.595
-0.505
-0.48
-0.445
-0.455
-0.485
-0.565
-0.63
-0.61
-0.64
-0.565
-0.48
-0.44
-0.405
-0.44
-0.485
-0.56
-0.595
-0.64
-0.61
-0.545
-0.445
-0.425
-0.415
-0.41
-0.46
-0.56
-0.59
-0.625
-0.61
-0.575
-0.46
-0.415
-0.38
-0.42
-0.465
-0.56
-0.595
-0.625
-0.595
-0.54
-0.455
-0.415
-0.415
-0.42
-0.455
-0.54
-0.595
-0.6
-0.6
-0.54
-0.415
-0.4
-0.37
-0.385
-0.47
-0.555
-0.595
-0.625
-0.595
-0.505
-0.425
-0.375
-0.39
-0.405
-0.47
-0.545
-0.565
-0.6
-0.55
-0.505
-0.42
-0.38
-0.37
-0.4
-0.465
-0.54
-0.585
-0.595
-0.545
-0.465
-0.43
-0.405
-0.35
-0.415
-0.49
-0.545
-0.555
-0.55
-0.55
-0.475
-0.395
-0.365
-0.365
-0.395
-0.455
-0.545
-0.56
-0.55
-0.51
-0.455
-0.395
-0.34
-0.33
-0.39
-0.465
-0.545
-0.575
-0.565
-0.51
-0.45
-0.39
-0.345
-0.34
-0.375
-0.47
-0.5
-0.535
-0.53
-0.515
-0.42
-0.375
-0.36
-0.345
-0.35
-0.465
-0.535
-0.57
-0.525
-0.515
-0.41
-0.345
-0.325
-0.32
-0.37
-0.44
-0.48
-0.505
-0.495
-0.46
-0.38
-0.31
-0.25
-0.285
-0.35
-0.465
-0.485
-0.505
-0.485
-0.45
-0.33
-0.29
-0.275
-0.31
-0.35
-0.45
-0.47
-0.5
-0.47
-0.425
-0.365
-0.305
-0.28
-0.305
-0.355
-0.45
-0.495
-0.515
-0.485
-0.44
-0.355
-0.335
-0.29
-0.32
-0.375
-0.47
-0.485
-0.5
-0.49
-0.415
-0.35
-0.31
-0.285
-0.29
-0.365
-0.445
-0.475
-0.505
-0.48
-0.425
-0.345
-0.295
-0.29
-0.295
-0.365
-0.45
-0.455
-0.445
-0.39
-0.295
-0.145
-0.07
0.02
0.03
-0.045
-0.17
-0.27
-0.365
-0.37
-0.37
-0.3
-0.32
-0.4
-0.505
-0.59
-0.67
-0.715
-0.72
-0.655
-0.575
-0.465
-0.415
-0.38
-0.385
-0.435
-0.485
-0.49
-0.49
-0.465
-0.375
-0.305
-0.265
-0.26
-0.285
-0.315
-0.41
-0.465
-0.45
-0.44
-0.35
-0.25
-0.23
-0.23
-0.27
-0.325
-0.38
-0.425
-0.44
-0.39
-0.315
-0.245
-0.21
-0.215
-0.275
-0.355
-0.385
-0.4
-0.41
-0.39
-0.305
-0.23
-0.185
-0.17
-0.24
-0.325
-0.375
-0.405
-0.385
-0.345
-0.275
-0.23
-0.18
-0.17
-0.2
-0.29
-0.33
-0.355
-0.36
-0.315
-0.22
-0.18
-0.125
-0.115
-0.165
-0.27
-0.31
-0.345
-0.335
-0.275
-0.17
-0.125
-0.095
-0.1
-0.135
-0.225
-0.25
-0.25
-0.23
-0.195
-0.09
-0.065
-0.025
-0.035
-0.085
-0.155
-0.205
-0.23
-0.22
-0.14
-0.055
-0.025
-0.005
-0.01
-0.065
-0.14
-0.185
-0.22
-0.2
-0.165
-0.075
-0.025
-0.015
-0.03
-0.09
-0.2
-0.255
-0.285
-0.26
-0.205
-0.125
-0.045
-0.04
-0.075
-0.145
-0.245
-0.295
-0.31
-0.295
-0.215
-0.145
-0.13
-0.115
-0.155
-0.195
-0.305
-0.315
-0.33
-0.305
-0.26
-0.175
-0.135
-0.13
-0.145
-0.21
-0.3
-0.325
-0.34
-0.325
-0.25
-0.16
-0.15
-0.14
-0.15
-0.23
-0.31
-0.325
-0.33
-0.295
-0.26
-0.17
-0.135
-0.115
-0.135
-0.215
-0.3
-0.325
-0.315
-0.305
-0.235
-0.15
-0.105
-0.1
-0.125
-0.215
-0.28
-0.305
-0.325
-0.285
-0.23
-0.17
-0.12
-0.1
-0.14
-0.225
-0.275
-0.29
-0.3
-0.265
-0.2
-0.135
-0.105
-0.115
-0.16
-0.225
-0.265
-0.315
-0.305
-0.245
-0.16
-0.135
-0.11
-0.095
-0.15
-0.24
-0.285
-0.315
-0.32
-0.265
-0.185
-0.13
-0.12
-0.11
-0.16
-0.23
-0.28
-0.32
-0.325
-0.235
-0.19
-0.12
-0.105
-0.115
-0.15
-0.22
-0.26
-0.315
-0.305
-0.25
-0.155
-0.12
-0.1
-0.1
-0.16
-0.25
-0.29
-0.32
-0.315
-0.235
-0.15
-0.12
-0.085
-0.095
-0.15
-0.25
-0.3
-0.295
-0.275
-0.215
-0.135
-0.1
-0.065
-0.06
-0.155
-0.245
-0.27
-0.28
-0.265
-0.22
-0.145
-0.12
-0.08
-0.085
-0.155
-0.23
-0.27
-0.295
-0.26
-0.22
-0.14
-0.08
-0.08
-0.08
-0.15
-0.245
-0.28
-0.285
-0.27
-0.19
-0.125
-0.115
-0.085
-0.09
-0.16
-0.255
-0.295
-0.28
-0.24
-0.175
-0.11
-0.055
-0.045
-0.07
-0.135
-0.22
-0.245
-0.265
-0.21
-0.16
-0.08
-0.035
0.0
-0.035
-0.13
-0.18
-0.235
-0.25
-0.22
-0.145
-0.07
-0.03
-0.02
-0.055
-0.14
-0.21
-0.225
-0.255
-0.215
-0.145
-0.08
-0.04
-0.06
-0.065
-0.16
-0.235
-0.265
-0.24
-0.215
-0.145
-0.085
-0.03
-0.045
-0.085
-0.155
-0.215
-0.255
-0.26
-0.22
-0.145
-0.075
-0.055
-0.05
-0.1
-0.175
-0.225
-0.255
-0.26
-0.215
-0.115
-0.085
-0.05
-0.055
-0.085
-0.16
-0.235
-0.29
-0.255
-0.19
-0.06
0.015
0.08
0.12
0.13
0.12
0.11
0.055
0.015
0.005
0.045
0.045
0.015
-0.005
-0.14
-0.34
-0.445
-0.53
-0.5
-0.435
-0.32
-0.27
-0.205
-0.2
-0.23
-0.315
-0.305
-0.335
-0.275
-0.21
-0.13
-0.08
-0.025
-0.03
-0.085
-0.175
-0.205
-0.235
-0.215
-0.155
-0.055
-0.02
0.025
-0.01
-0.065
-0.17
-0.215
-0.205
-0.185
-0.13
-0.02
0.015
0.005
-0.005
-0.06
-0.14
-0.175
-0.185
-0.19
-0.12
-0.02
0.01
0.02
0.025
-0.025
-0.12
-0.155
-0.18
-0.15
-0.08
-0.005
0.025
0.045
0.025
-0.03
-0.1
-0.15
-0.155
-0.11
-0.03
0.05
0.07
0.095
0.065
-0.015
-0.095
-0.11
-0.115
-0.095
-0.02
0.085
0.115
0.115
0.095
0.025
-0.055
-0.075
-0.07
-0.03
0.06
0.135
0.16
0.185
0.14
0.075
0.025
0.02
-0.02
0.02
0.11
0.215
0.23
0.24
0.175
0.08
0.02
-0.005
0.0
0.065
0.135
0.18
0.215
0.215
0.155
0.065
-0.01
-0.03
-0.025
0.03
0.075
0.12
0.145
0.145
0.11
0.005
-0.035
-0.065
-0.08
-0.035
0.035
0.085
0.105
0.09
0.045
-0.025
-0.075
-0.105
-0.125
-0.095
-0.01
0.06
0.11
0.075
0.02
-0.045
-0.09
-0.145
-0.12
-0.075
0.0
0.05
0.09
0.06
0.02
-0.075
-0.1
-0.14
-0.13
-0.06
0.015
0.035
0.095
0.1
0.025
-0.055
-0.09
-0.13
-0.11
-0.05
0.035
0.065
0.075
0.07
0.045
-0.06
-0.085
-0.105
-0.095
-0.035
0.055
0.07
0.105
0.095
0.03
-0.025
-0.065
-0.085
-0.09
-0.035
0.025
0.075
0.125
0.09
0.03
-0.045
-0.08
-0.12
-0.105
-0.045
0.06
0.115
0.135
0.095
0.045
-0.065
-0.105
-0.095
-0.06
-0.02
0.055
0.095
0.11
0.085
-0.005
-0.065
-0.105
-0.09
-0.08
-0.01
0.06
0.08
0.095
0.065
0.01
-0.1
-0.105
-0.115
-0.065
0.01
0.065
0.1
0.105
0.065
0.005
-0.06
-0.11
-0.11
-0.1
-0.01
0.075
0.095
0.11
0.07
0.005
-0.05
-0.1
-0.11
-0.09
0.005
0.07
0.095
0.1
0.085
-0.02
-0.07
-0.09
-0.09
-0.05
0.04
0.115
0.11
0.105
0.07
-0.005
-0.085
-0.11
-0.095
-0.05
0.035
0.07
0.11
0.105
0.055
-0.02
-0.07
-0.105
-0.11
-0.04
0.025
0.075
0.095
0.095
0.06
-0.025
-0.06
-0.12
-0.13
-0.06
0.035
0.09
0.14
0.12
0.05
-0.025
-0.065
-0.09
-0.075
-0.045
0.055
0.095
0.145
0.095
0.07
-0.01
-0.035
-0.07
-0.055
-0.005
0.08
0.135
0.13
0.105
0.08
0.015
-0.03
-0.075
-0.055
0.005
0.09
0.115
0.13
0.1
0.05
-0.05
-0.055
-0.085
-0.065
-0.02
0.06
0.115
0.13
0.11
0.04
-0.05
-0.085
-0.11
-0.08
-0.03
0.06
0.095
0.135
0.09
0.03
-0.06
-0.085
-0.1
-0.065
0.005
0.055
0.105
0.12
0.095
0.0
-0.085
-0.095
-0.105
-0.085
-0.005
0.06
0.1
0.125
0.115
0.085
0.06
0.045
0.09
0.19
0.315
0.395
0.41
0.385
0.25
0.16
0.02
-0.07
-0.11
-0.15
-0.155
-0.165
-0.15
-0.125
-0.14
-0.225
-0.26
-0.255
-0.25
-0.195
-0.09
-0.005
0.045
0.07
0.04
-0.04
-0.07
-0.1
-0.12
-0.06
0.025
0.11
0.155
0.11
0.08
-0.01
-0.055
-0.08
-0.065
-0.015
0.06
0.1
0.13
0.15
0.11
0.045
-0.01
-0.04
-0.045
-0.03
0.035
0.1
0.155
0.15
0.09
0.015
-0.02
-0.045
-0.05
-0.02
0.095
0.15
0.175
0.145
0.125
0.035
-0.015
-0.045
-0.04
0.0
0.13
0.16
0.19
0.16
0.115
0.035
0.0
-0.02
0.005
0.04
0.12
0.17
0.215
0.21
0.165
0.085
0.035
0.01
0.045
0.12
0.19
0.235
0.24
0.225
0.18
0.12
0.08
0.07
0.105
0.155
0.265
0.29
0.32
0.3
0.23
0.175
0.14
0.11
0.135
0.185
0.275
0.305
0.34
0.3
0.24
0.12
0.115
0.095
0.115
0.175
0.245
0.28
0.295
0.245
0.18
0.085
0.075
0.025
0.07
0.145
0.2
0.185
0.215
0.175
0.11
0.04
-0.01
-0.025
0.01
0.07
0.135
0.185
0.18
0.125
0.07
-0.005
-0.03
-0.045
-0.025
0.065
0.12
0.125
0.145
0.135
0.065
-0.025
-0.045
-0.08
-0.025
0.045
0.115
0.145
0.16
0.14
0.04
-0.015
-0.035
-0.06
0.0
0.065
0.12
0.145
0.17
0.115
0.015
-0.01
-0.055
-0.04
0.01
0.05
0.09
0.155
0.165
0.135
0.01
-0.015
-0.055
-0.055
0.0
0.08
0.13
0.155
0.165
0.12
0.03
-0.03
-0.05
-0.05
-0.015
0.075
0.125
0.165
0.14
0.115
0.03
-0.01
-0.055
-0.07
-0.03
0.075
0.13
0.17
0.16
0.08
0.0
-0.06
-0.04
-0.055
0.01
0.07
0.125
0.15
0.13
0.08
0.0
-0.045
-0.08
-0.075
-0.035
0.06
0.1
0.145
0.115
0.055
-0.035
-0.065
-0.105
-0.065
-0.02
0.08
0.11
0.125
0.105
0.07
-0.035
-0.075
-0.12
-0.07
0.0
0.07
0.1
0.125
0.11
0.065
-0.055
-0.05
-0.085
-0.06
-0.015
0.065
0.11
0.115
0.08
0.035
-0.055
-0.09
-0.115
-0.09
-0.01
0.075
0.11
0.105
0.095
-0.005
-0.065
-0.1
-0.1
-0.08
0.0
0.07
0.08
0.115
0.07
-0.005
-0.06
-0.09
-0.115
-0.09
-0.025
0.065
0.085
0.105
0.09
-0.005
-0.09
-0.095
-0.125
-0.07
0.005
0.06
0.125
0.1
0.075
0.0
-0.045
-0.065
-0.095
-0.045
0.01
0.075
0.12
0.11
0.09
0.01
-0.045
-0.1
-0.1
-0.07
0.005
0.065
0.12
0.1
0.07
-0.04
-0.11
-0.145
-0.13
-0.065
0.025
0.005
0.035
0.055
0.03
-0.08
-0.125
-0.16
-0.13
-0.105
-0.025
0.04
0.06
0.05
-0.005
-0.085
-0.125
-0.155
-0.15
-0.11
-0.02
0.035
0.055
0.035
-0.035
-0.095
-0.145
-0.175
-0.175
-0.11
-0.035
0.0
0.055
0.06
0.045
0.0
-0.025
0.01
0.095
0.195
0.32
0.33
0.285
0.195
0.11
-0.02
-0.125
-0.195
-0.235
-0.285
-0.265
-0.215
-0.2
-0.21
-0.255
-0.345
-0.325
-0.36
-0.32
-0.265
-0.125
-0.07
-0.005
-0.005
-0.08
-0.16
-0.18
-0.205
-0.19
-0.1
-0.01
0.04
0.05
0.02
-0.03
-0.135
-0.16
-0.165
-0.185
-0.13
-0.015
0.035
0.05
0.035
-0.045
-0.125
-0.145
-0.215
-0.15
-0.05
-0.03
-0.005
0.03
0.04
-0.05
-0.125
-0.14
-0.155
-0.15
-0.11
-0.005
0.025
0.035
0.005
-0.045
-0.11
-0.17
-0.16
-0.12
-0.08
0.02
0.015
0.065
0.04
-0.045
-0.105
-0.16
-0.16
-0.12
-0.045
0.025
0.055
0.1
0.06
-0.04
-0.085
-0.12
-0.125
-0.09
0.04
0.075
0.13
0.095
0.1
0.005
-0.01
-0.06
-0.045
-0.05
0.09
0.125
0.155
0.17
0.16
0.07
0.0
-0.05
-0.05
0.01
0.07
0.14
0.145
0.16
0.12
0.03
-0.07
-0.08
-0.095
-0.02
0.07
0.085
0.1
0.065
0.07
-0.01
-0.09
-0.16
-0.115
-0.1
-0.03
0.025
0.08
0.005
-0.005
-0.125
-0.18
-0.2
-0.2
-0.14
-0.035
-0.01
-0.01
-0.03
-0.07
-0.17
-0.205
-0.24
-0.235
-0.175
-0.06
-0.05
-0.035
-0.07
-0.125
-0.185
-0.255
-0.23
-0.22
-0.16
-0.115
-0.08
-0.04
-0.045
-0.1
-0.205
-0.24
-0.25
-0.22
-0.19
-0.115
-0.09
-0.065
-0.095
-0.105
-0.18
-0.225
-0.29
-0.235
-0.155
-0.075
-0.04
-0.05
-0.06
-0.14
-0.21
-0.24
-0.285
-0.245
-0.17
-0.105
-0.115
-0.075
-0.075
-0.14
-0.225
-0.29
-0.27
-0.23
-0.215
-0.15
-0.1
-0.07
-0.135
-0.145
-0.25
-0.275
-0.305
-0.245
-0.15
-0.115
-0.085
-0.1
-0.115
-0.22
-0.28
-0.3
-0.335
-0.26
-0.185
-0.11
-0.105
-0.09
-0.155
-0.205
-0.27
-0.355
-0.33
-0.275
-0.165
-0.15
-0.11
-0.14
-0.17
-0.195
-0.29
-0.33
-0.3
-0.3
-0.225
-0.135
-0.125
-0.105
-0.125
-0.25
-0.31
-0.345
-0.31
-0.28
-0.175
-0.16
-0.12
-0.175
-0.175
-0.24
-0.285
-0.345
-0.34
-0.31
-0.195
-0.17
-0.115
-0.115
-0.18
-0.245
-0.28
-0.335
-0.335
-0.28
-0.185
-0.16
-0.115
-0.12
-0.2
-0.255
-0.305
-0.325
-0.32
-0.285
-0.17
-0.08
-0.09
-0.125
-0.17
-0.23
-0.28
-0.305
-0.32
-0.24
-0.185
-0.14
-0.125
-0.125
-0.185
-0.205
-0.265
-0.32
-0.285
-0.25
-0.21
-0.165
-0.115
-0.135
-0.23
-0.275
-0.265
-0.36
-0.34
-0.27
-0.2
-0.175
-0.14
-0.165
-0.205
-0.31
-0.365
-0.38
-0.345
-0.285
-0.24
-0.155
-0.13
-0.165
-0.205
-0.295
-0.305
-0.405
-0.36
-0.3
-0.21
-0.17
-0.105
-0.205
-0.225
-0.33
-0.35
-0.335
-0.285
-0.145
-0.045
0.065
0.12
0.14
0.115
0.085
-0.015
-0.09
-0.165
-0.11
-0.08
-0.13
-0.195
-0.295
-0.455
-0.565
-0.585
-0.6
-0.565
-0.485
-0.485
-0.4
-0.405
-0.4
-0.45
-0.47
-0.52
-0.51
-0.415
-0.315
-0.26
-0.215
-0.175
-0.225
-0.285
-0.355
-0.375
-0.36
-0.34
-0.215
-0.165
-0.13
-0.13
-0.19
-0.29
-0.335
-0.365
-0.34
-0.29
-0.195
-0.135
-0.09
-0.135
-0.215
-0.295
-0.32
-0.355
-0.325
-0.27
-0.21
-0.14
-0.075
-0.12
-0.175
-0.235
-0.34
-0.32
-0.32
-0.265
-0.16
-0.13
-0.105
-0.08
-0.175
-0.21
-0.27
-0.305
-0.29
-0.235
-0.13
-0.095
-0.065
-0.095
-0.085
-0.2
-0.265
-0.25
-0.245
-0.195
-0.125
-0.065
-0.03
-0.05
-0.055
-0.185
-0.205
-0.2
-0.155
-0.135
-0.035
0.015
0.04
0.03
-0.005
-0.1
-0.11
-0.13
-0.135
-0.065
0.065
0.065
0.105
0.075
0.035
-0.06
-0.08
-0.14
-0.095
-0.06
0.005
0.055
0.09
0.085
-0.025
-0.095
-0.11
-0.155
-0.16
-0.09
-0.015
0.02
0.05
-0.005
-0.09
-0.165
-0.185
-0.255
-0.235
-0.19
-0.1
-0.075
-0.08
-0.11
-0.17
-0.25
-0.29
-0.29
-0.28
-0.22
-0.175
-0.13
-0.145
-0.175
-0.22
-0.28
-0.33
-0.355
-0.32
-0.245
-0.175
-0.12
-0.145
-0.155
-0.21
-0.29
-0.335
-0.36
-0.305
-0.245
-0.185
-0.135
-0.125
-0.17
-0.23
-0.295
-0.335
-0.355
-0.32
-0.235
-0.15
-0.095
-0.11
-0.15
-0.245
-0.31
-0.335
-0.37
-0.315
-0.215
-0.17
-0.12
-0.125
-0.13
-0.245
-0.305
-0.325
-0.345
-0.275
-0.215
-0.155
-0.09
-0.115
-0.15
-0.23
-0.285
-0.325
-0.34
-0.3
-0.2
-0.145
-0.12
-0.14
-0.155
-0.28
-0.305
-0.35
-0.335
-0.315
-0.225
-0.165
-0.14
-0.13
-0.175
-0.27
-0.32
-0.35
-0.35
-0.27
-0.205
-0.155
-0.12
-0.145
-0.185
-0.3
-0.32
-0.36
-0.35
-0.265
-0.2
-0.15
-0.125
-0.155
-0.22
-0.315
-0.335
-0.335
-0.34
-0.265
-0.165
-0.165
-0.13
-0.14
-0.22
-0.3
-0.33
-0.365
-0.335
-0.295
-0.18
-0.145
-0.105
-0.15
-0.195
-0.285
-0.335
-0.34
-0.285
-0.23
-0.145
-0.145
-0.11
-0.17
-0.175
-0.27
-0.305
-0.33
-0.325
-0.235
-0.135
-0.11
-0.105
-0.14
-0.19
-0.265
-0.32
-0.365
-0.325
-0.25
-0.17
-0.17
-0.14
-0.165
-0.23
-0.345
-0.35
-0.375
-0.34
-0.255
-0.18
-0.16
-0.15
-0.21
-0.255
-0.295
-0.325
-0.375
-0.325
-0.255
-0.17
-0.14
-0.155
-0.215
-0.29
-0.345
-0.38
-0.385
-0.365
-0.285
-0.225
-0.15
-0.075
-0.075
-0.1
-0.115
-0.055
0.02
0.09
0.155
0.16
0.115
0.08
-0.035
-0.185
-0.29
-0.42
-0.5
-0.535
-0.47
-0.395
-0.37
-0.38
-0.425
-0.5
-0.53
-0.555
-0.52
-0.46
-0.345
-0.285
-0.23
-0.185
-0.24
-0.34
-0.375
-0.4
-0.365
-0.34
-0.23
-0.16
-0.14
-0.145
-0.215
-0.285
-0.32
-0.345
-0.33
-0.31
-0.22
-0.125
-0.115
-0.18
-0.21
-0.285
-0.305
-0.34
-0.315
-0.26
-0.195
-0.165
-0.105
-0.125
-0.185
-0.315
-0.265
-0.31
-0.315
-0.24
-0.195
-0.11
-0.07
-0.105
-0.16
-0.26
-0.3
-0.32
-0.27
-0.22
-0.135
-0.08
-0.065
-0.09
-0.165
-0.245
-0.285
-0.285
-0.25
-0.21
-0.11
-0.065
-0.065
-0.045
-0.11
-0.165
-0.21
-0.23
-0.215
-0.145
-0.045
-0.01
0.01
0.025
-0.055
-0.125
-0.145
-0.16
-0.105
-0.07
-0.01
0.085
0.095
0.105
-0.005
-0.065
-0.095
-0.11
-0.115
-0.005
0.06
0.105
0.105
0.075
-0.04
-0.085
-0.14
-0.13
-0.11
-0.07
0.0
0.025
0.025
-0.015
-0.1
-0.17
-0.195
-0.23
-0.215
-0.165
-0.095
-0.05
-0.065
-0.125
-0.2
-0.265
-0.275
-0.28
-0.265
-0.22
-0.12
-0.095
-0.09
-0.16
-0.24
-0.305
-0.295
-0.32
-0.29
-0.2
-0.135
-0.145
-0.13
-0.185
-0.255
-0.315
-0.34
-0.315
-0.27
-0.21
-0.14
-0.14
-0.125
-0.18
-0.265
-0.305
-0.34
-0.335
-0.3
-0.21
-0.16
-0.125
-0.12
-0.165
-0.25
-0.33
-0.33
-0.335
-0.3
-0.195
-0.165
-0.115
-0.12
-0.19
-0.255
-0.305
-0.35
-0.335
-0.275
-0.17
-0.155
-0.125
-0.14
-0.175
-0.26
-0.31
-0.34
-0.335
-0.275
-0.175
-0.135
-0.11
-0.12
-0.2
-0.27
-0.3
-0.34
-0.3
-0.26
-0.165
-0.14
-0.135
-0.15
-0.2
-0.295
-0.335
-0.355
-0.315
-0.27
-0.19
-0.14
-0.11
-0.155
-0.2
-0.29
-0.315
-0.36
-0.305
-0.265
-0.185
-0.115
-0.085
-0.165
-0.235
-0.3
-0.345
-0.36
-0.355
-0.29
-0.19
-0.16
-0.16
-0.145
-0.225
-0.32
-0.345
-0.34
-0.33
-0.24
-0.18
-0.14
-0.115
-0.165
-0.215
-0.31
-0.33
-0.35
-0.33
-0.24
-0.17
-0.15
-0.14
-0.125
-0.205
-0.295
-0.335
-0.345
-0.305
-0.24
-0.145
-0.12
-0.135
-0.16
-0.205
-0.28
-0.345
-0.325
-0.275
-0.22
-0.155
-0.125
-0.115
-0.18
-0.225
-0.3
-0.325
-0.32
-0.305
-0.245
-0.175
-0.175
-0.17
-0.215
-0.3
-0.365
-0.385
-0.38
-0.33
-0.23
-0.205
-0.18
-0.145
-0.23
-0.325
-0.36
-0.41
-0.415
-0.35
-0.235
-0.19
-0.215
-0.24
-0.25
-0.34
-0.415
-0.44
-0.43
-0.39
-0.295
-0.225
-0.12
-0.065
-0.05
-0.05
-0.055
-0.025
0.05
0.06
0.11
0.065
0.05
0.02
-0.085
-0.245
-0.38
-0.53
-0.595
-0.54
-0.455
-0.42
-0.365
-0.405
-0.45
-0.53
-0.58
-0.59
-0.54
-0.46
-0.35
-0.3
-0.28
-0.27
-0.29
-0.395
-0.435
-0.43
-0.41
-0.355
-0.27
-0.25
-0.205
-0.255
-0.31
-0.38
-0.41
-0.45
-0.4
-0.345
-0.26
-0.225
-0.2
-0.235
-0.29
-0.375
-0.4
-0.43
-0.405
-0.355
-0.27
-0.25
-0.195
-0.24
-0.29
-0.35
-0.425
-0.435
-0.385
-0.35
-0.245
-0.205
-0.22
-0.24
-0.295
-0.405
-0.41
-0.43
-0.4
-0.315
-0.265
-0.24
-0.21
-0.23
-0.32
-0.37
-0.405
-0.415
-0.365
-0.32
-0.24
-0.175
-0.18
-0.235
-0.285
-0.345
-0.36
-0.39
-0.315
-0.255
-0.18
-0.145
-0.13
-0.175
-0.25
-0.295
-0.335
-0.335
-0.295
-0.205
-0.105
-0.09
-0.08
-0.125
-0.225
-0.275
-0.28
-0.31
-0.265
-0.205
-0.14
-0.07
-0.11
-0.155
-0.25
-0.3
-0.34
-0.35
-0.31
-0.225
-0.185
-0.165
-0.195
-0.25
-0.305
-0.37
-0.425
-0.415
-0.375
-0.3
-0.275
-0.22
-0.255
-0.315
-0.425
-0.455
-0.465
-0.485
-0.445
-0.355
-0.32
-0.28
-0.295
-0.37
-0.44
-0.495
-0.54
-0.515
-0.47
-0.355
-0.325
-0.295
-0.325
-0.375
-0.465
-0.51
-0.53
-0.515
-0.48
-0.395
-0.35
-0.32
-0.335
-0.395
-0.5
-0.535
-0.55
-0.53
-0.51
-0.38
-0.34
-0.32
-0.36
-0.385
-0.485
-0.525
-0.55
-0.535
-0.475
-0.395
-0.355
-0.315
-0.35
-0.395
-0.49
-0.525
-0.525
-0.51
-0.45
-0.38
-0.375
-0.33
-0.36
-0.41
-0.48
-0.52
-0.545
-0.52
-0.46
-0.41
-0.365
-0.35
-0.37
-0.425
-0.5
-0.5
-0.53
-0.485
-0.415
-0.36
-0.325
-0.33
-0.35
-0.43
-0.5
-0.54
-0.55
-0.54
-0.45
-0.395
-0.385
-0.335
-0.38
-0.45
-0.515
-0.54
-0.58
-0.515
-0.46
-0.405
-0.34
-0.325
-0.395
-0.475
-0.53
-0.57
-0.575
-0.53
-0.47
-0.385
-0.38
-0.36
-0.405
-0.49
-0.545
-0.57
-0.555
-0.515
-0.445
-0.4
-0.365
-0.35
-0.39
-0.49
-0.525
-0.57
-0.59
-0.53
-0.46
-0.405
-0.365
-0.36
-0.42
-0.48
-0.545
-0.58
-0.585
-0.515
-0.44
-0.37
-0.35
-0.36
-0.405
-0.485
-0.545
-0.565
-0.57
-0.52
-0.44
-0.4
-0.37
-0.365
-0.385
-0.5
-0.54
-0.565
-0.555
-0.48
-0.41
-0.36
-0.31
-0.31
-0.375
-0.485
-0.545
-0.55
-0.51
-0.485
-0.385
-0.36
-0.315
-0.32
-0.39
-0.5
-0.535
-0.55
-0.515
-0.455
-0.42
-0.36
-0.335
-0.36
-0.41
-0.5
-0.525
-0.57
-0.56
-0.495
-0.415
-0.38
-0.365
-0.395
-0.425
-0.505
-0.55
-0.595
-0.575
-0.495
-0.43
-0.375
-0.31
-0.33
-0.415
-0.51
-0.54
-0.555
-0.515
-0.46
-0.385
-0.4
-0.395
-0.42
-0.48
-0.56
-0.595
-0.63
-0.61
-0.54
-0.415
-0.37
-0.285
-0.215
-0.245
-0.25
-0.195
-0.16
-0.085
-0.055
-0.01
-0.085
-0.135
-0.155
-0.315
-0.465
-0.565
-0.67
-0.705
-0.65
-0.575
-0.51
-0.47
-0.515
-0.585
-0.63
-0.65
-0.65
-0.6
-0.505
-0.415
-0.38
-0.36
-0.395
-0.455
-0.535
-0.55
-0.555
-0.51
-0.42
-0.355
-0.325
-0.295
-0.325
-0.425
-0.495
-0.515
-0.53
-0.475
-0.36
-0.325
-0.295
-0.31
-0.33
-0.42
-0.46
-0.485
-0.485
-0.435
-0.35
-0.305
-0.3
-0.305
-0.31
-0.42
-0.47
-0.465
-0.47
-0.43
-0.335
-0.295
-0.265
-0.27
-0.32
-0.385
-0.44
-0.455
-0.445
-0.39
-0.31
-0.26
-0.225
-0.235
-0.285
-0.35
-0.43
-0.465
-0.43
-0.375
-0.265
-0.245
-0.2
-0.215
-0.26
-0.325
-0.365
-0.405
-0.385
-0.315
-0.225
-0.205
-0.175
-0.185
-0.2
-0.28
-0.32
-0.32
-0.305
-0.25
-0.155
-0.115
-0.075
-0.11
-0.155
-0.25
-0.295
-0.29
-0.265
-0.235
-0.12
-0.115
-0.07
-0.12
-0.165
-0.28
-0.295
-0.3
-0.28
-0.245
-0.165
-0.13
-0.12
-0.155
-0.22
-0.325
-0.345
-0.36
-0.36
-0.31
-0.255
-0.18
-0.19
-0.23
-0.29
-0.365
-0.38
-0.415
-0.41
-0.33
-0.26
-0.215
-0.21
-0.245
-0.315
-0.395
-0.42
-0.45
-0.415
-0.34
-0.27
-0.25
-0.22
-0.265
-0.31
-0.375
-0.425
-0.41
-0.385
-0.335
-0.27
-0.225
-0.22
-0.25
-0.325
-0.39
-0.405
-0.435
-0.395
-0.31
-0.25
-0.23
-0.215
-0.27
-0.325
-0.4
-0.41
-0.42
-0.385
-0.285
-0.245
-0.21
-0.205
-0.26
-0.34
-0.365
-0.41
-0.395
-0.36
-0.27
-0.22
-0.21
-0.23
-0.25
-0.315
-0.365
-0.395
-0.39
-0.365
-0.285
-0.205
-0.155
-0.185
-0.215
-0.32
-0.39
-0.395
-0.42
-0.335
-0.22
-0.205
-0.165
-0.175
-0.245
-0.3
-0.335
-0.375
-0.39
-0.34
-0.24
-0.2
-0.16
-0.18
-0.235
-0.31
-0.37
-0.39
-0.385
-0.33
-0.25
-0.2
-0.175
-0.185
-0.235
-0.335
-0.355
-0.405
-0.355
-0.31
-0.215
-0.205
-0.19
-0.18
-0.22
-0.3
-0.365
-0.365
-0.355
-0.32
-0.215
-0.18
-0.15
-0.185
-0.22
-0.325
-0.36
-0.395
-0.375
-0.3
-0.205
-0.175
-0.15
-0.175
-0.225
-0.29
-0.355
-0.385
-0.355
-0.305
-0.195
-0.165
-0.175
-0.17
-0.24
-0.315
-0.34
-0.385
-0.335
-0.27
-0.18
-0.15
-0.145
-0.17
-0.245
-0.325
-0.34
-0.35
-0.31
-0.25
-0.195
-0.155
-0.11
-0.155
-0.26
-0.325
-0.365
-0.365
-0.315
-0.245
-0.165
-0.145
-0.145
-0.16
-0.255
-0.315
-0.34
-0.35
-0.33
-0.255
-0.185
-0.145
-0.13
-0.17
-0.275
-0.305
-0.315
-0.345
-0.315
-0.25
-0.16
-0.135
-0.135
-0.17
-0.235
-0.295
-0.34
-0.37
-0.285
-0.215
-0.17
-0.135
-0.13
-0.2
-0.255
-0.285
-0.325
-0.315
-0.295
-0.19
-0.17
-0.13
-0.135
-0.18
-0.265
-0.29
-0.35
-0.33
-0.3
-0.205
-0.155
-0.105
-0.14
-0.18
-0.25
-0.3
-0.33
-0.305
-0.28
-0.195
-0.155
-0.115
-0.11
-0.185
-0.265
-0.295
-0.31
-0.325
-0.27
-0.18
-0.125
-0.09
-0.13
-0.185
-0.28
-0.295
-0.305
-0.305
-0.255
-0.15
-0.11
-0.09
-0.105
-0.16
-0.23
-0.26
-0.32
-0.295
-0.25
-0.145
-0.135
-0.095
-0.08
-0.145
-0.225
-0.27
-0.305
-0.255
-0.22
-0.12
-0.085
-0.095
-0.115
-0.16
-0.265
-0.305
-0.32
-0.31
-0.24
-0.17
-0.115
-0.095
-0.16
-0.2
-0.275
-0.305
-0.3
-0.305
-0.265
-0.17
-0.095
-0.105
-0.155
-0.215
-0.285
-0.325
-0.355
-0.31
-0.215
-0.13
-0.095
-0.1
-0.14
-0.225
-0.3
-0.335
-0.35
-0.325
-0.26
-0.195
-0.16
-0.145
-0.17
-0.17
-0.175
-0.15
-0.095
0.0
0.145
0.255
0.28
0.24
0.145
0.025
-0.1
-0.18
-0.235
-0.245
-0.255
-0.285
-0.28
-0.265
-0.3
-0.375
-0.415
-0.43
-0.42
-0.395
-0.305
-0.23
-0.16
-0.145
-0.165
-0.235
-0.29
-0.315
-0.33
-0.28
-0.19
-0.125
-0.09
-0.11
-0.16
-0.2
-0.27
-0.295
-0.31
-0.24
-0.145
-0.125
-0.06
-0.08
-0.135
-0.21
-0.27
-0.3
-0.28
-0.26
-0.16
-0.105
-0.08
-0.08
-0.1
-0.18
-0.27
-0.28
-0.285
-0.225
-0.125
-0.085
-0.045
-0.09
-0.135
-0.215
-0.265
-0.275
-0.265
-0.22
-0.135
-0.09
-0.065
-0.07
-0.13
-0.21
-0.23
-0.27
-0.225
-0.175
-0.08
-0.02
-0.045
-0.055
-0.105
-0.18
-0.205
-0.23
-0.22
-0.175
-0.04
-0.03
0.01
0.005
-0.05
-0.16
-0.175
-0.2
-0.145
-0.085
-0.01
0.015
0.06
0.015
-0.01
-0.075
-0.12
-0.12
-0.09
-0.04
0.02
0.06
0.09
0.06
0.01
-0.08
-0.12
-0.14
-0.1
-0.035
0.02
0.055
0.085
0.04
-0.025
-0.105
-0.155
-0.18
-0.14
-0.08
0.005
0.025
0.03
-0.01
-0.075
-0.155
-0.195
-0.205
-0.175
-0.13
-0.065
-0.03
-0.04
-0.08
-0.14
-0.215
-0.245
-0.25
-0.2
-0.13
-0.065
-0.045
-0.05
-0.115
-0.175
-0.23
-0.26
-0.255
-0.195
-0.155
-0.09
-0.045
-0.04
-0.08
-0.17
-0.21
-0.245
-0.245
-0.21
-0.135
-0.08
-0.045
-0.045
-0.09
-0.185
-0.235
-0.26
-0.265
-0.215
-0.14
-0.085
-0.085
-0.06
-0.11
-0.195
-0.225
-0.27
-0.24
-0.205
-0.12
-0.08
-0.035
-0.035
-0.095
-0.175
-0.22
-0.255
-0.245
-0.17
-0.09
-0.05
-0.035
-0.045
-0.095
-0.195
-0.225
-0.265
-0.25
-0.2
-0.11
-0.08
-0.04
-0.075
-0.125
-0.21
-0.24
-0.23
-0.245
-0.185
-0.115
-0.08
-0.045
-0.045
-0.11
-0.2
-0.24
-0.29
-0.25
-0.17
-0.085
-0.075
-0.04
-0.045
-0.125
-0.21
-0.25
-0.27
-0.235
-0.165
-0.075
-0.06
-0.05
-0.07
-0.145
-0.2
-0.255
-0.275
-0.235
-0.195
-0.105
-0.075
-0.025
-0.045
-0.135
-0.225
-0.23
-0.26
-0.23
-0.19
-0.1
-0.1
-0.045
-0.045
-0.135
-0.215
-0.25
-0.275
-0.24
-0.18
-0.095
-0.04
-0.035
-0.075
-0.15
-0.195
-0.245
-0.255
-0.22
-0.155
-0.08
-0.05
-0.035
-0.08
-0.145
-0.235
-0.235
-0.27
-0.225
-0.15
-0.08
-0.06
-0.055
-0.07
-0.155
-0.215
-0.26
-0.28
-0.24
-0.14
-0.07
-0.04
-0.035
-0.075
-0.165
-0.21
-0.25
-0.25
-0.21
-0.135
-0.09
-0.06
-0.06
-0.095
-0.17
-0.225
-0.25
-0.255
-0.215
-0.155
-0.075
-0.055
-0.045
-0.1
-0.155
-0.215
-0.27
-0.245
-0.19
-0.11
-0.045
-0.03
-0.07
-0.095
-0.175
-0.22
-0.235
-0.235
-0.175
-0.125
-0.075
-0.025
-0.03
-0.095
-0.18
-0.215
-0.235
-0.225
-0.185
-0.105
-0.055
-0.03
-0.055
-0.095
-0.165
-0.215
-0.245
-0.225
-0.15
-0.075
-0.055
-0.02
-0.03
-0.1
-0.195
-0.225
-0.265
-0.225
-0.18
-0.06
-0.06
0.0
-0.025
-0.08
-0.18
-0.24
-0.27
-0.235
-0.195
-0.075
-0.035
-0.015
-0.045
-0.08
-0.155
-0.19
-0.24
-0.205
-0.15
-0.045
0.0
0.025
-0.005
-0.07
-0.135
-0.175
-0.19
-0.18
-0.12
-0.03
0.0
0.005
0.0
-0.055
-0.16
-0.175
-0.19
-0.165
-0.11
-0.045
-0.01
0.01
-0.02
-0.09
-0.165
-0.205
-0.225
-0.205
-0.13
-0.05
-0.04
-0.025
-0.05
-0.14
-0.22
-0.225
-0.25
-0.205
-0.155
-0.08
-0.04
0.0
-0.065
-0.135
-0.185
-0.23
-0.25
-0.215
-0.135
-0.06
-0.04
-0.02
-0.055
-0.16
-0.24
-0.27
-0.27
-0.225
-0.145
-0.13
-0.09
-0.065
-0.055
-0.05
-0.045
-0.025
0.02
0.13
0.255
0.31
0.29
0.225
0.08
-0.035
-0.105
-0.19
-0.245
-0.265
-0.265
-0.255
-0.24
-0.195
-0.23
-0.295
-0.325
-0.345
-0.335
-0.29
-0.175
-0.1
-0.07
-0.07
-0.09
-0.185
-0.23
-0.25
-0.23
-0.175
-0.07
-0.02
-0.005
-0.025
-0.065
-0.16
-0.22
-0.23
-0.22
-0.15
-0.085
-0.03
0.005
-0.015
-0.065
-0.14
-0.175
-0.22
-0.215
-0.14
-0.065
-0.01
0.03
0.015
-0.04
-0.135
-0.145
-0.2
-0.185
-0.12
-0.035
-0.005
0.01
-0.015
-0.05
-0.12
-0.18
-0.21
-0.175
-0.12
-0.05
0.01
0.04
0.025
-0.025
-0.135
-0.17
-0.19
-0.16
-0.1
-0.015
0.005
0.03
0.04
-0.03
-0.12
-0.14
-0.155
-0.1
-0.06
0.025
0.065
0.075
0.05
-0.01
-0.07
-0.1
-0.095
-0.08
-0.005
0.055
0.11
0.145
0.11
0.055
0.0
-0.05
-0.08
0.0
0.04
0.11
0.135
0.17
0.13
0.05
-0.01
-0.055
-0.075
-0.015
0.05
0.095
0.14
0.14
0.1
0.025
-0.05
-0.105
-0.115
-0.08
-0.005
0.045
0.08
0.1
0.02
-0.035
-0.09
-0.14
-0.15
-0.11
-0.025
0.01
0.045
0.085
-0.005
-0.08
-0.15
-0.17
-0.165
-0.15
-0.075
-0.025
-0.015
-0.01
0.005
-0.105
-0.165
-0.19
-0.17
-0.12
-0.045
-0.01
0.01
0.005
-0.015
-0.075
-0.145
-0.19
-0.16
-0.14
-0.05
0.01
0.035
0.01
-0.03
-0.11
-0.15
-0.195
-0.185
-0.125
-0.025
0.015
0.03
-0.005
-0.065
-0.1
-0.17
-0.21
-0.145
-0.12
-0.02
0.01
0.025
0.025
-0.025
-0.105
-0.16
-0.2
-0.18
-0.125
-0.035
0.02
0.055
0.015
-0.06
-0.125
-0.15
-0.16
-0.15
-0.085
-0.015
0.015
0.03
-0.01
-0.02
-0.125
-0.16
-0.17
-0.14
-0.085
0.02
0.035
0.035
0.005
-0.02
-0.12
-0.155
-0.185
-0.16
-0.085
0.005
0.04
0.055
0.005
-0.05
-0.125
-0.155
-0.195
-0.15
-0.095
-0.01
0.03
0.035
0.01
-0.04
-0.115
-0.165
-0.17
-0.13
-0.065
0.0
0.03
0.035
-0.02
-0.07
-0.14
-0.155
-0.175
-0.155
-0.08
0.005
0.045
0.07
0.01
-0.055
-0.135
-0.18
-0.205
-0.15
-0.06
-0.025
0.04
0.025
-0.015
-0.075
-0.15
-0.175
-0.18
-0.13
-0.04
0.005
0.05
0.035
-0.02
-0.095
-0.155
-0.195
-0.165
-0.105
-0.045
0.0
0.02
0.02
0.01
-0.065
-0.125
-0.17
-0.155
-0.115
-0.07
-0.01
0.015
0.035
-0.01
-0.095
-0.14
-0.16
-0.18
-0.13
-0.025
0.02
0.015
0.02
-0.005
-0.1
-0.145
-0.175
-0.175
-0.12
-0.03
-0.01
0.035
0.025
-0.015
-0.1
-0.135
-0.18
-0.17
-0.135
-0.02
0.015
0.04
0.01
-0.03
-0.1
-0.14
-0.175
-0.155
-0.105
-0.005
0.025
0.055
0.025
-0.03
-0.13
-0.165
-0.17
-0.175
-0.105
0.01
0.045
0.055
0.02
-0.05
-0.12
-0.175
-0.195
-0.16
-0.1
-0.03
0.025
0.06
0.03
-0.04
-0.125
-0.17
-0.17
-0.125
-0.09
-0.015
0.01
0.045
0.03
-0.025
-0.1
-0.155
-0.185
-0.165
-0.08
0.005
0.035
0.03
0.015
-0.05
-0.13
-0.15
-0.165
-0.15
-0.085
0.02
0.045
0.035
0.03
-0.04
-0.11
-0.145
-0.13
-0.11
-0.06
0.015
0.05
0.05
0.03
-0.005
-0.085
-0.145
-0.13
-0.095
-0.025
0.03
0.05
0.06
0.025
-0.04
-0.125
-0.165
-0.17
-0.135
-0.055
0.025
0.045
0.04
0.0
-0.065
-0.135
-0.18
-0.16
-0.155
-0.065
-0.015
0.02
0.055
-0.02
-0.095
-0.12
-0.18
-0.2
-0.145
-0.05
-0.005
0.025
0.03
-0.005
-0.095
-0.155
-0.21
-0.195
-0.17
-0.075
-0.025
0.03
0.055
-0.01
-0.05
-0.025
0.005
0.085
0.165
0.315
0.345
0.335
0.265
0.16
0.01
-0.08
-0.155
-0.175
-0.22
-0.22
-0.23
-0.19
-0.16
-0.205
-0.28
-0.31
-0.33
-0.305
-0.235
-0.12
-0.045
0.0
0.01
-0.03
-0.14
-0.155
-0.185
-0.17
-0.105
0.03
0.035
0.035
0.025
-0.01
-0.135
-0.155
-0.185
-0.14
-0.1
0.01
0.035
0.035
0.04
-0.01
-0.09
-0.11
-0.14
-0.145
-0.09
0.02
0.03
0.08
0.075
-0.035
-0.11
-0.125
-0.125
-0.12
-0.05
0.03
0.06
0.085
0.055
0.0
-0.07
-0.145
-0.15
-0.105
-0.035
0.065
0.07
0.095
0.065
-0.005
-0.07
-0.09
-0.1
-0.055
0.01
0.075
0.095
0.105
0.085
0.01
-0.045
-0.08
-0.08
-0.03
0.045
0.1
0.15
0.19
0.13
0.05
0.015
-0.02
-0.035
0.005
0.085
0.14
0.235
0.23
0.19
0.12
0.025
0.02
0.035
0.075
0.145
0.235
0.265
0.26
0.19
0.105
0.07
0.055
0.02
0.08
0.13
0.175
0.195
0.19
0.16
0.08
0.03
-0.03
-0.03
0.02
0.1
0.125
0.195
0.16
0.095
0.03
-0.03
-0.085
-0.065
-0.035
0.065
0.1
0.1
0.105
0.04
-0.03
-0.07
-0.085
-0.105
-0.06
0.015
0.065
0.105
0.09
0.035
-0.055
-0.095
-0.135
-0.105
-0.08
0.04
0.085
0.12
0.085
0.025
-0.09
-0.115
-0.145
-0.13
-0.06
0.035
0.06
0.085
0.07
0.005
-0.07
-0.145
-0.15
-0.12
-0.05
0.02
0.07
0.11
0.065
0.015
-0.07
-0.095
-0.13
-0.12
-0.055
0.04
0.085
0.11
0.085
0.03
-0.075
-0.11
-0.13
-0.08
-0.04
0.025
0.09
0.09
0.08
0.035
-0.08
-0.095
-0.135
-0.095
-0.035
0.055
0.095
0.09
0.055
-0.02
-0.085
-0.115
-0.125
-0.085
-0.045
0.03
0.055
0.08
0.055
0.005
-0.11
-0.145
-0.145
-0.095
-0.025
0.055
0.08
0.09
0.055
-0.015
-0.115
-0.135
-0.135
-0.075
-0.025
0.035
0.075
0.095
0.065
-0.04
-0.095
-0.14
-0.155
-0.105
-0.04
0.025
0.07
0.075
0.03
-0.055
-0.12
-0.155
-0.155
-0.12
-0.03
-0.01
0.04
0.05
-0.005
-0.07
-0.105
-0.145
-0.13
-0.11
-0.025
0.015
0.04
0.055
-0.03
-0.085
-0.11
-0.14
-0.175
-0.11
-0.025
0.04
0.06
0.03
-0.015
-0.095
-0.135
-0.165
-0.17
-0.105
-0.01
0.03
0.05
0.025
0.02
-0.055
-0.135
-0.175
-0.185
-0.105
-0.025
0.01
0.045
0.035
-0.01
-0.11
-0.13
-0.185
-0.16
-0.1
-0.045
0.02
0.055
0.02
-0.025
-0.125
-0.18
-0.2
-0.185
-0.095
-0.02
0.02
0.075
0.03
-0.005
-0.11
-0.2
-0.185
-0.205
-0.115
-0.02
0.01
0.04
0.01
-0.035
-0.115
-0.17
-0.2
-0.155
-0.09
-0.025
-0.03
0.045
-0.005
-0.055
-0.15
-0.18
-0.185
-0.16
-0.105
-0.015
0.005
0.01
0.0
-0.06
-0.16
-0.19
-0.185
-0.19
-0.135
-0.035
-0.005
0.005
-0.045
-0.085
-0.145
-0.195
-0.185
-0.17
-0.11
-0.045
-0.01
0.01
-0.05
-0.105
-0.195
-0.19
-0.2
-0.17
-0.105
-0.03
0.01
0.04
-0.005
-0.095
-0.185
-0.21
-0.21
-0.17
-0.085
-0.01
0.015
0.0
-0.04
-0.115
-0.15
-0.17
-0.175
-0.15
-0.075
-0.02
0.015
0.03
-0.02
-0.125
-0.18
-0.205
-0.215
-0.15
-0.085
-0.05
-0.025
-0.03
-0.08
-0.145
-0.215
-0.23
-0.23
-0.19
-0.09
-0.065
0.01
-0.03
-0.085
-0.175
-0.225
-0.255
-0.24
-0.195
-0.105
-0.07
-0.03
-0.06
-0.1
-0.175
-0.23
-0.26
-0.275
-0.22
-0.125
-0.085
-0.055
-0.07
-0.09
-0.185
-0.215
-0.23
-0.17
-0.065
0.105
0.175
0.25
0.295
0.26
0.15
0.025
-0.07
-0.07
-0.045
-0.045
-0.05
-0.125
-0.26
-0.32
-0.415
-0.45
-0.48
-0.475
-0.42
-0.335
-0.27
-0.245
-0.225
-0.285
-0.305
-0.35
-0.35
-0.29
-0.245
-0.145
-0.1
-0.075
-0.1
-0.145
-0.24
-0.265
-0.28
-0.245
-0.195
-0.1
-0.06
-0.025
-0.08
-0.155
-0.235
-0.25
-0.26
-0.235
-0.185
-0.095
-0.065
-0.035
-0.085
-0.145
-0.255
-0.26
-0.265
-0.2
-0.17
-0.095
-0.07
-0.04
-0.08
-0.125
-0.225
-0.245
-0.235
-0.18
-0.125
-0.065
-0.055
0.005
-0.06
-0.145
-0.21
-0.235
-0.255
-0.225
-0.125
-0.075
-0.035
-0.01
-0.065
-0.13
-0.19
-0.23
-0.215
-0.16
-0.1
-0.06
0.0
0.01
-0.035
-0.08
-0.145
-0.19
-0.17
-0.115
-0.03
0.03
0.08
0.07
0.03
-0.025
-0.055
-0.09
-0.105
-0.05
0.04
0.085
0.12
0.105
0.07
-0.02
-0.065
-0.09
-0.065
-0.04
0.05
0.075
0.105
0.065
0.03
-0.04
-0.09
-0.12
-0.13
-0.1
-0.015
0.0
0.035
0.015
-0.03
-0.135
-0.175
-0.205
-0.195
-0.17
-0.075
-0.05
-0.02
-0.045
-0.1
-0.2
-0.24
-0.245
-0.26
-0.225
-0.13
-0.11
-0.085
-0.09
-0.145
-0.255
-0.285
-0.315
-0.285
-0.245
-0.135
-0.115
-0.105
-0.09
-0.175
-0.265
-0.28
-0.32
-0.3
-0.245
-0.135
-0.115
-0.085
-0.125
-0.175
-0.26
-0.305
-0.31
-0.285
-0.24
-0.145
-0.125
-0.09
-0.11
-0.18
-0.275
-0.295
-0.32
-0.295
-0.235
-0.14
-0.12
-0.11
-0.145
-0.2
-0.26
-0.29
-0.275
-0.26
-0.195
-0.135
-0.105
-0.09
-0.11
-0.195
-0.29
-0.305
-0.295
-0.27
-0.195
-0.125
-0.12
-0.11
-0.14
-0.16
-0.26
-0.3
-0.325
-0.28
-0.205
-0.11
-0.09
-0.085
-0.145
-0.22
-0.27
-0.305
-0.325
-0.285
-0.21
-0.155
-0.12
-0.115
-0.175
-0.245
-0.29
-0.32
-0.3
-0.29
-0.2
-0.14
-0.12
-0.105
-0.14
-0.225
-0.295
-0.345
-0.34
-0.3
-0.225
-0.14
-0.095
-0.125
-0.17
-0.265
-0.305
-0.34
-0.325
-0.28
-0.19
-0.15
-0.09
-0.155
-0.185
-0.26
-0.305
-0.34
-0.335
-0.285
-0.185
-0.155
-0.13
-0.12
-0.18
-0.265
-0.31
-0.36
-0.335
-0.27
-0.2
-0.185
-0.105
-0.125
-0.175
-0.28
-0.32
-0.35
-0.33
-0.28
-0.205
-0.155
-0.14
-0.15
-0.215
-0.295
-0.295
-0.34
-0.325
-0.275
-0.17
-0.125
-0.11
-0.155
-0.2
-0.285
-0.34
-0.355
-0.305
-0.27
-0.19
-0.165
-0.125
-0.145
-0.22
-0.29
-0.32
-0.345
-0.325
-0.28
-0.175
-0.135
-0.135
-0.145
-0.205
-0.315
-0.33
-0.335
-0.31
-0.275
-0.18
-0.15
-0.125
-0.145
-0.23
-0.275
-0.325
-0.355
-0.32
-0.255
-0.185
-0.145
-0.115
-0.18
-0.22
-0.29
-0.34
-0.365
-0.33
-0.27
-0.17
-0.13
-0.14
-0.18
-0.245
-0.315
-0.34
-0.34
-0.355
-0.255
-0.185
-0.14
-0.125
-0.18
-0.27
-0.34
-0.345
-0.36
-0.315
-0.24
-0.17
-0.13
-0.135
-0.18
-0.255
-0.3
-0.335
-0.335
-0.305
-0.23
-0.16
-0.145
-0.13
-0.15
-0.215
-0.295
-0.33
-0.325
-0.275
-0.19
-0.17
-0.145
-0.14
-0.165
-0.245
-0.33
-0.34
-0.365
-0.31
-0.24
-0.205
-0.16
-0.155
-0.215
-0.295
-0.36
-0.375
-0.385
-0.345
-0.24
-0.2
-0.19
-0.205
-0.23
-0.31
-0.345
-0.39
-0.4
-0.335
-0.245
-0.2
-0.18
-0.18
-0.26
-0.34
-0.39
-0.415
-0.41
-0.35
-0.275
-0.235
-0.175
-0.185
-0.195
-0.225
-0.21
-0.155
-0.07
0.015
0.1
0.11
0.08
-0.005
-0.12
-0.235
-0.325
-0.43
-0.485
-0.48
-0.475
-0.455
-0.43
-0.43
-0.465
-0.535
-0.58
-0.59
-0.55
-0.475
-0.36
-0.31
-0.24
-0.28
-0.335
-0.415
-0.425
-0.435
-0.43
-0.38
-0.275
-0.23
-0.205
-0.255
-0.295
-0.37
-0.415
-0.415
-0.38
-0.35
-0.255
-0.23
-0.205
-0.255
-0.275
-0.385
-0.42
-0.43
-0.385
-0.345
-0.255
-0.225
-0.21
-0.235
-0.305
-0.385
-0.43
-0.43
-0.38
-0.29
-0.265
-0.215
-0.2
-0.23
-0.28
-0.355
-0.4
-0.41
-0.38
-0.305
-0.24
-0.21
-0.205
-0.225
-0.295
-0.39
-0.41
-0.385
-0.37
-0.295
-0.22
-0.195
-0.205
-0.225
-0.28
-0.35
-0.38
-0.4
-0.345
-0.26
-0.185
-0.2
-0.185
-0.21
-0.275
-0.31
-0.35
-0.355
-0.315
-0.185
-0.155
-0.115
-0.125
-0.145
-0.225
-0.27
-0.31
-0.305
-0.27
-0.185
-0.125
-0.08
-0.11
-0.145
-0.245
-0.28
-0.32
-0.32
-0.28
-0.19
-0.17
-0.125
-0.135
-0.195
-0.3
-0.35
-0.395
-0.4
-0.335
-0.245
-0.245
-0.205
-0.245
-0.29
-0.37
-0.415
-0.44
-0.45
-0.395
-0.295
-0.27
-0.24
-0.245
-0.335
-0.45
-0.455
-0.485
-0.485
-0.44
-0.35
-0.33
-0.295
-0.3
-0.365
-0.435
-0.47
-0.5
-0.5
-0.44
-0.345
-0.32
-0.295
-0.32
-0.39
-0.49
-0.525
-0.535
-0.525
-0.44
-0.345
-0.32
-0.31
-0.31
-0.35
-0.475
-0.51
-0.515
-0.505
-0.42
-0.35
-0.32
-0.285
-0.32
-0.39
-0.48
-0.495
-0.52
-0.48
-0.42
-0.34
-0.32
-0.28
-0.32
-0.44
-0.495
-0.505
-0.52
-0.5
-0.41
-0.355
-0.32
-0.305
-0.325
-0.42
-0.48
-0.505
-0.53
-0.505
-0.43
-0.36
-0.32
-0.305
-0.35
-0.42
-0.49
-0.52
-0.51
-0.485
-0.435
-0.35
-0.32
-0.33
-0.355
-0.415
-0.505
-0.54
-0.52
-0.49
-0.435
-0.355
-0.34
-0.34
-0.36
-0.45
-0.515
-0.54
-0.525
-0.495
-0.435
-0.385
-0.355
-0.355
-0.405
-0.48
-0.525
-0.55
-0.555
-0.54
-0.435
-0.385
-0.345
-0.34
-0.41
-0.5
-0.535
-0.565
-0.565
-0.53
-0.405
-0.38
-0.36
-0.365
-0.395
-0.49
-0.545
-0.58
-0.565
-0.52
-0.41
-0.375
-0.36
-0.365
-0.43
-0.505
-0.545
-0.58
-0.565
-0.52
-0.43
-0.38
-0.34
-0.36
-0.42
-0.515
-0.555
-0.59
-0.58
-0.525
-0.42
-0.395
-0.35
-0.39
-0.445
-0.54
-0.58
-0.595
-0.57
-0.51
-0.43
-0.42
-0.35
-0.405
-0.445
-0.545
-0.58
-0.6
-0.55
-0.51
-0.44
-0.42
-0.385
-0.415
-0.465
-0.54
-0.58
-0.595
-0.535
-0.49
-0.435
-0.405
-0.38
-0.405
-0.455
-0.555
-0.59
-0.58
-0.56
-0.495
-0.415
-0.39
-0.365
-0.4
-0.455
-0.525
-0.575
-0.575
-0.565
-0.475
-0.42
-0.385
-0.345
-0.365
-0.45
-0.525
-0.555
-0.57
-0.535
-0.47
-0.395
-0.4
-0.38
-0.41
-0.475
-0.56
-0.58
-0.595
-0.555
-0.485
-0.44
-0.42
-0.4
-0.43
-0.505
-0.58
-0.6
-0.61
-0.59
-0.47
-0.42
-0.395
-0.38
-0.43
-0.53
-0.585
-0.61
-0.615
-0.575
-0.485
-0.435
-0.415
-0.41
-0.465
-0.56
-0.575
-0.615
-0.62
-0.585
-0.48
-0.425
-0.385
-0.35
-0.345
-0.38
-0.37
-0.35
-0.285
-0.215
-0.135
-0.13
-0.185
-0.265
-0.31
-0.45
-0.56
-0.645
-0.725
-0.77
-0.705
-0.65
-0.635
-0.62
-0.645
-0.73
-0.735
-0.755
-0.7
-0.645
-0.525
-0.47
-0.45
-0.45
-0.505
-0.575
-0.61
-0.635
-0.615
-0.55
-0.475
-0.415
-0.37
-0.4
-0.43
-0.515
-0.59
-0.635
-0.605
-0.55
-0.455
-0.415
-0.395
-0.385
-0.465
-0.555
-0.585
-0.6
-0.58
-0.52
-0.43
-0.38
-0.365
-0.39
-0.455
-0.54
-0.56
-0.59
-0.57
-0.52
-0.425
-0.415
-0.4
-0.42
-0.47
-0.56
-0.58
-0.59
-0.57
-0.495
-0.42
-0.35
-0.34
-0.395
-0.47
-0.54
-0.57
-0.56
-0.53
-0.485
-0.405
-0.375
-0.35
-0.375
-0.43
-0.5
-0.535
-0.56
-0.52
-0.45
-0.36
-0.335
-0.31
-0.355
-0.405
-0.455
-0.495
-0.505
-0.465
-0.38
-0.28
-0.265
-0.25
-0.29
-0.355
-0.395
-0.42
-0.42
-0.405
-0.3
-0.235
-0.23
-0.245
-0.275
-0.35
-0.43
-0.445
-0.47
-0.42
-0.345
-0.27
-0.255
-0.265
-0.32
-0.4
-0.48
-0.495
-0.485
-0.455
-0.38
-0.335
-0.31
-0.3
-0.34
-0.45
-0.515
-0.54
-0.545
-0.505
-0.4
-0.365
-0.355
-0.34
-0.38
-0.475
-0.525
-0.575
-0.565
-0.52
-0.425
-0.38
-0.345
-0.4
-0.4
-0.485
-0.525
-0.555
-0.57
-0.53
-0.445
-0.375
-0.355
-0.355
-0.425
-0.505
-0.52
-0.55
-0.53
-0.505
-0.405
-0.37
-0.34
-0.37
-0.39
-0.5
-0.515
-0.555
-0.535
-0.47
-0.385
-0.38
-0.335
-0.345
-0.405
-0.495
-0.54
-0.56
-0.525
-0.465
-0.385
-0.35
-0.33
-0.345
-0.395
-0.495
-0.535
-0.555
-0.52
-0.455
-0.375
-0.355
-0.32
-0.35
-0.415
-0.5
-0.525
-0.54
-0.5
-0.43
-0.375
-0.335
-0.325
-0.34
-0.39
-0.495
-0.52
-0.555
-0.52
-0.435
-0.375
-0.34
-0.305
-0.335
-0.415
-0.47
-0.545
-0.555
-0.535
-0.445
-0.365
-0.335
-0.34
-0.36
-0.41
-0.495
-0.565
-0.545
-0.505
-0.42
-0.345
-0.34
-0.325
-0.365
-0.415
-0.46
-0.505
-0.525
-0.475
-0.41
-0.35
-0.33
-0.34
-0.365
-0.42
-0.505
-0.52
-0.52
-0.51
-0.42
-0.38
-0.35
-0.335
-0.38
-0.44
-0.49
-0.515
-0.52
-0.485
-0.39
-0.345
-0.345
-0.335
-0.38
-0.425
-0.505
-0.525
-0.505
-0.46
-0.42
-0.35
-0.29
-0.315
-0.37
-0.44
-0.5
-0.55
-0.49
-0.445
-0.385
-0.35
-0.315
-0.34
-0.37
-0.445
-0.505
-0.55
-0.545
-0.465
-0.35
-0.315
-0.31
-0.325
-0.37
-0.45
-0.51
-0.52
-0.5
-0.455
-0.38
-0.34
-0.31
-0.3
-0.34
-0.425
-0.48
-0.5
-0.475
-0.42
-0.335
-0.295
-0.265
-0.275
-0.33
-0.43
-0.47
-0.48
-0.45
-0.39
-0.3
-0.265
-0.25
-0.25
-0.33
-0.41
-0.455
-0.475
-0.455
-0.41
-0.35
-0.32
-0.27
-0.31
-0.355
-0.445
-0.49
-0.505
-0.48
-0.42
-0.335
-0.315
-0.285
-0.325
-0.38
-0.455
-0.465
-0.515
-0.515
-0.415
-0.32
-0.295
-0.27
-0.29
-0.37
-0.46
-0.5
-0.49
-0.485
-0.42
-0.335
-0.32
-0.275
-0.31
-0.385
-0.475
-0.465
-0.455
-0.405
-0.295
-0.18
-0.08
-0.03
-0.01
-0.04
-0.105
-0.19
-0.29
-0.315
-0.29
-0.265
-0.275
-0.34
-0.445
-0.605
-0.675
-0.715
-0.72
-0.645
-0.565
-0.475
-0.415
-0.41
-0.415
-0.465
-0.515
-0.51
-0.51
-0.455
-0.355
-0.295
-0.255
-0.23
-0.3
-0.405
-0.4
-0.425
-0.44
-0.385
-0.335
-0.28
-0.23
-0.22
-0.255
-0.35
-0.415
-0.44
-0.435
-0.395
-0.29
-0.25
-0.21
-0.21
-0.25
-0.335
-0.39
-0.405
-0.415
-0.375
-0.285
-0.23
-0.205
-0.22
-0.25
-0.34
-0.385
-0.415
-0.39
-0.345
-0.26
-0.225
-0.19
-0.205
-0.25
-0.35
-0.385
-0.415
-0.38
-0.32
-0.22
-0.19
-0.14
-0.17
-0.22
-0.3
-0.33
-0.35
-0.325
-0.28
-0.195
-0.16
-0.1
-0.13
-0.205
-0.27
-0.29
-0.295
-0.28
-0.235
-0.12
-0.105
-0.075
-0.065
-0.115
-0.2
-0.24
-0.27
-0.21
-0.16
-0.085
-0.045
-0.025
-0.035
-0.08
-0.15
-0.195
-0.215
-0.23
-0.18
-0.065
-0.04
-0.025
-0.06
-0.12
-0.215
-0.22
-0.26
-0.245
-0.155
-0.11
-0.085
-0.07
-0.12
-0.185
-0.26
-0.3
-0.3
-0.285
-0.225
-0.145
-0.125
-0.115
-0.16
-0.23
-0.305
-0.34
-0.355
-0.335
-0.245
-0.17
-0.14
-0.15
-0.18
-0.245
-0.325
-0.36
-0.365
-0.325
-0.25
-0.185
-0.175
-0.15
-0.19
-0.25
-0.3
-0.36
-0.35
-0.29
-0.235
-0.175
-0.155
-0.14
-0.185
-0.245
-0.305
-0.34
-0.33
-0.305
-0.22
-0.17
-0.125
-0.15
-0.165
-0.23
-0.29
-0.34
-0.335
-0.285
-0.185
-0.145
-0.13
-0.13
-0.17
-0.23
-0.275
-0.36
-0.335
-0.285
-0.195
-0.15
-0.095
-0.105
-0.16
-0.27
-0.305
-0.32
-0.33
-0.27
-0.165
-0.145
-0.095
-0.105
-0.18
-0.285
-0.29
-0.315
-0.3
-0.275
-0.195
-0.155
-0.115
-0.13
-0.155
-0.285
-0.315
-0.325
-0.3
-0.265
-0.17
-0.13
-0.115
-0.13
-0.205
-0.285
-0.3
-0.335
-0.305
-0.24
-0.15
-0.14
-0.11
-0.14
-0.18
-0.255
-0.285
-0.32
-0.305
-0.27
-0.15
-0.135
-0.115
-0.12
-0.195
-0.255
-0.3
-0.335
-0.305
-0.24
-0.165
-0.13
-0.125
-0.15
-0.195
-0.3
-0.32
-0.335
-0.325
-0.255
-0.165
-0.115
-0.105
-0.135
-0.215
-0.28
-0.29
-0.33
-0.29
-0.24
-0.16
-0.125
-0.12
-0.14
-0.22
-0.31
-0.325
-0.325
-0.285
-0.225
-0.16
-0.145
-0.115
-0.14
-0.215
-0.295
-0.32
-0.335
-0.3
-0.205
-0.15
-0.125
-0.11
-0.11
-0.2
-0.265
-0.31
-0.33
-0.28
-0.21
-0.165
-0.095
-0.085
-0.125
-0.22
-0.29
-0.31
-0.33
-0.28
-0.205
-0.16
-0.1
-0.115
-0.13
-0.235
-0.33
-0.365
-0.34
-0.305
-0.21
-0.185
-0.145
-0.155
-0.205
-0.28
-0.33
-0.37
-0.365
-0.325
-0.24
-0.195
-0.15
-0.155
-0.205
-0.3
-0.365
-0.375
-0.355
-0.33
-0.23
-0.185
-0.165
-0.185
-0.23
-0.305
-0.35
-0.38
-0.375
-0.325
-0.235
-0.175
-0.1
-0.08
-0.08
-0.115
-0.095
-0.075
-0.04
-0.03
0.02
-0.035
-0.05
-0.14
-0.23
-0.365
-0.445
-0.55
-0.63
-0.615
-0.51
-0.45
-0.405
-0.41
-0.435
-0.51
-0.52
-0.525
-0.48
-0.405
-0.295
-0.26
-0.22
-0.22
-0.285
-0.365
-0.38
-0.4
-0.385
-0.35
-0.235
-0.2
-0.19
-0.22
-0.29
-0.37
-0.405
-0.42
-0.365
-0.33
-0.235
-0.21
-0.195
-0.215
-0.26
-0.36
-0.37
-0.415
-0.39
-0.315
-0.22
-0.205
-0.195
-0.235
-0.28
-0.37
-0.39
-0.41
-0.37
-0.325
-0.255
-0.215
-0.18
-0.21
-0.28
-0.36
-0.385
-0.4
-0.37
-0.295
-0.25
-0.225
-0.185
-0.22
-0.295
-0.36
-0.38
-0.38
-0.385
-0.31
-0.205
-0.175
-0.19
-0.215
-0.29
-0.355
-0.37
-0.365
-0.34
-0.25
-0.185
-0.14
-0.14
-0.13
-0.23
-0.275
-0.31
-0.29
-0.26
-0.21
-0.145
-0.11
-0.105
-0.155
-0.225
-0.285
-0.31
-0.3
-0.25
-0.175
-0.16
-0.12
-0.115
-0.16
-0.245
-0.31
-0.36
-0.365
-0.285
-0.22
-0.19
-0.145
-0.165
-0.215
-0.32
-0.365
-0.395
-0.41
-0.37
-0.29
-0.22
-0.215
-0.23
-0.275
-0.36
-0.42
-0.46
-0.46
-0.415
-0.305
-0.295
-0.255
-0.265
-0.34
-0.445
-0.47
-0.505
-0.47
-0.445
-0.335
-0.32
-0.28
-0.3
-0.345
-0.455
-0.49
-0.49
-0.46
-0.415
-0.325
-0.28
-0.275
-0.31
-0.355
-0.45
-0.495
-0.505
-0.485
-0.425
-0.345
-0.32
-0.305
-0.32
-0.36
-0.435
-0.46
-0.5
-0.485
-0.425
-0.36
-0.335
-0.29
-0.33
-0.375
-0.475
-0.485
-0.505
-0.48
-0.43
-0.34
-0.32
-0.28
-0.31
-0.39
-0.47
-0.495
-0.52
-0.49
-0.425
-0.35
-0.345
-0.305
-0.335
-0.4
-0.5
-0.52
-0.525
-0.49
-0.415
-0.33
-0.315
-0.315
-0.345
-0.415
-0.505
-0.51
-0.5
-0.48
-0.415
-0.37
-0.335
-0.32
-0.375
-0.46
-0.51
-0.52
-0.525
-0.49
-0.415
-0.36
-0.335
-0.31
-0.34
-0.44
-0.52
-0.54
-0.545
-0.485
-0.41
-0.35
-0.325
-0.32
-0.365
-0.435
-0.49
-0.54
-0.52
-0.485
-0.415
-0.385
-0.355
-0.325
-0.385
-0.49
-0.51
-0.51
-0.515
-0.5
-0.405
-0.365
-0.34
-0.345
-0.38
-0.46
-0.505
-0.55
-0.54
-0.495
-0.405
-0.35
-0.33
-0.335
-0.38
-0.47
-0.485
-0.505
-0.505
-0.465
-0.39
-0.335
-0.29
-0.315
-0.355
-0.435
-0.475
-0.49
-0.485
-0.445
-0.335
-0.31
-0.28
-0.295
-0.36
-0.45
-0.48
-0.51
-0.495
-0.44
-0.34
-0.325
-0.3
-0.32
-0.365
-0.47
-0.49
-0.52
-0.52
-0.445
-0.36
-0.35
-0.335
-0.355
-0.405
-0.465
-0.51
-0.525
-0.51
-0.455
-0.345
-0.335
-0.32
-0.32
-0.395
-0.475
-0.505
-0.515
-0.495
-0.45
-0.355
-0.315
-0.31
-0.325
-0.375
-0.465
-0.505
-0.515
-0.465
-0.395
-0.285
-0.24
-0.17
-0.14
-0.155
-0.19
-0.165
-0.21
-0.245
-0.245
-0.215
-0.255
-0.3
-0.365
-0.49
-0.665
-0.765
-0.785
-0.745
-0.665
-0.58
-0.53
-0.505
-0.51
-0.54
-0.55
-0.58
-0.565
-0.53
-0.43
-0.335
-0.28
-0.28
-0.305
-0.39
-0.46
-0.49
-0.485
-0.435
-0.365
-0.295
-0.26
-0.25
-0.3
-0.355
-0.435
-0.47
-0.45
-0.395
-0.325
-0.285
-0.265
-0.24
-0.285
-0.355
-0.405
-0.445
-0.445
-0.415
-0.3
-0.26
-0.235
-0.235
-0.25
-0.345
-0.375
-0.41
-0.41
-0.38
-0.27
-0.24
-0.195
-0.21
-0.25
-0.35
-0.375
-0.395
-0.405
-0.34
-0.25
-0.22
-0.165
-0.175
-0.22
-0.305
-0.32
-0.38
-0.345
-0.275
-0.205
-0.17
-0.15
-0.135
-0.17
-0.245
-0.27
-0.32
-0.295
-0.21
-0.13
-0.11
-0.07
-0.065
-0.115
-0.2
-0.23
-0.24
-0.215
-0.165
-0.07
-0.05
-0.015
-0.035
-0.07
-0.17
-0.21
-0.225
-0.205
-0.15
-0.065
-0.025
-0.005
-0.06
-0.075
-0.18
-0.21
-0.255
-0.235
-0.17
-0.075
-0.075
-0.075
-0.085
-0.14
-0.22
-0.255
-0.28
-0.26
-0.22
-0.135
-0.085
-0.065
-0.125
-0.16
-0.27
-0.3
-0.34
-0.325
-0.255
-0.165
-0.125
-0.115
-0.17
-0.23
-0.31
-0.345
-0.34
-0.315
-0.255
-0.175
-0.155
-0.14
-0.15
-0.235
-0.3
-0.31
-0.34
-0.3
-0.245
-0.155
-0.14
-0.135
-0.18
-0.235
-0.295
-0.31
-0.32
-0.3
-0.21
-0.17
-0.11
-0.11
-0.16
-0.235
-0.285
-0.33
-0.29
-0.29
-0.215
-0.175
-0.14
-0.135
-0.175
-0.245
-0.255
-0.32
-0.32
-0.275
-0.19
-0.145
-0.105
-0.11
-0.16
-0.25
-0.27
-0.305
-0.315
-0.275
-0.2
-0.165
-0.095
-0.095
-0.15
-0.24
-0.29
-0.34
-0.31
-0.255
-0.155
-0.12
-0.09
-0.09
-0.135
-0.245
-0.28
-0.315
-0.31
-0.27
-0.19
-0.145
-0.11
-0.12
-0.165
-0.235
-0.275
-0.335
-0.315
-0.25
-0.145
-0.11
-0.085
-0.095
-0.14
-0.23
-0.3
-0.28
-0.27
-0.24
-0.175
-0.135
-0.08
-0.105
-0.14
-0.235
-0.285
-0.315
-0.315
-0.235
-0.145
-0.095
-0.065
-0.085
-0.15
-0.235
-0.255
-0.27
-0.275
-0.225
-0.125
-0.08
-0.075
-0.07
-0.14
-0.24
-0.255
-0.28
-0.215
-0.185
-0.095
-0.065
-0.075
-0.06
-0.13
-0.21
-0.225
-0.255
-0.22
-0.18
-0.12
-0.065
-0.025
-0.075
-0.145
-0.21
-0.255
-0.305
-0.27
-0.185
-0.1
-0.08
-0.07
-0.115
-0.18
-0.23
-0.295
-0.27
-0.225
-0.18
-0.1
-0.085
-0.06
-0.12
-0.165
-0.235
-0.26
-0.275
-0.26
-0.205
-0.085
-0.065
-0.07
-0.09
-0.18
-0.255
-0.29
-0.265
-0.21
-0.15
-0.08
-0.035
0.015
-0.02
-0.075
-0.095
-0.09
-0.055
0.05
0.18
0.25
0.24
0.175
0.065
-0.09
-0.195
-0.26
-0.315
-0.33
-0.345
-0.345
-0.33
-0.325
-0.355
-0.455
-0.5
-0.525
-0.495
-0.41
-0.29
-0.21
-0.175
-0.165
-0.165
-0.24
-0.275
-0.305
-0.285
-0.255
-0.13
-0.1
-0.045
-0.04
-0.08
-0.175
-0.21
-0.25
-0.22
-0.185
-0.09
-0.055
0.015
-0.025
-0.09
-0.155
-0.2
-0.225
-0.21
-0.165
-0.1
-0.035
0.0
-0.005
-0.055
-0.15
-0.185
-0.215
-0.205
-0.165
-0.035
0.03
0.05
0.0
-0.06
-0.17
-0.165
-0.195
-0.175
-0.1
-0.02
0.015
0.05
0.025
0.01
-0.11
-0.14
-0.195
-0.16
-0.085
0.02
0.055
0.085
0.05
0.0
-0.05
-0.09
-0.11
-0.1
-0.025
0.105
0.09
0.135
0.115
0.055
-0.01
-0.035
-0.065
0.005
0.075
0.12
0.185
0.215
0.19
0.135
0.035
0.0
-0.005
0.045
0.115
0.18
0.21
0.215
0.185
0.12
0.06
0.015
-0.015
0.01
0.085
0.165
0.18
0.19
0.15
0.045
-0.02
-0.055
-0.085
-0.035
0.02
0.09
0.12
0.12
0.075
-0.015
-0.08
-0.135
-0.12
-0.115
-0.02
0.025
0.06
0.055
0.005
-0.09
-0.15
-0.175
-0.19
-0.15
-0.07
-0.01
0.02
0.02
-0.02
-0.115
-0.16
-0.195
-0.185
-0.15
-0.1
-0.035
0.015
0.01
-0.015
-0.105
-0.17
-0.165
-0.17
-0.155
-0.045
0.005
0.03
0.01
-0.015
-0.105
-0.145
-0.185
-0.18
-0.145
-0.06
0.01
0.02
0.01
-0.035
-0.115
-0.15
-0.19
-0.18
-0.135
-0.03
-0.005
0.025
-0.005
-0.035
-0.11
-0.145
-0.19
-0.16
-0.125
-0.055
-0.01
0.02
-0.015
-0.06
-0.14
-0.185
-0.21
-0.18
-0.13
-0.025
0.015
0.03
0.015
-0.04
-0.14
-0.175
-0.21
-0.185
-0.11
-0.035
-0.03
0.02
0.005
-0.065
-0.14
-0.175
-0.19
-0.165
-0.1
-0.005
0.0
0.02
0.02
-0.045
-0.145
-0.17
-0.165
-0.145
-0.095
0.01
0.045
0.05
0.02
-0.03
-0.11
-0.155
-0.165
-0.1
-0.055
0.005
0.045
0.06
0.04
-0.035
-0.115
-0.16
-0.17
-0.155
-0.095
-0.005
0.03
0.055
-0.005
-0.09
-0.16
-0.2
-0.2
-0.18
-0.09
-0.045
-0.015
-0.01
-0.055
-0.11
-0.17
-0.205
-0.22
-0.175
-0.12
-0.065
-0.01
0.0
-0.05
-0.12
-0.18
-0.19
-0.195
-0.16
-0.085
-0.045
-0.015
-0.01
-0.045
-0.13
-0.15
-0.135
-0.115
-0.025
0.12
0.225
0.315
0.375
0.34
0.19
0.065
0.0
-0.07
-0.085
-0.045
-0.085
-0.16
-0.225
-0.29
-0.385
-0.41
-0.43
-0.43
-0.375
-0.29
-0.245
-0.175
-0.185
-0.2
-0.275
-0.29
-0.315
-0.26
-0.205
-0.095
-0.05
0.005
-0.025
-0.06
-0.16
-0.17
-0.205
-0.2
-0.14
-0.055
0.005
0.04
0.02
-0.055
-0.14
-0.165
-0.195
-0.2
-0.14
-0.045
0.01
0.035
0.02
-0.045
-0.125
-0.155
-0.18
-0.145
-0.1
-0.01
0.02
0.035
0.025
-0.035
-0.11
-0.12
-0.15
-0.145
-0.095
-0.005
0.04
0.045
0.04
-0.04
-0.11
-0.125
-0.135
-0.115
-0.045
0.07
0.08
0.09
0.065
0.015
-0.06
-0.07
-0.09
-0.055
0.02
0.105
0.14
0.155
0.125
0.065
0.0
-0.005
-0.01
0.035
0.095
0.175
0.22
0.235
0.225
0.13
0.06
0.07
0.075
0.115
0.18
0.215
0.26
0.265
0.245
0.155
0.11
0.06
0.045
0.07
0.14
0.22
0.255
0.24
0.19
0.11
0.025
-0.005
-0.02
0.015
0.08
0.13
0.15
0.17
0.12
0.035
-0.065
-0.105
-0.11
-0.05
0.01
0.03
0.09
0.05
0.015
-0.05
-0.11
-0.155
-0.165
-0.11
-0.03
0.015
0.055
0.035
-0.005
-0.08
-0.16
-0.185
-0.17
-0.125
-0.045
0.025
0.025
0.01
-0.02
-0.1
-0.145
-0.2
-0.195
-0.14
-0.05
-0.015
0.025
0.01
-0.02
-0.105
-0.16
-0.195
-0.135
-0.11
-0.01
0.02
0.06
0.035
-0.03
-0.14
-0.13
-0.18
-0.155
-0.09
0.0
0.02
0.05
0.045
-0.025
-0.11
-0.17
-0.17
-0.14
-0.115
-0.025
0.005
0.05
0.015
-0.04
-0.135
-0.15
-0.16
-0.16
-0.115
-0.01
0.04
0.06
0.02
-0.05
-0.11
-0.165
-0.185
-0.145
-0.1
0.005
0.045
0.04
0.025
-0.045
-0.155
-0.15
-0.17
-0.145
-0.085
0.0
0.02
0.025
-0.01
-0.055
-0.14
-0.155
-0.175
-0.105
-0.065
-0.02
0.035
0.04
0.0
-0.05
-0.14
-0.15
-0.16
-0.15
-0.095
-0.03
0.02
0.045
0.015
-0.05
-0.12
-0.145
-0.165
-0.145
-0.065
0.005
0.025
0.04
0.005
-0.06
-0.13
-0.18
-0.17
-0.125
-0.05
0.015
0.045
0.085
0.065
-0.04
-0.095
-0.135
-0.165
-0.115
-0.02
0.045
0.065
0.055
0.0
-0.09
-0.125
-0.135
-0.145
-0.115
-0.035
0.015
0.055
0.045
0.005
-0.08
-0.13
-0.175
-0.175
-0.13
-0.04
0.005
0.05
0.04
-0.01
-0.105
-0.135
-0.185
-0.175
-0.125
-0.03
0.02
0.04
0.035
-0.015
-0.11
-0.155
-0.185
-0.185
-0.145
-0.03
0.02
0.015
-0.015
-0.045
-0.125
-0.165
-0.22
-0.19
-0.13
-0.005
0.06
0.155
0.19
0.215
0.165
0.185
0.185
0.205
0.22
0.225
0.18
0.175
0.11
-0.025
-0.195
-0.31
-0.39
-0.38
-0.315
-0.215
-0.195
-0.16
-0.17
-0.205
-0.265
-0.295
-0.285
-0.22
-0.135
-0.065
-0.005
0.035
0.015
-0.065
-0.145
-0.16
-0.18
-0.17
-0.09
-0.01
0.03
0.05
0.03
-0.04
-0.11
-0.15
-0.16
-0.135
-0.08
0.025
0.03
0.03
0.03
-0.04
-0.1
-0.135
-0.115
-0.115
-0.07
0.01
0.06
0.05
0.02
-0.04
-0.12
-0.145
-0.14
-0.105
-0.01
0.045
0.06
0.08
0.05
-0.02
-0.095
-0.135
-0.125
-0.09
-0.025
0.055
0.08
0.09
0.05
-0.025
-0.06
-0.11
-0.11
-0.06
0.005
0.085
0.11
0.115
0.07
0.01
-0.03
-0.055
-0.07
-0.035
0.045
0.12
0.155
0.165
0.16
0.075
0.0
-0.04
-0.01
0.035
0.12
0.14
0.205
0.195
0.16
0.075
0.03
0.01
-0.005
0.04
0.13
0.155
0.2
0.21
0.155
0.055
-0.01
-0.04
-0.02
0.0
0.085
0.13
0.16
0.145
0.095
-0.005
-0.065
-0.085
-0.08
-0.035
0.045
0.085
0.1
0.075
0.04
-0.06
-0.105
-0.14
-0.115
-0.06
0.02
0.055
0.065
0.05
-0.005
-0.085
-0.13
-0.155
-0.13
-0.09
0.0
0.055
0.08
0.035
-0.015
-0.105
-0.13
-0.17
-0.145
-0.095
0.005
0.045
0.065
0.05
-0.015
-0.075
-0.13
-0.15
-0.14
-0.075
0.01
0.03
0.06
0.02
-0.025
-0.11
-0.155
-0.165
-0.135
-0.08
0.02
0.04
0.065
0.03
-0.03
-0.115
-0.135
-0.16
-0.14
-0.07
0.01
0.035
0.04
0.015
-0.045
-0.12
-0.175
-0.145
-0.125
-0.075
-0.02
0.025
0.045
0.01
-0.055
-0.115
-0.175
-0.175
-0.16
-0.08
-0.02
0.0
0.005
-0.025
-0.09
-0.145
-0.175
-0.185
-0.16
-0.075
-0.025
0.005
0.0
-0.04
-0.1
-0.165
-0.22
-0.21
-0.145
-0.085
-0.035
0.01
0.0
-0.04
-0.12
-0.18
-0.21
-0.205
-0.16
-0.09
-0.03
0.005
-0.01
-0.035
-0.12
-0.18
-0.195
-0.19
-0.18
-0.1
-0.02
0.0
0.0
-0.05
-0.155
-0.205
-0.24
-0.21
-0.18
-0.095
-0.06
-0.035
-0.055
-0.11
-0.2
-0.235
-0.28
-0.285
-0.24
-0.145
-0.09
-0.07
-0.08
-0.13
-0.22
-0.265
-0.275
-0.265
-0.23
-0.125
-0.105
-0.08
-0.1
-0.16
-0.255
-0.285
-0.31
-0.295
-0.265
-0.155
-0.135
-0.105
-0.13
-0.2
-0.24
-0.27
-0.275
-0.23
-0.115
0.02
0.105
0.18
0.165
0.1
-0.035
-0.15
-0.25
-0.285
-0.29
-0.245
-0.275
-0.32
-0.425
-0.51
-0.575
-0.58
-0.575
-0.535
-0.465
-0.35
-0.32
-0.28
-0.275
-0.32
-0.39
-0.41
-0.425
-0.375
-0.3
-0.245
-0.2
-0.165
-0.225
-0.275
-0.365
-0.41
-0.42
-0.375
-0.32
-0.225
-0.16
-0.185
-0.215
-0.285
-0.365
-0.395
-0.405
-0.375
-0.32
-0.25
-0.24
-0.215
-0.245
-0.31
-0.395
-0.425
-0.43
-0.395
-0.315
-0.27
-0.235
-0.22
-0.245
-0.325
-0.39
-0.42
-0.445
-0.405
-0.33
-0.265
-0.245
-0.265
-0.29
-0.365
-0.4
-0.43
-0.45
-0.415
-0.335
-0.27
-0.23
-0.255
-0.305
-0.37
-0.39
-0.435
-0.45
-0.41
-0.31
-0.285
-0.24
-0.22
-0.255
-0.37
-0.42
-0.435
-0.415
-0.385
-0.23
-0.22
-0.2
-0.21
-0.25
-0.32
-0.37
-0.41
-0.41
-0.36
-0.26
-0.21
-0.21
-0.215
-0.255
-0.335
-0.38
-0.44
-0.43
-0.37
-0.315
-0.26
-0.235
-0.245
-0.32
-0.41
-0.47
-0.495
-0.475
-0.44
-0.32
-0.33
-0.3
-0.29
-0.385
-0.495
-0.52
-0.565
-0.555
-0.495
-0.415
-0.39
-0.365
-0.39
-0.45
-0.545
-0.58
-0.6
-0.56
-0.485
-0.42
-0.41
-0.37
-0.4
-0.46
-0.55
-0.555
-0.615
-0.575
-0.525
-0.415
-0.405
-0.385
-0.42
-0.475
-0.55
-0.595
-0.625
-0.61
-0.54
-0.46
-0.395
-0.37
-0.385
-0.47
-0.565
-0.605
-0.63
-0.58
-0.505
-0.435
-0.405
-0.385
-0.435
-0.495
-0.545
-0.59
-0.59
-0.555
-0.515
-0.425
-0.425
-0.395
-0.43
-0.51
-0.565
-0.595
-0.585
-0.555
-0.475
-0.405
-0.38
-0.41
-0.435
-0.54
-0.56
-0.595
-0.575
-0.555
-0.495
-0.43
-0.395
-0.385
-0.435
-0.505
-0.535
-0.56
-0.57
-0.55
-0.46
-0.39
-0.4
-0.395
-0.415
-0.51
-0.545
-0.56
-0.58
-0.545
-0.45
-0.395
-0.39
-0.35
-0.41
-0.495
-0.53
-0.545
-0.555
-0.51
-0.425
-0.37
-0.345
-0.335
-0.35
-0.45
-0.485
-0.52
-0.51
-0.485
-0.38
-0.345
-0.315
-0.3
-0.37
-0.475
-0.475
-0.515
-0.485
-0.415
-0.335
-0.29
-0.25
-0.245
-0.3
-0.39
-0.445
-0.49
-0.445
-0.39
-0.305
-0.27
-0.225
-0.24
-0.25
-0.37
-0.43
-0.435
-0.405
-0.35
-0.235
-0.21
-0.155
-0.225
-0.295
-0.365
-0.385
-0.43
-0.41
-0.33
-0.24
-0.195
-0.17
-0.22
-0.265
-0.345
-0.36
-0.36
-0.355
-0.3
-0.195
-0.155
-0.16
-0.18
-0.22
-0.295
-0.33
-0.375
-0.34
-0.25
-0.155
-0.14
-0.1
-0.16
-0.195
-0.295
-0.325
-0.325
-0.29
-0.235
-0.16
-0.11
-0.07
-0.06
-0.05
-0.075
-0.06
-0.005
0.11
0.145
0.19
0.165
0.075
-0.005
-0.11
-0.21
-0.3
-0.355
-0.395
-0.38
-0.325
-0.255
-0.25
-0.25
-0.26
-0.34
-0.34
-0.335
-0.28
-0.14
-0.08
-0.03
0.005
-0.04
-0.095
-0.17
-0.17
-0.19
-0.125
-0.045
0.035
0.06
0.07
0.035
-0.02
-0.1
-0.125
-0.115
-0.07
0.005
0.065
0.105
0.125
0.125
0.045
-0.01
-0.05
-0.02
0.03
0.11
0.125
0.17
0.165
0.15
0.05
0.005
0.0
0.015
0.065
0.175
0.21
0.24
0.22
0.185
0.12
0.105
0.075
0.07
0.105
0.21
0.265
0.285
0.335
0.245
0.175
0.14
0.12
0.15
0.2
0.285
0.385
0.38
0.345
0.32
0.235
0.23
0.205
0.205
0.24
0.37
0.42
0.45
0.44
0.38
0.29
0.305
0.295
0.325
0.38
0.48
0.51
0.53
0.51
0.47
0.375
0.385
0.35
