# TIPE ECG 2021 - ECG-ID Database v1.0.0 par Physionet
# [N° de la personne, N° de l'enregistrement, Période d'échantillonnage, Prénom, Age, Sexe, Date de l'enregistrement]
[1, 4, 0.002, "Lucas", 25, "H", "28.12.2004"]
-0.065
-0.095
-0.115
-0.105
-0.09
-0.025
-0.025
-0.015
0.0
-0.02
-0.08
-0.1
-0.105
-0.095
-0.095
-0.04
-0.015
0.0
-0.015
-0.025
-0.08
-0.115
-0.14
-0.13
-0.1
-0.045
-0.01
-0.005
-0.015
-0.045
-0.085
-0.12
-0.145
-0.13
-0.1
-0.045
-0.025
-0.01
-0.04
-0.065
-0.105
-0.12
-0.125
-0.115
-0.095
-0.025
-0.035
-0.045
-0.025
-0.05
-0.095
-0.115
-0.11
-0.115
-0.09
-0.04
-0.035
-0.01
-0.025
-0.07
-0.105
-0.14
-0.145
-0.11
-0.08
-0.035
-0.015
-0.015
-0.035
-0.065
-0.115
-0.12
-0.125
-0.11
-0.065
-0.015
-0.015
0.0
-0.02
-0.055
-0.1
-0.11
-0.115
-0.105
-0.075
-0.02
-0.015
0.0
-0.01
-0.045
-0.085
-0.1
-0.105
-0.055
-0.025
0.01
0.035
0.025
0.005
-0.02
-0.055
-0.065
-0.075
-0.075
-0.04
-0.015
0.0
-0.01
-0.035
-0.08
-0.125
-0.14
-0.13
-0.125
-0.075
-0.05
-0.035
-0.02
-0.045
-0.11
-0.135
-0.145
-0.16
-0.12
-0.08
-0.065
-0.04
-0.06
-0.075
-0.1
-0.13
-0.14
-0.135
-0.12
-0.07
-0.06
-0.06
-0.055
-0.07
-0.115
-0.16
-0.16
-0.155
-0.12
-0.075
-0.045
-0.035
-0.07
-0.08
-0.13
-0.17
-0.18
-0.165
-0.145
-0.11
-0.1
-0.08
-0.085
-0.095
-0.08
-0.03
-0.015
0.075
0.175
0.285
0.375
0.5
0.61
0.685
0.665
0.635
0.59
0.555
0.51
0.465
0.38
0.26
0.125
-0.03
-0.15
-0.22
-0.195
-0.17
-0.115
-0.07
-0.02
-0.005
-0.005
-0.01
-0.075
-0.095
-0.11
-0.08
-0.085
-0.02
-0.005
-0.01
-0.005
-0.04
-0.085
-0.09
-0.115
-0.105
-0.07
-0.005
0.0
0.005
-0.01
-0.035
-0.075
-0.1
-0.1
-0.08
-0.045
0.0
0.015
0.025
0.005
-0.025
-0.08
-0.08
-0.075
-0.04
-0.015
0.02
0.035
0.045
0.02
0.005
-0.035
-0.055
-0.05
-0.035
-0.01
0.03
0.045
0.065
0.04
0.02
-0.025
-0.045
-0.04
-0.01
0.035
0.08
0.095
0.1
0.085
0.05
0.005
-0.005
0.015
0.035
0.075
0.1
0.14
0.145
0.115
0.085
0.06
0.055
0.05
0.09
0.14
0.18
0.195
0.22
0.21
0.175
0.15
0.13
0.13
0.16
0.195
0.255
0.265
0.26
0.235
0.2
0.15
0.16
0.175
0.2
0.225
0.26
0.27
0.265
0.245
0.195
0.155
0.125
0.135
0.145
0.19
0.205
0.2
0.175
0.15
0.1
0.055
0.03
0.035
0.045
0.08
0.1
0.1
0.06
0.035
0.0
-0.055
-0.055
-0.06
-0.035
0.01
0.03
0.03
0.005
-0.03
-0.07
-0.095
-0.1
-0.09
-0.065
-0.02
0.01
0.01
-0.015
-0.035
-0.075
-0.105
-0.11
-0.085
-0.055
-0.015
-0.015
-0.005
-0.025
-0.055
-0.105
-0.095
-0.115
-0.1
-0.07
-0.015
-0.01
0.005
-0.015
-0.05
-0.08
-0.09
-0.105
-0.085
-0.065
-0.005
0.0
0.005
-0.015
-0.045
-0.085
-0.12
-0.105
-0.1
-0.05
-0.01
0.005
0.01
-0.005
-0.035
-0.07
-0.09
-0.1
-0.09
-0.055
-0.025
0.0
0.01
-0.01
-0.03
-0.08
-0.11
-0.105
-0.075
-0.055
0.005
0.02
0.0
-0.03
-0.065
-0.07
-0.105
-0.105
-0.065
-0.05
-0.03
0.0
0.0
-0.035
-0.065
-0.095
-0.12
-0.115
-0.095
-0.045
-0.02
0.01
0.0
-0.03
-0.06
-0.095
-0.13
-0.125
-0.095
-0.05
-0.01
-0.005
-0.005
-0.04
-0.085
-0.12
-0.12
-0.125
-0.09
-0.035
-0.01
-0.01
-0.02
-0.04
-0.09
-0.12
-0.12
-0.115
-0.09
-0.04
-0.015
0.0
-0.02
-0.055
-0.09
-0.11
-0.115
-0.11
-0.1
-0.06
-0.035
-0.025
-0.025
-0.045
-0.1
-0.135
-0.135
-0.11
-0.075
-0.055
-0.02
-0.005
-0.015
-0.035
-0.07
-0.095
-0.105
-0.095
-0.07
-0.02
0.015
-0.005
-0.01
-0.03
-0.07
-0.1
-0.1
-0.07
-0.035
0.03
0.04
0.055
0.045
0.02
-0.04
-0.09
-0.09
-0.045
-0.02
0.015
0.035
0.035
0.015
-0.025
-0.075
-0.09
-0.09
-0.095
-0.08
-0.035
-0.025
-0.025
-0.04
-0.07
-0.11
-0.12
-0.125
-0.115
-0.085
-0.035
-0.025
-0.015
-0.04
-0.065
-0.12
-0.145
-0.15
-0.13
-0.1
-0.06
-0.035
-0.025
-0.06
-0.075
-0.13
-0.135
-0.135
-0.135
-0.105
-0.055
-0.03
-0.015
-0.05
-0.09
-0.13
-0.14
-0.16
-0.145
-0.12
-0.08
-0.055
-0.06
-0.08
-0.145
-0.175
-0.18
-0.17
-0.09
0.015
0.115
0.175
0.245
0.285
0.33
0.405
0.52
0.64
0.67
0.71
0.69
0.645
0.58
0.46
0.325
0.15
0.005
-0.115
-0.17
-0.155
-0.095
-0.065
-0.07
-0.085
-0.1
-0.12
-0.115
-0.1
-0.08
-0.03
-0.015
0.005
-0.005
-0.04
-0.08
-0.115
-0.11
-0.1
-0.085
-0.05
-0.015
-0.015
-0.015
-0.04
-0.065
-0.1
-0.115
-0.105
-0.08
-0.03
0.005
0.01
0.01
-0.02
-0.075
-0.085
-0.075
-0.08
-0.055
-0.005
0.015
0.025
0.015
-0.005
-0.05
-0.075
-0.08
-0.075
-0.045
0.01
0.035
0.035
0.035
0.015
-0.03
-0.05
-0.05
-0.045
-0.01
0.04
0.065
0.065
0.045
0.035
0.0
-0.005
-0.04
-0.015
0.025
0.07
0.09
0.115
0.11
0.085
0.04
0.005
0.005
0.035
0.075
0.135
0.16
0.175
0.16
0.145
0.095
0.1
0.09
0.115
0.155
0.21
0.23
0.24
0.225
0.205
0.16
0.155
0.15
0.17
0.185
0.225
0.26
0.265
0.24
0.205
0.17
0.135
0.14
0.145
0.17
0.225
0.235
0.225
0.19
0.145
0.085
0.055
0.055
0.07
0.09
0.14
0.125
0.105
0.085
0.035
-0.02
-0.055
-0.055
-0.03
-0.01
0.02
0.02
0.01
-0.005
-0.045
-0.08
-0.1
-0.095
-0.07
-0.05
-0.015
0.0
-0.01
-0.05
-0.075
-0.115
-0.135
-0.135
-0.105
-0.06
-0.025
-0.01
-0.025
-0.05
-0.085
-0.125
-0.14
-0.13
-0.11
-0.06
-0.04
-0.02
-0.015
-0.05
-0.08
-0.13
-0.14
-0.13
-0.105
-0.06
-0.035
-0.02
-0.035
-0.055
-0.095
-0.13
-0.145
-0.125
-0.1
-0.05
-0.02
-0.01
-0.025
-0.035
-0.095
-0.12
-0.13
-0.1
-0.105
-0.07
-0.03
-0.015
-0.025
-0.05
-0.09
-0.11
-0.125
-0.115
-0.085
-0.05
-0.035
-0.02
-0.03
-0.06
-0.105
-0.13
-0.125
-0.125
-0.09
-0.04
-0.02
-0.025
-0.03
-0.05
-0.11
-0.13
-0.115
-0.12
-0.095
-0.06
-0.04
-0.025
-0.045
-0.07
-0.135
-0.13
-0.14
-0.13
-0.105
-0.05
-0.03
-0.025
-0.055
-0.07
-0.12
-0.145
-0.155
-0.135
-0.1
-0.05
-0.03
-0.035
-0.055
-0.075
-0.13
-0.145
-0.155
-0.145
-0.12
-0.07
-0.04
-0.03
-0.045
-0.085
-0.145
-0.155
-0.15
-0.13
-0.105
-0.065
-0.035
-0.04
-0.05
-0.105
-0.155
-0.15
-0.145
-0.135
-0.095
-0.06
-0.04
-0.03
-0.045
-0.08
-0.135
-0.155
-0.16
-0.135
-0.105
-0.065
-0.06
-0.05
-0.075
-0.09
-0.135
-0.145
-0.15
-0.11
-0.085
-0.045
-0.02
-0.025
-0.06
-0.075
-0.11
-0.12
-0.12
-0.095
-0.055
-0.035
-0.02
-0.005
-0.015
-0.07
-0.085
-0.1
-0.095
-0.065
-0.01
-0.005
0.015
0.01
-0.01
-0.05
-0.065
-0.08
-0.09
-0.08
-0.04
-0.025
-0.03
-0.035
-0.055
-0.105
-0.135
-0.17
-0.16
-0.135
-0.08
-0.055
-0.05
-0.07
-0.075
-0.115
-0.14
-0.165
-0.15
-0.125
-0.075
-0.05
-0.045
-0.065
-0.08
-0.125
-0.155
-0.145
-0.155
-0.12
-0.06
-0.07
-0.055
-0.06
-0.085
-0.14
-0.155
-0.155
-0.14
-0.125
-0.06
-0.055
-0.045
-0.06
-0.08
-0.15
-0.185
-0.18
-0.17
-0.17
-0.125
-0.11
-0.085
-0.07
-0.04
-0.015
0.02
0.065
0.15
0.27
0.4
0.51
0.66
0.735
0.715
0.655
0.585
0.51
0.445
0.365
0.295
0.18
0.065
-0.085
-0.16
-0.225
-0.225
-0.22
-0.19
-0.14
-0.055
-0.025
-0.01
-0.035
-0.055
-0.11
-0.105
-0.105
-0.1
-0.06
-0.03
-0.02
-0.02
-0.03
-0.055
-0.1
-0.125
-0.135
-0.105
-0.065
-0.045
-0.01
0.005
-0.025
-0.06
-0.1
-0.1
-0.09
-0.08
-0.07
-0.01
0.005
0.005
-0.025
-0.05
-0.085
-0.1
-0.095
-0.055
-0.02
0.005
0.03
0.025
0.0
-0.03
-0.07
-0.07
-0.07
-0.055
-0.005
0.01
0.045
0.025
0.0
-0.03
-0.045
-0.055
-0.04
-0.02
0.03
0.065
0.075
0.075
0.07
0.0
-0.025
-0.02
-0.005
0.015
0.075
0.11
0.125
0.125
0.11
0.065
0.05
0.045
0.08
0.09
0.135
0.17
0.21
0.205
0.175
0.15
0.1
0.1
0.12
0.16
0.2
0.24
0.24
0.24
0.215
0.19
0.145
0.13
0.13
0.175
0.215
0.245
0.26
0.22
0.195
0.135
0.105
0.11
0.105
0.12
0.165
0.18
0.175
0.14
0.095
0.055
0.005
0.0
0.015
0.01
0.05
0.065
0.065
0.045
0.005
-0.05
-0.075
-0.08
-0.06
-0.045
0.005
-0.005
0.015
-0.01
-0.06
-0.11
-0.125
-0.12
-0.11
-0.08
-0.04
-0.02
-0.005
-0.025
-0.08
-0.12
-0.12
-0.125
-0.11
-0.085
-0.04
-0.03
-0.015
-0.04
-0.08
-0.13
-0.105
-0.125
-0.1
-0.08
-0.02
-0.01
-0.015
-0.045
-0.07
-0.1
-0.11
-0.125
-0.09
-0.05
-0.02
-0.005
0.005
-0.02
-0.075
-0.12
-0.11
-0.105
-0.085
-0.06
-0.03
0.0
0.0
-0.035
-0.06
-0.095
-0.115
-0.125
-0.095
-0.05
-0.015
0.01
0.005
-0.02
-0.085
-0.14
-0.13
-0.11
-0.095
-0.055
-0.025
-0.01
-0.005
-0.035
-0.09
-0.105
-0.1
-0.12
-0.1
-0.055
-0.03
0.005
-0.02
-0.045
-0.09
-0.145
-0.14
-0.125
-0.1
-0.05
-0.025
-0.015
-0.02
-0.055
-0.1
-0.13
-0.14
-0.13
-0.1
-0.055
-0.04
-0.035
-0.03
-0.045
-0.09
-0.12
-0.125
-0.145
-0.115
-0.055
-0.035
-0.035
-0.04
-0.06
-0.11
-0.145
-0.15
-0.13
-0.11
-0.065
-0.045
-0.035
-0.045
-0.06
-0.115
-0.15
-0.16
-0.135
-0.1
-0.05
-0.035
-0.03
-0.045
-0.07
-0.12
-0.14
-0.135
-0.115
-0.095
-0.065
-0.05
-0.025
-0.035
-0.07
-0.11
-0.12
-0.12
-0.11
-0.07
-0.035
-0.02
-0.015
-0.03
-0.055
-0.095
-0.125
-0.125
-0.1
-0.07
-0.025
0.01
0.01
0.01
-0.015
-0.065
-0.085
-0.085
-0.065
-0.035
0.01
0.01
0.005
-0.01
-0.025
-0.075
-0.105
-0.12
-0.11
-0.07
-0.035
-0.025
-0.02
-0.05
-0.09
-0.145
-0.16
-0.165
-0.12
-0.105
-0.075
-0.045
-0.03
-0.06
-0.1
-0.135
-0.165
-0.16
-0.13
-0.1
-0.07
-0.065
-0.055
-0.085
-0.12
-0.16
-0.17
-0.175
-0.14
-0.105
-0.09
-0.06
-0.055
-0.095
-0.13
-0.155
-0.17
-0.155
-0.135
-0.1
-0.08
-0.065
-0.07
-0.105
-0.135
-0.175
-0.215
-0.225
-0.2
-0.15
-0.07
-0.04
0.015
0.07
0.08
0.13
0.185
0.31
0.435
0.62
0.7
0.725
0.705
0.655
0.54
0.405
0.28
0.175
0.07
-0.02
-0.095
-0.12
-0.14
-0.15
-0.19
-0.21
-0.23
-0.17
-0.1
-0.035
-0.01
0.005
-0.01
-0.05
-0.115
-0.145
-0.135
-0.12
-0.105
-0.07
-0.03
-0.02
-0.025
-0.06
-0.105
-0.12
-0.125
-0.115
-0.085
-0.04
0.005
-0.005
-0.015
-0.065
-0.08
-0.09
-0.1
-0.085
-0.06
-0.025
0.005
0.01
0.01
-0.005
-0.07
-0.08
-0.11
-0.09
-0.055
-0.01
0.015
0.025
0.015
-0.035
-0.075
-0.08
-0.075
-0.06
-0.025
0.03
0.04
0.04
0.025
0.0
-0.04
-0.06
-0.05
-0.02
0.015
0.055
0.07
0.085
0.075
0.045
0.015
-0.005
-0.015
0.02
0.065
0.095
0.105
0.15
0.12
0.1
0.05
0.045
0.06
0.08
0.13
0.18
0.21
0.21
0.185
0.17
0.14
0.115
0.12
0.135
0.185
0.22
0.235
0.245
0.235
0.19
0.16
0.105
0.13
0.155
0.2
0.23
0.245
0.24
0.19
0.15
0.09
0.07
0.065
0.07
0.12
0.13
0.135
0.13
0.08
0.03
-0.02
-0.045
-0.04
-0.025
-0.005
0.02
0.035
0.025
-0.015
-0.065
-0.085
-0.11
-0.115
-0.085
-0.05
-0.045
-0.02
-0.02
-0.05
-0.1
-0.125
-0.145
-0.15
-0.105
-0.07
-0.045
-0.035
-0.05
-0.065
-0.13
-0.155
-0.155
-0.14
-0.105
-0.07
-0.045
-0.035
-0.06
-0.075
-0.13
-0.15
-0.145
-0.135
-0.1
-0.065
-0.04
-0.025
-0.045
-0.055
-0.115
-0.125
-0.12
-0.125
-0.105
-0.05
-0.03
-0.03
-0.04
-0.07
-0.12
-0.145
-0.13
-0.12
-0.09
-0.05
-0.015
-0.015
-0.035
-0.055
-0.11
-0.12
-0.135
-0.12
-0.095
-0.04
-0.025
-0.02
-0.03
-0.065
-0.11
-0.125
-0.13
-0.1
-0.09
-0.05
-0.015
-0.03
-0.05
-0.075
-0.11
-0.12
-0.14
-0.125
-0.095
-0.06
-0.03
-0.045
-0.045
-0.07
-0.115
-0.135
-0.15
-0.125
-0.085
-0.05
-0.03
-0.03
-0.05
-0.095
-0.135
-0.145
-0.145
-0.125
-0.095
-0.055
-0.045
-0.035
-0.065
-0.085
-0.14
-0.145
-0.14
-0.1
-0.065
-0.06
-0.05
-0.04
-0.065
-0.11
-0.145
-0.165
-0.145
-0.125
-0.085
-0.055
-0.025
-0.04
-0.07
-0.11
-0.155
-0.155
-0.15
-0.13
-0.1
-0.06
-0.045
-0.05
-0.07
-0.11
-0.14
-0.165
-0.155
-0.135
-0.095
-0.06
-0.045
-0.045
-0.075
-0.135
-0.155
-0.165
-0.16
-0.135
-0.08
-0.055
-0.045
-0.06
-0.07
-0.125
-0.145
-0.16
-0.155
-0.105
-0.05
-0.03
-0.015
-0.03
-0.055
-0.1
-0.125
-0.14
-0.125
-0.1
-0.05
-0.025
-0.03
-0.025
-0.035
-0.085
-0.105
-0.105
-0.095
-0.07
-0.03
0.005
0.01
0.01
-0.015
-0.075
-0.1
-0.125
-0.1
-0.09
-0.05
-0.03
-0.04
-0.065
-0.075
-0.13
-0.165
-0.175
-0.165
-0.13
-0.075
-0.045
-0.05
-0.08
-0.11
-0.155
-0.165
-0.165
-0.155
-0.13
-0.09
-0.08
-0.06
-0.09
-0.135
-0.18
-0.18
-0.175
-0.16
-0.145
-0.11
-0.065
-0.075
-0.09
-0.12
-0.16
-0.185
-0.2
-0.165
-0.12
-0.105
-0.095
-0.075
-0.095
-0.14
-0.19
-0.21
-0.22
-0.2
-0.185
-0.145
-0.13
-0.115
-0.11
-0.065
-0.065
-0.005
0.035
0.15
0.24
0.375
0.51
0.625
0.695
0.66
0.605
0.535
0.48
0.41
0.365
0.285
0.165
0.035
-0.105
-0.19
-0.265
-0.23
-0.215
-0.18
-0.115
-0.055
-0.05
-0.035
-0.05
-0.115
-0.145
-0.165
-0.165
-0.145
-0.1
-0.065
-0.05
-0.05
-0.07
-0.125
-0.16
-0.145
-0.15
-0.11
-0.08
-0.06
-0.035
-0.045
-0.07
-0.11
-0.13
-0.13
-0.135
-0.1
-0.05
-0.035
-0.03
-0.035
-0.06
-0.095
-0.13
-0.135
-0.12
-0.095
-0.055
-0.02
-0.005
-0.01
-0.035
-0.08
-0.115
-0.11
-0.095
-0.08
-0.02
0.015
0.025
-0.01
-0.02
-0.05
-0.08
-0.09
-0.075
-0.05
0.005
0.02
0.035
0.025
0.01
-0.04
-0.055
-0.055
-0.03
-0.01
0.05
0.1
0.1
0.09
0.06
-0.005
-0.01
0.01
0.03
0.07
0.12
0.155
0.16
0.16
0.145
0.1
0.075
0.075
0.105
0.145
0.195
0.21
0.22
0.19
0.17
0.13
0.1
0.1
0.115
0.15
0.19
0.225
0.23
0.21
0.18
0.105
0.08
0.055
0.06
0.105
0.135
0.145
0.14
0.11
0.06
0.01
-0.025
-0.035
-0.025
-0.005
0.03
0.015
0.02
0.0
-0.035
-0.09
-0.11
-0.115
-0.105
-0.075
-0.045
-0.045
-0.03
-0.05
-0.11
-0.145
-0.155
-0.16
-0.14
-0.11
-0.085
-0.05
-0.05
-0.085
-0.115
-0.165
-0.17
-0.175
-0.15
-0.12
-0.08
-0.06
-0.07
-0.09
-0.13
-0.17
-0.19
-0.15
-0.145
-0.125
-0.085
-0.065
-0.07
-0.09
-0.135
-0.165
-0.175
-0.17
-0.15
-0.095
-0.065
-0.06
-0.05
-0.075
-0.125
-0.155
-0.17
-0.145
-0.145
-0.095
-0.05
-0.025
-0.03
-0.05
-0.125
-0.175
-0.18
-0.16
-0.14
-0.08
-0.05
-0.045
-0.04
-0.07
-0.115
-0.165
-0.17
-0.17
-0.125
-0.09
-0.05
-0.035
-0.055
-0.08
-0.12
-0.145
-0.175
-0.155
-0.13
-0.075
-0.04
-0.04
-0.065
-0.075
-0.13
-0.175
-0.18
-0.165
-0.13
-0.1
-0.08
-0.065
-0.07
-0.1
-0.15
-0.165
-0.165
-0.15
-0.15
-0.105
-0.06
-0.045
-0.075
-0.1
-0.145
-0.17
-0.195
-0.155
-0.135
-0.09
-0.06
-0.07
-0.105
-0.11
-0.155
-0.175
-0.195
-0.14
-0.145
-0.1
-0.065
-0.075
-0.09
-0.105
-0.155
-0.18
-0.18
-0.17
-0.115
-0.1
-0.065
-0.07
-0.095
-0.125
-0.175
-0.17
-0.195
-0.17
-0.12
-0.095
-0.085
-0.085
-0.1
-0.13
-0.16
-0.195
-0.165
-0.165
-0.125
-0.08
-0.07
-0.09
-0.11
-0.16
-0.175
-0.175
-0.19
-0.165
-0.125
-0.085
-0.07
-0.065
-0.065
-0.12
-0.165
-0.17
-0.165
-0.14
-0.11
-0.06
-0.06
-0.075
-0.085
-0.11
-0.165
-0.17
-0.145
-0.115
-0.075
-0.03
-0.01
-0.02
-0.035
-0.08
-0.115
-0.135
-0.13
-0.105
-0.045
-0.025
-0.025
-0.035
-0.07
-0.115
-0.165
-0.165
-0.165
-0.13
-0.11
-0.08
-0.075
-0.08
-0.11
-0.16
-0.19
-0.185
-0.17
-0.14
-0.095
-0.095
-0.09
-0.08
-0.105
-0.165
-0.2
-0.21
-0.19
-0.16
-0.125
-0.095
-0.075
-0.095
-0.12
-0.17
-0.2
-0.205
-0.19
-0.165
-0.12
-0.085
-0.075
-0.09
-0.11
-0.16
-0.195
-0.215
-0.2
-0.175
-0.155
-0.12
-0.115
-0.125
-0.17
-0.22
-0.225
-0.215
-0.145
-0.045
0.065
0.135
0.205
0.24
0.31
0.365
0.485
0.59
0.625
0.67
0.655
0.625
0.545
0.45
0.295
0.12
-0.035
-0.155
-0.24
-0.215
-0.15
-0.13
-0.105
-0.095
-0.11
-0.14
-0.155
-0.155
-0.145
-0.11
-0.075
-0.035
-0.045
-0.065
-0.11
-0.16
-0.175
-0.165
-0.14
-0.11
-0.075
-0.05
-0.04
-0.065
-0.105
-0.15
-0.155
-0.155
-0.125
-0.08
-0.045
-0.025
-0.03
-0.06
-0.085
-0.15
-0.135
-0.125
-0.11
-0.075
-0.035
-0.02
-0.04
-0.05
-0.085
-0.125
-0.115
-0.145
-0.095
-0.04
-0.01
-0.01
-0.02
-0.04
-0.075
-0.105
-0.12
-0.1
-0.075
-0.03
0.005
0.02
0.005
-0.015
-0.045
-0.075
-0.085
-0.06
-0.04
0.0
0.045
0.06
0.05
0.02
0.0
-0.035
-0.045
-0.025
0.01
0.045
0.08
0.12
0.105
0.08
0.06
0.04
0.035
0.06
0.09
0.14
0.165
0.175
0.175
0.16
0.11
0.08
0.075
0.085
0.115
0.175
0.21
0.215
0.195
0.17
0.13
0.095
0.085
0.1
0.12
0.155
0.175
0.17
0.135
0.095
0.045
0.015
-0.005
-0.01
0.0
0.04
0.06
0.05
0.025
-0.01
-0.075
-0.105
-0.105
-0.095
-0.08
-0.035
-0.025
-0.025
-0.05
-0.085
-0.14
-0.165
-0.165
-0.14
-0.125
-0.085
-0.065
-0.06
-0.08
-0.105
-0.165
-0.2
-0.195
-0.19
-0.135
-0.095
-0.085
-0.08
-0.09
-0.13
-0.175
-0.19
-0.205
-0.17
-0.13
-0.09
-0.075
-0.09
-0.11
-0.135
-0.17
-0.185
-0.205
-0.17
-0.11
-0.075
-0.06
-0.065
-0.09
-0.125
-0.19
-0.19
-0.175
-0.15
-0.11
-0.085
-0.08
-0.08
-0.1
-0.13
-0.155
-0.155
-0.185
-0.155
-0.11
-0.075
-0.065
-0.065
-0.08
-0.1
-0.17
-0.205
-0.19
-0.14
-0.09
-0.065
-0.05
-0.06
-0.08
-0.13
-0.165
-0.18
-0.165
-0.155
-0.11
-0.08
-0.055
-0.065
-0.07
-0.12
-0.16
-0.18
-0.165
-0.145
-0.095
-0.075
-0.075
-0.085
-0.105
-0.135
-0.15
-0.17
-0.195
-0.15
-0.1
-0.085
-0.07
-0.08
-0.115
-0.145
-0.19
-0.19
-0.17
-0.16
-0.08
-0.085
-0.065
-0.075
-0.1
-0.155
-0.185
-0.2
-0.18
-0.17
-0.105
-0.09
-0.075
-0.085
-0.115
-0.17
-0.185
-0.19
-0.165
-0.14
-0.09
-0.075
-0.08
-0.09
-0.13
-0.17
-0.195
-0.2
-0.19
-0.17
-0.11
-0.085
-0.095
-0.095
-0.12
-0.155
-0.19
-0.2
-0.18
-0.145
-0.12
-0.08
-0.085
-0.115
-0.13
-0.16
-0.19
-0.195
-0.165
-0.13
-0.095
-0.09
-0.09
-0.105
-0.13
-0.18
-0.2
-0.2
-0.17
-0.155
-0.095
-0.075
-0.075
-0.09
-0.125
-0.19
-0.215
-0.195
-0.175
-0.14
-0.09
-0.05
-0.065
-0.08
-0.115
-0.15
-0.165
-0.17
-0.15
-0.1
-0.07
-0.045
-0.035
-0.075
-0.115
-0.165
-0.165
-0.155
-0.115
-0.075
-0.03
-0.015
-0.015
-0.04
-0.08
-0.135
-0.135
-0.125
-0.11
-0.065
-0.025
-0.015
-0.035
-0.065
-0.115
-0.15
-0.175
-0.18
-0.155
-0.105
-0.075
-0.065
-0.08
-0.095
-0.145
-0.175
-0.185
-0.175
-0.16
-0.115
-0.09
-0.07
-0.085
-0.105
-0.135
-0.175
-0.185
-0.185
-0.17
-0.125
-0.09
-0.08
-0.08
-0.1
-0.14
-0.2
-0.2
-0.195
-0.165
-0.12
-0.085
-0.07
-0.085
-0.13
-0.155
-0.17
-0.205
-0.195
-0.15
-0.12
-0.095
-0.1
-0.14
-0.16
-0.2
-0.22
-0.185
-0.1
-0.005
0.09
0.185
0.265
0.325
0.415
0.495
0.575
0.61
0.64
0.62
0.6
0.545
0.465
0.335
0.18
-0.005
-0.145
-0.25
-0.255
-0.225
-0.18
-0.135
-0.125
-0.11
-0.095
-0.12
-0.145
-0.15
-0.14
-0.125
-0.075
-0.05
-0.055
-0.065
-0.105
-0.14
-0.165
-0.145
-0.135
-0.12
-0.065
-0.055
-0.045
-0.055
-0.08
-0.12
-0.14
-0.15
-0.12
-0.09
-0.045
-0.025
-0.03
-0.045
-0.075
-0.115
-0.125
-0.115
-0.11
-0.07
-0.02
-0.01
-0.01
-0.03
-0.055
-0.085
-0.095
-0.095
-0.08
-0.075
-0.02
0.0
0.015
-0.005
-0.035
-0.085
-0.085
-0.09
-0.065
-0.015
0.03
0.04
0.04
0.01
-0.01
-0.035
-0.05
-0.05
-0.02
0.01
0.05
0.085
0.085
0.07
0.04
0.0
0.0
0.015
0.04
0.095
0.13
0.16
0.15
0.125
0.08
0.07
0.07
0.075
0.11
0.16
0.195
0.21
0.22
0.19
0.165
0.12
0.095
0.125
0.15
0.19
0.235
0.245
0.245
0.23
0.17
0.125
0.105
0.1
0.12
0.17
0.19
0.185
0.175
0.16
0.1
0.06
0.02
0.035
0.04
0.06
0.075
0.065
0.04
0.02
-0.04
-0.06
-0.08
-0.07
-0.055
-0.015
-0.005
0.0
-0.025
-0.065
-0.11
-0.135
-0.145
-0.13
-0.115
-0.075
-0.05
-0.025
-0.065
-0.085
-0.115
-0.14
-0.17
-0.14
-0.125
-0.08
-0.065
-0.055
-0.075
-0.09
-0.145
-0.175
-0.165
-0.14
-0.14
-0.075
-0.055
-0.055
-0.075
-0.105
-0.145
-0.155
-0.155
-0.145
-0.105
-0.06
-0.04
-0.045
-0.08
-0.11
-0.14
-0.16
-0.16
-0.13
-0.11
-0.065
-0.04
-0.03
-0.055
-0.085
-0.135
-0.15
-0.155
-0.155
-0.095
-0.065
-0.025
-0.02
-0.055
-0.095
-0.14
-0.145
-0.145
-0.125
-0.095
-0.05
-0.025
-0.03
-0.055
-0.095
-0.13
-0.145
-0.145
-0.115
-0.1
-0.06
-0.05
-0.03
-0.055
-0.1
-0.13
-0.135
-0.135
-0.115
-0.075
-0.06
-0.04
-0.04
-0.065
-0.1
-0.145
-0.14
-0.155
-0.12
-0.085
-0.055
-0.045
-0.04
-0.07
-0.1
-0.145
-0.155
-0.17
-0.125
-0.085
-0.065
-0.05
-0.045
-0.08
-0.125
-0.15
-0.165
-0.16
-0.14
-0.085
-0.055
-0.05
-0.05
-0.08
-0.11
-0.155
-0.145
-0.15
-0.135
-0.09
-0.07
-0.05
-0.07
-0.08
-0.115
-0.16
-0.175
-0.155
-0.125
-0.06
-0.05
-0.06
-0.06
-0.08
-0.125
-0.15
-0.16
-0.15
-0.125
-0.09
-0.06
-0.055
-0.045
-0.065
-0.13
-0.155
-0.15
-0.125
-0.1
-0.06
-0.05
-0.04
-0.045
-0.06
-0.105
-0.125
-0.13
-0.12
-0.1
-0.045
-0.015
-0.015
-0.025
-0.06
-0.105
-0.115
-0.11
-0.085
-0.065
-0.02
-0.015
0.0
-0.005
-0.04
-0.075
-0.105
-0.125
-0.105
-0.065
-0.025
-0.02
-0.02
-0.055
-0.1
-0.14
-0.16
-0.17
-0.155
-0.115
-0.07
-0.07
-0.06
-0.085
-0.12
-0.175
-0.175
-0.19
-0.16
-0.125
-0.09
-0.075
-0.065
-0.085
-0.115
-0.16
-0.17
-0.175
-0.15
-0.12
-0.095
-0.08
-0.09
-0.08
-0.12
-0.17
-0.18
-0.195
-0.165
-0.125
-0.095
-0.075
-0.075
-0.1
-0.145
-0.195
-0.195
-0.215
-0.205
-0.175
-0.145
-0.125
-0.1
-0.09
-0.06
-0.03
0.0
0.07
0.17
0.305
0.445
0.585
0.685
0.695
0.675
0.59
0.515
0.435
0.335
0.255
0.18
0.045
-0.08
-0.185
-0.225
-0.25
-0.265
-0.245
-0.195
-0.11
-0.065
-0.035
-0.03
-0.05
-0.095
-0.13
-0.145
-0.14
-0.125
-0.075
-0.04
-0.035
-0.05
-0.065
-0.105
-0.115
-0.13
-0.125
-0.105
-0.06
-0.03
-0.02
-0.03
-0.07
-0.1
-0.11
-0.115
-0.125
-0.1
-0.05
-0.015
0.0
-0.005
-0.05
-0.095
-0.11
-0.11
-0.09
-0.07
-0.015
0.005
-0.005
-0.01
-0.025
-0.075
-0.095
-0.1
-0.08
-0.05
0.005
0.025
0.035
0.02
0.0
-0.035
-0.065
-0.075
-0.04
-0.02
0.03
0.04
0.055
0.05
0.02
-0.015
-0.025
-0.025
-0.01
0.035
0.095
0.11
0.105
0.09
0.065
0.045
0.02
0.025
0.07
0.105
0.155
0.19
0.19
0.17
0.15
0.105
0.09
0.105
0.13
0.155
0.205
0.23
0.245
0.21
0.18
0.13
0.125
0.13
0.14
0.185
0.225
0.23
0.23
0.205
0.165
0.115
0.1
0.075
0.095
0.12
0.15
0.14
0.13
0.1
0.055
0.005
-0.025
-0.03
-0.03
0.0
0.05
0.05
0.025
-0.015
-0.04
-0.08
-0.095
-0.12
-0.105
-0.06
-0.025
-0.02
-0.025
-0.06
-0.095
-0.13
-0.15
-0.15
-0.115
-0.075
-0.05
-0.04
-0.045
-0.1
-0.145
-0.165
-0.175
-0.17
-0.135
-0.095
-0.06
-0.05
-0.06
-0.08
-0.13
-0.155
-0.18
-0.17
-0.15
-0.085
-0.07
-0.05
-0.06
-0.11
-0.13
-0.15
-0.17
-0.155
-0.125
-0.08
-0.055
-0.035
-0.055
-0.08
-0.125
-0.145
-0.16
-0.145
-0.12
-0.085
-0.04
-0.035
-0.045
-0.075
-0.12
-0.145
-0.145
-0.14
-0.115
-0.075
-0.035
-0.04
-0.06
-0.08
-0.12
-0.15
-0.155
-0.145
-0.11
-0.06
-0.045
-0.04
-0.05
-0.065
-0.11
-0.15
-0.155
-0.145
-0.11
-0.08
-0.055
-0.04
-0.055
-0.085
-0.12
-0.15
-0.16
-0.15
-0.12
-0.065
-0.035
-0.035
-0.075
-0.08
-0.135
-0.16
-0.145
-0.125
-0.105
-0.065
-0.06
-0.055
-0.07
-0.105
-0.155
-0.16
-0.145
-0.145
-0.105
-0.06
-0.06
-0.045
-0.065
-0.105
-0.15
-0.165
-0.165
-0.135
-0.125
-0.055
-0.03
-0.045
-0.09
-0.12
-0.145
-0.17
-0.165
-0.14
-0.1
-0.065
-0.055
-0.055
-0.09
-0.11
-0.15
-0.15
-0.16
-0.135
-0.1
-0.075
-0.055
-0.06
-0.07
-0.11
-0.16
-0.16
-0.175
-0.16
-0.115
-0.055
-0.04
-0.065
-0.085
-0.125
-0.16
-0.15
-0.145
-0.13
-0.09
-0.07
-0.06
-0.075
-0.08
-0.115
-0.14
-0.15
-0.13
-0.095
-0.07
-0.045
-0.04
-0.045
-0.055
-0.115
-0.15
-0.14
-0.125
-0.1
-0.07
-0.03
-0.005
-0.025
-0.05
-0.095
-0.115
-0.1
-0.09
-0.08
-0.04
-0.02
0.015
0.01
-0.01
-0.075
-0.1
-0.12
-0.125
-0.1
-0.05
-0.025
-0.03
-0.055
-0.085
-0.14
-0.165
-0.18
-0.16
-0.15
-0.09
-0.045
-0.05
-0.06
-0.09
-0.13
-0.175
-0.185
-0.165
-0.13
-0.085
-0.06
-0.06
-0.075
-0.1
-0.155
-0.17
-0.185
-0.165
-0.12
-0.075
-0.065
-0.045
-0.095
-0.12
-0.155
-0.19
-0.185
-0.155
-0.13
-0.085
-0.07
-0.07
-0.105
-0.14
-0.18
-0.2
-0.23
-0.21
-0.175
-0.14
-0.1
-0.04
-0.005
0.01
0.035
0.08
0.145
0.235
0.39
0.55
0.68
0.745
0.72
0.645
0.545
0.47
0.385
0.315
0.24
0.135
0.025
-0.065
-0.14
-0.175
-0.195
-0.205
-0.2
-0.135
-0.095
-0.045
-0.02
-0.015
-0.05
-0.09
-0.125
-0.14
-0.14
-0.125
-0.08
-0.06
-0.03
-0.025
-0.07
-0.095
-0.135
-0.145
-0.13
-0.12
-0.065
-0.03
-0.02
-0.03
-0.055
-0.065
-0.115
-0.135
-0.12
-0.1
-0.06
-0.025
-0.025
-0.02
-0.025
-0.065
-0.12
-0.125
-0.12
-0.09
-0.045
-0.01
0.015
0.01
-0.02
-0.06
-0.095
-0.095
-0.09
-0.06
-0.02
-0.005
0.025
0.025
0.0
-0.05
-0.07
-0.07
-0.055
-0.02
0.03
0.035
0.035
0.045
0.025
-0.01
-0.045
-0.045
-0.03
0.0
0.055
0.08
0.09
0.105
0.075
0.025
0.025
0.025
0.045
0.08
0.135
0.165
0.175
0.16
0.135
0.095
0.105
0.11
0.125
0.15
0.205
0.24
0.235
0.22
0.19
0.15
0.12
0.12
0.14
0.165
0.2
0.225
0.23
0.215
0.175
0.13
0.095
0.06
0.08
0.085
0.125
0.155
0.14
0.1
0.07
0.01
-0.02
-0.03
-0.02
0.01
0.035
0.035
0.03
-0.01
-0.035
-0.085
-0.125
-0.12
-0.1
-0.09
-0.05
-0.035
-0.035
-0.055
-0.07
-0.13
-0.155
-0.15
-0.14
-0.115
-0.085
-0.055
-0.04
-0.075
-0.105
-0.155
-0.185
-0.18
-0.135
-0.115
-0.085
-0.065
-0.045
-0.09
-0.12
-0.155
-0.165
-0.16
-0.15
-0.11
-0.08
-0.065
-0.065
-0.085
-0.14
-0.16
-0.165
-0.175
-0.135
-0.08
-0.075
-0.05
-0.05
-0.08
-0.13
-0.165
-0.17
-0.165
-0.14
-0.095
-0.065
-0.05
-0.05
-0.085
-0.13
-0.16
-0.17
-0.15
-0.135
-0.08
-0.05
-0.05
-0.065
-0.075
-0.12
-0.14
-0.165
-0.165
-0.125
-0.075
-0.05
-0.06
-0.06
-0.08
-0.115
-0.145
-0.15
-0.135
-0.13
-0.09
-0.07
-0.07
-0.065
-0.07
-0.125
-0.165
-0.175
-0.17
-0.13
-0.09
-0.07
-0.065
-0.065
-0.1
-0.13
-0.15
-0.15
-0.155
-0.125
-0.115
-0.06
-0.065
-0.07
-0.09
-0.15
-0.16
-0.18
-0.17
-0.145
-0.09
-0.075
-0.07
-0.08
-0.1
-0.16
-0.195
-0.2
-0.17
-0.15
-0.1
-0.07
-0.065
-0.085
-0.11
-0.16
-0.185
-0.2
-0.15
-0.115
-0.09
-0.07
-0.06
-0.085
-0.11
-0.165
-0.19
-0.195
-0.165
-0.145
-0.09
-0.07
-0.06
-0.085
-0.11
-0.15
-0.16
-0.18
-0.16
-0.125
-0.075
-0.06
-0.08
-0.09
-0.11
-0.145
-0.145
-0.14
-0.12
-0.105
-0.08
-0.06
-0.055
-0.07
-0.1
-0.13
-0.16
-0.155
-0.12
-0.1
-0.07
-0.03
-0.025
-0.03
-0.065
-0.1
-0.11
-0.1
-0.09
-0.04
-0.015
0.005
0.01
-0.025
-0.06
-0.11
-0.115
-0.14
-0.115
-0.1
-0.06
-0.05
-0.055
-0.105
-0.135
-0.16
-0.17
-0.17
-0.145
-0.11
-0.08
-0.065
-0.075
-0.095
-0.125
-0.18
-0.195
-0.17
-0.145
-0.115
-0.08
-0.055
-0.08
-0.11
-0.16
-0.185
-0.195
-0.175
-0.155
-0.115
-0.1
-0.095
-0.09
-0.105
-0.155
-0.18
-0.19
-0.18
-0.165
-0.11
-0.095
-0.08
-0.105
-0.12
-0.175
-0.21
-0.23
-0.22
-0.2
-0.155
-0.14
-0.11
-0.06
-0.015
-0.02
0.0
0.06
0.13
0.24
0.365
0.55
0.69
0.74
0.7
0.605
0.525
0.455
0.38
0.295
0.23
0.125
-0.01
-0.135
-0.19
-0.235
-0.25
-0.225
-0.175
-0.14
-0.08
-0.06
-0.05
-0.045
-0.085
-0.13
-0.15
-0.17
-0.16
-0.12
-0.09
-0.06
-0.06
-0.075
-0.09
-0.135
-0.165
-0.165
-0.135
-0.11
-0.075
-0.04
-0.03
-0.05
-0.08
-0.135
-0.135
-0.135
-0.115
-0.09
-0.045
-0.03
-0.025
-0.045
-0.06
-0.105
-0.13
-0.13
-0.11
-0.06
-0.025
-0.005
0.0
-0.02
-0.055
-0.095
-0.125
-0.125
-0.09
-0.05
-0.01
0.015
0.005
-0.01
-0.04
-0.07
-0.075
-0.07
-0.02
-0.02
0.045
0.05
0.05
0.025
-0.01
-0.035
-0.045
-0.025
0.005
0.065
0.085
0.09
0.105
0.095
0.055
0.035
0.035
0.04
0.06
0.11
0.15
0.19
0.195
0.16
0.125
0.115
0.11
0.115
0.135
0.2
0.24
0.235
0.235
0.215
0.165
0.145
0.14
0.155
0.16
0.2
0.22
0.24
0.23
0.2
0.155
0.125
0.11
0.11
0.115
0.15
0.17
0.14
0.13
0.1
0.04
0.01
-0.015
-0.005
0.0
0.035
0.05
0.045
0.03
-0.005
-0.055
-0.08
-0.09
-0.085
-0.065
-0.025
-0.005
-0.005
-0.025
-0.05
-0.115
-0.13
-0.15
-0.135
-0.1
-0.04
-0.025
-0.02
-0.05
-0.065
-0.11
-0.145
-0.16
-0.155
-0.115
-0.08
-0.045
-0.04
-0.055
-0.085
-0.12
-0.16
-0.14
-0.125
-0.085
-0.05
-0.04
-0.03
-0.06
-0.085
-0.14
-0.155
-0.14
-0.1
-0.085
-0.045
-0.025
0.0
-0.04
-0.065
-0.115
-0.125
-0.14
-0.12
-0.07
-0.025
-0.015
-0.03
-0.045
-0.065
-0.115
-0.135
-0.145
-0.12
-0.08
-0.025
-0.015
-0.03
-0.055
-0.085
-0.11
-0.125
-0.125
-0.095
-0.06
-0.02
-0.015
-0.01
-0.035
-0.08
-0.12
-0.12
-0.115
-0.085
-0.055
-0.045
-0.015
-0.025
-0.05
-0.09
-0.14
-0.15
-0.135
-0.11
-0.065
-0.04
-0.03
-0.035
-0.055
-0.095
-0.135
-0.135
-0.135
-0.115
-0.065
-0.03
-0.025
-0.04
-0.05
-0.09
-0.13
-0.135
-0.13
-0.11
-0.06
-0.025
-0.02
-0.035
-0.07
-0.1
-0.13
-0.135
-0.125
-0.095
-0.065
-0.035
-0.03
-0.05
-0.07
-0.13
-0.15
-0.155
-0.145
-0.115
-0.065
-0.04
-0.025
-0.035
-0.075
-0.125
-0.135
-0.14
-0.125
-0.09
-0.045
-0.045
-0.035
-0.045
-0.075
-0.13
-0.14
-0.135
-0.135
-0.09
-0.055
-0.03
-0.03
-0.035
-0.065
-0.1
-0.125
-0.14
-0.11
-0.085
-0.045
-0.02
0.0
-0.01
-0.03
-0.085
-0.115
-0.115
-0.09
-0.06
0.005
0.025
0.025
0.015
-0.02
-0.08
-0.095
-0.095
-0.075
-0.035
0.01
0.025
0.035
0.005
-0.03
-0.09
-0.11
-0.125
-0.1
-0.07
-0.045
-0.025
-0.03
-0.05
-0.08
-0.115
-0.13
-0.145
-0.125
-0.08
-0.045
-0.025
-0.03
-0.055
-0.09
-0.13
-0.145
-0.15
-0.125
-0.085
-0.035
-0.035
-0.03
-0.085
-0.105
-0.145
-0.15
-0.165
-0.135
-0.095
-0.06
-0.035
-0.035
-0.065
-0.105
-0.145
-0.16
-0.155
-0.13
-0.09
-0.075
-0.055
-0.06
-0.085
-0.14
-0.185
-0.195
-0.195
-0.135
-0.045
0.04
0.105
0.17
0.205
0.24
0.3
0.4
0.535
0.645
0.695
0.705
0.69
0.645
0.51
0.365
0.22
0.09
-0.05
-0.145
-0.165
-0.13
-0.1
-0.11
-0.145
-0.15
-0.175
-0.14
-0.105
-0.065
-0.015
0.005
-0.005
-0.035
-0.055
-0.095
-0.11
-0.125
-0.12
-0.085
-0.02
-0.01
0.015
0.005
-0.015
-0.06
-0.085
-0.085
-0.085
-0.075
-0.015
0.02
0.035
0.015
-0.015
-0.065
-0.09
-0.085
-0.07
-0.045
0.01
0.02
0.025
0.02
-0.01
-0.055
-0.07
-0.075
-0.06
-0.03
0.025
0.045
0.035
0.04
0.025
-0.04
-0.05
-0.05
-0.03
0.0
0.035
0.07
0.085
0.09
0.045
-0.02
-0.025
-0.03
-0.015
0.035
0.07
0.1
0.1
0.09
0.075
0.035
0.03
0.015
0.03
0.065
0.13
0.155
0.165
0.165
0.145
0.095
0.08
0.085
0.12
0.155
0.215
0.245
0.255
0.225
0.205
0.165
0.145
0.15
0.195
0.24
0.265
0.28
0.28
0.255
0.235
0.205
0.17
0.165
0.185
0.22
0.25
0.255
0.235
0.205
0.17
0.12
0.09
0.085
0.095
0.115
0.13
0.165
0.155
0.1
0.07
0.015
-0.005
-0.015
-0.01
0.025
0.07
0.08
0.065
0.03
-0.03
-0.065
-0.065
-0.08
-0.055
-0.01
0.015
0.02
0.015
-0.025
-0.05
-0.085
-0.095
-0.095
-0.085
-0.045
0.0
0.01
-0.01
-0.05
-0.09
-0.1
-0.105
-0.09
-0.06
-0.025
0.015
0.0
-0.01
-0.035
-0.075
-0.115
-0.11
-0.11
-0.08
-0.03
0.0
0.01
-0.02
-0.035
-0.08
-0.09
-0.095
-0.095
-0.085
-0.045
-0.01
0.0
-0.005
-0.03
-0.075
-0.11
-0.13
-0.1
-0.065
-0.03
0.005
0.01
0.015
-0.02
-0.075
-0.095
-0.11
-0.105
-0.06
-0.015
-0.005
0.015
-0.03
-0.03
-0.07
-0.1
-0.125
-0.075
-0.05
-0.015
0.005
0.015
-0.005
-0.025
-0.075
-0.095
-0.12
-0.1
-0.065
-0.03
0.0
0.01
-0.02
-0.04
-0.075
-0.085
-0.105
-0.075
-0.055
-0.02
-0.005
0.0
-0.02
-0.045
-0.1
-0.115
-0.11
-0.1
-0.085
-0.025
-0.005
-0.005
-0.015
-0.06
-0.11
-0.135
-0.125
-0.09
-0.06
-0.02
-0.01
-0.01
-0.035
-0.065
-0.1
-0.13
-0.115
-0.09
-0.05
-0.01
0.005
-0.005
-0.035
-0.085
-0.115
-0.12
-0.105
-0.08
-0.045
0.0
0.02
0.005
-0.01
-0.055
-0.09
-0.11
-0.095
-0.08
-0.04
0.0
0.005
0.0
-0.02
-0.055
-0.065
-0.075
-0.065
-0.04
0.02
0.05
0.06
0.045
0.015
-0.025
-0.045
-0.06
-0.06
-0.05
0.0
0.015
0.02
0.025
-0.02
-0.075
-0.1
-0.11
-0.11
-0.095
-0.055
-0.04
-0.03
-0.035
-0.05
-0.1
-0.14
-0.135
-0.12
-0.1
-0.065
-0.025
-0.025
-0.04
-0.06
-0.11
-0.145
-0.155
-0.145
-0.12
-0.065
-0.05
-0.045
-0.05
-0.07
-0.115
-0.145
-0.14
-0.135
-0.12
-0.065
-0.04
-0.025
-0.05
-0.09
-0.14
-0.135
-0.17
-0.15
-0.12
-0.075
-0.06
-0.07
-0.115
-0.145
-0.17
-0.145
-0.11
-0.035
0.05
0.155
0.26
0.34
0.425
0.515
0.595
0.63
0.63
0.635
0.62
0.58
0.505
0.41
0.29
0.115
-0.065
-0.195
-0.24
-0.21
-0.17
-0.115
-0.08
-0.075
-0.075
-0.065
-0.11
-0.105
-0.105
-0.085
-0.06
-0.02
-0.015
-0.01
-0.04
-0.08
-0.09
-0.115
-0.125
-0.105
-0.045
-0.01
-0.005
0.0
-0.02
-0.05
-0.09
-0.095
-0.09
-0.075
-0.04
0.015
0.015
0.01
-0.005
-0.02
-0.055
-0.08
-0.085
-0.06
-0.02
0.015
0.03
0.03
0.005
-0.035
-0.065
-0.085
-0.075
-0.04
0.0
0.025
0.04
0.05
0.02
-0.015
-0.05
-0.05
-0.055
-0.025
0.025
0.065
0.09
0.075
0.05
0.015
-0.015
-0.025
-0.02
0.02
0.08
0.105
0.11
0.115
0.095
0.05
0.015
0.015
0.045
0.055
0.125
0.16
0.18
0.19
0.175
0.14
0.115
0.105
0.13
0.165
0.21
0.225
0.245
0.25
0.235
0.19
0.165
0.15
0.165
0.19
0.245
0.26
0.275
0.25
0.235
0.185
0.14
0.145
0.135
0.15
0.195
0.2
0.205
0.18
0.15
0.085
0.065
0.03
0.04
0.045
0.09
0.11
0.09
0.055
0.015
-0.025
-0.055
-0.07
-0.05
-0.025
0.02
0.04
0.035
0.0
-0.05
-0.1
-0.12
-0.14
-0.11
-0.075
-0.025
-0.015
-0.015
-0.035
-0.06
-0.125
-0.135
-0.13
-0.105
-0.065
-0.025
-0.015
-0.01
-0.04
-0.08
-0.1
-0.125
-0.13
-0.1
-0.07
-0.035
-0.035
-0.03
-0.05
-0.085
-0.11
-0.135
-0.115
-0.09
-0.065
-0.02
-0.01
-0.01
-0.03
-0.05
-0.085
-0.12
-0.125
-0.09
-0.06
-0.01
0.015
-0.01
-0.04
-0.05
-0.085
-0.11
-0.1
-0.08
-0.04
-0.005
0.005
0.0
-0.005
-0.045
-0.085
-0.11
-0.11
-0.07
-0.045
-0.005
0.01
0.015
0.0
-0.04
-0.085
-0.12
-0.11
-0.08
-0.035
-0.01
0.015
-0.005
-0.025
-0.07
-0.1
-0.125
-0.105
-0.07
-0.015
-0.005
0.01
0.005
-0.025
-0.08
-0.095
-0.105
-0.105
-0.105
-0.06
-0.02
-0.015
-0.02
-0.04
-0.09
-0.115
-0.125
-0.1
-0.085
-0.04
-0.01
0.0
-0.015
-0.055
-0.085
-0.105
-0.105
-0.105
-0.085
-0.03
-0.015
-0.005
-0.02
-0.045
-0.09
-0.11
-0.125
-0.11
-0.095
-0.04
-0.02
-0.01
-0.01
-0.05
-0.12
-0.13
-0.125
-0.11
-0.09
-0.04
-0.005
0.005
-0.01
-0.035
-0.08
-0.095
-0.095
-0.075
-0.05
-0.005
0.0
0.015
-0.02
-0.05
-0.085
-0.105
-0.1
-0.095
-0.065
-0.015
0.015
0.03
0.025
-0.005
-0.045
-0.08
-0.07
-0.05
-0.005
0.045
0.03
0.055
0.025
0.005
-0.045
-0.07
-0.08
-0.065
-0.05
0.0
0.015
0.005
-0.02
-0.04
-0.105
-0.13
-0.12
-0.1
-0.07
-0.045
-0.02
-0.01
-0.05
-0.07
-0.115
-0.125
-0.135
-0.11
-0.065
-0.04
-0.04
-0.04
-0.065
-0.105
-0.13
-0.145
-0.14
-0.11
-0.07
-0.035
-0.035
-0.02
-0.08
-0.09
-0.13
-0.135
-0.135
-0.11
-0.075
-0.035
-0.04
-0.035
-0.08
-0.125
-0.145
-0.16
-0.165
-0.145
-0.125
-0.065
-0.02
0.0
0.045
0.075
0.08
0.13
0.185
0.29
0.44
0.59
0.725
0.76
0.745
0.65
0.555
0.485
0.415
0.335
0.275
0.16
0.045
-0.035
-0.11
-0.15
-0.17
-0.155
-0.115
-0.08
-0.025
0.005
0.03
0.02
-0.01
-0.065
-0.09
-0.105
-0.085
-0.055
-0.015
0.005
0.02
0.0
-0.02
-0.065
-0.085
-0.105
-0.08
-0.05
-0.01
0.025
0.025
0.005
-0.01
-0.055
-0.08
-0.08
-0.07
-0.025
0.025
0.025
0.025
0.025
0.005
-0.05
-0.055
-0.065
-0.055
-0.025
0.02
0.06
0.06
0.035
0.015
-0.03
-0.045
-0.055
-0.03
0.01
0.07
0.085
0.085
0.065
0.025
-0.01
-0.02
-0.01
0.01
0.04
0.085
0.1
0.105
0.09
0.09
0.035
0.02
0.02
0.03
0.08
0.125
0.145
0.16
0.155
0.13
0.09
0.08
0.08
0.105
0.155
0.205
0.235
0.245
0.225
0.205
0.165
0.155
0.155
0.185
0.205
0.25
0.285
0.295
0.27
0.245
0.195
0.16
0.16
0.205
0.25
0.27
0.27
0.275
0.25
0.2
0.15
0.135
0.11
0.12
0.155
0.19
0.185
0.175
0.155
0.09
0.045
0.015
0.015
0.025
0.05
0.075
0.09
0.075
0.025
-0.01
-0.05
-0.06
-0.05
-0.045
-0.01
0.02
0.03
0.02
-0.025
-0.075
-0.095
-0.105
-0.1
-0.065
-0.025
0.005
0.015
0.0
-0.03
-0.08
-0.105
-0.115
-0.1
-0.08
-0.025
-0.01
0.005
-0.005
-0.05
-0.085
-0.1
-0.11
-0.09
-0.08
-0.04
-0.005
-0.005
-0.02
-0.045
-0.105
-0.11
-0.115
-0.1
-0.075
-0.04
-0.01
0.0
-0.005
-0.025
-0.085
-0.095
-0.115
-0.095
-0.06
-0.015
0.0
0.015
-0.005
-0.025
-0.085
-0.105
-0.105
-0.085
-0.065
-0.005
0.03
0.01
-0.015
-0.045
-0.09
-0.11
-0.105
-0.09
-0.055
-0.01
0.0
0.005
-0.015
-0.04
-0.065
-0.09
-0.11
-0.09
-0.06
-0.015
0.01
0.01
-0.005
-0.045
-0.075
-0.105
-0.105
-0.1
-0.075
-0.025
-0.02
-0.01
-0.015
-0.06
-0.09
-0.12
-0.125
-0.085
-0.065
-0.035
-0.02
-0.015
-0.025
-0.075
-0.085
-0.1
-0.11
-0.09
-0.045
-0.02
-0.005
0.005
-0.02
-0.065
-0.115
-0.135
-0.125
-0.08
-0.045
-0.03
-0.015
0.0
-0.04
-0.08
-0.12
-0.115
-0.115
-0.095
-0.06
-0.015
-0.01
-0.005
-0.035
-0.07
-0.095
-0.105
-0.095
-0.075
-0.03
0.005
0.025
0.005
-0.025
-0.065
-0.065
-0.1
-0.085
-0.065
-0.01
0.02
0.03
0.03
0.015
-0.02
-0.06
-0.075
-0.07
-0.045
0.02
0.06
0.065
0.04
0.025
-0.025
-0.065
-0.09
-0.09
-0.055
-0.01
0.01
0.015
-0.015
-0.045
-0.095
-0.115
-0.125
-0.115
-0.1
-0.04
-0.02
-0.015
-0.03
-0.065
-0.115
-0.13
-0.145
-0.13
-0.09
-0.045
-0.035
-0.02
-0.025
-0.06
-0.105
-0.125
-0.15
-0.135
-0.085
-0.035
-0.03
-0.02
-0.035
-0.075
-0.125
-0.14
-0.14
-0.125
-0.1
-0.055
-0.03
-0.035
-0.065
-0.095
-0.14
-0.155
-0.17
-0.165
-0.14
-0.075
-0.055
0.01
0.065
0.09
0.095
0.145
0.205
0.325
0.455
0.63
0.755
0.775
0.76
0.68
0.57
0.48
0.385
0.295
0.2
0.12
0.01
-0.065
-0.11
-0.13
-0.15
-0.16
-0.135
-0.085
-0.035
0.01
0.02
0.01
-0.02
-0.055
-0.095
-0.11
-0.105
-0.075
-0.04
-0.005
0.0
0.005
-0.015
-0.065
-0.085
-0.095
-0.09
-0.08
-0.035
0.005
0.02
0.015
-0.005
-0.055
-0.085
-0.085
-0.075
-0.055
-0.02
0.02
0.03
0.04
0.005
-0.04
-0.065
-0.06
-0.065
-0.035
0.01
0.04
0.055
0.05
0.03
-0.025
-0.045
-0.05
-0.03
0.005
0.04
0.065
0.06
0.06
0.055
0.025
-0.01
-0.02
0.005
0.0
0.05
0.09
0.105
0.09
0.09
0.035
0.025
0.02
0.035
0.065
0.11
0.15
0.17
0.17
0.155
0.1
0.085
0.08
0.095
0.135
0.185
0.215
0.235
0.245
0.23
0.175
0.15
0.15
0.16
0.185
0.24
0.265
0.29
0.295
0.26
0.195
0.175
0.18
0.2
0.225
0.275
0.28
0.275
0.26
0.215
0.16
0.13
0.11
0.115
0.145
0.17
0.18
0.17
0.145
0.1
0.045
0.015
0.01
0.015
0.025
0.06
0.07
0.075
0.04
-0.005
-0.035
-0.06
-0.07
-0.07
-0.03
0.015
0.015
0.01
-0.005
-0.035
-0.07
-0.105
-0.125
-0.09
-0.055
-0.015
0.0
-0.005
-0.01
-0.06
-0.095
-0.1
-0.1
-0.075
-0.065
-0.035
-0.005
0.0
-0.025
-0.06
-0.1
-0.115
-0.125
-0.095
-0.04
-0.005
0.02
0.01
-0.04
-0.075
-0.08
-0.11
-0.105
-0.09
-0.035
-0.01
0.015
0.01
-0.03
-0.065
-0.095
-0.095
-0.095
-0.07
-0.03
0.015
0.02
0.0
-0.02
-0.055
-0.075
-0.1
-0.1
-0.07
-0.025
0.005
0.04
0.015
-0.01
-0.06
-0.095
-0.12
-0.095
-0.065
-0.025
0.01
0.01
0.005
-0.02
-0.04
-0.08
-0.1
-0.085
-0.06
-0.02
0.015
0.0
0.0
-0.03
-0.06
-0.085
-0.11
-0.095
-0.07
-0.025
0.0
0.015
-0.005
-0.025
-0.07
-0.08
-0.1
-0.09
-0.08
-0.03
0.0
0.01
0.005
-0.03
-0.085
-0.11
-0.105
-0.08
-0.04
-0.02
0.01
0.005
-0.02
-0.055
-0.105
-0.1
-0.11
-0.11
-0.07
-0.03
0.0
-0.005
-0.045
-0.06
-0.095
-0.12
-0.12
-0.105
-0.085
-0.03
-0.005
0.0
-0.015
-0.05
-0.095
-0.11
-0.13
-0.1
-0.06
0.0
-0.01
-0.005
-0.015
-0.04
-0.085
-0.11
-0.1
-0.09
-0.06
0.005
0.025
0.03
-0.005
-0.045
-0.075
-0.08
-0.08
-0.06
-0.01
0.015
0.035
0.045
0.035
0.01
-0.03
-0.045
-0.07
-0.045
0.005
0.03
0.045
0.05
0.025
-0.02
-0.055
-0.09
-0.09
-0.075
-0.045
-0.015
0.0
0.005
-0.025
-0.07
-0.095
-0.115
-0.12
-0.08
-0.05
-0.025
-0.015
-0.025
-0.045
-0.075
-0.115
-0.125
-0.125
-0.105
-0.06
-0.015
-0.005
-0.035
-0.065
-0.11
-0.135
-0.15
-0.135
-0.12
-0.08
-0.035
-0.015
-0.02
-0.03
-0.095
-0.125
-0.125
-0.13
-0.12
-0.075
-0.055
-0.04
-0.05
-0.09
-0.13
-0.175
-0.195
-0.165
-0.125
-0.04
0.06
0.145
0.185
0.235
0.255
0.315
0.41
0.57
0.68
0.715
0.75
0.705
0.64
0.51
0.375
0.225
0.08
-0.045
-0.115
-0.14
-0.125
-0.1
-0.105
-0.11
-0.15
-0.13
-0.105
-0.08
-0.045
-0.015
-0.01
0.005
-0.005
-0.02
-0.08
-0.105
-0.115
-0.1
-0.065
-0.015
0.02
0.025
0.0
-0.02
-0.07
-0.085
-0.085
-0.07
-0.045
-0.005
0.005
0.01
0.01
0.0
-0.05
-0.075
-0.065
-0.055
-0.04
0.035
0.075
0.05
0.03
0.0
-0.04
-0.045
-0.05
-0.035
0.0
0.04
0.065
0.065
0.045
0.005
-0.03
-0.01
-0.04
-0.02
0.01
0.05
0.07
0.075
0.065
0.055
0.005
-0.02
-0.005
0.01
0.04
0.1
0.115
0.135
0.11
0.065
0.045
0.03
0.05
0.075
0.12
0.175
0.205
0.215
0.16
0.125
0.095
0.11
0.11
0.16
0.19
0.235
0.255
0.265
0.24
0.195
0.18
0.16
0.165
0.2
0.23
0.26
0.275
0.28
0.255
0.215
0.175
0.17
0.17
0.2
0.24
0.25
0.245
0.245
0.205
0.15
0.105
0.09
0.095
0.105
0.15
0.14
0.14
0.125
0.08
0.03
0.0
-0.025
0.0
0.0
0.045
0.045
0.065
0.035
0.0
-0.025
-0.065
-0.085
-0.08
-0.075
-0.025
0.0
0.0
-0.02
-0.03
-0.085
-0.09
-0.12
-0.105
-0.075
-0.035
-0.02
-0.015
-0.015
-0.045
-0.105
-0.115
-0.125
-0.115
-0.07
-0.03
-0.015
0.005
-0.01
-0.04
-0.105
-0.12
-0.13
-0.12
-0.085
-0.03
-0.015
-0.02
-0.015
-0.035
-0.09
-0.105
-0.12
-0.1
-0.075
-0.015
0.005
0.015
-0.015
-0.05
-0.095
-0.105
-0.12
-0.085
-0.055
-0.025
0.0
0.01
0.0
-0.03
-0.09
-0.11
-0.09
-0.085
-0.055
0.01
-0.005
0.01
0.005
-0.03
-0.085
-0.08
-0.07
-0.065
-0.045
-0.005
0.015
0.01
-0.02
-0.045
-0.08
-0.105
-0.085
-0.075
-0.025
-0.01
0.0
0.01
-0.01
-0.05
-0.095
-0.1
-0.11
-0.085
-0.05
-0.01
0.01
0.005
-0.025
-0.055
-0.075
-0.09
-0.095
-0.075
-0.045
-0.01
0.01
0.01
-0.015
-0.07
-0.095
-0.11
-0.1
-0.08
-0.04
0.0
0.0
-0.01
-0.03
-0.065
-0.075
-0.16
-0.12
-0.075
-0.04
-0.015
0.0
-0.01
-0.03
-0.08
-0.105
-0.11
-0.09
-0.065
0.0
0.02
0.02
0.005
-0.01
-0.055
-0.08
-0.08
-0.085
-0.06
-0.025
0.005
0.035
0.025
0.01
-0.02
-0.04
-0.055
-0.045
-0.025
0.02
0.05
0.06
0.04
0.01
-0.025
-0.06
-0.065
-0.06
-0.06
0.005
0.04
0.025
0.005
-0.025
-0.09
-0.1
-0.115
-0.095
-0.085
-0.04
-0.015
-0.005
-0.025
-0.05
-0.1
-0.11
-0.125
-0.11
-0.085
-0.035
-0.02
-0.015
-0.055
-0.065
-0.1
-0.12
-0.115
-0.115
-0.085
-0.035
-0.02
-0.02
-0.035
-0.055
-0.11
-0.135
-0.14
-0.115
-0.085
-0.025
-0.01
-0.015
-0.04
-0.08
-0.13
-0.15
-0.155
-0.145
-0.12
-0.09
-0.09
-0.085
-0.055
-0.055
-0.035
0.0
0.04
0.14
0.27
0.405
0.515
0.655
0.72
0.695
0.675
0.605
0.555
0.49
0.43
0.345
0.24
0.095
-0.05
-0.16
-0.21
-0.2
-0.19
-0.155
-0.1
-0.045
-0.005
0.015
-0.005
-0.04
-0.07
-0.095
-0.12
-0.075
-0.03
0.005
0.01
0.005
-0.02
-0.05
-0.085
-0.095
-0.09
-0.075
-0.015
0.02
0.025
0.02
0.005
-0.02
-0.07
-0.075
-0.065
-0.04
-0.005
0.03
0.04
0.055
0.025
-0.025
-0.055
-0.05
-0.04
0.0
0.04
0.06
0.055
0.05
0.015
-0.025
-0.045
-0.05
-0.035
-0.01
0.045
0.075
0.065
0.055
0.04
0.01
-0.025
-0.03
-0.015
0.025
0.075
0.11
0.13
0.105
0.1
0.055
0.02
0.025
0.035
0.065
0.115
0.16
0.185
0.165
0.15
0.1
0.085
0.055
0.09
0.135
0.195
0.225
0.235
0.215
0.215
0.175
0.155
0.15
0.165
0.2
0.255
0.28
0.295
0.29
0.25
0.2
0.18
0.185
0.19
0.22
0.275
0.3
0.295
0.27
0.225
0.185
0.16
0.145
0.155
0.18
0.195
0.2
0.22
0.17
0.12
0.065
0.04
0.025
0.035
0.075
0.09
0.08
0.1
0.07
0.045
-0.01
-0.035
-0.04
-0.035
-0.015
0.03
0.035
0.045
0.015
-0.02
-0.07
-0.085
-0.08
-0.05
-0.035
0.0
0.02
0.03
0.015
-0.05
-0.08
-0.095
-0.095
-0.07
-0.035
-0.005
0.03
0.01
-0.01
-0.045
-0.075
-0.085
-0.085
-0.06
-0.025
0.01
0.045
0.025
-0.01
-0.055
-0.1
-0.09
-0.085
-0.065
-0.025
0.015
0.04
0.04
0.015
-0.035
-0.07
-0.09
-0.075
-0.05
-0.005
0.025
0.045
0.035
0.02
-0.04
-0.075
-0.07
-0.065
-0.035
0.01
0.03
0.04
0.035
0.02
-0.03
-0.06
-0.065
-0.06
-0.035
0.005
0.02
0.03
0.025
0.01
-0.04
-0.075
-0.075
-0.055
-0.045
0.01
0.01
0.03
0.01
-0.015
-0.055
-0.085
-0.095
-0.075
-0.05
-0.005
0.025
0.02
0.01
-0.02
-0.075
-0.09
-0.095
-0.075
-0.06
0.0
0.02
0.015
0.01
-0.01
-0.065
-0.105
-0.12
-0.085
-0.05
0.005
0.015
0.02
0.015
-0.03
-0.065
-0.08
-0.09
-0.07
-0.06
0.0
0.01
0.0
-0.01
-0.035
-0.075
-0.1
-0.095
-0.065
-0.045
-0.005
-0.005
0.01
-0.025
-0.05
-0.09
-0.11
-0.11
-0.085
-0.045
-0.005
0.015
0.02
-0.02
-0.045
-0.06
-0.1
-0.07
-0.03
-0.015
0.035
0.045
0.035
0.01
-0.04
-0.08
-0.095
-0.105
-0.065
-0.015
0.015
0.055
0.065
0.04
0.0
-0.025
-0.045
-0.045
-0.02
0.02
0.05
0.065
0.065
0.045
-0.01
-0.03
-0.06
-0.06
-0.035
-0.005
0.02
0.015
0.025
0.005
-0.055
-0.095
-0.115
-0.115
-0.09
-0.025
0.0
0.01
0.005
-0.03
-0.07
-0.095
-0.105
-0.095
-0.08
-0.05
-0.01
-0.005
-0.01
-0.03
-0.075
-0.105
-0.11
-0.1
-0.08
-0.035
-0.015
-0.005
-0.01
-0.035
-0.07
-0.095
-0.11
-0.105
-0.07
-0.025
-0.005
0.0
-0.025
-0.085
-0.11
-0.11
-0.13
-0.14
-0.13
-0.085
-0.04
-0.01
0.03
0.06
0.08
0.105
0.17
0.23
0.325
0.485
0.625
0.75
0.765
0.73
0.665
0.6
0.52
0.46
0.385
0.335
0.215
0.095
-0.035
-0.11
-0.135
-0.155
-0.15
-0.1
-0.05
0.035
0.04
0.045
0.03
0.0
-0.065
-0.085
-0.09
-0.065
-0.04
0.01
0.025
0.025
0.0
-0.01
-0.04
-0.085
-0.075
-0.025
-0.02
0.025
0.05
0.05
0.015
0.0
-0.04
-0.05
-0.065
-0.06
-0.01
0.04
0.055
0.07
0.035
0.03
-0.02
-0.035
-0.055
-0.02
0.005
0.045
0.085
0.075
0.055
0.025
-0.01
-0.03
-0.03
0.0
0.045
0.085
0.105
0.095
0.065
0.03
0.015
-0.01
0.0
0.03
0.065
0.105
0.125
0.125
0.105
0.085
0.04
0.015
0.04
0.065
0.11
0.14
0.17
0.17
0.17
0.145
0.1
0.095
0.12
0.135
0.18
0.23
0.245
0.26
0.23
0.19
0.165
0.145
0.17
0.21
0.265
0.295
0.29
0.285
0.275
0.235
0.21
0.18
0.2
0.22
0.26
0.29
0.32
0.295
0.255
0.21
0.165
0.15
0.145
0.165
0.22
0.21
0.205
0.185
0.165
0.1
0.055
0.03
0.04
0.055
0.09
0.095
0.11
0.1
0.07
-0.005
-0.035
-0.04
-0.035
-0.015
0.025
0.035
0.055
0.03
0.0
-0.035
-0.065
-0.085
-0.085
-0.055
0.01
0.025
0.035
0.02
-0.015
-0.06
-0.075
-0.11
-0.065
-0.045
0.005
0.015
0.015
0.015
-0.045
-0.1
-0.095
-0.09
-0.07
-0.05
-0.01
0.01
0.025
0.0
-0.035
-0.08
-0.09
-0.105
-0.075
-0.04
0.0
0.005
0.01
-0.005
-0.02
-0.06
-0.1
-0.08
-0.065
-0.03
0.01
0.035
0.04
0.0
-0.03
-0.095
-0.08
-0.07
-0.055
-0.015
0.02
0.03
0.025
0.015
-0.025
-0.065
-0.09
-0.085
-0.05
-0.015
0.015
0.025
0.04
0.0
-0.04
-0.065
-0.07
-0.075
-0.05
-0.02
0.03
0.025
0.005
-0.005
-0.03
-0.085
-0.1
-0.09
-0.06
-0.02
0.0
0.005
0.01
-0.005
-0.04
-0.08
-0.095
-0.095
-0.07
-0.03
0.015
0.025
0.02
-0.015
-0.065
-0.065
-0.095
-0.085
-0.055
-0.02
0.015
-0.005
0.005
-0.02
-0.055
-0.09
-0.11
-0.105
-0.09
-0.03
0.005
0.015
0.005
-0.035
-0.08
-0.09
-0.095
-0.1
-0.075
-0.005
0.0
0.0
0.005
-0.02
-0.07
-0.09
-0.1
-0.085
-0.06
-0.025
0.005
0.01
0.01
-0.01
-0.065
-0.075
-0.075
-0.065
-0.05
-0.01
0.005
0.02
0.015
-0.005
-0.06
-0.065
-0.07
-0.075
-0.06
-0.01
0.04
0.05
0.035
0.005
-0.04
-0.055
-0.045
-0.03
-0.01
0.025
0.065
0.085
0.055
0.025
-0.03
-0.06
-0.095
-0.095
-0.04
0.01
0.015
0.01
-0.01
-0.045
-0.09
-0.115
-0.115
-0.11
-0.07
-0.025
0.005
-0.005
-0.025
-0.06
-0.115
-0.11
-0.115
-0.09
-0.07
-0.03
-0.015
-0.02
-0.04
-0.065
-0.11
-0.13
-0.125
-0.11
-0.065
-0.025
-0.01
-0.01
-0.04
-0.08
-0.11
-0.115
-0.125
-0.105
-0.065
-0.035
-0.03
-0.02
-0.05
-0.1
-0.16
-0.16
-0.16
-0.15
-0.12
-0.08
-0.06
-0.01
0.03
0.055
0.07
0.115
0.19
0.285
0.435
0.595
0.73
0.8
0.76
0.695
0.61
0.54
0.445
0.37
0.3
0.195
0.075
-0.02
-0.105
-0.14
-0.155
-0.145
-0.14
-0.09
-0.02
0.02
0.04
0.025
-0.01
-0.05
-0.09
-0.11
-0.1
-0.075
-0.03
-0.005
0.01
-0.005
-0.015
-0.07
-0.09
-0.09
-0.07
-0.06
-0.005
0.015
0.015
0.01
-0.005
-0.05
-0.075
-0.09
-0.07
-0.045
0.01
0.035
0.035
0.035
0.01
-0.035
-0.07
-0.08
-0.05
-0.02
0.025
0.055
0.045
0.04
0.02
-0.02
-0.045
-0.05
-0.035
-0.01
0.055
0.07
0.08
0.065
0.03
-0.02
-0.03
-0.045
-0.005
0.025
0.07
0.105
0.115
0.085
0.07
0.035
0.01
0.02
0.04
0.075
0.12
0.155
0.16
0.145
0.115
0.075
0.06
0.07
0.105
0.14
0.19
0.215
0.235
0.23
0.21
0.15
0.15
0.15
0.18
0.21
0.265
0.29
0.29
0.27
0.23
0.19
0.175
0.175
0.2
0.23
0.265
0.285
0.275
0.245
0.215
0.165
0.155
0.135
0.145
0.18
0.195
0.21
0.19
0.14
0.095
0.065
0.055
0.015
0.04
0.065
0.065
0.08
0.095
0.055
0.0
-0.035
-0.04
-0.045
-0.04
-0.01
0.025
0.03
0.03
0.01
-0.045
-0.085
-0.1
-0.1
-0.075
-0.035
-0.01
0.01
0.015
-0.015
-0.055
-0.09
-0.105
-0.095
-0.09
-0.05
0.0
0.0
0.01
-0.025
-0.07
-0.095
-0.115
-0.1
-0.09
-0.035
-0.015
-0.005
-0.01
-0.035
-0.07
-0.13
-0.12
-0.085
-0.07
-0.02
0.015
0.015
-0.005
-0.025
-0.05
-0.095
-0.1
-0.09
-0.06
-0.02
0.01
0.02
0.025
-0.03
-0.085
-0.105
-0.095
-0.085
-0.055
-0.005
0.025
0.015
0.005
-0.03
-0.065
-0.08
-0.095
-0.065
-0.045
0.0
0.025
0.015
0.0
-0.035
-0.075
-0.09
-0.08
-0.06
-0.03
-0.02
0.0
0.015
0.0
-0.03
-0.055
-0.095
-0.095
-0.065
-0.045
0.005
0.005
0.025
0.005
-0.03
-0.085
-0.1
-0.095
-0.09
-0.055
0.0
0.02
0.015
-0.01
-0.03
-0.08
-0.085
-0.1
-0.08
-0.04
0.0
-0.015
0.005
-0.015
-0.05
-0.08
-0.1
-0.105
-0.085
-0.04
0.0
-0.005
0.005
-0.015
-0.045
-0.07
-0.105
-0.11
-0.085
-0.04
-0.01
0.0
0.0
-0.015
-0.045
-0.085
-0.105
-0.11
-0.07
-0.03
-0.02
-0.01
-0.01
-0.02
-0.06
-0.115
-0.115
-0.095
-0.07
-0.04
-0.01
-0.005
0.01
-0.01
-0.05
-0.085
-0.1
-0.105
-0.075
-0.02
0.025
0.04
0.02
-0.025
-0.055
-0.07
-0.065
-0.065
-0.035
-0.005
0.035
0.035
0.015
-0.005
-0.04
-0.05
-0.07
-0.05
-0.025
0.03
0.06
0.08
0.05
0.03
-0.03
-0.045
-0.035
-0.035
-0.02
0.02
0.045
0.045
0.015
-0.005
-0.05
-0.08
-0.105
-0.095
-0.05
-0.015
-0.005
-0.005
-0.02
-0.035
-0.1
-0.105
-0.115
-0.11
-0.095
-0.02
-0.01
-0.015
-0.015
-0.04
-0.09
-0.12
-0.12
-0.11
-0.105
-0.03
-0.005
0.005
-0.01
-0.045
-0.09
-0.115
-0.125
-0.1
-0.07
-0.02
-0.02
-0.015
-0.015
-0.05
-0.105
-0.135
-0.14
-0.13
-0.1
-0.045
-0.04
-0.045
-0.07
-0.09
-0.12
-0.095
-0.05
0.025
0.14
0.235
0.32
0.405
0.505
0.59
0.65
0.65
0.665
0.65
0.61
0.565
0.485
0.375
0.235
0.07
-0.09
-0.19
-0.21
-0.165
-0.125
-0.075
-0.03
-0.01
-0.005
-0.035
-0.085
-0.09
-0.085
-0.065
-0.035
0.01
0.01
0.025
-0.005
-0.045
-0.08
-0.08
-0.08
-0.065
-0.025
0.02
0.04
0.03
0.015
-0.025
-0.065
-0.075
-0.07
-0.045
-0.005
0.03
0.04
0.04
0.005
-0.02
-0.035
-0.065
-0.06
-0.035
0.02
0.045
0.05
0.045
0.01
-0.01
-0.04
-0.055
-0.045
-0.015
0.035
0.065
0.07
0.065
0.055
0.02
-0.025
-0.015
-0.025
-0.005
0.05
0.095
0.1
0.1
0.065
0.015
0.02
0.0
0.01
0.045
0.105
0.135
0.145
0.13
0.11
0.07
0.06
0.045
0.075
0.115
0.165
0.205
0.215
0.22
0.19
0.145
0.125
0.105
0.135
0.17
0.215
0.26
0.255
0.25
0.23
0.19
0.17
0.18
0.175
0.205
0.25
0.285
0.29
0.275
0.24
0.17
0.15
0.135
0.16
0.175
0.215
0.24
0.215
0.195
0.16
0.115
0.07
0.055
0.055
0.08
0.11
0.11
0.09
0.085
0.04
-0.005
-0.035
-0.05
-0.035
0.0
0.04
0.05
0.03
0.005
-0.04
-0.06
-0.1
-0.1
-0.075
-0.035
0.005
0.025
0.015
0.005
-0.04
-0.09
-0.12
-0.11
-0.115
-0.065
-0.015
0.005
0.005
-0.03
-0.065
-0.11
-0.115
-0.115
-0.085
-0.05
-0.025
0.0
0.005
-0.045
-0.075
-0.1
-0.115
-0.11
-0.075
-0.055
-0.015
-0.015
-0.02
-0.025
-0.06
-0.105
-0.115
-0.11
-0.075
-0.035
-0.005
0.02
0.0
-0.03
-0.075
-0.095
-0.1
-0.1
-0.075
-0.035
-0.01
0.0
-0.015
-0.025
-0.075
-0.09
-0.105
-0.1
-0.085
-0.015
0.005
0.02
-0.005
-0.025
-0.065
-0.09
-0.1
-0.09
-0.075
-0.03
-0.015
-0.02
-0.005
-0.035
-0.09
-0.085
-0.09
-0.09
-0.08
-0.045
-0.01
-0.005
-0.01
-0.04
-0.1
-0.14
-0.145
-0.12
-0.085
-0.03
-0.015
-0.015
-0.015
-0.055
-0.105
-0.135
-0.14
-0.125
-0.09
-0.04
-0.02
-0.015
-0.035
-0.06
-0.105
-0.135
-0.135
-0.125
-0.095
-0.04
-0.025
-0.03
-0.03
-0.065
-0.11
-0.125
-0.145
-0.115
-0.085
-0.05
-0.035
-0.05
-0.06
-0.07
-0.135
-0.135
-0.13
-0.125
-0.085
-0.02
-0.005
-0.005
-0.02
-0.05
-0.105
-0.125
-0.12
-0.1
-0.055
-0.03
0.01
0.005
-0.015
-0.05
-0.095
-0.1
-0.085
-0.045
-0.04
0.005
0.005
0.025
0.02
-0.03
-0.055
-0.085
-0.08
-0.055
-0.02
0.015
0.015
0.005
-0.005
-0.06
-0.11
-0.135
-0.135
-0.1
-0.075
-0.045
-0.025
-0.025
-0.06
-0.1
-0.145
-0.145
-0.14
-0.105
-0.08
-0.07
-0.05
-0.035
-0.06
-0.12
-0.16
-0.165
-0.13
-0.12
-0.075
-0.055
-0.045
-0.04
-0.075
-0.12
-0.15
-0.155
-0.155
-0.13
-0.09
-0.065
-0.055
-0.055
-0.08
-0.115
-0.155
-0.175
-0.155
-0.125
-0.095
-0.075
-0.07
-0.08
-0.11
-0.175
-0.2
-0.205
-0.165
-0.095
0.015
0.11
0.18
0.235
0.295
0.345
0.41
0.535
0.605
0.615
0.685
0.66
0.57
0.485
0.36
0.205
0.055
-0.085
-0.19
-0.21
-0.16
-0.12
-0.115
-0.125
-0.14
-0.14
-0.145
-0.135
-0.11
-0.085
-0.025
-0.03
-0.03
-0.05
-0.06
-0.1
-0.125
-0.125
-0.11
-0.1
-0.045
-0.02
-0.025
-0.04
-0.055
-0.085
-0.13
-0.11
-0.1
-0.065
-0.015
0.005
0.005
-0.015
-0.04
-0.095
-0.12
-0.105
-0.085
-0.055
-0.01
0.005
0.025
-0.015
-0.025
-0.065
-0.08
-0.095
-0.065
-0.03
0.035
0.02
0.03
-0.01
-0.01
-0.055
-0.07
-0.08
-0.04
-0.005
0.04
0.065
0.055
0.045
0.01
-0.02
-0.035
-0.045
-0.01
0.05
0.075
0.09
0.1
0.08
0.025
0.0
0.005
0.015
0.045
0.085
0.135
0.15
0.17
0.16
0.125
0.06
0.08
0.08
0.12
0.17
0.205
0.235
0.21
0.195
0.155
0.14
0.12
0.13
0.17
0.21
0.245
0.255
0.24
0.215
0.175
0.13
0.115
0.135
0.155
0.185
0.215
0.215
0.2
0.16
0.11
0.075
0.055
0.05
0.05
0.07
0.09
0.105
0.09
0.035
-0.02
-0.055
-0.065
-0.07
-0.05
-0.01
0.025
0.02
-0.01
-0.025
-0.07
-0.095
-0.115
-0.11
-0.1
-0.05
-0.03
-0.03
-0.025
-0.05
-0.09
-0.12
-0.13
-0.125
-0.125
-0.055
-0.04
-0.03
-0.05
-0.09
-0.14
-0.15
-0.165
-0.135
-0.12
-0.06
-0.045
-0.025
-0.06
-0.08
-0.115
-0.135
-0.155
-0.135
-0.11
-0.05
-0.02
-0.025
-0.05
-0.065
-0.11
-0.145
-0.135
-0.115
-0.09
-0.045
-0.02
-0.015
-0.04
-0.08
-0.105
-0.125
-0.135
-0.115
-0.09
-0.04
-0.02
-0.01
-0.045
-0.08
-0.12
-0.125
-0.125
-0.115
-0.085
-0.045
-0.035
-0.02
-0.04
-0.08
-0.12
-0.14
-0.145
-0.11
-0.07
-0.04
-0.025
-0.02
-0.05
-0.08
-0.125
-0.145
-0.145
-0.115
-0.08
-0.035
-0.04
-0.035
-0.055
-0.08
-0.135
-0.16
-0.14
-0.13
-0.08
-0.045
-0.035
-0.035
-0.07
-0.105
-0.145
-0.145
-0.15
-0.13
-0.085
-0.05
-0.05
-0.045
-0.065
-0.105
-0.135
-0.16
-0.15
-0.115
-0.085
-0.055
-0.045
-0.055
-0.08
-0.12
-0.14
-0.15
-0.145
-0.12
-0.075
-0.055
-0.055
-0.075
-0.08
-0.125
-0.17
-0.165
-0.135
-0.12
-0.075
-0.055
-0.045
-0.055
-0.085
-0.125
-0.15
-0.17
-0.15
-0.125
-0.07
-0.055
-0.045
-0.06
-0.075
-0.12
-0.15
-0.155
-0.145
-0.115
-0.07
-0.06
-0.04
-0.05
-0.085
-0.13
-0.14
-0.14
-0.105
-0.115
-0.065
-0.025
-0.01
-0.015
-0.04
-0.09
-0.11
-0.125
-0.095
-0.07
-0.025
-0.005
-0.01
-0.025
-0.045
-0.1
-0.11
-0.125
-0.105
-0.09
-0.05
-0.035
-0.035
-0.05
-0.09
-0.15
-0.17
-0.175
-0.155
-0.115
-0.085
-0.055
-0.05
-0.065
-0.095
-0.14
-0.165
-0.195
-0.145
-0.12
-0.075
-0.07
-0.07
-0.1
-0.125
-0.175
-0.18
-0.18
-0.165
-0.13
-0.09
-0.075
-0.085
-0.095
-0.105
-0.165
-0.17
-0.18
-0.15
-0.13
-0.095
-0.075
-0.075
-0.105
-0.135
-0.18
-0.2
-0.19
-0.19
-0.165
-0.14
-0.14
-0.12
-0.115
-0.085
-0.045
-0.015
0.04
0.11
0.235
0.38
0.48
0.585
0.645
0.62
0.59
0.515
0.46
0.405
0.365
0.305
0.2
0.055
-0.085
-0.205
-0.255
-0.23
-0.21
-0.165
-0.105
-0.055
-0.03
-0.04
-0.055
-0.085
-0.15
-0.145
-0.16
-0.145
-0.06
-0.035
-0.045
-0.04
-0.065
-0.115
-0.14
-0.155
-0.145
-0.11
-0.08
-0.065
-0.03
-0.025
-0.09
-0.12
-0.135
-0.14
-0.13
-0.105
-0.05
-0.02
-0.01
-0.02
-0.055
-0.11
-0.105
-0.115
-0.105
-0.075
-0.025
-0.01
-0.005
-0.025
-0.04
-0.09
-0.135
-0.125
-0.1
-0.08
-0.03
-0.005
0.005
0.015
-0.015
-0.065
-0.085
-0.095
-0.07
-0.04
0.01
0.035
0.045
0.03
0.01
-0.05
-0.07
-0.07
-0.035
0.0
0.045
0.075
0.095
0.065
0.05
0.015
-0.005
0.0
0.025
0.065
0.115
0.135
0.15
0.145
0.12
0.08
0.06
0.075
0.1
0.13
0.17
0.195
0.215
0.19
0.16
0.115
0.105
0.11
0.135
0.145
0.185
0.205
0.215
0.195
0.155
0.105
0.08
0.075
0.08
0.105
0.14
0.155
0.145
0.11
0.06
0.01
-0.025
-0.035
-0.025
0.0
0.04
0.045
0.03
-0.005
-0.055
-0.08
-0.115
-0.115
-0.105
-0.065
-0.045
-0.05
-0.04
-0.06
-0.105
-0.135
-0.155
-0.155
-0.135
-0.095
-0.06
-0.055
-0.06
-0.085
-0.135
-0.17
-0.175
-0.17
-0.13
-0.1
-0.06
-0.06
-0.065
-0.095
-0.13
-0.16
-0.18
-0.18
-0.135
-0.095
-0.085
-0.055
-0.07
-0.09
-0.135
-0.16
-0.16
-0.17
-0.14
-0.1
-0.065
-0.055
-0.065
-0.08
-0.125
-0.145
-0.155
-0.155
-0.13
-0.09
-0.075
-0.055
-0.065
-0.095
-0.125
-0.15
-0.16
-0.14
-0.1
-0.06
-0.045
-0.04
-0.055
-0.085
-0.12
-0.15
-0.15
-0.15
-0.135
-0.085
-0.06
-0.05
-0.07
-0.085
-0.13
-0.15
-0.15
-0.135
-0.125
-0.065
-0.05
-0.04
-0.065
-0.085
-0.16
-0.16
-0.15
-0.14
-0.115
-0.075
-0.065
-0.045
-0.09
-0.11
-0.145
-0.155
-0.165
-0.15
-0.125
-0.075
-0.06
-0.05
-0.065
-0.095
-0.15
-0.155
-0.16
-0.145
-0.12
-0.075
-0.055
-0.065
-0.08
-0.125
-0.145
-0.165
-0.175
-0.145
-0.115
-0.07
-0.07
-0.06
-0.075
-0.11
-0.165
-0.18
-0.165
-0.155
-0.115
-0.08
-0.06
-0.05
-0.085
-0.11
-0.175
-0.175
-0.165
-0.145
-0.105
-0.08
-0.05
-0.06
-0.085
-0.115
-0.15
-0.16
-0.165
-0.145
-0.1
-0.07
-0.035
-0.03
-0.04
-0.085
-0.125
-0.15
-0.135
-0.125
-0.075
-0.04
-0.02
-0.025
-0.055
-0.09
-0.12
-0.14
-0.115
-0.1
-0.04
-0.005
0.01
-0.005
-0.03
-0.06
-0.085
-0.105
-0.085
-0.05
-0.015
0.01
-0.02
-0.02
-0.045
-0.09
-0.12
-0.125
-0.145
-0.12
-0.07
-0.055
-0.05
-0.065
-0.09
-0.13
-0.155
-0.17
-0.15
-0.115
-0.085
-0.065
-0.065
-0.07
-0.085
-0.145
-0.17
-0.175
-0.16
-0.125
-0.09
-0.075
-0.06
-0.07
-0.085
-0.14
-0.16
-0.19
-0.17
-0.15
-0.09
-0.05
-0.055
-0.065
-0.1
-0.15
-0.16
-0.18
-0.155
-0.125
-0.1
-0.085
-0.075
-0.095
-0.145
-0.19
-0.23
-0.22
-0.165
-0.065
0.055
0.135
0.205
0.255
0.3
0.35
0.43
0.535
0.645
0.67
0.705
0.675
0.605
0.495
0.35
0.21
0.035
-0.07
-0.15
-0.175
-0.105
-0.095
-0.095
-0.105
-0.11
-0.13
-0.115
-0.105
-0.095
-0.07
-0.015
-0.02
-0.02
-0.03
-0.05
-0.105
-0.115
-0.11
-0.095
-0.05
-0.02
-0.01
0.0
-0.02
-0.045
-0.105
-0.1
-0.1
-0.085
-0.05
-0.035
0.0
0.015
-0.02
-0.05
-0.07
-0.09
-0.08
-0.055
-0.02
0.015
0.015
0.02
0.0
-0.03
-0.07
-0.075
-0.065
-0.045
0.005
0.02
0.02
0.03
0.02
-0.02
-0.05
-0.06
-0.05
-0.02
0.03
0.075
0.075
0.06
0.04
0.02
-0.015
-0.03
-0.02
0.01
0.06
0.08
0.11
0.095
0.075
0.045
0.015
0.02
0.04
0.06
0.115
0.145
0.165
0.165
0.15
0.11
0.08
0.075
0.105
0.14
0.2
0.22
0.22
0.225
0.205
0.165
0.14
0.135
0.16
0.19
0.23
0.265
0.255
0.255
0.235
0.18
0.16
0.15
0.145
0.17
0.22
0.235
0.22
0.21
0.18
0.115
0.06
0.05
0.065
0.065
0.11
0.135
0.12
0.09
0.05
-0.005
-0.045
-0.05
-0.045
-0.035
0.015
0.05
0.055
0.02
-0.035
-0.085
-0.11
-0.11
-0.1
-0.065
-0.025
-0.005
-0.005
-0.035
-0.065
-0.105
-0.12
-0.135
-0.13
-0.085
-0.045
-0.035
-0.02
-0.055
-0.09
-0.14
-0.14
-0.145
-0.12
-0.095
-0.05
-0.035
-0.025
-0.035
-0.08
-0.125
-0.145
-0.145
-0.125
-0.06
-0.03
-0.02
-0.025
-0.04
-0.075
-0.11
-0.145
-0.145
-0.1
-0.055
-0.055
-0.015
-0.02
-0.04
-0.07
-0.105
-0.135
-0.125
-0.095
-0.055
-0.025
-0.005
-0.01
-0.045
-0.08
-0.12
-0.135
-0.135
-0.09
-0.045
-0.02
-0.025
-0.03
-0.04
-0.085
-0.11
-0.125
-0.12
-0.09
-0.055
-0.015
-0.01
-0.025
-0.045
-0.09
-0.135
-0.12
-0.125
-0.095
-0.06
-0.04
-0.025
-0.04
-0.06
-0.09
-0.105
-0.135
-0.125
-0.11
-0.055
-0.035
-0.025
-0.05
-0.06
-0.11
-0.13
-0.155
-0.145
-0.1
-0.06
-0.04
-0.015
-0.035
-0.055
-0.095
-0.135
-0.145
-0.145
-0.135
-0.07
-0.06
-0.05
-0.05
-0.075
-0.115
-0.145
-0.145
-0.125
-0.11
-0.065
-0.045
-0.035
-0.055
-0.08
-0.135
-0.15
-0.15
-0.14
-0.1
-0.045
-0.05
-0.05
-0.05
-0.09
-0.135
-0.15
-0.16
-0.13
-0.095
-0.05
-0.015
-0.01
-0.035
-0.06
-0.09
-0.12
-0.145
-0.135
-0.09
-0.035
-0.035
-0.02
-0.04
-0.05
-0.085
-0.09
-0.09
-0.07
-0.05
0.0
0.0
0.02
-0.01
-0.035
-0.085
-0.1
-0.095
-0.075
-0.05
-0.01
0.005
0.0
-0.02
-0.055
-0.125
-0.15
-0.135
-0.13
-0.09
-0.06
-0.045
-0.055
-0.08
-0.11
-0.145
-0.17
-0.16
-0.13
-0.09
-0.07
-0.045
-0.04
-0.07
-0.12
-0.155
-0.16
-0.155
-0.14
-0.1
-0.08
-0.055
-0.065
-0.085
-0.12
-0.155
-0.18
-0.17
-0.145
-0.085
-0.065
-0.065
-0.06
-0.09
-0.12
-0.155
-0.175
-0.19
-0.165
-0.12
-0.085
-0.095
-0.12
-0.145
-0.18
-0.19
-0.16
-0.09
-0.005
0.11
0.205
0.275
0.35
0.435
0.515
0.59
0.59
0.605
0.61
0.6
0.54
0.445
0.335
0.195
0.01
-0.145
-0.23
-0.245
-0.195
-0.14
-0.11
-0.085
-0.085
-0.11
-0.125
-0.125
-0.125
-0.12
-0.095
-0.045
-0.015
-0.02
-0.045
-0.08
-0.13
-0.135
-0.11
-0.11
-0.09
-0.06
-0.03
-0.03
-0.04
-0.07
-0.11
-0.13
-0.17
-0.12
-0.075
-0.035
-0.01
-0.015
-0.04
-0.065
-0.1
-0.12
-0.11
-0.1
-0.065
-0.015
0.005
0.015
-0.015
-0.025
-0.1
-0.13
-0.115
-0.08
-0.055
0.005
0.025
0.04
0.005
-0.02
-0.045
-0.085
-0.065
-0.06
-0.035
0.01
0.045
0.07
0.045
0.005
-0.035
-0.06
-0.065
-0.025
0.015
0.06
0.095
0.095
0.07
0.04
0.005
0.03
0.015
0.015
0.07
0.13
0.16
0.175
0.16
0.13
0.085
0.06
0.06
0.11
0.16
0.19
0.22
0.205
0.17
0.15
0.1
0.085
0.1
0.14
0.18
0.215
0.225
0.22
0.195
0.16
0.115
0.095
0.085
0.11
0.18
0.18
0.165
0.17
0.14
0.065
0.035
0.01
0.0
0.015
0.05
0.065
0.08
0.045
0.02
-0.055
-0.09
-0.105
-0.11
-0.07
-0.04
-0.03
-0.015
-0.025
-0.045
-0.1
-0.14
-0.16
-0.155
-0.12
-0.08
-0.05
-0.04
-0.065
-0.08
-0.125
-0.155
-0.165
-0.155
-0.105
-0.07
-0.055
-0.06
-0.075
-0.125
-0.14
-0.15
-0.165
-0.15
-0.135
-0.09
-0.075
-0.065
-0.07
-0.11
-0.145
-0.17
-0.175
-0.155
-0.13
-0.075
-0.05
-0.035
-0.06
-0.1
-0.135
-0.165
-0.175
-0.15
-0.125
-0.065
-0.05
-0.025
-0.065
-0.085
-0.14
-0.16
-0.16
-0.155
-0.12
-0.06
-0.05
-0.05
-0.045
-0.08
-0.14
-0.155
-0.17
-0.145
-0.105
-0.04
-0.025
-0.03
-0.055
-0.085
-0.14
-0.155
-0.16
-0.13
-0.1
-0.055
-0.04
-0.035
-0.055
-0.1
-0.155
-0.155
-0.16
-0.13
-0.105
-0.05
-0.04
-0.045
-0.07
-0.115
-0.16
-0.185
-0.165
-0.14
-0.105
-0.07
-0.045
-0.045
-0.065
-0.105
-0.165
-0.185
-0.18
-0.165
-0.11
-0.065
-0.06
-0.06
-0.1
-0.14
-0.17
-0.16
-0.185
-0.16
-0.115
-0.075
-0.07
-0.05
-0.08
-0.115
-0.15
-0.17
-0.18
-0.165
-0.1
-0.08
-0.055
-0.07
-0.1
-0.14
-0.15
-0.18
-0.155
-0.13
-0.09
-0.055
-0.06
-0.065
-0.1
-0.15
-0.16
-0.18
-0.18
-0.155
-0.09
-0.065
-0.05
-0.07
-0.1
-0.155
-0.17
-0.175
-0.175
-0.15
-0.095
-0.07
-0.055
-0.075
-0.08
-0.12
-0.145
-0.15
-0.14
-0.125
-0.07
-0.04
-0.01
-0.045
-0.055
-0.105
-0.13
-0.125
-0.13
-0.11
-0.075
-0.035
-0.015
-0.015
-0.035
-0.085
-0.09
-0.1
-0.09
-0.095
-0.055
-0.015
0.005
-0.01
-0.055
-0.11
-0.145
-0.14
-0.125
-0.105
-0.06
-0.05
-0.045
-0.075
-0.09
-0.125
-0.175
-0.195
-0.155
-0.1
-0.065
-0.045
-0.035
-0.06
-0.1
-0.17
-0.195
-0.205
-0.175
-0.13
-0.075
-0.065
-0.06
-0.095
-0.125
-0.165
-0.17
-0.18
-0.155
-0.13
-0.075
-0.07
-0.065
-0.07
-0.12
-0.17
-0.185
-0.18
-0.165
-0.11
-0.095
-0.105
-0.085
-0.105
-0.145
-0.205
-0.23
-0.235
-0.205
-0.13
-0.05
0.02
0.1
0.13
0.16
0.195
0.26
0.35
0.495
0.63
0.705
0.705
0.675
0.555
0.42
0.305
0.2
0.08
-0.025
-0.105
-0.12
-0.135
-0.125
-0.145
-0.17
-0.175
-0.155
-0.12
-0.115
-0.065
-0.03
-0.005
-0.035
-0.06
-0.1
-0.13
-0.145
-0.135
-0.1
-0.055
-0.025
-0.02
-0.02
-0.055
-0.08
-0.11
-0.115
-0.115
-0.1
-0.05
0.005
0.0
-0.02
-0.01
-0.055
-0.105
-0.105
-0.11
-0.08
-0.025
0.0
0.01
-0.005
-0.03
-0.07
-0.07
-0.1
-0.075
-0.05
-0.005
0.02
0.045
0.025
0.005
-0.04
-0.075
-0.075
-0.055
-0.04
0.025
0.065
0.065
0.045
0.02
-0.03
-0.065
-0.055
-0.025
0.02
0.065
0.085
0.085
0.07
0.065
0.03
0.005
0.01
0.025
0.045
0.095
0.12
0.15
0.14
0.115
0.08
0.06
0.07
0.105
0.155
0.205
0.22
0.245
0.21
0.165
0.14
0.125
0.13
0.145
0.19
0.235
0.26
0.255
0.24
0.19
0.16
0.15
0.145
0.17
0.195
0.235
0.245
0.25
0.215
0.17
0.1
0.09
0.08
0.075
0.105
0.13
0.14
0.13
0.11
0.085
0.015
-0.025
-0.03
-0.015
0.005
0.045
0.06
0.05
0.035
-0.015
-0.075
-0.12
-0.095
-0.065
-0.02
0.01
0.025
0.0
-0.02
-0.055
-0.095
-0.115
-0.1
-0.085
-0.04
-0.025
-0.03
-0.02
-0.05
-0.085
-0.105
-0.13
-0.125
-0.105
-0.055
-0.025
-0.015
-0.015
-0.035
-0.07
-0.115
-0.12
-0.115
-0.09
-0.06
-0.02
0.0
-0.02
-0.04
-0.095
-0.13
-0.125
-0.115
-0.075
-0.035
0.0
-0.005
0.0
-0.03
-0.06
-0.095
-0.115
-0.105
-0.075
-0.035
-0.01
0.005
0.0
-0.02
-0.06
-0.09
-0.12
-0.09
-0.07
-0.03
0.01
0.01
0.01
-0.03
-0.08
-0.095
-0.105
-0.095
-0.055
-0.03
-0.005
0.01
0.0
-0.02
-0.08
-0.1
-0.1
-0.095
-0.075
-0.02
0.005
0.005
-0.01
-0.02
-0.05
-0.1
-0.12
-0.095
-0.065
-0.025
0.0
0.005
-0.01
-0.04
-0.07
-0.095
-0.12
-0.1
-0.075
-0.03
-0.01
0.015
0.0
-0.03
-0.055
-0.105
-0.115
-0.115
-0.075
-0.03
-0.02
-0.015
-0.015
-0.04
-0.09
-0.13
-0.13
-0.095
-0.055
-0.015
-0.005
0.01
-0.05
-0.065
-0.09
-0.12
-0.11
-0.1
-0.06
-0.005
0.005
0.02
0.01
-0.04
-0.065
-0.085
-0.1
-0.08
-0.045
0.005
0.03
0.015
-0.005
-0.05
-0.085
-0.105
-0.08
-0.05
-0.005
0.035
0.06
0.065
0.02
0.0
-0.03
-0.045
-0.04
-0.025
0.0
0.05
0.07
0.04
0.035
0.0
-0.06
-0.09
-0.075
-0.045
0.005
0.01
0.005
0.0
-0.015
-0.065
-0.09
-0.1
-0.095
-0.075
-0.025
0.02
0.01
-0.02
-0.025
-0.07
-0.11
-0.11
-0.095
-0.075
-0.035
0.0
0.01
0.0
-0.02
-0.065
-0.095
-0.105
-0.095
-0.095
-0.02
0.005
0.015
0.03
0.0
-0.055
-0.1
-0.115
-0.12
-0.075
-0.005
-0.015
-0.015
-0.025
-0.045
-0.12
-0.145
-0.16
-0.14
-0.09
0.01
0.08
0.15
0.195
0.215
0.235
0.27
0.37
0.485
0.62
0.695
0.73
0.695
0.615
0.54
0.41
0.305
0.195
0.075
-0.015
-0.045
-0.065
-0.045
-0.06
-0.07
-0.1
-0.095
-0.08
-0.025
0.01
0.045
0.07
0.055
0.04
0.01
-0.045
-0.07
-0.06
-0.03
0.01
0.035
0.065
0.065
0.035
0.02
-0.02
-0.055
-0.06
-0.025
0.015
0.06
0.09
0.075
0.06
0.03
-0.01
-0.04
-0.035
-0.015
0.02
0.06
0.1
0.095
0.08
0.035
0.005
-0.02
-0.015
0.0
0.06
0.09
0.12
0.115
0.085
0.055
0.02
0.0
0.005
0.04
0.055
0.125
0.13
0.14
0.125
0.095
0.06
0.06
0.04
0.04
0.1
0.155
0.185
0.18
0.145
0.105
0.08
0.085
0.085
0.125
0.175
0.22
0.225
0.23
0.21
0.18
0.15
0.14
0.16
0.18
0.225
0.265
0.29
0.3
0.295
0.24
0.21
0.205
0.225
0.235
0.295
0.32
0.345
0.34
0.295
0.26
0.225
0.215
0.23
0.245
0.31
0.32
0.325
0.29
0.25
0.2
0.165
0.16
0.16
0.165
0.19
0.225
0.23
0.215
0.18
0.115
0.075
0.055
0.06
0.085
0.145
0.15
0.135
0.12
0.095
0.05
0.01
0.01
0.02
0.04
0.09
0.115
0.125
0.105
0.08
0.02
-0.01
-0.015
0.01
0.04
0.09
0.115
0.11
0.105
0.065
0.01
-0.005
-0.02
0.01
0.04
0.1
0.1
0.105
0.095
0.045
0.015
0.01
-0.005
0.01
0.04
0.09
0.145
0.105
0.1
0.075
0.025
0.01
0.015
0.04
0.07
0.115
0.13
0.13
0.125
0.1
0.04
0.015
0.02
0.035
0.065
0.12
0.13
0.15
0.11
0.08
0.04
0.035
0.015
0.065
0.095
0.135
0.165
0.155
0.12
0.08
0.04
0.025
0.02
0.055
0.11
0.13
0.16
0.17
0.13
0.075
0.05
0.035
0.04
0.055
0.085
0.14
0.165
0.16
0.115
0.075
0.05
0.045
0.035
0.05
0.09
0.135
0.15
0.15
0.14
0.09
0.05
0.035
0.035
0.065
0.11
0.15
0.165
0.155
0.13
0.06
0.035
0.04
0.04
0.075
0.14
0.16
0.17
0.17
0.12
0.055
0.05
0.01
0.025
0.055
0.115
0.15
0.175
0.165
0.15
0.085
0.06
0.015
0.05
0.075
0.13
0.165
0.185
0.17
0.155
0.1
0.075
0.065
0.07
0.08
0.16
0.185
0.195
0.175
0.15
0.12
0.115
0.105
0.125
0.16
0.21
0.23
0.24
0.195
0.175
0.15
0.12
0.11
0.11
0.13
0.185
0.21
0.22
0.205
0.145
0.095
0.06
0.06
0.095
0.1
0.155
0.175
0.16
0.155
0.14
0.095
0.055
0.055
0.07
0.115
0.165
0.2
0.22
0.17
0.135
0.06
0.04
0.045
0.065
0.115
0.19
0.2
0.205
0.165
0.135
0.095
0.07
0.07
0.095
0.13
0.165
0.195
0.195
0.18
0.15
0.09
0.05
0.045
0.075
0.115
0.16
0.165
0.15
0.145
0.12
0.125
0.165
0.215
0.29
0.395
0.485
0.595
0.675
0.79
0.865
0.845
0.82
0.785
0.77
0.76
0.71
0.63
0.51
0.365
0.21
0.085
0.01
0.02
0.07
0.125
0.18
0.225
0.245
0.21
0.17
0.125
0.095
0.12
0.125
0.185
0.24
0.255
0.255
0.22
0.165
0.12
0.11
0.115
0.16
0.205
0.23
0.26
0.25
0.22
0.16
0.13
0.13
0.12
0.145
0.225
0.26
0.275
0.265
0.235
0.17
0.14
0.135
0.155
0.17
0.225
0.21
-0.625
1.865
2.115
1.735
1.495
1.33
1.265
1.21
1.275
1.245
1.17
1.05
0.92
0.71
0.63
0.6
0.625
0.66
0.79
0.84
0.81
0.71
0.585
0.44
0.4
0.43
0.48
0.57
0.69
0.71
0.665
0.605
0.49
0.34
0.31
0.365
0.425
0.555
0.67
0.685
