# TIPE ECG 2021 - ECG-ID Database v1.0.0 par Physionet
# [Numéro de la personne, Période d'échantillonnage, Prénom, Age, Sexe, Date de l'enregistrement]
[40, 0.002, Deborah, 21, F, 13.05.2005]
-0.32
-0.305
-0.35
-0.405
-0.415
-0.38
-0.37
-0.405
-0.395
-0.42
-0.415
-0.405
-0.395
-0.38
-0.33
-0.34
-0.385
-0.365
-0.39
-0.435
-0.415
-0.45
-0.42
-0.445
-0.41
-0.445
-0.415
-0.38
-0.39
-0.405
-0.405
-0.46
-0.47
-0.45
-0.425
-0.45
-0.405
-0.37
-0.365
-0.355
-0.385
-0.43
-0.48
-0.38
-0.36
-0.425
-0.41
-0.4
-0.42
-0.45
-0.475
-0.4
-0.4
-0.425
-0.435
-0.38
-0.425
-0.415
-0.42
-0.445
-0.41
-0.39
-0.395
-0.46
-0.425
-0.41
-0.39
-0.43
-0.46
-0.46
-0.46
-0.54
-0.585
-0.57
-0.5
-0.325
-0.335
-0.4
-0.38
-0.415
-0.37
-0.43
-0.39
-0.415
-0.425
-0.435
-0.43
-0.395
-0.425
-0.51
-0.525
-0.52
-0.48
-0.475
-0.48
-0.525
-0.51
-0.475
-0.485
-0.415
-0.365
-0.41
-0.425
-0.38
-0.465
-0.49
-0.44
-0.415
-0.475
-0.42
-0.43
-0.49
-0.5
-0.42
-0.4
-0.42
-0.42
-0.475
-0.445
-0.425
-0.395
-0.385
-0.43
-0.415
-0.435
-0.455
-0.43
-0.35
-0.405
-0.46
-0.44
-0.45
-0.425
-0.42
-0.36
-0.35
-0.44
-0.505
-0.53
-0.5
-0.36
-0.365
-0.45
-0.405
-0.375
-0.34
-0.355
-0.415
-0.455
-0.485
-0.47
-0.46
-0.485
-0.465
-0.43
-0.43
-0.44
-0.475
-0.48
-0.505
-0.485
-0.49
-0.455
-0.45
-0.535
-0.485
-0.39
-0.405
-0.49
-0.475
-0.46
-0.48
-0.45
-0.405
-0.465
-0.385
-0.38
-0.495
-0.54
-0.535
-0.485
-0.515
-0.49
-0.475
-0.48
-0.475
-0.465
-0.445
-0.49
-0.46
-0.46
-0.49
-0.48
-0.375
-0.3
-0.3
-0.23
-0.23
-0.105
0.12
0.2
0.185
0.255
0.265
0.075
0.035
0.045
-0.045
-0.18
-0.27
-0.315
-0.33
-0.405
-0.405
-0.48
-0.47
-0.41
-0.395
-0.425
-0.475
-0.445
-0.415
-0.435
-0.505
-0.575
-0.54
-0.41
-0.42
-0.47
-0.47
-0.415
-0.4
-0.405
-0.435
-0.515
-0.445
-0.475
-0.485
-0.465
-0.5
-0.435
-0.45
-0.485
-0.47
-0.48
-0.48
-0.45
-0.515
-0.45
-0.4
-0.475
-0.47
-0.445
-0.45
-0.49
-0.51
-0.555
-0.41
-0.43
-0.455
-0.48
-0.495
-0.475
-0.45
-0.495
-0.445
-0.485
-0.55
-0.51
-0.455
-0.445
-0.38
-0.38
-0.41
-0.405
-0.41
-0.425
-0.46
-0.505
-0.465
-0.445
-0.405
-0.335
-0.325
-0.38
-0.415
-0.43
-0.435
-0.415
-0.41
-0.41
-0.335
-0.325
-0.44
-0.475
-0.44
-0.345
-0.325
-0.37
-0.355
-0.39
-0.37
-0.355
-0.35
-0.305
-0.29
-0.315
-0.345
-0.37
-0.37
-0.38
-0.405
-0.375
-0.335
-0.28
-0.245
-0.275
-0.32
-0.345
-0.34
-0.29
-0.295
-0.26
-0.28
-0.35
-0.31
-0.315
-0.35
-0.33
-0.38
-0.38
-0.44
-0.36
-0.37
-0.44
-0.45
-0.42
-0.395
-0.475
-0.475
-0.505
-0.47
-0.435
-0.535
-0.545
-0.535
-0.5
-0.58
-0.59
-0.59
-0.65
-0.695
-0.56
-0.515
-0.47
-0.485
-0.52
-0.555
-0.545
-0.55
-0.6
-0.575
-0.555
-0.55
-0.55
-0.6
-0.54
-0.56
-0.65
-0.66
-0.64
-0.605
-0.63
-0.58
-0.56
-0.58
-0.605
-0.575
-0.605
-0.59
-0.555
-0.595
-0.605
-0.62
-0.61
-0.615
-0.66
-0.635
-0.615
-0.61
-0.645
-0.58
-0.565
-0.57
-0.645
-0.655
-0.685
-0.705
-0.555
-0.515
-0.57
-0.625
-0.54
-0.575
-0.59
-0.625
-0.655
-0.67
-0.675
-0.63
-0.655
-0.63
-0.615
-0.62
-0.63
-0.645
-0.695
-0.66
-0.675
-0.68
-0.635
-0.615
-0.67
-0.695
-0.775
-0.64
-0.43
-0.535
-0.63
-0.63
-0.595
-0.6
-0.595
-0.605
-0.605
-0.625
-0.655
-0.67
-0.635
-0.65
-0.655
-0.645
-0.625
-0.665
-0.675
-0.64
-0.64
-0.625
-0.68
-0.76
-0.7
-0.685
-0.69
-0.675
-0.565
-0.57
-0.64
-0.645
-0.64
-0.65
-0.715
-0.605
-0.595
-0.615
-0.56
-0.55
-0.62
-0.675
-0.7
-0.65
-0.71
-0.685
-0.685
-0.705
-0.72
-0.67
-0.705
-0.7
-0.65
-0.62
-0.61
-0.635
-0.69
-0.64
-0.68
-0.635
-0.71
-0.805
-0.725
-0.64
-0.585
-0.575
-0.605
-0.615
-0.66
-0.66
-0.625
-0.675
-0.68
-0.64
-0.63
-0.63
-0.615
-0.665
-0.61
-0.62
-0.665
-0.66
-0.605
-0.6
-0.63
-0.685
-0.74
-0.645
-0.555
-0.615
-0.7
-0.69
-0.645
-0.635
-0.625
-0.615
-0.64
-0.645
-0.72
-0.745
-0.635
-0.51
-0.58
-0.64
-0.63
-0.625
-0.61
-0.63
-0.64
-0.725
-0.75
-0.685
-0.625
-0.705
-0.69
-0.63
-0.655
-0.68
-0.7
-0.71
-0.735
-0.715
-0.645
-0.69
-0.665
-0.69
-0.795
-0.755
-0.675
-0.715
-0.705
-0.655
-0.67
-0.72
-0.76
-0.63
-0.59
-0.65
-0.71
-0.705
-0.705
-0.705
-0.72
-0.73
-0.74
-0.695
-0.67
-0.68
-0.635
-0.61
-0.615
-0.605
-0.65
-0.505
-0.345
-0.24
-0.225
-0.21
-0.095
-0.025
-0.03
-0.04
-0.145
-0.24
-0.215
-0.31
-0.375
-0.49
-0.55
-0.6
-0.62
-0.67
-0.715
-0.725
-0.65
-0.625
-0.66
-0.66
-0.625
-0.655
-0.74
-0.72
-0.71
-0.71
-0.705
-0.73
-0.7
-0.725
-0.65
-0.7
-0.7
-0.69
-0.72
-0.67
-0.625
-0.65
-0.71
-0.685
-0.68
-0.74
-0.73
-0.72
-0.595
-0.565
-0.685
-0.76
-0.685
-0.685
-0.765
-0.73
-0.65
-0.65
-0.665
-0.69
-0.71
-0.68
-0.695
-0.715
-0.73
-0.71
-0.625
-0.63
-0.735
-0.71
-0.69
-0.64
-0.795
-0.705
-0.57
-0.595
-0.655
-0.63
-0.625
-0.625
-0.64
-0.655
-0.665
-0.675
-0.64
-0.705
-0.64
-0.68
-0.645
-0.65
-0.595
-0.605
-0.645
-0.61
-0.57
-0.6
-0.59
-0.595
-0.58
-0.605
-0.585
-0.56
-0.575
-0.54
-0.53
-0.55
-0.53
-0.47
-0.425
-0.52
-0.615
-0.615
-0.575
-0.46
-0.46
-0.465
-0.355
-0.365
-0.5
-0.56
-0.52
-0.505
-0.58
-0.575
-0.535
-0.49
-0.59
-0.575
-0.53
-0.48
-0.5
-0.445
-0.485
-0.52
-0.57
-0.58
-0.625
-0.545
-0.555
-0.61
-0.67
-0.625
-0.66
-0.62
-0.62
-0.64
-0.635
-0.63
-0.67
-0.69
-0.68
-0.7
-0.665
-0.665
-0.755
-0.695
-0.705
-0.745
-0.755
-0.76
-0.595
-0.63
-0.795
-0.78
-0.715
-0.64
-0.76
-0.79
-0.77
-0.685
-0.63
-0.635
-0.68
-0.755
-0.86
-0.76
-0.59
-0.62
-0.68
-0.695
-0.715
-0.68
-0.66
-0.69
-0.69
-0.7
-0.725
-0.775
-0.805
-0.73
-0.63
-0.68
-0.71
-0.655
-0.735
-0.685
-0.72
-0.725
-0.8
-0.65
-0.64
-0.72
-0.72
-0.725
-0.7
-0.745
-0.7
-0.735
-0.715
-0.64
-0.705
-0.765
-0.725
-0.685
-0.76
-0.72
-0.77
-0.67
-0.675
-0.655
-0.71
-0.78
-0.675
-0.665
-0.73
-0.82
-0.765
-0.6
-0.665
-0.72
-0.695
-0.7
-0.805
-0.76
-0.685
-0.705
-0.69
-0.705
-0.67
-0.68
-0.71
-0.745
-0.645
-0.705
-0.805
-0.67
-0.61
-0.615
-0.705
-0.75
-0.75
-0.76
-0.65
-0.765
-0.75
-0.685
-0.715
-0.73
-0.68
-0.665
-0.655
-0.685
-0.725
-0.72
-0.75
-0.7
-0.65
-0.735
-0.745
-0.66
-0.61
-0.655
-0.7
-0.68
-0.74
-0.66
-0.66
-0.74
-0.72
-0.62
-0.645
-0.65
-0.695
-0.675
-0.635
-0.665
-0.705
-0.65
-0.585
-0.585
-0.615
-0.64
-0.625
-0.625
-0.665
-0.655
-0.685
-0.665
-0.73
-0.755
-0.61
-0.55
-0.475
-0.6
-0.68
-0.665
-0.685
-0.66
-0.67
-0.725
-0.63
-0.66
-0.71
-0.69
-0.7
-0.67
-0.695
-0.65
-0.605
-0.69
-0.67
-0.63
-0.645
-0.66
-0.68
-0.675
-0.74
-0.74
-0.665
-0.72
-0.635
-0.565
-0.665
-0.705
-0.635
-0.59
-0.64
-0.675
-0.625
-0.71
-0.73
-0.645
-0.63
-0.675
-0.67
-0.68
-0.655
-0.66
-0.69
-0.685
-0.63
-0.595
-0.54
-0.585
-0.52
-0.445
-0.355
-0.26
-0.115
-0.13
-0.12
-0.14
-0.16
-0.225
-0.325
-0.44
-0.52
-0.57
-0.555
-0.56
-0.56
-0.575
-0.65
-0.71
-0.715
-0.72
-0.685
-0.695
-0.6
-0.64
-0.62
-0.69
-0.71
-0.765
-0.74
-0.66
-0.645
-0.62
-0.61
-0.67
-0.66
-0.665
-0.61
-0.675
-0.7
-0.69
-0.705
-0.665
-0.635
-0.665
-0.705
-0.665
-0.68
-0.7
-0.685
-0.645
-0.655
-0.695
-0.75
-0.71
-0.61
-0.655
-0.685
-0.645
-0.66
-0.69
-0.635
-0.71
-0.615
-0.545
-0.595
-0.615
-0.63
-0.66
-0.64
-0.62
-0.65
-0.625
-0.58
-0.615
-0.675
-0.625
-0.715
-0.69
-0.635
-0.615
-0.595
-0.57
-0.62
-0.56
-0.62
-0.66
-0.585
-0.595
-0.53
-0.61
-0.615
-0.59
-0.535
-0.555
-0.55
-0.575
-0.595
-0.57
-0.585
-0.55
-0.52
-0.495
-0.475
-0.48
-0.51
-0.455
-0.44
-0.585
-0.685
-0.51
-0.415
-0.42
-0.475
-0.455
-0.445
-0.48
-0.495
-0.5
-0.425
-0.455
-0.5
-0.55
-0.52
-0.515
-0.36
-0.39
-0.48
-0.44
-0.475
-0.555
-0.51
-0.5
-0.52
-0.565
-0.57
-0.565
-0.58
-0.565
-0.58
-0.585
-0.61
-0.625
-0.63
-0.63
-0.64
-0.685
-0.745
-0.76
-0.73
-0.715
-0.66
-0.655
-0.74
-0.77
-0.71
-0.745
-0.65
-0.705
-0.75
-0.72
-0.64
-0.62
-0.75
-0.68
-0.66
-0.715
-0.755
-0.76
-0.67
-0.7
-0.705
-0.69
-0.695
-0.71
-0.7
-0.74
-0.725
-0.705
-0.75
-0.78
-0.745
-0.72
-0.735
-0.715
-0.705
-0.78
-0.735
-0.69
-0.91
-0.76
-0.66
-0.685
-0.77
-0.8
-0.72
-0.65
-0.68
-0.68
-0.705
-0.74
-0.66
-0.705
-0.78
-0.79
-0.81
-0.765
-0.76
-0.72
-0.73
-0.685
-0.67
-0.68
-0.72
-0.735
-0.735
-0.71
-0.735
-0.725
-0.75
-0.75
-0.695
-0.7
-0.695
-0.71
-0.77
-0.72
-0.745
-0.77
-0.755
-0.81
-0.74
-0.66
-0.715
-0.805
-0.72
-0.635
-0.645
-0.715
-0.725
-0.73
-0.71
-0.745
-0.715
-0.74
-0.76
-0.75
-0.725
-0.7
-0.72
-0.745
-0.72
-0.715
-0.76
-0.72
-0.75
-0.77
-0.75
-0.705
-0.735
-0.78
-0.705
-0.61
-0.68
-0.755
-0.725
-0.755
-0.785
-0.705
-0.725
-0.785
-0.76
-0.715
-0.78
-0.73
-0.685
-0.71
-0.725
-0.665
-0.665
-0.69
-0.67
-0.69
-0.685
-0.73
-0.755
-0.75
-0.715
-0.72
-0.705
-0.705
-0.655
-0.7
-0.66
-0.65
-0.665
-0.695
-0.705
-0.705
-0.69
-0.675
-0.71
-0.7
-0.68
-0.665
-0.675
-0.69
-0.785
-0.755
-0.76
-0.71
-0.68
-0.675
-0.745
-0.72
-0.685
-0.72
-0.71
-0.735
-0.75
-0.74
-0.725
-0.73
-0.72
-0.665
-0.705
-0.76
-0.77
-0.72
-0.68
-0.685
-0.655
-0.62
-0.66
-0.795
-0.91
-0.73
-0.65
-0.645
-0.725
-0.75
-0.7
-0.73
-0.69
-0.745
-0.75
-0.69
-0.75
-0.76
-0.71
-0.7
-0.59
-0.49
-0.425
-0.38
-0.34
-0.28
-0.165
-0.09
-0.08
-0.105
-0.105
-0.135
-0.17
-0.235
-0.31
-0.385
-0.485
-0.565
-0.615
-0.65
-0.65
-0.59
-0.635
-0.675
-0.72
-0.805
-0.77
-0.705
-0.635
-0.72
-0.73
-0.71
-0.6
-0.565
-0.63
-0.69
-0.63
-0.615
-0.695
-0.73
-0.675
-0.65
-0.645
-0.67
-0.7
-0.695
-0.63
-0.675
-0.695
-0.59
-0.635
-0.62
-0.605
-0.61
-0.63
-0.615
-0.61
-0.64
-0.645
-0.625
-0.63
-0.635
-0.575
-0.605
-0.67
-0.64
-0.63
-0.69
-0.69
-0.605
-0.565
-0.625
-0.65
-0.665
-0.665
-0.655
-0.575
-0.53
-0.58
-0.53
-0.545
-0.54
-0.55
-0.465
-0.51
-0.625
-0.605
-0.58
-0.625
-0.545
-0.48
-0.53
-0.52
-0.495
-0.595
-0.615
-0.555
-0.5
-0.52
-0.51
-0.505
-0.515
-0.425
-0.445
-0.46
-0.48
-0.475
-0.42
-0.395
-0.41
-0.42
-0.455
-0.45
-0.35
-0.39
-0.375
-0.395
-0.425
-0.365
-0.345
-0.36
-0.335
-0.375
-0.375
-0.35
-0.33
-0.345
-0.32
-0.275
-0.245
-0.345
-0.455
-0.415
-0.48
-0.47
-0.455
-0.465
-0.485
-0.485
-0.43
-0.415
-0.485
-0.51
-0.5
-0.49
-0.53
-0.585
-0.57
-0.56
-0.58
-0.61
-0.61
-0.635
-0.52
-0.53
-0.545
-0.58
-0.57
-0.535
-0.555
-0.585
-0.645
-0.625
-0.62
-0.64
-0.625
-0.585
-0.63
-0.615
-0.6
-0.64
-0.595
-0.475
-0.515
-0.64
-0.635
-0.62
-0.65
-0.585
-0.64
-0.605
-0.585
-0.59
-0.635
-0.615
-0.585
-0.63
-0.65
-0.595
-0.61
-0.62
-0.59
-0.605
-0.605
-0.59
-0.63
-0.65
-0.59
-0.575
-0.555
-0.555
-0.605
-0.655
-0.705
-0.68
-0.655
-0.63
-0.59
-0.57
-0.565
-0.54
-0.58
-0.645
-0.645
-0.595
-0.525
-0.57
-0.69
-0.69
-0.62
-0.64
-0.585
-0.53
-0.535
-0.575
-0.6
-0.645
-0.63
-0.56
-0.56
-0.58
-0.62
-0.605
-0.575
-0.565
-0.52
-0.535
-0.61
-0.655
-0.575
-0.595
-0.64
-0.6
-0.64
-0.625
-0.59
-0.555
-0.545
-0.58
-0.625
-0.55
-0.575
-0.645
-0.68
-0.7
-0.615
-0.66
-0.665
-0.505
-0.54
-0.605
-0.595
-0.605
-0.635
-0.63
-0.6
-0.615
-0.735
-0.65
-0.58
-0.525
-0.57
-0.6
-0.61
-0.64
-0.56
-0.555
-0.58
-0.59
-0.645
-0.67
-0.615
-0.485
-0.56
-0.595
-0.58
-0.6
-0.585
-0.535
-0.575
-0.615
-0.585
-0.625
-0.66
-0.58
-0.555
-0.58
-0.575
-0.565
-0.565
-0.525
-0.52
-0.555
-0.52
-0.56
-0.56
-0.525
-0.56
-0.54
-0.52
-0.6
-0.595
-0.635
-0.59
-0.52
-0.59
-0.58
-0.565
-0.58
-0.635
-0.625
-0.62
-0.63
-0.585
-0.57
-0.635
-0.635
-0.58
-0.565
-0.57
-0.56
-0.61
-0.63
-0.54
-0.605
-0.62
-0.615
-0.625
-0.57
-0.585
-0.595
-0.57
-0.59
-0.54
-0.535
-0.625
-0.615
-0.585
-0.58
-0.61
-0.62
-0.615
-0.63
-0.63
-0.585
-0.49
-0.53
-0.545
-0.575
-0.57
-0.53
-0.49
-0.575
-0.42
-0.28
-0.17
-0.12
-0.08
0.0
0.1
0.07
0.095
0.03
-0.025
-0.085
-0.155
-0.195
-0.27
-0.415
-0.54
-0.575
-0.535
-0.61
-0.61
-0.515
-0.535
-0.545
-0.545
-0.535
-0.595
-0.61
-0.57
-0.505
-0.455
-0.58
-0.685
-0.625
-0.545
-0.525
-0.57
-0.585
-0.51
-0.54
-0.56
-0.56
-0.53
-0.525
-0.545
-0.635
-0.575
-0.54
-0.595
-0.575
-0.475
-0.5
-0.56
-0.55
-0.525
-0.54
-0.465
-0.5
-0.52
-0.56
-0.59
-0.595
-0.65
-0.515
-0.445
-0.545
-0.565
-0.55
-0.54
-0.58
-0.54
-0.525
-0.54
-0.55
-0.495
-0.555
-0.52
-0.52
-0.525
-0.55
-0.505
-0.515
-0.505
-0.52
-0.465
-0.51
-0.495
-0.515
-0.535
-0.555
-0.57
-0.54
-0.51
-0.495
-0.39
-0.35
-0.475
-0.52
-0.525
-0.475
-0.43
-0.445
-0.43
-0.395
-0.4
-0.415
-0.47
-0.345
-0.37
-0.445
-0.42
-0.405
-0.4
-0.355
-0.365
-0.32
-0.345
-0.38
-0.39
-0.385
-0.5
-0.34
-0.245
-0.21
-0.27
-0.37
-0.385
-0.345
-0.38
-0.435
-0.465
-0.415
-0.285
-0.365
-0.43
-0.385
-0.385
-0.415
-0.43
-0.45
-0.495
-0.56
-0.555
-0.475
-0.445
-0.445
-0.585
-0.59
-0.54
-0.525
-0.575
-0.625
-0.55
-0.51
-0.59
-0.615
-0.56
-0.515
-0.555
-0.52
-0.59
-0.59
-0.635
-0.68
-0.485
-0.465
-0.53
-0.555
-0.58
-0.585
-0.59
-0.575
-0.545
-0.58
-0.57
-0.58
-0.595
-0.58
-0.535
-0.57
-0.62
-0.595
-0.58
-0.565
-0.555
-0.625
-0.575
-0.63
-0.58
-0.595
-0.55
-0.515
-0.565
-0.565
-0.62
-0.59
-0.545
-0.515
-0.59
-0.555
-0.61
-0.575
-0.59
-0.545
-0.555
-0.545
-0.58
-0.665
-0.565
-0.54
-0.585
-0.59
-0.56
-0.55
-0.565
-0.55
-0.59
-0.615
-0.625
-0.57
-0.505
-0.515
-0.56
-0.635
-0.595
-0.565
-0.55
-0.545
-0.6
-0.635
-0.605
-0.555
-0.53
-0.565
-0.62
-0.65
-0.64
-0.52
-0.525
-0.515
-0.565
-0.61
-0.59
-0.55
-0.55
-0.565
-0.585
-0.615
-0.645
-0.6
-0.51
-0.45
-0.545
-0.58
-0.605
-0.58
-0.565
-0.56
-0.595
-0.58
-0.57
-0.59
-0.56
-0.58
-0.585
-0.615
-0.64
-0.58
-0.575
-0.63
-0.635
-0.71
-0.63
-0.525
-0.465
-0.54
-0.665
-0.615
-0.49
-0.545
-0.575
-0.575
-0.555
-0.66
-0.63
-0.53
-0.54
-0.57
-0.61
-0.575
-0.57
-0.58
-0.595
-0.54
-0.525
-0.57
-0.585
-0.605
-0.55
-0.605
-0.61
-0.635
-0.58
-0.6
-0.665
-0.685
-0.635
-0.565
-0.57
-0.585
-0.55
-0.58
-0.525
-0.575
-0.62
-0.62
-0.565
-0.58
-0.575
-0.555
-0.535
-0.565
-0.59
-0.615
-0.635
-0.63
-0.63
-0.6
-0.52
-0.575
-0.575
-0.555
-0.565
-0.61
-0.59
-0.545
-0.555
-0.655
-0.64
-0.645
-0.66
-0.52
-0.585
-0.58
-0.565
-0.555
-0.62
-0.625
-0.605
-0.6
-0.605
-0.595
-0.61
-0.625
-0.61
-0.695
-0.58
-0.54
-0.555
-0.575
-0.52
-0.495
-0.56
-0.59
-0.615
-0.595
-0.575
-0.55
-0.615
-0.62
-0.62
-0.595
-0.665
-0.595
-0.53
-0.565
-0.555
-0.52
-0.455
-0.52
-0.56
-0.56
-0.565
-0.6
-0.59
-0.58
-0.65
-0.545
-0.54
-0.57
-0.555
-0.53
-0.51
-0.59
-0.64
-0.55
-0.6
-0.64
-0.585
-0.6
-0.65
-0.56
-0.565
-0.63
-0.655
-0.655
-0.65
-0.59
-0.635
-0.61
-0.605
-0.59
-0.64
-0.68
-0.675
-0.605
-0.61
-0.565
-0.55
-0.55
-0.57
-0.59
-0.57
-0.56
-0.63
-0.63
-0.59
-0.57
-0.625
-0.64
-0.635
-0.615
-0.59
-0.575
-0.6
-0.635
-0.57
-0.505
-0.47
-0.475
-0.35
-0.2
-0.11
-0.085
-0.06
0.025
0.015
0.03
-0.02
-0.135
-0.19
-0.25
-0.28
-0.42
-0.425
-0.455
-0.535
-0.56
-0.6
-0.58
-0.46
-0.52
-0.595
-0.6
-0.61
-0.595
-0.565
-0.595
-0.65
-0.65
-0.62
-0.585
-0.64
-0.655
-0.655
-0.585
-0.605
-0.57
-0.605
-0.625
-0.62
-0.63
-0.655
-0.69
-0.58
-0.56
-0.57
-0.5
-0.575
-0.595
-0.665
-0.615
-0.57
-0.555
-0.565
-0.61
-0.62
-0.605
-0.58
-0.59
-0.57
-0.57
-0.61
-0.59
-0.62
-0.605
-0.6
-0.61
-0.59
-0.62
-0.605
-0.625
-0.6
-0.55
-0.595
-0.56
-0.55
-0.6
-0.565
-0.56
-0.58
-0.54
-0.645
-0.63
-0.52
-0.48
-0.56
-0.525
-0.555
-0.575
-0.585
-0.53
-0.515
-0.51
-0.515
-0.54
-0.57
-0.545
-0.495
-0.485
-0.46
-0.54
-0.565
-0.5
-0.51
-0.52
-0.475
-0.395
-0.45
-0.45
-0.505
-0.395
-0.4
-0.405
-0.405
-0.47
-0.43
-0.395
-0.33
-0.375
-0.42
-0.475
-0.435
-0.41
-0.39
-0.42
-0.395
-0.405
-0.405
-0.415
-0.39
-0.435
-0.45
-0.475
-0.505
-0.525
-0.45
-0.465
-0.47
-0.485
-0.515
-0.48
-0.52
-0.615
-0.595
-0.62
-0.59
-0.645
-0.635
-0.53
-0.52
-0.525
-0.57
-0.605
-0.575
-0.62
-0.615
-0.63
-0.695
-0.745
-0.66
-0.63
-0.62
-0.595
-0.57
-0.685
-0.735
-0.77
-0.705
-0.64
-0.635
-0.545
-0.595
-0.635
-0.615
-0.69
-0.64
-0.625
-0.72
-0.665
-0.615
-0.64
-0.605
-0.555
-0.56
-0.695
-0.775
-0.775
-0.73
-0.665
-0.655
-0.605
-0.635
-0.655
-0.67
-0.65
-0.695
-0.665
-0.655
-0.575
-0.575
-0.605
-0.595
-0.645
-0.65
-0.695
-0.69
-0.6
-0.61
-0.655
-0.64
-0.62
-0.575
-0.615
-0.58
-0.595
-0.64
-0.685
-0.645
-0.61
-0.695
-0.66
-0.635
-0.62
-0.59
-0.63
-0.67
-0.655
-0.655
-0.64
-0.645
-0.66
-0.69
-0.655
-0.625
-0.625
-0.65
-0.57
-0.645
-0.735
-0.72
-0.615
-0.635
-0.62
-0.665
-0.635
-0.58
-0.635
-0.66
-0.7
-0.76
-0.64
-0.6
-0.65
-0.68
-0.68
-0.59
-0.58
-0.65
-0.635
-0.615
-0.68
-0.695
-0.635
-0.655
-0.675
-0.64
-0.61
-0.665
-0.65
-0.565
-0.61
-0.605
-0.615
-0.6
-0.62
-0.595
-0.625
-0.62
-0.615
-0.62
-0.615
-0.63
-0.595
-0.585
-0.635
-0.63
-0.645
-0.655
-0.645
-0.665
-0.64
-0.625
-0.635
-0.64
-0.585
-0.635
-0.62
-0.585
-0.54
-0.595
-0.715
-0.72
-0.69
-0.685
-0.655
-0.57
-0.57
-0.605
-0.715
-0.88
-0.67
-0.505
-0.58
-0.645
-0.62
-0.51
-0.515
-0.555
-0.64
-0.615
-0.65
-0.645
-0.61
-0.625
-0.595
-0.585
-0.61
-0.575
-0.59
-0.575
-0.585
-0.61
-0.61
-0.595
-0.59
-0.615
-0.62
-0.56
-0.57
-0.6
-0.53
-0.535
-0.505
-0.545
-0.655
-0.6
-0.555
-0.505
-0.545
-0.56
-0.665
-0.61
-0.585
-0.52
-0.54
-0.61
-0.61
-0.535
-0.645
-0.72
-0.665
-0.63
-0.645
-0.685
-0.645
-0.605
-0.58
-0.55
-0.605
-0.665
-0.665
-0.655
-0.64
-0.6
-0.505
-0.565
-0.62
-0.565
-0.645
-0.675
-0.655
-0.63
-0.635
-0.615
-0.565
-0.555
-0.605
-0.565
-0.585
-0.625
-0.68
-0.67
-0.625
-0.61
-0.545
-0.56
-0.58
-0.55
-0.56
-0.51
-0.475
-0.44
-0.315
-0.23
-0.115
-0.065
-0.05
-0.01
-0.03
-0.065
-0.165
-0.23
-0.235
-0.21
-0.295
-0.49
-0.58
-0.585
-0.655
-0.635
-0.535
-0.535
-0.595
-0.625
-0.605
-0.49
-0.45
-0.54
-0.585
-0.53
-0.555
-0.565
-0.57
-0.5
-0.52
-0.55
-0.62
-0.58
-0.58
-0.565
-0.545
-0.535
-0.485
-0.62
-0.725
-0.695
-0.6
-0.53
-0.525
-0.54
-0.53
-0.585
-0.595
-0.535
-0.56
-0.63
-0.695
-0.565
-0.61
-0.53
-0.535
-0.525
-0.5
-0.5
-0.52
-0.54
-0.51
-0.525
-0.6
-0.57
-0.535
-0.52
-0.545
-0.535
-0.53
-0.525
-0.51
-0.52
-0.555
-0.565
-0.465
-0.54
-0.6
-0.51
-0.495
-0.455
-0.485
-0.51
-0.53
-0.49
-0.485
-0.585
-0.5
-0.42
-0.44
-0.46
-0.485
-0.48
-0.53
-0.44
-0.345
-0.39
-0.455
-0.41
-0.425
-0.445
-0.385
-0.325
-0.36
-0.375
-0.41
-0.39
-0.4
-0.385
-0.45
-0.325
-0.305
-0.405
-0.405
-0.355
-0.34
-0.32
-0.365
-0.435
-0.47
-0.38
-0.28
-0.335
-0.375
-0.345
-0.295
-0.295
-0.3
-0.37
-0.375
-0.415
-0.48
-0.465
-0.42
-0.495
-0.54
-0.515
-0.455
-0.42
-0.515
-0.575
-0.55
-0.525
-0.525
-0.52
-0.59
-0.55
-0.53
-0.53
-0.555
-0.515
-0.51
-0.585
-0.57
-0.63
-0.68
-0.68
-0.545
-0.52
-0.51
-0.495
-0.435
-0.59
-0.635
-0.62
-0.67
-0.68
-0.625
-0.495
-0.505
-0.53
-0.58
-0.65
-0.645
-0.63
-0.59
-0.615
-0.56
-0.56
-0.52
-0.52
-0.49
-0.545
-0.585
-0.56
-0.57
-0.535
-0.52
-0.59
-0.665
-0.59
-0.525
-0.575
-0.58
-0.615
-0.605
-0.505
-0.49
-0.53
-0.475
-0.52
-0.57
-0.63
-0.555
-0.53
-0.51
-0.535
-0.5
-0.515
-0.535
-0.555
-0.545
-0.56
-0.57
-0.595
-0.6
-0.575
-0.505
-0.59
-0.56
-0.46
-0.495
-0.53
-0.52
-0.535
-0.575
-0.57
-0.495
-0.455
-0.38
-0.475
-0.585
-0.565
-0.535
-0.565
-0.535
-0.515
-0.525
-0.56
-0.605
-0.61
-0.565
-0.515
-0.43
-0.455
-0.53
-0.48
-0.465
-0.555
-0.515
-0.54
-0.58
-0.545
-0.54
-0.52
-0.545
-0.495
-0.505
-0.51
-0.615
-0.575
-0.56
-0.605
-0.52
-0.415
-0.44
-0.5
-0.52
-0.475
-0.445
-0.47
-0.52
-0.585
-0.575
-0.515
-0.515
-0.505
-0.49
-0.49
-0.495
-0.55
-0.56
-0.555
-0.555
-0.635
-0.62
-0.48
-0.455
-0.475
-0.51
-0.435
-0.46
-0.495
-0.56
-0.495
-0.56
-0.55
-0.46
-0.4
-0.445
-0.525
-0.535
-0.53
-0.46
-0.555
-0.54
-0.5
-0.475
-0.5
-0.505
-0.495
-0.52
-0.43
-0.365
-0.39
-0.54
-0.49
-0.52
-0.52
-0.55
-0.54
-0.475
-0.495
-0.595
-0.56
-0.5
-0.48
-0.62
-0.67
-0.55
-0.44
-0.515
-0.47
-0.47
-0.605
-0.555
-0.51
-0.535
-0.54
-0.56
-0.595
-0.615
-0.58
-0.52
-0.54
-0.55
-0.52
-0.525
-0.52
-0.575
-0.545
-0.52
-0.595
-0.595
-0.545
-0.555
-0.545
-0.555
-0.535
-0.525
-0.585
-0.6
-0.585
-0.6
-0.615
-0.605
-0.55
-0.465
-0.46
-0.385
-0.3
-0.36
-0.19
-0.075
-0.06
-0.03
0.035
0.015
-0.015
-0.145
-0.15
-0.225
-0.285
-0.365
-0.385
-0.445
-0.5
-0.52
-0.505
-0.52
-0.55
-0.62
-0.675
-0.79
-0.59
-0.36
-0.45
-0.555
-0.535
-0.55
-0.54
-0.565
-0.555
-0.59
-0.605
-0.545
-0.525
-0.56
-0.6
-0.515
-0.56
-0.515
-0.58
-0.52
-0.56
-0.6
-0.585
-0.575
-0.56
-0.585
-0.595
-0.57
-0.54
-0.545
-0.62
-0.575
-0.57
-0.625
-0.705
-0.635
-0.495
-0.48
-0.555
-0.59
-0.58
-0.51
-0.495
-0.575
-0.575
-0.58
-0.65
-0.565
-0.525
-0.515
-0.55
-0.52
-0.515
-0.475
-0.5
-0.525
-0.565
-0.56
-0.56
-0.595
-0.61
-0.545
-0.51
-0.535
-0.48
-0.505
-0.52
-0.54
-0.59
-0.59
-0.485
-0.455
-0.495
-0.46
-0.46
-0.51
-0.44
-0.43
-0.435
-0.45
-0.44
-0.405
-0.44
-0.395
-0.395
-0.43
-0.47
-0.44
-0.465
-0.445
-0.355
-0.35
-0.42
-0.445
-0.435
-0.425
-0.47
-0.435
-0.365
-0.395
-0.415
-0.335
-0.445
-0.4
-0.37
-0.385
-0.385
-0.38
-0.425
-0.45
-0.445
-0.435
-0.485
-0.495
-0.48
-0.5
-0.53
-0.53
-0.54
-0.555
-0.54
-0.515
-0.56
-0.67
-0.695
-0.62
-0.56
-0.56
-0.57
-0.56
-0.57
-0.645
-0.695
-0.68
-0.62
-0.645
-0.64
-0.7
-0.635
-0.61
-0.575
-0.555
-0.575
-0.57
-0.59
-0.67
-0.72
-0.7
-0.685
-0.655
-0.66
-0.625
-0.655
-0.64
-0.68
-0.655
-0.585
-0.7
-0.7
-0.69
-0.57
-0.66
-0.66
-0.7
-0.72
-0.69
-0.675
-0.69
-0.69
-0.64
-0.59
-0.65
-0.645
-0.61
-0.645
-0.74
-0.77
-0.67
-0.625
-0.72
-0.685
-0.63
-0.64
-0.65
-0.635
-0.685
-0.69
-0.67
-0.665
-0.685
-0.655
-0.685
-0.65
-0.68
-0.695
-0.71
-0.685
-0.675
-0.84
-0.76
-0.63
-0.725
-0.655
-0.66
-0.59
-0.625
-0.625
-0.675
-0.725
-0.71
-0.68
-0.725
-0.74
-0.705
-0.68
-0.65
-0.67
-0.695
-0.72
-0.675
-0.65
-0.71
-0.795
-0.79
-0.69
-0.74
-0.73
-0.68
-0.655
-0.725
-0.795
-0.8
-0.74
-0.715
-0.685
-0.61
-0.66
-0.665
-0.68
-0.7
-0.765
-0.715
-0.71
-0.66
-0.645
-0.7
-0.725
-0.8
-0.905
-0.76
-0.655
-0.62
-0.655
-0.745
-0.72
-0.71
-0.77
-0.735
-0.755
-0.735
-0.755
-0.755
-0.74
-0.745
-0.81
-0.795
-0.685
-0.67
-0.735
-0.72
-0.695
-0.755
-0.76
-0.73
-0.77
-0.77
-0.705
-0.745
-0.79
-0.76
-0.69
-0.715
-0.66
-0.725
-0.85
-0.825
-0.75
-0.76
-0.75
-0.725
-0.68
-0.69
-0.685
-0.68
-0.78
-0.84
-0.79
-0.735
-0.725
-0.73
-0.75
-0.78
-0.74
-0.74
-0.705
-0.675
-0.695
-0.72
-0.765
-0.715
-0.72
-0.74
-0.7
-0.685
-0.79
-0.785
-0.725
-0.71
-0.735
-0.745
-0.705
-0.78
-0.78
-0.695
-0.785
-0.86
-0.765
-0.77
-0.83
-0.775
-0.805
-0.815
-0.805
-0.81
-0.835
-0.735
-0.685
-0.775
-0.78
-0.785
-0.805
-0.745
-0.74
-0.785
-0.805
-0.885
-0.815
-0.815
-0.83
-0.755
-0.76
-0.805
-0.815
-0.72
-0.825
-0.82
-0.765
-0.815
-0.82
-0.79
-0.765
-0.77
-0.79
-0.785
-0.765
-0.695
-0.61
-0.53
-0.43
-0.31
-0.29
-0.23
-0.19
-0.14
-0.25
-0.31
-0.235
-0.325
-0.425
-0.445
-0.505
-0.62
-0.64
-0.695
-0.735
-0.805
-0.86
-0.795
-0.685
-0.67
-0.725
-0.785
-0.78
-0.705
-0.75
-0.805
-0.77
-0.785
-0.775
-0.785
-0.78
-0.76
-0.79
-0.855
-0.805
-0.825
-0.735
-0.79
-0.785
-0.8
-0.81
-0.785
-0.81
-0.825
-0.835
-0.785
-0.75
-0.74
-0.755
-0.81
-0.815
-0.83
-0.79
-0.8
-0.81
-0.8
-0.765
-0.78
-0.775
-0.77
-0.805
-0.825
-0.85
-0.87
-0.795
-0.765
-0.69
-0.79
-0.815
-0.79
-0.835
-0.835
-0.825
-0.76
-0.77
-0.805
-0.725
-0.73
-0.75
-0.755
-0.765
-0.73
-0.76
-0.815
-0.785
-0.795
-0.745
-0.74
-0.715
-0.71
-0.76
-0.73
-0.68
-0.685
-0.735
-0.765
-0.75
-0.74
-0.715
-0.79
-0.765
-0.64
-0.7
-0.715
-0.73
-0.73
-0.665
-0.625
-0.6
-0.625
-0.545
-0.61
-0.64
-0.675
-0.69
-0.64
-0.565
-0.62
-0.6
-0.665
-0.67
-0.645
-0.655
-0.66
-0.675
-0.63
-0.63
-0.645
-0.66
-0.725
-0.72
-0.72
-0.75
-0.795
-0.785
-0.72
-0.7
-0.76
-0.765
-0.79
-0.8
-0.805
-0.8
-0.845
-0.84
-0.9
-0.865
-0.82
-0.815
-0.825
-0.85
-0.8
-0.825
-0.82
-0.9
-0.92
-0.915
-0.905
-0.895
-0.88
-0.915
-0.895
-0.905
-0.945
-0.935
-0.925
-0.935
-0.89
-0.835
-0.87
-0.935
-0.91
-0.94
-0.925
-0.92
-0.87
-0.91
-0.865
-0.91
-0.9
-0.945
-0.91
-0.905
-0.945
-0.94
-0.955
-0.9
-0.82
-0.88
-0.955
-0.96
-0.895
-0.94
-0.945
-0.92
-0.895
-0.92
-0.905
-0.905
-0.93
-0.92
-0.955
-0.98
-0.965
-0.925
-0.975
-0.9
-0.92
-0.91
-0.925
-0.93
-0.92
-0.905
-0.92
-0.915
-0.97
-0.95
-0.865
-0.915
-0.96
-1.0
-0.91
-0.86
-0.915
-0.93
-0.935
-0.935
-0.965
-0.995
-0.93
-0.92
-0.93
-0.94
-0.905
-0.89
-0.945
-0.97
-0.935
-0.925
-0.98
-0.98
-0.93
-0.97
-1.005
-0.905
-0.89
-0.94
-0.965
-0.96
-0.92
-0.925
-0.88
-0.905
-0.935
-0.925
-0.91
-0.975
-0.97
-1.005
-1.015
-0.87
-0.91
-0.965
-0.95
-0.935
-0.915
-0.945
-0.92
-0.92
-0.94
-0.935
-0.985
-0.995
-0.97
-0.94
-0.97
-0.96
-0.9
-0.945
-0.945
-1.02
-0.985
-0.935
-0.905
-0.875
-0.96
-0.99
-0.97
-0.955
-0.925
-0.955
-0.96
-0.97
-0.985
-0.955
-0.995
-1.005
-0.92
-0.875
-0.91
-0.91
-0.92
-0.955
-0.93
-0.985
-0.985
-1.0
-0.95
-1.03
-1.085
-1.005
-0.805
-0.89
-0.935
-0.925
-1.005
-0.91
-0.915
-1.04
-0.885
-0.85
-0.895
-0.915
-0.915
-0.94
-0.965
-0.955
-0.92
-0.895
-0.92
-0.94
-0.955
-0.88
-0.88
-0.945
-0.97
-0.99
-0.91
-0.91
-0.94
-0.865
-0.86
-0.885
-0.94
-0.915
-0.905
-0.915
-0.885
-0.925
-0.92
-0.925
-0.94
-0.98
-0.995
-1.005
-1.03
-1.005
-0.975
-0.94
-0.855
-0.89
-0.975
-1.015
-0.95
-1.01
-0.955
-0.955
-0.94
-0.94
-0.925
-0.915
-0.98
-0.97
-0.92
-0.965
-0.99
-0.985
-0.93
-0.9
-0.94
-0.975
-1.11
-1.17
-1.02
-0.955
-1.05
-0.95
-0.865
-1.01
-0.98
-0.865
-0.8
-0.8
-0.785
-0.735
-0.59
-0.51
-0.43
-0.39
-0.275
-0.275
-0.32
-0.355
-0.465
-0.535
-0.535
-0.61
-0.69
-0.825
-0.88
-0.87
-0.945
-0.965
-0.975
-0.91
-0.955
-0.96
-0.93
-0.855
-0.875
-0.91
-0.93
-0.945
-0.94
-1.01
-0.97
-0.845
-0.97
-0.94
-0.935
-0.965
-0.98
-0.995
-0.975
-0.94
-0.92
-0.95
-0.955
-0.945
-0.985
-0.99
-0.995
-0.895
-0.895
-0.94
-0.995
-0.985
-0.965
-0.91
-0.92
-0.935
-0.97
-0.915
-0.94
-0.925
-0.955
-0.955
-1.03
-0.94
-0.865
-0.825
-0.865
-0.92
-0.96
-0.895
-0.925
-0.92
-0.895
-0.86
-0.865
-0.925
-0.875
-0.925
-0.97
-0.945
-0.85
-0.85
-0.91
-0.925
-0.885
-0.88
-0.965
-0.895
-0.83
-0.8
-0.845
-0.82
-0.81
-0.79
-0.845
-0.82
-0.825
-0.885
-0.83
-0.78
-0.72
-0.735
-0.86
-0.855
-0.81
-0.765
-0.8
-0.82
-0.815
-0.755
-0.705
-0.73
-0.785
-0.735
-0.73
-0.735
-0.735
-0.705
-0.73
-0.715
-0.69
-0.695
-0.65
-0.735
-0.665
-0.605
-0.745
-0.69
-0.68
-0.72
-0.67
-0.695
-0.835
-0.825
-0.81
-0.795
-0.77
-0.77
-0.84
-0.855
-0.83
-0.795
-0.83
-0.855
-0.85
-0.89
-0.875
-0.87
-0.905
-0.85
-0.88
-0.895
-0.97
-1.015
-0.89
-0.855
-0.93
-0.92
-0.93
-0.935
-0.895
-0.89
-0.88
-0.895
-0.94
-0.945
-0.935
-0.98
-0.985
-0.975
-0.915
-0.95
-0.935
-0.87
-0.92
-0.9
-0.905
-0.925
-0.98
-0.98
-0.95
-0.915
-0.96
-0.925
-0.905
-0.905
-0.86
-0.87
-0.93
-0.98
-0.95
-0.955
-0.89
-0.855
-0.895
-0.985
-0.96
-0.93
-0.97
-0.96
-0.925
-0.845
-0.84
-0.91
-0.875
-0.915
-0.915
-0.915
-0.89
-0.91
-0.895
-0.895
-0.915
-0.88
-0.9
-0.9
-0.925
-0.985
-1.0
-0.935
-0.87
-0.825
-0.86
-0.875
-0.915
-0.935
-0.965
-0.95
-0.95
-0.89
-0.855
-0.86
-0.895
-0.94
-0.975
-1.13
-1.03
-0.86
-0.795
-0.83
-0.86
-0.88
-0.92
-0.975
-0.935
-0.84
-0.91
-0.905
-0.945
-0.855
-0.865
-0.89
-0.955
-0.92
-0.935
-0.93
-0.96
-0.805
-0.815
-0.875
-0.86
-0.89
-0.905
-0.895
-0.91
-0.94
-0.925
-0.945
-0.905
-0.865
-0.83
-0.835
-0.875
-0.865
-0.855
-0.89
-0.88
-0.91
-0.915
-0.88
-0.835
-0.83
-0.89
-0.94
-0.92
-0.835
-0.795
-0.875
-0.88
-0.845
-0.895
-0.89
-0.895
-0.87
-0.925
-0.895
-0.84
-0.87
-0.845
-0.835
-0.87
-0.815
-0.815
-0.8
-0.87
-0.9
-0.87
-0.795
-0.79
-0.81
-0.83
-0.835
-0.815
-0.86
-0.835
-0.87
-0.84
-0.85
-0.785
-0.785
-0.79
-0.76
-0.88
-0.85
-0.81
-0.73
-0.82
-0.855
-0.775
-0.745
-0.765
-0.775
-0.76
-0.715
-0.78
-0.84
-0.895
-0.89
-0.77
-0.745
-0.84
-0.84
-0.815
-0.8
-0.82
-0.81
-0.86
-0.845
-0.82
-0.805
-0.81
-0.83
-0.815
-0.845
-0.945
-0.795
-0.745
-0.85
-0.86
-0.835
-0.815
-0.785
-0.85
-0.83
-0.78
-0.82
-0.81
-0.815
-0.79
-0.735
-0.805
-0.86
-0.85
-0.83
-0.835
-0.835
-0.86
-0.85
-0.785
-0.785
-0.73
-0.77
-0.71
-0.605
-0.67
-0.505
-0.375
-0.26
-0.215
-0.19
-0.13
-0.19
-0.315
-0.42
-0.42
-0.5
-0.55
-0.59
-0.635
-0.71
-0.795
-0.72
-0.65
-0.67
-0.775
-0.84
-0.785
-0.755
-0.76
-0.77
-0.695
-0.71
-0.76
-0.795
-0.815
-0.79
-0.81
-0.74
-0.71
-0.745
-0.73
-0.74
-0.775
-0.785
-0.795
-0.835
-0.755
-0.755
-0.745
-0.715
-0.685
-0.745
-0.745
-0.765
-0.765
-0.725
-0.77
-0.77
-0.77
-0.66
-0.71
-0.725
-0.705
-0.75
-0.78
-0.76
-0.735
-0.74
-0.71
-0.73
-0.77
-0.725
-0.725
-0.72
-0.7
-0.685
-0.66
-0.685
-0.705
-0.7
-0.72
-0.765
-0.725
-0.695
-0.66
-0.67
-0.685
-0.7
-0.625
-0.6
-0.615
-0.745
-0.665
-0.645
-0.61
-0.625
-0.69
-0.655
-0.625
-0.595
-0.62
-0.6
-0.6
-0.675
-0.655
-0.58
-0.62
-0.64
-0.615
-0.66
-0.515
-0.51
-0.51
-0.545
-0.51
-0.54
-0.59
-0.53
-0.53
-0.485
-0.415
-0.5
-0.55
-0.57
-0.635
-0.545
-0.475
-0.445
-0.455
-0.475
-0.475
-0.465
-0.495
-0.585
-0.525
-0.48
-0.54
-0.525
-0.48
-0.535
-0.545
-0.58
-0.585
-0.645
-0.61
-0.575
-0.59
-0.66
-0.675
-0.685
-0.74
-0.725
-0.635
-0.615
-0.7
-0.695
-0.685
-0.675
-0.68
-0.705
-0.72
-0.72
-0.715
-0.715
-0.735
-0.73
-0.715
-0.76
-0.77
-0.705
-0.76
-0.73
-0.765
-0.79
-0.805
-0.725
-0.705
-0.72
-0.7
-0.685
-0.72
-0.73
-0.725
-0.73
-0.73
-0.715
-0.715
-0.735
-0.795
-0.785
-0.825
-0.735
-0.68
-0.695
-0.73
-0.77
-0.69
-0.705
-0.68
-0.69
-0.725
-0.77
-0.775
-0.705
-0.67
-0.715
-0.73
-0.71
-0.72
-0.725
-0.725
-0.69
-0.695
-0.715
-0.74
-0.755
-0.755
-0.705
-0.72
-0.71
-0.715
-0.74
-0.685
-0.645
-0.69
-0.72
-0.72
-0.725
-0.62
-0.68
-0.705
-0.765
-0.79
-0.68
-0.615
-0.665
-0.685
-0.705
-0.705
-0.715
-0.73
-0.675
-0.77
-0.74
-0.735
-0.74
-0.73
-0.655
-0.665
-0.705
-0.64
-0.655
-0.705
-0.715
-0.685
-0.71
-0.695
-0.695
-0.755
-0.775
-0.745
-0.73
-0.695
-0.695
-0.665
-0.71
-0.675
-0.645
-0.615
-0.665
-0.66
-0.67
-0.7
-0.675
-0.745
-0.82
-0.72
-0.58
-0.69
-0.755
-0.74
-0.68
-0.68
-0.73
-0.715
-0.695
-0.655
-0.635
-0.69
-0.705
-0.73
-0.76
-0.7
-0.615
-0.675
-0.66
-0.625
-0.635
-0.675
-0.67
-0.635
-0.645
-0.665
-0.62
-0.66
-0.74
-0.635
-0.625
-0.69
-0.685
-0.645
-0.66
-0.695
-0.685
-0.685
-0.61
-0.585
-0.575
-0.625
-0.62
-0.67
-0.63
-0.6
-0.635
-0.645
-0.63
-0.635
-0.615
-0.685
-0.685
-0.63
-0.685
-0.73
-0.68
-0.675
-0.66
-0.67
-0.615
-0.635
-0.735
-0.705
-0.705
-0.715
-0.705
-0.695
-0.69
-0.7
-0.645
-0.725
-0.685
-0.68
-0.635
-0.67
-0.665
-0.64
-0.7
-0.69
-0.71
-0.665
-0.74
-0.795
-0.685
-0.58
-0.605
-0.665
-0.625
-0.63
-0.585
-0.64
-0.72
-0.72
-0.655
-0.545
-0.56
-0.53
-0.515
-0.38
-0.325
-0.245
-0.11
-0.05
-0.03
-0.04
-0.035
-0.055
-0.21
-0.27
-0.34
-0.34
-0.34
-0.475
-0.605
-0.63
-0.615
-0.595
-0.565
-0.57
-0.6
-0.615
-0.64
-0.695
-0.67
-0.715
-0.655
-0.57
-0.615
-0.63
-0.595
-0.615
-0.67
-0.645
-0.61
-0.625
-0.71
-0.585
-0.62
-0.655
-0.66
-0.65
-0.64
-0.63
-0.625
-0.58
-0.565
-0.63
-0.585
-0.55
-0.635
-0.625
-0.6
-0.635
-0.59
-0.565
-0.65
-0.66
-0.635
-0.57
-0.615
-0.635
-0.715
-0.575
-0.555
-0.54
-0.59
-0.56
-0.635
-0.585
-0.56
-0.58
-0.575
-0.605
-0.565
-0.585
-0.565
-0.54
-0.525
-0.63
-0.645
-0.59
-0.53
-0.49
-0.505
-0.605
-0.565
-0.585
-0.605
-0.515
-0.515
-0.63
-0.63
-0.44
-0.42
-0.515
-0.52
-0.46
-0.445
-0.505
-0.46
-0.46
-0.48
-0.535
-0.455
-0.42
-0.345
-0.385
-0.47
-0.4
-0.405
-0.44
-0.48
-0.52
-0.415
-0.365
-0.415
-0.395
-0.37
-0.38
-0.385
-0.395
-0.425
-0.365
-0.395
-0.425
-0.44
-0.44
-0.36
-0.445
-0.485
-0.415
-0.37
-0.375
-0.43
-0.455
-0.44
-0.405
-0.405
-0.35
-0.49
-0.6
-0.6
-0.635
-0.69
-0.595
-0.515
-0.495
-0.525
-0.53
-0.55
-0.525
-0.565
-0.615
-0.59
-0.6
-0.65
-0.605
-0.59
-0.585
-0.545
-0.565
-0.575
-0.63
-0.63
-0.575
-0.615
-0.69
-0.57
-0.53
-0.535
-0.545
-0.63
-0.68
-0.6
-0.495
-0.575
-0.605
-0.58
-0.555
-0.555
-0.58
-0.605
-0.61
-0.615
-0.585
-0.555
-0.555
-0.575
-0.565
-0.55
-0.59
-0.575
-0.595
-0.61
-0.645
-0.61
-0.6
-0.54
-0.54
-0.555
-0.6
-0.595
-0.65
-0.615
-0.565
-0.58
-0.615
-0.585
-0.525
-0.585
-0.565
-0.54
-0.555
-0.57
-0.635
-0.65
-0.605
-0.525
-0.555
-0.53
-0.53
-0.535
-0.585
-0.57
-0.585
-0.595
-0.56
-0.585
-0.6
-0.585
-0.535
-0.545
-0.57
-0.595
-0.59
-0.635
-0.6
-0.585
-0.585
-0.605
-0.585
-0.585
-0.63
-0.59
-0.54
-0.505
-0.435
-0.505
-0.58
-0.595
-0.555
-0.545
-0.58
-0.625
-0.655
-0.595
-0.565
-0.485
-0.505
-0.595
-0.575
-0.6
-0.57
-0.555
-0.52
-0.565
-0.57
-0.605
-0.625
-0.54
-0.585
-0.59
-0.58
-0.555
-0.545
-0.525
-0.545
-0.625
-0.635
-0.53
-0.49
-0.575
-0.59
-0.615
-0.555
-0.565
-0.515
-0.51
-0.525
-0.49
-0.5
-0.52
-0.59
-0.605
-0.6
-0.535
-0.46
-0.495
-0.53
-0.545
-0.55
-0.54
-0.525
-0.495
-0.525
-0.53
-0.485
-0.51
-0.56
-0.56
-0.5
-0.425
-0.47
-0.445
-0.56
-0.575
-0.45
-0.455
-0.535
-0.545
-0.56
-0.53
-0.535
-0.51
-0.575
-0.495
-0.48
-0.51
-0.605
-0.66
-0.57
-0.57
-0.46
-0.575
-0.58
-0.595
-0.5
-0.58
-0.56
-0.59
-0.53
-0.56
-0.495
-0.43
-0.58
-0.535
-0.515
-0.54
-0.605
-0.61
-0.56
-0.59
-0.58
-0.58
-0.595
-0.575
-0.525
-0.49
-0.56
-0.545
-0.51
-0.495
-0.515
-0.53
-0.515
-0.515
-0.455
-0.41
-0.4
-0.275
-0.155
-0.13
-0.015
-0.005
0.095
0.12
0.155
0.155
0.09
-0.065
-0.205
-0.26
-0.345
-0.41
-0.5
-0.53
-0.49
-0.5
-0.43
-0.49
-0.53
-0.505
-0.455
-0.48
-0.505
-0.54
-0.53
-0.51
-0.51
-0.48
-0.54
-0.585
-0.555
-0.62
-0.575
-0.425
-0.42
-0.47
-0.52
-0.52
-0.51
-0.51
-0.46
-0.415
-0.52
-0.58
-0.555
-0.48
-0.45
-0.525
-0.545
-0.54
-0.495
-0.565
-0.535
-0.495
-0.485
-0.455
-0.46
-0.5
-0.545
-0.495
-0.495
-0.495
-0.54
-0.5
-0.545
-0.5
-0.475
-0.43
-0.405
-0.445
-0.505
-0.485
-0.49
-0.445
-0.425
-0.405
-0.485
-0.51
-0.525
-0.495
-0.43
-0.48
-0.425
-0.385
-0.44
-0.435
-0.46
-0.45
-0.49
-0.475
-0.41
-0.465
-0.48
-0.42
-0.47
-0.44
-0.385
-0.385
-0.38
-0.375
-0.33
-0.355
-0.435
-0.415
-0.34
-0.375
-0.44
-0.43
-0.35
-0.32
-0.315
-0.31
-0.355
-0.37
-0.33
-0.245
-0.35
-0.41
-0.39
-0.4
-0.36
-0.33
-0.315
-0.325
-0.345
-0.36
-0.38
-0.415
-0.375
-0.415
-0.5
-0.415
-0.39
-0.32
-0.355
-0.415
-0.395
-0.39
-0.435
-0.44
-0.465
-0.57
-0.545
-0.49
-0.5
-0.58
-0.565
-0.53
-0.515
-0.53
-0.57
-0.58
-0.6
-0.5
-0.5
-0.535
-0.545
-0.58
-0.605
-0.6
-0.61
-0.64
-0.59
-0.61
-0.565
-0.585
-0.615
-0.63
-0.59
-0.535
-0.53
-0.535
-0.555
-0.555
-0.56
-0.605
-0.67
-0.595
-0.54
-0.575
-0.6
-0.645
-0.565
-0.56
-0.59
-0.53
-0.545
-0.57
-0.53
-0.54
-0.625
-0.605
-0.545
-0.59
-0.615
-0.595
-0.58
-0.575
-0.555
-0.625
-0.62
-0.56
-0.56
-0.655
-0.59
-0.57
-0.515
-0.565
-0.58
-0.61
-0.63
-0.625
-0.575
-0.53
-0.515
-0.575
-0.535
-0.605
-0.59
-0.575
-0.57
-0.615
-0.605
-0.6
-0.52
-0.505
-0.55
-0.6
-0.64
-0.66
-0.685
-0.59
-0.595
-0.53
-0.54
-0.535
-0.53
-0.56
-0.55
-0.565
-0.62
-0.61
-0.555
-0.58
-0.565
-0.6
-0.59
-0.585
-0.54
-0.555
-0.625
-0.54
-0.51
-0.56
-0.545
-0.6
-0.6
-0.59
-0.58
-0.585
-0.56
-0.565
-0.525
-0.51
-0.51
-0.605
-0.61
-0.615
-0.595
-0.615
-0.59
-0.63
-0.545
-0.595
-0.605
-0.455
-0.505
-0.53
-0.54
-0.575
-0.61
-0.61
-0.555
-0.57
-0.58
-0.58
-0.565
-0.53
-0.495
-0.5
-0.53
-0.54
-0.485
-0.485
-0.53
-0.575
-0.56
-0.57
-0.53
-0.51
-0.49
-0.515
-0.49
-0.56
-0.58
-0.525
-0.585
-0.55
-0.595
-0.61
-0.555
-0.415
-0.495
-0.54
-0.44
-0.415
-0.505
-0.6
-0.56
-0.555
-0.55
-0.505
-0.49
-0.545
-0.57
-0.54
-0.6
-0.605
-0.61
-0.54
-0.57
-0.545
-0.575
-0.58
-0.535
-0.455
-0.475
-0.55
-0.57
-0.535
-0.57
-0.55
-0.53
-0.58
-0.58
-0.62
-0.66
-0.66
-0.49
-0.51
-0.555
-0.56
-0.595
-0.575
-0.53
-0.54
-0.58
-0.54
-0.55
-0.55
-0.57
-0.485
-0.455
-0.38
-0.375
-0.325
-0.235
-0.145
-0.07
0.005
0.015
0.07
0.045
0.07
-0.06
-0.11
-0.23
-0.265
-0.325
-0.375
-0.41
-0.56
-0.47
-0.43
-0.5
-0.495
-0.5
-0.505
-0.505
-0.53
-0.59
-0.62
-0.605
-0.515
-0.44
-0.465
-0.51
-0.505
-0.51
-0.53
-0.54
-0.53
-0.51
-0.525
-0.515
-0.54
-0.525
-0.475
-0.47
-0.54
-0.58
-0.615
-0.495
-0.51
-0.52
-0.495
-0.465
-0.47
-0.57
-0.575
-0.53
-0.53
-0.54
-0.5
-0.6
-0.51
-0.475
-0.435
-0.485
-0.525
-0.56
-0.575
-0.535
-0.43
-0.48
-0.485
-0.46
-0.445
-0.515
-0.485
-0.47
-0.4
-0.49
-0.49
-0.455
-0.43
-0.46
-0.44
-0.435
-0.495
-0.435
-0.37
-0.375
-0.42
-0.435
-0.47
-0.49
-0.485
-0.355
-0.36
-0.34
-0.315
-0.36
-0.43
-0.425
-0.45
-0.455
-0.35
-0.3
-0.355
-0.355
-0.335
-0.29
-0.26
-0.31
-0.305
-0.3
-0.355
-0.36
-0.365
-0.265
-0.205
-0.285
-0.36
-0.275
-0.295
-0.26
-0.26
-0.29
-0.365
-0.3
-0.265
-0.23
-0.255
-0.305
-0.31
-0.355
-0.29
-0.25
-0.255
-0.29
-0.335
-0.365
-0.39
-0.335
-0.36
-0.405
-0.395
-0.405
-0.445
-0.38
-0.395
-0.465
-0.49
-0.49
-0.46
-0.415
-0.425
-0.46
-0.455
-0.415
-0.415
-0.47
-0.425
-0.43
-0.53
-0.54
-0.555
-0.515
-0.48
-0.495
-0.49
-0.515
-0.5
-0.445
-0.425
-0.44
-0.465
-0.45
-0.45
-0.46
-0.555
-0.53
-0.44
-0.43
-0.475
-0.525
-0.465
-0.46
-0.485
-0.5
-0.455
-0.405
-0.41
-0.465
-0.53
-0.4
-0.49
-0.485
-0.4
-0.41
-0.42
-0.455
-0.48
-0.435
-0.425
-0.41
-0.47
-0.57
-0.48
-0.375
-0.41
-0.425
-0.42
-0.465
-0.455
-0.405
-0.41
-0.5
-0.53
-0.535
-0.47
-0.315
-0.305
-0.435
-0.53
-0.485
-0.46
-0.465
-0.36
-0.3
-0.455
-0.545
-0.575
-0.475
-0.465
-0.43
-0.38
-0.385
-0.45
-0.425
-0.42
-0.475
-0.52
-0.53
-0.49
-0.42
-0.435
-0.435
-0.385
-0.395
-0.415
-0.395
-0.505
-0.55
-0.505
-0.445
-0.395
-0.385
-0.455
-0.405
-0.47
-0.47
-0.465
-0.56
-0.595
-0.5
-0.41
-0.4
-0.425
-0.47
-0.4
-0.465
-0.535
-0.425
-0.44
-0.35
-0.425
-0.44
-0.46
-0.42
-0.445
-0.44
-0.4
-0.375
-0.365
-0.465
-0.43
-0.405
-0.42
-0.405
-0.38
-0.48
-0.475
-0.425
-0.395
-0.39
-0.385
-0.42
-0.435
-0.435
-0.415
-0.39
-0.365
-0.43
-0.415
-0.345
-0.36
-0.36
-0.365
-0.38
-0.425
-0.4
-0.445
-0.37
-0.38
-0.38
-0.35
-0.355
-0.41
-0.465
-0.415
-0.385
-0.425
-0.475
-0.525
-0.465
-0.43
-0.435
-0.31
-0.365
-0.42
-0.44
-0.425
-0.43
-0.45
-0.395
-0.365
-0.415
-0.43
-0.42
-0.43
-0.46
-0.435
-0.405
-0.445
-0.425
-0.385
-0.375
-0.415
-0.505
-0.45
-0.445
-0.415
-0.445
-0.42
-0.405
-0.395
-0.37
-0.335
-0.38
-0.43
-0.42
-0.34
-0.35
-0.35
-0.165
0.02
0.03
0.14
0.165
0.21
0.22
0.21
0.095
0.065
0.005
-0.105
-0.14
-0.23
-0.31
-0.45
-0.445
-0.405
-0.335
-0.35
-0.31
-0.32
-0.38
-0.46
-0.405
-0.32
-0.375
-0.42
-0.37
-0.375
-0.355
-0.34
-0.385
-0.39
-0.33
-0.355
-0.375
-0.39
-0.35
-0.35
-0.37
-0.4
-0.355
-0.4
-0.335
-0.325
-0.315
-0.365
-0.38
-0.43
-0.41
-0.37
-0.33
-0.315
-0.295
-0.315
-0.4
-0.36
-0.43
-0.48
-0.42
-0.385
-0.25
-0.32
-0.405
-0.405
-0.335
-0.405
-0.385
-0.345
-0.33
-0.34
-0.28
-0.37
-0.36
-0.275
-0.3
-0.41
-0.375
-0.325
-0.39
-0.39
-0.36
-0.36
-0.35
-0.36
-0.315
-0.325
-0.33
-0.25
-0.315
-0.415
-0.37
-0.365
-0.395
-0.355
-0.265
-0.175
-0.25
-0.38
-0.405
-0.255
-0.165
-0.22
-0.185
-0.225
-0.26
-0.265
-0.265
-0.23
-0.25
-0.225
-0.22
-0.255
-0.24
-0.26
-0.265
-0.27
-0.205
-0.215
-0.26
-0.235
-0.14
-0.2
-0.19
-0.2
-0.21
-0.245
-0.24
-0.235
-0.23
-0.23
-0.24
-0.255
-0.23
-0.225
-0.325
-0.37
-0.355
-0.425
-0.45
-0.46
-0.355
-0.295
-0.325
-0.265
-0.375
-0.43
-0.425
-0.445
-0.505
-0.545
-0.4
-0.415
-0.425
-0.48
-0.51
-0.5
-0.465
-0.45
-0.47
-0.485
-0.555
-0.385
-0.46
-0.485
-0.45
-0.525
-0.545
-0.535
-0.47
-0.45
-0.425
-0.45
-0.48
-0.435
-0.455
-0.485
-0.545
-0.53
-0.525
-0.56
-0.585
-0.535
-0.46
-0.44
-0.525
-0.5
-0.45
-0.5
-0.51
-0.535
-0.5
-0.515
-0.58
-0.465
-0.46
-0.525
-0.505
-0.545
-0.535
-0.525
-0.525
-0.485
-0.47
-0.525
-0.505
-0.58
-0.55
-0.54
-0.535
-0.395
-0.42
-0.405
-0.48
-0.49
-0.555
-0.52
-0.525
-0.58
-0.535
-0.44
-0.48
-0.485
-0.495
-0.52
-0.56
-0.545
-0.53
-0.53
-0.495
-0.47
-0.545
-0.545
-0.475
-0.46
-0.48
-0.54
-0.505
-0.475
-0.47
-0.445
-0.545
-0.56
-0.5
-0.435
-0.485
-0.535
-0.475
-0.415
-0.42
-0.56
-0.535
-0.54
-0.465
-0.525
-0.495
-0.435
-0.385
-0.465
-0.435
-0.445
-0.43
-0.475
-0.43
-0.44
-0.45
-0.515
-0.545
-0.5
-0.4
-0.415
-0.44
-0.49
-0.475
-0.33
-0.365
-0.41
-0.465
-0.435
-0.415
-0.43
-0.435
-0.445
-0.415
-0.41
-0.46
-0.47
-0.46
-0.36
-0.4
-0.445
-0.46
-0.38
-0.47
-0.485
-0.5
-0.435
-0.47
-0.49
-0.455
-0.425
-0.49
-0.525
-0.49
-0.535
-0.49
-0.375
-0.455
-0.45
-0.425
-0.43
-0.485
-0.52
-0.525
-0.465
-0.425
-0.41
-0.475
-0.515
-0.455
-0.415
-0.45
-0.475
-0.47
-0.46
-0.505
-0.48
-0.475
-0.47
-0.415
-0.455
-0.365
-0.43
-0.44
-0.45
-0.46
-0.4
-0.35
-0.37
-0.24
-0.17
-0.16
0.015
0.205
0.215
0.23
0.21
0.09
0.0
-0.06
-0.085
-0.12
-0.215
-0.24
-0.385
-0.415
-0.41
-0.45
-0.46
-0.395
-0.365
-0.35
-0.425
-0.42
-0.45
-0.405
-0.435
-0.445
-0.49
-0.465
-0.42
-0.435
-0.455
-0.48
-0.43
-0.425
-0.36
-0.415
-0.48
-0.475
-0.495
-0.48
-0.425
-0.42
-0.465
-0.425
-0.415
-0.445
-0.395
-0.4
-0.445
-0.445
-0.385
-0.465
-0.54
-0.51
-0.35
-0.33
-0.475
-0.54
-0.46
-0.335
-0.355
-0.36
-0.37
-0.34
-0.41
-0.44
-0.385
-0.39
-0.415
-0.45
-0.38
-0.415
-0.43
-0.385
-0.395
-0.37
-0.435
-0.325
-0.37
-0.415
-0.415
-0.365
-0.415
-0.385
-0.35
-0.345
-0.34
-0.335
-0.385
-0.42
-0.41
-0.33
-0.31
-0.315
-0.345
-0.3
-0.285
-0.305
-0.35
-0.315
-0.31
-0.355
-0.345
-0.215
-0.225
-0.285
-0.285
-0.23
-0.29
-0.22
-0.24
-0.25
-0.275
-0.23
-0.245
-0.25
-0.26
-0.2
-0.19
-0.22
-0.26
-0.28
-0.24
-0.24
-0.28
-0.25
-0.235
-0.22
-0.31
-0.265
-0.27
-0.295
-0.34
-0.345
-0.36
-0.32
-0.32
-0.37
-0.375
-0.365
-0.395
-0.48
-0.405
-0.38
-0.39
-0.39
-0.445
-0.405
-0.42
-0.445
-0.475
-0.525
-0.47
-0.49
-0.465
-0.395
-0.385
-0.425
-0.46
-0.44
-0.395
-0.49
-0.54
-0.5
-0.48
-0.475
-0.475
-0.51
-0.51
-0.48
-0.365
-0.445
-0.51
-0.55
-0.555
-0.52
-0.505
-0.395
-0.43
-0.445
-0.47
-0.5
-0.535
-0.41
-0.425
-0.49
-0.46
-0.55
-0.47
-0.395
-0.43
-0.44
-0.42
-0.46
-0.525
-0.475
-0.47
-0.485
-0.515
-0.495
-0.465
-0.495
-0.51
-0.6
-0.535
-0.405
-0.39
-0.51
-0.455
-0.445
-0.48
-0.485
-0.49
-0.525
-0.52
-0.455
-0.465
-0.47
-0.42
-0.455
-0.42
-0.465
-0.515
-0.47
-0.49
-0.475
-0.475
-0.475
-0.445
-0.465
-0.515
-0.515
-0.45
-0.44
-0.46
-0.53
-0.445
-0.47
-0.495
-0.455
-0.485
-0.545
-0.595
-0.5
-0.46
-0.425
-0.46
-0.495
-0.455
-0.49
-0.535
-0.475
-0.43
-0.485
-0.59
-0.54
-0.465
-0.45
-0.43
-0.44
-0.425
-0.555
-0.59
-0.54
-0.47
-0.47
-0.53
-0.5
-0.485
-0.475
-0.455
-0.415
-0.48
-0.48
-0.46
-0.49
-0.555
-0.545
-0.555
-0.54
-0.47
-0.46
-0.385
-0.39
-0.445
-0.425
-0.485
-0.47
-0.42
-0.45
-0.485
-0.505
-0.495
-0.51
-0.455
-0.435
-0.455
-0.465
-0.475
-0.465
-0.545
-0.465
-0.505
-0.48
-0.55
-0.495
-0.46
-0.5
-0.515
-0.49
-0.525
-0.53
-0.51
-0.625
-0.575
-0.545
-0.505
-0.49
-0.51
-0.46
-0.46
-0.455
-0.45
-0.475
-0.54
-0.53
-0.51
-0.52
-0.5
-0.47
-0.49
-0.495
-0.505
-0.525
-0.615
-0.555
-0.495
-0.535
-0.565
-0.53
-0.49
-0.455
-0.47
-0.495
-0.48
-0.355
-0.405
-0.335
-0.27
-0.22
-0.16
-0.09
0.01
0.125
0.14
0.225
0.14
0.03
0.01
-0.085
-0.155
-0.21
-0.325
-0.425
-0.415
-0.365
-0.465
-0.52
-0.52
-0.47
-0.51
-0.48
-0.465
-0.505
-0.51
-0.43
-0.505
-0.535
-0.5
-0.53
-0.51
-0.49
-0.47
-0.495
-0.495
-0.525
-0.49
-0.44
-0.425
-0.485
-0.525
-0.57
-0.485
-0.43
-0.45
-0.455
-0.48
-0.43
-0.41
-0.485
-0.555
-0.465
-0.43
-0.48
-0.495
-0.495
-0.465
-0.455
-0.435
-0.51
-0.565
-0.535
-0.555
-0.535
-0.485
-0.405
-0.44
-0.45
-0.48
-0.43
-0.505
-0.515
-0.51
-0.485
-0.525
-0.445
-0.43
-0.37
-0.435
-0.53
-0.56
-0.4
-0.43
-0.44
-0.325
-0.32
-0.445
-0.45
-0.435
-0.445
-0.515
-0.48
-0.375
-0.435
-0.44
-0.385
-0.325
-0.35
-0.395
-0.435
-0.35
-0.415
-0.42
-0.41
-0.295
-0.29
-0.27
-0.335
-0.315
-0.31
-0.355
-0.375
-0.365
-0.335
-0.27
-0.275
-0.335
-0.325
-0.3
-0.31
-0.315
-0.325
-0.315
-0.34
-0.295
-0.315
-0.32
-0.31
-0.36
-0.395
-0.38
-0.365
-0.33
-0.38
-0.36
-0.365
-0.375
-0.415
-0.4
-0.4
-0.43
-0.46
-0.495
-0.53
-0.465
-0.425
-0.465
-0.475
-0.52
-0.495
-0.505
-0.53
-0.52
-0.5
-0.5
-0.5
-0.535
-0.535
-0.5
-0.555
-0.59
-0.605
-0.56
-0.51
-0.55
-0.55
-0.515
-0.49
-0.54
-0.495
-0.525
-0.535
-0.61
-0.58
-0.525
-0.615
-0.535
-0.55
-0.535
-0.54
-0.55
-0.555
-0.585
-0.54
-0.44
-0.49
-0.55
-0.545
-0.545
-0.54
-0.53
-0.57
-0.555
-0.57
-0.5
-0.455
-0.495
-0.525
-0.585
-0.645
-0.56
-0.525
-0.565
-0.54
-0.465
-0.505
-0.51
-0.555
-0.525
-0.48
-0.555
-0.58
-0.615
-0.575
-0.515
-0.595
-0.67
-0.545
-0.5
-0.55
-0.525
-0.5
-0.555
-0.485
-0.49
-0.525
-0.54
-0.515
-0.55
-0.535
-0.56
-0.545
-0.555
-0.61
-0.51
-0.52
-0.525
-0.51
-0.615
-0.65
-0.6
-0.485
-0.52
-0.55
-0.58
-0.54
-0.51
-0.5
-0.54
-0.565
-0.595
-0.56
-0.555
-0.54
-0.515
-0.56
-0.51
-0.5
-0.57
-0.595
-0.58
-0.555
-0.515
-0.54
-0.53
-0.58
-0.56
-0.515
-0.525
-0.495
-0.47
-0.54
-0.58
-0.565
-0.545
-0.575
-0.55
-0.565
-0.585
-0.61
-0.58
-0.48
-0.52
-0.55
-0.54
-0.49
-0.505
-0.56
-0.565
-0.58
-0.465
-0.475
-0.535
-0.545
-0.525
-0.555
-0.59
-0.545
-0.52
-0.53
-0.545
-0.48
-0.495
-0.505
-0.525
-0.475
-0.515
-0.49
-0.53
-0.53
-0.55
-0.565
-0.535
-0.425
-0.465
-0.525
-0.495
-0.48
-0.58
-0.555
-0.485
-0.5
-0.56
-0.495
-0.51
-0.525
-0.5
-0.535
-0.61
-0.57
-0.545
-0.61
-0.665
-0.54
-0.575
-0.5
-0.47
-0.53
-0.54
-0.585
-0.54
-0.555
-0.605
-0.58
-0.555
-0.51
-0.52
-0.52
-0.495
-0.48
-0.5
-0.545
-0.505
-0.495
-0.66
-0.595
-0.53
-0.52
-0.52
-0.5
-0.515
-0.53
-0.455
-0.415
-0.425
-0.46
-0.35
-0.175
-0.13
-0.125
0.09
0.13
0.09
0.1
0.085
0.055
-0.055
-0.16
-0.2
-0.18
-0.305
-0.395
-0.445
-0.47
-0.505
-0.525
-0.45
-0.44
-0.475
-0.51
-0.525
-0.475
-0.53
-0.515
-0.44
-0.505
-0.535
-0.52
-0.505
-0.475
-0.46
-0.495
-0.525
-0.52
-0.52
-0.555
-0.565
-0.45
-0.445
-0.43
-0.51
-0.475
-0.515
-0.57
-0.525
-0.495
-0.37
-0.48
-0.515
-0.52
-0.515
-0.43
-0.4
-0.5
-0.535
-0.455
-0.465
-0.515
-0.47
-0.505
-0.52
-0.465
-0.36
-0.445
-0.445
-0.44
-0.38
-0.435
-0.465
-0.54
-0.525
-0.48
-0.41
-0.405
-0.455
-0.49
-0.515
-0.405
-0.415
-0.43
-0.45
-0.495
-0.38
-0.375
-0.425
-0.385
-0.415
-0.455
-0.42
-0.39
-0.375
-0.39
-0.41
-0.445
-0.445
-0.32
-0.285
-0.335
-0.325
-0.275
-0.34
-0.33
-0.33
-0.33
-0.29
-0.325
-0.315
-0.325
-0.31
-0.295
-0.265
-0.33
-0.315
-0.305
-0.26
-0.315
-0.28
-0.23
-0.305
-0.27
-0.18
-0.235
-0.245
-0.23
-0.235
-0.295
-0.31
-0.285
-0.26
-0.265
-0.31
-0.295
-0.285
-0.27
-0.295
-0.3
-0.33
-0.39
-0.445
-0.43
-0.415
-0.385
-0.345
-0.395
-0.41
-0.395
-0.42
-0.475
-0.415
-0.485
-0.51
-0.455
-0.445
-0.395
-0.47
-0.52
-0.535
-0.49
-0.51
-0.465
-0.45
-0.415
-0.375
-0.425
-0.455
-0.41
-0.45
-0.52
-0.515
-0.44
-0.465
-0.475
-0.5
-0.455
-0.41
-0.465
-0.485
-0.46
-0.425
-0.45
-0.495
-0.47
-0.415
-0.495
-0.44
-0.455
-0.475
-0.465
-0.46
-0.465
-0.48
-0.435
-0.475
-0.525
-0.4
-0.395
-0.435
-0.51
-0.38
-0.405
-0.465
-0.425
-0.475
-0.49
-0.49
-0.42
-0.445
-0.42
-0.425
-0.435
-0.41
-0.455
-0.48
-0.43
-0.435
-0.445
-0.47
-0.46
-0.425
-0.445
-0.42
-0.445
-0.475
-0.465
-0.445
-0.44
-0.47
-0.405
-0.43
-0.475
-0.355
-0.315
-0.49
-0.48
-0.45
-0.505
-0.495
-0.445
-0.45
-0.44
-0.385
-0.415
-0.405
-0.4
-0.445
-0.425
-0.435
-0.475
-0.5
-0.46
-0.41
-0.425
-0.42
-0.44
-0.46
-0.5
-0.46
-0.36
-0.4
-0.43
-0.4
-0.385
-0.39
-0.39
-0.42
-0.455
-0.42
-0.395
-0.435
-0.44
-0.405
-0.365
-0.425
-0.395
-0.385
-0.31
-0.415
-0.445
-0.395
-0.37
-0.43
-0.41
-0.415
-0.475
-0.455
-0.44
-0.48
-0.51
-0.435
-0.38
-0.445
-0.4
-0.39
-0.39
-0.38
-0.385
-0.38
-0.42
-0.44
-0.355
-0.32
-0.325
-0.36
-0.355
-0.395
-0.4
-0.41
-0.36
-0.32
-0.335
-0.325
-0.325
-0.37
-0.405
-0.375
-0.385
-0.42
-0.44
-0.34
-0.285
-0.295
-0.305
-0.34
-0.31
-0.315
-0.38
-0.37
-0.295
-0.345
-0.33
-0.35
-0.385
-0.425
-0.38
-0.345
-0.305
-0.32
-0.36
-0.375
-0.325
-0.31
-0.355
-0.4
-0.375
-0.365
-0.375
-0.345
-0.37
-0.385
-0.365
-0.31
-0.325
-0.365
-0.365
-0.37
-0.395
-0.345
-0.31
-0.39
-0.375
-0.355
-0.345
-0.365
-0.345
-0.35
-0.36
-0.34
-0.305
-0.305
-0.335
-0.385
-0.4
-0.39
-0.265
-0.27
-0.295
-0.17
-0.095
0.145
0.21
0.215
0.275
0.36
0.365
0.33
0.215
0.135
0.06
0.05
-0.075
-0.025
-0.145
-0.2
-0.29
-0.285
-0.265
-0.295
-0.265
-0.315
-0.32
-0.26
-0.245
-0.225
-0.255
-0.3
-0.395
-0.395
-0.235
-0.225
-0.31
-0.205
-0.21
-0.29
-0.37
-0.36
-0.31
-0.25
-0.24
-0.27
-0.265
-0.26
-0.3
-0.27
-0.265
-0.225
-0.285
-0.315
-0.305
-0.305
-0.235
-0.235
-0.295
-0.31
-0.34
-0.38
-0.245
-0.205
-0.265
-0.325
-0.24
-0.165
-0.25
-0.235
-0.195
-0.285
-0.29
-0.25
-0.215
-0.21
-0.18
-0.185
-0.285
-0.25
-0.205
-0.215
-0.265
-0.245
-0.24
-0.215
-0.185
-0.24
-0.215
-0.175
-0.2
-0.205
-0.175
-0.14
-0.15
-0.15
-0.25
-0.27
-0.22
-0.15
-0.13
-0.17
-0.17
-0.06
-0.145
-0.08
0.02
-0.085
-0.175
-0.185
-0.14
-0.16
-0.065
-0.02
-0.075
-0.13
-0.12
-0.035
-0.01
-0.07
0.0
0.02
-0.05
-0.035
-0.14
-0.17
-0.065
0.05
0.025
0.01
0.025
-0.065
-0.06
-0.095
-0.075
-0.105
-0.06
-0.055
-0.115
-0.17
-0.05
-0.14
-0.185
-0.165
-0.105
-0.14
-0.11
-0.15
-0.165
-0.19
-0.19
-0.235
-0.21
-0.25
-0.225
-0.19
-0.235
-0.205
-0.215
-0.195
-0.255
-0.26
-0.225
-0.28
-0.28
-0.215
-0.25
-0.27
-0.255
-0.23
-0.285
-0.275
-0.255
-0.245
-0.3
-0.255
-0.265
-0.29
-0.315
-0.2
-0.145
-0.26
-0.25
-0.21
-0.23
-0.235
-0.245
-0.3
-0.235
-0.21
-0.22
-0.28
-0.23
-0.21
-0.225
-0.225
-0.205
-0.205
-0.255
-0.285
-0.19
-0.22
-0.23
-0.21
-0.245
-0.265
-0.31
-0.2
-0.21
-0.305
-0.26
-0.21
-0.18
-0.215
-0.215
-0.19
-0.285
-0.315
-0.335
-0.3
-0.205
-0.17
-0.18
-0.195
-0.24
-0.2
-0.235
-0.31
-0.235
-0.18
-0.135
-0.15
-0.205
-0.225
-0.24
-0.22
-0.2
-0.19
-0.25
-0.215
-0.23
-0.225
-0.265
-0.265
-0.29
-0.21
-0.135
-0.12
-0.13
-0.185
-0.29
-0.28
-0.24
-0.2
-0.225
-0.18
-0.195
-0.26
-0.24
-0.27
-0.35
-0.22
-0.15
-0.205
-0.19
-0.21
-0.25
-0.185
-0.19
-0.145
-0.21
-0.27
-0.235
-0.26
-0.28
-0.225
-0.23
-0.22
-0.235
-0.28
-0.21
-0.21
-0.25
-0.26
-0.265
-0.3
-0.295
-0.235
-0.205
-0.265
-0.24
-0.225
-0.165
-0.15
-0.045
-0.105
-0.24
-0.25
-0.3
-0.285
-0.355
-0.26
-0.205
-0.18
-0.19
-0.23
-0.195
-0.195
-0.165
-0.235
-0.335
-0.285
-0.33
-0.375
-0.245
-0.14
-0.185
-0.32
-0.285
-0.23
-0.22
-0.295
-0.35
-0.245
-0.22
-0.225
-0.285
-0.275
-0.25
-0.215
-0.25
-0.295
-0.325
-0.285
-0.3
-0.21
-0.24
-0.28
-0.305
-0.49
-0.355
-0.21
-0.225
-0.2
-0.25
-0.265
-0.34
-0.365
-0.335
-0.255
-0.235
-0.08
0.025
0.035
0.025
0.1
0.135
0.23
0.295
0.385
0.4
0.275
0.2
0.165
0.065
0.005
-0.075
-0.105
-0.24
-0.29
-0.275
-0.29
-0.295
-0.24
-0.19
-0.215
-0.23
-0.225
-0.215
-0.21
-0.175
-0.175
-0.29
-0.375
-0.345
-0.295
-0.27
-0.11
-0.18
-0.245
-0.295
-0.32
-0.245
-0.26
-0.22
-0.175
-0.22
-0.3
-0.245
-0.22
-0.295
-0.245
-0.21
-0.265
-0.255
-0.24
-0.26
-0.255
-0.27
-0.31
-0.265
-0.225
-0.22
-0.325
-0.215
-0.135
-0.205
-0.31
-0.23
-0.175
-0.225
-0.265
-0.24
-0.24
-0.215
-0.205
-0.26
-0.24
-0.235
-0.24
-0.205
-0.16
-0.15
-0.205
-0.145
-0.21
-0.25
-0.23
-0.2
-0.215
-0.21
-0.245
-0.205
-0.27
-0.25
-0.13
-0.145
-0.24
-0.18
-0.135
-0.13
-0.14
-0.125
-0.11
-0.14
-0.075
-0.07
-0.105
-0.12
-0.135
-0.13
-0.06
-0.06
-0.075
-0.105
-0.065
-0.05
-0.03
0.01
-0.05
-0.055
-0.05
-0.065
-0.025
-0.055
-0.07
-0.075
-0.045
-0.035
-0.06
-0.05
0.03
-0.025
-0.095
-0.08
-0.055
-0.045
-0.06
-0.155
-0.155
-0.06
-0.105
-0.18
-0.14
-0.11
-0.23
-0.2
-0.135
-0.225
-0.24
-0.18
-0.165
-0.245
-0.215
-0.15
-0.245
-0.235
-0.27
-0.22
-0.24
-0.265
-0.36
-0.33
-0.27
-0.19
-0.24
-0.23
-0.195
-0.24
-0.255
-0.25
-0.26
-0.215
-0.245
-0.225
-0.255
-0.25
-0.215
-0.24
-0.28
-0.285
-0.25
-0.2
-0.24
-0.305
-0.23
-0.225
-0.265
-0.29
-0.275
-0.31
-0.28
-0.24
-0.23
-0.22
-0.295
-0.205
-0.14
-0.235
-0.295
-0.365
-0.255
-0.24
-0.255
-0.24
-0.245
-0.265
-0.29
-0.31
-0.3
-0.205
-0.195
-0.195
-0.135
-0.13
-0.19
-0.285
-0.28
-0.26
-0.255
-0.22
-0.265
-0.235
-0.255
-0.295
-0.255
-0.295
-0.24
-0.275
-0.27
-0.205
-0.175
-0.295
-0.24
-0.24
-0.21
-0.17
-0.225
-0.325
-0.265
-0.205
-0.24
-0.265
-0.23
-0.225
-0.295
-0.235
-0.195
-0.205
-0.25
-0.255
-0.24
-0.245
-0.2
-0.19
-0.175
-0.23
-0.26
-0.32
-0.335
-0.3
-0.235
-0.195
-0.19
-0.255
-0.285
-0.32
-0.305
-0.265
-0.205
-0.22
-0.215
-0.16
-0.195
-0.185
-0.3
-0.21
-0.15
-0.21
-0.22
-0.2
-0.255
-0.245
-0.145
-0.12
-0.23
-0.21
-0.225
-0.225
-0.185
-0.175
-0.215
-0.24
-0.2
-0.215
-0.265
-0.235
-0.25
-0.195
-0.195
-0.27
-0.435
-0.38
-0.26
-0.185
-0.175
-0.255
-0.32
-0.24
-0.16
-0.245
-0.305
-0.275
-0.2
-0.245
-0.26
-0.22
-0.245
-0.23
-0.3
-0.24
-0.235
-0.285
-0.255
-0.25
-0.215
-0.215
-0.265
-0.25
-0.285
-0.3
-0.31
-0.3
-0.375
-0.41
-0.265
-0.17
-0.2
-0.19
-0.14
-0.195
-0.18
-0.135
-0.11
-0.03
0.045
0.12
0.245
0.275
0.305
0.275
0.265
0.2
0.165
0.08
0.02
-0.1
-0.095
-0.065
-0.175
-0.3
-0.265
-0.18
-0.18
-0.215
-0.245
-0.235
-0.29
-0.275
-0.275
-0.3
-0.26
-0.34
-0.4
-0.335
-0.225
-0.23
-0.135
-0.145
-0.265
-0.33
-0.3
-0.225
-0.225
-0.3
-0.31
-0.295
-0.385
-0.33
-0.27
-0.19
-0.215
-0.23
-0.255
-0.255
-0.23
-0.25
-0.35
-0.355
-0.295
-0.36
-0.24
-0.185
-0.2
-0.235
-0.23
-0.23
-0.25
-0.265
-0.23
-0.23
-0.265
-0.225
-0.23
-0.265
-0.265
-0.255
-0.27
-0.2
-0.185
-0.235
-0.265
-0.225
-0.255
-0.265
-0.28
-0.275
-0.26
-0.16
-0.155
-0.22
-0.265
-0.25
-0.235
-0.185
-0.22
-0.195
-0.215
-0.23
-0.225
-0.235
-0.245
-0.15
-0.145
-0.205
-0.195
-0.155
-0.09
-0.075
-0.085
-0.16
-0.21
-0.115
-0.12
0.01
-0.08
-0.11
-0.125
-0.07
-0.09
-0.145
-0.085
-0.105
-0.125
-0.12
-0.075
-0.105
-0.115
-0.035
-0.025
-0.035
-0.09
-0.145
-0.12
-0.195
-0.115
-0.085
-0.12
-0.195
-0.205
-0.155
-0.165
-0.115
-0.185
-0.265
-0.26
-0.255
-0.27
-0.19
-0.22
-0.225
-0.22
-0.305
-0.305
-0.32
-0.31
-0.32
-0.335
-0.33
-0.38
-0.41
-0.375
-0.31
-0.38
-0.285
-0.31
-0.315
-0.31
-0.325
-0.32
-0.315
-0.335
-0.38
-0.34
-0.37
-0.405
-0.46
-0.325
-0.34
-0.345
-0.325
-0.305
-0.335
-0.315
-0.345
-0.25
-0.33
-0.395
-0.38
-0.365
-0.415
-0.455
-0.44
-0.375
-0.315
-0.315
-0.33
-0.3
-0.325
-0.335
-0.36
-0.345
-0.365
-0.4
-0.39
-0.275
-0.295
-0.355
-0.37
-0.36
-0.345
-0.37
-0.375
-0.35
-0.335
-0.35
-0.335
-0.325
-0.365
-0.39
-0.39
-0.39
-0.34
-0.345
-0.365
-0.36
-0.355
-0.35
-0.285
-0.245
-0.335
-0.375
-0.365
-0.36
-0.355
-0.365
-0.465
-0.385
-0.375
-0.34
-0.32
-0.28
-0.325
-0.37
-0.355
-0.32
-0.34
-0.41
-0.42
-0.435
-0.355
-0.32
-0.35
-0.355
-0.3
-0.325
-0.365
-0.395
-0.43
-0.365
-0.365
-0.36
-0.355
-0.365
-0.355
-0.375
-0.345
-0.43
-0.35
-0.395
-0.4
-0.325
-0.36
-0.38
-0.355
-0.355
-0.36
-0.365
-0.31
-0.35
-0.355
-0.29
-0.275
-0.395
-0.33
-0.35
-0.48
-0.47
-0.415
-0.315
-0.295
-0.31
-0.335
-0.345
-0.33
-0.35
-0.345
-0.305
-0.33
-0.415
-0.405
-0.35
-0.32
-0.33
-0.3
-0.32
-0.325
-0.315
-0.255
-0.3
-0.305
-0.34
-0.41
-0.365
-0.39
-0.4
-0.395
-0.36
-0.4
-0.4
-0.36
-0.38
-0.415
-0.37
-0.35
-0.345
-0.41
-0.385
-0.425
-0.44
-0.41
-0.405
-0.355
-0.33
-0.36
-0.395
-0.41
-0.415
-0.435
-0.355
-0.335
-0.495
-0.385
-0.31
-0.33
-0.395
-0.36
-0.36
-0.41
-0.43
-0.38
-0.335
-0.365
-0.3
-0.335
-0.37
-0.325
-0.25
-0.2
-0.16
-0.055
0.08
0.175
0.195
0.23
0.335
0.32
0.135
0.075
0.01
0.045
-0.085
-0.165
-0.28
-0.275
-0.285
-0.33
-0.32
-0.35
-0.335
-0.325
-0.3
-0.265
-0.32
-0.37
-0.38
-0.345
-0.43
-0.46
-0.41
-0.315
-0.365
-0.39
-0.325
-0.325
-0.405
-0.37
-0.365
-0.415
-0.39
-0.32
-0.285
-0.335
-0.285
-0.335
-0.405
-0.365
-0.34
-0.275
-0.265
-0.295
-0.335
-0.37
-0.355
-0.29
-0.345
-0.375
-0.405
-0.335
-0.26
-0.28
-0.31
-0.33
-0.34
-0.365
-0.4
-0.305
-0.27
-0.305
-0.275
-0.29
-0.27
-0.315
-0.305
-0.32
-0.315
-0.345
-0.4
-0.3
-0.16
-0.235
-0.29
-0.32
-0.23
-0.245
-0.275
-0.27
-0.3
-0.25
-0.17
-0.2
-0.27
-0.305
-0.26
-0.205
-0.18
-0.25
-0.29
-0.26
-0.235
-0.175
-0.205
-0.23
-0.155
-0.11
-0.225
-0.175
-0.21
-0.12
-0.08
-0.09
-0.135
-0.115
-0.1
-0.2
-0.165
-0.105
-0.155
-0.13
-0.08
-0.085
-0.115
-0.11
-0.065
-0.07
-0.09
-0.13
-0.18
-0.145
-0.11
-0.19
-0.155
-0.145
-0.145
-0.195
-0.255
-0.31
-0.245
-0.185
-0.185
-0.27
-0.17
-0.12
-0.21
-0.28
-0.3
-0.325
-0.35
-0.405
-0.32
-0.255
-0.23
-0.195
-0.24
-0.36
-0.375
-0.335
-0.335
-0.335
-0.305
-0.31
-0.31
-0.335
-0.32
-0.32
-0.31
-0.31
-0.35
-0.4
-0.41
-0.365
-0.3
-0.29
-0.33
-0.37
-0.325
-0.335
-0.335
-0.285
-0.27
-0.31
-0.385
-0.395
-0.36
-0.345
-0.335
-0.26
-0.295
-0.34
-0.305
-0.315
-0.335
-0.36
-0.34
-0.345
-0.275
-0.32
-0.34
-0.275
-0.315
-0.39
-0.33
-0.35
-0.495
-0.39
-0.34
-0.27
-0.295
-0.345
-0.305
-0.34
-0.32
-0.325
-0.43
-0.405
-0.4
-0.375
-0.415
-0.255
-0.215
-0.24
-0.275
-0.33
-0.35
-0.355
-0.325
-0.335
-0.355
-0.36
-0.335
-0.35
-0.37
-0.355
-0.385
-0.38
-0.38
-0.29
-0.28
-0.28
-0.34
-0.38
-0.44
-0.335
-0.315
-0.37
-0.365
-0.31
-0.345
-0.34
-0.31
-0.305
-0.35
-0.385
-0.4
-0.38
-0.42
-0.445
-0.29
-0.27
-0.365
-0.285
-0.25
-0.36
-0.495
-0.36
-0.33
-0.365
-0.415
-0.37
-0.335
-0.365
-0.37
-0.375
-0.355
-0.315
-0.345
-0.415
-0.375
-0.285
-0.425
-0.48
-0.39
-0.31
-0.265
-0.385
-0.365
-0.37
-0.365
-0.305
-0.345
-0.37
-0.385
-0.38
-0.345
-0.315
-0.375
-0.39
-0.32
-0.32
-0.345
-0.37
-0.335
-0.29
-0.32
-0.355
-0.315
-0.41
-0.375
-0.365
-0.335
-0.305
-0.34
-0.33
-0.345
-0.36
-0.39
-0.38
-0.38
-0.28
-0.295
-0.34
-0.365
-0.36
-0.355
-0.315
-0.275
-0.335
-0.325
-0.355
-0.355
-0.325
-0.32
-0.32
-0.415
-0.42
-0.365
-0.375
-0.335
-0.315
-0.355
-0.39
-0.35
-0.345
-0.45
-0.43
-0.355
-0.38
-0.36
-0.355
-0.355
-0.35
-0.29
-0.445
-0.445
-0.37
-0.375
-0.355
-0.375
-0.435
-0.435
-0.38
-0.34
-0.35
-0.345
-0.36
-0.425
-0.46
-0.34
-0.275
-0.33
-0.43
-0.385
-0.335
-0.25
-0.205
-0.18
-0.105
0.005
0.115
0.165
0.21
0.18
0.25
0.335
0.215
0.145
0.035
0.0
-0.01
-0.095
-0.22
-0.315
-0.38
-0.415
-0.375
-0.285
-0.28
-0.305
-0.345
-0.34
-0.375
-0.305
-0.39
-0.47
-0.415
-0.355
-0.31
-0.335
-0.345
-0.355
-0.35
-0.375
-0.43
-0.42
-0.385
-0.415
-0.4
-0.245
-0.305
-0.38
-0.335
-0.375
-0.355
-0.38
-0.42
-0.47
-0.42
-0.34
-0.26
-0.3
-0.365
-0.325
-0.345
-0.35
-0.385
-0.395
-0.39
-0.34
-0.315
-0.335
-0.37
-0.365
-0.395
-0.4
-0.415
-0.355
-0.35
-0.35
-0.35
-0.36
-0.36
-0.37
-0.37
-0.29
-0.345
-0.345
-0.365
-0.27
-0.31
-0.325
-0.325
-0.325
-0.335
-0.34
-0.32
-0.345
-0.375
-0.35
-0.235
-0.235
-0.305
-0.38
-0.29
-0.24
-0.275
-0.345
-0.265
-0.19
-0.18
-0.205
-0.23
-0.25
-0.26
-0.275
-0.26
-0.31
-0.28
-0.165
-0.14
-0.19
-0.185
-0.21
-0.17
-0.185
-0.18
-0.25
-0.22
-0.29
-0.255
-0.105
-0.105
-0.065
-0.13
-0.255
-0.255
-0.255
-0.165
-0.2
-0.3
-0.19
-0.185
-0.265
-0.315
-0.305
-0.27
-0.275
-0.235
-0.215
-0.305
-0.365
-0.36
-0.33
-0.36
-0.405
-0.43
-0.385
-0.345
-0.385
-0.39
-0.385
-0.36
-0.385
-0.485
-0.48
-0.365
-0.335
-0.345
-0.405
-0.435
-0.43
-0.43
-0.44
-0.49
-0.405
-0.475
-0.505
-0.485
-0.305
-0.36
-0.41
-0.41
-0.425
-0.43
-0.415
-0.37
-0.45
-0.41
-0.405
-0.42
-0.45
-0.41
-0.415
-0.43
-0.43
-0.43
-0.49
-0.435
-0.36
-0.415
-0.475
-0.5
-0.435
-0.41
-0.485
-0.47
-0.505
-0.495
-0.38
-0.36
-0.415
-0.405
-0.445
-0.385
-0.465
-0.455
-0.485
-0.465
-0.45
-0.46
-0.44
-0.445
-0.445
-0.37
-0.43
-0.45
-0.4
-0.395
-0.445
-0.455
-0.43
-0.465
-0.455
-0.42
-0.485
-0.435
-0.515
-0.515
-0.51
-0.425
-0.46
-0.43
-0.485
-0.46
-0.425
-0.355
-0.405
-0.385
-0.41
-0.48
-0.475
-0.44
-0.435
-0.415
-0.495
-0.55
-0.48
-0.42
-0.38
-0.42
-0.41
-0.415
-0.465
-0.495
-0.47
-0.46
-0.445
-0.45
-0.51
-0.535
-0.545
-0.48
-0.57
-0.435
-0.415
-0.405
-0.46
-0.375
-0.405
-0.4
-0.42
-0.445
-0.45
-0.48
-0.41
-0.405
-0.41
-0.42
-0.45
-0.52
-0.49
-0.445
-0.455
-0.465
-0.46
-0.45
-0.44
-0.44
-0.435
-0.515
-0.45
-0.485
-0.475
-0.41
-0.41
-0.475
-0.44
-0.49
-0.555
-0.5
-0.47
-0.465
-0.475
-0.515
-0.41
-0.355
-0.36
-0.415
-0.445
-0.425
-0.48
-0.49
-0.415
-0.415
-0.46
-0.435
-0.445
-0.475
-0.455
-0.425
-0.445
-0.47
-0.41
-0.425
-0.4
-0.405
-0.425
-0.42
-0.38
-0.385
-0.42
-0.485
-0.46
-0.385
-0.425
-0.41
-0.425
-0.415
-0.405
-0.405
-0.415
-0.405
-0.35
-0.405
-0.41
-0.41
-0.385
-0.41
-0.51
-0.44
-0.4
-0.465
-0.43
-0.44
-0.445
-0.43
-0.465
-0.51
-0.47
-0.395
-0.385
-0.435
-0.485
-0.47
-0.425
-0.455
-0.475
-0.53
-0.52
-0.4
-0.41
-0.47
-0.44
-0.445
-0.4
-0.405
-0.48
-0.48
-0.525
-0.435
-0.395
-0.46
-0.445
-0.395
-0.435
-0.43
-0.4
-0.385
-0.395
-0.405
-0.405
-0.44
-0.405
-0.23
-0.21
-0.265
-0.07
0.11
0.13
0.16
0.185
0.135
0.17
0.135
0.08
0.105
-0.045
-0.115
-0.235
-0.28
-0.365
-0.39
-0.43
-0.415
-0.4
-0.35
-0.36
-0.37
-0.365
-0.445
-0.385
-0.415
-0.45
-0.5
-0.465
-0.43
-0.38
-0.345
-0.405
-0.415
-0.37
-0.455
-0.465
-0.425
-0.42
-0.415
-0.395
-0.445
-0.42
-0.435
-0.5
-0.505
-0.425
-0.395
-0.385
-0.38
-0.4
-0.355
-0.455
-0.445
-0.48
-0.42
-0.395
-0.375
-0.44
-0.45
-0.39
-0.34
-0.325
-0.345
-0.41
-0.445
-0.425
-0.365
-0.34
-0.305
-0.365
-0.305
-0.36
-0.455
-0.465
-0.39
-0.41
-0.415
-0.41
-0.365
-0.37
-0.43
-0.49
-0.305
-0.29
-0.325
-0.32
-0.425
-0.385
-0.36
-0.35
-0.34
-0.265
-0.325
-0.335
-0.36
-0.33
-0.29
-0.21
-0.22
-0.295
-0.36
-0.3
-0.27
-0.32
-0.33
-0.285
-0.255
-0.245
-0.275
-0.265
-0.26
-0.225
-0.275
-0.22
-0.175
-0.255
-0.315
-0.345
-0.21
-0.12
-0.185
-0.225
-0.26
-0.27
-0.19
-0.165
-0.195
-0.185
-0.22
-0.28
-0.22
-0.155
-0.21
-0.265
-0.325
-0.305
-0.355
-0.37
-0.345
-0.315
-0.32
-0.365
-0.36
-0.375
-0.37
-0.47
-0.45
-0.385
-0.365
-0.49
-0.42
-0.4
-0.365
-0.375
-0.405
-0.47
-0.5
-0.41
-0.315
-0.36
-0.45
-0.405
-0.415
-0.48
-0.425
-0.435
-0.455
-0.455
-0.41
-0.375
-0.375
-0.45
-0.465
-0.445
-0.41
-0.415
-0.435
-0.45
-0.445
-0.46
-0.455
-0.44
-0.47
-0.445
-0.405
-0.38
-0.43
-0.41
-0.45
-0.435
-0.435
-0.42
-0.42
-0.43
-0.48
-0.44
-0.49
-0.475
-0.49
-0.475
-0.34
-0.315
-0.385
-0.585
-0.545
-0.3
-0.35
-0.41
-0.445
-0.435
-0.39
-0.38
-0.415
-0.405
-0.45
-0.445
-0.365
-0.34
-0.37
-0.44
-0.45
-0.425
-0.4
-0.45
-0.505
-0.425
-0.295
-0.37
-0.415
-0.355
-0.445
-0.47
-0.44
-0.455
-0.455
-0.385
-0.32
-0.355
-0.38
-0.395
-0.42
-0.395
-0.405
-0.41
-0.395
-0.425
-0.46
-0.425
-0.375
-0.435
-0.43
-0.375
-0.41
-0.415
-0.415
-0.38
-0.38
-0.345
-0.425
-0.44
-0.4
-0.38
-0.47
-0.48
-0.435
-0.435
-0.36
-0.32
-0.33
-0.37
-0.435
-0.425
-0.42
-0.38
-0.395
-0.43
-0.435
-0.43
-0.36
-0.335
-0.425
-0.42
-0.445
-0.435
-0.34
-0.35
-0.36
-0.37
-0.38
-0.44
-0.45
-0.385
-0.38
-0.39
-0.355
-0.36
-0.37
-0.37
-0.385
-0.43
-0.44
-0.44
-0.42
-0.375
-0.365
-0.42
-0.45
-0.41
-0.46
-0.37
-0.33
-0.335
-0.39
-0.435
-0.455
-0.36
-0.345
-0.38
-0.375
-0.39
-0.385
-0.435
-0.465
-0.4
-0.41
-0.41
-0.245
-0.26
-0.36
-0.425
-0.42
-0.275
-0.235
-0.295
-0.33
-0.37
-0.35
-0.315
-0.325
-0.315
-0.335
-0.325
-0.345
-0.32
-0.315
-0.38
-0.325
-0.34
-0.35
-0.32
-0.3
-0.38
-0.35
-0.35
-0.395
-0.385
-0.415
-0.425
-0.325
-0.355
-0.395
-0.455
-0.41
-0.37
-0.35
-0.395
-0.4
-0.37
-0.32
-0.415
-0.41
-0.39
-0.435
-0.39
-0.375
-0.385
-0.275
-0.28
-0.365
-0.355
-0.32
-0.415
-0.355
-0.285
-0.34
-0.4
-0.385
-0.435
-0.34
-0.34
-0.285
-0.24
-0.345
-0.345
-0.295
-0.23
-0.205
-0.095
0.055
0.155
0.27
0.245
0.3
0.255
0.18
0.175
0.11
-0.005
-0.13
-0.085
-0.08
-0.215
-0.32
-0.32
-0.31
-0.325
-0.295
-0.295
-0.275
-0.26
-0.29
-0.33
-0.345
-0.275
-0.335
-0.37
-0.395
-0.345
-0.305
-0.405
-0.33
-0.25
-0.25
-0.36
-0.43
-0.365
-0.325
-0.345
-0.27
-0.31
-0.335
-0.325
-0.37
-0.32
-0.34
-0.31
-0.295
-0.27
-0.275
-0.33
-0.275
-0.35
-0.355
-0.27
-0.35
-0.335
-0.32
-0.335
-0.34
-0.34
-0.385
-0.49
-0.4
-0.21
-0.175
-0.215
-0.225
-0.26
-0.325
-0.345
-0.29
-0.35
-0.27
-0.24
-0.25
-0.25
-0.245
-0.295
-0.305
-0.225
-0.215
-0.21
-0.22
-0.25
-0.245
-0.285
-0.28
-0.225
-0.285
-0.285
-0.335
-0.375
-0.21
-0.06
-0.1
-0.165
-0.15
-0.135
-0.095
-0.1
-0.225
-0.18
-0.205
-0.185
-0.14
-0.095
-0.07
-0.095
-0.09
-0.105
-0.13
-0.145
-0.145
-0.205
-0.11
-0.035
-0.05
-0.085
-0.075
-0.08
-0.095
-0.145
-0.125
-0.14
-0.265
-0.335
-0.065
0.05
0.02
-0.045
-0.09
-0.125
-0.175
-0.155
-0.12
-0.08
-0.13
-0.19
-0.24
-0.245
-0.29
-0.255
-0.28
-0.27
-0.265
-0.265
-0.205
-0.23
-0.28
-0.325
-0.355
-0.335
-0.36
-0.38
-0.32
-0.23
-0.27
-0.33
-0.35
-0.315
-0.41
-0.4
-0.36
-0.365
-0.36
-0.27
-0.355
-0.345
-0.35
-0.3
-0.3
-0.285
-0.345
-0.34
-0.275
-0.35
-0.415
-0.405
-0.45
-0.48
-0.345
-0.19
-0.32
-0.415
-0.29
-0.345
-0.395
-0.36
-0.37
-0.41
-0.43
-0.29
-0.335
-0.365
-0.33
-0.335
-0.35
-0.39
-0.365
-0.325
-0.34
-0.305
-0.345
-0.425
-0.39
-0.305
-0.325
-0.37
-0.375
-0.395
-0.33
-0.355
-0.445
-0.49
-0.435
-0.315
-0.235
-0.27
-0.27
-0.295
-0.375
-0.47
-0.385
-0.385
-0.45
-0.365
-0.295
-0.3
-0.26
-0.305
-0.335
-0.345
-0.395
-0.385
-0.375
-0.325
-0.38
-0.39
-0.435
-0.425
-0.395
-0.325
-0.335
-0.35
-0.345
-0.35
-0.365
-0.315
-0.29
-0.35
-0.34
-0.385
-0.42
-0.47
-0.365
-0.33
-0.28
-0.365
-0.415
-0.45
-0.365
-0.33
-0.3
-0.36
-0.33
-0.345
-0.32
-0.32
-0.37
-0.39
-0.355
-0.37
-0.355
-0.36
-0.305
-0.295
-0.275
-0.32
-0.33
-0.335
-0.355
-0.295
-0.31
-0.27
-0.305
-0.37
-0.48
-0.425
-0.305
-0.325
-0.325
-0.32
-0.305
-0.295
-0.29
-0.24
-0.305
-0.345
-0.31
-0.295
-0.275
-0.265
-0.28
-0.315
-0.255
-0.29
-0.33
-0.32
-0.285
-0.17
-0.155
-0.29
-0.43
-0.375
-0.415
-0.38
-0.35
-0.35
-0.4
-0.3
-0.27
-0.33
-0.36
-0.345
-0.325
-0.46
-0.405
-0.32
-0.235
-0.3
-0.3
-0.3
-0.31
-0.315
-0.39
-0.33
-0.265
-0.3
-0.36
-0.35
-0.28
-0.31
-0.3
-0.295
-0.29
-0.345
-0.355
-0.29
-0.29
-0.315
-0.27
-0.315
-0.305
-0.36
-0.28
-0.3
-0.24
-0.195
-0.115
-0.05
0.065
0.13
0.145
0.21
0.26
0.285
0.28
0.14
0.065
0.005
-0.075
-0.07
-0.17
-0.29
-0.345
-0.25
-0.225
-0.22
-0.24
-0.26
-0.285
-0.265
-0.325
-0.355
-0.385
-0.295
-0.265
-0.235
-0.205
-0.22
-0.255
-0.315
-0.345
-0.32
-0.295
-0.28
-0.265
-0.27
-0.3
-0.31
-0.265
-0.335
-0.325
-0.33
-0.3
-0.325
-0.385
-0.41
-0.305
-0.275
-0.34
-0.265
-0.235
-0.315
-0.4
-0.325
-0.16
-0.21
-0.22
-0.22
-0.245
-0.29
-0.29
-0.225
-0.26
-0.22
-0.26
-0.365
-0.255
-0.285
-0.27
-0.255
-0.28
-0.255
-0.255
-0.33
-0.25
-0.255
-0.335
-0.32
-0.2
-0.19
-0.18
-0.24
-0.26
-0.26
-0.205
-0.21
-0.305
-0.36
-0.22
-0.115
-0.145
-0.15
-0.175
-0.24
-0.185
-0.185
-0.22
-0.18
-0.235
-0.165
-0.185
-0.195
-0.17
-0.12
-0.15
-0.105
-0.11
-0.09
-0.1
-0.11
-0.09
-0.09
-0.11
-0.08
-0.075
-0.17
-0.145
-0.045
0.0
-0.02
-0.045
-0.06
-0.125
-0.155
-0.11
-0.1
-0.1
-0.115
-0.09
-0.06
-0.05
-0.085
-0.12
-0.115
-0.135
-0.16
-0.23
-0.205
-0.205
-0.21
-0.2
-0.195
-0.235
-0.315
-0.195
-0.2
-0.26
-0.265
-0.235
-0.22
-0.235
-0.31
-0.315
-0.255
-0.265
-0.3
-0.28
-0.27
-0.42
-0.545
-0.305
-0.17
-0.235
-0.295
-0.3
-0.38
-0.34
-0.295
-0.28
-0.31
-0.305
-0.28
-0.22
-0.26
-0.255
-0.355
-0.315
-0.275
-0.29
-0.33
-0.39
-0.31
-0.27
-0.29
-0.3
-0.345
-0.32
-0.27
-0.24
-0.255
-0.325
-0.27
-0.32
-0.29
-0.32
-0.36
-0.305
-0.3
-0.36
-0.37
-0.3
-0.285
-0.335
-0.3
-0.255
-0.31
-0.28
-0.275
-0.34
-0.295
-0.28
-0.28
-0.31
-0.32
-0.21
-0.25
-0.31
-0.3
-0.28
-0.225
-0.25
-0.295
-0.28
-0.255
-0.315
-0.37
-0.38
-0.29
-0.2
-0.18
-0.245
-0.3
-0.27
-0.265
-0.245
-0.27
-0.365
-0.33
-0.295
-0.285
-0.24
-0.285
-0.275
-0.315
-0.345
-0.31
-0.27
-0.275
-0.33
-0.315
-0.245
-0.195
-0.2
-0.275
-0.295
-0.36
-0.325
-0.295
-0.235
-0.26
-0.305
-0.38
-0.36
-0.27
-0.175
-0.25
-0.235
-0.235
-0.265
-0.325
-0.265
-0.22
-0.205
-0.19
-0.245
-0.295
-0.31
-0.25
-0.255
-0.29
-0.285
-0.225
-0.205
-0.2
-0.275
-0.27
-0.205
-0.205
-0.305
-0.33
-0.37
-0.365
-0.29
-0.325
-0.315
-0.335
-0.235
-0.285
-0.28
-0.245
-0.25
-0.33
-0.325
-0.355
-0.28
-0.315
-0.38
-0.315
-0.29
-0.285
-0.31
-0.32
-0.32
-0.365
-0.425
-0.355
-0.275
-0.255
-0.285
-0.29
-0.315
-0.385
-0.455
-0.39
-0.31
-0.27
-0.3
-0.285
-0.285
-0.285
-0.255
-0.305
-0.295
-0.365
-0.28
-0.2
-0.2
-0.135
-0.1
0.0
0.125
0.19
0.145
0.22
0.245
0.265
0.17
0.045
-0.03
-0.08
-0.12
-0.215
-0.265
-0.3
-0.325
-0.37
-0.4
-0.265
-0.275
-0.27
-0.29
-0.255
-0.305
-0.31
-0.285
-0.29
-0.28
-0.31
-0.33
-0.315
-0.355
-0.33
-0.335
-0.26
-0.315
-0.32
-0.345
-0.345
-0.335
-0.255
-0.3
-0.295
-0.28
-0.305
-0.315
-0.31
-0.32
-0.3
-0.265
-0.275
-0.29
-0.395
-0.39
-0.365
-0.315
-0.25
-0.295
-0.32
-0.32
-0.38
-0.37
-0.285
-0.19
-0.225
-0.26
-0.25
-0.295
-0.295
-0.28
-0.225
-0.27
-0.315
-0.29
-0.275
-0.265
-0.295
-0.28
-0.305
-0.36
-0.355
-0.19
-0.235
-0.25
-0.27
-0.24
-0.21
-0.225
-0.255
-0.22
-0.225
-0.245
-0.27
-0.235
-0.21
-0.22
-0.255
-0.295
-0.26
-0.19
-0.155
-0.13
-0.185
-0.155
-0.15
-0.18
-0.15
-0.15
-0.125
-0.13
-0.115
-0.125
-0.115
-0.145
-0.18
-0.185
-0.125
-0.115
-0.12
-0.245
-0.13
-0.115
-0.025
-0.035
-0.09
-0.13
-0.105
