# TIPE ECG 2021 - ECG-ID Database v1.0.0 par Physionet
# [Numéro de la personne, Période d'échantillonnage, Prénom, Age, Sexe, Date de l'enregistrement]
[42, 0.002, John, 25, H, 13.05.2005]
-0.015
-0.015
-0.02
-0.02
0.005
-0.01
0.02
0.02
0.03
0.01
0.015
0.025
0.035
0.0
0.0
0.005
-0.005
0.01
-0.005
0.03
-0.005
0.0
0.02
0.01
0.01
-0.02
-0.025
-0.02
-0.02
-0.005
-0.02
-0.04
0.03
0.04
0.0
-0.01
-0.005
0.005
-0.005
0.0
0.025
0.005
-0.005
0.005
0.0
0.01
0.0
-0.025
-0.02
0.025
0.005
0.0
0.005
0.01
0.005
-0.005
-0.005
0.005
0.0
-0.01
-0.02
-0.02
-0.005
-0.03
-0.01
-0.005
-0.005
0.015
0.025
0.02
0.01
0.015
0.015
0.005
0.01
-0.01
-0.015
0.0
0.035
0.03
0.025
0.04
0.045
0.025
0.01
0.055
0.055
0.055
0.08
0.04
0.035
0.055
0.055
0.03
0.015
0.01
-0.045
-0.05
-0.04
-0.015
-0.035
-0.005
0.005
0.005
-0.04
-0.005
-0.035
-0.06
-0.015
-0.005
-0.005
-0.01
-0.015
-0.025
-0.015
-0.025
-0.04
-0.035
-0.035
-0.005
-0.015
-0.04
-0.02
-0.015
-0.025
-0.035
-0.05
-0.045
-0.05
-0.04
-0.06
-0.065
-0.06
-0.05
-0.035
0.04
0.115
0.225
0.35
0.385
0.475
0.525
0.525
0.495
0.48
0.46
0.255
0.08
-0.16
-0.295
-0.295
-0.275
-0.28
-0.31
-0.315
-0.265
-0.255
-0.255
-0.235
-0.205
-0.19
-0.155
-0.15
-0.13
-0.075
-0.07
-0.09
-0.1
-0.085
-0.09
-0.075
-0.06
-0.065
-0.06
-0.025
-0.045
-0.045
-0.025
-0.035
-0.04
-0.035
-0.025
-0.02
-0.025
-0.025
-0.01
-0.035
-0.06
-0.035
0.005
-0.005
0.01
-0.015
0.005
-0.005
0.005
-0.015
0.01
-0.005
-0.02
-0.025
-0.005
-0.005
-0.005
-0.005
-0.01
-0.005
0.015
0.03
0.015
0.025
0.04
0.03
0.01
0.035
0.02
0.045
0.06
0.045
0.045
0.07
0.065
0.075
0.09
0.065
0.055
0.095
0.1
0.12
0.105
0.115
0.15
0.12
0.115
0.14
0.13
0.135
0.17
0.165
0.18
0.17
0.21
0.145
0.195
0.19
0.195
0.175
0.2
0.19
0.215
0.225
0.215
0.21
0.2
0.205
0.22
0.185
0.175
0.17
0.145
0.15
0.15
0.125
0.115
0.115
0.085
0.08
0.08
0.07
0.05
0.055
0.03
0.04
0.02
0.005
-0.015
0.025
-0.01
-0.03
-0.01
0.005
-0.01
-0.02
-0.015
-0.005
-0.03
-0.045
-0.02
-0.055
-0.015
0.01
-0.03
-0.035
-0.045
-0.045
-0.055
-0.035
-0.05
-0.06
-0.05
-0.04
-0.055
-0.065
-0.045
-0.085
-0.07
-0.07
-0.06
-0.055
-0.055
-0.04
-0.07
-0.065
-0.045
-0.06
-0.095
-0.065
-0.045
-0.09
-0.055
-0.015
-0.025
-0.045
-0.035
-0.05
-0.06
-0.04
-0.035
-0.07
-0.06
-0.035
-0.05
-0.045
-0.03
-0.05
-0.06
-0.06
-0.055
-0.08
-0.06
-0.02
-0.05
-0.055
-0.04
-0.055
-0.07
-0.055
-0.05
-0.05
-0.02
-0.005
-0.03
-0.035
-0.07
-0.05
-0.045
-0.055
-0.05
-0.015
-0.015
-0.025
-0.055
-0.03
-0.035
-0.055
-0.08
-0.02
-0.05
-0.06
-0.025
-0.035
-0.06
-0.065
-0.065
-0.06
-0.06
-0.06
-0.065
-0.065
-0.055
-0.05
-0.06
-0.065
-0.07
-0.05
-0.065
-0.065
-0.055
-0.03
-0.045
-0.045
-0.065
-0.055
-0.05
-0.08
-0.055
-0.055
-0.06
-0.08
-0.065
-0.045
-0.035
-0.065
-0.08
-0.07
-0.075
-0.06
-0.065
-0.07
-0.055
-0.04
-0.05
-0.07
-0.07
-0.08
-0.06
-0.085
-0.055
-0.045
-0.03
-0.035
-0.055
-0.045
-0.045
-0.065
-0.06
-0.05
-0.07
-0.06
-0.065
-0.035
-0.055
-0.06
-0.07
-0.05
-0.03
0.01
-0.015
-0.025
-0.005
-0.03
-0.05
-0.015
-0.03
-0.04
-0.02
-0.035
-0.065
-0.05
-0.04
-0.09
-0.065
-0.08
-0.095
-0.15
-0.105
-0.085
-0.115
-0.09
-0.085
-0.095
-0.11
-0.105
-0.08
-0.095
-0.09
-0.105
-0.115
-0.09
-0.095
-0.095
-0.1
-0.09
-0.095
-0.11
-0.12
-0.12
-0.13
-0.125
-0.105
-0.115
-0.14
-0.13
-0.14
-0.145
-0.12
-0.1
-0.08
-0.015
0.125
0.19
0.255
0.37
0.455
0.43
0.445
0.435
0.375
0.325
0.145
-0.025
-0.29
-0.375
-0.4
-0.435
-0.415
-0.385
-0.39
-0.38
-0.33
-0.33
-0.35
-0.29
-0.25
-0.255
-0.22
-0.205
-0.2
-0.16
-0.155
-0.16
-0.165
-0.17
-0.16
-0.16
-0.15
-0.145
-0.145
-0.115
-0.1
-0.145
-0.125
-0.11
-0.125
-0.13
-0.11
-0.12
-0.12
-0.105
-0.12
-0.135
-0.1
-0.11
-0.115
-0.105
-0.115
-0.12
-0.1
-0.115
-0.105
-0.15
-0.115
-0.12
-0.115
-0.08
-0.085
-0.125
-0.11
-0.09
-0.07
-0.085
-0.1
-0.105
-0.1
-0.11
-0.1
-0.095
-0.09
-0.045
-0.045
-0.055
-0.045
-0.05
-0.075
-0.045
-0.05
-0.025
-0.025
-0.035
-0.025
-0.015
-0.03
0.015
-0.005
0.02
0.02
0.01
0.03
0.05
0.05
0.035
0.03
0.03
0.025
0.065
0.065
0.08
0.085
0.09
0.1
0.09
0.085
0.1
0.09
0.095
0.1
0.1
0.105
0.105
0.09
0.07
0.1
0.065
0.02
0.015
0.015
0.0
0.0
0.005
0.005
-0.03
-0.055
-0.05
-0.07
-0.09
-0.09
-0.095
-0.09
-0.115
-0.16
-0.13
-0.115
-0.12
-0.125
-0.14
-0.13
-0.145
-0.145
-0.11
-0.14
-0.165
-0.145
-0.14
-0.175
-0.14
-0.16
-0.155
-0.16
-0.16
-0.165
-0.175
-0.185
-0.19
-0.16
-0.165
-0.175
-0.175
-0.18
-0.16
-0.165
-0.175
-0.17
-0.195
-0.19
-0.18
-0.185
-0.205
-0.195
-0.185
-0.195
-0.17
-0.175
-0.185
-0.2
-0.17
-0.17
-0.19
-0.19
-0.19
-0.185
-0.19
-0.18
-0.19
-0.22
-0.185
-0.165
-0.175
-0.17
-0.165
-0.17
-0.18
-0.18
-0.2
-0.18
-0.185
-0.19
-0.165
-0.17
-0.175
-0.175
-0.18
-0.18
-0.185
-0.225
-0.215
-0.22
-0.195
-0.17
-0.18
-0.18
-0.18
-0.18
-0.2
-0.21
-0.205
-0.21
-0.215
-0.175
-0.165
-0.18
-0.195
-0.2
-0.165
-0.18
-0.195
-0.19
-0.185
-0.185
-0.155
-0.205
-0.22
-0.215
-0.225
-0.215
-0.225
-0.21
-0.195
-0.195
-0.22
-0.21
-0.235
-0.22
-0.215
-0.205
-0.195
-0.205
-0.225
-0.215
-0.23
-0.225
-0.21
-0.2
-0.18
-0.21
-0.23
-0.24
-0.225
-0.19
-0.21
-0.21
-0.2
-0.205
-0.225
-0.2
-0.21
-0.22
-0.215
-0.195
-0.215
-0.215
-0.22
-0.22
-0.23
-0.2
-0.215
-0.235
-0.24
-0.22
-0.22
-0.215
-0.23
-0.22
-0.24
-0.245
-0.23
-0.24
-0.25
-0.19
-0.225
-0.225
-0.205
-0.22
-0.215
-0.225
-0.225
-0.225
-0.235
-0.225
-0.21
-0.23
-0.225
-0.23
-0.225
-0.195
-0.185
-0.22
-0.205
-0.19
-0.235
-0.225
-0.18
-0.2
-0.19
-0.2
-0.18
-0.195
-0.195
-0.18
-0.205
-0.195
-0.19
-0.235
-0.255
-0.25
-0.245
-0.25
-0.26
-0.25
-0.255
-0.27
-0.26
-0.26
-0.26
-0.235
-0.265
-0.26
-0.245
-0.25
-0.23
-0.225
-0.265
-0.28
-0.275
-0.26
-0.265
-0.285
-0.265
-0.24
-0.27
-0.275
-0.295
-0.295
-0.28
-0.265
-0.31
-0.295
-0.305
-0.28
-0.315
-0.275
-0.215
-0.15
-0.065
0.035
0.155
0.215
0.335
0.365
0.325
0.275
0.22
0.075
-0.115
-0.3
-0.47
-0.56
-0.565
-0.535
-0.565
-0.565
-0.53
-0.515
-0.52
-0.47
-0.49
-0.445
-0.41
-0.375
-0.38
-0.34
-0.34
-0.33
-0.305
-0.295
-0.285
-0.3
-0.28
-0.285
-0.285
-0.31
-0.3
-0.305
-0.305
-0.285
-0.295
-0.295
-0.28
-0.27
-0.285
-0.255
-0.28
-0.265
-0.28
-0.295
-0.29
-0.26
-0.23
-0.24
-0.31
-0.255
-0.265
-0.26
-0.26
-0.25
-0.255
-0.265
-0.24
-0.24
-0.25
-0.26
-0.27
-0.27
-0.25
-0.24
-0.245
-0.255
-0.245
-0.245
-0.22
-0.215
-0.22
-0.205
-0.18
-0.225
-0.19
-0.19
-0.185
-0.19
-0.17
-0.185
-0.15
-0.155
-0.15
-0.14
-0.16
-0.15
-0.13
-0.135
-0.135
-0.11
-0.11
-0.105
-0.105
-0.1
-0.115
-0.1
-0.06
-0.075
-0.065
-0.06
-0.055
-0.095
-0.05
-0.055
-0.04
-0.03
-0.075
-0.02
-0.025
-0.02
-0.05
-0.065
-0.04
-0.05
-0.075
-0.075
-0.065
-0.06
-0.095
-0.13
-0.135
-0.14
-0.17
-0.17
-0.155
-0.15
-0.155
-0.18
-0.22
-0.235
-0.235
-0.24
-0.24
-0.25
-0.26
-0.25
-0.25
-0.26
-0.26
-0.26
-0.295
-0.255
-0.255
-0.265
-0.255
-0.255
-0.27
-0.27
-0.295
-0.265
-0.265
-0.29
-0.285
-0.31
-0.305
-0.305
-0.265
-0.3
-0.305
-0.3
-0.295
-0.295
-0.31
-0.31
-0.3
-0.285
-0.28
-0.3
-0.33
-0.3
-0.315
-0.335
-0.34
-0.31
-0.305
-0.27
-0.285
-0.28
-0.305
-0.275
-0.3
-0.295
-0.29
-0.285
-0.275
-0.265
-0.3
-0.31
-0.295
-0.305
-0.315
-0.29
-0.3
-0.3
-0.3
-0.29
-0.29
-0.295
-0.275
-0.29
-0.31
-0.27
-0.285
-0.315
-0.315
-0.285
-0.295
-0.285
-0.285
-0.275
-0.3
-0.275
-0.3
-0.34
-0.3
-0.28
-0.275
-0.27
-0.27
-0.275
-0.285
-0.3
-0.29
-0.275
-0.27
-0.295
-0.285
-0.285
-0.3
-0.275
-0.3
-0.285
-0.295
-0.3
-0.285
-0.285
-0.285
-0.315
-0.295
-0.28
-0.305
-0.295
-0.3
-0.305
-0.26
-0.265
-0.3
-0.285
-0.29
-0.29
-0.3
-0.31
-0.29
-0.295
-0.28
-0.27
-0.29
-0.29
-0.28
-0.29
-0.305
-0.29
-0.3
-0.3
-0.285
-0.28
-0.3
-0.28
-0.29
-0.305
-0.305
-0.305
-0.305
-0.295
-0.28
-0.285
-0.285
-0.3
-0.28
-0.29
-0.305
-0.315
-0.285
-0.28
-0.265
-0.25
-0.3
-0.28
-0.3
-0.33
-0.31
-0.315
-0.3
-0.31
-0.285
-0.275
-0.285
-0.31
-0.295
-0.31
-0.32
-0.295
-0.275
-0.28
-0.265
-0.275
-0.29
-0.305
-0.3
-0.32
-0.3
-0.295
-0.28
-0.29
-0.27
-0.285
-0.27
-0.285
-0.275
-0.31
-0.325
-0.26
-0.245
-0.26
-0.24
-0.235
-0.26
-0.24
-0.25
-0.265
-0.26
-0.245
-0.27
-0.265
-0.275
-0.3
-0.32
-0.295
-0.315
-0.36
-0.34
-0.3
-0.31
-0.315
-0.295
-0.315
-0.335
-0.325
-0.33
-0.285
-0.285
-0.32
-0.32
-0.33
-0.315
-0.325
-0.335
-0.34
-0.325
-0.32
-0.305
-0.335
-0.355
-0.355
-0.34
-0.355
-0.33
-0.36
-0.36
-0.38
-0.335
-0.31
-0.285
-0.195
-0.075
-0.01
0.085
0.205
0.26
0.23
0.245
0.25
0.18
0.055
-0.12
-0.325
-0.505
-0.605
-0.59
-0.61
-0.59
-0.585
-0.61
-0.575
-0.545
-0.515
-0.54
-0.51
-0.48
-0.455
-0.425
-0.39
-0.395
-0.37
-0.355
-0.34
-0.335
-0.33
-0.35
-0.345
-0.35
-0.355
-0.375
-0.34
-0.31
-0.335
-0.345
-0.335
-0.325
-0.355
-0.345
-0.34
-0.365
-0.315
-0.32
-0.345
-0.3
-0.33
-0.335
-0.35
-0.325
-0.315
-0.35
-0.355
-0.33
-0.335
-0.31
-0.28
-0.34
-0.33
-0.31
-0.285
-0.28
-0.28
-0.265
-0.28
-0.285
-0.275
-0.28
-0.275
-0.295
-0.27
-0.265
-0.23
-0.235
-0.255
-0.26
-0.25
-0.26
-0.23
-0.23
-0.24
-0.225
-0.2
-0.23
-0.22
-0.205
-0.175
-0.205
-0.21
-0.165
-0.15
-0.15
-0.155
-0.14
-0.145
-0.13
-0.11
-0.145
-0.115
-0.1
-0.11
-0.095
-0.09
-0.08
-0.085
-0.08
-0.095
-0.125
-0.105
-0.11
-0.085
-0.105
-0.075
-0.13
-0.115
-0.095
-0.11
-0.15
-0.15
-0.145
-0.19
-0.185
-0.17
-0.195
-0.21
-0.195
-0.235
-0.22
-0.24
-0.255
-0.265
-0.25
-0.255
-0.28
-0.28
-0.285
-0.3
-0.3
-0.305
-0.325
-0.31
-0.295
-0.295
-0.315
-0.315
-0.32
-0.33
-0.35
-0.325
-0.325
-0.34
-0.33
-0.32
-0.365
-0.33
-0.335
-0.33
-0.355
-0.355
-0.34
-0.345
-0.35
-0.35
-0.36
-0.325
-0.35
-0.35
-0.355
-0.355
-0.36
-0.37
-0.35
-0.3
-0.36
-0.365
-0.355
-0.37
-0.365
-0.37
-0.35
-0.34
-0.34
-0.335
-0.355
-0.355
-0.33
-0.325
-0.355
-0.35
-0.35
-0.33
-0.325
-0.345
-0.365
-0.315
-0.355
-0.345
-0.335
-0.32
-0.35
-0.37
-0.325
-0.325
-0.33
-0.355
-0.37
-0.375
-0.355
-0.345
-0.34
-0.335
-0.315
-0.33
-0.34
-0.345
-0.345
-0.345
-0.35
-0.335
-0.35
-0.335
-0.315
-0.325
-0.36
-0.36
-0.315
-0.365
-0.355
-0.345
-0.33
-0.37
-0.335
-0.33
-0.345
-0.345
-0.36
-0.345
-0.35
-0.34
-0.335
-0.38
-0.345
-0.305
-0.34
-0.345
-0.33
-0.33
-0.335
-0.32
-0.345
-0.355
-0.33
-0.34
-0.35
-0.345
-0.34
-0.35
-0.33
-0.355
-0.35
-0.35
-0.345
-0.33
-0.345
-0.355
-0.35
-0.365
-0.365
-0.36
-0.355
-0.365
-0.325
-0.34
-0.35
-0.355
-0.355
-0.35
-0.33
-0.335
-0.35
-0.33
-0.33
-0.34
-0.33
-0.335
-0.395
-0.37
-0.33
-0.35
-0.34
-0.32
-0.31
-0.34
-0.355
-0.305
-0.325
-0.335
-0.305
-0.31
-0.31
-0.29
-0.305
-0.275
-0.29
-0.31
-0.32
-0.28
-0.305
-0.33
-0.35
-0.36
-0.355
-0.33
-0.38
-0.39
-0.375
-0.39
-0.365
-0.355
-0.385
-0.385
-0.37
-0.4
-0.395
-0.375
-0.385
-0.405
-0.39
-0.385
-0.415
-0.33
-0.32
-0.375
-0.37
-0.37
-0.39
-0.385
-0.365
-0.39
-0.385
-0.375
-0.37
-0.39
-0.42
-0.4
-0.415
-0.4
-0.36
-0.31
-0.23
-0.15
-0.03
0.05
0.105
0.11
0.11
0.1
0.11
0.02
-0.085
-0.235
-0.48
-0.615
-0.645
-0.63
-0.625
-0.625
-0.615
-0.62
-0.58
-0.585
-0.595
-0.58
-0.6
-0.525
-0.54
-0.5
-0.485
-0.49
-0.46
-0.455
-0.42
-0.41
-0.42
-0.43
-0.43
-0.435
-0.4
-0.385
-0.405
-0.39
-0.38
-0.395
-0.405
-0.385
-0.41
-0.39
-0.395
-0.41
-0.38
-0.37
-0.375
-0.37
-0.385
-0.385
-0.4
-0.36
-0.36
-0.375
-0.35
-0.355
-0.365
-0.385
-0.35
-0.34
-0.38
-0.375
-0.31
-0.38
-0.355
-0.32
-0.36
-0.36
-0.335
-0.35
-0.345
-0.355
-0.335
-0.33
-0.325
-0.31
-0.32
-0.315
-0.305
-0.3
-0.31
-0.295
-0.28
-0.275
-0.26
-0.265
-0.265
-0.26
-0.25
-0.23
-0.23
-0.24
-0.24
-0.19
-0.195
-0.185
-0.195
-0.17
-0.175
-0.17
-0.21
-0.135
-0.16
-0.15
-0.15
-0.14
-0.16
-0.13
-0.145
-0.155
-0.155
-0.155
-0.165
-0.16
-0.165
-0.145
-0.175
-0.21
-0.195
-0.22
-0.23
-0.245
-0.245
-0.25
-0.27
-0.26
-0.325
-0.285
-0.305
-0.33
-0.335
-0.33
-0.345
-0.36
-0.355
-0.36
-0.37
-0.385
-0.41
-0.395
-0.425
-0.39
-0.385
-0.4
-0.4
-0.41
-0.41
-0.415
-0.43
-0.465
-0.415
-0.41
-0.41
-0.425
-0.42
-0.395
-0.425
-0.435
-0.44
-0.44
-0.45
-0.41
-0.445
-0.455
-0.42
-0.42
-0.445
-0.45
-0.455
-0.465
-0.47
-0.465
-0.435
-0.435
-0.43
-0.43
-0.45
-0.465
-0.46
-0.435
-0.455
-0.45
-0.455
-0.46
-0.42
-0.43
-0.45
-0.465
-0.45
-0.45
-0.44
-0.435
-0.435
-0.45
-0.435
-0.425
-0.435
-0.425
-0.43
-0.445
-0.42
-0.41
-0.44
-0.43
-0.43
-0.41
-0.405
-0.435
-0.455
-0.43
-0.445
-0.425
-0.445
-0.43
-0.41
-0.44
-0.425
-0.425
-0.425
-0.445
-0.445
-0.445
-0.435
-0.435
-0.415
-0.425
-0.45
-0.44
-0.445
-0.485
-0.455
-0.445
-0.47
-0.45
-0.455
-0.43
-0.43
-0.435
-0.45
-0.455
-0.45
-0.455
-0.455
-0.455
-0.435
-0.435
-0.445
-0.445
-0.45
-0.46
-0.44
-0.44
-0.45
-0.47
-0.445
-0.43
-0.445
-0.465
-0.445
-0.455
-0.45
-0.44
-0.46
-0.435
-0.43
-0.45
-0.455
-0.46
-0.475
-0.44
-0.425
-0.44
-0.47
-0.44
-0.445
-0.445
-0.44
-0.44
-0.445
-0.445
-0.42
-0.43
-0.43
-0.425
-0.39
-0.42
-0.415
-0.405
-0.405
-0.445
-0.43
-0.395
-0.425
-0.435
-0.445
-0.455
-0.455
-0.485
-0.49
-0.475
-0.47
-0.485
-0.49
-0.475
-0.47
-0.48
-0.495
-0.47
-0.49
-0.49
-0.5
-0.505
-0.52
-0.465
-0.505
-0.52
-0.46
-0.475
-0.495
-0.48
-0.5
-0.48
-0.5
-0.485
-0.5
-0.5
-0.5
-0.51
-0.54
-0.545
-0.52
-0.52
-0.49
-0.45
-0.395
-0.325
-0.245
-0.12
-0.055
0.02
0.025
0.01
-0.01
-0.045
-0.07
-0.185
-0.4
-0.64
-0.73
-0.75
-0.74
-0.725
-0.74
-0.725
-0.705
-0.695
-0.71
-0.685
-0.7
-0.655
-0.605
-0.61
-0.59
-0.57
-0.55
-0.525
-0.52
-0.545
-0.55
-0.53
-0.535
-0.53
-0.53
-0.515
-0.49
-0.49
-0.525
-0.505
-0.525
-0.5
-0.47
-0.47
-0.475
-0.455
-0.5
-0.51
-0.465
-0.485
-0.49
-0.47
-0.47
-0.465
-0.475
-0.47
-0.47
-0.455
-0.475
-0.465
-0.49
-0.465
-0.475
-0.465
-0.475
-0.455
-0.475
-0.45
-0.435
-0.435
-0.455
-0.45
-0.455
-0.455
-0.45
-0.43
-0.435
-0.41
-0.405
-0.42
-0.42
-0.4
-0.4
-0.42
-0.39
-0.35
-0.38
-0.375
-0.375
-0.36
-0.36
-0.325
-0.3
-0.325
-0.315
-0.3
-0.295
-0.29
-0.285
-0.305
-0.26
-0.27
-0.265
-0.265
-0.26
-0.255
-0.235
-0.255
-0.24
-0.285
-0.255
-0.255
-0.245
-0.265
-0.23
-0.235
-0.265
-0.275
-0.285
-0.285
-0.305
-0.305
-0.33
-0.34
-0.355
-0.325
-0.345
-0.36
-0.36
-0.375
-0.4
-0.395
-0.4
-0.42
-0.41
-0.4
-0.435
-0.45
-0.465
-0.45
-0.46
-0.47
-0.485
-0.475
-0.45
-0.47
-0.465
-0.48
-0.51
-0.5
-0.475
-0.51
-0.52
-0.51
-0.47
-0.495
-0.51
-0.52
-0.505
-0.53
-0.53
-0.545
-0.5
-0.515
-0.5
-0.5
-0.515
-0.525
-0.51
-0.525
-0.52
-0.525
-0.52
-0.51
-0.51
-0.52
-0.5
-0.525
-0.565
-0.49
-0.5
-0.5
-0.51
-0.525
-0.5
-0.495
-0.525
-0.505
-0.5
-0.535
-0.505
-0.495
-0.495
-0.495
-0.485
-0.47
-0.5
-0.485
-0.505
-0.53
-0.49
-0.495
-0.54
-0.5
-0.47
-0.495
-0.505
-0.49
-0.47
-0.46
-0.475
-0.51
-0.51
-0.485
-0.475
-0.49
-0.495
-0.485
-0.495
-0.51
-0.515
-0.495
-0.48
-0.475
-0.48
-0.485
-0.5
-0.495
-0.505
-0.51
-0.5
-0.515
-0.525
-0.49
-0.525
-0.49
-0.5
-0.49
-0.49
-0.52
-0.495
-0.5
-0.51
-0.48
-0.445
-0.465
-0.485
-0.49
-0.475
-0.495
-0.485
-0.49
-0.495
-0.475
-0.48
-0.5
-0.5
-0.51
-0.49
-0.52
-0.5
-0.49
-0.495
-0.495
-0.495
-0.49
-0.48
-0.51
-0.485
-0.485
-0.48
-0.475
-0.47
-0.475
-0.515
-0.495
-0.505
-0.485
-0.51
-0.495
-0.47
-0.47
-0.485
-0.435
-0.455
-0.455
-0.47
-0.465
-0.46
-0.485
-0.47
-0.425
-0.45
-0.445
-0.43
-0.44
-0.45
-0.46
-0.485
-0.49
-0.525
-0.5
-0.52
-0.51
-0.49
-0.505
-0.52
-0.52
-0.54
-0.52
-0.515
-0.525
-0.525
-0.5
-0.49
-0.505
-0.515
-0.5
-0.53
-0.515
-0.52
-0.535
-0.515
-0.51
-0.5
-0.525
-0.52
-0.54
-0.54
-0.53
-0.52
-0.555
-0.545
-0.525
-0.52
-0.525
-0.54
-0.525
-0.525
-0.46
-0.385
-0.3
-0.18
-0.07
0.0
0.045
0.035
0.025
-0.005
-0.055
-0.135
-0.325
-0.57
-0.72
-0.8
-0.825
-0.545
-0.535
-0.55
-0.57
-0.545
-0.53
-0.545
-0.545
-0.54
-0.535
-0.535
-0.485
-0.49
-0.525
-0.51
-0.535
-0.515
-0.515
-0.5
-0.505
-0.49
-0.495
-0.51
-0.525
-0.505
-0.5
-0.505
-0.505
-0.505
-0.495
-0.46
-0.485
-0.495
-0.505
-0.49
-0.505
-0.505
-0.49
-0.49
-0.495
-0.495
-0.48
-0.475
-0.45
-0.49
-0.485
-0.485
-0.45
-0.455
-0.465
-0.445
-0.42
-0.43
-0.415
-0.435
-0.425
-0.415
-0.4
-0.42
-0.41
-0.37
-0.385
-0.38
-0.375
-0.37
-0.355
-0.345
-0.335
-0.335
-0.32
-0.295
-0.3
-0.305
-0.29
-0.27
-0.295
-0.305
-0.265
-0.29
-0.29
-0.28
-0.275
-0.28
-0.24
-0.265
-0.3
-0.295
-0.3
-0.295
-0.3
-0.32
-0.305
-0.315
-0.35
-0.33
-0.35
-0.36
-0.35
-0.36
-0.395
-0.375
-0.41
-0.425
-0.42
-0.43
-0.46
-0.47
-0.445
-0.46
-0.465
-0.46
-0.455
-0.48
-0.48
-0.495
-0.5
-0.51
-0.5
-0.5
-0.51
-0.49
-0.5
-0.505
-0.5
-0.52
-0.555
-0.52
-0.52
-0.525
-0.525
-0.5
-0.53
-0.53
-0.54
-0.545
-0.52
-0.54
-0.53
-0.54
-0.53
-0.52
-0.515
-0.55
-0.535
-0.545
-0.525
-0.525
-0.535
-0.54
-0.53
-0.5
-0.53
-0.545
-0.525
-0.535
-0.545
-0.535
-0.55
-0.54
-0.53
-0.485
-0.525
-0.535
-0.55
-0.525
-0.555
-0.54
-0.535
-0.54
-0.545
-0.535
-0.51
-0.52
-0.535
-0.53
-0.555
-0.535
-0.52
-0.54
-0.515
-0.505
-0.53
-0.53
-0.54
-0.49
-0.525
-0.53
-0.505
-0.52
-0.51
-0.495
-0.515
-0.515
-0.5
-0.51
-0.54
-0.525
-0.53
-0.485
-0.49
-0.5
-0.545
-0.55
-0.555
-0.55
-0.525
-0.52
-0.525
-0.53
-0.535
-0.52
-0.49
-0.51
-0.52
-0.545
-0.555
-0.515
-0.545
-0.515
-0.51
-0.515
-0.52
-0.52
-0.525
-0.515
-0.52
-0.525
-0.51
-0.54
-0.53
-0.505
-0.52
-0.51
-0.535
-0.515
-0.545
-0.54
-0.53
-0.52
-0.565
-0.485
-0.49
-0.515
-0.515
-0.52
-0.52
-0.485
-0.515
-0.52
-0.525
-0.505
-0.51
-0.47
-0.505
-0.54
-0.51
-0.505
-0.5
-0.515
-0.5
-0.495
-0.495
-0.495
-0.495
-0.52
-0.505
-0.47
-0.475
-0.485
-0.44
-0.47
-0.49
-0.49
-0.46
-0.49
-0.485
-0.495
-0.535
-0.51
-0.545
-0.56
-0.51
-0.515
-0.525
-0.55
-0.54
-0.55
-0.555
-0.54
-0.54
-0.545
-0.555
-0.545
-0.535
-0.565
-0.56
-0.53
-0.545
-0.535
-0.54
-0.53
-0.535
-0.555
-0.545
-0.54
-0.53
-0.6
-0.55
-0.54
-0.53
-0.535
-0.56
-0.57
-0.57
-0.54
-0.495
-0.445
-0.385
-0.255
-0.13
-0.065
0.015
0.045
0.035
0.005
-0.025
-0.1
-0.23
-0.42
-0.64
-0.815
-0.84
-0.865
-0.835
-0.83
-0.825
-0.805
-0.8
-0.74
-0.72
-0.72
-0.69
-0.67
-0.66
-0.63
-0.585
-0.59
-0.615
-0.57
-0.515
-0.56
-0.575
-0.56
-0.595
-0.565
-0.555
-0.55
-0.555
-0.55
-0.545
-0.56
-0.56
-0.555
-0.555
-0.56
-0.535
-0.535
-0.545
-0.54
-0.525
-0.54
-0.56
-0.54
-0.54
-0.54
-0.545
-0.53
-0.515
-0.51
-0.565
-0.495
-0.495
-0.52
-0.535
-0.525
-0.53
-0.505
-0.525
-0.51
-0.535
-0.51
-0.495
-0.52
-0.545
-0.525
-0.515
-0.495
-0.49
-0.47
-0.49
-0.5
-0.485
-0.48
-0.475
-0.465
-0.465
-0.455
-0.445
-0.435
-0.41
-0.405
-0.395
-0.4
-0.425
-0.4
-0.36
-0.405
-0.405
-0.39
-0.405
-0.325
-0.33
-0.345
-0.36
-0.335
-0.32
-0.33
-0.345
-0.285
-0.305
-0.31
-0.325
-0.305
-0.32
-0.325
-0.325
-0.35
-0.325
-0.315
-0.335
-0.36
-0.345
-0.35
-0.36
-0.365
-0.41
-0.4
-0.41
-0.385
-0.42
-0.445
-0.465
-0.47
-0.51
-0.505
-0.485
-0.505
-0.52
-0.515
-0.505
-0.52
-0.55
-0.55
-0.57
-0.57
-0.535
-0.53
-0.53
-0.54
-0.56
-0.58
-0.57
-0.57
-0.545
-0.55
-0.57
-0.535
-0.535
-0.555
-0.585
-0.565
-0.565
-0.595
-0.565
-0.555
-0.565
-0.59
-0.57
-0.555
-0.575
-0.565
-0.55
-0.57
-0.58
-0.575
-0.585
-0.575
-0.56
-0.56
-0.565
-0.57
-0.565
-0.59
-0.58
-0.61
-0.535
-0.565
-0.54
-0.57
-0.6
-0.565
-0.53
-0.55
-0.575
-0.585
-0.585
-0.58
-0.58
-0.58
-0.6
-0.565
-0.58
-0.585
-0.585
-0.565
-0.59
-0.555
-0.575
-0.56
-0.575
-0.55
-0.555
-0.57
-0.58
-0.565
-0.555
-0.565
-0.54
-0.535
-0.545
-0.565
-0.565
-0.535
-0.525
-0.535
-0.565
-0.54
-0.55
-0.56
-0.575
-0.545
-0.555
-0.56
-0.575
-0.565
-0.56
-0.58
-0.55
-0.55
-0.55
-0.56
-0.545
-0.59
-0.59
-0.59
-0.585
-0.575
-0.54
-0.56
-0.575
-0.57
-0.555
-0.575
-0.555
-0.555
-0.56
-0.585
-0.525
-0.535
-0.575
-0.55
-0.54
-0.545
-0.54
-0.53
-0.54
-0.535
-0.52
-0.545
-0.55
-0.585
-0.58
-0.555
-0.575
-0.57
-0.57
-0.545
-0.56
-0.56
-0.59
-0.59
-0.55
-0.585
-0.58
-0.545
-0.51
-0.515
-0.505
-0.52
-0.51
-0.545
-0.52
-0.485
-0.515
-0.5
-0.56
-0.55
-0.505
-0.53
-0.53
-0.555
-0.515
-0.51
-0.515
-0.51
-0.5
-0.485
-0.475
-0.485
-0.49
-0.445
-0.46
-0.49
-0.48
-0.505
-0.5
-0.485
-0.475
-0.51
-0.5
-0.52
-0.54
-0.54
-0.585
-0.53
-0.525
-0.525
-0.515
-0.515
-0.535
-0.53
-0.53
-0.555
-0.535
-0.53
-0.555
-0.515
-0.515
-0.53
-0.53
-0.515
-0.535
-0.535
-0.535
-0.52
-0.535
-0.525
-0.53
-0.545
-0.52
-0.55
-0.58
-0.565
-0.595
-0.56
-0.46
-0.445
-0.365
-0.245
-0.195
-0.06
0.03
0.015
0.01
0.025
-0.005
-0.02
-0.16
-0.36
-0.6
-0.75
-0.805
-0.81
-0.77
-0.745
-0.76
-0.755
-0.715
-0.71
-0.715
-0.715
-0.7
-0.685
-0.65
-0.65
-0.635
-0.535
-0.535
-0.57
-0.55
-0.525
-0.53
-0.54
-0.52
-0.54
-0.525
-0.5
-0.53
-0.56
-0.48
-0.48
-0.515
-0.505
-0.485
-0.49
-0.51
-0.475
-0.475
-0.49
-0.515
-0.49
-0.495
-0.49
-0.515
-0.52
-0.5
-0.49
-0.495
-0.51
-0.485
-0.495
-0.505
-0.485
-0.485
-0.48
-0.47
-0.46
-0.465
-0.46
-0.47
-0.48
-0.475
-0.445
-0.45
-0.45
-0.435
-0.42
-0.44
-0.46
-0.445
-0.44
-0.435
-0.43
-0.42
-0.415
-0.405
-0.375
-0.39
-0.375
-0.36
-0.385
-0.405
-0.36
-0.34
-0.335
-0.34
-0.33
-0.315
-0.305
-0.3
-0.305
-0.27
-0.255
-0.31
-0.28
-0.275
-0.24
-0.255
-0.29
-0.285
-0.28
-0.285
-0.29
-0.25
-0.27
-0.28
-0.27
-0.285
-0.325
-0.29
-0.27
-0.3
-0.31
-0.33
-0.335
-0.34
-0.345
-0.38
-0.37
-0.385
-0.42
-0.41
-0.415
-0.425
-0.43
-0.45
-0.445
-0.455
-0.465
-0.475
-0.47
-0.475
-0.49
-0.495
-0.495
-0.52
-0.495
-0.515
-0.51
-0.515
-0.52
-0.53
-0.51
-0.51
-0.5
-0.515
-0.5
-0.52
-0.535
-0.525
-0.555
-0.55
-0.535
-0.545
-0.565
-0.55
-0.595
-0.545
-0.52
-0.555
-0.545
-0.535
-0.54
-0.535
-0.54
-0.535
-0.535
-0.545
-0.535
-0.515
-0.535
-0.545
-0.525
-0.555
-0.58
-0.52
-0.525
-0.55
-0.56
-0.535
-0.545
-0.55
-0.535
-0.55
-0.545
-0.525
-0.535
-0.54
-0.55
-0.56
-0.545
-0.54
-0.535
-0.54
-0.53
-0.52
-0.53
-0.535
-0.515
-0.535
-0.53
-0.525
-0.53
-0.54
-0.525
-0.515
-0.53
-0.545
-0.54
-0.52
-0.54
-0.575
-0.56
-0.57
-0.545
-0.535
-0.52
-0.55
-0.54
-0.575
-0.605
-0.575
-0.555
-0.57
-0.565
-0.57
-0.58
-0.57
-0.575
-0.575
-0.57
-0.585
-0.59
-0.575
-0.595
-0.59
-0.595
-0.58
-0.58
-0.58
-0.61
-0.595
-0.59
-0.605
-0.6
-0.575
-0.595
-0.605
-0.605
-0.59
-0.6
-0.59
-0.585
-0.6
-0.61
-0.595
-0.585
-0.615
-0.615
-0.59
-0.615
-0.61
-0.595
-0.585
-0.605
-0.6
-0.64
-0.625
-0.605
-0.62
-0.65
-0.625
-0.6
-0.6
-0.6
-0.59
-0.605
-0.605
-0.615
-0.62
-0.605
-0.595
-0.59
-0.59
-0.585
-0.59
-0.6
-0.605
-0.605
-0.62
-0.61
-0.595
-0.61
-0.6
-0.595
-0.6
-0.595
-0.585
-0.59
-0.605
-0.595
-0.595
-0.545
-0.55
-0.58
-0.58
-0.55
-0.57
-0.56
-0.555
-0.59
-0.58
-0.605
-0.62
-0.605
-0.61
-0.615
-0.63
-0.62
-0.655
-0.65
-0.62
-0.63
-0.62
-0.62
-0.625
-0.64
-0.635
-0.64
-0.64
-0.64
-0.64
-0.655
-0.635
-0.63
-0.625
-0.64
-0.635
-0.635
-0.65
-0.65
-0.66
-0.66
-0.65
-0.63
-0.645
-0.66
-0.67
-0.66
-0.625
-0.59
-0.55
-0.435
-0.32
-0.205
-0.13
-0.065
-0.055
-0.055
-0.095
-0.13
-0.215
-0.395
-0.57
-0.78
-0.915
-0.95
-0.955
-0.92
-0.93
-0.915
-0.88
-0.865
-0.865
-0.815
-0.815
-0.8
-0.75
-0.75
-0.69
-0.69
-0.67
-0.655
-0.66
-0.65
-0.635
-0.67
-0.67
-0.66
-0.68
-0.665
-0.65
-0.645
-0.59
-0.585
-0.635
-0.63
-0.615
-0.635
-0.64
-0.63
-0.63
-0.64
-0.61
-0.62
-0.645
-0.645
-0.625
-0.62
-0.64
-0.63
-0.62
-0.615
-0.605
-0.585
-0.6
-0.61
-0.6
-0.605
-0.6
-0.585
-0.59
-0.6
-0.59
-0.57
-0.58
-0.585
-0.565
-0.56
-0.59
-0.585
-0.555
-0.55
-0.54
-0.535
-0.545
-0.54
-0.55
-0.53
-0.525
-0.51
-0.52
-0.51
-0.495
-0.48
-0.475
-0.49
-0.475
-0.495
-0.475
-0.45
-0.43
-0.38
-0.41
-0.45
-0.425
-0.42
-0.42
-0.445
-0.405
-0.395
-0.37
-0.385
-0.38
-0.355
-0.365
-0.36
-0.355
-0.37
-0.37
-0.37
-0.375
-0.38
-0.375
-0.39
-0.405
-0.405
-0.41
-0.44
-0.44
-0.44
-0.46
-0.465
-0.46
-0.465
-0.5
-0.5
-0.51
-0.53
-0.53
-0.515
-0.55
-0.55
-0.52
-0.54
-0.585
-0.56
-0.56
-0.575
-0.56
-0.58
-0.595
-0.57
-0.57
-0.585
-0.61
-0.59
-0.575
-0.58
-0.59
-0.595
-0.605
-0.59
-0.58
-0.595
-0.6
-0.61
-0.61
-0.615
-0.6
-0.61
-0.62
-0.635
-0.595
-0.6
-0.605
-0.635
-0.635
-0.65
-0.645
-0.615
-0.635
-0.64
-0.62
-0.645
-0.635
-0.63
-0.62
-0.66
-0.66
-0.655
-0.645
-0.67
-0.63
-0.65
-0.655
-0.645
-0.65
-0.67
-0.66
-0.63
-0.635
-0.65
-0.62
-0.635
-0.63
-0.63
-0.63
-0.635
-0.615
-0.585
-0.615
-0.59
-0.59
-0.585
-0.575
-0.58
-0.59
-0.585
-0.585
-0.575
-0.565
-0.555
-0.54
-0.555
-0.545
-0.55
-0.55
-0.56
-0.535
-0.545
-0.535
-0.52
-0.53
-0.52
-0.52
-0.54
-0.53
-0.535
-0.505
-0.52
-0.525
-0.5
-0.515
-0.515
-0.51
-0.5
-0.515
-0.515
-0.49
-0.505
-0.485
-0.495
-0.49
-0.485
-0.485
-0.49
-0.47
-0.49
-0.475
-0.49
-0.47
-0.465
-0.45
-0.47
-0.46
-0.465
-0.465
-0.49
-0.445
-0.46
-0.445
-0.425
-0.425
-0.43
-0.44
-0.46
-0.435
-0.455
-0.43
-0.43
-0.425
-0.415
-0.42
-0.43
-0.435
-0.415
-0.43
-0.415
-0.4
-0.415
-0.425
-0.405
-0.41
-0.41
-0.415
-0.415
-0.425
-0.4
-0.405
-0.395
-0.39
-0.375
-0.4
-0.39
-0.41
-0.41
-0.415
-0.4
-0.405
-0.405
-0.4
-0.385
-0.37
-0.39
-0.39
-0.38
-0.41
-0.385
-0.37
-0.38
-0.34
-0.365
-0.37
-0.365
-0.39
-0.37
-0.355
-0.37
-0.36
-0.37
-0.35
-0.345
-0.36
-0.365
-0.36
-0.345
-0.36
-0.34
-0.345
-0.35
-0.335
-0.315
-0.32
-0.31
-0.28
-0.3
-0.33
-0.295
-0.3
-0.33
-0.305
-0.295
-0.31
-0.335
-0.34
-0.355
-0.385
-0.36
-0.355
-0.38
-0.365
-0.32
-0.36
-0.365
-0.365
-0.365
-0.385
-0.36
-0.355
-0.36
-0.345
-0.345
-0.355
-0.355
-0.34
-0.36
-0.37
-0.34
-0.34
-0.35
-0.35
-0.34
-0.38
-0.395
-0.365
-0.355
-0.375
-0.41
-0.415
-0.375
-0.375
-0.335
-0.29
-0.215
-0.11
-0.005
0.09
0.17
0.19
0.19
0.22
0.215
0.155
-0.025
-0.225
-0.48
-0.605
-0.655
-0.655
-0.655
-0.635
-0.64
-0.65
-0.61
-0.61
-0.61
-0.585
-0.565
-0.54
-0.51
-0.485
-0.47
-0.45
-0.46
-0.45
-0.46
-0.455
-0.45
-0.445
-0.44
-0.43
-0.425
-0.43
-0.44
-0.425
-0.435
-0.44
-0.42
-0.425
-0.445
-0.425
-0.415
-0.42
-0.405
-0.435
-0.445
-0.425
-0.415
-0.425
-0.41
-0.395
-0.405
-0.425
-0.425
-0.435
-0.435
-0.42
-0.415
-0.415
-0.405
-0.385
-0.395
-0.42
-0.4
-0.395
-0.41
-0.38
-0.41
-0.43
-0.385
-0.365
-0.395
-0.39
-0.38
-0.38
-0.385
-0.365
-0.355
-0.35
-0.335
-0.335
-0.345
-0.34
-0.335
-0.325
-0.315
-0.305
-0.3
-0.3
-0.29
-0.265
-0.26
-0.265
-0.26
-0.25
-0.255
-0.23
-0.23
-0.235
-0.225
-0.21
-0.2
-0.225
-0.22
-0.215
-0.22
-0.225
-0.2
-0.225
-0.205
-0.215
-0.22
-0.25
-0.225
-0.22
-0.26
-0.255
-0.25
-0.285
-0.275
-0.275
-0.305
-0.305
-0.315
-0.325
-0.355
-0.36
-0.35
-0.39
-0.38
-0.38
-0.405
-0.41
-0.43
-0.435
-0.445
-0.43
-0.445
-0.455
-0.45
-0.445
-0.47
-0.47
-0.475
-0.495
-0.47
-0.48
-0.49
-0.495
-0.485
-0.49
-0.495
-0.515
-0.495
-0.51
-0.53
-0.51
-0.505
-0.5
-0.49
-0.515
-0.53
-0.5
-0.52
-0.525
-0.505
-0.51
-0.52
-0.515
-0.5
-0.505
-0.515
-0.545
-0.505
-0.525
-0.615
-0.535
-0.5
-0.52
-0.495
-0.515
-0.515
-0.525
-0.53
-0.545
-0.525
-0.535
-0.54
-0.535
-0.51
-0.51
-0.52
-0.535
-0.525
-0.535
-0.525
-0.535
-0.525
-0.52
-0.51
-0.51
-0.515
-0.51
-0.515
-0.53
-0.525
-0.52
-0.53
-0.51
-0.495
-0.51
-0.505
-0.49
-0.515
-0.53
-0.505
-0.505
-0.535
-0.515
-0.51
-0.555
-0.515
-0.495
-0.525
-0.525
-0.52
-0.525
-0.535
-0.505
-0.495
-0.52
-0.59
-0.495
-0.5
-0.54
-0.53
-0.52
-0.52
-0.52
-0.51
-0.525
-0.515
-0.525
-0.53
-0.535
-0.52
-0.53
-0.52
-0.525
-0.515
-0.52
-0.525
-0.525
-0.535
-0.55
-0.545
-0.535
-0.55
-0.55
-0.505
-0.525
-0.525
-0.52
-0.53
-0.525
-0.525
-0.515
-0.535
-0.535
-0.5
-0.515
-0.515
-0.5
-0.525
-0.525
-0.515
-0.515
-0.52
-0.51
-0.48
-0.515
-0.495
-0.495
-0.515
-0.52
-0.515
-0.52
-0.51
-0.495
-0.5
-0.495
-0.515
-0.505
-0.52
-0.52
-0.515
-0.51
-0.515
-0.5
-0.51
-0.52
-0.51
-0.51
-0.53
-0.525
-0.525
-0.52
-0.51
-0.5
-0.495
-0.5
-0.515
-0.48
-0.475
-0.485
-0.47
-0.46
-0.46
-0.44
-0.45
-0.47
-0.48
-0.475
-0.505
-0.51
-0.5
-0.51
-0.5
-0.49
-0.49
-0.495
-0.485
-0.485
-0.48
-0.485
-0.5
-0.505
-0.51
-0.48
-0.475
-0.47
-0.475
-0.475
-0.485
-0.48
-0.465
-0.46
-0.45
-0.46
-0.47
-0.475
-0.485
-0.485
-0.49
-0.48
-0.5
-0.51
-0.485
-0.445
-0.435
-0.415
-0.32
-0.235
-0.14
-0.025
0.05
0.09
0.105
0.13
0.11
0.085
-0.03
-0.22
-0.44
-0.605
-0.69
-0.69
-0.685
-0.66
-0.665
-0.665
-0.65
-0.63
-0.635
-0.615
-0.595
-0.57
-0.54
-0.495
-0.485
-0.48
-0.46
-0.445
-0.425
-0.41
-0.385
-0.405
-0.38
-0.38
-0.395
-0.385
-0.36
-0.375
-0.375
-0.36
-0.35
-0.355
-0.345
-0.32
-0.34
-0.345
-0.34
-0.34
-0.335
-0.325
-0.32
-0.335
-0.28
-0.295
-0.295
-0.295
-0.285
-0.295
-0.31
-0.305
-0.28
-0.28
-0.3
-0.265
-0.275
-0.26
-0.27
-0.28
-0.27
-0.24
-0.245
-0.265
-0.24
-0.22
-0.23
-0.225
-0.235
-0.24
-0.225
-0.225
-0.22
-0.185
-0.18
-0.17
-0.18
-0.17
-0.155
-0.2
-0.165
-0.105
-0.11
-0.115
-0.12
-0.075
-0.065
-0.08
-0.065
-0.075
-0.055
-0.035
-0.035
0.0
-0.005
0.005
0.005
0.005
0.005
0.01
0.015
0.035
0.05
0.045
0.055
0.06
0.055
0.04
0.05
0.035
0.02
0.025
0.03
0.025
0.03
0.02
0.005
-0.005
0.0
-0.035
-0.04
-0.045
-0.055
-0.045
-0.05
-0.065
-0.07
-0.09
-0.09
-0.11
-0.1
-0.105
-0.11
-0.1
-0.09
-0.115
-0.11
-0.11
-0.125
-0.145
-0.135
-0.115
-0.13
-0.11
-0.095
-0.1
-0.11
-0.11
-0.11
-0.115
-0.11
-0.12
-0.12
-0.11
-0.09
-0.11
-0.125
-0.11
-0.12
-0.12
-0.135
-0.115
-0.12
-0.12
-0.1
-0.11
-0.11
-0.12
-0.11
-0.125
-0.095
-0.1
-0.085
-0.1
-0.095
-0.09
-0.1
-0.105
-0.085
-0.095
-0.105
-0.1
-0.1
-0.085
-0.04
-0.07
-0.075
-0.075
-0.075
-0.085
-0.075
-0.07
-0.07
-0.065
-0.035
-0.05
-0.045
-0.045
-0.06
-0.08
-0.065
-0.055
-0.065
-0.05
-0.02
-0.035
-0.05
-0.04
-0.05
-0.055
-0.03
-0.055
-0.06
-0.015
-0.025
-0.035
-0.04
-0.045
-0.05
-0.04
-0.035
-0.035
-0.035
-0.03
-0.015
-0.02
-0.025
-0.025
-0.04
-0.04
-0.035
-0.04
-0.025
-0.015
-0.01
-0.03
-0.025
-0.03
-0.035
-0.025
-0.025
-0.03
-0.005
-0.02
-0.015
-0.025
0.0
-0.02
-0.025
-0.025
-0.03
-0.02
-0.04
0.0
0.01
-0.015
-0.025
-0.02
-0.025
-0.03
-0.015
-0.01
-0.01
-0.005
-0.025
-0.035
-0.02
-0.005
-0.01
-0.02
-0.015
-0.01
0.0
-0.01
-0.01
-0.015
-0.015
0.0
-0.045
-0.015
-0.005
-0.03
-0.005
0.02
0.005
-0.01
-0.005
0.0
-0.005
0.03
0.01
0.0
0.03
0.02
0.015
0.025
0.03
0.015
0.015
0.04
0.05
0.045
0.045
0.07
0.06
0.045
0.065
0.075
0.08
0.095
0.095
0.09
0.105
0.12
0.105
0.08
0.085
0.09
0.11
0.085
0.075
0.07
0.08
0.07
0.07
0.055
0.065
0.065
0.035
0.035
0.06
0.05
0.06
0.1
0.06
0.06
0.06
0.075
0.065
0.06
0.08
0.065
0.08
0.09
0.09
0.08
0.075
0.075
0.05
0.07
0.08
0.055
0.075
0.1
0.065
0.07
0.095
0.12
0.17
0.27
0.35
0.46
0.565
0.67
0.7
0.7
0.67
0.63
0.56
0.435
0.26
0.065
-0.1
-0.175
-0.205
-0.19
-0.17
-0.175
-0.145
-0.11
-0.085
-0.07
-0.05
-0.035
-0.015
0.02
0.055
0.06
0.09
0.095
0.09
0.105
0.105
0.115
0.12
0.11
0.105
0.105
0.12
0.125
0.135
0.125
0.155
0.15
0.135
0.145
0.155
0.13
0.14
0.145
0.155
0.135
0.16
0.17
0.16
0.16
0.14
0.15
0.145
0.175
0.165
0.18
0.19
0.2
0.17
0.165
0.175
0.175
0.18
0.195
0.195
0.185
0.215
0.21
0.195
0.225
0.21
0.195
0.21
0.225
0.225
0.24
0.23
0.245
0.24
0.245
0.27
0.255
0.265
0.28
0.28
0.295
0.325
0.285
0.325
0.32
0.33
0.33
0.365
0.355
0.365
0.375
0.395
0.4
0.41
0.41
0.425
0.405
0.44
0.435
0.43
0.45
0.465
0.44
0.44
0.43
0.455
0.425
0.455
0.45
0.42
0.445
0.465
0.445
0.42
0.415
0.4
0.36
0.38
0.39
0.365
0.385
0.395
0.385
0.36
0.345
0.335
0.325
0.33
0.35
0.31
0.31
0.33
0.315
0.31
0.305
0.29
0.285
0.31
0.3
0.275
0.305
0.315
0.3
0.3
0.295
0.28
0.29
0.305
0.31
0.295
0.31
0.32
0.305
0.305
0.305
0.29
0.285
0.325
0.315
0.31
0.315
0.33
0.33
0.315
0.305
0.3
0.305
0.305
0.32
0.335
0.34
0.345
0.33
0.32
0.335
0.315
0.325
0.335
0.34
0.32
0.345
0.365
0.335
0.305
0.36
0.33
0.305
0.345
0.345
0.34
0.35
0.36
0.345
0.325
0.34
0.34
0.33
0.345
0.365
0.34
0.36
0.37
0.37
0.355
0.365
0.34
0.35
0.36
0.355
0.365
0.385
0.375
0.375
0.365
0.37
0.365
0.37
0.37
0.36
0.355
0.385
0.375
0.365
0.37
0.365
0.35
0.385
0.38
0.36
0.38
0.385
0.375
0.37
0.37
0.375
0.395
0.38
0.375
0.375
0.395
0.39
0.37
0.365
0.37
0.365
0.39
0.4
0.385
0.385
0.39
0.4
0.385
0.365
0.39
0.38
0.38
0.38
0.375
0.375
0.395
0.395
0.39
0.395
0.39
0.375
0.38
0.395
0.41
0.405
0.395
0.405
0.385
0.39
0.39
0.39
0.39
0.385
0.41
0.4
0.395
0.44
0.42
0.395
0.405
0.405
0.39
0.4
0.4
0.4
0.405
0.435
0.41
0.41
0.42
0.415
0.425
0.425
0.445
0.435
0.485
0.48
0.455
0.44
0.465
0.45
0.45
0.425
0.44
0.43
0.44
0.415
0.395
0.38
0.39
0.365
0.37
0.38
0.385
0.4
0.395
0.385
0.405
0.39
0.39
0.37
0.38
0.395
0.385
0.385
0.405
0.41
0.39
0.395
0.39
0.385
0.4
0.385
0.365
0.38
0.37
0.4
0.38
0.355
0.35
0.335
0.33
0.34
0.37
0.4
0.51
0.59
0.645
0.775
0.875
0.92
0.955
0.97
0.96
0.93
0.85
0.67
0.465
0.255
0.13
0.085
0.095
0.115
0.11
0.125
0.155
0.16
0.16
0.165
0.205
0.22
0.24
0.275
0.285
0.325
0.345
0.36
0.355
0.36
0.345
0.34
0.355
0.34
0.365
0.36
0.4
0.37
0.365
0.375
0.37
0.36
0.385
0.39
0.385
0.395
0.405
0.395
0.395
0.385
0.39
0.385
0.4
0.4
0.405
0.415
0.42
0.41
0.415
0.395
0.405
0.405
0.4
0.41
0.42
0.435
0.455
0.435
0.42
0.415
0.42
0.45
0.425
0.445
0.435
0.455
0.435
0.45
0.45
0.465
0.465
0.465
0.465
0.46
0.46
0.5
0.505
0.5
0.51
0.51
0.505
0.51
0.525
0.535
0.54
0.55
0.56
0.56
0.565
0.58
0.575
0.575
0.6
0.605
0.59
0.605
0.635
0.605
0.63
0.6
0.595
0.6
0.61
0.61
0.605
0.615
0.62
0.595
0.585
0.575
0.545
0.55
0.57
0.54
0.525
0.53
0.525
0.515
0.49
0.485
0.47
0.455
0.44
0.445
0.425
0.435
0.43
0.415
0.38
0.385
0.365
0.34
0.375
0.37
0.34
0.385
0.355
0.33
0.35
0.36
0.335
0.34
0.35
0.335
0.335
0.37
0.35
0.33
0.335
0.32
0.31
0.33
0.325
0.32
0.32
0.345
0.33
0.325
0.33
0.31
0.3
0.33
0.335
0.315
0.305
0.34
0.31
0.31
0.325
0.29
0.3
0.305
0.32
0.315
0.335
0.325
0.31
0.315
0.32
0.33
0.295
0.315
0.32
0.31
0.315
0.355
0.31
0.325
0.3
0.3
0.31
0.32
0.305
0.305
0.32
0.335
0.325
0.335
0.325
0.3
0.3
0.305
0.325
0.32
0.32
0.335
0.325
0.335
0.32
0.325
0.31
0.32
0.315
0.32
0.335
0.345
0.32
0.315
0.335
0.32
0.315
0.32
0.315
0.31
0.325
0.315
0.305
0.305
0.305
0.285
0.28
0.28
0.325
0.29
0.3
0.335
0.3
0.295
0.325
0.295
0.28
0.285
0.29
0.31
0.32
0.315
0.29
0.3
0.3
0.28
0.3
0.285
0.295
0.295
0.315
0.32
0.295
0.295
0.31
0.315
0.31
0.315
0.32
0.3
0.315
0.32
0.32
0.295
0.315
0.295
0.325
0.32
0.32
0.335
0.325
0.34
0.335
0.325
0.33
0.33
0.345
0.365
0.34
0.34
0.36
0.365
0.335
0.325
0.315
0.28
0.28
0.305
0.305
0.28
0.3
0.3
0.27
0.265
0.29
0.265
0.265
0.27
0.29
0.265
0.28
0.285
0.27
0.28
0.27
0.255
0.27
0.27
0.275
0.27
0.32
0.28
0.265
0.255
0.245
0.23
0.255
0.26
0.225
0.225
0.24
0.245
0.27
0.285
0.345
0.43
0.535
0.625
0.755
0.815
0.845
0.84
0.845
0.795
0.72
0.55
0.365
0.135
0.02
0.03
0.045
0.06
0.035
0.005
0.04
0.05
0.065
0.08
0.07
0.08
0.125
0.17
0.15
0.175
0.2
0.185
0.215
0.21
0.2
0.215
0.255
0.215
0.225
0.24
0.23
0.22
0.235
0.235
0.215
0.225
0.24
0.235
0.25
0.24
0.25
0.23
0.245
0.235
0.23
0.255
0.27
0.245
0.25
0.25
0.22
0.225
0.255
0.245
0.25
0.26
0.23
0.225
0.27
0.245
0.235
0.21
0.27
0.265
0.24
0.25
0.255
0.26
0.315
0.285
0.265
0.29
0.3
0.31
0.3
0.32
0.325
0.32
0.325
0.345
0.33
0.35
0.355
0.36
0.365
0.39
0.38
0.395
0.385
0.405
0.385
0.405
0.43
0.43
0.435
0.455
0.45
0.435
0.455
0.465
0.44
0.465
0.45
0.465
0.46
0.475
0.475
0.465
0.455
0.48
0.45
0.45
0.455
0.435
0.43
0.435
0.415
0.395
0.375
0.365
0.35
0.355
0.36
0.32
0.315
0.335
0.295
0.285
0.295
0.26
0.24
0.24
0.23
0.25
0.245
0.245
0.23
0.195
0.235
0.215
0.2
0.21
0.205
0.18
0.195
0.225
0.2
0.195
0.195
0.19
0.17
0.2
0.185
0.19
0.21
0.215
0.2
0.205
0.18
0.18
0.165
0.195
0.2
0.19
0.18
0.19
0.17
0.17
0.165
0.155
0.15
0.15
0.16
0.17
0.17
0.17
0.17
0.185
0.16
0.155
0.155
0.17
0.185
0.17
0.185
0.175
0.165
0.18
0.185
0.175
0.165
0.18
0.195
0.18
0.18
0.19
0.195
0.185
0.195
0.21
0.185
0.2
0.195
0.185
0.2
0.21
0.185
0.19
0.21
0.185
0.19
0.19
0.205
0.19
0.205
0.215
0.2
0.19
0.19
0.185
0.18
0.2
0.2
0.195
0.2
0.215
0.195
0.21
0.21
0.18
0.195
0.195
0.195
0.195
0.205
0.22
0.22
0.2
0.205
0.205
0.2
0.2
0.2
0.195
0.24
0.24
0.21
0.185
0.205
0.195
0.21
0.22
0.225
0.22
0.23
0.215
0.21
0.205
0.215
0.195
0.205
0.225
0.235
0.23
0.255
0.235
0.225
0.23
0.255
0.225
0.235
0.245
0.255
0.255
0.29
0.265
0.26
0.25
0.255
0.26
0.255
0.245
0.23
0.22
0.235
0.215
0.22
0.2
0.18
0.16
0.22
0.21
0.2
0.2
0.23
0.19
0.185
0.175
0.195
0.17
0.175
0.185
0.19
0.21
0.195
0.2
0.195
0.205
0.195
0.175
0.18
0.17
0.175
0.19
0.195
0.175
0.165
0.155
0.16
0.18
0.215
0.245
0.31
0.41
0.53
0.615
0.695
0.78
0.775
0.765
0.74
0.705
0.595
0.42
0.21
0.005
-0.09
-0.095
-0.105
-0.095
-0.1
-0.105
-0.065
-0.035
-0.01
-0.03
0.0
0.035
0.045
0.06
0.115
0.14
0.12
0.155
0.17
0.165
0.16
0.16
0.175
0.165
0.175
0.18
0.155
0.195
0.2
0.17
0.165
0.185
0.175
0.18
0.2
0.19
0.185
0.225
0.205
0.185
0.195
0.19
0.2
0.195
0.2
0.215
0.195
0.205
0.21
0.215
0.195
0.21
0.205
0.21
0.205
0.21
0.205
0.23
0.225
0.22
0.225
0.23
0.215
0.24
0.255
0.255
0.24
0.275
0.27
0.245
0.275
0.265
0.275
0.27
0.29
0.29
0.285
0.31
0.32
0.315
0.32
0.325
0.305
0.345
0.36
0.35
0.355
0.38
0.405
0.375
0.4
0.39
0.38
0.4
0.395
0.39
0.42
0.425
0.435
0.42
0.425
0.42
0.415
0.415
0.41
0.395
0.4
0.42
0.4
0.38
0.395
0.37
0.36
0.37
0.35
0.34
0.32
0.33
0.305
0.305
0.295
0.27
0.255
0.255
0.245
0.235
0.225
0.23
0.22
0.215
0.195
0.19
0.18
0.195
0.19
0.18
0.185
0.19
0.175
0.165
0.16
0.165
0.17
0.145
0.145
0.13
0.18
0.18
0.165
0.155
0.15
0.16
0.15
0.16
0.175
0.155
0.165
0.18
0.16
0.165
0.16
0.155
0.15
0.16
0.17
0.175
0.15
0.16
0.15
0.125
0.14
0.165
0.13
0.15
0.155
0.145
0.145
0.18
0.15
0.15
0.155
0.15
0.145
0.175
0.15
0.145
0.165
0.165
0.145
0.16
0.15
0.155
0.15
0.16
0.17
0.15
0.165
0.175
0.155
0.155
0.165
0.155
0.155
0.175
0.155
0.155
0.18
0.18
0.16
0.16
0.155
0.14
0.14
0.17
0.155
0.15
0.175
0.145
0.165
0.16
0.15
0.135
0.155
0.16
0.175
0.15
0.175
0.175
0.165
0.165
0.16
0.14
0.15
0.16
0.165
0.16
0.19
0.175
0.165
0.165
0.17
0.15
0.16
0.14
0.16
0.17
0.175
0.175
0.17
0.16
0.16
0.155
0.175
0.165
0.15
0.16
0.19
0.175
0.17
0.175
0.17
0.165
0.165
0.195
0.185
0.19
0.19
0.195
0.215
0.19
0.19
0.22
0.215
0.22
0.23
0.235
0.23
0.225
0.215
0.21
0.195
0.18
0.155
0.165
0.155
0.165
0.155
0.13
0.14
0.12
0.14
0.12
0.135
0.145
0.14
0.145
0.165
0.14
0.135
0.14
0.145
0.135
0.15
0.145
0.13
0.14
0.155
0.135
0.13
0.15
0.125
0.115
0.115
0.105
0.125
0.12
0.1
0.13
0.11
0.11
0.16
0.21
0.3
0.41
0.5
0.625
0.71
0.725
0.71
0.71
0.67
0.575
0.43
0.235
0.0
-0.11
-0.18
-0.195
-0.165
-0.165
-0.19
-0.155
-0.11
-0.1
-0.075
-0.06
-0.04
0.0
0.02
0.025
0.035
0.055
0.075
0.075
0.085
0.1
0.1
0.085
0.095
0.105
0.08
0.08
0.085
0.09
0.11
0.11
0.12
0.115
0.095
0.12
0.11
0.105
0.115
0.11
0.13
0.145
0.135
0.115
0.13
0.105
0.1
0.12
0.13
0.125
0.12
0.135
0.14
0.11
0.14
0.12
0.105
0.13
0.14
0.125
0.135
0.175
0.155
0.145
0.155
0.16
0.16
0.16
0.165
0.16
0.17
0.19
0.17
0.175
0.175
0.205
0.185
0.215
0.21
0.21
0.235
0.25
0.235
0.245
0.245
0.26
0.265
0.27
0.275
0.27
0.29
0.295
0.305
0.315
0.305
0.31
0.305
0.32
0.33
0.35
0.34
0.36
0.355
0.35
0.35
0.335
0.33
0.34
0.33
0.305
0.335
0.32
0.295
0.28
0.255
0.23
0.235
0.195
0.21
0.2
0.19
0.19
0.155
0.15
0.16
0.13
0.105
0.095
0.095
0.1
0.095
0.08
0.075
0.07
0.06
0.05
0.05
0.045
0.045
0.04
0.05
0.065
0.03
0.035
0.05
0.025
0.035
0.045
0.0
0.015
0.035
0.035
0.0
0.015
0.005
-0.005
-0.015
-0.005
0.0
0.005
0.015
0.03
-0.005
0.005
0.0
0.005
-0.005
-0.015
-0.015
-0.015
0.015
0.005
0.005
-0.03
-0.01
-0.03
-0.02
-0.025
-0.025
-0.015
-0.005
-0.01
-0.01
-0.035
-0.015
-0.02
-0.005
0.0
-0.01
-0.015
-0.005
-0.015
-0.01
-0.025
-0.025
-0.04
-0.025
-0.025
-0.02
-0.015
-0.01
-0.02
-0.02
-0.04
-0.035
-0.06
-0.05
-0.03
-0.03
-0.03
-0.015
-0.015
-0.025
-0.02
-0.02
-0.035
-0.005
0.005
-0.03
-0.025
-0.015
-0.015
-0.025
-0.03
-0.03
-0.04
-0.03
-0.03
-0.02
-0.03
-0.015
-0.06
-0.025
-0.04
-0.05
-0.06
-0.065
-0.06
-0.055
-0.045
-0.03
-0.055
-0.03
-0.03
-0.04
-0.07
-0.05
-0.055
-0.035
-0.03
-0.035
-0.04
-0.03
-0.05
-0.05
-0.075
-0.045
-0.05
-0.035
-0.05
-0.03
-0.05
-0.065
-0.055
-0.045
-0.075
-0.075
-0.055
-0.06
-0.06
-0.03
-0.075
-0.065
-0.07
-0.065
-0.065
-0.065
-0.085
-0.075
-0.055
-0.035
-0.065
-0.07
-0.05
-0.05
-0.055
-0.055
-0.04
-0.065
-0.045
-0.015
-0.035
-0.03
-0.01
-0.04
-0.035
-0.01
-0.005
-0.015
-0.02
-0.025
-0.03
-0.03
-0.05
-0.085
-0.09
-0.1
-0.105
-0.115
-0.085
-0.085
-0.11
-0.105
-0.11
-0.13
-0.08
-0.105
-0.105
-0.115
-0.095
-0.085
-0.08
-0.095
-0.11
-0.105
-0.115
-0.11
-0.095
-0.095
-0.08
-0.09
-0.115
-0.11
-0.145
-0.145
-0.12
-0.135
-0.14
-0.15
-0.14
-0.145
-0.135
-0.1
-0.055
-0.015
0.1
0.225
0.31
0.405
0.495
0.475
0.48
0.43
0.385
0.24
0.07
-0.135
-0.32
-0.41
-0.415
-0.435
-0.41
-0.38
-0.365
-0.37
-0.35
-0.335
-0.335
-0.285
-0.23
-0.215
-0.225
-0.195
-0.175
-0.195
-0.175
-0.155
-0.17
-0.17
-0.135
-0.15
-0.145
-0.15
-0.155
-0.155
-0.14
-0.145
-0.14
-0.13
-0.115
-0.135
-0.14
-0.125
-0.135
-0.145
-0.115
-0.09
-0.125
-0.12
-0.125
-0.115
-0.105
-0.105
-0.1
-0.11
-0.11
-0.11
-0.11
-0.1
-0.08
-0.095
-0.1
-0.105
-0.12
-0.125
-0.115
-0.085
-0.105
-0.085
-0.06
-0.085
-0.09
-0.075
-0.09
-0.085
-0.07
-0.06
-0.045
-0.05
-0.045
-0.03
-0.04
-0.03
-0.015
-0.03
-0.01
-0.01
-0.015
0.015
0.05
0.045
0.04
0.045
0.04
0.045
0.065
0.07
0.075
0.09
0.105
0.1
0.095
0.09
0.09
0.1
0.125
0.13
0.115
0.12
0.115
0.12
0.11
0.11
0.095
0.115
0.13
0.09
0.11
0.125
0.09
0.075
0.08
0.045
0.01
0.03
0.025
-0.01
-0.015
-0.005
-0.005
-0.025
-0.05
-0.045
-0.085
-0.09
-0.085
-0.09
-0.105
-0.09
-0.105
-0.11
-0.12
-0.11
-0.125
-0.13
-0.12
-0.13
-0.125
-0.1
-0.105
-0.135
-0.15
-0.13
-0.135
-0.14
-0.135
-0.17
-0.145
-0.14
-0.125
-0.155
-0.145
-0.165
-0.15
-0.145
-0.145
-0.16
-0.155
-0.12
-0.145
-0.17
-0.16
-0.17
-0.165
-0.17
-0.155
-0.155
-0.155
-0.165
-0.145
-0.14
-0.15
-0.17
-0.17
-0.155
-0.155
-0.165
-0.135
-0.12
-0.155
-0.165
-0.165
-0.15
-0.165
-0.14
-0.16
-0.17
-0.165
-0.125
-0.14
-0.13
-0.155
-0.15
-0.17
-0.165
-0.175
-0.155
-0.155
-0.115
-0.145
-0.15
-0.145
-0.17
-0.17
-0.13
-0.14
-0.15
-0.135
-0.125
-0.13
-0.155
-0.13
-0.135
-0.135
-0.14
-0.15
-0.14
-0.135
-0.125
-0.125
-0.13
-0.14
-0.135
-0.15
-0.13
-0.11
-0.14
-0.145
-0.125
-0.13
-0.135
-0.145
-0.155
-0.145
-0.145
-0.13
-0.13
-0.125
-0.13
-0.145
-0.155
-0.15
-0.155
-0.15
-0.145
-0.145
-0.12
-0.11
-0.125
-0.145
-0.15
-0.145
-0.155
-0.16
-0.125
-0.155
-0.14
-0.125
-0.145
-0.14
-0.135
-0.145
-0.145
-0.14
-0.13
-0.125
-0.145
-0.155
-0.14
-0.145
-0.14
-0.14
-0.145
-0.15
-0.165
-0.185
-0.16
-0.155
-0.14
-0.135
-0.155
-0.135
-0.15
-0.16
-0.135
-0.155
-0.145
-0.125
-0.13
-0.115
-0.135
-0.125
-0.13
-0.145
-0.15
-0.15
-0.155
-0.115
-0.14
-0.14
-0.15
-0.14
-0.13
-0.145
-0.125
-0.125
-0.135
-0.13
-0.14
-0.115
-0.115
-0.115
-0.115
-0.105
-0.09
-0.095
-0.09
-0.085
-0.095
-0.1
-0.115
-0.135
-0.175
-0.16
-0.155
-0.17
-0.135
-0.14
-0.17
-0.175
-0.165
-0.165
-0.19
-0.16
-0.155
-0.185
-0.165
-0.15
-0.18
-0.17
-0.185
-0.17
-0.175
-0.17
-0.175
-0.18
-0.17
-0.17
-0.17
-0.175
-0.18
-0.205
-0.205
-0.155
-0.2
-0.205
-0.21
-0.205
-0.17
-0.14
-0.085
0.01
0.105
0.21
0.325
0.375
0.385
0.38
0.35
0.345
0.265
0.1
-0.14
-0.335
-0.42
-0.45
-0.41
-0.41
-0.435
-0.425
-0.42
-0.41
-0.4
-0.345
-0.36
-0.375
-0.335
-0.28
-0.26
-0.26
-0.23
-0.22
-0.2
-0.2
-0.205
-0.195
-0.185
-0.18
-0.2
-0.19
-0.205
-0.18
-0.18
-0.19
-0.18
-0.175
-0.145
-0.15
-0.17
-0.175
-0.165
-0.195
-0.18
-0.16
-0.16
-0.165
-0.185
-0.135
-0.145
-0.16
-0.15
-0.165
-0.16
-0.16
-0.14
-0.145
-0.135
-0.125
-0.135
-0.13
-0.13
-0.14
-0.135
-0.125
-0.125
-0.135
-0.11
-0.105
-0.12
-0.115
-0.11
-0.095
-0.105
-0.08
-0.085
-0.105
-0.065
-0.055
-0.08
-0.07
-0.065
-0.06
-0.04
-0.045
-0.025
-0.03
-0.01
-0.02
-0.005
0.015
0.025
0.0
0.03
0.065
0.055
0.075
0.07
0.065
0.07
0.08
0.075
0.065
0.07
0.08
0.085
0.08
0.11
0.085
0.07
0.09
0.07
0.065
0.075
0.055
0.05
0.055
0.055
0.05
0.01
-0.01
-0.02
-0.015
-0.03
-0.04
-0.05
-0.065
-0.06
-0.085
-0.075
-0.08
-0.105
-0.105
-0.1
-0.125
-0.135
-0.13
-0.135
-0.12
-0.125
-0.145
-0.15
-0.155
-0.15
-0.15
-0.17
-0.165
-0.15
-0.155
-0.17
-0.17
-0.17
-0.185
-0.17
-0.155
-0.175
-0.18
-0.18
-0.175
-0.185
-0.165
-0.195
-0.215
-0.17
-0.175
-0.2
-0.185
-0.16
-0.18
-0.19
-0.185
-0.18
-0.2
-0.195
-0.18
-0.19
-0.175
-0.15
-0.18
-0.19
-0.185
-0.185
-0.185
-0.175
-0.175
-0.18
-0.17
-0.16
-0.165
-0.185
-0.19
-0.19
-0.2
-0.155
-0.165
-0.16
-0.15
-0.175
-0.175
-0.19
-0.165
-0.165
-0.165
-0.145
-0.165
-0.18
-0.155
-0.15
-0.17
-0.15
-0.155
-0.175
-0.135
-0.155
-0.16
-0.15
-0.13
-0.145
-0.15
-0.17
-0.16
-0.145
-0.165
-0.16
-0.15
-0.15
-0.13
-0.145
-0.165
-0.165
-0.16
-0.18
-0.17
-0.165
-0.165
-0.175
-0.14
-0.155
-0.175
-0.155
-0.15
-0.165
-0.155
-0.15
-0.16
-0.155
-0.145
-0.15
-0.165
-0.17
-0.185
-0.19
-0.165
-0.14
-0.17
-0.14
-0.135
-0.155
-0.16
-0.15
-0.16
-0.175
-0.165
-0.165
-0.165
-0.16
-0.135
-0.175
-0.16
-0.165
-0.16
-0.175
-0.16
-0.14
-0.17
-0.16
-0.145
-0.155
-0.16
-0.17
-0.18
-0.175
-0.165
-0.17
-0.15
-0.15
-0.155
-0.145
-0.165
-0.185
-0.17
-0.175
-0.165
-0.145
-0.16
-0.165
-0.155
-0.175
-0.18
-0.17
-0.16
-0.185
-0.175
-0.17
-0.155
-0.155
-0.125
-0.15
-0.14
-0.145
-0.155
-0.15
-0.16
-0.17
-0.15
-0.155
-0.14
-0.14
-0.135
-0.14
-0.17
-0.145
-0.14
-0.135
-0.145
-0.1
-0.1
-0.125
-0.11
-0.095
-0.115
-0.125
-0.11
-0.125
-0.135
-0.11
-0.115
-0.135
-0.16
-0.16
-0.175
-0.185
-0.175
-0.17
-0.185
-0.175
-0.17
-0.165
-0.185
-0.2
-0.19
-0.175
-0.165
-0.175
-0.16
-0.18
-0.17
-0.18
-0.18
-0.205
-0.21
-0.18
-0.18
-0.19
-0.185
-0.18
-0.19
-0.22
-0.215
-0.2
-0.21
-0.21
-0.2
-0.205
-0.15
-0.125
-0.055
0.04
0.135
0.235
0.315
0.39
0.415
0.39
0.375
0.36
0.25
0.05
-0.145
-0.345
-0.465
-0.49
-0.455
-0.44
-0.44
-0.435
-0.395
-0.395
-0.38
-0.39
-0.365
-0.335
-0.3
-0.285
-0.255
-0.22
-0.2
-0.22
-0.21
-0.21
-0.21
-0.175
-0.2
-0.2
-0.205
-0.16
-0.175
-0.2
-0.195
-0.19
-0.18
-0.17
-0.17
-0.165
-0.165
-0.155
-0.15
-0.155
-0.165
-0.17
-0.175
-0.16
-0.165
-0.17
-0.155
-0.14
-0.155
-0.155
-0.15
-0.145
-0.14
-0.155
-0.14
-0.13
-0.13
-0.115
-0.12
-0.135
-0.125
-0.135
-0.15
-0.135
-0.105
-0.115
-0.115
-0.09
-0.125
-0.12
-0.095
-0.11
-0.09
-0.085
-0.085
-0.075
-0.06
-0.04
-0.05
-0.05
-0.035
-0.025
-0.025
-0.03
-0.005
-0.015
-0.005
0.02
0.01
0.03
0.015
0.005
0.02
0.045
0.055
0.055
0.055
0.085
0.08
0.06
0.075
0.065
0.05
0.09
0.065
0.075
0.095
0.085
0.07
0.06
0.055
0.055
0.065
0.05
0.045
0.03
0.06
0.025
0.005
-0.015
-0.03
-0.03
-0.05
-0.055
-0.055
-0.065
-0.075
-0.045
-0.08
-0.105
-0.09
-0.12
-0.125
-0.12
-0.12
-0.135
-0.13
-0.12
-0.14
-0.15
-0.14
-0.165
-0.16
-0.15
-0.16
-0.16
-0.145
-0.15
-0.17
-0.165
-0.175
-0.165
-0.16
-0.15
-0.175
-0.16
-0.135
-0.14
-0.175
-0.17
-0.165
-0.175
-0.165
-0.15
-0.18
-0.15
-0.145
-0.165
-0.135
-0.155
-0.175
-0.17
-0.17
-0.17
-0.165
-0.15
-0.15
-0.16
-0.16
-0.155
-0.18
-0.165
-0.17
-0.18
-0.175
-0.165
-0.14
-0.17
-0.17
-0.165
-0.17
-0.18
-0.16
-0.155
-0.17
-0.145
-0.13
-0.155
-0.155
-0.16
-0.155
-0.155
-0.15
-0.15
-0.145
-0.145
-0.14
-0.15
-0.15
-0.16
-0.15
-0.17
-0.145
-0.165
-0.155
-0.155
-0.14
-0.14
-0.14
-0.155
-0.18
-0.17
-0.145
-0.14
-0.135
-0.135
-0.125
-0.125
-0.15
-0.15
-0.155
-0.145
-0.15
-0.145
-0.155
-0.135
-0.135
-0.145
-0.145
-0.145
-0.155
-0.175
-0.14
-0.155
-0.17
-0.14
-0.15
-0.16
-0.165
-0.165
-0.155
-0.17
-0.155
-0.145
-0.165
-0.15
-0.135
-0.15
-0.16
-0.145
-0.16
-0.165
-0.14
-0.14
-0.145
-0.13
-0.14
-0.145
-0.16
-0.15
-0.165
-0.17
-0.15
-0.145
-0.165
-0.125
-0.135
-0.145
-0.165
-0.15
-0.16
-0.16
-0.165
-0.175
-0.17
-0.135
-0.15
-0.155
-0.165
-0.17
-0.175
-0.14
-0.15
-0.185
-0.17
-0.14
-0.155
-0.145
-0.175
-0.15
-0.16
-0.155
-0.145
-0.14
-0.165
-0.14
-0.135
-0.125
-0.16
-0.14
-0.185
-0.175
-0.155
-0.165
-0.16
-0.135
-0.155
-0.15
-0.145
-0.165
-0.185
-0.16
-0.16
-0.17
-0.155
-0.145
-0.155
-0.165
-0.165
-0.155
-0.175
-0.16
-0.175
-0.16
-0.155
-0.135
-0.15
-0.165
-0.15
-0.17
-0.16
-0.145
-0.155
-0.17
-0.125
-0.135
-0.16
-0.15
-0.15
-0.14
-0.16
-0.15
-0.145
-0.145
-0.14
-0.145
-0.165
-0.155
-0.13
-0.135
-0.165
-0.155
-0.14
-0.155
-0.14
-0.135
-0.135
-0.13
-0.145
-0.14
-0.15
-0.12
-0.11
-0.095
-0.1
-0.085
-0.105
-0.1
-0.105
-0.09
-0.105
-0.12
-0.115
-0.1
-0.135
-0.135
-0.15
-0.145
-0.145
-0.185
-0.195
-0.145
-0.16
-0.185
-0.165
-0.175
-0.19
-0.185
-0.165
-0.18
-0.19
-0.18
-0.165
-0.175
-0.17
-0.15
-0.165
-0.185
-0.175
-0.185
-0.18
-0.175
-0.175
-0.18
-0.165
-0.18
-0.18
-0.195
-0.2
-0.205
-0.185
-0.145
-0.115
-0.05
0.085
0.185
0.27
0.34
0.42
0.42
0.43
0.405
0.35
0.245
0.09
-0.075
-0.32
-0.44
-0.46
-0.48
-0.425
-0.44
-0.44
-0.405
-0.375
-0.36
-0.365
-0.33
-0.295
-0.265
-0.265
-0.235
-0.22
-0.215
-0.18
-0.17
-0.195
-0.195
-0.2
-0.205
-0.185
-0.18
-0.19
-0.18
-0.165
-0.175
-0.175
-0.17
-0.175
-0.175
-0.175
-0.195
-0.165
-0.15
-0.14
-0.17
-0.165
-0.155
-0.145
-0.16
-0.16
-0.16
-0.145
-0.165
-0.135
-0.14
-0.14
-0.155
-0.14
-0.185
-0.12
-0.13
-0.15
-0.135
-0.135
-0.15
-0.135
-0.15
-0.13
-0.125
-0.135
-0.11
-0.115
-0.115
-0.085
-0.095
-0.105
-0.1
-0.1
-0.11
-0.07
-0.065
-0.08
-0.06
-0.045
-0.055
-0.045
-0.045
-0.035
-0.025
-0.025
-0.015
-0.015
0.0
0.02
0.02
0.025
0.045
0.035
0.025
0.045
0.045
0.03
0.055
0.09
0.065
0.06
0.07
0.055
0.055
0.065
0.095
0.085
0.095
0.07
0.075
0.07
0.07
0.045
0.035
0.05
0.025
0.025
0.025
0.015
-0.015
-0.02
-0.025
-0.035
-0.045
-0.045
-0.075
-0.11
-0.08
-0.075
-0.105
-0.115
-0.105
-0.125
-0.14
-0.125
-0.13
-0.15
-0.135
-0.14
-0.145
-0.155
-0.14
-0.16
-0.15
-0.15
-0.165
-0.16
-0.125
-0.145
-0.155
-0.18
-0.16
-0.18
-0.155
-0.165
-0.16
-0.175
-0.14
-0.17
-0.16
-0.175
-0.17
-0.19
-0.19
-0.17
-0.165
-0.175
-0.165
-0.17
-0.155
-0.185
-0.165
-0.195
-0.19
-0.18
-0.185
-0.175
-0.155
-0.165
-0.17
-0.19
-0.2
-0.18
-0.18
-0.18
-0.185
-0.17
-0.155
-0.175
-0.175
-0.17
-0.165
-0.19
-0.185
-0.17
-0.19
-0.17
-0.155
-0.15
-0.18
-0.175
-0.185
-0.17
-0.185
-0.185
-0.19
-0.155
-0.155
-0.17
-0.17
-0.19
-0.175
-0.19
-0.18
-0.175
-0.175
-0.195
-0.165
-0.165
-0.18
-0.18
-0.165
-0.175
-0.165
-0.16
-0.175
-0.185
-0.13
-0.165
-0.15
-0.145
-0.185
-0.19
-0.17
-0.165
-0.19
-0.17
-0.15
-0.17
-0.165
-0.175
-0.17
-0.195
-0.185
-0.17
-0.185
-0.165
-0.16
-0.17
-0.175
-0.17
-0.19
-0.195
-0.17
-0.175
-0.19
-0.185
-0.145
-0.175
-0.18
-0.185
-0.195
-0.195
-0.18
-0.165
-0.195
-0.185
-0.19
-0.195
-0.185
-0.175
-0.2
-0.185
-0.18
-0.19
-0.19
-0.175
-0.17
-0.18
-0.185
-0.18
-0.205
-0.21
-0.21
-0.19
-0.195
-0.175
-0.2
-0.18
-0.185
-0.18
-0.205
-0.195
-0.18
-0.18
-0.195
-0.16
-0.175
-0.205
-0.185
-0.18
-0.2
-0.195
-0.195
-0.185
-0.18
-0.185
-0.185
-0.18
-0.185
-0.205
-0.21
-0.2
-0.195
-0.185
-0.195
-0.17
-0.17
-0.195
-0.205
-0.2
-0.215
-0.2
-0.18
-0.205
-0.2
-0.195
-0.185
-0.205
-0.19
-0.185
-0.225
-0.215
-0.185
-0.205
-0.18
-0.18
-0.185
-0.19
-0.19
-0.195
-0.225
-0.2
-0.205
-0.195
-0.185
-0.17
-0.195
-0.195
-0.185
-0.195
-0.21
-0.2
-0.2
-0.2
-0.2
-0.18
-0.18
-0.17
-0.175
-0.19
-0.195
-0.19
-0.195
-0.185
-0.16
-0.15
-0.16
-0.155
-0.165
-0.17
-0.19
-0.175
-0.16
-0.16
-0.15
-0.15
-0.155
-0.15
-0.15
-0.165
-0.135
-0.145
-0.145
-0.135
-0.145
-0.11
-0.15
-0.15
-0.135
-0.16
-0.165
-0.175
-0.18
-0.19
-0.195
-0.19
-0.22
-0.225
-0.2
-0.22
-0.22
-0.21
-0.19
-0.23
-0.19
-0.175
-0.21
-0.205
-0.195
-0.19
-0.215
-0.21
-0.205
-0.2
-0.2
-0.19
-0.22
-0.225
-0.215
-0.22
-0.245
-0.235
-0.235
-0.24
-0.2
-0.155
-0.125
-0.02
0.065
0.155
0.255
0.37
0.385
0.38
0.385
0.37
0.26
0.12
-0.035
-0.28
-0.43
-0.44
-0.45
-0.46
-0.46
-0.445
-0.445
-0.44
-0.42
-0.405
-0.38
-0.34
-0.35
-0.325
-0.28
-0.265
-0.25
-0.26
-0.24
-0.25
-0.25
-0.225
-0.225
-0.235
-0.23
-0.2
-0.22
-0.23
-0.205
-0.21
-0.22
-0.19
-0.215
-0.225
-0.18
-0.19
-0.19
-0.205
-0.21
-0.205
-0.215
-0.19
-0.205
-0.205
-0.17
-0.16
-0.19
-0.19
-0.185
-0.21
-0.2
-0.165
-0.17
-0.18
-0.16
-0.17
-0.18
-0.155
-0.175
-0.165
-0.17
-0.155
-0.145
-0.135
-0.13
-0.135
-0.135
-0.145
-0.15
-0.145
-0.13
-0.115
-0.135
-0.125
-0.11
-0.105
-0.095
-0.105
-0.12
-0.075
-0.04
-0.075
-0.075
-0.05
-0.02
-0.02
-0.005
-0.015
-0.015
-0.01
0.015
0.0
0.025
0.04
0.055
0.055
0.035
0.04
0.055
0.05
0.06
0.055
0.065
0.065
0.065
0.055
0.04
0.06
0.055
0.03
0.035
0.045
0.045
0.01
0.02
0.01
-0.005
-0.035
-0.045
-0.055
-0.055
-0.05
-0.095
-0.09
-0.08
-0.09
-0.13
-0.105
-0.115
-0.115
-0.12
-0.135
-0.14
-0.125
-0.155
-0.15
-0.16
-0.15
-0.165
-0.165
-0.16
-0.17
-0.18
-0.16
-0.165
-0.175
-0.175
-0.18
-0.19
-0.215
-0.175
-0.195
-0.21
-0.17
-0.175
-0.185
-0.18
-0.19
-0.2
-0.205
-0.19
-0.175
-0.165
-0.17
-0.17
-0.175
-0.195
-0.195
-0.2
-0.2
-0.195
-0.175
-0.195
-0.175
-0.18
-0.175
-0.185
-0.17
-0.195
-0.185
-0.185
-0.19
-0.195
-0.18
-0.185
-0.18
-0.185
-0.19
-0.225
-0.185
-0.2
-0.175
-0.15
-0.145
-0.15
-0.165
-0.165
-0.16
-0.175
-0.165
-0.155
-0.16
-0.165
-0.135
-0.155
-0.165
-0.17
-0.175
-0.17
-0.17
-0.17
-0.17
-0.17
-0.165
-0.17
-0.16
-0.17
-0.18
-0.18
-0.14
-0.14
-0.15
-0.145
-0.15
-0.145
-0.145
-0.13
-0.15
-0.14
-0.15
-0.16
-0.16
-0.135
-0.14
-0.155
-0.165
-0.16
-0.17
-0.175
-0.18
-0.175
-0.18
-0.18
-0.16
-0.15
-0.195
-0.22
-0.205
-0.195
-0.195
-0.19
-0.215
-0.205
-0.18
-0.205
-0.2
-0.19
-0.195
-0.195
-0.19
-0.185
-0.18
-0.19
-0.2
-0.205
-0.22
-0.19
-0.2
-0.215
-0.22
-0.2
-0.21
-0.21
-0.185
-0.195
-0.195
-0.215
-0.23
-0.23
-0.215
-0.215
-0.21
-0.2
-0.2
-0.23
-0.21
-0.205
-0.23
-0.215
-0.22
-0.215
-0.205
-0.21
-0.195
-0.215
-0.22
-0.205
-0.215
-0.225
-0.22
-0.23
-0.22
-0.205
-0.205
-0.21
-0.225
-0.235
-0.22
-0.23
-0.21
-0.225
-0.22
-0.205
-0.21
-0.215
-0.235
-0.235
-0.22
-0.22
-0.22
-0.22
-0.205
-0.195
-0.21
-0.215
-0.22
-0.215
-0.26
-0.23
-0.2
-0.205
-0.19
-0.19
-0.205
-0.19
-0.195
-0.2
-0.2
-0.175
-0.185
-0.185
-0.22
-0.175
-0.185
-0.205
-0.19
-0.2
-0.185
-0.175
-0.165
-0.185
-0.155
-0.155
-0.165
-0.18
-0.185
-0.185
-0.17
-0.175
-0.16
-0.185
-0.175
-0.165
-0.185
-0.19
-0.205
-0.215
-0.24
-0.23
-0.235
-0.23
-0.22
-0.21
-0.23
-0.235
-0.25
-0.245
-0.26
-0.22
-0.24
-0.25
-0.255
-0.225
-0.235
-0.23
-0.26
-0.245
-0.245
-0.25
-0.255
-0.24
-0.245
-0.255
-0.26
-0.28
-0.265
-0.23
-0.2
-0.13
-0.025
0.065
0.17
0.27
0.325
0.325
0.315
0.31
0.275
0.2
0.035
-0.18
-0.39
-0.46
-0.48
-0.475
-0.47
-0.5
-0.505
-0.465
-0.43
-0.455
-0.42
-0.405
-0.42
-0.4
-0.35
-0.35
-0.32
-0.285
-0.295
-0.29
-0.26
-0.245
-0.25
-0.27
-0.265
-0.27
-0.27
-0.255
-0.255
-0.235
-0.24
-0.22
-0.225
-0.245
-0.23
-0.235
-0.225
-0.21
-0.24
-0.225
-0.205
-0.21
-0.225
-0.21
-0.215
-0.225
-0.23
-0.215
-0.22
-0.22
-0.21
-0.195
-0.22
-0.225
-0.215
-0.2
-0.205
-0.205
-0.22
-0.205
-0.205
-0.175
-0.185
-0.195
-0.18
-0.185
-0.175
-0.18
-0.16
-0.155
-0.155
-0.15
-0.15
-0.15
-0.155
-0.16
-0.14
-0.125
-0.11
-0.125
-0.105
-0.11
-0.095
-0.09
-0.08
-0.085
-0.065
-0.05
-0.06
-0.055
-0.02
-0.02
-0.03
-0.03
-0.035
-0.02
-0.005
0.015
0.015
0.02
0.025
0.02
0.01
0.045
0.015
-0.02
0.03
0.01
0.005
0.02
0.015
0.0
-0.015
0.005
-0.05
-0.04
-0.065
-0.065
-0.08
-0.085
-0.055
-0.095
-0.125
-0.135
-0.135
-0.17
-0.165
-0.17
-0.18
-0.19
-0.18
-0.205
-0.225
-0.205
-0.23
-0.255
-0.235
-0.23
-0.24
-0.225
-0.205
-0.23
-0.23
-0.245
-0.25
-0.265
-0.255
-0.24
-0.225
-0.265
-0.255
-0.255
-0.265
-0.265
-0.265
-0.28
-0.27
-0.265
-0.27
-0.27
-0.265
-0.285
-0.295
-0.305
-0.29
-0.295
-0.29
-0.3
-0.29
-0.265
-0.255
-0.27
-0.3
-0.285
-0.29
-0.295
-0.31
-0.265
-0.27
-0.285
-0.26
-0.275
-0.28
-0.265
-0.29
-0.28
-0.275
-0.275
-0.285
-0.26
-0.27
-0.265
-0.295
-0.27
-0.295
-0.3
-0.29
-0.265
-0.27
-0.26
-0.265
-0.25
-0.255
-0.27
-0.275
-0.28
-0.26
-0.285
-0.26
-0.26
-0.245
-0.26
-0.24
-0.255
-0.275
-0.25
-0.255
-0.255
-0.245
-0.26
-0.235
-0.265
-0.26
-0.25
-0.265
-0.255
-0.25
-0.26
-0.235
-0.23
-0.23
-0.265
-0.245
-0.25
-0.25
-0.24
-0.24
-0.255
-0.245
-0.22
-0.235
-0.24
-0.255
-0.245
-0.28
-0.25
-0.245
-0.25
-0.235
-0.24
-0.265
-0.24
-0.24
-0.235
-0.24
-0.255
-0.25
-0.26
-0.24
-0.23
-0.24
-0.245
-0.24
-0.255
-0.25
-0.245
-0.245
-0.22
-0.235
-0.225
-0.23
-0.235
-0.23
-0.225
-0.255
-0.25
-0.2
-0.24
-0.245
-0.23
-0.24
-0.24
-0.245
-0.245
-0.26
-0.255
-0.23
-0.24
-0.225
-0.23
-0.24
-0.235
-0.255
-0.245
-0.215
-0.225
-0.215
-0.225
-0.225
-0.22
-0.23
-0.235
-0.245
-0.25
-0.25
-0.25
-0.23
-0.255
-0.205
-0.22
-0.225
-0.24
-0.235
-0.235
-0.25
-0.235
-0.225
-0.23
-0.21
-0.215
-0.205
-0.23
-0.225
-0.225
-0.21
-0.22
-0.205
-0.235
-0.205
-0.175
-0.195
-0.19
-0.195
-0.23
-0.23
-0.2
-0.21
-0.225
-0.195
-0.175
-0.19
-0.165
-0.165
-0.18
-0.17
-0.17
-0.165
-0.175
-0.155
-0.165
-0.165
-0.185
-0.18
-0.195
-0.18
-0.185
-0.205
-0.2
-0.195
-0.215
-0.24
-0.23
-0.25
-0.27
-0.245
-0.25
-0.26
-0.24
-0.235
-0.225
-0.23
-0.255
-0.25
-0.24
-0.255
-0.245
-0.225
-0.24
-0.24
-0.24
-0.25
-0.27
-0.245
-0.285
-0.25
-0.25
-0.27
-0.245
-0.24
-0.24
-0.215
-0.165
-0.07
0.01
0.11
0.215
0.295
0.34
0.345
0.33
0.285
0.24
0.115
-0.08
-0.295
-0.46
-0.52
-0.53
-0.515
-0.515
-0.505
-0.5
-0.485
-0.49
-0.465
-0.445
-0.43
-0.38
-0.35
-0.34
-0.335
-0.3
-0.315
-0.305
-0.275
-0.285
-0.295
-0.275
-0.245
-0.265
-0.26
-0.25
-0.26
-0.27
-0.255
-0.255
-0.25
-0.24
-0.245
-0.24
-0.235
-0.235
-0.24
-0.27
-0.255
-0.23
-0.225
-0.235
-0.22
-0.235
-0.235
-0.235
-0.23
-0.235
-0.22
-0.225
-0.23
-0.21
-0.195
-0.22
-0.225
-0.225
-0.225
-0.235
-0.21
-0.21
-0.205
-0.185
-0.175
-0.195
-0.2
-0.2
-0.19
-0.19
-0.175
-0.165
-0.195
-0.17
-0.14
-0.17
-0.165
-0.135
-0.15
-0.14
-0.135
-0.13
-0.115
-0.09
-0.095
-0.085
-0.09
-0.08
-0.08
-0.065
-0.055
-0.065
-0.045
-0.015
-0.02
0.0
-0.025
-0.025
-0.035
-0.025
-0.005
0.01
0.0
0.02
0.005
-0.005
0.0
-0.02
-0.01
-0.015
-0.005
0.005
-0.025
0.0
-0.025
-0.065
-0.055
-0.08
-0.09
-0.1
-0.11
-0.1
-0.12
-0.105
-0.105
-0.14
-0.15
-0.175
-0.19
-0.2
-0.205
-0.215
-0.21
-0.19
-0.215
-0.225
-0.23
-0.23
-0.255
-0.235
-0.25
-0.24
-0.23
-0.235
-0.255
-0.26
-0.255
-0.24
-0.27
-0.26
-0.265
-0.245
-0.255
-0.24
-0.25
-0.23
-0.27
-0.26
-0.285
-0.265
-0.275
-0.285
-0.27
-0.255
-0.265
-0.275
-0.27
-0.28
-0.285
-0.28
-0.28
-0.28
-0.25
-0.25
-0.29
-0.285
-0.27
-0.27
-0.285
-0.265
-0.26
-0.295
-0.26
-0.255
-0.28
-0.275
-0.28
-0.285
-0.28
-0.275
-0.265
-0.285
-0.275
-0.25
-0.25
-0.27
-0.27
-0.26
-0.3
-0.285
-0.27
-0.29
-0.265
-0.26
-0.265
-0.27
-0.26
-0.275
-0.28
-0.265
-0.265
-0.27
-0.25
-0.255
-0.255
-0.29
-0.265
-0.28
-0.295
-0.26
-0.265
-0.25
-0.25
-0.26
-0.285
-0.275
-0.28
-0.285
-0.285
-0.265
-0.275
-0.255
-0.255
-0.255
-0.26
-0.27
-0.285
-0.285
-0.29
-0.295
-0.295
-0.295
-0.275
-0.28
-0.285
-0.285
-0.285
-0.29
-0.28
-0.285
-0.305
-0.305
-0.265
-0.295
-0.305
-0.3
-0.3
-0.33
-0.3
-0.31
-0.305
-0.275
-0.275
-0.29
-0.29
-0.31
-0.295
-0.315
-0.31
-0.31
-0.29
-0.325
-0.3
-0.28
-0.295
-0.315
-0.3
-0.305
-0.305
-0.3
-0.315
-0.305
-0.285
-0.275
-0.295
-0.315
-0.315
-0.33
-0.315
-0.315
-0.305
-0.305
-0.29
-0.295
-0.31
-0.315
-0.325
-0.315
-0.32
-0.305
-0.315
-0.3
-0.28
-0.295
-0.31
-0.315
-0.325
-0.315
-0.315
-0.31
-0.315
-0.315
-0.285
-0.31
-0.31
-0.31
-0.305
-0.33
-0.315
-0.31
-0.31
-0.295
-0.29
-0.31
-0.31
-0.29
-0.31
-0.31
-0.29
-0.285
-0.31
-0.285
-0.265
-0.285
-0.28
-0.285
-0.3
-0.3
-0.32
-0.295
-0.29
-0.275
-0.27
-0.285
-0.3
-0.27
-0.25
-0.27
-0.255
-0.26
-0.285
-0.26
-0.24
-0.255
-0.265
-0.275
-0.275
-0.285
-0.265
-0.305
-0.325
-0.3
-0.305
-0.32
-0.33
-0.33
-0.35
-0.35
-0.35
-0.325
-0.335
-0.32
-0.34
-0.36
-0.335
-0.345
-0.355
-0.34
-0.325
-0.33
-0.34
-0.32
-0.33
-0.355
-0.365
-0.34
-0.35
-0.355
-0.35
-0.35
-0.365
-0.355
-0.29
-0.28
-0.215
-0.11
-0.02
0.075
0.18
0.235
0.235
0.245
0.21
0.155
0.06
-0.12
-0.31
-0.47
-0.595
-0.635
-0.63
-0.59
-0.6
-0.59
-0.575
-0.57
-0.56
-0.54
-0.52
-0.505
-0.465
-0.435
-0.4
-0.4
-0.4
-0.36
-0.38
-0.38
-0.365
-0.375
-0.365
-0.355
-0.365
-0.345
-0.375
-0.345
-0.35
-0.35
-0.34
-0.335
-0.335
-0.335
-0.34
-0.335
-0.34
-0.33
-0.355
-0.315
-0.315
-0.345
-0.335
-0.31
-0.315
-0.33
-0.32
-0.34
-0.355
-0.32
-0.315
-0.335
-0.315
-0.3
-0.31
-0.31
-0.315
-0.325
-0.34
-0.32
-0.295
-0.3
-0.28
-0.275
-0.28
-0.275
-0.26
-0.29
-0.295
-0.275
-0.28
-0.28
-0.265
-0.24
-0.27
-0.25
-0.225
-0.23
-0.21
-0.225
-0.24
-0.245
-0.2
-0.18
-0.155
-0.17
-0.175
-0.18
-0.17
-0.15
-0.14
-0.15
-0.13
-0.12
-0.115
-0.125
-0.11
-0.115
-0.125
-0.095
-0.085
-0.1
-0.1
-0.075
-0.095
-0.095
-0.105
-0.11
-0.11
-0.12
-0.105
-0.135
-0.13
-0.11
-0.13
-0.15
-0.165
-0.185
-0.19
-0.2
-0.23
-0.235
-0.215
-0.22
-0.245
-0.25
-0.26
-0.285
-0.3
-0.3
-0.31
-0.31
-0.305
-0.3
-0.325
-0.325
-0.32
-0.355
-0.355
-0.335
-0.335
-0.34
-0.315
-0.325
-0.335
-0.34
-0.35
-0.375
-0.35
-0.35
-0.365
-0.35
-0.335
-0.355
-0.37
-0.34
-0.34
-0.385
-0.38
-0.38
-0.345
-0.365
-0.34
-0.35
-0.35
-0.355
-0.355
-0.385
-0.36
-0.355
-0.37
-0.34
-0.34
-0.345
-0.37
-0.365
-0.36
-0.36
-0.365
-0.365
-0.355
-0.34
-0.345
-0.345
-0.335
-0.355
-0.375
-0.385
-0.365
-0.35
-0.37
-0.365
-0.36
-0.37
-0.365
-0.34
-0.35
-0.385
-0.37
-0.36
-0.39
-0.36
-0.325
-0.33
-0.345
-0.34
-0.305
-0.36
-0.33
-0.33
-0.35
-0.35
-0.325
-0.365
-0.35
-0.34
-0.36
-0.375
-0.335
-0.35
-0.355
-0.34
-0.33
-0.355
-0.355
-0.35
-0.355
-0.37
-0.35
-0.355
-0.37
-0.37
-0.34
-0.345
-0.35
-0.34
-0.37
-0.37
-0.35
-0.345
-0.355
-0.355
-0.355
-0.34
-0.34
-0.34
-0.345
-0.335
-0.35
-0.36
-0.335
-0.325
-0.32
-0.33
-0.34
-0.325
-0.365
-0.355
-0.355
-0.365
-0.335
-0.33
-0.34
-0.355
-0.345
-0.335
-0.355
-0.375
-0.345
-0.34
-0.35
-0.335
-0.33
-0.36
-0.35
-0.335
-0.35
-0.355
-0.335
-0.335
-0.345
-0.32
-0.32
-0.355
-0.355
-0.345
-0.36
-0.365
-0.335
-0.36
-0.355
-0.325
-0.325
-0.345
-0.355
-0.36
-0.355
-0.365
-0.33
-0.35
-0.34
-0.33
-0.325
-0.355
-0.355
-0.355
-0.36
-0.35
-0.34
-0.35
-0.35
-0.335
-0.325
-0.325
-0.33
-0.31
-0.33
-0.325
-0.315
-0.33
-0.315
-0.315
-0.315
-0.3
-0.32
-0.3
-0.33
-0.32
-0.3
-0.325
-0.325
-0.3
-0.305
-0.315
-0.295
-0.29
-0.31
-0.295
-0.285
-0.3
-0.28
-0.27
-0.285
-0.28
-0.285
-0.28
-0.32
-0.28
-0.275
-0.29
-0.295
-0.305
-0.31
-0.31
-0.35
-0.345
-0.37
-0.355
-0.34
-0.355
-0.36
-0.33
-0.34
-0.355
-0.37
-0.36
-0.38
-0.355
-0.35
-0.34
-0.34
-0.335
-0.35
-0.345
-0.365
-0.395
-0.39
-0.36
-0.37
-0.365
-0.375
-0.355
-0.365
-0.34
-0.3
-0.255
-0.155
-0.05
0.05
0.145
0.23
0.255
0.235
0.23
0.18
0.075
-0.105
-0.265
-0.49
-0.59
-0.64
-0.64
-0.63
-0.62
-0.62
-0.605
-0.605
-0.585
-0.575
-0.57
-0.475
-0.445
-0.455
-0.43
-0.385
-0.395
-0.385
-0.37
-0.4
-0.36
-0.365
-0.35
-0.365
-0.37
-0.355
-0.375
-0.365
-0.34
-0.345
-0.355
-0.345
-0.34
-0.34
-0.34
-0.335
-0.375
-0.345
-0.34
-0.345
-0.34
-0.32
-0.345
-0.325
-0.345
-0.315
-0.335
-0.355
-0.335
-0.345
-0.335
-0.31
-0.31
-0.31
-0.31
-0.33
-0.315
-0.305
-0.3
-0.295
-0.305
-0.29
-0.275
-0.285
-0.285
-0.295
-0.29
-0.285
-0.285
-0.28
-0.255
-0.255
-0.25
-0.26
-0.265
-0.225
-0.23
-0.235
-0.23
-0.225
-0.22
-0.205
-0.185
-0.18
-0.195
-0.185
-0.185
-0.16
-0.16
-0.13
-0.12
-0.11
-0.125
-0.11
-0.08
-0.085
-0.105
-0.07
-0.07
-0.09
-0.075
-0.065
-0.075
-0.085
-0.085
-0.03
-0.075
-0.085
-0.09
-0.08
-0.075
-0.075
-0.095
-0.115
-0.12
-0.135
-0.165
-0.17
-0.185
-0.18
-0.18
-0.2
-0.215
-0.22
-0.225
-0.23
-0.26
-0.26
-0.275
-0.27
-0.27
-0.265
-0.29
-0.27
-0.275
-0.305
-0.295
-0.29
-0.305
-0.31
-0.29
-0.28
-0.285
-0.315
-0.325
-0.31
-0.315
-0.33
-0.34
-0.325
-0.3
-0.27
-0.315
-0.315
-0.32
-0.335
-0.335
-0.315
-0.325
-0.345
-0.31
-0.315
-0.325
-0.32
-0.335
-0.36
-0.345
-0.33
-0.315
-0.335
-0.32
-0.31
-0.32
-0.32
-0.335
-0.32
-0.33
-0.32
-0.325
-0.315
-0.295
-0.305
-0.325
-0.325
-0.325
-0.36
-0.34
-0.285
-0.32
-0.315
-0.29
-0.305
-0.32
-0.31
-0.325
-0.325
-0.335
-0.305
-0.31
-0.295
-0.305
-0.295
-0.31
-0.325
-0.29
-0.305
-0.29
-0.3
-0.32
-0.31
-0.28
-0.3
-0.31
-0.31
-0.305
-0.33
-0.31
-0.32
-0.315
-0.3
-0.29
-0.305
-0.31
-0.315
-0.32
-0.325
-0.31
-0.305
-0.31
-0.315
-0.285
-0.28
-0.295
-0.28
-0.29
-0.315
-0.31
-0.295
-0.3
-0.3
-0.275
-0.295
-0.3
-0.29
-0.3
-0.315
-0.31
-0.29
-0.315
-0.295
-0.285
-0.275
-0.28
-0.29
-0.32
-0.32
-0.3
-0.305
-0.295
-0.285
-0.29
-0.295
-0.31
-0.295
-0.305
-0.325
-0.295
-0.295
-0.3
-0.28
-0.26
-0.29
-0.29
-0.28
-0.275
-0.275
-0.305
-0.305
-0.28
-0.295
-0.285
-0.275
-0.275
-0.29
-0.3
-0.305
-0.285
-0.3
-0.3
-0.295
-0.27
-0.285
-0.29
-0.3
-0.3
-0.31
-0.305
-0.29
-0.28
-0.285
-0.275
-0.265
-0.29
-0.275
-0.275
-0.265
-0.28
-0.28
-0.305
-0.26
-0.25
-0.265
-0.255
-0.275
-0.26
-0.245
-0.24
-0.25
-0.28
-0.25
-0.245
-0.245
-0.26
-0.25
-0.255
-0.235
-0.25
-0.225
-0.215
-0.2
-0.205
-0.23
-0.22
-0.23
-0.245
-0.235
-0.235
-0.25
-0.24
-0.22
-0.21
-0.255
-0.29
-0.285
-0.295
-0.295
-0.29
-0.305
-0.305
-0.285
-0.275
-0.295
-0.305
-0.295
-0.285
-0.3
-0.28
-0.3
-0.295
-0.27
-0.285
-0.295
-0.3
-0.285
-0.325
-0.31
-0.305
-0.305
-0.305
-0.31
-0.31
-0.32
-0.325
-0.3
-0.285
-0.245
-0.17
-0.075
0.035
0.145
0.225
0.27
0.285
0.27
0.24
0.22
0.115
-0.065
-0.245
-0.445
-0.575
-0.55
-0.58
-0.555
-0.58
-0.565
-0.53
-0.515
-0.5
-0.485
-0.475
-0.42
-0.415
-0.375
-0.385
-0.355
-0.325
-0.32
-0.305
-0.295
-0.305
-0.3
-0.325
-0.32
-0.315
-0.3
-0.295
-0.29
-0.28
-0.275
-0.295
-0.27
-0.285
-0.275
-0.3
-0.28
-0.275
-0.28
-0.265
-0.26
-0.27
-0.275
-0.275
-0.275
-0.285
-0.27
-0.245
-0.265
-0.26
-0.245
-0.27
-0.265
-0.24
-0.265
-0.27
-0.255
-0.26
-0.245
-0.23
-0.23
-0.21
-0.225
-0.23
-0.25
-0.23
-0.225
-0.215
-0.21
-0.195
-0.19
-0.19
-0.185
-0.16
-0.18
-0.185
-0.175
-0.16
-0.15
-0.145
-0.13
-0.155
-0.125
-0.135
-0.135
-0.125
-0.11
-0.085
-0.09
-0.075
-0.045
-0.07
-0.065
-0.045
-0.04
-0.04
-0.025
-0.05
-0.015
0.005
0.015
0.0
-0.005
0.0
-0.015
-0.005
-0.005
-0.015
-0.015
0.0
-0.005
-0.03
-0.03
-0.03
-0.065
-0.095
-0.08
-0.095
-0.1
-0.08
-0.105
-0.14
-0.15
-0.165
-0.175
-0.15
-0.175
-0.19
-0.2
-0.18
-0.185
-0.21
-0.22
-0.235
-0.245
-0.23
-0.225
-0.245
-0.245
