# TIPE ECG 2021 - ECG-ID Database v1.0.0 par Physionet
# [N° de la personne, N° de l'enregistrement, Période d'échantillonnage, Prénom, Age, Sexe, Date de l'enregistrement]
[3, 1, 0.002, "Camille", 23, "F", "15.03.2005"]
0.335
0.125
-0.055
0.06
0.135
0.355
0.535
0.595
0.59
0.56
0.35
0.19
0.04
0.005
0.085
0.29
0.51
0.62
0.65
0.6
0.34
0.145
0.06
0.065
0.1
0.32
0.55
0.68
0.6
0.55
0.255
0.035
-0.005
0.06
0.145
0.365
0.535
0.595
0.59
0.52
0.295
0.07
-0.01
0.005
0.11
0.34
0.525
0.585
0.55
0.465
0.26
0.08
0.03
0.05
0.115
0.335
0.515
0.615
0.61
0.5
0.215
0.055
0.055
0.135
0.175
0.39
0.575
0.585
0.595
0.505
0.245
0.11
0.04
0.115
0.245
0.495
0.625
0.635
0.585
0.51
0.29
0.105
0.085
0.125
0.285
0.475
0.61
0.605
0.57
0.45
0.235
0.07
0.03
0.055
0.195
0.455
0.545
0.545
0.505
0.355
0.155
0.025
-0.005
0.055
0.25
0.41
0.565
0.585
0.55
0.41
0.155
0.065
-0.005
0.055
0.2
0.4
0.545
0.545
0.555
0.445
0.18
0.025
-0.02
0.04
0.24
0.495
0.63
0.59
0.55
0.4
0.145
-0.015
-0.045
0.01
0.195
0.46
0.56
0.575
0.465
0.31
0.1
-0.005
0.035
0.145
0.45
0.75
0.985
1.07
1.135
1.04
0.945
0.935
0.935
1.03
1.34
1.455
1.26
0.94
0.745
0.44
0.19
0.09
0.09
0.11
0.28
0.5
0.64
0.605
0.565
0.325
0.12
0.06
0.085
0.15
0.315
0.545
0.625
0.565
0.53
0.285
0.095
0.015
0.105
0.145
0.345
0.6
0.63
0.565
0.505
0.305
0.1
0.05
0.095
0.175
0.355
0.525
0.615
0.54
0.48
0.28
0.095
0.055
0.095
0.14
0.37
0.495
0.525
0.47
0.385
0.285
0.11
0.06
0.195
0.255
0.445
0.575
0.605
0.535
0.46
0.24
0.095
0.095
0.125
0.235
0.455
0.59
0.635
0.55
0.485
0.275
0.14
0.105
0.15
0.225
0.44
0.59
0.655
0.585
0.495
0.29
0.14
0.13
0.195
0.25
0.48
0.635
0.6
0.51
0.435
0.24
0.155
0.21
0.245
0.385
0.565
0.72
0.69
0.635
0.49
0.3
0.185
0.24
0.28
0.45
0.595
0.735
0.745
0.73
0.565
0.375
0.255
0.255
0.3
0.515
0.7
0.8
0.78
0.71
0.59
0.385
0.27
0.315
0.305
0.48
0.68
0.84
0.825
0.81
0.6
0.445
0.32
0.31
0.325
0.49
0.7
0.735
0.79
0.72
0.55
0.34
0.25
0.265
0.285
0.435
0.645
0.695
0.655
0.605
0.35
0.195
0.125
0.13
0.165
0.355
0.47
0.57
0.6
0.51
0.25
0.105
0.05
0.085
0.105
0.37
0.545
0.61
0.495
0.465
0.255
0.055
0.015
0.02
0.14
0.355
0.495
0.53
0.545
0.52
0.27
0.105
0.055
0.1
0.115
0.34
0.53
0.61
0.525
0.48
0.24
0.095
0.055
0.08
0.18
0.375
0.495
0.545
0.49
0.465
0.255
0.115
0.06
0.185
0.28
0.395
0.545
0.535
0.525
0.45
0.2
0.01
0.0
0.11
0.215
0.41
0.58
0.585
0.52
0.41
0.185
0.055
0.01
0.07
0.26
0.445
0.565
0.56
0.56
0.43
0.225
0.075
0.035
0.1
0.23
0.465
0.54
0.565
0.525
0.44
0.21
0.01
-0.02
0.08
0.265
0.445
0.585
0.59
0.545
0.405
0.185
0.06
0.045
0.04
0.2
0.46
0.59
0.585
0.53
0.385
0.2
0.0
0.045
0.085
0.23
0.495
0.575
0.565
0.51
0.33
0.135
0.015
0.06
0.105
0.27
0.475
0.565
0.59
0.525
0.36
0.17
0.09
0.07
0.11
0.265
0.455
0.59
0.55
0.52
0.285
0.07
0.02
0.035
0.095
0.31
0.545
0.605
0.58
0.5
0.31
0.12
0.015
0.005
0.105
0.32
0.51
0.595
0.535
0.465
0.29
0.08
0.015
0.03
0.11
0.33
0.52
0.595
0.61
0.565
0.3
0.13
0.05
0.095
0.165
0.345
0.555
0.635
0.6
0.585
0.34
0.155
0.11
0.12
0.195
0.405
0.605
0.64
0.61
0.585
0.27
0.06
-0.005
0.085
0.22
0.45
0.58
0.595
0.56
0.48
0.225
0.045
-0.005
0.04
0.155
0.43
0.59
0.625
0.51
0.41
0.17
0.035
0.045
0.095
0.22
0.415
0.565
0.58
0.54
0.465
0.22
0.035
-0.005
0.07
0.18
0.405
0.55
0.56
0.525
0.435
0.205
0.05
0.015
0.085
0.175
0.405
0.6
0.605
0.545
0.42
0.16
0.005
-0.025
0.025
0.14
0.345
0.545
0.605
0.59
0.545
0.455
0.415
0.57
0.74
1.025
1.315
1.475
1.51
1.52
1.415
1.15
0.775
0.41
0.32
0.43
0.595
0.62
0.595
0.565
0.34
0.22
0.12
0.1
0.16
0.325
0.53
0.62
0.605
0.555
0.395
0.165
0.045
0.055
0.105
0.28
0.495
0.65
0.61
0.56
0.325
0.135
0.05
0.05
0.115
0.315
0.485
0.62
0.585
0.53
0.31
0.13
0.03
0.06
0.105
0.315
0.545
0.61
0.61
0.505
0.33
0.12
0.06
0.065
0.115
0.405
0.59
0.6
0.54
0.59
0.36
0.13
0.095
0.08
0.135
0.36
0.555
0.635
0.62
0.575
0.335
0.165
0.075
0.155
0.2
0.405
0.575
0.625
0.59
0.535
0.315
0.15
0.105
0.155
0.27
0.49
0.6
0.68
0.645
0.55
0.285
0.12
0.135
0.205
0.255
0.47
0.615
0.67
0.66
0.51
0.355
0.235
0.23
0.275
0.335
0.55
0.63
0.68
0.68
0.645
0.435
0.275
0.26
0.275
0.425
0.65
0.765
0.775
0.73
0.635
0.425
0.28
0.255
0.28
0.465
0.665
0.83
0.86
0.815
0.655
0.44
0.34
0.31
0.32
0.51
0.725
0.875
0.885
0.81
0.65
0.39
0.255
0.285
0.315
0.415
0.6
0.76
0.75
0.71
0.52
0.29
0.19
0.17
0.16
0.325
0.55
0.69
0.71
0.635
0.39
0.155
0.115
0.085
0.11
0.31
0.52
0.635
0.64
0.555
0.37
0.145
0.02
0.07
0.125
0.31
0.51
0.61
0.58
0.56
0.33
0.155
0.035
0.07
0.115
0.31
0.51
0.645
0.595
0.55
0.365
0.145
0.065
0.065
0.09
0.325
0.545
0.625
0.56
0.605
0.34
0.1
-0.025
0.06
0.145
0.385
0.565
0.65
0.6
0.535
0.32
0.15
0.075
0.09
0.145
0.37
0.52
0.625
0.585
0.52
0.335
0.125
0.09
0.125
0.19
0.34
0.54
0.65
0.61
0.445
0.33
0.13
0.075
0.075
0.165
0.36
0.535
0.625
0.6
0.51
0.3
0.115
-0.005
0.09
0.22
0.45
0.51
0.575
0.57
0.48
0.255
0.105
0.08
0.115
0.18
0.42
0.54
0.57
0.52
0.43
0.245
0.095
0.055
0.11
0.22
0.45
0.565
0.55
0.475
0.43
0.245
0.08
0.06
0.15
0.245
0.445
0.555
0.54
0.545
0.41
0.175
0.015
0.03
0.08
0.235
0.375
0.505
0.55
0.53
0.375
0.2
0.035
0.105
0.105
0.255
0.435
0.58
0.545
0.475
0.355
0.17
0.02
0.01
0.08
0.27
0.445
0.575
0.57
0.545
0.36
0.16
0.06
0.06
0.12
0.29
0.505
0.545
0.5
0.475
0.325
0.11
-0.025
0.015
0.11
0.32
0.44
0.585
0.54
0.545
0.365
0.15
0.07
0.09
0.155
0.315
0.51
0.64
0.64
0.585
0.37
0.145
0.09
0.12
0.175
0.32
0.535
0.61
0.605
0.515
0.305
0.13
0.07
0.1
0.135
0.33
0.47
0.535
0.485
0.46
0.25
0.065
0.0
0.055
0.12
0.295
0.46
0.545
0.5
0.435
0.235
0.055
-0.03
0.005
0.09
0.295
0.455
0.51
0.465
0.375
0.165
0.035
-0.02
0.045
0.14
0.315
0.49
0.54
0.465
0.37
0.21
0.055
-0.02
0.0
0.105
0.28
0.435
0.475
0.39
0.315
0.085
-0.1
-0.085
-0.01
0.15
0.435
0.69
0.83
0.895
0.94
0.91
0.85
0.865
0.925
1.065
1.31
1.465
1.42
1.035
0.63
0.325
0.085
0.05
0.12
0.165
0.35
0.495
0.475
0.475
0.355
0.165
0.005
-0.04
0.01
0.135
0.31
0.515
0.465
0.475
0.29
0.11
-0.055
-0.045
-0.045
0.095
0.325
0.475
0.465
0.44
0.3
0.085
-0.06
-0.09
-0.03
0.13
0.275
0.465
0.47
0.395
0.225
0.055
-0.055
-0.03
0.03
0.155
0.385
0.455
0.435
0.38
0.215
0.03
-0.07
-0.075
-0.035
0.155
0.335
0.45
0.475
0.42
0.235
0.03
-0.075
-0.04
0.045
0.21
0.355
0.435
0.41
0.365
0.16
-0.01
-0.07
-0.065
-0.05
0.17
0.395
0.47
0.405
0.46
0.245
-0.01
-0.035
0.01
0.03
0.24
0.4
0.49
0.44
0.405
0.16
-0.05
-0.035
-0.04
0.015
0.275
0.45
0.515
0.48
0.41
0.235
0.05
-0.02
0.04
0.09
0.35
0.505
0.56
0.545
0.425
0.275
0.005
-0.02
-0.025
0.1
0.33
0.52
0.62
0.58
0.52
0.285
0.12
0.08
0.135
0.235
0.365
0.58
0.58
0.465
0.46
0.305
0.05
0.045
0.15
0.235
0.405
0.545
0.565
0.51
0.435
0.165
-0.01
-0.01
0.005
0.11
0.285
0.4
0.385
0.335
0.295
0.05
-0.11
-0.14
-0.085
0.015
0.19
0.35
0.34
0.31
0.17
-0.055
-0.195
-0.24
-0.195
-0.04
0.175
0.3
0.31
0.275
0.11
-0.08
-0.22
-0.295
-0.21
-0.05
0.16
0.285
0.285
0.215
0.13
-0.09
-0.215
-0.225
-0.185
-0.01
0.17
0.275
0.245
0.19
0.06
-0.17
-0.21
-0.165
-0.19
-0.045
0.145
0.225
0.245
0.25
0.06
-0.175
-0.31
-0.265
-0.225
-0.005
0.165
0.24
0.22
0.195
0.005
-0.165
-0.315
-0.25
-0.21
-0.025
0.15
0.295
0.26
0.24
0.005
-0.195
-0.28
-0.255
-0.2
-0.02
0.095
0.25
0.235
0.13
-0.1
-0.24
-0.28
-0.28
-0.24
0.01
0.175
0.205
0.16
0.16
-0.035
-0.21
-0.31
-0.315
-0.265
-0.035
0.115
0.185
0.155
0.145
-0.07
-0.235
-0.325
-0.335
-0.27
-0.03
0.115
0.19
0.16
0.1
-0.085
-0.245
-0.365
-0.355
-0.245
-0.02
0.155
0.185
0.175
0.07
-0.18
-0.355
-0.405
-0.37
-0.245
-0.035
0.17
0.14
0.135
0.03
-0.2
-0.39
-0.355
-0.3
-0.215
-0.045
0.105
0.205
0.145
0.015
-0.165
-0.38
-0.365
-0.375
-0.225
0.025
0.13
0.165
0.12
0.045
-0.165
-0.34
-0.38
-0.375
-0.245
-0.02
0.14
0.16
0.135
-0.005
-0.245
-0.395
-0.405
-0.34
-0.24
-0.04
0.125
0.115
0.07
-0.02
-0.255
-0.36
-0.39
-0.305
-0.15
0.06
0.18
0.195
0.13
-0.015
-0.24
-0.37
-0.335
-0.26
-0.13
0.095
0.21
0.215
0.135
0.01
-0.215
-0.29
-0.295
-0.275
-0.1
0.1
0.22
0.19
0.14
-0.025
-0.245
-0.375
-0.35
-0.315
-0.12
0.075
0.2
0.18
0.11
-0.08
-0.29
-0.4
-0.38
-0.275
-0.1
0.075
0.14
0.135
0.09
-0.095
-0.295
-0.43
-0.37
-0.335
-0.115
0.08
0.18
0.18
0.065
-0.105
-0.315
-0.435
-0.44
-0.37
-0.145
0.14
0.22
0.175
0.14
-0.09
-0.31
-0.385
-0.39
-0.295
-0.075
0.08
0.155
0.085
0.02
-0.285
-0.38
-0.415
-0.365
-0.225
0.135
0.45
0.665
0.785
0.795
0.755
0.64
0.56
0.65
0.735
0.965
1.115
0.815
0.49
0.34
0.02
-0.22
-0.295
-0.29
-0.215
0.0
0.175
0.25
0.13
0.075
-0.14
-0.29
-0.35
-0.32
-0.205
0.015
0.205
0.205
0.14
0.04
-0.2
-0.335
-0.375
-0.31
-0.195
0.005
0.205
0.205
0.14
0.015
-0.195
-0.315
-0.36
-0.325
-0.18
0.01
0.12
0.16
0.135
-0.01
-0.23
-0.35
-0.33
-0.315
-0.205
0.025
0.195
0.225
0.155
0.015
-0.205
-0.35
-0.36
-0.305
-0.14
0.0
0.14
0.17
0.14
-0.015
-0.2
-0.315
-0.285
-0.285
-0.135
0.09
0.18
0.205
0.205
-0.01
-0.195
-0.3
-0.25
-0.21
-0.06
0.14
0.225
0.17
0.14
-0.025
-0.21
-0.26
-0.28
-0.21
-0.06
0.11
0.255
0.255
0.225
0.005
-0.17
-0.26
-0.265
-0.2
0.0
0.195
0.295
0.25
0.195
0.06
-0.16
-0.18
-0.155
-0.115
0.095
0.345
0.36
0.36
0.305
0.125
-0.115
-0.155
-0.13
-0.065
0.165
0.36
0.46
0.39
0.345
0.115
-0.035
-0.1
-0.075
-0.035
0.215
0.385
0.465
0.43
0.385
0.165
-0.01
-0.09
-0.05
-0.005
0.195
0.395
0.385
0.32
0.27
0.075
-0.09
-0.215
-0.145
-0.1
0.07
0.25
0.3
0.27
0.28
0.05
-0.22
-0.225
-0.27
-0.17
0.04
0.23
0.235
0.185
0.095
-0.125
-0.33
-0.325
-0.24
-0.15
0.08
0.18
0.16
0.145
0.09
-0.1
-0.245
-0.275
-0.255
-0.13
0.05
0.19
0.2
0.15
0.095
-0.14
-0.275
-0.315
-0.24
-0.11
0.1
0.265
0.275
0.19
0.09
-0.155
-0.26
-0.25
-0.155
-0.045
0.055
0.2
0.245
0.17
0.08
-0.105
-0.265
-0.235
-0.19
-0.065
0.165
0.28
0.245
0.2
0.03
-0.14
-0.22
-0.22
-0.17
-0.07
0.165
0.245
0.26
0.2
0.055
-0.135
-0.23
-0.215
-0.135
0.05
0.15
0.26
0.265
0.23
0.09
-0.135
-0.245
-0.25
-0.24
-0.05
0.23
0.3
0.315
0.285
0.055
-0.125
-0.195
-0.21
-0.155
0.04
0.185
0.305
0.265
0.195
0.03
-0.14
-0.215
-0.22
-0.16
0.035
0.195
0.305
0.295
0.25
0.025
-0.16
-0.175
-0.165
-0.095
0.03
0.21
0.245
0.2
0.235
0.05
-0.11
-0.2
-0.195
-0.15
0.045
0.25
0.33
0.285
0.22
0.035
-0.165
-0.215
-0.185
-0.165
0.035
0.26
0.31
0.255
0.2
-0.02
-0.195
-0.2
-0.15
-0.135
0.11
0.225
0.28
0.265
0.165
-0.035
-0.195
-0.23
-0.24
-0.08
0.105
0.28
0.28
0.21
0.19
-0.06
-0.255
-0.26
-0.15
-0.11
0.105
0.315
0.33
0.23
0.15
-0.07
-0.225
-0.27
-0.19
-0.08
0.12
0.295
0.25
0.23
0.135
-0.07
-0.23
-0.195
-0.15
-0.055
0.12
0.295
0.3
0.235
0.06
-0.035
-0.14
-0.19
-0.15
0.0
0.22
0.355
0.37
0.25
0.125
-0.085
-0.22
-0.17
-0.1
0.005
0.195
0.31
0.315
0.31
0.19
-0.005
-0.145
-0.225
-0.145
0.025
0.23
0.335
0.275
0.2
0.065
-0.085
-0.235
-0.225
-0.2
-0.045
0.17
0.305
0.31
0.26
0.065
-0.135
-0.245
-0.225
-0.2
-0.02
0.18
0.27
0.255
0.23
0.065
-0.125
-0.23
-0.195
-0.155
-0.005
0.215
0.25
0.26
0.21
-0.025
-0.215
-0.25
-0.185
-0.105
0.07
0.185
0.24
0.22
0.2
-0.04
-0.255
-0.35
-0.32
-0.27
-0.025
0.28
0.47
0.49
0.555
0.54
0.53
0.6
0.725
0.81
1.035
1.2
1.3
1.325
1.215
0.64
0.195
-0.01
-0.045
-0.03
0.145
0.31
0.355
0.32
0.23
0.005
-0.135
-0.185
-0.135
-0.08
0.1
0.265
0.27
0.26
0.185
-0.04
-0.17
-0.2
-0.15
-0.06
0.135
0.26
0.33
0.275
0.21
0.035
-0.14
-0.235
-0.18
-0.08
0.105
0.275
0.32
0.245
0.185
-0.06
-0.235
-0.175
-0.155
-0.085
0.12
0.29
0.33
0.275
0.17
-0.04
-0.21
-0.265
-0.185
-0.005
0.205
0.345
0.315
0.24
0.08
-0.14
-0.225
-0.175
-0.065
0.04
0.16
0.32
0.325
0.24
0.13
-0.01
-0.135
-0.155
-0.13
-0.02
0.195
0.31
0.365
0.31
0.14
-0.035
-0.185
-0.145
-0.1
0.025
0.21
0.305
0.36
0.355
0.185
-0.02
-0.145
-0.095
-0.02
0.115
0.28
0.385
0.395
0.325
0.185
-0.02
-0.115
-0.08
-0.01
0.17
0.35
0.435
0.39
0.41
0.26
0.04
-0.03
-0.005
0.02
0.21
0.405
0.51
0.485
0.44
0.33
0.115
0.055
0.085
0.13
0.335
0.49
0.57
0.535
0.49
0.285
0.07
0.035
0.065
0.095
0.35
0.475
0.56
0.495
0.48
0.275
0.055
0.005
0.015
0.055
0.285
0.405
0.455
0.4
0.35
0.085
-0.085
-0.16
-0.12
-0.06
0.155
0.335
0.33
0.28
0.245
0.015
-0.125
-0.23
-0.18
-0.145
0.115
0.295
0.335
0.32
0.225
0.025
-0.15
-0.225
-0.145
-0.085
0.115
0.295
0.295
0.23
0.15
-0.09
-0.245
-0.215
-0.14
-0.045
0.155
0.275
0.32
0.275
0.155
-0.06
-0.21
-0.245
-0.18
-0.07
0.13
0.275
0.325
0.25
0.135
-0.065
-0.205
-0.245
-0.19
-0.115
0.125
0.335
0.325
0.28
0.135
-0.08
-0.215
-0.27
-0.175
-0.06
0.15
0.26
0.31
0.265
0.095
-0.12
-0.255
-0.235
-0.17
-0.04
0.21
0.345
0.34
0.275
0.11
-0.08
-0.18
-0.25
-0.2
-0.015
0.185
0.3
0.305
0.265
0.14
-0.085
-0.255
-0.22
-0.2
-0.015
0.19
0.315
0.315
0.265
0.075
-0.155
-0.25
-0.225
-0.195
-0.01
0.2
0.275
0.26
0.28
0.085
-0.125
-0.23
-0.195
-0.17
0.015
0.22
0.315
0.315
0.27
0.075
-0.14
-0.19
-0.205
-0.19
0.0
0.23
0.32
0.33
0.305
0.07
-0.165
-0.235
-0.23
-0.145
0.035
0.295
0.405
0.32
0.285
0.085
-0.15
-0.235
-0.21
-0.165
0.1
0.29
0.335
0.29
0.28
0.04
-0.2
-0.225
-0.23
-0.16
0.04
0.295
0.415
0.335
0.235
0.035
-0.185
-0.235
-0.17
-0.065
0.16
0.3
0.32
0.29
0.215
0.01
-0.15
-0.155
-0.165
-0.06
0.12
0.345
0.37
0.29
0.205
0.01
-0.15
-0.2
-0.15
-0.02
0.185
0.325
0.435
0.4
0.285
0.015
-0.11
-0.175
-0.115
0.025
0.24
0.395
0.405
0.36
0.27
0.075
-0.115
-0.17
-0.145
-0.01
0.205
0.35
0.395
0.395
0.205
-0.025
-0.175
-0.255
-0.15
0.005
0.18
0.33
0.35
0.285
0.11
-0.125
-0.265
-0.28
-0.14
0.025
0.22
0.35
0.32
0.31
0.19
-0.035
-0.215
-0.185
-0.155
-0.01
0.21
0.33
0.32
0.3
0.12
-0.1
-0.195
-0.215
-0.14
0.02
0.19
0.29
0.37
0.275
0.115
-0.14
-0.28
-0.265
-0.26
-0.065
0.15
0.27
0.325
0.45
0.335
0.255
0.335
0.485
0.655
0.97
1.24
1.395
1.43
1.38
1.22
0.865
0.43
0.155
0.03
0.235
0.385
0.455
0.405
0.33
0.135
-0.105
-0.23
-0.185
-0.105
0.11
0.275
0.38
0.36
0.295
0.08
-0.115
-0.22
-0.17
-0.145
0.035
0.23
0.355
0.36
0.325
0.04
-0.15
-0.22
-0.185
-0.11
0.095
0.34
0.365
0.31
0.265
0.06
-0.11
-0.2
-0.155
-0.07
0.15
0.355
0.375
0.335
0.26
0.065
-0.13
-0.185
-0.175
-0.11
0.095
0.27
0.395
0.355
0.275
0.075
-0.125
-0.13
-0.085
-0.04
0.195
0.365
0.405
0.31
0.245
0.025
-0.125
-0.17
-0.11
-0.01
0.21
0.375
0.395
0.355
0.27
0.07
-0.085
-0.17
-0.11
0.015
0.24
0.445
0.42
0.395
0.23
0.02
-0.085
-0.085
-0.035
0.12
0.32
0.435
0.43
0.41
0.3
0.09
-0.045
-0.02
0.035
0.155
0.345
0.5
0.53
0.545
0.37
0.18
0.035
0.01
0.04
0.27
0.5
0.615
0.59
0.58
0.39
0.205
0.11
0.095
0.12
0.3
0.52
0.67
0.66
0.635
0.46
0.235
0.095
0.15
0.19
0.395
0.515
0.635
0.665
0.6
0.41
0.17
0.07
0.09
0.115
0.29
0.47
0.565
0.555
0.47
0.28
0.055
-0.065
-0.055
-0.01
0.175
0.345
0.49
0.5
0.41
0.225
-0.035
-0.135
-0.09
-0.06
0.125
0.325
0.42
0.365
0.335
0.13
-0.03
-0.1
-0.105
-0.055
0.155
0.315
0.415
0.36
0.29
0.085
-0.085
-0.18
-0.08
-0.055
0.18
0.36
0.44
0.36
0.335
0.1
-0.09
-0.14
-0.135
-0.065
0.17
0.345
0.405
0.365
0.3
0.13
-0.12
-0.195
-0.11
-0.025
0.14
0.365
0.445
0.435
0.335
0.1
-0.07
-0.14
-0.125
-0.055
0.22
0.43
0.45
0.375
0.3
0.065
-0.07
-0.115
-0.105
0.015
0.225
0.395
0.425
0.39
0.32
0.03
-0.09
-0.11
-0.04
0.02
0.215
0.375
0.435
0.39
0.23
0.005
-0.12
-0.125
-0.065
0.085
0.305
0.42
0.42
0.395
0.25
0.05
-0.105
-0.14
-0.1
0.03
0.225
0.385
0.405
0.34
0.225
0.025
-0.115
-0.09
-0.06
0.035
0.31
0.375
0.365
0.38
0.23
-0.005
-0.15
-0.155
-0.09
0.1
0.37
0.445
0.43
0.34
0.205
-0.035
-0.175
-0.165
-0.09
0.075
0.325
0.44
0.41
0.365
0.19
-0.03
-0.185
-0.16
-0.07
0.105
0.29
0.425
0.365
0.325
0.16
-0.05
-0.165
-0.125
-0.105
0.115
0.295
0.41
0.39
0.35
0.13
-0.07
-0.12
-0.125
-0.1
0.11
0.37
0.415
0.395
0.33
0.14
-0.03
-0.195
-0.19
-0.16
0.13
0.375
0.485
0.435
0.34
0.13
-0.075
-0.145
-0.09
-0.01
0.195
0.41
0.49
0.41
0.34
0.15
0.01
-0.045
-0.065
-0.025
0.25
0.43
0.46
0.39
0.4
0.2
0.0
-0.13
-0.045
0.075
0.265
0.445
0.47
0.435
0.33
0.105
-0.045
-0.065
-0.065
-0.02
0.155
0.345
0.45
0.365
0.33
0.01
-0.12
-0.13
-0.075
-0.005
0.19
0.375
0.46
0.395
0.295
0.08
-0.08
-0.135
-0.105
0.035
0.265
0.39
0.47
0.355
0.225
0.0
-0.12
-0.11
-0.085
0.105
0.27
0.395
0.46
0.42
0.245
0.01
-0.145
-0.125
-0.085
0.03
0.15
0.3
0.39
0.38
0.28
0.16
0.175
0.29
0.46
0.78
1.16
1.4
1.475
1.465
1.305
1.085
0.92
0.74
0.415
0.335
0.465
0.515
0.5
0.45
0.245
-0.065
-0.085
-0.02
-0.005
0.15
0.33
0.46
0.44
0.4
0.26
0.045
-0.085
-0.07
-0.025
0.165
0.35
0.47
0.435
0.385
0.245
-0.045
-0.165
-0.11
-0.06
0.145
0.325
0.435
0.475
0.435
0.195
-0.035
-0.145
-0.08
-0.005
0.195
0.385
0.46
0.41
0.365
0.175
0.045
-0.065
-0.05
-0.1
0.155
0.31
0.405
0.45
0.435
0.155
0.0
-0.005
-0.02
0.01
0.24
0.385
0.44
0.41
0.405
0.185
0.045
-0.02
0.005
0.04
0.27
0.42
0.47
0.445
0.385
0.165
0.02
-0.04
0.015
0.155
0.26
0.465
0.51
0.495
0.415
0.235
0.09
0.075
0.06
0.17
0.355
0.515
0.545
0.49
0.325
0.18
0.06
0.02
0.06
0.15
0.355
0.48
0.57
0.545
0.42
0.245
0.085
0.065
0.11
0.23
0.485
0.58
0.64
0.575
0.465
0.225
0.145
0.125
0.16
0.31
0.51
0.62
0.635
0.62
0.51
0.29
0.165
0.165
0.235
0.435
0.565
0.65
0.63
0.615
0.435
0.285
0.255
0.185
0.195
0.285
0.455
0.57
0.575
0.53
0.365
0.15
0.01
0.045
0.06
0.175
0.37
0.45
0.45
0.42
0.24
0.08
-0.035
-0.05
-0.035
0.175
0.355
0.41
0.385
0.345
0.17
-0.01
-0.12
-0.125
-0.035
0.145
0.33
0.435
0.38
0.37
0.185
-0.07
-0.13
-0.07
-0.01
0.245
0.38
0.41
0.395
0.385
0.19
-0.04
-0.13
-0.08
-0.05
0.22
0.345
0.425
0.365
0.28
0.18
-0.015
-0.095
-0.06
-0.025
0.195
0.335
0.44
0.39
0.3
0.105
-0.055
-0.1
-0.05
0.0
0.22
0.405
0.45
0.395
0.34
0.15
-0.065
-0.12
-0.11
-0.03
0.22
0.38
0.465
0.355
0.295
0.14
-0.06
-0.04
-0.055
0.005
0.215
0.385
0.44
0.38
0.265
0.08
-0.06
-0.07
-0.07
0.03
0.275
0.39
0.455
0.355
0.325
0.09
-0.09
-0.11
-0.055
0.035
0.225
0.39
0.46
0.415
0.28
0.07
-0.095
-0.09
-0.015
0.04
0.225
0.335
0.385
0.345
0.265
0.09
-0.04
-0.085
-0.03
0.045
0.225
0.38
0.41
0.375
0.24
0.05
-0.11
-0.065
-0.015
0.11
0.285
0.405
0.405
0.355
0.25
0.085
-0.075
-0.12
-0.09
0.08
0.31
0.43
0.435
0.36
0.215
0.015
-0.07
-0.045
-0.015
0.15
0.305
0.46
0.41
0.33
0.205
0.02
-0.09
-0.065
0.0
0.175
0.325
0.4
0.42
0.375
0.245
0.115
-0.02
-0.005
0.06
0.17
0.375
0.51
0.45
0.42
0.24
0.04
-0.03
0.035
0.11
0.265
0.44
0.525
0.525
0.465
0.235
0.03
-0.01
0.04
0.075
0.305
0.4
0.455
0.395
0.41
0.16
-0.025
-0.1
-0.015
-0.015
0.2
0.375
0.455
0.45
0.36
0.195
-0.015
-0.035
0.0
0.055
0.245
0.385
0.46
0.415
0.32
0.13
-0.035
-0.07
0.005
0.1
0.255
0.44
0.46
0.48
0.42
0.14
-0.025
-0.06
-0.035
0.025
0.2
0.365
0.46
0.425
0.32
0.085
-0.12
-0.145
-0.06
0.055
0.31
0.62
0.765
0.79
0.79
0.76
0.715
0.815
0.85
1.015
1.215
1.45
1.415
1.175
0.685
0.34
0.14
0.055
0.07
0.19
0.355
0.49
0.535
0.405
0.34
0.15
-0.025
-0.02
0.015
0.11
0.285
0.435
0.485
0.45
0.32
0.1
-0.025
-0.065
0.025
0.145
0.285
0.465
0.475
0.41
0.28
0.105
-0.02
-0.09
-0.01
0.205
0.315
0.46
0.48
0.445
0.345
0.1
-0.005
-0.015
0.02
0.175
0.3
0.47
0.505
0.465
0.38
0.145
-0.015
-0.015
-0.01
0.2
0.365
0.545
0.475
0.385
0.285
0.095
-0.04
0.015
0.045
0.19
0.4
0.565
0.525
0.47
0.29
0.08
-0.015
-0.01
0.055
0.285
0.43
0.515
0.5
0.465
0.3
0.135
0.095
0.11
0.13
0.33
0.495
0.52
0.52
0.47
0.285
0.1
0.075
0.075
0.135
0.35
0.53
0.61
0.55
0.545
0.325
0.17
0.1
0.15
0.215
0.405
0.605
0.65
0.595
0.53
0.33
0.23
0.145
0.155
0.24
0.44
0.66
0.725
0.665
0.595
0.39
0.255
0.2
0.25
0.345
0.58
0.71
0.79
0.71
0.61
0.425
0.215
0.225
0.24
0.29
0.545
0.685
0.73
0.695
0.57
0.35
0.17
0.125
0.165
0.255
0.465
0.615
0.655
0.525
0.475
0.18
0.005
-0.005
0.09
0.255
0.41
0.56
0.56
0.465
0.39
0.16
0.05
0.055
0.03
0.13
0.345
0.5
0.475
0.415
0.35
0.2
0.025
-0.025
0.02
0.155
0.385
0.5
0.49
0.445
0.31
0.09
-0.05
-0.065
-0.01
0.14
0.34
0.46
0.55
0.46
0.31
0.105
-0.015
-0.005
0.08
0.255
0.39
0.51
0.495
0.36
0.305
0.09
-0.005
0.005
0.06
0.255
0.43
0.525
0.5
0.415
0.29
0.11
-0.03
0.02
0.065
0.19
0.425
0.53
0.47
0.45
0.275
0.13
0.045
0.02
0.055
0.25
0.45
0.465
0.5
0.415
0.265
0.085
0.085
0.01
0.085
0.325
0.455
0.535
0.52
0.445
0.265
0.03
-0.005
-0.02
0.11
0.29
0.47
0.535
0.5
0.485
0.285
0.12
0.055
0.04
0.085
0.23
0.49
0.52
0.48
0.425
0.25
0.06
0.015
0.1
0.14
0.35
0.51
0.57
0.51
0.475
0.25
0.035
0.03
0.025
0.175
0.385
0.52
0.575
0.575
0.435
0.225
0.105
0.01
0.105
0.145
0.39
0.58
0.645
0.575
0.52
0.32
0.1
0.11
0.16
0.24
0.425
0.56
0.635
0.58
0.445
0.145
0.005
0.03
0.075
0.185
0.36
0.485
0.57
0.45
0.42
0.195
0.025
-0.03
0.065
0.225
0.415
0.59
0.585
0.525
0.355
0.115
0.035
0.01
0.04
0.17
0.405
0.625
0.62
0.55
0.45
0.19
0.03
0.0
0.1
0.255
0.455
0.585
0.545
0.49
0.385
0.24
0.05
0.05
0.065
0.2
0.38
0.48
0.48
0.435
0.375
0.14
0.09
0.26
0.385
0.7
1.005
1.27
1.375
1.445
1.31
1.125
1.065
1.1
1.095
1.045
0.855
0.815
0.705
0.625
0.37
0.19
0.125
0.11
0.195
0.35
0.515
0.655
0.605
0.52
0.345
0.145
0.065
0.045
0.11
0.325
0.55
0.635
0.545
0.545
0.35
0.185
0.1
0.095
0.16
0.375
0.52
0.605
0.545
0.51
0.325
0.105
0.05
0.08
0.13
0.36
0.575
0.655
0.6
0.51
0.28
0.13
0.09
0.165
0.23
0.46
0.635
0.645
0.54
0.525
0.295
0.115
0.095
0.155
0.185
0.385
0.56
0.625
0.575
0.54
0.335
0.15
0.145
0.205
0.165
0.43
0.585
0.615
0.53
0.515
0.325
0.225
0.2
0.195
0.33
0.52
0.625
0.645
0.59
0.5
0.34
0.195
0.15
0.2
0.34
0.525
0.695
0.715
0.67
0.555
0.37
0.245
0.235
0.275
0.36
0.615
0.71
0.715
0.685
0.585
0.43
0.275
0.28
0.345
0.45
0.66
0.78
0.78
0.775
0.64
0.475
0.325
0.33
0.365
0.5
0.68
0.82
0.845
0.85
0.705
0.49
0.325
0.36
0.43
0.545
0.73
0.895
0.875
0.815
0.66
0.425
0.295
0.29
0.375
0.53
0.69
0.805
0.785
0.745
0.535
0.355
0.185
0.2
0.255
0.415
0.56
0.7
0.73
0.63
0.455
0.255
0.15
0.115
0.12
0.36
0.555
0.685
0.64
0.58
0.41
0.25
0.12
0.12
0.195
0.385
0.535
0.61
0.595
0.6
0.41
0.17
0.05
0.1
0.17
0.405
0.58
0.715
0.66
0.55
0.35
0.16
0.14
0.195
0.205
0.42
0.605
0.68
0.6
0.59
0.38
0.135
0.135
0.19
0.185
0.42
0.59
0.655
0.615
0.56
0.375
0.175
0.115
0.165
0.225
0.475
0.605
0.645
0.555
0.5
0.305
0.145
0.13
0.215
0.3
0.43
0.65
0.745
0.595
0.52
0.295
0.175
0.15
0.24
0.26
0.445
0.645
0.685
0.575
0.5
0.295
0.13
0.085
0.185
0.265
0.5
0.655
0.68
0.6
0.525
0.285
0.17
0.145
0.195
0.27
0.48
0.615
0.64
0.575
0.515
0.3
0.15
0.145
0.18
0.26
0.475
0.59
0.615
0.56
0.42
0.21
0.115
0.135
0.185
0.275
0.555
0.69
0.68
0.625
0.47
0.2
0.095
0.125
0.18
0.375
0.52
0.66
0.675
0.65
0.5
0.315
0.19
0.18
0.2
0.36
0.52
0.68
0.69
0.65
0.51
0.275
0.205
0.24
0.275
0.42
0.615
0.685
0.68
0.65
0.47
0.25
0.135
0.145
0.265
0.475
0.66
0.695
0.705
0.595
0.46
0.25
0.17
0.185
0.21
0.395
0.565
0.675
0.655
0.575
0.4
0.235
0.135
0.19
0.22
0.425
0.65
0.67
0.635
0.6
0.35
0.245
0.21
0.195
0.265
0.415
0.595
0.67
0.61
0.56
0.39
0.225
0.145
0.195
0.24
0.475
0.63
0.67
0.6
0.57
0.36
0.17
0.115
0.235
0.285
0.42
0.545
0.585
0.56
0.53
0.355
0.27
0.38
0.5
0.72
1.055
1.37
1.495
1.605
1.475
1.26
1.19
1.14
1.19
1.015
0.85
0.86
0.82
0.735
0.555
0.36
0.205
0.235
0.27
0.325
0.515
0.7
0.735
0.595
0.48
0.25
0.095
0.165
0.25
0.325
0.495
0.62
0.65
0.625
0.575
0.345
0.195
0.165
0.18
0.325
0.48
0.63
0.665
0.63
0.465
0.3
0.185
0.19
0.265
0.335
0.54
0.67
0.7
0.625
0.48
0.325
0.17
0.145
0.22
0.385
0.58
0.69
0.69
0.61
0.455
0.28
0.175
0.14
0.175
0.39
0.595
0.655
0.725
0.71
0.475
0.29
0.105
0.16
0.255
0.44
0.61
0.72
0.685
0.665
0.5
0.3
0.285
0.245
0.315
0.455
0.635
0.7
0.685
0.69
0.53
0.32
0.215
0.235
0.31
0.51
0.675
0.78
0.76
0.705
0.535
0.315
0.185
0.285
0.365
0.565
0.725
0.785
0.785
0.765
0.545
0.385
0.315
0.31
0.4
0.595
0.75
0.83
0.845
0.805
0.595
0.425
0.35
0.415
0.44
0.655
0.77
0.905
0.89
0.845
0.62
0.46
0.41
0.415
0.47
0.735
0.885
0.86
0.825
0.76
0.595
0.405
0.365
0.42
0.46
0.625
0.775
0.83
0.755
0.66
0.45
0.29
0.225
0.27
0.36
0.545
0.69
0.675
0.695
0.61
0.32
0.185
0.155
0.17
0.22
0.485
0.705
0.625
0.6
0.49
0.27
0.135
0.11
0.19
0.28
0.395
0.595
0.685
0.62
0.455
0.33
0.175
0.14
0.18
0.27
0.44
0.575
0.625
0.585
0.485
0.275
0.14
0.14
0.145
0.185
0.375
0.515
0.55
0.595
0.47
0.28
0.15
0.07
0.125
0.335
0.48
0.605
0.645
0.52
0.31
0.195
0.11
0.14
0.185
0.315
0.475
0.57
0.6
0.535
0.385
0.17
0.11
0.125
0.18
0.325
0.5
0.595
0.595
0.54
0.365
0.19
0.07
0.115
0.13
0.32
0.52
0.61
0.55
0.495
0.33
0.13
0.015
0.07
0.105
0.28
0.52
0.605
0.59
0.54
0.32
0.125
0.015
0.07
0.065
0.275
0.45
0.53
0.535
0.5
0.365
0.12
0.045
0.135
0.14
0.24
0.45
0.52
0.515
0.505
0.305
0.165
0.09
0.08
0.1
0.32
0.485
0.6
0.525
0.485
0.275
0.1
0.04
0.07
0.185
0.36
0.45
0.55
0.525
0.52
0.265
0.08
0.06
0.08
0.145
0.355
0.515
0.57
0.585
0.51
0.29
0.095
0.075
0.075
0.16
0.34
0.605
0.6
0.515
0.44
0.2
0.025
0.025
0.11
0.155
0.32
0.52
0.525
0.46
0.355
0.12
-0.015
-0.02
0.06
0.135
0.27
0.45
0.455
0.425
0.33
0.16
-0.025
0.0
0.01
0.12
0.29
0.4
0.44
0.4
0.33
0.06
-0.1
-0.045
-0.025
0.145
0.285
0.425
0.44
0.43
0.25
0.095
-0.035
-0.06
-0.01
0.065
0.175
0.26
0.25
0.27
0.195
0.04
-0.04
0.075
0.225
0.515
0.82
1.1
1.225
1.315
1.185
0.97
0.82
0.915
0.995
0.9
0.7
0.65
0.49
0.415
0.25
0.02
-0.065
-0.02
0.025
0.17
0.365
0.455
0.43
0.315
0.155
-0.055
-0.185
-0.03
0.01
0.175
0.32
0.355
0.34
0.27
0.15
-0.005
-0.115
-0.125
-0.075
0.145
0.295
0.375
0.34
0.28
0.155
-0.08
-0.145
-0.08
-0.07
0.115
0.305
0.385
0.335
0.31
0.12
-0.065
-0.12
-0.1
-0.07
0.12
0.335
0.35
0.365
0.32
0.05
-0.08
-0.12
-0.085
-0.04
0.14
0.31
0.4
0.325
0.295
0.12
-0.065
-0.12
-0.13
-0.02
0.22
0.365
0.42
0.36
0.24
0.045
-0.13
-0.1
-0.065
-0.03
0.135
0.335
0.405
0.335
0.25
0.065
-0.065
-0.09
-0.075
-0.015
0.21
0.39
0.36
0.35
0.22
0.035
-0.11
-0.095
-0.05
0.075
0.225
0.4
0.445
0.37
0.295
0.11
-0.08
-0.005
-0.045
0.155
0.29
0.44
0.465
0.4
0.29
0.16
-0.015
-0.02
0.01
0.13
0.305
0.48
0.525
0.46
0.36
0.155
0.04
-0.02
0.025
0.165
0.325
0.485
0.52
0.44
0.3
0.08
-0.005
-0.035
-0.055
0.065
0.265
0.44
0.39
0.28
0.14
-0.015
-0.16
-0.14
-0.12
0.015
0.165
0.265
0.265
0.22
0.035
-0.165
-0.225
-0.245
-0.23
-0.025
0.165
0.25
0.175
0.14
-0.035
-0.225
-0.365
-0.345
-0.25
-0.055
0.105
0.18
0.16
0.14
-0.115
-0.255
-0.28
-0.265
-0.245
-0.095
0.075
0.185
0.17
0.065
-0.105
-0.295
-0.355
-0.365
-0.31
-0.1
0.1
0.19
0.165
0.145
-0.095
-0.295
-0.35
-0.33
-0.3
-0.095
0.12
0.175
0.085
0.06
-0.105
-0.31
-0.38
-0.36
-0.245
-0.085
0.08
0.085
0.105
0.055
-0.14
-0.31
-0.355
-0.35
-0.26
-0.03
0.13
0.15
0.065
-0.02
-0.235
-0.39
-0.42
-0.35
-0.275
-0.135
0.075
0.09
0.08
0.035
-0.2
-0.33
-0.415
-0.33
-0.26
-0.075
0.04
0.105
0.065
-0.01
-0.24
-0.38
-0.48
-0.415
-0.265
-0.07
0.09
0.065
0.03
-0.07
-0.285
-0.455
-0.48
-0.39
-0.3
-0.11
0.015
0.01
0.015
-0.045
-0.275
-0.445
-0.45
-0.41
-0.32
-0.14
0.045
0.05
-0.025
-0.105
-0.28
-0.46
-0.46
-0.4
-0.305
-0.115
0.08
0.055
-0.07
-0.165
-0.36
-0.485
-0.425
-0.395
-0.27
-0.075
0.03
0.055
0.005
-0.145
-0.335
-0.485
-0.48
-0.435
-0.195
-0.06
0.07
0.065
0.035
-0.14
-0.33
-0.45
-0.44
-0.35
-0.2
-0.04
0.04
-0.01
-0.015
-0.14
-0.355
-0.45
-0.375
-0.36
-0.175
-0.06
0.055
-0.03
-0.08
-0.255
-0.43
-0.52
-0.51
-0.425
-0.24
-0.05
0.015
-0.02
-0.055
-0.25
-0.435
-0.555
-0.49
-0.505
-0.24
-0.06
0.005
-0.045
-0.045
-0.26
-0.44
-0.495
-0.53
-0.485
-0.24
-0.08
-0.075
-0.085
-0.12
-0.235
-0.41
-0.485
-0.545
-0.46
-0.255
-0.09
-0.02
-0.065
-0.1
-0.305
-0.485
-0.56
-0.535
-0.53
-0.325
-0.2
-0.06
-0.02
-0.03
-0.055
-0.06
0.0
0.205
0.415
0.75
0.96
0.98
0.925
0.905
0.705
0.445
0.075
-0.165
-0.205
-0.04
0.02
0.065
0.0
-0.055
-0.285
-0.455
-0.495
-0.47
-0.355
-0.155
-0.01
0.0
-0.015
-0.155
-0.34
-0.515
-0.535
-0.495
-0.39
-0.16
-0.015
0.04
-0.03
-0.18
-0.395
-0.49
-0.51
-0.46
-0.375
-0.18
0.0
0.04
-0.1
-0.215
-0.425
-0.565
-0.475
-0.395
-0.32
-0.115
0.06
0.04
-0.05
-0.205
-0.345
-0.47
-0.495
-0.43
-0.3
-0.07
0.01
0.02
-0.055
-0.2
-0.36
-0.47
-0.47
-0.425
-0.295
-0.08
0.04
0.04
-0.05
-0.185
-0.35
-0.505
-0.52
-0.395
-0.215
-0.035
0.07
0.04
0.01
-0.14
-0.34
-0.495
-0.42
-0.355
-0.155
0.025
0.065
0.075
0.01
-0.115
-0.3
-0.41
-0.405
-0.35
-0.13
0.025
0.115
0.07
0.005
-0.155
-0.34
-0.46
-0.395
-0.295
-0.11
0.085
0.17
0.175
0.13
-0.095
-0.32
-0.345
-0.265
-0.215
-0.035
0.13
0.23
0.155
0.12
-0.065
-0.215
-0.28
-0.245
-0.195
0.035
0.2
0.23
0.275
0.21
-0.05
-0.255
-0.225
-0.205
-0.165
0.03
0.21
0.245
0.225
0.165
-0.065
-0.255
-0.335
-0.27
-0.22
-0.015
0.115
0.14
0.085
0.02
-0.195
-0.38
-0.385
-0.345
-0.305
-0.09
0.09
0.07
-0.015
-0.085
-0.23
-0.44
-0.45
-0.405
-0.335
-0.205
0.005
0.1
0.035
-0.115
-0.35
-0.495
-0.44
-0.42
-0.315
-0.14
0.03
0.055
-0.05
-0.115
-0.32
-0.485
-0.445
-0.42
-0.315
-0.105
0.005
0.02
-0.03
-0.155
-0.325
-0.48
-0.51
-0.425
-0.315
-0.105
0.015
0.04
0.065
-0.07
-0.325
-0.475
-0.45
-0.435
-0.305
-0.12
0.045
-0.03
-0.045
-0.15
-0.32
-0.44
-0.45
-0.4
-0.235
-0.11
0.055
0.06
0.005
-0.15
-0.325
-0.46
-0.47
-0.41
-0.235
-0.075
0.025
0.03
0.005
-0.145
-0.33
-0.395
-0.425
-0.4
-0.255
-0.015
0.085
0.04
-0.01
-0.16
-0.315
-0.425
-0.415
-0.375
-0.185
0.015
0.085
0.045
0.02
-0.115
-0.275
-0.385
-0.4
-0.38
-0.145
0.02
0.14
0.12
0.01
-0.155
-0.345
-0.41
-0.405
-0.345
-0.11
0.07
0.135
0.08
0.015
-0.155
-0.325
-0.415
-0.4
-0.33
-0.07
0.1
0.14
0.085
0.055
-0.165
-0.33
-0.39
-0.305
-0.28
-0.085
0.08
0.15
0.135
0.045
-0.155
-0.265
-0.34
-0.265
-0.205
-0.01
0.11
0.145
0.15
0.12
-0.12
-0.25
-0.315
-0.29
-0.17
0.02
0.225
0.275
0.235
0.1
-0.095
-0.265
-0.275
-0.24
-0.215
-0.03
0.14
0.185
0.125
0.03
-0.18
-0.34
-0.33
-0.32
-0.195
0.025
0.195
0.215
0.15
0.05
-0.155
-0.305
-0.295
-0.265
-0.17
0.015
0.17
0.225
0.155
0.045
-0.14
-0.275
-0.305
-0.255
-0.1
0.1
0.19
0.195
0.14
0.04
-0.105
-0.24
-0.275
-0.185
-0.09
0.04
0.17
0.21
0.19
0.055
-0.23
-0.385
-0.345
-0.325
-0.06
0.15
0.345
0.415
0.47
0.46
0.435
0.525
0.655
0.795
1.0
1.185
1.36
1.375
1.25
0.785
0.28
-0.005
-0.08
-0.095
0.05
0.235
0.355
0.3
0.255
0.085
-0.115
-0.165
-0.135
-0.115
0.045
0.205
0.32
0.27
0.265
0.1
-0.115
-0.19
-0.175
-0.115
0.065
0.19
0.29
0.28
0.315
0.075
-0.14
-0.195
-0.085
-0.08
0.09
0.26
0.345
0.345
0.29
0.095
-0.055
-0.165
-0.12
-0.055
0.12
0.29
0.33
0.295
0.3
0.115
-0.045
-0.11
-0.06
0.0
0.135
0.33
0.36
0.335
0.32
0.125
-0.075
-0.125
-0.085
-0.01
0.185
0.34
0.4
0.35
0.3
0.125
-0.065
-0.08
-0.04
0.06
0.255
0.405
0.42
0.35
0.32
0.105
-0.015
-0.04
-0.01
0.05
0.295
0.43
0.45
0.42
0.29
0.17
-0.005
-0.005
0.045
0.155
0.34
0.525
0.53
0.445
0.35
0.13
0.025
0.015
0.14
0.19
0.415
0.535
0.53
0.54
0.435
0.16
0.035
0.06
0.12
0.26
0.43
0.57
0.6
0.575
0.455
0.235
0.15
0.17
0.245
0.375
0.57
0.68
0.695
0.605
0.445
0.23
0.08
0.145
0.265
0.415
0.57
0.665
0.685
0.56
0.43
0.2
0.115
0.12
0.155
0.28
0.475
0.57
0.475
0.495
0.28
0.06
0.01
0.03
0.03
0.19
0.325
0.47
0.48
0.435
0.2
-0.04
-0.06
-0.03
-0.02
0.12
0.325
0.44
0.42
0.36
0.185
-0.03
-0.125
0.0
0.0
0.18
0.34
0.415
0.4
0.32
0.135
-0.015
-0.095
-0.045
-0.045
0.135
0.355
0.395
0.355
0.275
0.15
-0.05
-0.115
-0.075
-0.02
0.215
0.38
0.445
0.38
0.325
0.085
-0.14
-0.065
-0.065
-0.005
0.19
0.335
0.415
0.375
0.35
0.115
-0.05
-0.14
-0.095
-0.04
0.115
0.31
0.4
0.375
0.36
0.09
-0.07
-0.115
-0.075
-0.015
0.175
0.325
0.385
0.345
0.275
0.065
-0.115
-0.135
-0.1
0.02
0.23
0.355
0.36
0.355
0.23
0.05
-0.115
-0.14
-0.105
0.035
0.16
0.315
0.365
0.295
0.265
0.035
-0.165
-0.155
-0.145
0.005
0.215
0.345
0.355
0.335
0.235
-0.01
-0.095
-0.09
-0.135
0.05
0.215
0.35
0.385
0.305
0.205
0.01
-0.145
-0.13
-0.13
0.035
0.23
0.385
0.34
0.305
0.185
-0.02
-0.11
-0.125
-0.06
0.06
0.25
0.4
0.335
0.335
0.2
0.015
-0.105
-0.13
-0.045
0.06
0.245
0.3
0.37
0.32
0.175
-0.03
-0.12
-0.14
-0.065
0.115
0.285
0.36
0.375
0.355
0.19
-0.02
-0.09
-0.07
-0.05
0.095
0.235
0.34
0.405
0.405
0.245
0.03
-0.03
-0.05
-0.015
0.2
0.365
0.4
0.405
0.385
0.205
0.02
-0.055
0.005
0.035
0.17
0.365
0.505
0.41
0.38
0.23
0.02
-0.005
-0.02
0.025
0.255
0.37
0.42
0.405
0.33
0.165
-0.045
-0.08
-0.075
-0.005
0.2
0.365
0.38
0.355
0.325
0.16
-0.105
-0.135
-0.115
-0.05
0.195
0.365
0.395
0.4
0.355
0.06
-0.095
-0.175
-0.06
0.015
0.23
0.36
0.39
0.34
0.31
0.075
-0.075
-0.145
-0.11
0.015
0.19
0.345
0.445
0.37
0.25
0.01
-0.16
-0.13
-0.115
-0.03
0.155
0.3
0.335
0.31
0.26
0.195
0.21
0.33
0.495
0.73
1.075
1.32
1.405
1.38
1.305
1.15
0.97
0.87
0.535
0.455
0.51
0.525
0.495
0.42
0.295
0.11
-0.02
-0.015
-0.01
0.11
0.325
0.425
0.425
0.395
0.28
0.06
-0.025
-0.08
0.0
0.095
0.28
0.39
0.38
0.435
0.225
0.065
-0.085
-0.08
-0.015
0.13
0.33
0.455
0.435
0.39
0.27
0.06
-0.065
-0.095
-0.025
0.155
0.38
0.44
0.455
0.39
0.175
0.03
-0.065
-0.05
0.0
0.205
0.41
0.5
0.42
0.39
0.235
0.095
-0.04
0.015
0.005
0.19
0.4
0.495
0.4
0.395
0.265
0.07
-0.05
-0.03
0.065
0.295
0.465
0.535
0.45
0.42
0.24
0.015
-0.035
0.065
0.145
0.325
0.495
0.575
0.515
0.435
0.225
0.075
0.01
0.085
0.125
0.305
0.58
0.615
0.54
0.475
0.28
0.11
0.09
0.125
0.19
0.36
0.49
0.585
0.57
0.525
0.335
0.195
0.155
0.25
0.24
0.415
0.66
0.69
0.645
0.54
0.39
0.17
0.21
0.265
0.375
0.53
0.68
0.725
0.68
0.565
0.4
0.23
0.21
0.255
0.385
0.59
0.745
0.79
0.665
0.58
0.37
0.25
0.205
0.235
0.35
0.51
0.645
0.65
0.61
0.495
0.295
0.145
0.09
0.15
0.215
0.415
0.475
0.49
0.425
0.38
0.2
0.05
0.045
0.07
0.205
0.37
0.46
0.53
0.425
0.285
0.11
0.025
-0.005
0.1
0.235
0.44
0.505
0.505
0.47
0.33
0.095
-0.03
-0.005
0.03
0.22
0.4
0.49
0.47
0.455
0.315
0.125
0.0
0.02
0.045
0.23
0.39
0.515
0.5
0.45
0.305
0.045
-0.01
0.01
0.075
0.255
0.44
0.52
0.495
0.475
0.3
0.045
-0.035
0.0
0.065
0.25
0.435
0.56
0.535
0.505
0.325
0.065
0.02
0.06
0.07
0.235
0.43
0.515
0.49
0.46
0.255
0.1
0.02
0.05
0.105
0.265
0.44
0.51
0.535
0.455
0.26
0.055
0.015
0.03
0.11
0.305
0.45
0.56
0.51
0.405
0.265
0.075
0.01
0.02
0.09
0.305
0.49
0.535
0.52
0.445
0.23
0.055
0.02
0.09
0.135
0.32
0.45
0.51
0.455
0.475
0.25
0.06
0.0
0.085
0.165
0.365
0.525
0.55
0.525
0.415
0.22
0.105
0.025
0.045
0.155
0.355
0.48
0.56
0.515
0.43
0.255
0.07
0.04
0.07
0.175
0.35
0.505
0.54
0.51
0.375
0.19
0.055
0.025
0.11
0.21
0.37
0.44
0.535
0.515
0.365
0.19
0.035
0.06
0.1
0.22
0.42
0.52
0.525
0.48
0.4
0.185
0.08
0.04
0.1
0.26
0.455
0.595
0.57
0.52
0.36
0.2
0.09
0.075
0.13
0.33
0.5
0.625
0.635
0.555
0.425
0.17
0.06
0.095
0.145
0.355
0.51
0.605
0.61
0.565
0.385
0.25
0.09
0.025
0.11
0.27
0.47
0.535
0.53
0.475
0.35
0.14
0.03
0.02
0.085
0.305
0.485
0.57
0.565
0.495
0.31
0.085
0.03
0.085
0.105
0.305
0.43
0.59
0.56
0.475
0.305
0.12
0.06
0.045
0.045
0.305
0.535
0.595
0.54
0.49
0.295
0.065
0.015
0.085
0.145
0.325
0.49
0.525
0.495
0.4
0.15
0.01
0.015
0.085
0.285
0.61
0.875
1.07
1.14
1.25
1.155
1.06
1.01
1.085
1.14
1.335
1.455
1.155
0.81
0.655
0.35
0.165
0.085
0.17
0.23
0.46
0.59
0.645
0.59
0.51
0.26
0.125
0.05
0.155
0.22
0.385
0.57
0.595
0.585
0.53
0.325
0.12
0.07
0.12
0.21
0.45
0.59
0.58
0.585
0.485
0.235
0.145
0.11
0.14
0.275
0.485
0.575
0.595
0.57
0.42
0.285
0.145
0.1
0.15
0.31
0.475
0.58
0.62
0.585
0.44
0.225
0.155
0.155
0.16
0.285
0.535
0.66
0.625
0.485
0.425
0.265
0.145
0.105
0.19
0.35
0.495
0.595
0.595
0.61
0.48
0.285
0.16
0.2
0.23
0.375
0.57
0.67
0.7
0.66
0.46
0.28
0.17
0.195
0.235
0.4
0.61
0.665
0.705
0.645
0.485
0.32
0.205
0.225
0.28
0.435
0.555
0.725
0.72
0.7
0.515
0.335
0.26
0.29
0.335
0.47
0.65
0.8
0.765
0.8
0.595
0.365
0.31
0.335
0.39
0.615
0.8
0.875
0.855
0.78
0.61
0.4
0.35
0.42
0.42
0.65
0.795
0.9
0.885
0.82
0.625
0.455
0.33
0.39
0.415
0.645
0.815
0.89
0.8
0.77
0.545
0.33
0.29
0.265
0.36
0.505
0.69
0.75
0.705
0.67
0.455
0.245
0.165
0.225
0.275
0.48
0.67
0.71
0.665
0.59
0.36
0.2
0.175
0.225
0.23
0.495
0.575
0.65
0.59
0.53
0.35
0.215
0.13
0.235
0.295
0.48
0.605
0.665
0.65
0.56
0.335
0.22
0.185
0.185
0.245
0.475
0.625
0.63
0.525
0.42
0.265
0.2
0.185
0.195
0.38
0.57
0.65
0.74
0.685
0.53
0.325
0.205
0.165
0.19
0.35
0.545
0.63
0.695
0.62
0.495
0.275
0.18
0.205
0.19
0.37
0.57
0.69
0.675
0.58
0.485
0.345
0.215
0.205
0.225
0.35
0.575
0.695
0.705
0.635
0.485
0.285
0.145
0.165
0.265
0.395
0.55
0.65
0.67
0.575
0.5
0.325
0.205
0.205
0.3
0.445
0.625
0.71
0.68
0.605
0.445
0.25
0.17
0.175
0.215
0.44
0.625
0.705
0.735
0.69
0.495
0.29
0.25
0.23
0.245
0.45
0.615
0.685
0.67
0.65
0.485
0.305
0.21
0.205
0.27
0.49
0.635
0.72
0.69
0.66
0.41
0.27
0.255
0.205
0.27
0.49
0.72
0.685
0.635
0.655
0.425
0.205
0.175
0.285
0.315
0.52
0.68
0.72
0.665
0.655
0.46
0.245
0.235
0.295
0.375
0.54
0.675
0.71
0.67
0.64
0.475
0.29
0.235
0.335
0.4
0.64
0.805
0.89
0.795
0.68
0.465
0.3
0.28
0.315
0.395
0.575
0.725
0.78
0.74
0.62
0.43
0.26
0.225
0.295
0.4
0.59
0.71
0.735
0.695
0.555
0.375
0.25
0.215
0.28
0.395
0.58
0.73
0.745
0.685
0.555
0.385
0.235
0.25
0.27
0.395
0.585
0.685
0.705
0.7
0.61
0.385
0.275
0.285
0.325
0.425
0.595
0.745
0.74
0.705
0.545
0.32
0.235
0.19
0.245
0.345
0.565
0.66
0.665
0.685
0.6
0.525
0.505
0.62
0.79
1.145
1.425
1.58
1.605
1.695
1.545
1.35
1.33
1.285
0.905
0.815
0.87
0.91
0.83
0.74
0.59
0.355
0.305
0.325
0.35
0.535
0.72
0.765
0.72
0.69
0.53
0.38
0.26
0.22
0.265
0.495
0.65
0.75
0.705
0.755
0.62
0.435
0.3
0.295
0.345
0.51
0.645
0.68
0.735
0.69
0.495
0.355
0.27
0.315
0.38
0.55
0.71
0.75
0.72
0.685
0.505
0.355
0.28
0.35
0.365
0.545
0.7
0.785
0.71
0.645
0.41
0.255
0.245
0.31
0.39
0.66
0.815
0.84
0.755
0.67
0.49
0.375
0.32
0.405
0.42
0.615
0.765
0.845
0.745
0.685
0.52
0.365
0.31
0.385
0.445
0.68
0.81
0.845
0.815
0.765
0.515
0.385
0.33
0.37
0.495
0.68
0.865
0.88
0.815
0.73
0.545
0.435
0.41
0.43
0.52
0.745
0.88
0.95
0.95
0.745
0.635
0.55
0.515
0.565
0.69
0.845
1.005
0.98
0.995
0.87
0.675
0.545
0.545
0.6
0.725
0.93
1.02
1.015
1.0
0.88
0.715
0.585
0.615
0.635
0.765
0.96
1.05
1.04
1.01
0.855
0.625
0.505
0.515
0.515
0.705
0.905
0.965
0.995
0.935
0.8
0.51
0.435
0.45
0.46
0.62
0.835
0.85
0.84
0.785
0.655
0.5
0.38
0.395
0.345
0.59
0.75
0.84
0.835
0.74
0.565
0.41
0.305
0.39
0.435
0.605
0.795
0.83
0.805
0.78
0.57
0.38
0.305
0.37
0.385
0.57
0.745
0.765
0.745
0.695
0.52
0.44
0.41
0.425
0.425
0.64
0.82
0.855
0.76
0.735
0.505
0.335
0.29
0.335
0.435
0.63
0.775
0.785
0.805
0.725
0.51
0.38
0.33
0.41
0.445
0.655
0.77
0.84
0.81
0.74
0.495
0.325
0.325
0.38
0.41
0.615
0.75
0.75
0.76
0.71
0.505
0.42
0.395
0.41
0.485
0.71
0.805
0.825
0.795
0.67
0.47
0.33
0.29
0.31
0.485
0.685
0.76
0.815
0.715
0.675
0.455
0.375
0.39
0.385
0.475
0.695
0.77
0.805
0.81
0.69
0.48
0.335
0.28
0.33
0.47
0.665
0.79
0.76
0.8
0.65
0.455
0.35
0.3
0.33
0.45
0.67
0.85
0.795
0.735
0.64
0.385
0.32
0.34
0.36
0.495
0.695
0.775
0.785
0.73
0.59
0.425
0.305
0.345
0.36
0.5
0.66
0.765
0.735
0.775
0.605
0.405
0.29
0.355
0.395
0.545
0.77
0.845
0.865
0.8
0.63
0.385
0.285
0.315
0.465
0.595
0.8
0.88
0.855
0.805
0.635
0.45
0.32
0.38
0.445
0.655
0.775
0.875
0.84
0.795
0.595
0.385
0.295
0.33
0.395
0.575
0.755
0.77
0.745
0.675
0.515
0.345
0.33
0.325
0.3
0.54
0.66
0.805
0.8
0.74
0.485
0.385
0.31
0.335
0.41
0.57
0.785
0.83
0.775
0.72
0.515
0.34
0.27
0.29
0.36
0.535
0.745
0.8
0.745
0.665
0.525
0.355
0.265
0.32
0.355
0.54
0.695
0.725
0.66
0.625
0.435
0.3
0.385
0.54
0.695
1.015
1.345
1.54
1.63
1.565
1.42
1.36
1.32
1.405
1.39
1.315
1.2
1.01
0.93
0.755
0.56
0.365
0.33
0.365
0.46
0.7
0.815
0.78
0.745
0.67
0.475
0.33
0.29
0.36
0.5
0.715
0.85
0.82
0.79
0.62
0.41
0.29
0.26
0.345
0.475
0.69
0.775
0.825
0.775
0.625
0.43
0.29
0.29
0.305
0.52
0.805
0.82
0.8
0.76
0.605
0.405
0.305
0.33
0.39
0.52
0.72
0.785
0.81
0.76
0.615
0.42
0.335
0.325
0.38
0.595
0.755
0.78
0.775
0.71
0.63
0.44
0.31
0.365
0.405
0.62
0.81
0.895
0.83
0.81
0.605
0.4
0.29
0.32
0.39
0.66
0.78
0.91
0.825
0.76
0.655
0.46
0.365
0.39
0.465
0.705
0.865
0.9
0.895
0.82
0.66
0.45
0.39
0.425
0.535
0.7
0.86
0.92
0.875
0.88
0.66
0.525
0.47
0.515
0.58
0.73
0.92
1.0
0.95
0.9
0.71
0.55
0.48
0.545
0.64
0.84
0.995
1.02
0.99
0.95
0.735
0.555
0.58
0.61
0.625
0.88
1.105
1.055
1.02
0.96
0.715
0.575
0.525
0.545
0.62
0.82
0.97
1.005
0.925
0.85
0.62
0.465
0.43
0.49
0.555
0.71
0.88
0.895
0.775
0.74
0.545
0.415
0.375
0.365
0.465
0.67
0.81
0.83
0.775
0.655
0.475
0.3
0.27
0.345
0.455
0.595
0.76
0.81
0.75
0.64
0.415
0.315
0.285
0.315
0.43
0.655
0.78
0.805
0.76
0.715
0.415
0.29
0.29
0.335
0.445
0.65
0.81
0.83
0.755
0.62
0.425
0.275
0.27
0.31
0.485
0.69
0.805
0.775
0.725
0.555
0.345
0.21
0.255
0.36
0.535
0.695
0.77
0.785
0.71
0.56
0.385
0.255
0.28
0.31
0.49
0.71
0.78
0.77
0.735
0.6
0.395
0.305
0.3
0.345
0.525
0.685
0.79
0.735
0.685
0.54
0.345
0.23
0.26
0.305
0.47
0.755
0.85
0.775
0.69
0.495
0.305
0.26
0.28
0.375
0.56
0.715
0.8
0.715
0.7
0.515
0.34
0.265
0.285
0.33
0.495
0.72
0.785
0.7
0.7
0.53
0.3
0.26
0.32
0.36
0.58
0.71
0.745
0.68
0.705
0.47
0.27
0.205
0.32
0.34
0.545
0.64
0.69
0.715
0.665
0.475
0.31
0.255
0.32
0.355
0.56
0.72
0.76
0.73
0.625
0.4
0.235
0.235
0.335
0.455
0.62
0.715
0.755
0.71
0.65
0.45
0.35
0.31
0.34
0.455
0.645
0.78
0.795
0.75
0.655
0.475
0.345
0.325
0.39
0.445
0.635
0.79
0.755
0.71
0.625
0.395
0.275
0.24
0.315
0.425
0.58
0.7
0.705
0.65
0.545
0.345
0.23
0.205
0.26
0.43
0.6
0.68
0.715
0.68
0.605
0.375
0.255
0.25
0.295
0.415
0.595
0.7
0.735
0.67
0.52
0.335
0.27
0.235
0.26
0.39
0.635
0.745
0.71
0.695
0.54
0.315
0.2
0.23
0.3
0.435
0.58
0.66
0.6
0.58
0.47
0.275
0.195
0.27
0.44
0.745
1.04
1.245
1.445
1.54
1.41
1.26
1.16
1.24
1.305
1.48
1.465
1.15
0.95
0.835
0.58
0.37
0.26
0.26
0.34
0.575
0.745
0.78
0.755
0.66
0.455
0.24
0.195
0.265
0.36
0.585
0.755
0.745
0.675
0.655
0.46
0.295
0.2
0.27
0.295
0.5
0.655
0.765
0.66
0.7
0.5
0.29
0.215
0.275
0.34
0.55
0.69
0.745
0.675
0.63
0.425
0.3
0.23
0.27
0.4
0.55
0.7
0.725
0.66
0.635
0.41
0.27
0.21
0.28
0.39
0.595
0.71
0.755
0.68
0.655
0.49
0.305
0.245
0.275
0.37
0.605
0.755
0.75
0.69
0.645
0.44
0.24
0.25
0.28
0.42
0.615
0.78
0.81
0.8
0.655
0.435
0.26
0.235
0.31
0.455
0.685
0.795
0.805
0.79
0.665
0.44
0.295
0.305
0.385
0.555
0.775
0.845
0.87
0.84
0.65
0.485
0.37
0.39
0.46
0.59
0.77
0.87
0.945
0.865
0.71
0.5
0.405
0.46
0.48
0.67
0.87
0.94
0.935
0.87
0.685
0.465
0.485
0.495
0.605
0.755
0.895
0.99
0.99
0.93
0.775
0.55
0.46
0.47
0.46
0.64
0.825
0.94
0.92
0.845
0.635
0.465
0.365
0.35
0.4
0.535
0.7
0.775
0.785
0.69
0.495
0.285
0.26
0.23
0.26
0.44
0.605
0.7
0.66
0.645
0.465
0.255
0.155
0.18
0.22
0.36
0.59
0.715
0.68
0.585
0.385
0.24
0.16
0.175
0.19
0.455
0.605
0.645
0.59
0.57
0.39
0.245
0.115
0.175
0.23
0.435
0.575
0.64
0.61
0.545
0.335
0.16
0.125
0.165
0.24
0.385
0.605
0.59
0.575
0.51
0.35
0.195
0.16
0.19
0.255
0.43
0.625
0.64
0.565
0.51
0.305
0.13
0.105
0.15
0.215
0.43
0.57
0.635
0.595
0.495
0.295
0.15
0.125
0.185
0.27
0.475
0.605
0.64
0.62
0.495
0.33
0.17
0.095
0.19
0.32
0.51
0.675
0.715
0.66
0.56
0.305
0.18
0.175
0.255
0.365
0.51
0.665
0.7
0.63
0.5
0.34
0.265
0.25
0.285
0.345
0.545
0.725
0.7
0.74
0.565
0.36
0.24
0.28
0.305
0.42
0.605
0.72
0.705
0.63
0.54
0.35
0.275
0.285
0.315
0.49
0.68
0.77
0.75
0.7
0.48
0.29
0.185
0.28
0.32
0.495
0.635
0.735
0.765
0.715
0.53
0.325
0.275
0.33
0.345
0.46
0.71
0.75
0.745
0.71
0.59
0.335
0.295
0.265
0.325
0.55
0.67
0.745
0.73
0.73
0.51
0.315
0.27
0.285
0.345
0.58
0.74
0.78
0.765
0.735
0.52
0.335
0.25
0.31
0.31
0.49
0.71
0.775
0.72
0.685
0.485
0.315
0.295
0.34
0.365
0.58
0.75
0.78
0.745
0.75
0.56
0.345
0.295
0.335
0.41
0.6
0.725
0.79
0.8
0.8
0.56
0.41
0.34
0.42
0.535
0.72
0.835
0.835
0.825
0.75
0.5
0.37
0.315
0.355
0.435
0.69
0.815
0.84
0.79
0.735
0.545
0.385
0.32
0.35
0.39
0.595
0.775
0.805
0.745
0.63
0.47
0.3
0.305
0.355
0.475
0.655
0.77
0.785
0.755
0.66
0.41
0.255
0.275
0.33
0.495
0.685
0.72
0.77
0.765
0.6
0.41
0.305
0.27
0.335
0.45
0.63
0.725
0.8
0.795
0.64
0.455
0.295
0.31
0.325
0.475
0.645
0.715
0.67
0.6
0.445
0.29
0.315
0.405
0.59
0.83
1.14
1.39
1.53
1.59
1.555
1.375
1.26
1.315
1.375
1.48
1.395
1.18
0.985
0.835
0.655
0.495
0.395
0.41
0.43
0.53
0.745
0.83
0.76
0.79
0.615
0.41
0.355
0.35
0.39
0.6
0.785
0.845
0.84
0.77
0.595
0.415
0.305
0.35
0.385
0.62
0.725
0.825
0.79
0.74
0.575
0.365
0.305
0.305
0.37
0.585
0.8
0.84
0.83
0.815
0.59
0.4
0.33
0.36
0.41
0.645
0.8
0.845
0.845
0.785
0.535
0.405
0.4
0.37
0.465
0.62
0.79
0.89
0.87
0.75
0.59
0.41
0.36
0.38
0.45
0.61
0.785
0.925
0.895
0.775
0.54
0.45
0.405
0.425
0.49
0.7
0.845
0.94
0.885
0.775
0.565
0.435
0.415
0.44
0.55
0.75
0.88
0.95
0.93
0.82
0.635
0.47
0.47
0.49
0.59
0.815
0.995
1.005
0.92
0.81
0.585
0.485
0.515
0.6
0.685
0.83
0.985
0.995
0.95
0.87
0.705
0.525
0.525
0.57
0.77
0.93
1.06
1.095
1.01
0.875
0.65
0.555
0.56
0.63
0.82
1.005
1.135
1.09
1.105
0.92
0.735
0.585
0.565
0.63
0.785
0.965
1.065
1.035
0.96
0.82
0.61
0.5
0.515
0.535
0.695
0.88
0.96
0.93
0.875
0.74
0.515
0.415
0.425
0.45
0.605
0.805
0.875
0.88
0.855
0.61
0.43
0.32
0.335
0.405
0.63
0.78
0.84
0.82
0.81
0.645
0.465
0.345
0.385
0.415
0.64
0.8
0.845
0.84
0.775
0.575
0.43
0.35
0.39
0.45
0.605
0.805
0.86
0.83
0.795
0.58
0.425
0.345
0.345
0.42
0.65
0.8
0.89
0.825
0.765
0.59
0.405
0.315
0.385
0.43
0.59
0.775
0.845
0.81
0.745
0.56
0.41
0.35
0.365
0.41
0.625
0.825
0.865
0.845
0.775
0.585
0.395
0.295
0.405
0.48
0.655
0.825
0.835
0.8
0.75
0.53
0.415
0.34
0.405
0.47
0.685
0.83
0.83
0.785
0.66
0.535
0.395
0.355
0.39
0.46
0.675
0.86
0.85
0.76
0.71
0.48
0.36
0.36
0.405
0.505
0.72
0.88
0.88
0.815
0.66
0.445
0.315
0.38
0.38
0.525
0.685
0.81
0.785
0.785
0.68
0.465
0.325
0.275
0.375
0.575
0.775
0.905
0.885
0.825
0.695
0.45
0.335
0.35
0.395
0.51
0.725
0.795
0.785
0.75
0.65
0.445
0.31
0.35
0.43
0.6
0.73
0.855
0.84
0.82
0.665
0.435
0.345
0.355
0.395
0.53
0.76
0.865
0.845
0.8
0.615
0.475
0.4
0.385
0.375
0.625
0.835
0.91
0.87
0.835
0.6
0.465
0.42
0.405
0.44
0.645
0.805
0.86
0.88
0.885
0.7
0.48
0.38
0.415
0.42
0.62
0.81
0.915
0.87
0.75
0.6
0.435
0.34
0.39
0.405
0.58
0.79
0.84
0.74
0.75
0.5
0.385
0.345
0.38
0.46
0.605
0.81
0.85
0.835
0.725
0.525
0.34
0.32
0.33
0.43
0.7
0.775
0.83
0.76
0.7
0.5
0.36
0.335
0.39
0.46
0.615
0.775
0.835
0.8
0.695
0.475
0.315
0.295
0.34
0.405
0.59
0.765
0.755
0.73
0.69
0.605
0.57
0.635
0.805
1.045
1.415
1.62
1.76
1.735
1.64
1.46
1.385
1.195
0.93
0.775
0.86
0.975
0.905
0.875
0.71
0.51
0.365
0.385
0.42
0.5
0.685
0.83
0.855
0.835
0.72
0.49
0.415
0.35
0.41
0.58
0.71
0.845
0.865
0.79
0.655
0.435
0.3
0.34
0.335
0.54
0.815
0.89
0.87
0.855
0.645
0.475
0.34
0.36
0.38
0.545
0.745
0.865
0.84
0.83
0.69
0.51
0.37
0.385
0.405
0.575
0.79
0.83
0.81
0.815
0.685
0.5
0.385
0.39
0.445
0.63
0.795
0.895
0.875
0.85
0.62
0.385
0.4
0.53
0.53
0.65
0.815
0.91
0.85
0.885
0.74
0.525
0.405
0.46
0.495
0.71
0.875
0.92
0.935
0.92
0.7
0.545
0.45
0.485
0.5
0.78
0.91
0.965
0.925
0.9
0.73
0.535
0.48
0.49
0.54
0.8
0.995
1.025
1.02
0.955
0.715
0.535
0.525
0.6
0.625
0.9
1.05
1.085
1.045
0.975
0.785
0.645
0.585
0.63
0.72
0.945
1.05
1.065
1.085
1.01
0.825
0.73
0.67
0.685
0.78
0.95
1.105
1.185
1.115
1.0
0.765
0.65
0.635
0.63
0.7
0.94
1.06
1.045
0.99
0.89
0.68
0.505
0.485
0.52
0.615
0.805
0.94
1.04
0.96
0.835
0.65
0.45
0.41
0.44
0.595
0.77
0.94
0.925
0.9
0.71
0.56
0.455
0.435
0.435
0.61
0.755
0.845
0.885
0.885
0.73
0.51
0.435
0.41
0.365
0.575
0.825
0.92
0.915
0.85
0.7
0.505
0.425
0.405
0.455
0.615
0.795
0.915
0.98
0.895
0.71
0.505
0.38
0.425
0.46
0.625
0.81
0.9
0.915
0.925
0.72
0.535
0.435
0.45
0.47
0.625
0.785
0.905
0.885
0.8
0.685
0.44
0.415
0.45
0.46
0.65
0.84
0.955
0.875
0.84
0.655
0.5
0.435
0.475
0.49
0.69
0.855
0.93
0.86
0.825
0.64
0.45
0.375
0.41
0.425
0.64
0.81
0.955
0.865
0.795
0.63
0.5
0.415
0.405
0.465
0.7
0.865
0.96
0.87
0.84
0.655
0.41
0.37
0.425
0.495
0.695
0.86
0.885
0.86
0.775
0.545
0.385
0.37
0.45
0.545
0.68
0.845
0.9
0.84
0.775
0.585
0.41
0.38
0.415
0.465
0.725
0.875
0.905
0.86
0.755
0.54
0.425
0.39
0.395
0.515
0.755
0.86
0.87
0.825
0.78
0.55
0.405
0.395
0.42
0.47
0.72
0.885
0.86
0.785
0.71
0.575
0.405
0.38
0.425
0.515
0.71
0.875
0.895
0.85
0.76
0.55
0.39
0.385
0.425
0.555
0.78
0.905
0.905
0.85
0.72
0.545
0.435
0.435
0.535
0.67
0.785
0.89
0.865
0.825
0.75
0.525
0.41
0.385
0.45
0.62
0.845
0.935
0.895
0.785
0.68
0.505
0.375
0.355
0.435
0.565
0.74
0.865
0.825
0.775
0.62
0.45
0.33
0.37
0.405
0.545
0.73
0.84
0.865
0.74
0.58
0.395
0.3
0.33
0.415
0.615
0.76
0.815
0.795
0.755
0.565
0.375
0.35
0.345
0.415
0.62
0.76
0.85
0.83
0.775
0.58
0.39
0.265
0.325
0.4
0.555
0.665
0.7
0.695
0.69
0.545
0.365
0.455
0.59
0.73
1.055
1.41
1.56
1.65
1.665
1.52
1.355
1.3
1.37
1.36
1.18
1.045
0.98
0.9
0.855
0.605
0.41
0.33
0.365
0.45
0.635
0.835
0.895
0.85
0.76
0.535
0.325
0.31
0.4
0.41
0.61
0.78
0.77
0.705
0.73
0.54
0.41
0.37
0.39
0.485
0.655
0.775
0.79
0.745
0.72
0.505
0.34
0.305
0.34
0.485
0.66
0.8
0.8
0.775
0.695
0.485
0.325
0.34
0.38
0.49
0.67
0.825
0.84
0.77
0.64
0.48
0.335
0.31
0.365
0.5
0.65
0.805
0.835
0.84
0.72
0.47
0.33
0.355
0.37
0.48
0.725
0.83
0.88
0.825
0.635
0.425
0.345
0.38
0.445
0.575
0.71
0.83
0.895
0.86
0.69
0.53
0.4
0.405
0.45
0.585
0.765
0.83
0.9
0.865
0.695
0.47
0.425
0.455
0.49
0.655
0.85
0.93
0.94
0.885
0.695
0.54
0.44
0.46
0.515
0.75
0.85
1.015
0.955
0.905
0.75
0.58
0.455
0.53
0.62
0.87
1.015
1.0
1.015
0.98
0.84
0.62
0.53
0.545
0.575
0.785
1.055
1.135
1.02
0.985
0.81
0.615
0.535
0.555
0.55
0.81
0.975
0.98
0.91
0.9
0.69
0.515
0.405
0.41
0.475
0.72
0.84
0.885
0.875
0.785
0.605
0.42
0.355
0.335
0.375
0.66
0.86
0.85
0.845
0.785
0.465
0.325
0.305
0.35
0.4
0.66
0.805
0.82
0.76
0.68
0.505
0.365
0.31
0.31
0.42
0.655
0.81
0.81
0.71
0.61
0.43
0.33
0.35
0.4
0.465
0.64
0.815
0.805
0.75
0.72
0.475
0.3
0.305
0.315
0.43
0.66
0.785
0.785
0.785
0.71
0.47
0.35
0.335
0.37
0.475
0.63
0.78
0.845
0.83
0.655
0.465
0.335
0.3
0.39
0.53
0.66
0.8
0.835
0.71
0.625
0.435
0.3
0.4
0.41
0.54
0.725
0.8
0.795
0.78
0.625
0.445
0.325
0.365
0.4
0.53
0.7
0.855
0.845
0.75
0.615
0.425
0.31
0.325
0.415
0.545
0.745
0.79
0.815
0.765
0.6
0.41
0.355
0.325
0.41
0.585
0.725
0.815
0.78
0.79
0.58
0.38
0.24
0.32
0.425
0.62
0.77
0.835
0.79
0.77
0.625
0.4
0.33
0.355
0.41
0.55
0.715
0.78
0.845
0.83
0.595
0.35
0.31
0.345
0.435
0.56
0.74
0.845
0.825
0.77
0.555
0.4
0.345
0.345
0.395
0.605
0.785
0.825
0.755
0.745
0.555
0.365
0.33
0.355
0.425
0.635
0.8
0.845
0.825
0.76
0.52
0.365
0.295
0.39
0.465
0.645
0.805
0.855
0.77
0.69
0.48
0.39
0.32
0.365
0.47
0.67
0.795
0.895
0.815
0.69
0.48
0.36
0.35
0.445
0.47
0.69
0.845
0.875
0.855
0.805
0.55
0.395
0.35
0.415
0.56
0.77
0.91
0.89
0.82
0.715
0.565
0.4
0.36
0.425
0.525
0.71
0.82
0.865
0.83
0.705
0.49
0.35
0.32
0.405
0.49
0.665
0.785
0.795
0.79
0.675
0.44
0.315
0.355
0.37
0.505
0.645
0.78
0.79
0.765
0.625
0.43
0.31
0.33
0.385
0.545
0.705
0.79
0.835
0.78
0.625
0.38
0.3
0.345
0.405
0.535
0.7
0.8
0.8
0.725
0.655
0.41
0.3
0.325
0.34
0.46
0.685
0.745
0.695
0.695
0.56
0.41
0.365
0.5
0.665
0.935
1.24
1.495
1.615
1.675
1.565
1.375
1.28
1.355
1.42
1.435
1.28
1.09
0.96
0.905
0.68
0.46
0.4
0.355
0.445
0.64
0.79
0.895
0.855
0.79
0.64
0.42
0.345
0.38
0.4
0.58
0.78
0.79
0.805
0.75
0.555
0.345
0.355
0.385
0.39
0.625
0.8
0.825
0.805
0.73
0.515
0.35
0.325
0.375
0.44
0.68
0.825
0.87
0.84
0.77
0.58
0.41
0.325
0.385
0.445
0.655
0.83
0.915
0.895
0.78
0.495
0.385
0.35
0.415
0.48
0.73
0.85
0.89
0.86
0.76
0.54
0.405
0.395
0.435
0.515
0.67
0.86
0.885
0.855
0.76
0.555
0.455
0.395
0.475
0.57
0.775
0.955
0.96
0.915
0.79
0.585
0.435
0.42
0.445
0.61
0.81
0.94
0.95
0.92
0.81
0.61
0.52
0.5
0.485
0.63
0.84
0.98
1.035
0.94
0.845
0.67
0.53
0.53
0.585
0.735
0.975
1.085
1.085
1.03
0.89
0.695
0.525
0.53
0.665
0.765
0.96
1.1
1.12
1.105
0.965
0.75
0.63
0.63
0.72
0.87
1.06
1.15
1.135
1.1
0.925
0.71
0.645
0.6
0.65
0.805
0.985
1.06
1.045
0.965
0.795
0.585
0.5
0.51
0.565
0.7
0.915
0.965
0.95
0.9
0.675
0.465
0.395
0.46
0.465
0.645
0.795
0.88
0.89
0.835
0.585
0.4
0.29
0.385
0.505
0.655
0.82
0.875
0.87
0.83
0.61
0.405
0.38
0.38
0.405
0.62
0.785
0.835
0.835
0.775
0.56
0.405
0.345
0.405
0.41
0.605
0.8
0.83
0.835
0.76
0.49
0.29
0.29
0.335
0.41
0.625
0.79
0.85
0.85
0.775
0.55
0.38
0.33
0.375
0.41
0.655
0.82
0.82
0.78
0.695
0.485
0.345
0.33
0.405
0.475
0.695
0.825
0.785
0.755
0.685
0.48
0.31
0.275
0.36
0.455
0.665
0.75
0.81
0.735
0.68
0.5
0.345
0.36
0.415
0.505
0.68
0.815
0.82
0.76
0.655
0.435
0.31
0.285
0.325
0.47
0.69
0.775
0.81
0.77
0.645
0.46
0.29
0.355
0.365
0.505
0.675
0.785
0.825
0.7
0.615
0.415
0.315
0.335
0.355
0.515
0.66
0.78
0.835
0.78
0.61
0.36
0.31
0.32
0.355
0.51
0.705
0.79
0.775
0.725
0.585
0.41
0.325
0.355
0.355
0.5
0.68
0.77
0.795
0.745
0.6
0.385
0.265
0.285
0.33
0.54
0.695
0.74
0.77
0.74
0.565
0.36
0.275
0.295
0.38
0.52
0.705
0.795
0.75
0.715
0.56
0.36
0.275
0.34
0.35
0.555
0.715
0.735
0.74
0.73
0.505
0.29
0.26
0.31
0.375
0.58
0.73
0.76
0.72
0.705
0.485
0.34
0.285
0.32
0.365
0.595
0.765
0.8
0.775
0.75
0.515
0.365
0.345
0.335
0.41
0.665
0.785
0.84
0.78
0.705
0.55
0.38
0.36
0.355
0.435
0.63
0.765
0.855
0.8
0.715
0.505
0.37
0.36
0.37
0.445
0.665
0.76
0.775
0.755
0.65
0.465
0.31
0.275
0.335
0.405
0.585
0.76
0.86
0.75
0.59
0.38
0.26
0.245
0.305
0.45
0.625
0.775
0.785
0.68
0.605
0.4
0.31
0.26
0.34
0.45
0.62
0.76
0.745
0.73
0.565
0.36
0.29
0.27
0.285
0.455
0.65
0.735
0.76
0.71
0.56
0.365
0.245
0.22
0.24
0.375
0.53
0.63
0.665
0.65
0.59
0.515
0.505
0.61
0.81
1.125
1.405
1.63
1.685
1.59
1.47
1.33
1.265
1.22
0.96
0.84
0.865
0.9
0.835
0.75
0.59
0.32
0.275
0.325
0.42
0.545
0.715
0.795
0.8
0.69
0.515
0.38
0.29
0.245
0.295
0.47
0.655
0.77
0.77
0.7
0.51
0.335
0.255
0.27
0.29
0.5
0.66
0.72
0.745
0.67
0.47
0.36
0.22
0.26
0.31
0.505
0.69
0.735
0.73
0.695
0.52
0.285
0.28
0.275
0.335
0.545
0.67
0.77
0.755
0.695
0.51
0.285
0.25
0.345
0.375
0.56
0.69
0.765
0.75
0.63
0.46
0.33
0.315
0.325
0.41
0.56
0.73
0.825
0.73
0.66
0.46
0.3
0.24
0.29
0.43
0.655
0.805
0.825
0.795
0.69
0.51
0.38
0.345
0.385
0.41
0.63
0.8
0.89
0.795
0.75
0.505
0.325
0.33
0.4
0.58
0.715
0.89
0.875
0.83
0.755
0.555
0.375
0.355
0.445
0.565
0.79
0.93
0.97
0.9
0.755
0.58
0.465
0.435
0.51
0.63
0.875
0.99
0.99
0.945
0.825
0.61
0.48
0.465
0.545
0.68
0.86
0.985
0.94
0.96
0.835
0.635
0.455
0.455
0.505
0.61
0.82
0.925
0.9
0.895
0.685
0.505
0.385
0.375
0.39
0.555
0.78
0.825
0.785
0.74
0.58
0.385
0.27
0.29
0.39
0.54
0.715
0.805
0.74
0.68
0.5
0.335
0.275
0.255
0.335
0.5
0.675
0.725
0.72
0.685
0.46
0.315
0.29
0.31
0.365
0.5
0.685
0.735
0.755
0.71
0.49
0.31
0.22
0.27
0.31
0.465
0.66
0.695
0.74
0.63
0.49
0.285
0.245
0.31
0.38
0.515
0.68
0.74
0.685
0.705
0.46
0.285
0.23
0.275
0.375
0.52
0.685
0.77
0.75
0.635
0.445
0.275
0.21
0.26
0.365
0.57
0.735
0.74
0.725
0.65
0.435
0.285
0.215
0.245
0.36
0.58
0.725
0.77
0.685
0.65
0.45
0.295
0.3
0.29
0.375
0.57
0.735
0.75
0.675
0.595
0.41
0.245
0.285
0.315
0.375
0.56
0.76
0.75
0.695
0.585
0.455
0.265
0.25
0.275
0.415
0.635
0.72
0.74
0.71
0.595
0.405
0.195
0.255
0.335
0.425
0.575
0.705
0.76
0.74
0.625
0.435
0.305
0.27
0.28
0.385
0.625
0.765
0.77
0.675
0.535
0.365
0.245
0.24
0.305
0.47
0.595
0.745
0.735
0.76
0.58
0.41
0.28
0.22
0.31
0.49
0.65
0.75
0.745
0.68
0.535
0.365
0.28
0.26
0.3
0.43
0.695
0.805
0.74
0.685
0.53
0.375
0.325
0.275
0.315
0.515
0.68
0.79
0.785
0.725
0.52
0.31
0.225
0.265
0.305
0.53
0.66
0.785
0.755
0.74
0.515
0.34
0.28
0.305
0.36
0.575
0.75
0.77
0.755
0.77
0.56
0.365
0.315
0.37
0.36
0.585
0.795
0.835
0.835
0.775
0.54
0.365
0.285
0.34
0.385
0.585
0.81
0.77
0.74
0.68
0.435
0.31
0.28
0.32
0.355
0.545
0.755
0.8
0.695
0.605
0.485
0.305
0.205
0.225
0.3
0.555
0.69
0.775
0.67
0.635
0.385
0.23
0.225
0.295
0.425
0.61
0.75
0.74
0.705
0.63
0.43
0.24
0.235
0.285
0.38
0.56
0.69
0.76
0.715
0.63
0.4
0.275
0.245
0.28
0.33
0.56
0.68
0.685
0.63
0.525
0.35
0.255
0.295
0.44
0.69
1.005
1.245
1.365
1.445
1.415
1.275
1.175
1.2
1.28
1.35
1.285
1.01
0.935
0.795
0.625
0.465
0.29
0.295
0.325
0.435
0.675
0.795
0.79
0.72
0.57
0.355
0.31
0.295
0.335
0.435
0.61
0.74
0.645
0.66
0.585
0.435
0.29
0.29
0.34
0.475
0.64
0.76
0.78
0.675
0.59
0.375
0.305
0.265
0.28
0.505
0.68
0.755
0.74
0.73
0.585
0.36
0.265
0.3
0.3
0.49
0.68
0.755
0.695
0.665
0.55
0.345
0.28
0.345
0.315
0.49
0.68
0.795
0.815
0.72
0.505
0.34
0.29
0.31
0.34
0.535
0.73
0.785
0.76
0.72
0.5
0.375
0.305
0.335
0.37
0.54
0.745
0.805
0.74
0.775
0.525
0.38
0.3
0.33
0.415
0.645
0.765
0.85
0.82
0.715
0.57
0.41
0.32
0.365
0.445
0.62
0.825
0.84
0.815
0.78
0.53
0.375
0.325
0.385
0.45
0.645
0.815
0.905
0.88
0.815
0.62
0.465
0.37
0.44
0.6
0.825
0.925
0.935
0.89
0.795
0.58
0.415
0.435
0.51
0.57
0.83
0.975
0.955
0.885
0.8
0.65
0.495
0.45
0.485
0.585
0.77
0.875
0.88
0.83
0.695
0.495
0.34
0.335
0.385
0.555
0.715
0.78
0.815
0.74
0.62
0.39
0.285
0.275
0.315
0.415
0.635
0.71
0.695
0.655
0.545
0.33
0.22
0.225
0.295
0.425
0.645
0.73
0.7
0.645
0.52
0.285
0.19
0.2
0.22
0.415
0.605
0.75
0.79
0.675
0.505
0.26
0.165
0.145
0.23
0.405
0.605
0.65
0.7
0.61
0.48
0.3
0.25
0.205
0.3
0.41
0.585
0.705
0.705
0.67
0.495
0.27
0.21
0.24
0.31
0.495
0.61
0.77
0.68
0.665
0.485
0.28
0.22
0.32
0.28
0.45
0.635
0.68
0.71
0.685
0.485
0.28
0.18
0.255
0.32
0.51
0.63
0.71
0.67
0.58
0.47
0.295
0.26
0.27
0.29
0.51
0.655
0.735
0.655
0.605
0.42
0.325
0.28
0.255
0.31
0.53
0.655
0.755
0.7
0.635
0.41
0.235
0.195
0.235
0.295
0.485
0.7
0.7
0.68
0.59
0.41
0.255
0.225
0.245
0.355
0.54
0.67
0.74
0.66
0.55
0.41
0.255
0.195
0.25
0.365
0.52
0.655
0.715
0.675
0.515
0.315
0.225
0.215
0.265
0.41
0.55
0.685
0.675
0.65
0.55
0.34
0.265
0.24
0.245
0.42
0.575
0.655
0.72
0.665
0.545
0.355
0.185
0.195
0.27
0.42
0.605
0.75
0.75
0.635
0.525
0.34
0.235
0.25
0.3
0.425
0.635
0.705
0.74
0.68
0.59
0.395
0.27
0.26
0.335
0.49
0.64
0.765
0.775
0.7
0.58
0.335
0.25
0.195
0.305
0.56
0.77
0.825
0.78
0.735
0.56
0.365
0.295
0.275
0.28
0.45
0.625
0.68
0.7
0.695
0.485
0.395
0.235
0.24
0.285
0.47
0.64
0.71
0.69
0.65
0.435
0.29
0.205
0.225
0.295
0.465
0.665
0.745
0.7
0.62
0.48
0.285
0.205
0.25
0.28
0.53
0.68
0.77
0.71
0.63
0.405
0.255
0.225
0.285
0.325
0.535
0.68
0.72
0.665
0.58
0.355
0.16
0.075
0.14
0.3
0.55
0.77
1.01
1.05
1.075
1.01
0.975
0.995
1.115
1.155
1.34
1.545
1.63
1.435
1.02
0.605
0.375
0.215
0.34
0.395
0.585
0.72
0.745
0.68
0.675
0.435
0.265
0.25
0.325
0.42
0.575
0.725
0.75
0.65
0.495
0.345
0.225
0.23
0.3
0.385
0.6
0.71
0.73
0.665
0.58
0.395
0.265
0.22
0.29
0.365
0.54
0.715
0.765
0.72
0.58
0.36
0.23
0.225
0.295
0.395
0.57
0.745
0.75
0.715
0.57
0.36
0.23
0.235
0.265
0.4
0.59
0.685
0.69
0.67
0.565
0.425
0.26
0.225
0.215
0.41
0.615
0.72
0.715
0.655
0.55
0.335
0.26
0.265
0.375
0.495
0.605
0.735
0.725
0.67
0.535
0.4
0.275
0.265
0.32
0.465
0.685
0.79
0.78
0.73
0.565
0.345
0.28
0.305
0.32
0.52
0.695
0.8
0.785
0.765
0.55
0.345
0.315
0.32
0.38
0.55
0.73
0.825
0.805
0.76
0.625
0.445
0.385
0.41
0.465
0.635
