# TIPE ECG 2021 - ECG-ID Database v1.0.0 par Physionet
# [Numéro de la personne, Période d'échantillonnage, Prénom, Age, Sexe, Date de l'enregistrement]
[44, 0.002, Kay, 32, F, 12.05.2005]
-0.115
-0.135
-0.14
-0.095
-0.105
-0.14
-0.115
-0.065
-0.01
-0.04
-0.08
-0.115
-0.1
-0.095
-0.07
-0.05
-0.045
-0.035
-0.04
-0.055
-0.07
-0.105
-0.135
-0.1
-0.075
-0.06
-0.075
-0.085
-0.055
-0.055
-0.075
-0.11
-0.125
-0.11
-0.1
-0.1
-0.07
-0.045
-0.015
-0.04
-0.09
-0.08
-0.045
-0.04
-0.05
-0.055
-0.05
-0.02
-0.03
-0.055
-0.015
-0.03
-0.09
-0.07
-0.065
-0.025
-0.025
-0.02
0.01
0.055
0.035
0.02
0.02
-0.01
-0.005
0.05
0.07
0.1
0.09
0.085
0.05
0.045
0.015
0.005
0.01
-0.01
-0.01
-0.01
-0.025
-0.05
-0.07
-0.09
-0.12
-0.11
-0.115
-0.135
-0.125
-0.105
-0.1
-0.11
-0.135
-0.135
-0.135
-0.12
-0.1
-0.075
-0.085
-0.12
-0.07
-0.06
-0.075
-0.12
-0.165
-0.16
-0.155
-0.115
-0.105
-0.135
-0.09
-0.09
-0.1
-0.135
-0.14
-0.13
-0.13
-0.12
-0.115
-0.135
-0.13
-0.085
-0.105
-0.115
-0.135
-0.14
-0.15
-0.145
-0.175
-0.175
-0.16
-0.165
-0.18
-0.13
0.005
0.265
0.45
0.675
0.875
1.095
1.21
1.19
1.13
1.085
0.98
0.74
0.515
0.33
0.08
-0.15
-0.27
-0.33
-0.345
-0.315
-0.26
-0.27
-0.23
-0.17
-0.12
-0.13
-0.12
-0.095
-0.105
-0.135
-0.125
-0.08
-0.095
-0.09
-0.045
-0.045
-0.05
-0.085
-0.1
-0.1
-0.065
-0.08
-0.095
-0.08
-0.055
-0.035
-0.045
-0.07
-0.095
-0.09
-0.09
-0.08
-0.04
-0.055
-0.055
-0.045
-0.045
-0.065
-0.085
-0.1
-0.06
-0.03
-0.04
-0.01
-0.035
-0.03
-0.055
-0.075
-0.05
-0.055
-0.05
-0.03
-0.05
-0.03
0.0
0.005
-0.04
-0.055
-0.055
-0.025
-0.03
-0.015
-0.015
-0.01
-0.015
0.02
0.025
-0.005
-0.005
-0.015
0.005
0.015
0.03
0.025
0.05
0.08
0.075
0.09
0.085
0.075
0.105
0.1
0.095
0.095
0.155
0.14
0.115
0.105
0.14
0.125
0.135
0.19
0.17
0.19
0.205
0.225
0.24
0.215
0.185
0.185
0.205
0.2
0.235
0.21
0.2
0.22
0.22
0.195
0.16
0.175
0.18
0.145
0.14
0.135
0.135
0.155
0.11
0.08
0.035
0.02
0.01
0.03
0.04
0.03
0.03
0.015
0.015
0.0
-0.04
-0.045
-0.07
-0.065
-0.065
-0.07
-0.04
-0.02
-0.065
-0.08
-0.1
-0.1
-0.075
-0.085
-0.07
-0.045
-0.05
-0.06
-0.08
-0.09
-0.105
-0.09
-0.105
-0.095
-0.09
-0.09
-0.085
-0.09
-0.11
-0.1
-0.11
-0.1
-0.105
-0.105
-0.095
-0.09
-0.09
-0.08
-0.105
-0.11
-0.115
-0.085
-0.095
-0.095
-0.095
-0.095
-0.095
-0.095
-0.105
-0.12
-0.13
-0.115
-0.11
-0.085
-0.075
-0.07
-0.075
-0.095
-0.135
-0.15
-0.14
-0.12
-0.11
-0.11
-0.085
-0.11
-0.095
-0.11
-0.08
-0.085
-0.11
-0.1
-0.09
-0.105
-0.12
-0.09
-0.1
-0.095
-0.09
-0.085
-0.095
-0.1
-0.08
-0.055
-0.03
-0.06
-0.04
-0.065
-0.085
-0.145
-0.125
-0.1
-0.13
-0.09
-0.085
-0.07
-0.04
-0.035
-0.065
-0.13
-0.06
-0.03
-0.09
-0.055
-0.085
-0.07
-0.02
0.0
-0.035
-0.02
0.01
0.05
0.05
0.06
0.085
0.075
0.055
0.065
0.03
0.005
0.02
0.0
0.0
0.01
-0.01
-0.02
-0.015
0.005
-0.01
-0.035
-0.02
-0.04
-0.085
-0.055
-0.075
-0.075
-0.075
-0.1
-0.12
-0.105
-0.11
-0.085
-0.085
-0.075
-0.09
-0.08
-0.085
-0.105
-0.13
-0.115
-0.095
-0.06
-0.065
-0.1
-0.095
-0.085
-0.055
-0.08
-0.09
-0.12
-0.135
-0.085
-0.09
-0.105
-0.105
-0.09
-0.08
-0.08
-0.09
-0.115
-0.125
-0.115
-0.11
-0.115
-0.125
-0.115
-0.14
-0.125
-0.16
-0.21
-0.19
-0.095
0.09
0.31
0.535
0.735
0.88
1.04
1.09
1.04
1.04
1.01
0.86
0.6
0.425
0.24
0.02
-0.165
-0.26
-0.335
-0.305
-0.285
-0.255
-0.235
-0.2
-0.145
-0.115
-0.12
-0.115
-0.12
-0.105
-0.105
-0.1
-0.125
-0.11
-0.095
-0.1
-0.095
-0.135
-0.14
-0.105
-0.095
-0.08
-0.075
-0.075
-0.055
-0.035
-0.065
-0.1
-0.1
-0.1
-0.11
-0.09
-0.12
-0.125
-0.11
-0.11
-0.1
-0.1
-0.085
-0.05
-0.055
-0.05
-0.065
-0.035
-0.045
-0.08
-0.115
-0.13
-0.125
-0.125
-0.065
-0.005
-0.015
-0.025
-0.035
-0.07
-0.095
-0.105
-0.07
-0.075
-0.07
-0.035
-0.01
-0.015
-0.025
-0.025
-0.025
-0.045
-0.035
-0.005
-0.02
-0.005
-0.005
0.005
0.02
0.015
0.005
0.0
0.01
0.02
0.01
0.025
0.045
0.1
0.09
0.105
0.075
0.07
0.075
0.105
0.155
0.14
0.15
0.165
0.17
0.16
0.15
0.135
0.15
0.16
0.155
0.165
0.17
0.17
0.195
0.21
0.17
0.135
0.16
0.14
0.125
0.065
0.08
0.135
0.115
0.08
0.075
0.055
0.035
0.03
0.02
-0.005
0.0
0.035
-0.025
0.0
0.035
-0.04
-0.025
-0.055
-0.005
-0.02
-0.03
0.0
0.01
-0.03
-0.055
-0.05
-0.02
-0.05
-0.05
-0.04
-0.02
-0.035
-0.055
-0.045
-0.05
-0.115
-0.085
-0.05
-0.035
-0.05
-0.05
-0.055
-0.06
-0.075
-0.055
-0.11
-0.055
-0.065
-0.04
-0.055
-0.045
-0.035
-0.02
-0.025
-0.05
-0.04
-0.055
-0.06
-0.05
-0.03
-0.05
-0.03
-0.025
-0.04
-0.065
-0.065
-0.08
-0.055
-0.055
-0.065
-0.05
-0.045
-0.04
-0.055
-0.085
-0.045
-0.045
-0.055
-0.08
-0.06
-0.045
-0.005
-0.03
-0.06
-0.075
-0.065
-0.035
-0.035
-0.01
-0.005
0.0
0.01
0.0
-0.04
-0.075
-0.06
-0.065
-0.045
-0.025
-0.01
0.0
0.0
-0.015
-0.005
-0.035
-0.035
-0.06
-0.075
-0.085
-0.02
0.025
-0.02
-0.02
-0.015
-0.03
-0.015
0.005
-0.01
-0.025
0.03
0.035
0.04
0.02
0.07
0.03
0.05
0.045
0.095
0.125
0.13
0.14
0.11
0.085
0.08
0.015
0.125
0.09
0.075
0.08
0.05
0.035
0.0
0.0
-0.015
-0.005
-0.045
-0.035
-0.045
-0.05
-0.05
-0.02
-0.06
-0.075
-0.065
-0.075
-0.03
-0.025
-0.02
-0.03
-0.005
0.0
-0.03
-0.03
-0.05
-0.095
-0.03
-0.055
-0.055
-0.005
-0.02
-0.025
0.0
-0.02
-0.035
-0.05
-0.025
-0.015
-0.04
-0.04
-0.045
-0.005
-0.02
-0.06
-0.085
-0.065
-0.05
-0.065
-0.05
-0.07
-0.075
-0.075
-0.07
-0.105
-0.09
-0.095
-0.055
0.01
0.105
0.245
0.42
0.615
0.76
0.855
0.83
0.785
0.765
0.73
0.62
0.45
0.34
0.22
-0.005
-0.15
-0.275
-0.26
-0.185
-0.22
-0.205
-0.185
-0.045
-0.05
-0.095
-0.085
-0.07
-0.055
-0.035
-0.02
-0.045
-0.005
-0.03
-0.01
-0.02
-0.07
-0.02
0.025
0.05
-0.025
-0.025
-0.005
0.055
0.05
-0.01
-0.045
-0.09
-0.03
-0.03
-0.05
-0.025
0.02
-0.015
0.01
0.015
0.005
-0.025
0.005
-0.02
-0.025
0.0
0.03
0.04
0.04
0.045
0.015
0.005
0.015
0.01
0.025
0.03
0.02
0.06
0.06
0.045
0.02
0.0
0.03
0.065
0.06
0.06
0.055
0.04
0.05
0.03
0.03
0.035
0.055
0.06
0.055
0.1
0.1
0.13
0.09
0.075
0.055
0.045
0.1
0.125
0.145
0.14
0.145
0.165
0.17
0.16
0.145
0.125
0.165
0.16
0.16
0.18
0.2
0.235
0.22
0.19
0.15
0.175
0.19
0.2
0.22
0.225
0.235
0.245
0.225
0.17
0.175
0.17
0.195
0.175
0.185
0.175
0.21
0.175
0.17
0.13
0.08
0.09
0.11
0.115
0.115
0.11
0.085
0.12
0.12
0.075
0.0
0.015
0.045
0.01
0.04
0.055
0.03
0.035
0.025
0.015
0.0
0.0
0.015
0.01
0.015
0.02
0.05
0.025
0.02
0.01
0.02
0.005
0.015
0.0
0.025
0.045
0.015
0.015
-0.005
-0.025
-0.005
0.0
0.025
0.005
-0.005
0.015
0.04
0.06
0.03
-0.01
0.005
0.03
0.05
0.03
0.025
0.02
0.04
0.03
0.015
0.01
0.015
-0.02
-0.055
-0.045
-0.025
-0.015
0.005
0.03
0.02
0.005
-0.025
-0.025
-0.005
-0.015
-0.005
-0.005
0.045
0.035
-0.005
-0.005
-0.02
0.01
0.005
0.005
0.0
-0.005
0.01
0.01
0.01
-0.005
-0.03
-0.015
-0.025
-0.01
-0.01
0.005
0.035
0.005
-0.025
-0.035
-0.055
-0.005
0.055
0.02
-0.005
-0.01
0.02
0.025
0.02
-0.005
-0.015
0.015
0.01
0.005
0.02
0.01
0.045
0.03
-0.01
-0.03
0.0
-0.005
0.0
0.02
0.005
-0.02
0.03
0.005
-0.025
-0.045
-0.04
0.005
-0.01
0.01
-0.005
-0.035
0.005
0.005
0.0
-0.025
0.025
0.02
0.025
0.05
0.025
0.03
0.045
0.005
0.01
0.0
0.025
0.05
0.07
0.1
0.105
0.125
0.16
0.11
0.075
0.105
0.1
0.07
0.05
0.055
0.08
0.105
0.09
0.07
0.005
-0.005
0.02
0.035
0.02
0.01
0.015
0.005
0.015
-0.01
-0.035
-0.02
0.005
0.0
0.035
-0.005
-0.02
-0.005
0.0
-0.03
-0.045
-0.055
-0.025
-0.02
-0.02
-0.03
-0.01
-0.01
-0.03
-0.015
-0.035
-0.06
-0.02
0.005
-0.005
-0.005
-0.04
-0.005
-0.025
-0.035
-0.045
-0.06
-0.03
-0.01
0.015
-0.015
-0.05
-0.015
-0.07
-0.065
-0.035
-0.025
-0.015
-0.01
0.06
0.135
0.28
0.445
0.58
0.725
0.81
0.87
0.88
0.795
0.775
0.675
0.56
0.41
0.255
0.075
-0.12
-0.21
-0.205
-0.19
-0.17
-0.12
-0.09
-0.05
-0.095
-0.085
-0.05
-0.06
-0.005
0.01
0.0
-0.01
-0.035
-0.035
-0.015
-0.02
-0.055
-0.05
-0.005
-0.03
-0.02
-0.005
0.025
0.075
0.06
0.005
-0.035
0.005
0.005
-0.005
0.02
0.035
0.025
0.055
0.04
0.01
0.005
0.005
0.01
0.02
0.02
0.025
0.025
0.035
0.05
0.035
0.025
0.01
0.035
0.025
0.02
0.02
0.065
0.065
0.03
0.015
0.005
0.035
0.02
0.035
0.065
0.065
0.065
0.07
0.05
0.035
0.035
0.025
0.06
0.075
0.07
0.095
0.1
0.105
0.075
0.055
0.055
0.08
0.1
0.125
0.15
0.165
0.175
0.175
0.14
0.125
0.095
0.125
0.17
0.17
0.19
0.195
0.2
0.22
0.225
0.205
0.185
0.18
0.2
0.235
0.23
0.26
0.255
0.245
0.235
0.23
0.21
0.205
0.22
0.2
0.19
0.185
0.2
0.18
0.165
0.165
0.125
0.135
0.115
0.11
0.12
0.12
0.125
0.135
0.13
0.11
0.045
0.06
0.065
0.04
0.025
0.02
0.07
0.04
0.035
0.03
0.005
0.04
0.05
0.04
0.03
0.015
0.045
0.04
0.03
0.0
-0.005
0.01
0.0
0.025
0.02
0.01
0.02
0.02
0.03
0.02
0.0
0.005
0.0
-0.015
0.03
0.04
0.03
0.015
0.01
-0.005
-0.015
0.0
0.01
0.015
0.01
0.03
0.075
0.07
0.025
0.01
0.01
0.015
0.0
0.035
0.04
0.035
0.05
0.03
0.01
-0.005
-0.005
0.025
0.02
0.015
0.02
0.02
0.02
0.02
-0.005
-0.005
0.015
0.015
0.02
0.01
0.025
0.025
0.045
0.035
-0.005
-0.035
0.005
0.01
0.015
0.005
0.025
0.075
0.09
0.055
0.04
0.01
0.015
0.02
0.05
0.035
0.045
0.055
0.035
0.07
0.07
0.025
0.04
0.05
0.045
0.045
0.05
0.06
0.085
0.07
0.055
0.06
0.045
0.035
0.025
0.015
0.035
0.025
0.045
0.025
0.025
0.005
0.03
0.055
0.04
0.055
0.045
0.055
0.04
0.03
0.025
0.02
0.04
0.045
0.035
0.06
0.07
0.08
0.05
0.07
0.05
0.025
0.04
0.06
0.055
0.05
0.05
0.06
0.045
0.04
0.025
0.035
0.045
0.055
0.05
0.04
0.055
0.07
0.07
0.07
-0.005
-0.005
0.035
0.03
0.06
0.05
0.035
0.05
0.0
-0.005
-0.04
-0.02
0.04
0.05
0.06
0.075
0.08
0.11
0.095
0.075
0.08
0.055
0.055
0.035
0.05
0.1
0.14
0.16
0.135
0.095
0.075
0.12
0.145
0.14
0.16
0.155
0.15
0.155
0.13
0.11
0.11
0.12
0.115
0.13
0.115
0.065
0.065
0.09
0.025
-0.005
-0.005
0.005
0.05
0.03
0.06
0.08
0.07
0.055
0.01
0.025
0.025
0.035
-0.01
0.0
0.025
0.045
0.05
0.05
0.025
0.015
-0.025
0.005
0.025
0.03
0.03
0.045
0.06
0.055
0.035
0.015
-0.005
0.02
0.015
0.035
0.01
0.01
0.03
0.045
0.005
-0.04
-0.06
-0.035
-0.03
-0.02
-0.03
0.005
0.035
0.125
0.24
0.385
0.535
0.68
0.815
0.97
0.955
0.885
0.865
0.835
0.695
0.515
0.365
0.18
0.0
-0.125
-0.15
-0.155
-0.145
-0.12
-0.13
-0.12
-0.095
-0.06
-0.035
0.0
0.0
-0.005
0.02
0.005
0.01
-0.02
-0.015
0.015
0.02
0.015
0.025
0.035
0.03
0.025
0.075
0.01
0.0
0.035
0.025
0.02
0.03
0.05
0.065
0.05
0.025
-0.005
0.03
0.03
0.035
0.05
0.055
0.05
0.075
0.04
0.025
0.005
0.02
0.035
0.04
0.05
0.055
0.05
0.075
0.05
0.02
0.01
0.035
0.04
0.055
0.065
0.055
0.06
0.065
0.075
0.07
0.005
0.025
0.045
0.065
0.075
0.065
0.075
0.09
0.095
0.095
0.06
0.08
0.08
0.095
0.12
0.12
0.15
0.165
0.135
0.135
0.115
0.135
0.135
0.155
0.155
0.14
0.185
0.205
0.185
0.17
0.16
0.2
0.225
0.195
0.205
0.23
0.235
0.25
0.225
0.215
0.195
0.195
0.225
0.23
0.22
0.205
0.245
0.245
0.21
0.21
0.175
0.18
0.17
0.155
0.155
0.145
0.13
0.15
0.125
0.105
0.06
0.08
0.05
0.065
0.06
0.035
0.065
0.07
0.05
0.025
0.03
0.05
0.045
0.035
0.035
0.04
0.065
0.05
0.02
-0.045
-0.035
0.015
0.01
0.01
0.015
0.015
0.035
0.025
-0.025
-0.04
-0.01
-0.04
-0.035
0.02
0.015
0.025
0.045
0.035
0.005
-0.01
-0.02
0.0
-0.015
-0.005
-0.01
0.0
0.025
0.045
0.005
-0.025
-0.01
0.005
-0.015
-0.035
-0.015
0.015
0.03
0.015
-0.02
-0.03
-0.02
-0.035
-0.04
0.0
0.005
0.01
0.035
0.01
-0.01
-0.045
-0.045
-0.025
-0.02
0.005
0.005
0.015
0.01
0.025
0.005
-0.025
-0.015
-0.005
-0.02
-0.005
-0.015
0.0
0.015
-0.005
-0.005
-0.05
-0.015
0.02
0.035
0.015
0.015
0.025
0.02
0.0
0.0
-0.015
-0.01
-0.02
-0.015
-0.02
0.01
0.045
0.015
0.02
0.0
-0.01
0.005
0.0
0.005
0.005
0.0
0.0
0.01
-0.005
-0.04
-0.04
-0.015
-0.015
-0.01
0.005
0.0
0.01
0.0
-0.025
-0.035
-0.055
-0.02
0.005
-0.025
0.0
0.015
0.03
0.0
-0.005
0.0
-0.06
-0.045
-0.025
-0.01
0.005
-0.01
-0.005
0.03
0.015
-0.025
-0.025
-0.02
-0.01
-0.01
0.005
0.005
0.01
-0.015
-0.02
-0.025
-0.04
-0.03
-0.015
-0.02
-0.03
-0.01
0.05
0.025
0.01
-0.015
-0.03
-0.02
-0.04
-0.025
-0.02
-0.025
0.02
0.025
-0.015
-0.025
-0.04
-0.01
0.005
0.005
-0.015
-0.02
-0.005
0.01
-0.035
-0.06
-0.04
-0.02
-0.04
-0.02
-0.005
0.025
0.025
0.02
-0.015
-0.03
-0.015
-0.01
-0.035
-0.045
0.005
0.025
0.04
0.035
0.01
0.01
0.045
0.07
0.095
0.11
0.1
0.08
0.07
0.085
0.08
0.035
0.04
0.07
0.055
0.055
0.055
0.07
0.05
0.025
0.005
-0.035
0.01
0.01
0.01
0.0
-0.01
0.0
-0.015
-0.03
-0.025
-0.03
-0.03
-0.005
-0.03
-0.04
-0.025
0.01
-0.015
-0.05
-0.065
-0.095
-0.05
-0.02
-0.02
-0.04
-0.03
-0.02
-0.015
-0.005
-0.02
-0.05
-0.075
-0.03
-0.025
-0.035
-0.06
-0.03
-0.015
-0.015
-0.045
-0.06
-0.035
-0.045
-0.07
-0.075
-0.095
-0.05
-0.05
-0.065
-0.06
-0.04
0.075
0.205
0.37
0.495
0.615
0.755
0.84
0.77
0.73
0.7
0.655
0.505
0.31
0.18
0.025
-0.115
-0.23
-0.26
-0.275
-0.23
-0.18
-0.165
-0.105
-0.09
-0.1
-0.05
-0.03
-0.05
-0.07
-0.075
-0.06
-0.05
-0.035
-0.05
-0.03
-0.015
-0.025
-0.035
-0.075
-0.055
-0.03
-0.02
-0.06
-0.035
-0.035
-0.02
0.0
-0.01
-0.035
-0.025
-0.025
-0.05
-0.015
-0.015
0.0
0.0
-0.005
-0.005
-0.045
-0.035
-0.025
-0.02
-0.015
-0.015
0.0
0.02
-0.005
-0.025
-0.03
-0.02
-0.01
0.01
0.015
0.01
0.03
0.03
-0.01
-0.03
-0.035
-0.01
0.005
0.015
0.01
0.04
0.07
0.045
0.025
0.01
-0.005
0.02
0.045
0.025
0.025
0.04
0.075
0.115
0.09
0.05
0.05
0.075
0.08
0.095
0.07
0.07
0.135
0.13
0.135
0.13
0.105
0.135
0.135
0.15
0.155
0.16
0.185
0.165
0.135
0.125
0.12
0.15
0.155
0.155
0.165
0.175
0.19
0.195
0.17
0.165
0.135
0.14
0.165
0.155
0.15
0.145
0.14
0.11
0.09
0.07
0.045
0.045
0.045
0.04
0.05
0.055
0.065
0.045
-0.01
0.015
-0.015
-0.01
-0.02
-0.005
-0.005
-0.03
0.0
-0.015
-0.03
-0.045
-0.045
-0.03
-0.01
-0.005
-0.01
-0.005
0.015
-0.035
-0.055
-0.06
-0.07
-0.035
-0.025
-0.02
-0.035
-0.04
-0.015
-0.035
-0.055
-0.065
-0.06
-0.055
-0.05
-0.025
-0.02
-0.025
-0.035
-0.05
-0.07
-0.08
-0.07
-0.055
-0.06
-0.045
-0.05
-0.045
-0.045
-0.025
-0.08
-0.12
-0.09
-0.05
-0.045
-0.045
-0.035
-0.005
0.02
-0.02
-0.035
-0.045
-0.03
-0.045
-0.04
-0.02
-0.045
-0.025
-0.025
-0.045
-0.07
-0.075
-0.045
-0.05
-0.045
-0.025
-0.035
-0.015
-0.03
-0.03
-0.035
-0.045
-0.04
-0.05
-0.045
-0.045
-0.01
-0.01
-0.015
-0.025
0.0
-0.08
-0.07
-0.09
-0.05
-0.055
-0.07
-0.02
0.01
-0.045
-0.09
-0.075
-0.03
-0.02
-0.015
-0.005
-0.01
0.01
0.005
-0.05
-0.065
-0.065
-0.045
-0.085
-0.045
-0.035
-0.06
-0.035
-0.005
-0.05
-0.07
-0.07
-0.05
-0.04
-0.055
-0.04
-0.03
-0.015
-0.02
-0.055
-0.07
-0.06
-0.025
-0.02
0.005
0.005
-0.015
-0.01
-0.02
-0.03
-0.065
-0.06
-0.06
-0.055
-0.06
-0.06
-0.03
-0.015
-0.035
-0.03
-0.06
-0.08
-0.06
-0.08
-0.08
-0.05
-0.04
0.005
0.0
-0.01
-0.025
-0.035
-0.015
-0.035
-0.045
-0.04
-0.02
0.005
-0.05
-0.08
-0.07
-0.055
-0.07
-0.065
-0.035
-0.015
-0.02
-0.01
-0.015
-0.045
-0.04
-0.015
-0.03
-0.04
0.0
-0.055
-0.075
-0.06
-0.055
-0.045
-0.04
-0.035
-0.01
-0.015
-0.03
-0.08
-0.07
-0.055
-0.045
-0.035
-0.02
-0.01
-0.05
0.035
0.05
-0.055
-0.1
-0.015
-0.115
0.055
0.08
0.05
0.095
0.065
0.055
0.06
0.01
0.07
0.06
0.055
0.07
0.08
0.08
0.055
0.05
0.015
-0.01
-0.01
0.0
0.015
-0.005
-0.035
0.005
0.01
-0.005
-0.03
-0.05
-0.02
-0.02
-0.02
-0.035
-0.025
-0.025
-0.05
-0.05
-0.055
-0.04
-0.035
-0.065
-0.035
-0.01
-0.04
-0.015
-0.05
-0.1
-0.095
-0.06
-0.07
-0.065
-0.025
-0.035
-0.03
-0.015
-0.015
-0.05
-0.065
-0.045
-0.055
-0.055
-0.07
-0.07
-0.08
-0.055
-0.065
-0.065
-0.06
-0.065
-0.065
-0.005
0.07
0.165
0.285
0.45
0.565
0.685
0.65
0.66
0.61
0.525
0.48
0.37
0.205
0.095
-0.035
-0.24
-0.295
-0.275
-0.335
-0.31
-0.275
-0.14
-0.11
-0.155
-0.12
-0.11
-0.085
-0.09
-0.07
-0.05
-0.08
-0.09
-0.065
-0.05
-0.075
-0.075
-0.075
-0.085
-0.085
-0.07
-0.065
-0.165
-0.065
-0.105
-0.09
-0.055
-0.065
-0.075
-0.095
-0.095
-0.105
-0.11
-0.05
-0.075
-0.085
-0.145
-0.17
-0.07
-0.06
-0.055
-0.075
-0.06
-0.04
-0.055
-0.065
-0.12
-0.13
-0.08
-0.075
-0.035
-0.05
-0.015
-0.075
-0.075
-0.095
-0.045
-0.055
-0.05
-0.035
-0.065
-0.095
-0.065
-0.045
-0.05
-0.065
-0.07
-0.055
-0.025
-0.085
-0.085
-0.05
-0.04
0.0
-0.02
-0.035
-0.08
-0.08
-0.03
-0.04
-0.035
-0.06
-0.085
0.005
0.005
0.035
0.01
0.0
0.005
0.015
0.025
0.045
0.045
0.055
0.03
0.045
0.08
0.075
0.085
0.1
0.105
0.08
0.09
0.095
0.08
0.07
0.05
0.05
0.045
0.05
0.055
0.05
0.05
0.07
0.045
0.0
-0.035
-0.02
-0.03
-0.05
-0.03
-0.055
-0.03
-0.035
-0.065
-0.085
-0.115
-0.12
-0.115
-0.09
-0.085
-0.115
-0.115
-0.095
-0.14
-0.155
-0.13
-0.085
-0.155
-0.16
-0.145
-0.13
-0.1
-0.075
-0.115
-0.165
-0.165
-0.16
-0.155
-0.165
-0.15
-0.145
-0.135
-0.125
-0.175
-0.175
-0.15
-0.15
-0.16
-0.18
-0.15
-0.145
-0.14
-0.125
-0.145
-0.185
-0.22
-0.185
-0.18
-0.145
-0.14
-0.16
-0.155
-0.15
-0.17
-0.19
-0.185
-0.175
-0.17
-0.17
-0.18
-0.17
-0.105
-0.165
-0.19
-0.18
-0.185
-0.18
-0.17
-0.175
-0.16
-0.15
-0.145
-0.145
-0.17
-0.195
-0.195
-0.17
-0.17
-0.175
-0.18
-0.165
-0.15
-0.15
-0.155
-0.2
-0.225
-0.19
-0.16
-0.13
-0.145
-0.16
-0.145
-0.16
-0.16
-0.17
-0.215
-0.17
-0.165
-0.175
-0.18
-0.17
-0.145
-0.14
-0.145
-0.19
-0.165
-0.125
-0.165
-0.175
-0.185
-0.185
-0.165
-0.17
-0.17
-0.18
-0.18
-0.185
-0.175
-0.145
-0.155
-0.175
-0.14
-0.13
-0.185
-0.22
-0.225
-0.185
-0.185
-0.18
-0.155
-0.17
-0.16
-0.16
-0.165
-0.2
-0.19
-0.16
-0.18
-0.17
-0.19
-0.185
-0.16
-0.15
-0.155
-0.21
-0.195
-0.175
-0.185
-0.185
-0.165
-0.135
-0.13
-0.165
-0.18
-0.19
-0.21
-0.18
-0.165
-0.175
-0.14
-0.135
-0.165
-0.19
-0.2
-0.19
-0.195
-0.175
-0.18
-0.17
-0.15
-0.145
-0.165
-0.18
-0.17
-0.185
-0.195
-0.185
-0.18
-0.17
-0.16
-0.145
-0.15
-0.175
-0.2
-0.22
-0.18
-0.185
-0.19
-0.16
-0.17
-0.155
-0.155
-0.165
-0.155
-0.21
-0.165
-0.17
-0.175
-0.175
-0.175
-0.12
-0.115
-0.155
-0.165
-0.185
-0.17
-0.18
-0.18
-0.18
-0.165
-0.145
-0.135
-0.165
-0.175
-0.175
-0.165
-0.185
-0.185
-0.19
-0.165
-0.13
-0.135
-0.165
-0.16
-0.18
-0.175
-0.145
-0.15
-0.13
-0.115
-0.09
-0.105
-0.11
-0.14
-0.115
-0.095
-0.08
-0.1
-0.07
-0.07
-0.045
-0.065
-0.08
-0.12
-0.125
-0.105
-0.105
-0.135
-0.15
-0.155
-0.13
-0.135
-0.17
-0.17
-0.195
-0.2
-0.195
-0.205
-0.16
-0.15
-0.15
-0.16
-0.18
-0.21
-0.215
-0.195
-0.2
-0.205
-0.195
-0.17
-0.145
-0.16
-0.17
-0.215
-0.2
-0.175
-0.2
-0.18
-0.19
-0.175
-0.165
-0.185
-0.215
-0.225
-0.205
-0.205
-0.18
-0.17
-0.155
-0.145
-0.145
-0.185
-0.21
-0.21
-0.2
-0.17
-0.185
-0.195
-0.145
-0.05
0.045
0.175
0.295
0.385
0.53
0.58
0.53
0.5
0.465
0.38
0.26
0.08
-0.04
-0.185
-0.335
-0.385
-0.39
-0.39
-0.385
-0.325
-0.31
-0.28
-0.255
-0.25
-0.205
-0.215
-0.205
-0.175
-0.17
-0.16
-0.15
-0.175
-0.205
-0.2
-0.165
-0.175
-0.18
-0.19
-0.195
-0.165
-0.175
-0.17
-0.21
-0.205
-0.165
-0.175
-0.175
-0.17
-0.155
-0.125
-0.12
-0.205
-0.185
-0.17
-0.145
-0.19
-0.175
-0.165
-0.185
-0.12
-0.11
-0.13
-0.155
-0.18
-0.16
-0.135
-0.18
-0.16
-0.165
-0.13
-0.11
-0.145
-0.16
-0.175
-0.155
-0.14
-0.13
-0.125
-0.135
-0.1
-0.1
-0.145
-0.16
-0.14
-0.125
-0.17
-0.16
-0.11
-0.095
-0.085
-0.075
-0.09
-0.125
-0.115
-0.12
-0.1
-0.09
-0.06
-0.075
-0.05
-0.07
-0.1
-0.09
-0.07
-0.075
-0.075
-0.05
-0.03
-0.03
0.0
-0.025
-0.07
-0.055
-0.015
-0.01
-0.01
-0.015
-0.005
-0.005
0.015
0.005
0.0
-0.015
-0.025
-0.01
-0.03
-0.01
-0.005
-0.03
-0.005
0.01
-0.02
-0.04
-0.02
-0.035
-0.045
-0.05
-0.06
-0.05
-0.06
-0.095
-0.105
-0.12
-0.12
-0.12
-0.12
-0.12
-0.145
-0.11
-0.1
-0.12
-0.155
-0.19
-0.17
-0.155
-0.185
-0.17
-0.145
-0.13
-0.14
-0.15
-0.175
-0.185
-0.185
-0.18
-0.18
-0.18
-0.18
-0.2
-0.175
-0.17
-0.205
-0.175
-0.175
-0.175
-0.18
-0.18
-0.155
-0.135
-0.13
-0.145
-0.17
-0.215
-0.22
-0.185
-0.19
-0.185
-0.18
-0.155
-0.175
-0.16
-0.19
-0.19
-0.17
-0.17
-0.155
-0.17
-0.175
-0.14
-0.15
-0.185
-0.185
-0.18
-0.125
-0.165
-0.195
-0.16
-0.18
-0.19
-0.16
-0.145
-0.17
-0.155
-0.17
-0.155
-0.155
-0.135
-0.145
-0.12
-0.14
-0.125
-0.14
-0.145
-0.14
-0.125
-0.145
-0.155
-0.145
-0.115
-0.12
-0.155
-0.18
-0.155
-0.16
-0.17
-0.17
-0.155
-0.145
-0.115
-0.145
-0.145
-0.165
-0.175
-0.15
-0.145
-0.145
-0.13
-0.16
-0.14
-0.185
-0.175
-0.21
-0.165
-0.145
-0.145
-0.13
-0.15
-0.125
-0.105
-0.14
-0.155
-0.2
-0.195
-0.165
-0.17
-0.17
-0.145
-0.12
-0.125
-0.14
-0.145
-0.16
-0.135
-0.155
-0.16
-0.18
-0.18
-0.15
-0.145
-0.175
-0.175
-0.18
-0.145
-0.16
-0.175
-0.155
-0.145
-0.165
-0.155
-0.145
-0.17
-0.185
-0.19
-0.14
-0.175
-0.185
-0.165
-0.155
-0.175
-0.16
-0.18
-0.195
-0.16
-0.145
-0.15
-0.135
-0.13
-0.12
-0.11
-0.155
-0.175
-0.18
-0.16
-0.16
-0.145
-0.15
-0.155
-0.155
-0.155
-0.19
-0.165
-0.165
-0.155
-0.165
-0.16
-0.15
-0.155
-0.125
-0.145
-0.17
-0.19
-0.19
-0.205
-0.165
-0.16
-0.15
-0.17
-0.14
-0.17
-0.19
-0.18
-0.195
-0.185
-0.16
-0.135
-0.11
-0.135
-0.145
-0.155
-0.14
-0.16
-0.18
-0.18
-0.17
-0.165
-0.135
-0.14
-0.12
-0.125
-0.155
-0.18
-0.17
-0.135
-0.135
-0.09
-0.075
-0.1
-0.08
-0.08
-0.075
-0.1
-0.105
-0.08
-0.055
-0.035
-0.025
-0.035
-0.03
-0.055
-0.085
-0.1
-0.115
-0.085
-0.09
-0.115
-0.135
-0.09
-0.08
-0.15
-0.16
-0.155
-0.14
-0.12
-0.14
-0.135
-0.14
-0.145
-0.155
-0.16
-0.11
-0.17
-0.17
-0.155
-0.14
-0.135
-0.14
-0.115
-0.14
-0.16
-0.165
-0.19
-0.165
-0.15
-0.15
-0.155
-0.15
-0.145
-0.13
-0.15
-0.18
-0.16
-0.165
-0.16
-0.13
-0.15
-0.15
-0.14
-0.12
-0.125
-0.145
-0.15
-0.12
-0.16
-0.12
-0.02
0.065
0.205
0.31
0.445
0.58
0.62
0.58
0.53
0.5
0.43
0.265
0.12
0.01
-0.115
-0.305
-0.375
-0.375
-0.36
-0.335
-0.305
-0.245
-0.195
-0.195
-0.165
-0.185
-0.205
-0.2
-0.215
-0.175
-0.125
-0.115
-0.12
-0.105
-0.15
-0.155
-0.16
-0.11
-0.135
-0.125
-0.11
-0.115
-0.11
-0.155
-0.14
-0.14
-0.165
-0.145
-0.14
-0.14
-0.11
-0.105
-0.11
-0.14
-0.155
-0.13
-0.13
-0.13
-0.125
-0.11
-0.125
-0.125
-0.13
-0.13
-0.145
-0.15
-0.15
-0.16
-0.105
-0.11
-0.105
-0.11
-0.105
-0.11
-0.145
-0.155
-0.13
-0.1
-0.11
-0.13
-0.135
-0.1
-0.09
-0.065
-0.115
-0.14
-0.095
-0.1
-0.095
-0.13
-0.1
-0.07
-0.075
-0.095
-0.135
-0.14
-0.12
-0.11
-0.075
-0.07
-0.03
-0.01
-0.035
-0.06
-0.075
-0.065
-0.035
-0.03
-0.055
-0.035
0.005
0.015
0.035
-0.015
-0.04
-0.045
-0.005
0.01
0.015
0.015
-0.01
0.03
0.03
0.005
-0.005
-0.035
-0.02
-0.02
0.0
0.01
-0.015
-0.01
-0.005
-0.03
-0.055
-0.055
-0.06
-0.08
-0.075
-0.05
-0.04
-0.045
-0.08
-0.095
-0.13
-0.155
-0.14
-0.14
-0.135
-0.135
-0.15
-0.135
-0.135
-0.14
-0.135
-0.19
-0.19
-0.19
-0.15
-0.14
-0.17
-0.14
-0.155
-0.17
-0.19
-0.195
-0.18
-0.185
-0.185
-0.165
-0.175
-0.145
-0.14
-0.165
-0.18
-0.19
-0.18
-0.18
-0.18
-0.175
-0.16
-0.135
-0.155
-0.19
-0.21
-0.2
-0.18
-0.175
-0.17
-0.155
-0.125
-0.13
-0.13
-0.17
-0.205
-0.195
-0.2
-0.22
-0.15
-0.155
-0.145
-0.115
-0.165
-0.16
-0.175
-0.16
-0.135
-0.17
-0.17
-0.16
-0.175
-0.16
-0.15
-0.155
-0.175
-0.175
-0.165
-0.16
-0.145
-0.165
-0.16
-0.15
-0.11
-0.12
-0.145
-0.135
-0.135
-0.165
-0.16
-0.13
-0.12
-0.155
-0.16
-0.18
-0.18
-0.13
-0.11
-0.13
-0.135
-0.115
-0.1
-0.1
-0.14
-0.18
-0.18
-0.145
-0.14
-0.145
-0.14
-0.155
-0.125
-0.13
-0.14
-0.14
-0.165
-0.16
-0.155
-0.15
-0.145
-0.15
-0.13
-0.145
-0.145
-0.185
-0.185
-0.16
-0.13
-0.14
-0.13
-0.115
-0.13
-0.145
-0.125
-0.145
-0.17
-0.18
-0.185
-0.115
-0.14
-0.155
-0.135
-0.135
-0.13
-0.15
-0.17
-0.16
-0.165
-0.14
-0.11
-0.125
-0.105
-0.12
-0.155
-0.19
-0.165
-0.125
-0.14
-0.13
-0.15
-0.155
-0.135
-0.15
-0.155
-0.14
-0.145
-0.16
-0.135
-0.145
-0.155
-0.12
-0.125
-0.135
-0.15
-0.2
-0.17
-0.125
-0.145
-0.14
-0.15
-0.15
-0.095
-0.11
-0.14
-0.14
-0.16
-0.15
-0.14
-0.165
-0.135
-0.12
-0.115
-0.13
-0.17
-0.195
-0.185
-0.175
-0.16
-0.13
-0.11
-0.145
-0.09
-0.105
-0.145
-0.165
-0.155
-0.16
-0.165
-0.155
-0.13
-0.125
-0.115
-0.11
-0.13
-0.125
-0.11
-0.13
-0.13
-0.115
-0.105
-0.065
-0.065
-0.075
-0.095
-0.075
-0.095
-0.03
-0.045
-0.03
-0.04
-0.035
-0.02
-0.065
-0.075
-0.115
-0.095
-0.07
-0.065
-0.085
-0.105
-0.125
-0.125
-0.13
-0.125
-0.145
-0.12
-0.155
-0.14
-0.145
-0.15
-0.12
-0.13
-0.14
-0.165
-0.175
-0.14
-0.15
-0.15
-0.14
-0.13
-0.115
-0.13
-0.145
-0.14
-0.17
-0.16
-0.155
-0.145
-0.13
-0.14
-0.13
-0.12
-0.13
-0.12
-0.145
-0.13
-0.135
-0.115
-0.12
-0.125
-0.11
-0.145
-0.16
-0.14
-0.16
-0.145
-0.15
-0.095
0.005
0.11
0.23
0.345
0.455
0.585
0.625
0.575
0.545
0.515
0.41
0.275
0.14
-0.015
-0.145
-0.3
-0.375
-0.36
-0.35
-0.325
-0.305
-0.275
-0.215
-0.17
-0.165
-0.185
-0.16
-0.13
-0.135
-0.11
-0.095
-0.105
-0.075
-0.095
-0.12
-0.15
-0.14
-0.145
-0.11
-0.085
-0.105
-0.075
-0.055
-0.06
-0.085
-0.095
-0.105
-0.105
-0.085
-0.085
-0.09
-0.07
-0.065
-0.085
-0.075
-0.095
-0.095
-0.095
-0.105
-0.08
-0.07
-0.035
-0.025
-0.05
-0.085
-0.08
-0.07
-0.05
-0.075
-0.08
-0.055
-0.04
-0.04
-0.03
-0.05
-0.075
-0.055
-0.055
-0.055
-0.035
-0.01
-0.025
-0.035
-0.03
-0.035
-0.055
-0.03
-0.025
-0.035
-0.015
0.015
0.035
0.0
-0.02
-0.015
-0.03
-0.03
-0.025
0.005
0.045
0.045
0.06
0.07
0.055
0.045
0.035
0.07
0.075
0.07
0.085
0.08
0.11
0.1
0.125
0.09
0.09
0.075
0.08
0.085
0.085
0.11
0.13
0.13
0.085
0.105
0.07
0.1
0.1
0.09
0.09
0.115
0.115
0.095
0.075
0.06
0.03
0.04
0.065
0.03
0.015
-0.005
0.0
0.0
0.02
0.01
-0.025
-0.015
-0.03
-0.035
-0.03
-0.045
-0.04
-0.05
-0.065
-0.065
-0.09
-0.075
-0.06
-0.065
-0.075
-0.06
-0.055
-0.065
-0.095
-0.1
-0.115
-0.085
-0.08
-0.05
-0.05
-0.07
-0.06
-0.085
-0.095
-0.1
-0.075
-0.07
-0.08
-0.065
-0.08
-0.1
-0.08
-0.06
-0.11
-0.125
-0.075
-0.095
-0.12
-0.06
-0.05
-0.07
-0.065
-0.075
-0.095
-0.1
-0.105
-0.11
-0.08
-0.075
-0.105
-0.1
-0.025
-0.065
-0.075
-0.11
-0.07
-0.055
-0.085
-0.075
-0.04
-0.05
-0.06
-0.06
-0.055
-0.07
-0.07
-0.06
-0.065
-0.08
-0.08
-0.085
-0.06
-0.035
-0.075
-0.095
-0.09
-0.065
-0.06
-0.04
-0.05
-0.03
-0.045
-0.085
-0.07
-0.08
-0.075
-0.06
-0.085
-0.08
-0.07
-0.03
-0.035
-0.055
-0.1
-0.115
-0.09
-0.105
-0.09
-0.075
-0.055
-0.055
-0.04
-0.075
-0.11
-0.085
-0.075
-0.075
-0.065
-0.05
-0.055
-0.065
-0.07
-0.07
-0.1
-0.11
-0.07
-0.06
-0.07
-0.06
-0.06
-0.055
-0.08
-0.085
-0.055
-0.085
-0.095
-0.075
-0.085
-0.04
-0.085
-0.075
-0.075
-0.08
-0.11
-0.125
-0.085
-0.075
-0.06
-0.055
-0.05
-0.045
-0.045
-0.075
-0.1
-0.12
-0.13
-0.11
-0.09
-0.1
-0.08
-0.05
-0.045
-0.085
-0.11
-0.125
-0.09
-0.1
-0.07
-0.085
-0.05
-0.05
-0.08
-0.095
-0.1
-0.08
-0.08
-0.08
-0.08
-0.055
-0.055
-0.055
-0.075
-0.1
-0.085
-0.12
-0.115
-0.09
-0.09
-0.045
-0.07
-0.065
-0.06
-0.1
-0.11
-0.12
-0.12
-0.065
-0.11
-0.09
-0.055
-0.07
-0.055
-0.09
-0.135
-0.105
-0.07
-0.095
-0.04
-0.015
-0.045
-0.06
-0.06
-0.08
-0.1
-0.095
-0.05
-0.015
0.0
0.0
0.02
0.04
0.025
-0.01
-0.02
-0.015
-0.035
-0.05
0.05
0.035
-0.015
0.0
-0.01
-0.04
-0.08
-0.065
-0.075
-0.055
-0.06
-0.08
-0.075
-0.08
-0.11
-0.12
-0.15
-0.1
-0.095
-0.115
-0.12
-0.07
-0.075
-0.1
-0.125
-0.115
-0.135
-0.095
-0.105
-0.075
-0.1
-0.1
-0.095
-0.095
-0.095
-0.12
-0.13
-0.1
-0.1
-0.105
-0.11
-0.115
-0.09
-0.075
-0.12
-0.085
-0.065
-0.055
-0.115
-0.17
-0.105
-0.08
-0.075
-0.085
-0.12
-0.065
0.02
0.14
0.285
0.4
0.525
0.655
0.645
0.61
0.535
0.49
0.395
0.225
0.09
-0.035
-0.19
-0.285
-0.33
-0.345
-0.335
-0.315
-0.27
-0.21
-0.205
-0.175
-0.165
-0.145
-0.13
-0.11
-0.07
-0.1
-0.09
-0.085
-0.09
-0.08
-0.08
-0.1
-0.095
-0.1
-0.105
-0.12
-0.095
-0.09
-0.095
-0.08
-0.075
-0.07
-0.06
-0.055
-0.085
-0.12
-0.11
-0.085
-0.095
-0.1
-0.065
-0.055
-0.02
-0.05
-0.085
-0.105
-0.065
-0.055
-0.06
-0.02
-0.05
-0.045
-0.035
-0.035
-0.065
-0.065
-0.055
-0.065
-0.06
-0.045
-0.055
-0.035
-0.055
-0.045
-0.06
-0.07
-0.04
-0.025
-0.01
-0.005
-0.02
-0.005
0.015
-0.01
-0.015
-0.045
-0.025
-0.01
0.0
0.005
0.005
0.035
0.015
0.025
0.015
0.01
0.02
0.035
0.075
0.065
0.08
0.09
0.105
0.095
0.075
0.045
0.06
0.08
0.08
0.105
0.115
0.12
0.105
0.085
0.07
0.075
0.115
0.1
0.105
0.115
0.14
0.15
0.125
0.09
0.065
0.05
0.08
0.07
0.045
0.07
0.085
0.095
0.06
0.025
0.025
0.045
0.045
0.02
0.01
0.0
0.01
0.015
0.01
-0.02
-0.04
-0.06
-0.045
-0.045
-0.05
-0.05
-0.07
-0.035
-0.045
-0.075
-0.085
-0.08
-0.06
-0.1
-0.095
-0.075
-0.075
-0.04
-0.065
-0.06
-0.075
-0.065
-0.075
-0.075
-0.07
-0.07
-0.08
-0.065
-0.075
-0.095
-0.11
-0.08
-0.075
-0.08
-0.065
-0.07
-0.005
-0.025
-0.07
-0.125
-0.14
-0.07
-0.07
-0.08
-0.075
-0.12
-0.14
-0.09
-0.085
-0.075
-0.105
-0.06
-0.07
-0.07
-0.06
-0.05
-0.035
-0.05
-0.075
-0.1
-0.1
-0.045
-0.06
-0.05
-0.06
-0.055
-0.065
-0.05
-0.085
-0.08
-0.07
-0.05
-0.08
-0.085
-0.055
-0.035
-0.01
-0.045
-0.085
-0.1
-0.085
-0.105
-0.11
-0.09
-0.065
-0.055
-0.065
-0.07
-0.09
-0.08
-0.085
-0.08
-0.07
-0.06
-0.11
-0.1
-0.035
-0.065
-0.09
-0.08
-0.095
-0.065
-0.065
-0.055
-0.06
-0.075
-0.06
-0.055
-0.08
-0.095
-0.09
-0.065
-0.08
-0.07
-0.065
-0.06
-0.055
-0.07
-0.06
-0.095
-0.105
-0.07
-0.065
-0.065
-0.08
-0.085
-0.08
-0.095
-0.09
-0.105
-0.08
-0.09
-0.08
-0.05
-0.075
-0.09
-0.06
-0.055
-0.065
-0.08
-0.09
-0.07
-0.06
-0.08
-0.07
-0.07
-0.065
-0.09
-0.07
-0.1
-0.125
-0.075
-0.085
-0.04
-0.105
-0.065
-0.055
-0.085
-0.07
-0.085
-0.09
-0.095
-0.095
-0.085
-0.075
-0.045
-0.055
-0.075
-0.095
-0.09
-0.09
-0.04
-0.035
-0.065
-0.1
-0.1
-0.03
-0.03
-0.095
-0.095
-0.07
-0.08
-0.09
-0.07
-0.065
-0.03
-0.005
-0.025
-0.065
-0.07
-0.065
-0.075
-0.095
-0.06
-0.045
0.0
0.035
0.035
0.0
-0.005
0.01
0.02
0.035
0.065
0.055
0.075
0.04
-0.01
-0.035
-0.03
-0.025
-0.02
-0.005
-0.02
-0.055
-0.03
-0.05
-0.07
-0.085
-0.085
-0.08
-0.04
-0.02
-0.065
-0.075
-0.055
-0.055
-0.09
-0.08
-0.1
-0.09
-0.105
-0.13
-0.075
-0.1
-0.105
-0.105
-0.085
-0.095
-0.095
-0.095
-0.075
-0.075
-0.065
-0.09
-0.07
-0.07
-0.1
-0.12
-0.125
-0.12
-0.09
-0.085
-0.08
-0.075
-0.05
-0.075
-0.08
-0.07
-0.095
-0.085
-0.1
-0.045
0.035
0.14
0.21
0.355
0.475
0.595
0.675
0.635
0.575
0.56
0.465
0.305
0.17
0.04
-0.125
-0.265
-0.34
-0.36
-0.305
-0.295
-0.26
-0.26
-0.18
-0.18
-0.215
-0.19
-0.145
-0.125
-0.095
-0.085
-0.065
-0.055
-0.05
-0.07
-0.1
-0.105
-0.1
-0.09
-0.085
-0.07
-0.07
-0.055
-0.065
-0.07
-0.07
-0.09
-0.075
-0.075
-0.08
-0.04
-0.05
-0.07
-0.075
-0.065
-0.07
-0.065
-0.06
-0.055
-0.065
-0.055
-0.055
-0.06
-0.05
-0.04
-0.06
-0.065
-0.04
-0.055
-0.05
-0.055
-0.05
-0.025
-0.04
-0.055
-0.07
-0.08
-0.05
-0.04
-0.025
-0.02
-0.03
0.005
-0.005
-0.025
-0.075
-0.09
-0.025
-0.01
-0.04
-0.025
0.03
0.03
0.02
0.05
0.055
0.025
0.04
0.045
0.035
0.04
0.045
0.085
0.06
0.055
0.045
0.035
0.055
0.055
0.055
0.075
0.115
0.145
0.105
0.1
0.1
0.105
0.12
0.135
0.12
0.14
0.12
0.135
0.125
0.09
0.11
0.135
0.07
0.08
0.12
0.105
0.115
0.155
0.1
0.08
0.06
0.11
0.12
0.08
0.06
0.035
0.005
0.04
0.02
0.0
0.065
-0.035
-0.025
0.035
0.02
-0.05
-0.05
-0.03
-0.025
-0.07
-0.085
-0.075
-0.07
-0.075
-0.065
-0.08
-0.065
-0.04
-0.075
-0.075
-0.095
-0.1
-0.095
-0.09
-0.08
-0.065
-0.055
-0.09
-0.095
-0.095
-0.09
-0.085
-0.095
-0.125
-0.115
-0.115
-0.1
-0.14
-0.075
-0.065
-0.1
-0.08
-0.085
-0.1
-0.15
-0.245
-0.105
-0.015
-0.05
-0.05
-0.1
-0.115
-0.11
-0.07
-0.1
-0.16
-0.1
-0.05
-0.105
-0.1
-0.11
-0.11
-0.095
-0.09
-0.095
-0.1
-0.1
-0.09
-0.085
-0.115
-0.125
-0.095
-0.095
-0.085
-0.12
-0.105
-0.07
-0.095
-0.115
-0.13
-0.135
-0.105
-0.095
-0.065
-0.085
-0.075
-0.07
-0.085
-0.085
-0.095
-0.095
-0.07
-0.085
-0.105
-0.09
-0.085
-0.07
-0.08
-0.09
-0.115
-0.12
-0.075
-0.09
-0.075
-0.06
-0.06
-0.015
-0.04
-0.08
-0.105
-0.11
-0.08
-0.11
-0.085
-0.09
-0.065
-0.045
-0.075
-0.065
-0.09
-0.105
-0.105
-0.095
-0.105
-0.09
-0.05
-0.045
-0.065
-0.08
-0.115
-0.14
-0.085
-0.08
-0.065
-0.05
-0.07
-0.055
-0.075
-0.065
-0.06
-0.065
-0.07
-0.065
-0.055
-0.07
-0.07
-0.015
-0.055
-0.08
-0.045
-0.07
-0.06
-0.055
-0.045
-0.05
-0.065
-0.055
-0.08
-0.075
-0.105
-0.08
-0.075
-0.06
-0.055
-0.05
-0.02
-0.035
-0.05
-0.075
-0.095
-0.05
-0.075
-0.065
-0.045
-0.07
-0.02
-0.02
-0.06
-0.06
-0.055
-0.045
-0.055
-0.06
-0.03
-0.03
0.005
0.025
-0.03
0.025
0.02
0.04
0.06
0.08
0.065
0.065
0.065
0.03
0.005
-0.02
-0.04
-0.03
-0.01
-0.035
-0.005
-0.03
-0.025
-0.045
-0.07
-0.05
-0.085
-0.09
-0.07
-0.09
-0.07
-0.085
-0.075
-0.075
-0.09
-0.09
-0.08
-0.065
-0.075
-0.09
-0.085
-0.09
-0.095
-0.075
-0.05
-0.07
-0.1
-0.085
-0.1
-0.1
-0.08
-0.065
-0.05
-0.07
-0.07
-0.08
-0.085
-0.055
-0.065
-0.085
-0.11
-0.135
-0.085
-0.03
-0.07
-0.09
-0.095
-0.065
-0.065
-0.045
0.04
0.135
0.29
0.4
0.485
0.605
0.67
0.64
0.595
0.585
0.51
0.335
0.215
0.045
-0.125
-0.305
-0.36
-0.335
-0.305
-0.28
-0.28
-0.245
-0.21
-0.145
-0.115
-0.105
-0.085
-0.105
-0.08
-0.06
-0.06
-0.03
-0.06
-0.055
-0.07
-0.095
-0.105
-0.065
-0.065
-0.05
-0.05
-0.025
-0.025
0.0
-0.04
-0.09
-0.095
-0.095
-0.07
-0.06
-0.05
-0.06
-0.035
-0.01
-0.065
-0.045
-0.02
-0.05
-0.03
-0.015
-0.025
-0.02
-0.05
-0.075
-0.03
-0.01
0.03
0.01
-0.015
0.01
-0.015
-0.005
0.015
0.015
0.01
-0.03
-0.015
0.0
-0.02
0.015
0.0
0.025
0.01
-0.005
0.01
0.005
0.03
0.01
-0.01
0.045
0.045
0.06
0.05
0.05
0.03
0.02
0.06
0.08
0.08
0.08
0.085
0.085
0.12
0.085
0.085
0.105
0.1
0.09
0.1
0.135
0.145
0.175
0.15
0.16
0.13
0.11
0.14
0.145
0.195
0.16
0.13
0.19
0.21
0.17
0.15
0.125
0.135
0.14
0.14
0.16
0.16
0.155
0.14
0.125
0.12
0.085
0.105
0.1
0.075
0.08
0.075
0.085
0.065
0.03
0.015
0.015
0.02
0.03
0.01
0.005
0.0
0.03
-0.005
-0.02
-0.01
-0.045
-0.03
-0.02
-0.025
-0.03
-0.01
0.0
-0.005
-0.02
-0.05
-0.03
-0.04
-0.02
-0.025
-0.025
0.005
0.0
-0.03
-0.065
-0.09
-0.045
-0.02
-0.03
-0.02
-0.02
0.01
0.005
-0.035
-0.065
-0.06
-0.045
-0.025
0.005
-0.025
-0.055
-0.025
-0.04
-0.04
-0.07
-0.045
-0.045
-0.06
-0.025
-0.02
0.0
-0.015
-0.04
-0.02
-0.035
-0.04
-0.04
-0.05
-0.035
0.0
0.02
0.02
-0.03
-0.01
-0.025
-0.04
-0.02
-0.015
-0.03
-0.05
-0.05
-0.005
-0.01
-0.015
-0.025
-0.055
-0.035
-0.02
-0.05
-0.025
-0.015
-0.025
-0.025
-0.015
-0.015
0.0
-0.025
-0.02
-0.02
-0.015
-0.015
-0.015
-0.02
-0.015
-0.035
-0.07
-0.045
-0.01
-0.03
0.0
-0.04
-0.025
-0.03
-0.02
-0.025
-0.05
-0.025
-0.04
-0.03
-0.035
-0.02
-0.005
-0.02
-0.01
-0.055
-0.08
-0.035
-0.045
-0.055
-0.045
-0.015
0.0
-0.015
-0.05
-0.05
-0.06
-0.015
-0.03
-0.03
-0.04
-0.005
0.015
0.005
-0.025
-0.05
-0.05
-0.055
-0.05
-0.01
-0.025
-0.025
-0.055
-0.06
-0.04
-0.065
-0.04
0.0
-0.015
-0.005
-0.015
-0.04
-0.015
-0.025
-0.045
-0.05
-0.045
-0.01
-0.02
-0.055
-0.045
-0.01
-0.01
-0.015
-0.045
-0.04
-0.025
-0.03
-0.025
-0.025
0.0
0.005
0.015
0.0
0.0
-0.02
0.01
0.07
0.075
0.045
0.08
0.12
0.12
0.095
0.09
0.065
0.045
0.05
0.05
0.05
0.025
0.04
0.015
0.0
-0.015
-0.025
0.005
-0.025
-0.025
-0.03
-0.025
0.015
-0.01
-0.055
-0.06
-0.085
-0.05
-0.06
-0.065
-0.03
-0.04
-0.035
-0.045
-0.055
-0.03
-0.085
-0.04
-0.045
-0.045
-0.04
-0.015
-0.015
-0.045
-0.07
-0.055
-0.06
-0.07
-0.09
-0.08
-0.065
-0.045
-0.065
-0.08
-0.09
-0.085
-0.08
-0.055
-0.045
-0.035
-0.065
-0.035
-0.015
-0.02
-0.015
0.035
0.105
0.24
0.38
0.54
0.725
0.78
0.74
0.69
0.655
0.525
0.355
0.23
0.075
-0.07
-0.25
-0.315
-0.295
-0.27
-0.3
-0.25
-0.25
-0.195
-0.145
-0.12
-0.145
-0.155
-0.06
0.0
-0.045
-0.08
-0.095
-0.075
-0.075
-0.01
-0.05
-0.05
-0.03
-0.065
-0.075
-0.09
-0.08
-0.07
-0.065
-0.045
-0.035
-0.02
-0.035
-0.06
-0.035
-0.035
-0.04
-0.04
-0.02
-0.04
-0.04
-0.02
0.02
-0.03
-0.06
-0.09
-0.02
-0.015
-0.035
-0.02
-0.025
0.01
-0.005
0.0
-0.05
-0.065
-0.045
-0.015
-0.03
-0.03
0.055
0.015
-0.04
0.025
0.0
-0.04
-0.01
0.025
-0.035
0.04
0.02
0.025
0.0
0.035
0.075
0.005
0.02
0.06
0.07
0.06
0.045
0.095
0.06
0.07
0.105
0.035
0.08
0.075
0.11
0.125
0.13
0.135
0.125
0.11
0.13
0.14
0.085
0.12
0.18
0.175
0.15
0.135
0.135
0.19
0.135
0.14
0.135
0.155
0.165
0.15
0.165
0.15
0.155
0.13
0.105
0.13
0.1
0.12
0.1
0.1
0.07
0.14
0.08
0.05
0.035
-0.005
0.035
0.0
0.045
0.03
0.005
0.045
0.01
0.01
0.025
0.005
-0.025
-0.025
-0.025
-0.01
-0.02
-0.06
-0.005
-0.01
-0.04
-0.04
-0.005
-0.06
-0.03
-0.025
-0.04
-0.075
-0.04
-0.055
-0.065
-0.055
-0.07
-0.08
-0.015
-0.04
-0.01
-0.055
-0.075
-0.08
-0.1
-0.085
-0.03
-0.015
-0.03
-0.015
-0.045
-0.035
-0.035
-0.04
-0.04
-0.04
-0.06
-0.055
-0.055
-0.03
0.005
0.005
0.01
-0.025
-0.03
-0.015
-0.03
-0.03
0.0
-0.015
-0.02
-0.03
-0.025
-0.04
-0.07
-0.055
-0.03
-0.03
-0.025
-0.025
-0.02
-0.01
-0.04
-0.03
-0.055
-0.005
-0.015
-0.02
-0.04
0.0
-0.02
0.0
-0.02
-0.01
-0.055
-0.02
-0.015
0.0
-0.02
-0.06
-0.03
-0.015
-0.02
-0.01
-0.06
-0.025
-0.03
-0.025
0.005
-0.015
0.055
0.03
-0.015
-0.065
-0.07
-0.05
-0.035
-0.035
0.0
-0.01
-0.035
-0.03
-0.045
-0.045
-0.03
-0.03
-0.05
-0.02
-0.02
-0.025
0.0
0.0
-0.035
-0.07
-0.09
-0.07
-0.035
0.0
-0.04
-0.035
0.01
0.005
-0.005
-0.015
-0.05
-0.02
-0.04
-0.045
-0.025
-0.03
-0.01
-0.025
-0.06
-0.04
-0.04
-0.04
-0.065
-0.035
-0.015
-0.035
0.0
-0.045
-0.02
-0.055
-0.03
-0.02
-0.02
-0.02
-0.01
-0.015
0.015
-0.01
-0.02
-0.025
0.0
-0.035
-0.005
0.005
-0.045
-0.025
0.045
0.02
0.03
0.0
0.005
0.03
0.08
0.06
0.1
0.115
0.115
0.07
0.065
0.07
0.045
0.025
0.07
0.085
0.085
0.105
0.085
0.055
0.05
0.0
-0.01
0.005
-0.01
-0.025
-0.04
-0.04
-0.055
-0.05
-0.025
-0.055
-0.03
-0.065
-0.045
-0.035
-0.02
0.01
-0.01
-0.04
-0.06
-0.045
-0.045
-0.075
-0.045
-0.03
-0.025
-0.01
-0.035
-0.055
-0.04
-0.06
-0.065
-0.07
-0.065
0.01
0.035
0.0
-0.02
-0.04
-0.055
-0.065
-0.04
-0.045
-0.055
-0.06
-0.04
0.02
0.005
-0.005
-0.04
0.05
0.16
0.305
0.44
0.595
0.735
0.86
0.815
0.755
0.7
0.62
0.5
0.33
0.18
0.0
-0.165
-0.265
-0.28
-0.285
-0.245
-0.23
-0.19
-0.16
-0.14
-0.105
-0.05
-0.02
-0.025
-0.035
-0.04
-0.035
-0.025
-0.06
-0.04
-0.055
-0.04
-0.02
-0.035
-0.045
-0.045
-0.04
-0.045
-0.025
-0.015
-0.035
-0.025
0.005
0.02
-0.02
-0.035
-0.04
-0.04
-0.03
-0.01
-0.03
-0.025
0.02
0.025
0.01
0.0
-0.01
0.01
0.005
-0.005
0.01
0.025
0.03
0.025
-0.025
-0.025
-0.005
0.02
0.02
0.0
0.025
0.05
0.05
-0.01
-0.01
-0.025
0.005
0.01
0.02
0.04
0.04
0.04
0.065
0.055
0.035
0.02
0.06
0.095
0.075
0.055
0.11
0.075
0.075
0.065
0.08
0.04
0.09
0.11
0.115
0.13
0.145
0.165
0.14
0.12
0.13
0.13
0.155
0.15
0.165
0.175
0.175
0.185
0.195
0.2
0.145
0.15
0.185
0.155
0.155
0.185
0.195
0.19
0.195
0.145
0.16
0.125
0.13
0.135
0.175
0.15
0.125
0.18
0.13
0.105
0.08
0.075
0.065
0.095
0.07
0.075
0.06
0.07
0.035
0.025
-0.005
-0.015
0.045
0.01
0.005
-0.02
0.005
0.01
-0.005
-0.005
-0.02
-0.025
-0.02
-0.06
-0.035
-0.005
0.0
-0.01
-0.02
-0.025
-0.035
-0.045
-0.045
-0.05
-0.01
-0.005
0.015
0.0
-0.025
-0.045
-0.075
-0.01
-0.02
-0.015
-0.015
-0.04
-0.035
-0.025
-0.015
-0.045
-0.06
-0.025
-0.045
-0.025
-0.035
-0.06
-0.01
0.0
-0.005
-0.025
-0.025
-0.03
-0.025
-0.005
0.015
-0.03
0.0
0.0
-0.025
-0.03
-0.075
-0.02
0.03
0.0
-0.015
-0.01
0.015
0.01
-0.01
-0.01
-0.035
-0.03
-0.035
-0.01
-0.015
-0.01
0.045
0.025
-0.03
0.0
-0.01
0.015
0.005
-0.015
-0.015
-0.015
0.015
-0.02
-0.025
0.005
-0.015
0.005
-0.02
-0.005
0.005
-0.04
0.03
0.02
-0.005
-0.02
-0.045
-0.025
-0.015
0.0
0.015
-0.025
0.01
0.03
-0.015
-0.045
-0.06
-0.05
-0.055
-0.065
-0.01
-0.015
0.025
-0.005
-0.02
-0.04
-0.045
-0.025
-0.03
-0.03
-0.005
-0.02
-0.03
-0.03
-0.03
-0.06
-0.08
-0.03
-0.025
-0.01
0.005
0.0
0.0
0.005
0.005
-0.005
-0.025
-0.04
-0.055
-0.025
0.015
-0.03
-0.03
-0.02
-0.02
-0.03
-0.035
-0.04
-0.015
0.0
-0.055
-0.03
-0.015
0.01
-0.01
-0.035
-0.015
0.01
0.0
0.0
0.0
0.015
0.06
0.055
0.0
0.015
0.04
0.075
0.06
0.095
0.135
0.13
0.12
0.07
0.065
0.05
0.04
0.085
0.06
0.06
0.05
0.045
0.04
0.02
-0.01
-0.015
-0.015
-0.025
-0.035
-0.045
-0.05
-0.02
-0.005
-0.035
-0.05
-0.065
-0.06
-0.055
-0.035
-0.03
-0.04
-0.02
-0.01
-0.01
-0.04
-0.075
-0.065
-0.06
-0.03
-0.04
-0.035
0.0
-0.02
-0.06
-0.055
-0.055
-0.04
-0.06
-0.035
-0.02
-0.055
-0.05
-0.03
-0.03
-0.035
-0.05
-0.075
-0.07
-0.08
-0.06
-0.07
-0.07
-0.055
0.05
0.175
0.295
0.47
0.61
0.775
0.91
0.91
0.855
0.84
0.75
0.545
0.32
0.17
-0.005
-0.16
-0.27
-0.275
-0.275
-0.235
-0.23
-0.22
-0.195
-0.155
-0.13
-0.095
-0.08
-0.045
-0.03
-0.04
-0.025
-0.04
-0.07
-0.04
-0.04
-0.025
-0.04
-0.05
-0.045
-0.03
-0.05
-0.09
-0.05
-0.03
-0.03
-0.035
-0.045
-0.03
-0.01
-0.015
-0.03
-0.04
-0.06
-0.035
-0.02
-0.005
-0.02
-0.03
-0.005
-0.01
0.015
0.01
-0.015
-0.06
-0.05
-0.005
0.0
0.005
0.015
0.025
0.02
-0.01
-0.025
-0.015
0.0
-0.005
0.025
0.035
0.03
0.025
0.01
-0.025
-0.01
0.005
-0.005
0.015
0.035
0.07
0.055
0.055
0.05
0.025
0.015
0.035
0.055
0.08
0.09
0.125
0.12
0.095
0.045
0.065
0.095
0.095
0.105
0.14
0.145
0.15
0.15
0.13
0.14
0.145
0.15
0.135
0.15
0.185
0.155
0.16
0.165
0.195
0.165
0.15
0.17
0.16
0.16
0.185
0.175
0.195
0.17
0.14
0.135
0.11
0.115
0.125
0.12
0.12
0.12
0.13
0.105
0.07
0.065
0.02
0.065
0.075
0.035
0.025
0.035
0.035
0.0
0.01
-0.005
-0.04
-0.05
0.0
-0.005
-0.01
0.0
0.015
-0.01
-0.03
-0.07
-0.07
-0.045
-0.07
-0.025
0.005
0.0
-0.01
-0.01
-0.035
-0.055
-0.085
-0.03
-0.055
-0.065
-0.065
-0.025
-0.01
-0.025
-0.055
-0.045
-0.05
-0.04
-0.055
-0.025
-0.04
-0.055
-0.06
-0.035
-0.04
-0.07
-0.09
-0.055
-0.035
-0.025
-0.035
-0.03
-0.03
-0.03
-0.03
-0.06
-0.06
-0.04
-0.04
-0.02
-0.015
-0.01
0.005
-0.025
-0.045
-0.06
-0.05
-0.05
-0.05
-0.035
-0.01
-0.025
0.01
0.025
-0.025
-0.065
-0.035
-0.01
-0.035
-0.035
-0.015
-0.005
-0.035
-0.005
-0.015
-0.045
-0.045
-0.025
-0.055
-0.05
-0.04
-0.025
-0.005
0.0
-0.04
-0.045
-0.05
-0.04
-0.055
-0.055
-0.025
-0.01
0.0
-0.04
-0.035
-0.04
-0.03
-0.04
-0.05
-0.05
-0.02
0.0
-0.035
-0.04
-0.055
-0.06
-0.04
-0.035
-0.05
-0.025
-0.01
-0.005
-0.025
-0.055
-0.085
-0.095
-0.065
-0.055
-0.025
-0.025
-0.055
-0.025
-0.01
-0.035
-0.055
-0.075
-0.075
-0.055
-0.03
-0.04
-0.025
-0.04
-0.015
-0.03
-0.065
-0.065
-0.055
-0.065
-0.045
-0.04
-0.065
-0.015
-0.03
-0.035
-0.06
-0.075
-0.05
-0.035
-0.015
-0.005
-0.025
-0.005
0.0
-0.02
-0.035
-0.06
-0.05
-0.04
0.02
0.025
0.045
0.06
0.05
0.045
0.02
0.03
0.055
0.065
0.09
0.09
0.095
0.105
0.06
0.06
0.01
-0.005
-0.01
0.025
0.03
0.025
0.01
0.035
-0.005
-0.035
-0.045
-0.03
-0.045
-0.055
-0.06
-0.045
-0.02
-0.03
-0.055
-0.08
-0.085
-0.085
-0.065
-0.05
-0.04
-0.03
-0.03
-0.035
-0.065
-0.08
-0.085
-0.055
-0.075
-0.055
-0.055
-0.05
-0.05
-0.075
-0.08
-0.09
-0.1
-0.1
-0.045
-0.05
-0.03
-0.075
-0.045
-0.035
-0.08
-0.11
-0.145
-0.125
-0.13
-0.105
-0.075
-0.06
0.005
0.115
0.25
0.4
0.525
0.71
0.87
0.91
0.835
0.815
0.79
0.65
0.465
0.265
0.055
-0.13
-0.28
-0.3
-0.3
-0.3
-0.275
-0.26
-0.255
-0.21
-0.18
-0.15
-0.11
-0.11
-0.09
-0.08
-0.08
-0.09
-0.08
-0.095
-0.115
-0.075
-0.07
-0.075
-0.04
-0.065
-0.06
-0.06
-0.05
-0.055
-0.08
-0.055
-0.065
-0.075
-0.085
-0.065
-0.075
-0.085
-0.07
-0.075
-0.085
-0.055
-0.035
-0.035
-0.035
-0.04
-0.025
-0.035
-0.05
-0.055
-0.065
-0.04
-0.07
-0.085
-0.065
-0.07
-0.04
-0.005
-0.015
-0.04
-0.025
-0.015
-0.045
-0.05
-0.04
-0.015
0.005
0.015
-0.005
-0.03
-0.025
0.0
0.0
0.015
0.03
0.03
0.025
0.01
0.0
-0.03
0.0
0.01
0.025
0.07
0.045
0.085
0.105
0.08
0.08
0.055
0.07
0.07
0.1
0.12
0.12
0.135
0.15
0.13
0.1
0.09
0.115
0.12
0.125
0.16
0.18
0.185
0.175
0.16
0.135
0.14
0.135
0.155
0.145
0.16
0.155
0.165
0.155
0.145
0.095
0.07
0.115
0.11
0.085
0.11
0.075
0.065
0.075
0.03
0.005
-0.005
0.0
-0.025
-0.01
-0.005
0.025
0.0
-0.035
-0.035
-0.045
-0.055
-0.02
-0.05
-0.075
-0.035
-0.02
-0.05
-0.075
-0.06
-0.09
-0.065
-0.095
-0.05
-0.045
-0.055
-0.055
-0.055
-0.05
-0.075
-0.08
-0.1
-0.105
-0.105
-0.105
-0.1
-0.065
-0.025
-0.03
0.0
-0.105
-0.15
-0.1
-0.07
-0.045
-0.09
-0.08
-0.08
-0.07
-0.095
-0.095
-0.045
-0.055
-0.035
-0.065
-0.075
-0.095
-0.075
-0.035
-0.065
-0.065
-0.085
-0.07
-0.07
-0.06
-0.065
-0.08
-0.01
-0.055
-0.04
-0.05
-0.025
-0.075
-0.07
-0.055
-0.065
-0.06
-0.07
-0.045
-0.08
-0.085
-0.06
-0.045
-0.04
-0.05
-0.07
0.005
-0.015
-0.01
-0.01
-0.08
-0.075
-0.055
-0.05
-0.005
-0.005
-0.05
-0.06
-0.07
-0.065
-0.07
-0.04
-0.065
-0.07
-0.09
-0.025
-0.02
-0.025
-0.04
-0.09
-0.08
-0.07
-0.06
-0.06
-0.06
-0.04
-0.03
-0.02
-0.06
-0.085
-0.09
-0.08
-0.085
-0.06
-0.07
-0.055
-0.06
-0.065
-0.06
-0.1
-0.105
-0.07
-0.045
-0.035
-0.06
-0.04
-0.01
-0.025
-0.06
-0.105
-0.1
-0.11
-0.1
-0.055
-0.06
-0.09
-0.07
-0.025
-0.06
-0.085
-0.095
-0.08
-0.08
-0.04
-0.06
-0.07
-0.055
-0.045
-0.03
-0.09
-0.1
-0.075
-0.065
-0.055
-0.04
-0.055
-0.045
-0.055
-0.08
-0.095
-0.11
-0.09
-0.055
-0.04
-0.05
-0.02
0.025
0.0
0.02
0.01
0.0
0.04
0.035
0.065
0.06
0.07
0.09
0.07
0.045
0.015
0.02
0.045
0.04
0.01
0.0
0.005
0.0
-0.015
-0.035
-0.06
-0.065
-0.07
-0.08
-0.075
-0.065
-0.045
-0.07
-0.065
-0.075
-0.085
-0.095
-0.085
-0.085
-0.065
-0.08
-0.05
-0.07
-0.07
-0.095
-0.12
-0.115
-0.075
-0.1
-0.13
-0.12
-0.07
-0.055
-0.065
-0.065
-0.08
-0.07
-0.095
-0.085
-0.07
-0.05
-0.055
-0.06
-0.07
-0.085
-0.11
-0.1
-0.1
-0.095
-0.1
-0.08
-0.06
-0.085
-0.055
0.035
0.215
0.44
0.565
0.705
0.86
0.92
0.885
0.865
0.82
0.69
0.445
0.335
0.14
-0.06
-0.205
-0.29
-0.28
-0.27
-0.26
-0.245
-0.235
-0.165
-0.145
-0.145
-0.085
-0.115
-0.1
-0.09
-0.06
-0.09
-0.105
-0.095
-0.075
-0.08
-0.08
-0.07
-0.05
-0.09
-0.1
-0.11
-0.1
-0.05
-0.07
-0.065
-0.04
-0.045
-0.03
-0.075
-0.085
-0.065
-0.065
-0.05
-0.02
-0.04
-0.04
-0.035
-0.045
-0.06
-0.045
-0.06
-0.02
-0.045
-0.05
-0.05
-0.06
-0.025
0.0
-0.005
-0.025
-0.045
-0.04
-0.025
-0.055
-0.045
-0.025
-0.015
-0.01
-0.025
-0.02
-0.02
0.025
0.015
-0.03
-0.005
0.015
0.005
0.015
0.015
-0.01
0.0
-0.005
0.0
0.005
0.05
0.045
0.06
0.095
0.07
0.065
0.035
0.055
0.045
0.06
0.085
0.11
0.11
0.1
0.11
0.1
0.11
0.135
0.15
0.16
0.16
0.17
0.17
0.18
0.17
0.155
0.12
0.15
0.175
0.165
0.15
0.16
0.19
0.185
0.165
0.145
0.12
0.125
0.11
0.115
0.1
0.08
0.085
0.09
0.085
0.075
0.06
0.025
0.04
0.04
0.03
0.005
0.015
0.015
-0.015
-0.04
-0.05
-0.045
-0.02
-0.025
-0.03
-0.035
-0.025
-0.015
-0.03
-0.025
-0.04
-0.05
-0.065
-0.055
-0.06
-0.06
-0.025
-0.01
-0.03
-0.055
-0.055
-0.065
-0.07
-0.08
-0.095
-0.075
-0.075
-0.045
-0.05
-0.06
-0.075
-0.05
-0.05
-0.025
-0.035
-0.06
-0.05
-0.025
-0.015
-0.045
-0.075
-0.055
-0.065
-0.035
-0.05
-0.05
-0.03
-0.055
-0.035
-0.075
-0.06
-0.05
-0.04
-0.035
-0.025
-0.02
0.0
-0.02
-0.05
-0.075
-0.085
-0.065
-0.06
-0.04
-0.025
-0.005
0.01
-0.01
-0.03
-0.04
-0.035
-0.025
-0.035
-0.03
-0.03
-0.05
-0.045
-0.045
-0.045
-0.045
-0.01
-0.015
-0.03
-0.01
-0.035
-0.03
-0.025
-0.015
-0.025
-0.055
-0.045
-0.035
-0.025
-0.03
-0.015
-0.02
-0.02
-0.025
-0.045
-0.06
-0.045
-0.025
-0.025
-0.025
-0.025
-0.02
-0.015
-0.03
-0.025
-0.06
-0.06
-0.07
-0.03
-0.01
-0.02
-0.015
-0.025
-0.03
-0.045
-0.06
-0.025
-0.035
-0.045
-0.03
-0.03
-0.02
-0.01
-0.02
-0.05
-0.065
-0.055
-0.035
-0.04
-0.02
-0.04
-0.03
-0.04
-0.03
-0.015
-0.06
-0.045
-0.035
-0.06
-0.035
-0.015
-0.015
-0.03
-0.03
-0.055
-0.06
-0.045
-0.045
-0.065
-0.04
-0.02
-0.005
-0.035
-0.055
-0.07
-0.065
-0.045
-0.005
-0.03
-0.04
-0.03
-0.015
-0.015
0.005
-0.02
-0.035
-0.015
-0.04
-0.01
0.015
0.025
0.055
0.025
0.035
0.045
0.035
0.05
0.09
0.1
0.105
0.11
0.11
0.07
0.065
0.025
0.01
0.04
0.025
0.04
0.03
0.005
0.02
-0.005
-0.04
-0.055
-0.025
-0.03
-0.03
-0.02
-0.04
-0.025
-0.035
-0.05
-0.055
-0.08
-0.09
-0.08
-0.1
-0.09
-0.035
-0.025
0.0
-0.03
-0.075
-0.09
-0.07
-0.055
-0.055
-0.05
-0.04
-0.045
-0.035
-0.02
-0.065
-0.08
-0.08
-0.06
-0.03
-0.03
-0.04
-0.065
-0.035
-0.05
-0.08
-0.105
-0.11
-0.105
-0.095
-0.075
-0.075
-0.07
-0.06
0.015
0.095
0.225
0.42
0.585
0.71
0.86
0.88
0.825
0.82
0.755
0.615
0.41
0.25
0.09
-0.105
-0.23
-0.28
-0.28
-0.25
-0.25
-0.235
-0.225
-0.185
-0.16
-0.125
-0.09
-0.07
-0.03
-0.035
-0.055
-0.065
-0.08
-0.055
-0.065
-0.025
-0.04
-0.035
-0.03
-0.05
-0.055
-0.065
-0.065
-0.04
-0.025
-0.035
-0.035
-0.04
-0.01
-0.005
-0.015
-0.055
-0.055
-0.03
-0.025
-0.02
-0.025
-0.04
-0.015
-0.01
-0.01
-0.055
-0.05
-0.055
-0.055
-0.02
0.0
-0.01
-0.005
-0.02
-0.05
-0.01
0.03
0.025
0.01
0.03
0.025
0.035
0.05
0.045
-0.005
0.02
0.04
0.03
0.04
0.055
0.055
0.04
0.05
0.055
0.025
0.015
0.01
0.025
0.045
0.08
0.07
0.09
0.075
0.08
0.07
0.06
0.065
0.085
0.11
0.11
0.135
0.13
0.155
0.145
0.12
0.1
0.145
0.145
0.16
0.165
0.19
0.21
0.215
0.15
0.16
0.18
0.19
0.17
0.18
0.18
0.175
0.185
0.2
0.175
0.165
0.145
0.15
0.145
0.15
0.155
0.125
0.155
0.12
0.09
0.065
0.045
0.05
0.045
0.015
0.0
-0.005
0.025
0.015
0.01
0.0
-0.005
-0.005
-0.02
-0.015
-0.02
-0.05
-0.055
-0.01
0.005
-0.02
-0.025
0.005
-0.005
-0.035
-0.035
-0.045
0.0
0.01
-0.025
-0.05
-0.04
-0.005
-0.02
-0.01
-0.03
-0.035
-0.005
-0.02
-0.03
-0.05
-0.07
-0.045
-0.045
-0.045
-0.03
-0.02
-0.015
-0.015
-0.025
-0.045
-0.065
-0.03
-0.03
-0.025
0.02
-0.025
-0.005
-0.01
-0.02
-0.065
-0.03
-0.03
-0.035
-0.005
-0.015
-0.065
-0.04
-0.025
-0.03
-0.04
-0.025
-0.005
-0.03
-0.02
-0.015
-0.01
0.03
0.005
-0.005
-0.005
-0.02
-0.015
-0.045
-0.045
-0.04
-0.015
0.02
0.01
-0.015
-0.025
-0.015
-0.015
-0.015
-0.005
-0.025
-0.02
0.005
0.015
0.0
-0.015
0.02
0.04
0.0
0.0
0.01
0.035
0.03
0.025
0.0
-0.03
-0.015
-0.03
-0.045
-0.025
-0.01
0.015
0.0
-0.015
-0.015
-0.03
-0.03
-0.02
-0.025
-0.025
-0.01
0.005
0.015
0.005
-0.025
-0.04
-0.015
-0.005
-0.005
0.005
-0.015
0.005
0.025
0.025
0.02
-0.005
-0.01
0.015
0.005
0.015
0.06
0.07
0.065
0.035
0.015
-0.02
-0.01
-0.03
-0.02
-0.03
-0.04
0.015
-0.005
-0.025
-0.055
-0.065
-0.035
0.0
0.02
0.025
0.03
0.015
0.015
-0.01
-0.015
-0.055
-0.055
-0.02
-0.02
-0.015
0.015
0.015
0.01
-0.02
-0.01
0.0
-0.005
-0.01
0.005
-0.005
0.005
0.025
0.025
-0.01
-0.025
-0.03
-0.005
0.025
0.06
0.03
0.01
0.03
0.035
0.0
-0.005
0.02
0.045
0.05
0.055
0.06
0.1
0.155
0.135
0.12
0.1
0.105
0.09
0.085
0.08
0.07
0.05
0.05
0.04
0.01
0.02
0.07
0.06
0.06
0.055
0.05
0.02
0.03
0.035
0.01
-0.015
-0.02
-0.01
-0.01
0.0
0.01
0.005
0.0
-0.01
-0.01
-0.02
0.005
-0.035
0.01
-0.005
-0.035
0.005
0.01
0.005
-0.025
-0.065
-0.03
-0.005
-0.025
-0.04
-0.025
0.01
0.0
0.0
-0.03
-0.045
-0.02
-0.02
-0.05
-0.02
-0.015
-0.035
-0.025
-0.055
-0.055
-0.02
-0.025
-0.075
0.015
0.07
0.19
0.395
0.505
0.64
0.755
0.875
0.89
0.86
0.77
0.715
0.55
0.42
0.275
0.07
-0.185
-0.24
-0.18
-0.13
-0.16
-0.195
-0.115
-0.035
0.015
0.0
-0.1
-0.15
-0.055
-0.065
-0.005
0.005
-0.015
0.02
0.0
-0.01
-0.04
-0.075
-0.005
-0.025
-0.02
0.01
0.015
0.025
-0.03
-0.045
-0.035
-0.055
-0.025
0.005
0.035
0.02
0.0
0.005
-0.015
-0.025
-0.035
-0.01
0.02
0.005
0.0
0.035
0.02
-0.01
0.02
-0.005
-0.015
-0.01
0.01
0.02
0.055
0.085
0.045
0.04
0.035
0.04
0.02
0.035
0.03
0.01
0.015
0.045
0.025
0.045
0.06
0.04
0.03
0.045
0.11
0.07
0.055
0.065
0.09
0.12
0.115
0.11
0.09
0.115
0.105
0.1
0.115
0.115
0.125
0.16
0.19
0.16
0.12
0.135
0.165
0.14
0.175
0.17
0.195
0.21
0.19
0.19
0.195
0.19
0.21
0.23
0.19
0.22
0.25
0.25
0.255
0.22
0.23
0.23
0.23
0.215
0.26
0.225
0.265
0.235
0.195
0.15
0.14
0.165
0.165
0.16
0.135
0.145
0.14
0.11
0.085
0.095
0.045
0.035
0.06
0.075
0.035
0.035
0.035
0.04
0.01
0.01
-0.02
-0.01
-0.005
0.005
0.02
0.015
0.03
0.01
-0.01
-0.015
-0.03
-0.005
-0.005
-0.01
-0.005
-0.005
0.015
0.04
0.015
-0.005
-0.015
-0.02
-0.04
-0.035
-0.035
-0.02
0.025
-0.005
-0.03
-0.04
-0.02
-0.045
-0.06
-0.035
-0.03
-0.045
-0.015
-0.025
-0.03
-0.06
-0.055
-0.035
-0.05
-0.02
-0.02
-0.005
0.005
0.005
-0.035
-0.04
-0.045
-0.05
0.0
-0.015
-0.005
-0.005
0.01
0.01
-0.035
-0.06
-0.065
-0.045
-0.025
0.04
0.01
0.02
0.08
0.01
-0.045
-0.04
-0.02
-0.01
-0.015
-0.02
0.005
0.03
0.04
0.035
-0.01
0.005
-0.005
-0.015
0.005
-0.005
-0.015
0.005
0.02
0.0
-0.035
-0.025
-0.02
-0.04
-0.015
0.025
0.03
0.075
0.015
-0.025
-0.04
-0.025
0.0
0.01
0.02
0.025
0.015
0.03
0.035
-0.005
-0.04
-0.04
0.0
0.025
-0.01
-0.02
-0.01
0.015
0.005
-0.01
-0.01
-0.005
-0.005
-0.005
-0.025
-0.025
-0.035
0.005
0.03
0.02
-0.015
-0.045
-0.02
-0.015
0.02
0.005
0.005
0.035
0.005
0.025
-0.01
-0.04
-0.01
-0.01
-0.025
-0.015
-0.025
-0.01
0.025
0.005
-0.01
-0.005
-0.01
-0.005
-0.02
-0.025
0.0
0.02
0.01
0.005
-0.025
-0.03
-0.015
-0.04
-0.01
0.025
0.04
0.045
0.0
-0.02
-0.01
-0.025
0.005
0.02
-0.025
0.01
-0.01
0.025
0.02
0.01
0.035
0.035
0.05
0.07
0.07
0.14
0.105
-0.02
0.12
0.21
0.085
0.08
0.04
0.035
-0.085
0.005
0.15
0.11
-0.005
-0.07
0.04
-0.02
-0.075
-0.005
-0.065
-0.135
-0.045
0.035
0.02
-0.085
-0.24
-0.295
-0.205
0.07
0.045
-0.06
-0.14
-0.19
-0.2
-0.205
-0.075
-0.015
-0.03
-0.065
-0.045
-0.06
-0.125
-0.13
-0.01
-0.01
-0.08
-0.075
-0.01
-0.045
-0.04
-0.035
-0.055
-0.075
-0.11
-0.085
-0.11
-0.095
-0.07
-0.12
-0.115
-0.11
-0.095
-0.1
-0.15
-0.1
-0.005
0.225
0.45
0.61
0.795
1.0
1.115
1.09
1.05
0.975
0.865
0.7
0.46
0.255
0.045
-0.13
-0.25
-0.255
-0.255
-0.295
-0.27
-0.25
-0.22
-0.195
-0.15
-0.135
-0.075
-0.07
-0.07
-0.09
-0.06
-0.07
-0.05
-0.04
-0.05
-0.03
-0.03
0.005
-0.04
-0.06
-0.06
-0.075
-0.055
-0.045
-0.045
-0.035
-0.04
-0.04
-0.05
-0.09
-0.11
-0.085
-0.055
-0.075
-0.05
-0.02
-0.015
-0.025
-0.055
-0.05
-0.035
-0.005
-0.03
-0.025
-0.055
-0.01
-0.02
-0.005
-0.03
-0.03
-0.04
-0.025
-0.005
0.01
0.005
0.005
0.01
-0.02
-0.065
-0.035
-0.02
-0.01
0.03
0.005
0.005
0.0
0.025
0.005
-0.01
-0.01
0.005
0.005
-0.02
0.015
0.01
0.04
0.075
0.04
0.055
0.045
0.055
0.035
0.06
0.07
0.08
0.135
0.165
0.105
0.11
0.085
0.115
0.115
0.145
0.14
0.145
0.175
0.195
0.155
0.16
0.155
0.165
0.145
0.14
0.16
0.17
0.19
0.16
0.16
0.085
0.095
0.06
0.085
0.095
0.145
0.075
0.1
0.105
0.06
0.07
0.08
0.045
0.005
-0.045
-0.005
-0.025
-0.04
-0.035
-0.035
-0.015
-0.075
-0.08
-0.08
-0.11
-0.095
-0.105
-0.095
-0.065
-0.095
-0.095
-0.13
-0.11
-0.135
-0.125
-0.095
-0.13
-0.125
-0.06
-0.075
-0.125
-0.13
-0.09
-0.135
-0.065
-0.08
-0.07
-0.085
-0.09
-0.105
-0.18
-0.165
-0.145
-0.11
-0.11
-0.13
-0.185
-0.14
-0.065
-0.075
-0.16
-0.145
-0.14
-0.135
-0.13
-0.115
-0.12
-0.12
-0.17
-0.175
-0.16
-0.15
-0.135
-0.16
-0.11
-0.115
-0.105
-0.1
-0.13
-0.135
-0.155
-0.165
-0.145
-0.15
-0.14
-0.17
-0.145
-0.115
-0.115
-0.12
-0.125
-0.15
-0.11
-0.1
-0.11
-0.105
-0.075
-0.115
-0.145
-0.175
-0.185
-0.115
-0.125
-0.16
-0.13
-0.17
-0.095
-0.05
-0.045
-0.085
-0.09
-0.075
-0.115
-0.115
-0.125
-0.12
-0.105
-0.11
-0.115
-0.11
-0.155
-0.155
-0.085
-0.115
-0.1
-0.065
-0.06
-0.07
-0.07
-0.115
-0.115
-0.135
-0.16
-0.165
-0.1
-0.105
-0.075
-0.055
-0.095
-0.07
-0.085
-0.075
-0.085
-0.11
-0.075
-0.06
-0.03
-0.035
-0.075
-0.115
-0.12
-0.1
-0.085
-0.08
-0.05
-0.045
-0.025
-0.055
-0.055
-0.07
-0.1
-0.075
-0.115
-0.095
-0.07
-0.085
-0.065
-0.06
-0.06
-0.055
-0.08
-0.075
-0.11
-0.125
-0.085
-0.065
0.03
0.025
-0.03
-0.03
-0.03
0.015
-0.015
-0.025
0.0
-0.02
0.025
0.025
-0.005
0.015
0.04
0.065
0.08
0.055
0.08
0.08
0.07
0.115
0.075
0.085
0.07
0.11
0.055
0.055
0.05
0.025
0.05
0.02
0.02
0.04
-0.01
0.015
-0.02
-0.01
-0.02
0.0
-0.005
-0.025
-0.06
-0.035
-0.05
-0.04
-0.085
-0.065
-0.065
-0.04
-0.025
-0.05
-0.055
-0.09
-0.07
-0.055
-0.08
-0.095
-0.085
0.005
-0.02
-0.02
-0.105
-0.05
-0.03
-0.045
-0.05
-0.045
-0.06
-0.05
-0.045
-0.04
-0.115
-0.065
-0.1
-0.12
-0.1
0.015
0.015
-0.08
-0.14
-0.195
-0.265
-0.095
-0.065
-0.11
0.005
0.205
0.31
0.58
0.705
0.825
0.98
1.0
0.92
0.8
0.81
0.585
0.525
0.38
0.115
-0.12
-0.28
-0.295
-0.245
-0.22
-0.275
-0.23
-0.185
-0.195
-0.1
-0.08
-0.11
-0.105
-0.06
-0.06
-0.085
-0.065
-0.08
-0.055
-0.02
-0.045
-0.065
-0.075
-0.04
-0.045
-0.045
-0.055
-0.045
-0.03
-0.035
-0.06
-0.09
-0.075
-0.03
-0.035
-0.02
-0.04
-0.05
-0.005
0.0
-0.05
-0.06
-0.06
-0.025
-0.015
-0.005
0.025
-0.005
-0.005
0.015
-0.015
-0.005
-0.035
-0.015
0.015
0.035
-0.005
-0.005
0.02
0.05
0.05
-0.02
0.005
0.0
-0.025
0.0
0.005
0.0
0.015
0.01
-0.005
-0.02
0.02
0.02
-0.025
0.015
0.005
0.045
0.06
0.05
0.05
0.035
0.035
0.055
0.07
0.085
0.12
0.13
0.135
0.1
0.145
0.115
0.1
0.1
0.13
0.115
0.12
0.14
0.13
0.155
0.145
0.145
0.17
0.17
0.17
0.16
0.17
0.18
0.185
0.17
0.165
0.155
0.155
0.155
0.17
0.16
0.155
0.17
0.16
0.14
0.14
0.055
0.07
0.075
0.07
0.055
0.055
0.01
0.025
-0.025
0.045
0.01
0.01
-0.06
-0.02
-0.01
0.015
0.01
-0.06
-0.07
-0.085
-0.08
-0.02
-0.08
-0.05
-0.065
-0.1
-0.085
-0.035
-0.085
-0.07
-0.09
-0.07
-0.06
-0.07
-0.06
-0.04
-0.01
-0.04
-0.095
-0.07
-0.14
-0.1
-0.065
-0.075
-0.06
-0.065
-0.04
-0.065
-0.05
-0.09
-0.095
-0.09
-0.095
-0.055
-0.04
-0.11
-0.07
-0.07
-0.14
-0.145
-0.085
-0.055
-0.075
-0.08
-0.05
-0.055
-0.045
-0.09
-0.11
-0.11
-0.075
-0.05
-0.125
-0.1
-0.11
-0.08
-0.045
-0.055
-0.095
-0.1
-0.13
-0.16
-0.14
-0.14
-0.15
-0.11
-0.06
-0.09
-0.09
-0.08
-0.085
-0.065
-0.04
-0.1
-0.14
-0.105
-0.075
-0.115
-0.12
-0.125
-0.1
-0.07
-0.05
-0.06
-0.08
-0.055
-0.055
-0.11
-0.09
-0.135
-0.085
-0.055
-0.085
-0.055
-0.07
-0.055
-0.095
-0.11
-0.09
-0.11
-0.075
-0.115
-0.08
-0.12
-0.095
-0.08
-0.11
-0.15
-0.14
-0.13
-0.14
-0.095
-0.07
-0.09
-0.055
-0.035
0.005
-0.04
-0.065
-0.09
-0.075
-0.055
-0.045
-0.06
-0.075
-0.095
-0.125
-0.115
-0.085
-0.125
-0.09
-0.095
-0.1
-0.09
-0.09
-0.07
-0.075
-0.07
-0.1
-0.085
-0.055
-0.095
-0.06
-0.05
-0.04
-0.04
-0.005
-0.04
-0.045
-0.08
-0.065
-0.035
-0.04
-0.11
-0.1
0.025
-0.005
-0.035
-0.02
0.02
-0.015
0.055
0.065
0.065
0.08
0.095
0.09
0.015
-0.015
-0.045
0.015
0.025
-0.05
-0.075
-0.08
-0.035
-0.025
-0.04
-0.07
-0.075
-0.08
-0.07
-0.115
-0.13
-0.09
-0.08
-0.115
-0.12
-0.13
-0.13
-0.1
-0.135
-0.085
-0.085
-0.085
-0.08
-0.05
-0.125
-0.18
-0.1
-0.095
-0.12
-0.12
-0.05
-0.085
-0.16
-0.105
-0.145
-0.105
-0.135
-0.13
-0.175
-0.07
-0.125
-0.13
-0.12
-0.115
-0.135
-0.21
-0.185
-0.175
-0.255
-0.17
-0.155
-0.175
-0.18
-0.15
-0.055
0.145
0.4
0.56
0.72
0.94
1.075
1.085
1.045
0.98
0.925
0.75
0.515
0.295
0.07
-0.12
-0.27
-0.32
-0.325
-0.345
-0.36
-0.31
-0.29
-0.265
-0.21
-0.15
-0.12
-0.115
-0.115
-0.13
-0.17
-0.18
-0.155
-0.15
-0.155
-0.16
-0.15
-0.13
-0.125
-0.14
-0.13
-0.13
-0.13
-0.12
-0.125
-0.08
-0.11
-0.13
-0.085
-0.12
-0.11
-0.12
-0.11
-0.095
-0.1
-0.09
-0.075
-0.1
-0.115
-0.12
-0.12
-0.12
-0.05
-0.045
-0.04
-0.065
-0.055
0.01
-0.085
-0.105
-0.11
-0.115
-0.08
-0.05
-0.045
-0.055
-0.035
-0.03
-0.035
-0.08
-0.085
-0.105
-0.09
-0.065
-0.005
-0.03
-0.03
-0.05
-0.01
-0.025
-0.055
-0.09
-0.02
-0.045
0.01
0.02
0.005
0.015
0.045
0.055
0.05
0.035
0.035
0.05
0.105
0.14
0.045
0.065
0.055
0.125
0.13
0.155
0.145
0.15
0.145
0.185
0.185
0.18
0.205
0.18
0.14
0.155
0.155
0.14
0.11
0.115
0.14
0.105
0.105
0.1
0.115
0.18
0.1
0.11
0.175
0.16
0.135
0.13
0.09
0.055
0.04
0.04
0.035
-0.01
0.01
-0.005
-0.01
-0.015
-0.035
-0.05
-0.06
-0.025
0.005
-0.055
-0.075
-0.045
-0.06
-0.075
-0.055
-0.07
-0.11
-0.075
-0.07
-0.09
-0.095
-0.085
-0.09
-0.065
-0.055
-0.055
-0.035
-0.04
-0.065
-0.085
-0.07
-0.08
-0.07
-0.1
-0.135
-0.14
-0.115
-0.1
-0.065
-0.075
-0.095
-0.09
-0.075
-0.05
-0.04
-0.045
-0.1
-0.095
-0.115
-0.105
-0.095
-0.07
-0.065
-0.065
-0.045
-0.08
-0.085
-0.09
-0.11
-0.075
-0.08
-0.11
-0.05
-0.03
-0.035
-0.04
-0.075
-0.075
-0.055
-0.035
-0.06
-0.05
-0.04
-0.055
-0.055
-0.065
-0.085
-0.05
-0.05
-0.06
-0.065
-0.045
-0.015
-0.025
-0.06
-0.075
-0.075
-0.05
-0.04
-0.015
-0.03
-0.05
-0.02
-0.03
-0.025
-0.035
-0.015
-0.035
-0.05
-0.035
-0.04
-0.01
-0.015
-0.015
-0.07
-0.075
-0.09
-0.07
-0.02
-0.02
-0.025
0.0
-0.005
-0.03
-0.025
-0.05
-0.06
-0.06
-0.05
-0.035
-0.01
-0.015
-0.02
-0.02
-0.065
-0.08
-0.06
-0.055
-0.025
-0.01
0.005
-0.01
-0.025
-0.035
-0.07
-0.085
-0.05
-0.025
-0.05
-0.04
-0.015
0.03
0.03
-0.015
-0.045
-0.06
-0.015
0.02
-0.015
-0.015
0.0
0.04
0.06
0.055
0.055
0.08
0.1
0.1
0.1
0.105
0.095
0.11
0.1
0.085
0.06
0.025
0.025
0.035
0.05
0.045
0.01
0.02
0.0
0.02
-0.02
-0.045
-0.035
-0.06
-0.075
-0.065
-0.075
-0.035
-0.04
-0.065
-0.085
-0.075
-0.065
-0.07
-0.065
-0.045
-0.05
-0.07
-0.085
-0.085
-0.085
-0.09
-0.075
-0.08
-0.08
-0.08
-0.075
-0.095
-0.1
-0.105
-0.1
-0.095
-0.045
-0.03
-0.045
-0.065
-0.055
-0.04
-0.05
-0.08
-0.11
-0.13
-0.13
-0.135
-0.155
-0.15
-0.14
-0.11
-0.065
0.0
0.115
0.31
0.515
0.705
0.875
1.03
1.02
0.995
0.98
0.895
0.765
0.51
0.33
0.12
-0.065
-0.22
-0.275
-0.285
-0.27
-0.27
-0.265
-0.225
-0.2
-0.15
-0.11
-0.11
-0.11
-0.085
-0.09
-0.09
-0.11
-0.1
-0.075
-0.07
-0.06
-0.055
-0.05
-0.04
-0.06
-0.075
-0.085
-0.05
-0.045
-0.055
-0.045
-0.065
-0.015
-0.035
-0.035
-0.045
-0.08
-0.085
-0.06
-0.05
-0.045
-0.025
0.02
0.005
-0.01
-0.06
-0.04
-0.055
-0.065
-0.03
-0.025
0.02
-0.015
-0.01
-0.005
0.01
-0.075
-0.03
0.0
-0.035
-0.03
0.055
0.02
0.015
0.0
-0.015
-0.03
-0.015
0.01
0.005
0.015
0.02
0.03
0.03
0.06
0.075
0.07
0.045
0.015
0.06
0.095
0.095
0.09
0.08
0.055
0.065
0.075
0.08
0.135
0.145
0.14
0.175
0.2
0.145
0.16
0.165
0.17
0.17
0.17
0.175
0.185
0.21
0.225
0.23
0.165
0.175
0.175
0.16
0.205
0.205
0.23
0.205
0.2
0.185
0.185
0.18
0.18
0.19
0.15
0.15
0.15
0.175
0.175
0.12
0.095
0.05
0.085
0.08
0.05
0.075
0.055
0.06
0.06
0.0
0.015
-0.02
0.0
-0.005
-0.005
0.0
0.01
-0.005
-0.005
-0.01
-0.035
-0.04
-0.015
-0.055
-0.045
-0.05
-0.05
-0.015
-0.025
-0.035
-0.06
-0.06
-0.045
-0.045
-0.045
-0.025
-0.015
-0.01
-0.015
-0.03
-0.02
-0.04
-0.07
-0.08
-0.08
-0.07
-0.04
-0.015
-0.03
-0.035
-0.04
-0.05
-0.06
-0.055
-0.045
-0.035
-0.045
-0.045
-0.03
-0.035
-0.065
-0.075
-0.055
-0.055
-0.1
-0.075
-0.045
-0.035
-0.055
-0.04
-0.08
-0.07
-0.045
-0.06
-0.045
-0.05
-0.045
0.0
-0.02
-0.045
-0.06
-0.1
-0.12
-0.08
-0.05
-0.06
-0.03
-0.01
-0.05
-0.035
-0.065
-0.095
-0.08
-0.07
-0.07
-0.06
-0.045
-0.02
-0.03
-0.04
-0.06
-0.06
-0.07
-0.085
-0.095
-0.1
-0.07
-0.035
-0.035
-0.035
-0.08
-0.1
-0.04
-0.045
-0.055
-0.055
-0.03
-0.045
-0.065
-0.09
-0.085
-0.1
-0.1
-0.1
-0.08
-0.07
-0.06
-0.03
-0.03
-0.05
-0.055
-0.065
-0.065
-0.085
-0.085
-0.055
-0.065
-0.05
-0.065
-0.07
-0.06
-0.035
-0.06
-0.06
-0.035
-0.03
-0.025
-0.045
-0.055
-0.035
-0.03
-0.015
0.01
0.015
0.04
0.04
0.07
0.075
0.05
0.055
0.055
0.04
0.035
0.0
0.02
0.005
-0.01
0.01
-0.015
-0.03
-0.04
-0.01
-0.025
-0.025
-0.035
-0.05
-0.045
-0.07
-0.06
-0.075
-0.105
-0.075
-0.07
-0.06
-0.055
-0.055
-0.02
-0.02
-0.055
-0.08
-0.105
-0.09
-0.05
-0.08
-0.08
-0.055
-0.025
-0.04
-0.06
-0.07
-0.065
-0.065
-0.09
-0.03
-0.025
-0.05
-0.04
-0.045
-0.065
-0.085
-0.095
-0.08
-0.08
-0.065
-0.08
-0.08
-0.075
-0.1
-0.08
-0.075
-0.095
-0.075
-0.055
0.03
0.19
0.345
0.475
0.61
0.735
0.8
0.75
0.74
0.735
0.685
0.54
0.36
0.255
0.07
-0.14
-0.265
-0.29
-0.275
-0.255
-0.24
-0.185
-0.165
-0.11
-0.065
-0.08
-0.1
-0.11
-0.065
-0.055
-0.06
-0.06
-0.075
-0.04
-0.03
-0.06
-0.105
-0.1
-0.075
-0.085
-0.06
-0.04
-0.04
-0.025
-0.02
-0.045
-0.06
-0.055
-0.06
-0.05
-0.055
-0.055
-0.01
0.005
-0.035
-0.045
-0.06
-0.05
-0.055
-0.06
-0.04
-0.005
-0.005
0.03
0.0
-0.065
-0.05
-0.04
-0.04
-0.025
-0.025
-0.01
0.005
0.015
-0.015
-0.02
-0.03
-0.025
-0.005
-0.02
-0.01
0.005
0.01
0.02
0.01
-0.015
-0.01
0.01
0.03
0.015
0.035
0.04
0.05
0.07
0.055
0.045
0.015
0.03
0.075
0.075
0.08
0.1
0.11
0.1
0.1
0.095
0.085
0.1
0.105
0.1
0.12
0.12
0.145
0.18
0.17
0.15
0.15
0.19
0.17
0.18
0.17
0.2
0.185
0.18
0.16
0.09
0.08
0.16
0.16
0.16
0.175
0.165
0.175
0.145
0.11
0.095
0.075
0.075
0.06
0.07
0.065
0.055
0.075
0.055
0.015
0.01
-0.02
-0.01
0.005
0.01
-0.02
-0.035
-0.05
-0.075
-0.065
-0.04
-0.05
-0.03
-0.03
0.025
-0.015
-0.02
-0.015
-0.035
-0.06
-0.075
-0.095
-0.07
-0.07
-0.03
-0.02
0.0
0.01
-0.015
-0.045
-0.07
-0.04
-0.02
-0.045
-0.035
-0.055
-0.045
-0.04
-0.04
-0.055
-0.08
-0.055
-0.055
-0.065
-0.045
-0.035
-0.04
-0.03
-0.045
-0.065
-0.065
-0.06
-0.055
-0.02
-0.07
-0.065
-0.045
-0.045
-0.045
-0.05
-0.095
-0.05
-0.04
-0.025
-0.03
-0.045
-0.025
-0.035
-0.05
-0.045
-0.085
-0.085
-0.055
-0.045
-0.03
-0.035
-0.025
-0.04
-0.05
-0.065
-0.08
-0.065
-0.065
-0.07
-0.045
-0.055
-0.05
-0.055
-0.055
-0.07
-0.08
-0.065
-0.06
-0.045
-0.045
-0.05
-0.05
-0.04
-0.045
-0.055
-0.08
-0.075
-0.075
-0.05
-0.045
-0.045
-0.025
-0.03
-0.05
-0.065
-0.085
-0.1
-0.04
-0.015
-0.035
-0.045
-0.035
-0.03
-0.045
-0.075
-0.08
-0.065
-0.095
-0.04
-0.045
-0.065
-0.015
-0.055
-0.095
-0.08
-0.14
-0.095
-0.09
-0.06
-0.05
-0.05
-0.045
-0.045
-0.045
-0.055
-0.075
-0.065
-0.08
-0.08
-0.05
-0.05
-0.025
-0.04
-0.035
-0.065
-0.065
-0.065
-0.06
-0.035
-0.02
0.005
0.025
0.02
-0.01
-0.01
-0.015
0.015
0.035
0.04
0.055
0.085
0.06
0.04
-0.005
0.0
-0.005
0.0
-0.01
-0.01
-0.045
-0.045
-0.045
-0.07
-0.085
-0.105
-0.095
-0.08
-0.085
-0.085
-0.095
-0.065
-0.06
-0.05
-0.09
-0.105
-0.085
-0.07
-0.09
-0.065
-0.07
-0.055
-0.07
-0.065
-0.075
-0.105
-0.09
-0.09
-0.115
-0.095
-0.095
-0.085
-0.06
-0.08
-0.095
-0.12
-0.105
-0.115
-0.125
-0.105
-0.085
-0.075
-0.1
-0.115
-0.12
-0.12
-0.125
-0.09
-0.06
-0.095
-0.095
-0.06
-0.08
-0.04
-0.015
0.12
0.29
0.46
0.62
0.745
0.76
0.725
0.695
0.65
0.555
0.4
0.285
0.155
-0.05
-0.2
-0.26
-0.29
-0.28
-0.28
-0.255
-0.215
-0.16
-0.125
-0.115
-0.115
-0.11
-0.085
-0.095
-0.11
-0.085
-0.125
-0.09
-0.09
-0.075
-0.095
-0.08
-0.05
-0.085
-0.11
-0.12
-0.13
-0.09
-0.05
-0.01
-0.05
-0.065
