# TIPE ECG 2021 - ECG-ID Database v1.0.0 par Physionet
# [N° de la personne, N° de l'enregistrement, Période d'échantillonnage, Prénom, Age, Sexe, Date de l'enregistrement]
[3, 2, 0.002, "Camille", 23, "F", "15.03.2005"]
0.0
0.055
0.26
0.435
0.515
0.505
0.475
0.28
0.05
-0.07
0.065
0.115
0.29
0.41
0.5
0.48
0.445
0.25
0.045
0.045
0.08
0.155
0.395
0.54
0.51
0.48
0.415
0.25
0.105
0.04
0.11
0.155
0.33
0.525
0.575
0.535
0.465
0.245
0.115
0.04
0.105
0.21
0.385
0.56
0.53
0.38
0.365
0.15
0.02
0.01
0.06
0.125
0.315
0.465
0.52
0.475
0.38
0.15
-0.025
0.02
0.03
0.09
0.25
0.445
0.455
0.415
0.355
0.16
0.015
-0.065
0.055
0.155
0.31
0.45
0.47
0.395
0.355
0.17
0.055
0.02
0.0
0.145
0.35
0.455
0.475
0.505
0.39
0.145
-0.055
-0.085
-0.01
0.115
0.26
0.355
0.37
0.345
0.275
0.275
0.235
0.32
0.52
0.86
1.22
1.395
1.47
1.445
1.325
1.115
1.015
0.9
0.55
0.515
0.57
0.635
0.62
0.49
0.315
0.11
0.04
0.03
0.065
0.265
0.475
0.575
0.52
0.49
0.305
0.08
-0.04
0.035
0.06
0.295
0.42
0.49
0.44
0.39
0.25
0.1
0.015
0.025
0.055
0.23
0.4
0.53
0.51
0.43
0.235
0.075
0.0
0.005
0.105
0.295
0.44
0.515
0.48
0.455
0.225
0.03
0.025
0.025
0.07
0.27
0.495
0.53
0.48
0.44
0.28
0.07
0.02
0.06
0.115
0.325
0.48
0.515
0.46
0.47
0.225
0.01
-0.005
0.075
0.175
0.355
0.505
0.59
0.535
0.45
0.285
0.105
0.045
0.08
0.135
0.365
0.51
0.575
0.485
0.405
0.295
0.115
0.08
0.13
0.22
0.405
0.555
0.56
0.525
0.49
0.29
0.145
0.12
0.195
0.275
0.48
0.575
0.62
0.56
0.495
0.275
0.145
0.185
0.18
0.33
0.54
0.675
0.715
0.67
0.515
0.33
0.16
0.18
0.22
0.355
0.535
0.68
0.755
0.675
0.57
0.395
0.265
0.245
0.295
0.43
0.63
0.74
0.73
0.69
0.515
0.345
0.21
0.195
0.26
0.375
0.555
0.73
0.72
0.62
0.44
0.255
0.17
0.185
0.19
0.305
0.505
0.58
0.485
0.445
0.295
0.125
0.05
0.08
0.095
0.245
0.465
0.565
0.54
0.455
0.24
0.09
-0.01
0.025
0.09
0.285
0.405
0.46
0.45
0.425
0.265
0.07
-0.01
-0.06
0.07
0.335
0.47
0.525
0.51
0.395
0.215
-0.035
-0.115
-0.045
0.02
0.21
0.415
0.51
0.52
0.425
0.25
0.06
-0.02
0.065
0.09
0.33
0.47
0.49
0.48
0.39
0.17
0.045
0.01
0.02
0.13
0.315
0.46
0.46
0.42
0.42
0.205
0.055
-0.005
-0.015
0.05
0.3
0.46
0.47
0.48
0.375
0.21
0.03
-0.05
0.03
0.1
0.3
0.46
0.515
0.55
0.455
0.21
0.035
-0.01
0.01
0.12
0.3
0.48
0.51
0.435
0.35
0.14
0.035
0.025
0.055
0.145
0.32
0.48
0.555
0.455
0.35
0.145
-0.02
0.025
0.01
0.09
0.355
0.49
0.49
0.44
0.35
0.145
0.01
-0.01
0.065
0.15
0.36
0.49
0.465
0.435
0.315
0.12
-0.005
0.0
0.045
0.155
0.365
0.485
0.495
0.435
0.31
0.1
-0.035
-0.025
0.055
0.195
0.375
0.475
0.49
0.45
0.305
0.09
0.01
0.04
0.09
0.27
0.445
0.525
0.505
0.45
0.265
0.095
0.025
0.04
0.105
0.26
0.4
0.515
0.555
0.485
0.35
0.14
-0.005
0.01
0.065
0.275
0.5
0.575
0.56
0.53
0.345
0.115
0.025
0.04
0.105
0.325
0.485
0.6
0.51
0.405
0.24
0.045
-0.035
-0.01
0.035
0.205
0.43
0.495
0.475
0.48
0.285
0.065
-0.015
0.005
0.0
0.18
0.365
0.495
0.515
0.445
0.22
0.005
-0.01
0.035
0.08
0.26
0.44
0.46
0.46
0.425
0.19
0.005
-0.02
-0.005
0.065
0.24
0.42
0.495
0.445
0.375
0.195
-0.01
-0.065
-0.015
0.035
0.19
0.36
0.43
0.415
0.385
0.205
0.085
0.2
0.34
0.54
0.885
1.23
1.345
1.36
1.25
1.065
0.91
0.86
0.695
0.53
0.525
0.54
0.585
0.535
0.405
0.19
0.02
-0.015
0.05
0.175
0.37
0.475
0.485
0.475
0.39
0.165
-0.005
-0.015
0.04
0.165
0.395
0.475
0.48
0.41
0.345
0.145
-0.045
-0.03
0.005
0.185
0.4
0.52
0.51
0.445
0.29
0.12
-0.02
0.005
0.06
0.13
0.265
0.505
0.54
0.47
0.3
0.055
0.035
-0.005
0.0
0.225
0.39
0.48
0.48
0.42
0.27
0.13
0.0
0.025
0.075
0.235
0.46
0.585
0.525
0.41
0.29
0.095
0.02
0.005
0.08
0.285
0.485
0.54
0.555
0.475
0.3
0.085
0.005
0.035
0.075
0.28
0.5
0.6
0.575
0.48
0.26
0.04
0.03
0.065
0.16
0.335
0.49
0.61
0.625
0.545
0.335
0.135
0.035
0.055
0.095
0.345
0.56
0.67
0.56
0.535
0.375
0.21
0.17
0.185
0.245
0.425
0.6
0.705
0.65
0.55
0.405
0.195
0.15
0.19
0.305
0.51
0.66
0.745
0.775
0.65
0.41
0.22
0.175
0.235
0.285
0.51
0.68
0.725
0.67
0.625
0.405
0.26
0.235
0.24
0.355
0.55
0.67
0.695
0.635
0.575
0.285
0.135
0.12
0.145
0.16
0.42
0.575
0.605
0.525
0.44
0.19
0.05
0.035
0.09
0.145
0.27
0.44
0.455
0.445
0.36
0.14
-0.03
-0.06
-0.005
0.15
0.345
0.475
0.525
0.485
0.36
0.15
-0.02
0.0
0.01
0.17
0.33
0.495
0.5
0.445
0.365
0.125
0.03
0.06
0.015
0.2
0.43
0.57
0.47
0.395
0.315
0.07
-0.045
-0.06
0.015
0.09
0.375
0.55
0.555
0.43
0.265
0.06
0.0
0.01
0.025
0.21
0.36
0.495
0.53
0.45
0.31
0.16
0.01
-0.015
0.03
0.19
0.375
0.505
0.515
0.485
0.3
0.07
-0.025
-0.02
0.02
0.22
0.42
0.49
0.48
0.435
0.275
0.105
-0.085
-0.025
0.08
0.255
0.405
0.475
0.45
0.45
0.255
0.065
-0.01
-0.005
0.075
0.275
0.415
0.445
0.465
0.47
0.225
0.01
-0.025
0.055
0.13
0.29
0.41
0.445
0.43
0.36
0.19
0.025
-0.055
0.005
0.065
0.225
0.39
0.485
0.465
0.38
0.225
0.055
0.005
0.01
0.035
0.3
0.475
0.55
0.48
0.385
0.12
-0.05
-0.14
0.0
0.14
0.375
0.47
0.52
0.47
0.35
0.17
0.04
0.015
0.095
0.145
0.335
0.485
0.545
0.505
0.415
0.185
0.04
0.04
0.04
0.145
0.42
0.535
0.515
0.435
0.385
0.195
-0.005
0.0
0.045
0.145
0.35
0.5
0.505
0.455
0.39
0.085
-0.07
-0.08
0.0
0.125
0.33
0.465
0.47
0.425
0.34
0.085
-0.035
-0.075
-0.005
0.135
0.32
0.435
0.505
0.48
0.205
0.09
-0.06
-0.04
-0.02
0.095
0.375
0.46
0.385
0.425
0.255
0.105
-0.055
-0.12
-0.055
0.145
0.38
0.525
0.5
0.47
0.32
0.04
-0.105
-0.2
-0.11
0.04
0.3
0.415
0.505
0.61
0.53
0.43
0.51
0.64
0.775
0.97
1.23
1.315
1.35
1.335
1.105
0.585
0.175
0.13
0.095
0.285
0.495
0.56
0.5
0.425
0.24
0.055
-0.055
-0.03
0.045
0.25
0.41
0.47
0.415
0.41
0.275
0.05
-0.02
-0.045
0.04
0.245
0.49
0.5
0.445
0.425
0.205
0.01
-0.03
-0.05
0.01
0.25
0.455
0.5
0.44
0.39
0.15
-0.02
-0.02
0.06
0.09
0.295
0.475
0.535
0.44
0.385
0.21
0.0
-0.035
0.005
0.085
0.285
0.47
0.525
0.5
0.41
0.14
-0.015
-0.075
0.04
0.145
0.29
0.48
0.525
0.485
0.38
0.185
0.025
-0.005
0.06
0.195
0.3
0.45
0.51
0.43
0.375
0.165
0.01
0.01
0.08
0.145
0.36
0.495
0.53
0.42
0.44
0.2
0.085
0.01
0.03
0.19
0.41
0.55
0.615
0.59
0.405
0.205
0.11
0.03
0.115
0.245
0.4
0.64
0.595
0.53
0.375
0.165
0.045
0.04
0.155
0.3
0.54
0.675
0.675
0.635
0.46
0.195
0.15
0.17
0.24
0.415
0.615
0.71
0.655
0.605
0.49
0.27
0.155
0.185
0.265
0.49
0.56
0.67
0.66
0.625
0.44
0.25
0.125
0.155
0.16
0.345
0.525
0.685
0.52
0.475
0.33
0.115
-0.005
0.05
0.045
0.305
0.445
0.52
0.52
0.405
0.225
0.005
-0.1
-0.06
0.005
0.21
0.46
0.49
0.445
0.42
0.195
-0.025
-0.09
-0.055
-0.06
0.14
0.375
0.47
0.455
0.395
0.145
-0.015
-0.14
-0.09
0.005
0.195
0.36
0.46
0.46
0.41
0.165
-0.015
-0.065
-0.025
0.045
0.25
0.41
0.51
0.465
0.365
0.155
0.01
-0.085
-0.07
0.05
0.215
0.425
0.4
0.37
0.325
0.165
-0.035
-0.025
0.03
0.095
0.305
0.425
0.415
0.36
0.32
0.105
-0.075
-0.07
0.01
0.11
0.305
0.425
0.48
0.41
0.34
0.1
-0.08
-0.07
0.0
0.09
0.31
0.455
0.485
0.465
0.36
0.145
-0.065
-0.09
-0.035
0.075
0.32
0.44
0.395
0.41
0.27
0.085
-0.045
-0.095
0.0
0.16
0.335
0.455
0.42
0.4
0.3
0.03
-0.115
-0.125
-0.035
0.155
0.34
0.465
0.475
0.395
0.245
0.06
-0.045
0.005
0.065
0.125
0.3
0.43
0.43
0.365
0.19
0.03
-0.075
-0.075
0.055
0.145
0.4
0.43
0.415
0.345
0.215
0.025
-0.04
-0.02
0.035
0.22
0.365
0.48
0.45
0.37
0.225
0.035
-0.045
0.03
0.055
0.265
0.43
0.49
0.465
0.485
0.27
0.01
-0.09
-0.05
0.035
0.275
0.42
0.525
0.565
0.465
0.165
0.02
-0.05
-0.055
0.005
0.185
0.41
0.445
0.395
0.37
0.17
-0.01
-0.13
-0.015
0.055
0.255
0.435
0.455
0.405
0.345
0.16
0.005
-0.055
-0.06
0.0
0.245
0.435
0.47
0.48
0.455
0.205
0.005
-0.04
-0.115
-0.055
0.185
0.4
0.49
0.46
0.4
0.18
-0.01
-0.11
-0.05
0.02
0.155
0.34
0.375
0.375
0.34
0.175
0.09
0.17
0.335
0.52
0.88
1.205
1.395
1.385
1.235
1.115
1.015
0.965
1.005
0.725
0.655
0.69
0.635
0.535
0.43
0.18
0.045
-0.035
0.035
0.195
0.39
0.55
0.56
0.51
0.385
0.12
-0.055
-0.06
0.065
0.2
0.37
0.51
0.49
0.38
0.37
0.105
0.045
-0.01
-0.025
0.18
0.395
0.5
0.52
0.47
0.36
0.14
0.035
-0.065
-0.005
0.13
0.33
0.495
0.515
0.42
0.275
0.105
0.005
0.005
0.1
0.28
0.475
0.595
0.47
0.385
0.295
0.125
-0.08
-0.055
0.055
0.26
0.395
0.48
0.505
0.46
0.24
0.05
-0.005
0.02
0.09
0.255
0.425
0.56
0.53
0.435
0.255
0.075
-0.015
0.03
0.105
0.265
0.445
0.565
0.57
0.575
0.31
0.055
-0.065
0.03
0.115
0.325
0.5
0.545
0.53
0.51
0.31
0.105
0.045
0.065
0.145
0.37
0.555
0.59
0.515
0.505
0.29
0.125
0.055
0.105
0.195
0.415
0.61
0.705
0.685
0.615
0.39
0.16
0.12
0.2
0.31
0.57
0.695
0.69
0.645
0.605
0.4
0.285
0.225
0.255
0.32
0.535
0.71
0.72
0.72
0.625
0.325
0.22
0.155
0.225
0.31
0.455
0.595
0.705
0.595
0.475
0.28
0.115
0.08
0.13
0.25
0.43
0.56
0.61
0.485
0.425
0.185
0.02
0.03
0.05
0.19
0.355
0.525
0.495
0.425
0.335
0.1
-0.005
0.005
0.03
0.165
0.4
0.5
0.515
0.435
0.28
0.125
-0.015
-0.065
0.02
0.21
0.4
0.54
0.495
0.425
0.295
0.085
-0.06
-0.03
-0.015
0.18
0.375
0.45
0.495
0.475
0.325
0.135
0.01
-0.05
0.025
0.225
0.415
0.435
0.43
0.43
0.265
0.04
-0.07
-0.035
0.005
0.19
0.425
0.535
0.525
0.47
0.295
0.12
0.065
0.02
0.065
0.185
0.36
0.51
0.5
0.425
0.255
0.08
-0.05
-0.015
0.05
0.245
0.43
0.51
0.46
0.39
0.195
0.01
-0.07
-0.045
0.05
0.235
0.415
0.5
0.46
0.415
0.18
0.02
-0.065
0.0
0.09
0.29
0.47
0.53
0.49
0.39
0.155
-0.02
-0.04
0.03
0.105
0.28
0.41
0.455
0.375
0.385
0.175
-0.015
-0.085
-0.08
0.085
0.25
0.45
0.465
0.42
0.34
0.135
-0.075
-0.055
0.015
0.1
0.3
0.45
0.475
0.435
0.335
0.125
-0.02
-0.03
0.02
0.06
0.27
0.495
0.465
0.45
0.355
0.13
-0.105
-0.155
-0.01
0.08
0.285
0.425
0.525
0.405
0.325
0.13
0.025
-0.015
-0.03
0.105
0.31
0.455
0.53
0.41
0.35
0.15
-0.005
0.005
0.03
0.175
0.34
0.46
0.52
0.525
0.36
0.185
0.07
-0.01
0.09
0.2
0.35
0.535
0.545
0.53
0.36
0.09
-0.035
-0.035
0.01
0.16
0.36
0.525
0.47
0.42
0.22
0.08
0.015
-0.015
0.02
0.15
0.36
0.42
0.43
0.45
0.235
0.055
-0.04
-0.045
0.015
0.205
0.365
0.45
0.485
0.445
0.275
-0.025
-0.03
-0.045
-0.06
0.18
0.425
0.465
0.46
0.43
0.24
0.07
-0.075
-0.11
0.005
0.185
0.365
0.42
0.415
0.355
0.14
-0.045
-0.14
-0.09
-0.04
0.19
0.495
0.605
0.72
0.78
0.78
0.8
0.77
0.92
1.025
1.26
1.44
1.52
1.435
1.18
0.595
0.255
0.13
0.095
0.105
0.3
0.5
0.605
0.53
0.45
0.24
0.045
-0.105
-0.075
-0.015
0.235
0.465
0.525
0.455
0.36
0.15
-0.075
-0.07
-0.01
0.055
0.25
0.445
0.48
0.48
0.375
0.145
-0.035
-0.05
-0.015
0.07
0.24
0.42
0.465
0.425
0.375
0.1
0.0
-0.035
0.05
0.145
0.385
0.5
0.43
0.395
0.365
0.155
0.005
-0.055
0.06
0.15
0.3
0.4
0.38
0.36
0.315
0.07
-0.04
-0.1
0.0
0.11
0.37
0.485
0.495
0.43
0.32
0.08
-0.04
-0.05
0.03
0.155
0.36
0.485
0.505
0.47
0.315
0.095
-0.015
-0.06
0.05
0.15
0.36
0.59
0.485
0.395
0.26
0.145
-0.025
0.0
-0.015
0.2
0.415
0.51
0.545
0.47
0.355
0.175
0.05
0.06
0.08
0.21
0.465
0.575
0.565
0.545
0.36
0.23
0.135
0.145
0.17
0.335
0.47
0.585
0.57
0.52
0.345
0.2
0.155
0.2
0.23
0.39
0.615
0.65
0.66
0.625
0.405
0.165
0.105
0.16
0.23
0.505
0.64
0.73
0.575
0.475
0.325
0.13
0.06
0.115
0.16
0.36
0.555
0.62
0.57
0.465
0.255
0.075
-0.015
0.035
0.015
0.23
0.41
0.475
0.42
0.35
0.14
-0.08
-0.135
-0.04
-0.04
0.275
0.445
0.4
0.38
0.335
0.12
-0.1
-0.14
-0.06
-0.01
0.23
0.41
0.49
0.455
0.38
0.11
-0.055
-0.145
-0.055
0.045
0.17
0.3
0.375
0.39
0.315
0.105
-0.055
-0.135
-0.095
0.02
0.25
0.405
0.415
0.325
0.285
0.085
-0.08
-0.12
-0.115
0.01
0.225
0.39
0.39
0.385
0.24
0.065
-0.065
-0.105
-0.135
-0.015
0.265
0.355
0.36
0.325
0.235
0.025
-0.11
-0.115
-0.12
0.085
0.305
0.345
0.395
0.335
0.19
-0.04
-0.18
-0.15
-0.075
0.07
0.275
0.39
0.4
0.385
0.205
-0.045
-0.245
-0.2
-0.15
0.035
0.3
0.48
0.425
0.295
0.125
-0.09
-0.22
-0.11
-0.055
0.05
0.255
0.385
0.33
0.315
0.13
-0.095
-0.19
-0.19
-0.155
0.055
0.24
0.35
0.35
0.37
0.19
-0.065
-0.205
-0.1
-0.11
0.035
0.21
0.315
0.33
0.32
0.1
-0.105
-0.225
-0.18
-0.115
0.115
0.32
0.355
0.375
0.3
0.025
-0.125
-0.215
-0.19
-0.135
0.125
0.29
0.35
0.32
0.245
0.045
-0.135
-0.215
-0.125
-0.11
0.095
0.31
0.32
0.305
0.245
0.04
-0.15
-0.2
-0.155
-0.1
0.115
0.335
0.37
0.285
0.245
0.03
-0.17
-0.19
-0.125
-0.075
0.14
0.29
0.36
0.33
0.215
0.085
0.0
-0.04
0.035
0.0
0.11
0.305
0.355
0.34
0.245
0.005
-0.145
-0.205
-0.135
-0.03
0.125
0.35
0.37
0.28
0.18
-0.025
-0.13
-0.175
-0.15
-0.04
0.145
0.3
0.285
0.245
0.135
-0.09
-0.215
-0.24
-0.1
-0.005
0.175
0.305
0.26
0.34
0.2
-0.055
-0.24
-0.22
-0.2
-0.075
0.155
0.285
0.33
0.28
0.14
-0.035
-0.16
-0.135
-0.125
-0.07
0.06
0.24
0.3
0.235
0.04
-0.165
-0.25
-0.19
-0.15
-0.005
0.18
0.27
0.245
0.15
0.0
-0.195
-0.29
-0.28
-0.16
0.145
0.44
0.575
0.73
0.865
0.83
0.74
0.725
0.75
0.805
1.05
1.225
1.23
0.93
0.64
0.31
0.045
-0.115
-0.105
-0.09
0.075
0.24
0.33
0.325
0.23
0.09
-0.08
-0.195
-0.155
-0.16
0.05
0.265
0.35
0.315
0.2
-0.04
-0.195
-0.245
-0.245
-0.185
0.11
0.215
0.305
0.28
0.22
-0.01
-0.16
-0.265
-0.21
-0.075
0.075
0.24
0.275
0.235
0.205
0.025
-0.14
-0.225
-0.185
-0.115
0.085
0.28
0.295
0.235
0.18
-0.02
-0.19
-0.225
-0.13
-0.06
0.16
0.29
0.295
0.25
0.225
0.025
-0.175
-0.235
-0.185
-0.15
0.1
0.27
0.385
0.275
0.14
-0.095
-0.155
-0.165
-0.16
-0.08
0.145
0.3
0.33
0.28
0.195
-0.055
-0.265
-0.265
-0.16
-0.01
0.18
0.31
0.33
0.345
0.23
-0.02
-0.17
-0.135
-0.08
0.085
0.26
0.425
0.405
0.36
0.22
-0.03
-0.145
-0.13
-0.055
0.095
0.31
0.455
0.435
0.355
0.235
0.04
-0.045
-0.07
-0.02
0.22
0.415
0.54
0.49
0.375
0.21
0.095
-0.02
-0.01
0.04
0.2
0.38
0.5
0.475
0.45
0.29
0.09
0.005
-0.005
0.015
0.205
0.395
0.5
0.52
0.41
0.245
0.0
-0.075
-0.06
-0.01
0.145
0.38
0.475
0.38
0.225
0.13
-0.04
-0.205
-0.115
-0.12
0.085
0.21
0.335
0.25
0.235
0.06
-0.155
-0.26
-0.25
-0.16
0.05
0.235
0.305
0.29
0.225
0.01
-0.18
-0.26
-0.25
-0.18
0.03
0.23
0.285
0.255
0.225
0.03
-0.165
-0.18
-0.235
-0.175
0.02
0.245
0.275
0.235
0.17
-0.055
-0.18
-0.205
-0.195
-0.1
0.135
0.285
0.32
0.24
0.11
-0.065
-0.26
-0.245
-0.185
-0.17
0.075
0.215
0.31
0.265
0.18
-0.065
-0.21
-0.23
-0.145
-0.13
0.1
0.275
0.255
0.21
0.145
-0.055
-0.22
-0.25
-0.24
-0.185
0.07
0.245
0.295
0.23
0.135
-0.055
-0.225
-0.23
-0.195
-0.07
0.115
0.275
0.265
0.22
0.095
-0.13
-0.225
-0.19
-0.165
-0.13
0.09
0.28
0.325
0.225
0.085
-0.06
-0.215
-0.275
-0.195
-0.08
0.13
0.25
0.26
0.17
0.065
-0.105
-0.21
-0.21
-0.135
0.0
0.155
0.21
0.245
0.21
0.045
-0.15
-0.225
-0.195
-0.175
-0.01
0.15
0.265
0.27
0.21
0.04
-0.175
-0.305
-0.195
-0.145
-0.05
0.17
0.3
0.265
0.205
0.06
-0.15
-0.235
-0.19
-0.165
-0.06
0.115
0.285
0.27
0.26
0.09
-0.13
-0.24
-0.185
-0.18
0.015
0.195
0.29
0.265
0.24
0.035
-0.16
-0.23
-0.155
-0.125
0.11
0.3
0.37
0.325
0.24
0.085
-0.125
-0.225
-0.205
-0.145
0.025
0.195
0.3
0.23
0.215
0.02
-0.155
-0.21
-0.2
-0.12
0.06
0.215
0.27
0.225
0.2
-0.03
-0.215
-0.255
-0.16
-0.1
0.12
0.3
0.285
0.19
0.105
-0.105
-0.265
-0.3
-0.245
-0.155
0.08
0.23
0.26
0.245
0.19
-0.055
-0.24
-0.245
-0.195
-0.125
0.105
0.255
0.26
0.21
0.145
-0.07
-0.235
-0.295
-0.315
-0.19
0.0
0.195
0.27
0.275
0.28
0.225
0.185
0.27
0.435
0.655
0.91
1.105
1.215
1.175
1.085
0.88
0.39
0.065
-0.03
0.015
0.205
0.39
0.395
0.32
0.2
-0.04
-0.21
-0.3
-0.255
-0.065
0.2
0.3
0.31
0.27
0.125
-0.095
-0.22
-0.205
-0.145
-0.03
0.195
0.285
0.305
0.235
0.095
-0.1
-0.205
-0.225
-0.185
-0.015
0.14
0.28
0.31
0.3
0.13
-0.07
-0.225
-0.265
-0.24
-0.04
0.215
0.365
0.35
0.33
0.145
-0.08
-0.275
-0.27
-0.195
0.04
0.215
0.355
0.34
0.23
0.05
-0.105
-0.175
-0.145
-0.095
0.055
0.245
0.37
0.375
0.275
0.035
-0.14
-0.24
-0.195
-0.12
0.09
0.27
0.3
0.31
0.285
0.045
-0.135
-0.21
-0.16
-0.135
0.09
0.285
0.34
0.37
0.335
0.04
-0.12
-0.175
-0.125
-0.04
0.125
0.32
0.39
0.35
0.3
0.125
-0.025
-0.09
-0.075
-0.05
0.235
0.385
0.44
0.35
0.285
0.13
-0.035
-0.075
0.01
0.035
0.25
0.425
0.48
0.44
0.335
0.145
-0.02
-0.025
-0.02
0.1
0.33
0.465
0.505
0.47
0.445
0.2
0.045
0.005
0.06
0.18
0.36
0.525
0.545
0.46
0.37
0.165
0.015
0.01
0.04
0.14
0.37
0.415
0.405
0.355
0.255
0.03
-0.115
-0.125
-0.1
-0.01
0.19
0.34
0.355
0.285
0.21
-0.015
-0.21
-0.21
-0.185
-0.07
0.105
0.3
0.37
0.305
0.125
-0.055
-0.245
-0.225
-0.215
-0.085
0.175
0.32
0.34
0.275
0.115
-0.09
-0.24
-0.215
-0.17
0.015
0.17
0.27
0.265
0.27
0.055
-0.145
-0.26
-0.215
-0.205
0.035
0.25
0.305
0.25
0.165
-0.01
-0.155
-0.245
-0.185
-0.13
0.05
0.23
0.31
0.25
0.175
0.04
-0.11
-0.23
-0.185
-0.095
0.11
0.24
0.29
0.27
0.24
0.065
-0.15
-0.235
-0.205
-0.15
0.065
0.245
0.34
0.29
0.275
0.105
-0.055
-0.18
-0.225
-0.17
0.05
0.24
0.295
0.27
0.225
0.05
-0.14
-0.21
-0.215
-0.165
0.05
0.245
0.33
0.29
0.25
0.015
-0.165
-0.215
-0.18
-0.14
0.085
0.25
0.285
0.275
0.225
0.02
-0.17
-0.205
-0.17
-0.1
0.11
0.29
0.33
0.265
0.21
0.025
-0.16
-0.185
-0.18
-0.12
0.13
0.295
0.32
0.235
0.13
-0.12
-0.205
-0.255
-0.14
-0.02
0.175
0.36
0.345
0.305
0.21
-0.035
-0.18
-0.22
-0.18
-0.03
0.185
0.38
0.415
0.32
0.22
0.02
-0.15
-0.15
-0.11
-0.02
0.125
0.31
0.425
0.385
0.22
0.065
-0.055
-0.015
0.005
0.07
0.215
0.325
0.315
0.255
0.065
-0.12
-0.25
-0.245
-0.135
-0.005
0.2
0.325
0.34
0.285
0.14
-0.05
-0.22
-0.215
-0.18
0.005
0.185
0.28
0.32
0.295
0.16
-0.1
-0.22
-0.195
-0.16
0.015
0.225
0.37
0.345
0.3
0.105
-0.095
-0.215
-0.195
-0.135
0.035
0.255
0.355
0.405
0.29
0.12
-0.13
-0.235
-0.225
-0.235
-0.035
0.14
0.26
0.26
0.205
0.105
0.025
0.075
0.16
0.345
0.705
0.995
1.14
1.14
1.055
0.875
0.73
0.635
0.425
0.195
0.23
0.36
0.405
0.405
0.29
0.05
-0.065
-0.175
-0.14
-0.09
0.145
0.34
0.365
0.355
0.23
0.105
-0.135
-0.195
-0.17
-0.065
0.175
0.32
0.355
0.325
0.25
0.04
-0.13
-0.21
-0.165
-0.07
0.185
0.355
0.385
0.3
0.255
0.015
-0.145
-0.175
-0.145
-0.115
0.115
0.295
0.36
0.325
0.21
0.005
-0.165
-0.215
-0.16
0.015
0.17
0.365
0.355
0.325
0.215
0.02
-0.125
-0.145
-0.135
-0.05
0.18
0.355
0.385
0.37
0.265
0.02
-0.115
-0.135
-0.08
0.04
0.235
0.35
0.305
0.28
0.205
0.025
-0.11
-0.165
-0.125
0.0
0.245
0.35
0.395
0.345
0.215
-0.015
-0.095
-0.03
0.005
0.115
0.245
0.355
0.385
0.36
0.2
-0.045
-0.115
-0.075
-0.06
0.115
0.365
0.48
0.475
0.42
0.285
0.075
-0.055
-0.055
0.0
0.16
0.36
0.47
0.465
0.41
0.25
0.115
0.06
0.04
0.07
0.235
0.455
0.545
0.54
0.485
0.315
0.095
0.015
-0.025
0.08
0.28
0.495
0.53
0.51
0.445
0.305
0.18
0.075
0.06
0.07
0.17
0.385
0.51
0.49
0.435
0.135
-0.035
-0.11
-0.08
-0.03
0.16
0.335
0.405
0.385
0.41
0.175
-0.095
-0.23
-0.205
-0.13
0.095
0.305
0.32
0.235
0.235
0.045
-0.175
-0.19
-0.17
-0.08
0.145
0.315
0.37
0.285
0.27
0.09
-0.11
-0.2
-0.145
-0.11
0.14
0.26
0.275
0.24
0.185
0.025
-0.155
-0.18
-0.14
-0.065
0.13
0.32
0.345
0.315
0.225
-0.03
-0.18
-0.225
-0.065
0.015
0.175
0.335
0.335
0.29
0.22
0.03
-0.12
-0.2
-0.165
-0.045
0.155
0.33
0.335
0.235
0.16
-0.1
-0.17
-0.2
-0.17
-0.01
0.16
0.32
0.31
0.32
0.18
-0.025
-0.145
-0.165
-0.085
0.085
0.25
0.265
0.315
0.27
0.135
-0.075
-0.17
-0.195
-0.13
-0.025
0.205
0.34
0.32
0.26
0.115
-0.055
-0.185
-0.185
-0.155
0.05
0.21
0.33
0.325
0.285
0.11
-0.04
-0.18
-0.17
-0.155
0.035
0.22
0.33
0.31
0.275
0.105
-0.08
-0.195
-0.215
-0.145
0.025
0.245
0.345
0.345
0.305
0.13
-0.08
-0.175
-0.12
-0.095
0.07
0.27
0.32
0.33
0.27
0.105
-0.095
-0.17
-0.135
-0.105
0.125
0.285
0.38
0.375
0.3
0.12
-0.09
-0.165
-0.14
-0.105
0.135
0.34
0.35
0.315
0.255
0.045
-0.09
-0.175
-0.155
-0.09
0.105
0.305
0.375
0.34
0.21
0.02
-0.17
-0.21
-0.17
-0.135
0.13
0.305
0.34
0.295
0.24
0.045
-0.13
-0.185
-0.185
-0.115
0.115
0.26
0.3
0.315
0.175
-0.055
-0.115
-0.205
-0.165
-0.1
0.125
0.205
0.26
0.305
0.225
-0.005
-0.19
-0.255
-0.225
-0.125
0.05
0.255
0.27
0.195
0.155
-0.01
-0.05
0.03
0.16
0.385
0.715
1.055
1.165
1.14
0.99
0.775
0.74
0.74
0.66
0.45
0.355
0.4
0.425
0.315
0.25
0.005
-0.165
-0.225
-0.11
-0.01
0.165
0.36
0.33
0.29
0.125
-0.075
-0.2
-0.215
-0.17
-0.01
0.225
0.365
0.37
0.32
0.135
-0.075
-0.225
-0.22
-0.125
0.025
0.225
0.34
0.285
0.29
0.135
-0.07
-0.185
-0.17
-0.115
0.065
0.205
0.33
0.32
0.28
0.135
-0.06
-0.18
-0.23
-0.16
0.045
0.29
0.365
0.29
0.255
0.1
-0.095
-0.21
-0.16
-0.11
0.065
0.255
0.305
0.325
0.24
0.035
-0.135
-0.22
-0.145
-0.085
0.085
0.28
0.355
0.33
0.26
0.08
-0.095
-0.135
-0.09
-0.085
0.15
0.315
0.385
0.33
0.23
0.065
-0.155
-0.18
-0.125
-0.06
0.145
0.345
0.415
0.35
0.325
0.075
-0.1
-0.145
-0.12
-0.005
0.23
0.37
0.405
0.37
0.32
0.14
-0.01
-0.055
-0.05
-0.005
0.29
0.435
0.465
0.43
0.395
0.17
-0.015
-0.06
0.015
0.07
0.285
0.46
0.535
0.515
0.415
0.185
0.005
-0.025
0.05
0.175
0.36
0.475
0.505
0.48
0.365
0.165
0.01
-0.035
0.015
0.1
0.3
0.415
0.45
0.415
0.33
0.06
-0.135
-0.155
-0.09
0.025
0.2
0.36
0.395
0.335
0.185
-0.045
-0.19
-0.215
-0.135
0.01
0.19
0.31
0.31
0.275
0.13
-0.065
-0.235
-0.23
-0.165
-0.005
0.19
0.29
0.255
0.275
0.15
-0.11
-0.255
-0.24
-0.17
0.0
0.16
0.3
0.3
0.21
0.125
-0.07
-0.25
-0.25
-0.135
0.055
0.26
0.33
0.3
0.21
0.04
-0.14
-0.295
-0.215
-0.135
0.035
0.195
0.245
0.265
0.195
0.04
-0.13
-0.21
-0.17
-0.125
0.05
0.265
0.36
0.335
0.21
0.04
-0.165
-0.255
-0.245
-0.195
0.04
0.245
0.335
0.255
0.235
0.025
-0.145
-0.19
-0.18
-0.11
0.08
0.2
0.285
0.285
0.25
0.005
-0.225
-0.225
-0.19
-0.13
0.045
0.245
0.305
0.31
0.165
-0.02
-0.18
-0.22
-0.125
-0.11
0.095
0.195
0.28
0.25
0.195
-0.03
-0.2
-0.25
-0.185
-0.125
0.085
0.275
0.315
0.26
0.185
-0.005
-0.23
-0.24
-0.16
-0.11
0.075
0.31
0.34
0.365
0.27
-0.01
-0.23
-0.285
-0.225
-0.05
0.165
0.24
0.35
0.27
0.125
-0.05
-0.225
-0.225
-0.18
-0.075
0.155
0.3
0.315
0.24
0.155
-0.125
-0.215
-0.22
-0.035
0.035
0.185
0.305
0.315
0.25
0.14
-0.045
-0.195
-0.23
-0.15
0.01
0.21
0.33
0.34
0.3
0.175
-0.035
-0.155
-0.17
-0.085
0.055
0.2
0.28
0.33
0.32
0.26
-0.015
-0.135
-0.155
-0.155
0.035
0.18
0.28
0.28
0.225
0.075
-0.045
-0.17
-0.25
-0.175
-0.06
0.165
0.29
0.255
0.22
0.11
-0.14
-0.25
-0.225
-0.18
0.015
0.21
0.29
0.28
0.235
0.04
-0.18
-0.275
-0.195
-0.15
0.035
0.235
0.28
0.245
0.215
0.015
-0.165
-0.245
-0.24
-0.19
0.075
0.235
0.325
0.22
0.105
-0.085
-0.345
-0.395
-0.235
-0.155
0.21
0.51
0.695
0.77
0.86
0.775
0.6
0.57
0.715
0.815
1.05
1.195
1.21
0.9
0.55
0.265
0.0
-0.115
-0.095
-0.1
0.11
0.285
0.36
0.3
0.24
0.005
-0.18
-0.205
-0.165
-0.075
0.095
0.27
0.34
0.24
0.19
0.0
-0.155
-0.17
-0.135
-0.095
0.09
0.26
0.33
0.315
0.225
-0.005
-0.2
-0.26
-0.145
-0.045
0.14
0.295
0.345
0.27
0.18
-0.04
-0.185
-0.23
-0.16
-0.035
0.16
0.26
0.3
0.32
0.255
0.025
-0.15
-0.165
-0.135
-0.045
0.18
0.285
0.34
0.3
0.125
-0.08
-0.19
-0.19
-0.17
-0.035
0.19
0.34
0.4
0.41
0.215
-0.065
-0.205
-0.24
-0.14
0.04
0.215
0.35
0.355
0.315
0.18
-0.005
-0.13
-0.165
-0.155
0.03
0.235
0.345
0.395
0.335
0.21
-0.005
-0.09
-0.125
-0.095
0.09
0.275
0.385
0.385
0.36
0.19
0.025
-0.075
-0.11
-0.005
0.195
0.35
0.475
0.485
0.465
0.215
-0.015
-0.125
-0.065
-0.005
0.215
0.465
0.55
0.49
0.44
0.265
0.055
0.035
0.08
0.145
0.355
0.43
0.53
0.55
0.45
0.29
0.09
0.005
0.035
0.08
0.27
0.41
0.505
0.52
0.445
0.215
-0.01
-0.095
-0.105
-0.03
0.21
0.38
0.45
0.4
0.335
0.14
-0.115
-0.22
-0.105
-0.1
0.065
0.255
0.3
0.3
0.22
-0.02
-0.155
-0.245
-0.16
-0.115
0.15
0.315
0.375
0.295
0.27
-0.01
-0.24
-0.22
-0.145
-0.05
0.15
0.29
0.305
0.24
0.155
-0.06
-0.195
-0.22
-0.15
-0.06
0.165
0.315
0.34
0.305
0.235
-0.055
-0.18
-0.275
-0.23
-0.085
0.13
0.275
0.31
0.255
0.155
-0.06
-0.205
-0.235
-0.185
-0.035
0.175
0.26
0.2
0.21
0.13
-0.035
-0.205
-0.205
-0.135
-0.03
0.175
0.32
0.31
0.29
0.145
-0.1
-0.275
-0.245
-0.145
-0.01
0.18
0.33
0.315
0.235
0.075
-0.14
-0.265
-0.275
-0.215
-0.055
0.165
0.29
0.3
0.27
0.11
-0.12
-0.235
-0.27
-0.17
0.0
0.2
0.355
0.325
0.23
0.085
-0.12
-0.235
-0.195
-0.15
0.04
0.21
0.325
0.265
0.215
0.06
-0.09
-0.215
-0.25
-0.19
0.015
0.205
0.32
0.35
0.275
0.085
-0.18
-0.225
-0.185
-0.11
-0.005
0.185
0.27
0.275
0.205
-0.01
-0.185
-0.245
-0.21
-0.135
0.05
0.28
0.34
0.235
0.11
-0.03
-0.185
-0.22
-0.215
-0.205
0.015
0.235
0.3
0.25
0.245
0.055
-0.19
-0.25
-0.17
-0.105
0.1
0.27
0.3
0.225
0.19
0.045
-0.17
-0.225
-0.225
-0.105
0.115
0.27
0.36
0.21
0.17
-0.07
-0.26
-0.21
-0.155
-0.095
0.125
0.325
0.29
0.255
0.185
-0.05
-0.195
-0.255
-0.185
-0.1
0.14
0.31
0.345
0.31
0.25
0.03
-0.145
-0.195
-0.12
-0.025
0.19
0.325
0.355
0.3
0.2
-0.04
-0.21
-0.255
-0.205
-0.06
0.15
0.305
0.3
0.22
0.06
-0.13
-0.24
-0.19
-0.155
-0.045
0.12
0.25
0.25
0.17
0.095
-0.105
-0.27
-0.25
-0.165
-0.07
0.1
0.28
0.28
0.195
0.045
-0.155
-0.295
-0.3
-0.21
0.025
0.245
0.315
0.255
0.21
0.075
-0.12
-0.245
-0.23
-0.165
0.02
0.21
0.28
0.22
0.165
-0.03
-0.265
-0.29
-0.29
-0.15
0.1
0.42
0.63
0.73
0.875
0.82
0.705
0.695
0.775
0.84
1.045
1.22
1.215
0.81
0.475
0.2
-0.025
-0.14
-0.16
-0.095
0.06
0.31
0.4
0.27
0.255
0.05
-0.17
-0.25
-0.245
-0.15
0.075
0.21
0.285
0.26
0.215
0.03
-0.15
-0.21
-0.18
-0.125
0.03
0.245
0.285
0.3
0.205
0.005
-0.24
-0.31
-0.215
-0.11
0.135
0.3
0.275
0.23
0.165
-0.045
-0.21
-0.275
-0.195
-0.175
0.065
0.225
0.29
0.25
0.21
-0.055
-0.235
-0.27
-0.215
-0.13
0.105
0.29
0.35
0.285
0.155
-0.055
-0.15
-0.19
-0.15
-0.065
0.11
0.27
0.315
0.27
0.185
-0.045
-0.18
-0.22
-0.23
-0.12
0.14
0.29
0.36
0.295
0.175
-0.07
-0.2
-0.2
-0.125
-0.04
0.195
0.27
0.33
0.305
0.175
-0.03
-0.17
-0.2
-0.095
0.015
0.225
0.36
0.365
0.315
0.21
0.005
-0.13
-0.115
-0.07
0.085
0.3
0.435
0.4
0.345
0.2
-0.03
-0.07
-0.055
0.045
0.175
0.335
0.425
0.395
0.37
0.22
0.04
-0.08
-0.025
0.065
0.255
0.385
0.5
0.51
0.465
0.29
0.095
-0.04
-0.05
0.035
0.205
0.39
0.495
0.46
0.41
0.225
0.02
-0.125
-0.085
-0.05
0.135
0.29
0.405
0.365
0.25
0.07
-0.155
-0.17
-0.185
-0.145
0.04
0.205
0.355
0.335
0.24
0.02
-0.245
-0.34
-0.335
-0.205
0.01
0.125
0.255
0.235
0.155
-0.02
-0.19
-0.28
-0.275
-0.2
-0.01
0.16
0.23
0.26
0.205
-0.03
-0.17
-0.215
-0.185
-0.185
-0.01
0.2
0.255
0.2
0.165
-0.075
-0.23
-0.295
-0.255
-0.215
0.07
0.21
0.25
0.25
0.21
-0.04
-0.29
-0.365
-0.295
-0.2
0.055
0.2
0.23
0.13
0.08
-0.09
-0.22
-0.23
-0.22
-0.225
0.01
0.15
0.215
0.195
0.15
-0.015
-0.21
-0.295
-0.31
-0.16
0.1
0.23
0.235
0.175
0.09
-0.075
-0.24
-0.28
-0.245
-0.135
0.055
0.215
0.275
0.19
0.045
-0.145
-0.255
-0.315
-0.26
-0.14
0.055
0.205
0.24
0.175
0.055
-0.145
-0.28
-0.265
-0.23
-0.1
0.095
0.19
0.2
0.18
0.05
-0.15
-0.275
-0.255
-0.24
-0.06
0.125
0.19
0.225
0.175
0.025
-0.255
-0.32
-0.21
-0.175
-0.08
0.08
0.195
0.19
0.165
-0.01
-0.2
-0.265
-0.285
-0.23
-0.095
0.115
0.205
0.19
0.15
-0.025
-0.19
-0.285
-0.285
-0.25
-0.08
0.105
0.245
0.185
0.15
-0.03
-0.195
-0.275
-0.27
-0.25
-0.055
0.18
0.285
0.255
0.165
-0.03
-0.23
-0.295
-0.24
-0.175
-0.03
0.145
0.265
0.23
0.185
-0.065
-0.24
-0.285
-0.31
-0.21
-0.01
0.12
0.165
0.185
0.135
-0.06
-0.235
-0.315
-0.26
-0.205
-0.025
0.175
0.28
0.215
0.11
-0.04
-0.22
-0.24
-0.245
-0.12
0.11
0.2
0.26
0.27
0.17
-0.02
-0.165
-0.205
-0.195
-0.16
0.075
0.265
0.275
0.21
0.205
0.03
-0.175
-0.19
-0.235
-0.25
0.05
0.245
0.28
0.22
0.075
-0.09
-0.195
-0.28
-0.225
-0.125
0.055
0.185
0.21
0.125
0.05
-0.105
-0.185
-0.26
-0.265
-0.125
0.1
0.195
0.24
0.17
0.07
-0.07
-0.265
-0.26
-0.205
-0.13
0.1
0.245
0.28
0.225
0.065
-0.17
-0.245
-0.25
-0.215
-0.11
0.08
0.19
0.235
0.18
0.065
-0.075
-0.24
-0.325
-0.31
-0.145
0.02
0.14
0.18
0.155
0.105
0.03
0.035
0.205
0.395
0.735
1.025
1.18
1.185
1.13
1.055
0.845
0.725
0.415
0.17
0.15
0.3
0.345
0.265
0.215
0.03
-0.115
-0.215
-0.23
-0.18
0.01
0.195
0.255
0.27
0.205
0.075
-0.175
-0.31
-0.285
-0.265
-0.095
0.12
0.225
0.24
0.175
-0.025
-0.225
-0.28
-0.21
-0.16
-0.005
0.23
0.285
0.24
0.115
-0.065
-0.205
-0.255
-0.27
-0.205
-0.02
0.17
0.265
0.19
0.135
-0.065
-0.215
-0.24
-0.23
-0.21
-0.005
0.175
0.235
0.215
0.145
-0.05
-0.2
-0.21
-0.215
-0.185
0.065
0.21
0.285
0.245
0.15
-0.07
-0.205
-0.245
-0.21
-0.115
0.095
0.21
0.305
0.24
0.18
0.0
-0.145
-0.225
-0.245
-0.2
0.05
0.255
0.29
0.23
0.165
-0.05
-0.21
-0.22
-0.145
-0.08
0.085
0.22
0.285
0.275
0.18
0.0
-0.165
-0.175
-0.155
-0.04
0.095
0.29
0.37
0.315
0.23
0.025
-0.145
-0.125
-0.1
0.05
0.21
0.415
0.37
0.34
0.22
0.09
-0.065
-0.07
-0.06
0.09
0.275
0.395
0.42
0.395
0.315
0.15
0.035
0.0
-0.02
0.1
0.34
0.485
0.495
0.425
0.27
0.02
-0.09
-0.07
-0.09
0.095
0.305
0.395
0.37
0.325
0.19
-0.055
-0.15
-0.15
-0.11
0.015
0.205
0.305
0.34
0.275
0.07
-0.165
-0.275
-0.28
-0.225
-0.005
0.185
0.265
0.27
0.165
-0.06
-0.18
-0.23
-0.185
-0.115
0.005
0.095
0.25
0.19
0.125
-0.045
-0.23
-0.28
-0.27
-0.2
0.005
0.155
0.205
0.205
0.145
-0.08
-0.225
-0.27
-0.26
-0.205
0.005
0.19
0.22
0.19
0.13
-0.05
-0.255
-0.345
-0.26
-0.175
0.015
0.185
0.255
0.17
0.185
-0.05
-0.24
-0.305
-0.28
-0.215
-0.005
0.1
0.17
0.165
0.12
-0.055
-0.26
-0.35
-0.305
-0.195
0.045
0.17
0.245
0.15
0.065
-0.09
-0.28
-0.295
-0.25
-0.15
0.08
0.22
0.215
0.165
0.115
-0.13
-0.27
-0.28
-0.24
-0.165
0.025
0.19
0.225
0.14
0.07
-0.135
-0.265
-0.285
-0.225
-0.135
0.07
0.255
0.245
0.115
0.085
-0.095
-0.22
-0.23
-0.195
-0.13
0.12
0.255
0.225
0.105
0.005
-0.2
-0.285
-0.285
-0.145
-0.145
0.055
0.215
0.225
0.16
0.06
-0.165
-0.285
-0.255
-0.21
-0.07
0.115
0.21
0.2
0.155
0.05
-0.17
-0.305
-0.295
-0.245
-0.065
0.1
0.26
0.28
0.19
0.035
-0.19
-0.3
-0.27
-0.225
-0.045
0.15
0.215
0.205
0.11
0.0
-0.18
-0.28
-0.29
-0.235
-0.035
0.145
0.22
0.205
0.16
0.0
-0.18
-0.29
-0.255
-0.195
-0.02
0.225
0.305
0.22
0.115
-0.09
-0.255
-0.33
-0.245
-0.22
-0.025
0.185
0.255
0.23
0.195
-0.01
-0.175
-0.27
-0.24
-0.175
0.015
0.17
0.22
0.21
0.19
0.02
-0.165
-0.23
-0.22
-0.105
0.09
0.295
0.315
0.215
0.17
-0.01
-0.18
-0.255
-0.22
-0.195
0.07
0.24
0.27
0.27
0.26
-0.02
-0.235
-0.305
-0.245
-0.18
-0.015
0.195
0.31
0.3
0.165
-0.085
-0.29
-0.365
-0.28
-0.17
-0.01
0.165
0.195
0.145
0.08
-0.065
-0.2
-0.31
-0.255
-0.185
0.0
0.195
0.23
0.15
0.075
-0.1
-0.27
-0.315
-0.275
-0.125
0.11
0.26
0.28
0.21
0.13
-0.09
-0.265
-0.305
-0.265
-0.145
0.04
0.16
0.16
0.12
0.005
-0.17
-0.275
-0.165
-0.015
0.145
0.47
0.73
0.975
1.05
1.0
0.77
0.615
0.62
0.705
0.77
0.72
0.55
0.45
0.33
0.17
-0.08
-0.28
-0.31
-0.25
-0.12
0.17
0.335
0.31
0.26
0.09
-0.15
-0.255
-0.25
-0.235
-0.06
0.16
0.285
0.275
0.22
0.05
-0.165
-0.295
-0.275
-0.215
-0.035
0.17
0.275
0.235
0.185
0.025
-0.17
-0.27
-0.235
-0.175
-0.04
0.155
0.265
0.28
0.205
-0.03
-0.225
-0.335
-0.255
-0.2
0.01
0.235
0.345
0.27
0.245
0.06
-0.17
-0.27
-0.19
-0.245
0.065
0.25
0.315
0.265
0.215
-0.035
-0.255
-0.29
-0.25
-0.175
0.1
0.235
0.23
0.255
0.175
0.015
-0.165
-0.185
-0.19
-0.15
0.045
0.28
0.315
0.305
0.25
0.03
-0.17
-0.195
-0.21
-0.145
0.095
0.265
0.33
0.295
0.23
-0.02
-0.135
-0.18
-0.13
-0.03
0.185
0.33
0.36
0.305
0.23
0.015
-0.085
-0.12
-0.06
0.02
0.2
0.365
0.38
0.305
0.255
0.05
-0.095
-0.08
-0.015
0.01
0.235
0.41
0.49
0.465
0.37
0.135
-0.015
-0.04
0.015
0.13
0.31
0.45
0.5
0.42
0.36
0.175
0.01
-0.015
0.01
0.13
0.31
0.455
0.48
0.405
0.275
0.045
-0.1
-0.11
-0.095
0.035
0.23
0.345
0.315
0.215
0.11
-0.105
-0.19
-0.205
-0.13
0.035
0.18
0.26
0.345
0.225
0.14
-0.055
-0.22
-0.255
-0.205
-0.055
0.16
0.235
0.245
0.215
0.1
-0.14
-0.225
-0.22
-0.125
0.015
0.19
0.305
0.29
0.225
0.02
-0.15
-0.245
-0.295
-0.265
-0.05
0.16
0.295
0.32
0.255
0.065
-0.12
-0.27
-0.315
-0.28
0.0
0.16
0.25
0.255
0.21
0.02
-0.155
-0.29
-0.205
-0.19
0.04
0.21
0.335
0.275
0.23
0.005
-0.115
-0.195
-0.225
-0.215
-0.01
0.185
0.295
0.275
0.175
-0.03
-0.215
-0.22
-0.2
-0.125
0.105
0.275
0.275
0.26
0.165
-0.015
-0.23
-0.285
-0.235
-0.12
0.06
0.24
0.335
0.275
0.175
-0.09
-0.205
-0.265
-0.22
-0.16
0.075
0.245
0.28
0.255
0.175
-0.065
-0.215
-0.24
-0.18
-0.145
-0.025
0.205
0.24
0.215
0.135
-0.04
-0.225
-0.27
-0.195
-0.08
0.065
0.235
0.295
0.21
0.15
-0.035
-0.18
-0.245
-0.22
-0.145
0.115
0.24
0.24
0.16
0.1
-0.14
-0.29
-0.25
-0.15
-0.025
0.16
0.25
0.26
0.195
0.075
-0.12
-0.215
-0.245
-0.235
-0.085
0.15
0.3
0.295
0.245
0.14
-0.065
-0.27
-0.21
-0.145
0.025
0.195
0.315
0.295
0.23
0.105
-0.105
-0.285
-0.27
-0.175
-0.025
0.18
0.28
0.23
0.225
0.075
-0.205
-0.305
-0.285
-0.18
-0.03
0.115
0.205
0.24
0.165
-0.015
-0.25
-0.305
-0.23
-0.185
0.0
0.185
0.31
0.32
0.18
-0.005
-0.255
-0.31
-0.34
-0.27
-0.05
0.13
0.27
0.25
0.2
-0.03
-0.22
-0.295
-0.265
-0.22
-0.015
0.175
0.26
0.175
0.115
-0.1
-0.235
-0.305
-0.25
-0.17
0.175
0.515
0.66
0.73
0.825
0.725
0.635
0.595
0.595
0.69
0.925
1.065
0.81
0.53
0.325
0.06
-0.145
-0.21
-0.19
-0.135
0.055
0.26
0.33
0.34
0.2
0.005
-0.155
-0.185
-0.085
-0.045
0.09
0.27
0.235
0.22
0.155
-0.035
-0.195
-0.21
-0.13
-0.11
0.075
0.25
0.3
0.26
0.175
-0.05
-0.205
-0.25
-0.205
-0.105
0.135
0.305
0.34
0.24
0.165
-0.035
-0.205
-0.245
-0.19
-0.06
0.165
0.29
0.3
0.25
0.17
-0.04
-0.165
-0.25
-0.19
-0.075
0.12
0.31
0.285
0.275
0.18
-0.035
-0.15
-0.205
-0.15
-0.015
0.16
0.31
0.295
0.19
0.08
-0.07
-0.12
-0.155
-0.13
-0.01
0.275
0.365
0.335
0.26
0.15
-0.03
-0.16
-0.185
-0.12
0.06
0.265
0.36
0.365
0.32
0.185
-0.025
-0.13
-0.14
-0.09
0.05
0.26
0.395
0.385
0.315
0.18
-0.005
-0.085
-0.105
-0.025
0.17
0.34
0.405
0.405
0.38
0.22
0.035
-0.055
-0.065
-0.01
0.18
0.42
0.52
0.48
0.405
0.24
0.02
-0.02
0.0
0.09
0.28
0.475
0.56
0.495
0.46
0.245
0.055
-0.01
0.015
0.04
0.27
0.455
0.485
0.48
0.43
0.205
0.025
-0.075
-0.06
0.015
0.215
0.315
0.335
0.325
0.26
0.05
-0.125
-0.19
-0.125
-0.035
0.11
0.245
0.32
0.265
0.195
-0.03
-0.25
-0.29
-0.2
-0.11
0.085
0.225
0.25
0.29
0.185
-0.03
-0.21
-0.25
-0.225
-0.16
0.09
0.295
0.325
0.26
0.23
0.01
-0.155
-0.235
-0.175
-0.145
0.105
0.3
0.39
0.29
0.245
0.025
-0.2
-0.22
-0.21
-0.15
0.085
0.26
0.29
0.26
0.13
-0.045
-0.21
-0.205
-0.135
0.02
0.14
0.29
0.345
0.265
0.19
-0.1
-0.28
-0.225
-0.18
-0.05
0.155
0.29
0.33
0.23
0.125
-0.08
-0.205
-0.21
-0.135
0.045
0.23
0.365
0.325
0.27
0.13
-0.075
-0.21
-0.195
-0.19
-0.035
0.16
0.27
0.28
0.285
0.12
-0.1
-0.205
-0.23
-0.15
-0.02
0.2
0.325
0.33
0.305
0.105
-0.075
-0.21
-0.24
-0.185
-0.02
0.195
0.315
0.285
0.18
0.035
-0.11
-0.17
-0.135
-0.13
0.02
0.225
0.26
0.2
0.185
0.08
-0.125
-0.22
-0.155
-0.05
0.135
0.28
0.315
0.305
0.225
-0.01
-0.135
-0.21
-0.185
-0.1
0.115
0.27
0.36
0.305
0.3
0.05
-0.145
-0.245
-0.15
-0.11
0.075
0.275
0.345
0.365
0.25
0.045
-0.09
-0.11
-0.045
0.02
0.145
0.32
0.41
0.345
0.27
0.045
-0.12
-0.235
-0.2
-0.115
0.165
0.315
0.38
0.33
0.24
0.0
-0.17
-0.235
-0.145
-0.06
0.13
0.285
0.37
0.24
0.145
-0.02
-0.24
-0.265
-0.195
-0.105
0.13
0.295
0.345
0.265
0.155
-0.04
-0.155
-0.205
-0.195
-0.075
0.15
0.275
0.335
0.265
0.155
-0.07
-0.155
-0.165
-0.165
-0.075
0.14
0.29
0.3
0.23
0.105
-0.085
-0.265
-0.3
-0.245
-0.17
0.09
0.255
0.36
0.49
0.485
0.425
0.405
0.545
0.695
0.865
1.035
1.195
1.24
1.235
1.085
0.61
0.175
-0.05
-0.025
0.155
0.29
0.365
0.34
0.295
0.195
-0.05
-0.16
-0.125
-0.13
0.04
0.28
0.36
0.295
0.24
0.105
-0.08
-0.195
-0.195
-0.14
0.045
0.205
0.275
0.315
0.275
0.11
-0.12
-0.205
-0.2
-0.11
0.04
0.25
0.375
0.335
0.295
0.115
-0.105
-0.23
-0.155
-0.125
0.085
0.275
0.33
0.32
0.275
0.07
-0.075
-0.155
-0.13
-0.08
0.08
0.285
0.38
0.305
0.235
0.085
-0.095
-0.225
-0.23
-0.14
0.09
0.31
0.415
0.37
0.35
0.145
-0.08
-0.18
-0.205
-0.12
0.125
0.33
0.405
0.355
0.29
0.065
-0.1
-0.16
-0.14
-0.03
0.22
0.355
0.405
0.365
0.31
0.09
-0.065
-0.105
-0.055
0.0
0.22
0.37
0.465
0.4
0.335
0.1
-0.045
-0.055
-0.03
0.075
0.255
0.385
0.41
0.385
0.345
0.15
-0.01
-0.05
0.01
0.105
0.305
0.495
0.51
0.465
0.365
0.21
0.06
-0.02
0.03
0.09
0.295
0.53
0.585
0.545
0.42
0.225
0.075
-0.015
0.035
0.13
0.42
0.585
0.57
0.505
0.345
0.145
0.015
0.0
0.02
0.115
0.245
0.43
0.48
0.375
0.205
-0.005
-0.14
-0.155
-0.13
0.01
0.2
0.36
0.34
0.29
0.145
-0.06
-0.18
-0.165
-0.12
0.0
0.18
0.335
0.35
0.285
0.115
-0.04
-0.19
-0.225
-0.17
-0.015
0.195
0.305
0.29
0.205
0.075
-0.1
-0.185
-0.2
-0.115
0.035
0.265
0.385
0.365
0.29
0.01
-0.16
-0.25
-0.225
-0.17
0.045
0.25
0.335
0.35
0.315
0.085
-0.14
-0.235
-0.195
-0.15
0.055
0.24
0.31
0.295
0.255
0.08
-0.09
-0.155
-0.185
-0.11
0.075
0.2
0.33
0.305
0.265
0.075
-0.14
-0.235
-0.17
-0.105
0.105
0.325
0.355
0.315
0.175
-0.01
-0.19
-0.19
-0.155
-0.09
0.065
0.24
0.335
0.28
0.26
0.03
-0.175
-0.22
-0.205
-0.115
0.105
0.245
0.28
0.225
0.16
0.04
-0.12
-0.19
-0.145
-0.05
0.13
0.325
0.245
0.175
0.1
-0.065
-0.155
-0.215
-0.155
-0.1
0.11
0.28
0.28
0.295
0.195
-0.045
-0.25
-0.27
-0.15
-0.03
0.155
0.345
0.32
0.23
0.145
-0.025
-0.22
-0.26
-0.215
-0.09
0.12
0.235
0.26
0.26
0.16
-0.02
-0.165
-0.19
-0.15
-0.025
0.145
0.255
0.295
0.26
0.105
-0.1
-0.18
-0.235
-0.165
-0.015
0.22
0.395
0.375
0.31
0.12
-0.085
-0.215
-0.18
-0.055
0.065
0.235
0.4
0.365
0.305
0.2
-0.05
-0.185
-0.175
-0.165
0.035
0.225
0.275
0.325
0.23
0.08
-0.125
-0.235
-0.235
-0.155
0.005
0.17
0.335
0.33
0.29
0.135
-0.09
-0.255
-0.21
-0.13
0.06
0.225
0.28
0.26
0.24
0.095
-0.155
-0.235
-0.185
-0.17
-0.015
0.195
0.275
0.24
0.21
0.03
-0.16
-0.255
-0.21
-0.155
0.05
0.275
0.32
0.31
0.225
-0.01
-0.195
-0.285
-0.34
-0.18
-0.025
0.185
0.275
0.18
0.18
0.02
-0.09
0.01
0.115
0.325
0.67
1.0
1.14
1.2
1.18
1.0
0.855
0.825
0.765
0.6
0.455
0.475
0.495
0.4
0.325
0.08
-0.135
-0.175
-0.14
-0.06
0.14
0.29
0.34
0.335
0.275
0.04
-0.095
-0.17
-0.13
-0.025
0.135
0.27
0.325
0.275
0.2
0.03
-0.125
-0.2
-0.15
-0.045
0.155
0.34
0.355
0.305
0.22
-0.045
-0.185
-0.195
-0.145
-0.045
0.115
0.3
0.34
0.27
0.185
0.045
-0.19
-0.23
-0.145
-0.04
0.155
0.365
0.405
0.39
0.245
-0.035
-0.19
-0.28
-0.19
-0.05
0.13
0.325
0.39
0.355
0.215
-0.025
-0.15
-0.155
-0.08
0.05
0.22
0.33
0.365
0.295
0.12
-0.055
-0.185
-0.16
-0.08
0.11
0.285
0.37
0.38
0.33
0.2
0.0
-0.125
-0.145
-0.065
0.105
0.33
0.43
0.41
0.38
0.2
-0.025
-0.175
-0.155
-0.05
0.105
0.325
0.435
0.45
0.43
0.285
0.09
-0.01
0.01
0.02
0.165
0.395
0.52
0.46
0.365
0.235
0.07
-0.015
0.05
0.025
0.31
0.505
0.57
0.575
0.495
0.31
0.1
0.05
0.09
0.14
0.335
0.52
0.585
0.565
0.515
0.285
0.115
0.025
0.025
0.08
0.3
0.53
0.53
0.455
0.325
0.145
-0.025
-0.075
-0.04
0.03
0.275
0.46
0.49
0.345
0.285
0.025
-0.115
-0.215
-0.215
-0.085
0.17
0.32
0.4
0.35
0.245
0.01
-0.155
-0.2
-0.155
-0.055
0.15
0.265
0.335
0.31
0.23
-0.01
-0.17
-0.205
-0.155
-0.08
0.13
0.33
0.35
0.29
0.175
-0.06
-0.205
-0.22
-0.16
-0.015
0.13
0.295
0.39
0.345
0.16
-0.125
-0.24
-0.195
-0.18
-0.06
0.195
0.29
0.31
0.235
0.14
-0.055
-0.15
-0.175
-0.13
-0.03
0.175
0.295
0.315
0.265
0.16
-0.09
-0.215
-0.2
-0.135
-0.025
0.165
0.31
0.345
0.285
0.12
-0.09
-0.17
-0.175
-0.175
-0.05
0.145
0.27
0.255
0.23
0.085
-0.095
-0.215
-0.19
-0.12
0.035
0.225
0.29
0.29
0.295
0.125
-0.12
-0.195
-0.165
-0.145
0.115
0.25
0.28
0.21
0.2
0.07
-0.12
-0.225
-0.27
-0.2
0.0
0.225
0.36
0.345
0.245
0.07
-0.175
-0.285
-0.19
-0.13
0.065
0.205
0.325
0.305
0.28
0.055
-0.09
-0.265
-0.285
-0.185
0.05
0.27
0.345
0.285
0.275
0.02
-0.18
-0.27
-0.205
-0.105
0.09
0.285
0.34
0.315
0.25
0.0
-0.14
-0.23
-0.175
-0.11
0.07
0.24
0.35
0.32
0.295
0.07
-0.175
-0.28
-0.26
-0.13
0.105
0.225
0.35
0.35
0.26
0.075
-0.11
-0.165
-0.15
-0.105
0.105
0.27
0.33
0.275
0.22
0.005
-0.105
-0.13
-0.08
-0.025
0.18
0.35
0.37
0.335
0.245
0.005
-0.145
-0.165
-0.105
-0.02
0.165
0.33
0.38
0.34
0.225
-0.01
-0.16
-0.18
-0.21
-0.105
0.17
0.31
0.255
0.21
0.15
-0.045
-0.19
-0.205
-0.12
-0.01
0.165
0.285
0.285
0.22
0.135
-0.105
-0.285
-0.225
-0.21
-0.05
0.18
0.325
0.335
0.315
0.16
-0.04
-0.195
-0.24
-0.17
-0.045
0.15
0.335
0.325
0.28
0.12
-0.075
-0.145
-0.195
-0.185
-0.085
0.08
0.215
0.175
0.14
0.055
-0.055
-0.045
0.06
0.22
0.565
0.905
1.155
1.175
1.205
1.055
0.875
0.81
0.84
0.805
0.625
0.55
0.495
0.39
0.34
0.145
-0.095
-0.165
-0.11
-0.065
0.105
0.245
0.33
0.325
0.32
0.14
-0.06
-0.175
-0.155
-0.1
0.04
0.215
0.335
0.32
0.265
0.065
-0.085
-0.135
-0.16
-0.115
0.08
0.235
0.285
0.275
0.265
0.065
-0.17
-0.205
-0.175
-0.145
0.15
0.3
0.4
0.335
0.205
0.025
-0.155
-0.18
-0.095
-0.07
0.135
0.275
0.345
0.325
0.235
0.025
-0.17
-0.175
-0.115
-0.065
0.155
0.305
0.34
0.27
0.21
-0.005
-0.155
-0.175
-0.095
-0.01
0.15
0.325
0.395
0.36
0.295
0.04
-0.14
-0.18
-0.125
-0.05
0.155
0.31
0.37
0.345
0.28
0.075
-0.12
-0.155
-0.1
0.045
0.29
0.405
0.415
0.34
0.245
0.08
-0.06
-0.095
-0.065
0.07
0.29
0.48
0.475
0.375
0.295
0.08
-0.045
-0.065
0.025
0.19
0.37
0.48
0.495
0.435
0.315
0.13
0.0
-0.025
0.045
0.225
0.43
0.58
0.575
0.515
0.345
0.135
0.045
0.09
0.125
0.265
0.51
0.585
0.535
0.495
0.365
0.21
0.075
0.065
0.105
0.235
0.395
0.465
0.47
0.45
0.345
0.115
-0.07
-0.05
-0.045
0.1
0.33
0.415
0.41
0.36
0.18
-0.04
-0.155
-0.14
-0.105
0.06
0.305
0.405
0.385
0.285
0.13
-0.1
-0.19
-0.165
-0.12
0.07
0.24
0.35
0.34
0.33
0.115
-0.08
-0.23
-0.15
-0.07
0.035
0.285
0.295
0.29
0.265
0.02
-0.13
-0.215
-0.155
-0.05
0.13
0.275
0.415
0.355
0.29
0.055
-0.13
-0.21
-0.2
-0.175
0.075
0.285
0.39
0.3
0.255
0.03
-0.185
-0.24
-0.19
-0.095
0.095
0.3
0.405
0.295
0.205
-0.005
-0.16
-0.19
-0.19
-0.125
0.145
0.335
0.295
0.25
0.235
-0.035
-0.205
-0.235
-0.2
-0.045
0.155
0.31
0.355
0.305
0.175
-0.055
-0.215
-0.265
-0.13
0.005
0.22
0.355
0.335
0.32
0.2
-0.08
-0.2
-0.21
-0.17
-0.07
0.15
0.285
0.33
0.34
0.185
0.0
-0.195
-0.225
-0.19
0.0
0.23
0.385
0.355
0.305
0.185
-0.04
-0.23
-0.24
-0.155
0.025
0.24
0.315
0.355
0.32
0.17
-0.085
-0.21
-0.17
-0.13
0.04
0.23
0.34
0.305
0.305
0.145
-0.06
-0.205
-0.21
-0.125
0.01
0.22
0.345
0.34
0.22
0.125
-0.105
-0.21
-0.195
-0.125
0.015
0.215
0.365
0.345
0.315
0.055
-0.09
-0.165
-0.19
-0.145
0.045
0.235
0.315
0.35
0.325
0.09
-0.125
-0.195
-0.165
-0.125
0.09
0.28
0.385
0.36
0.34
0.105
-0.055
-0.15
-0.08
-0.015
0.155
0.295
0.335
0.365
0.315
0.12
-0.055
-0.195
-0.075
-0.015
0.17
0.335
0.45
0.395
0.34
0.065
-0.12
-0.17
-0.1
-0.01
0.185
0.365
0.435
0.405
0.315
0.1
-0.145
-0.255
-0.155
-0.09
0.14
0.26
0.335
0.32
0.28
0.03
-0.14
-0.18
-0.125
-0.065
0.18
0.315
0.345
0.315
0.26
0.02
-0.165
-0.21
-0.135
-0.09
0.15
0.325
0.36
0.29
0.265
0.045
-0.13
-0.19
-0.175
-0.055
0.16
0.325
0.325
0.3
0.22
0.045
-0.075
-0.11
-0.105
-0.07
0.13
0.29
0.235
0.105
0.125
-0.015
-0.105
0.04
0.195
0.405
0.75
1.02
1.175
1.22
1.16
0.955
0.785
0.85
0.915
0.86
0.685
0.645
0.545
0.475
0.32
0.055
-0.085
-0.09
-0.055
0.09
0.285
0.44
0.44
0.335
0.21
-0.025
-0.165
-0.14
-0.055
0.065
0.295
0.39
0.375
0.34
0.075
-0.095
-0.195
-0.125
-0.1
0.14
0.34
0.42
0.385
0.365
0.175
-0.05
-0.175
-0.165
-0.075
0.16
0.305
0.4
0.415
0.34
0.15
-0.005
-0.13
-0.115
-0.075
0.15
0.3
0.395
0.39
0.33
0.115
-0.02
-0.08
-0.14
-0.075
0.14
0.34
0.405
0.37
0.34
0.115
-0.07
-0.145
-0.145
-0.095
0.185
0.365
0.375
0.34
0.38
0.145
0.005
-0.07
-0.015
-0.025
0.18
0.32
0.42
0.425
0.39
0.17
-0.03
-0.115
-0.02
0.055
0.195
0.385
0.475
0.455
0.395
0.125
-0.035
-0.04
0.005
0.075
0.31
0.4
0.455
0.42
0.4
0.19
0.03
-0.01
-0.005
0.08
0.315
0.47
0.515
0.49
0.355
0.15
-0.035
-0.005
0.13
0.255
0.445
0.525
0.565
0.555
0.49
0.29
0.125
0.1
0.14
0.27
0.475
0.625
0.64
0.545
0.46
0.23
0.14
0.145
0.16
0.13
0.335
0.495
0.52
0.485
0.405
0.21
0.045
0.015
0.035
0.165
0.385
0.48
0.415
0.38
0.255
0.035
-0.16
-0.11
-0.105
0.065
0.235
0.35
0.375
0.32
0.19
0.055
-0.09
-0.1
-0.03
0.11
0.275
0.405
0.355
0.34
0.22
0.005
-0.11
-0.11
-0.07
0.14
0.34
0.455
0.42
0.315
0.12
-0.03
-0.085
-0.095
-0.04
0.07
0.22
0.36
0.375
0.355
0.18
-0.03
-0.165
-0.06
-0.055
0.085
0.28
0.44
0.395
0.3
0.09
-0.11
-0.125
-0.085
-0.06
0.16
0.265
0.37
0.365
0.355
0.195
0.005
-0.105
-0.07
-0.035
0.165
0.33
0.405
0.4
0.36
0.135
-0.08
-0.16
-0.1
-0.035
0.16
0.34
0.425
0.365
0.325
0.11
-0.07
-0.115
-0.07
0.005
0.195
0.36
0.41
0.375
0.345
0.105
-0.08
-0.175
-0.08
-0.02
0.205
0.4
0.42
0.365
0.255
0.085
-0.085
-0.13
-0.07
-0.015
0.22
0.42
0.44
0.385
0.3
0.04
-0.1
-0.115
-0.09
-0.01
0.26
0.385
0.42
0.315
0.285
0.06
-0.115
-0.12
-0.035
0.045
0.195
0.42
0.425
0.325
0.195
0.02
-0.145
-0.14
-0.055
0.035
0.21
0.39
0.415
0.355
0.295
0.04
-0.14
-0.095
-0.075
0.05
0.24
0.395
0.385
0.355
0.24
0.06
-0.075
-0.105
-0.055
0.06
0.305
0.48
0.475
0.41
0.235
-0.025
-0.055
-0.075
0.02
0.15
0.325
0.4
0.425
0.355
0.27
0.085
-0.075
-0.07
0.025
0.165
0.35
0.44
0.415
0.355
0.21
-0.035
-0.15
-0.12
-0.075
0.085
0.305
0.415
0.42
0.35
0.12
-0.085
-0.15
-0.12
-0.115
0.085
0.255
0.37
0.36
0.31
0.155
-0.105
-0.14
-0.12
-0.135
0.1
0.285
0.405
0.38
0.335
0.15
-0.035
-0.155
-0.16
-0.1
0.17
0.365
0.455
0.4
0.33
0.145
-0.065
-0.11
-0.1
-0.11
0.06
0.22
0.3
0.31
0.295
0.17
0.105
0.19
0.295
0.385
0.71
1.015
1.195
1.19
1.16
0.955
0.86
0.7
0.445
0.25
0.32
0.44
0.475
0.425
0.38
0.065
-0.09
-0.085
-0.055
-0.015
0.205
0.415
0.45
0.35
0.315
0.075
-0.055
-0.13
-0.1
-0.045
0.215
0.335
0.41
0.345
0.245
0.055
-0.09
-0.13
-0.05
0.02
0.225
0.375
0.435
0.37
0.3
0.03
-0.105
-0.14
-0.08
0.0
0.23
0.39
0.41
0.375
0.255
0.01
-0.145
-0.195
-0.15
0.015
0.275
0.415
0.44
0.4
0.295
0.095
-0.095
-0.105
-0.045
0.08
0.27
0.405
0.415
0.375
0.25
0.03
-0.095
-0.095
-0.05
0.11
0.3
0.4
0.44
0.405
0.275
0.055
-0.05
-0.08
-0.095
0.065
0.33
0.48
0.49
0.43
0.275
0.075
-0.05
-0.045
0.005
0.15
0.37
0.465
0.455
0.385
0.19
-0.045
-0.055
0.0
0.055
0.225
0.4
0.49
0.545
0.46
0.305
0.12
0.055
0.055
0.14
0.315
0.475
0.535
0.52
0.495
0.37
0.16
0.065
0.05
0.14
0.355
0.525
0.59
0.605
0.565
0.36
0.17
0.1
0.045
0.145
0.38
0.56
0.67
0.62
0.57
0.36
0.135
0.015
0.105
0.16
0.32
0.515
0.575
0.52
0.455
0.285
0.08
-0.035
0.005
0.04
0.17
0.4
0.495
0.45
0.38
0.115
-0.045
-0.135
-0.06
0.005
0.215
0.38
0.42
0.38
0.35
0.085
-0.065
-0.125
-0.07
0.0
0.175
0.345
0.405
0.37
0.275
0.09
-0.105
-0.18
-0.13
0.04
0.25
0.385
0.375
0.345
0.245
0.035
-0.155
-0.16
-0.055
-0.01
0.27
0.48
0.46
0.4
0.24
0.05
-0.13
-0.16
-0.12
0.0
0.25
0.43
0.395
0.38
0.245
0.035
-0.105
-0.13
-0.075
0.005
0.25
0.42
0.445
0.41
0.27
0.045
-0.135
-0.12
-0.035
0.065
0.205
0.345
0.38
0.305
0.205
0.0
-0.105
-0.09
-0.035
0.065
0.3
0.375
0.37
0.3
0.19
-0.015
-0.115
-0.11
-0.03
0.11
0.335
0.465
0.475
0.36
0.205
-0.015
-0.15
-0.16
-0.04
0.11
0.335
0.44
0.405
0.32
0.13
0.01
-0.045
-0.11
-0.05
0.125
0.27
0.37
0.38
0.32
0.135
-0.035
-0.16
-0.205
-0.085
0.12
0.31
0.335
0.415
0.405
0.125
-0.04
-0.13
-0.11
-0.035
0.185
0.39
0.47
0.395
0.26
0.1
-0.05
-0.085
-0.055
-0.02
0.145
0.32
0.41
0.47
0.41
0.195
-0.045
-0.09
-0.105
-0.015
0.255
0.385
0.43
0.425
0.365
0.2
0.05
0.005
0.025
0.01
0.225
0.335
0.47
0.43
0.425
0.17
-0.03
-0.075
-0.045
0.02
0.22
0.365
0.42
0.355
0.33
0.12
-0.075
-0.08
-0.06
0.01
0.235
0.385
0.445
0.42
0.34
0.11
-0.045
-0.085
-0.09
-0.025
0.23
0.365
0.395
0.385
0.305
0.14
-0.03
-0.105
-0.04
0.06
0.29
0.49
0.45
0.365
0.205
0.01
-0.12
-0.11
-0.02
0.075
0.265
0.36
0.34
0.275
0.15
-0.045
-0.095
-0.04
-0.02
0.2
0.53
0.73
0.855
0.965
0.945
0.825
0.8
0.795
0.855
0.94
1.125
1.03
0.75
0.51
0.31
0.09
-0.05
-0.055
0.0
0.16
0.325
0.4
0.405
0.37
0.235
0.095
-0.015
-0.055
-0.06
0.095
0.335
0.445
0.405
0.33
0.22
-0.01
-0.11
-0.075
-0.015
0.13
0.3
0.42
0.39
0.38
0.125
-0.04
-0.055
-0.005
0.035
0.13
0.32
0.4
0.415
0.38
0.185
0.02
-0.09
-0.08
0.0
0.2
0.425
0.465
0.4
0.355
0.18
-0.025
-0.08
-0.1
0.03
0.245
0.455
0.485
0.36
0.285
0.1
-0.02
-0.045
-0.03
-0.015
0.215
0.34
0.415
0.4
0.45
0.225
0.055
-0.015
-0.015
0.035
0.205
0.365
0.445
0.445
0.405
0.185
-0.03
-0.045
0.02
0.085
0.275
0.4
0.405
0.425
0.4
0.195
0.02
-0.04
0.025
0.125
0.315
0.505
0.535
0.455
0.385
0.165
0.015
0.045
0.08
0.115
0.355
0.475
0.585
0.53
0.4
0.185
0.07
0.035
0.14
0.27
0.44
0.555
0.59
0.525
0.415
0.235
0.085
0.1
0.165
0.275
0.475
0.6
0.625
0.53
0.455
0.31
0.175
0.05
0.14
0.265
0.47
0.61
0.58
0.495
0.405
0.195
0.035
-0.04
0.04
0.16
0.295
0.435
0.415
0.415
0.3
0.09
-0.045
-0.04
-0.045
0.06
0.285
0.44
0.435
0.36
0.28
0.005
-0.115
-0.11
-0.08
0.065
0.3
0.415
0.395
0.35
0.155
-0.03
-0.125
-0.11
-0.065
0.105
0.29
0.365
0.38
0.34
0.095
-0.07
-0.15
-0.1
-0.08
0.12
0.32
0.375
0.335
0.28
0.165
-0.02
-0.085
-0.11
-0.04
0.135
0.305
0.375
0.36
0.27
0.105
-0.07
-0.135
-0.09
-0.01
0.135
0.33
0.445
0.37
0.325
0.205
-0.03
-0.13
-0.16
-0.125
0.175
0.375
0.405
0.36
0.315
0.17
-0.11
-0.175
-0.165
-0.02
0.205
0.37
0.335
0.355
0.325
0.09
-0.1
-0.16
-0.13
-0.055
0.105
0.335
0.435
0.355
0.265
0.045
-0.125
-0.155
-0.125
0.005
0.17
0.4
0.455
0.33
0.245
0.02
-0.205
-0.255
-0.11
0.04
0.225
0.41
0.405
0.325
0.265
0.085
-0.105
-0.12
-0.07
-0.04
0.175
0.455
0.385
0.34
0.23
-0.015
-0.22
-0.19
-0.11
0.01
0.215
0.365
0.33
0.3
0.215
-0.04
-0.115
-0.115
-0.075
0.03
0.19
0.35
0.395
0.36
0.24
0.0
-0.185
-0.185
-0.105
0.08
0.28
0.36
0.375
0.325
0.22
0.01
-0.15
-0.11
-0.01
0.085
0.235
0.395
0.4
0.365
0.245
0.03
-0.1
-0.15
-0.01
0.18
0.37
0.49
0.385
0.29
0.18
-0.005
-0.24
-0.145
-0.07
0.04
0.285
0.39
0.38
0.33
0.17
-0.065
-0.17
-0.145
-0.075
0.085
0.225
0.33
0.29
0.265
0.13
-0.05
-0.16
-0.125
-0.08
0.145
0.32
0.42
0.38
0.28
0.03
-0.09
-0.24
-0.2
-0.125
0.11
0.32
0.375
0.335
0.25
0.09
-0.08
-0.135
-0.105
-0.065
0.11
0.285
0.355
0.295
0.22
0.055
-0.195
-0.265
-0.265
-0.175
0.08
0.315
0.44
0.56
0.56
0.48
0.425
0.57
0.69
0.8
1.085
1.3
1.355
1.32
1.23
0.68
0.165
-0.01
0.005
0.065
0.225
0.415
0.42
0.34
0.27
0.05
-0.12
-0.11
-0.095
-0.03
0.17
0.35
0.355
0.28
0.295
0.08
-0.08
-0.1
-0.115
-0.04
0.16
0.33
0.345
0.315
0.23
0.045
-0.14
-0.095
-0.075
-0.02
0.16
0.34
0.37
0.265
0.155
0.03
-0.125
-0.12
-0.155
0.01
0.23
0.39
0.365
0.305
0.17
0.005
-0.14
-0.155
-0.075
0.035
0.2
0.315
0.325
0.295
0.19
-0.045
-0.145
-0.125
-0.03
0.1
0.16
0.365
0.375
0.34
0.255
0.025
-0.155
-0.14
-0.125
0.035
0.265
0.37
0.44
0.335
0.2
-0.02
-0.13
-0.15
-0.09
0.07
0.27
0.43
0.405
0.375
0.185
-0.005
-0.17
-0.145
-0.08
0.09
0.31
0.43
0.55
0.445
0.205
0.015
-0.095
-0.07
0.005
0.22
0.355
0.43
0.455
0.455
0.31
0.14
0.06
0.025
0.02
0.19
0.4
0.45
0.465
0.465
0.35
0.185
0.085
0.115
0.105
0.325
0.54
0.575
0.56
0.445
0.265
0.125
0.04
0.07
0.125
0.37
0.575
0.57
0.56
0.49
0.255
0.05
0.005
-0.01
0.01
0.23
0.455
0.46
0.435
0.37
0.16
-0.025
-0.065
-0.015
0.01
0.205
0.355
0.385
0.365
0.305
0.09
-0.11
-0.195
-0.095
-0.045
0.13
0.365
0.415
0.35
0.225
0.045
-0.13
-0.215
-0.065
0.025
0.185
0.33
0.33
0.305
0.26
0.07
-0.08
-0.12
-0.135
-0.04
0.185
0.29
0.315
0.305
0.22
0.025
-0.14
-0.165
-0.14
-0.06
0.155
0.355
0.41
0.355
0.27
0.045
-0.11
-0.165
-0.07
-0.03
0.23
0.375
0.36
0.29
0.14
-0.085
-0.2
-0.175
-0.1
0.06
0.23
0.38
0.395
0.395
0.235
-0.045
-0.205
-0.17
-0.225
-0.06
0.26
0.405
0.39
0.285
0.155
-0.065
-0.18
-0.155
-0.105
0.04
0.205
0.325
0.31
0.275
0.13
-0.065
-0.18
-0.15
-0.125
0.005
0.27
0.4
0.355
0.255
0.085
-0.08
-0.16
-0.12
-0.055
0.135
0.255
0.355
0.235
0.16
0.065
-0.13
-0.2
-0.215
-0.085
0.15
0.27
0.33
0.31
0.29
0.09
-0.08
-0.145
-0.165
-0.12
0.13
0.305
0.375
0.335
0.225
0.025
-0.11
-0.175
-0.15
-0.095
0.08
0.275
0.36
0.35
0.255
0.05
-0.105
-0.19
-0.185
-0.06
0.175
0.28
0.28
0.3
0.255
0.035
-0.115
-0.21
-0.09
-0.055
0.165
0.34
0.37
0.275
0.235
0.06
-0.145
-0.16
-0.085
-0.035
0.195
0.305
0.335
0.33
0.29
0.045
-0.07
-0.195
-0.145
0.005
0.19
0.325
0.335
0.325
0.24
0.06
-0.06
-0.125
-0.13
-0.025
0.22
0.365
0.43
0.365
0.25
-0.03
-0.15
-0.125
-0.08
-0.055
0.19
0.345
0.325
0.285
0.21
0.045
-0.12
-0.165
-0.125
0.02
0.205
0.305
0.32
0.25
0.185
0.015
-0.115
-0.17
-0.175
-0.035
0.2
0.35
0.315
0.27
0.135
-0.02
-0.185
-0.165
-0.095
0.025
0.215
0.305
0.29
0.32
0.105
-0.12
-0.21
-0.16
-0.075
0.03
0.195
0.315
0.345
0.3
0.11
-0.115
-0.3
-0.33
-0.2
0.015
0.215
0.3
0.485
0.58
0.435
0.365
0.39
0.56
0.765
0.95
1.21
1.275
1.305
1.3
1.08
0.555
0.17
0.025
-0.045
0.175
0.33
0.405
0.305
0.3
0.105
-0.08
-0.235
-0.155
-0.06
0.125
0.335
0.365
0.29
0.255
0.06
-0.12
-0.095
-0.055
-0.01
0.115
0.29
0.335
0.31
0.24
0.04
-0.14
-0.205
-0.155
-0.05
0.155
0.305
0.32
0.29
0.22
0.055
-0.135
-0.17
-0.165
-0.15
0.13
0.33
0.35
0.32
0.29
0.0
-0.12
-0.185
-0.13
-0.06
0.17
0.31
0.36
0.335
0.265
0.065
-0.07
-0.12
-0.1
-0.03
0.205
0.31
0.35
0.265
0.245
0.025
-0.135
-0.135
-0.075
-0.03
0.245
0.325
0.35
0.335
0.26
-0.04
-0.14
-0.11
-0.09
0.02
0.26
0.415
0.445
0.41
0.3
0.12
-0.05
-0.085
-0.03
0.1
0.275
0.415
0.5
0.42
0.235
0.05
-0.055
-0.095
-0.005
0.15
0.35
0.49
0.41
0.41
0.29
0.1
-0.005
-0.04
-0.015
0.175
0.415
0.5
0.525
0.505
0.34
0.12
-0.01
0.065
0.145
0.31
0.46
0.53
0.595
0.575
0.425
0.3
0.12
0.04
0.145
0.19
0.415
0.565
0.525
0.525
0.345
0.175
0.02
0.04
0.06
0.265
0.4
0.51
0.51
0.44
0.24
-0.05
-0.135
-0.085
-0.06
0.125
0.295
0.4
0.365
0.325
0.155
-0.07
-0.2
-0.14
-0.095
0.16
0.29
0.375
0.41
0.33
0.1
-0.13
-0.2
-0.17
-0.065
0.125
0.3
0.305
0.345
0.29
0.105
-0.15
-0.185
-0.13
-0.04
0.15
0.32
0.26
0.24
0.22
0.02
-0.17
-0.205
-0.21
-0.095
0.11
0.27
0.37
0.285
0.25
0.01
-0.14
-0.225
-0.165
-0.1
0.095
0.335
0.445
0.355
0.22
-0.02
-0.19
-0.2
-0.16
-0.075
0.095
0.27
0.36
0.34
0.275
0.075
-0.155
-0.24
-0.15
-0.075
0.12
0.285
0.28
0.215
0.25
0.055
-0.17
-0.21
-0.165
-0.1
0.105
0.305
0.39
0.3
0.16
0.015
-0.135
-0.185
-0.13
-0.015
0.125
0.26
0.32
0.26
0.135
-0.075
-0.195
-0.195
-0.19
0.005
0.26
0.37
0.32
0.205
0.06
-0.115
-0.185
-0.175
-0.17
0.005
0.095
0.285
0.32
0.29
0.14
-0.03
-0.14
-0.21
-0.145
0.0
0.225
0.34
0.305
0.24
0.08
-0.1
-0.205
-0.19
-0.155
-0.055
0.16
0.33
0.295
0.27
0.115
-0.115
-0.175
-0.18
-0.11
0.075
0.23
0.33
0.28
0.22
0.09
-0.17
-0.265
-0.21
-0.085
0.05
0.26
0.325
0.285
0.285
0.05
-0.135
-0.17
-0.165
-0.135
0.065
0.24
0.335
0.305
0.245
0.095
-0.125
-0.25
-0.195
-0.1
0.065
0.23
0.305
0.285
0.235
-0.01
-0.23
-0.175
-0.115
-0.125
0.07
0.2
0.33
0.365
0.285
0.015
-0.125
-0.215
-0.17
-0.1
0.125
0.305
0.375
0.345
0.32
0.075
-0.11
-0.17
-0.11
-0.04
0.18
0.36
0.445
0.365
0.275
0.04
-0.135
-0.215
-0.105
0.07
0.25
0.37
0.425
0.35
0.245
-0.005
-0.19
-0.24
-0.21
-0.08
0.125
0.27
0.325
0.26
0.25
0.02
-0.12
-0.155
-0.1
-0.065
0.105
0.295
0.3
0.3
0.2
-0.035
-0.185
-0.245
-0.16
0.005
0.25
0.415
0.39
0.305
0.21
-0.01
-0.24
-0.185
-0.16
-0.075
0.17
0.305
0.355
0.275
0.145
-0.05
-0.155
-0.21
-0.16
-0.025
0.2
0.345
0.315
0.22
0.045
-0.185
-0.285
-0.185
-0.09
0.135
0.415
0.65
0.77
0.9
0.9
0.795
0.755
0.815
0.865
1.05
1.315
1.335
1.065
0.675
0.33
0.04
-0.08
-0.12
-0.07
0.08
0.33
0.48
0.44
0.37
0.17
-0.06
-0.215
-0.265
-0.16
0.095
0.325
0.4
0.435
0.365
0.11
-0.065
-0.1
-0.145
-0.08
0.09
0.29
0.39
0.36
0.36
0.155
-0.075
-0.205
-0.225
-0.135
0.15
0.285
0.44
0.415
0.325
0.07
-0.095
-0.18
-0.13
-0.095
0.125
0.295
0.335
0.37
0.37
0.175
-0.005
-0.1
-0.085
0.0
0.13
0.24
0.305
0.31
0.29
0.105
-0.065
-0.11
-0.015
0.005
0.175
0.35
0.405
0.375
0.3
0.08
-0.07
-0.125
-0.085
0.005
0.17
0.335
0.42
0.375
0.335
0.09
-0.08
-0.12
-0.015
0.02
0.24
0.455
0.425
0.395
0.315
0.11
0.005
-0.005
0.02
0.07
0.275
0.41
0.425
0.365
0.295
0.165
0.045
-0.045
0.0
0.135
0.35
0.495
0.555
0.49
0.42
0.195
0.01
0.025
0.09
0.185
0.415
0.575
0.63
0.575
0.485
0.285
0.105
0.015
0.07
0.28
0.465
0.635
0.635
0.605
0.445
0.23
0.095
0.125
0.12
0.235
0.48
0.575
0.665
0.525
0.385
0.135
-0.05
-0.025
0.015
0.215
0.39
0.52
0.53
0.465
0.265
0.07
-0.08
-0.09
-0.025
0.19
0.395
0.47
0.445
0.34
0.185
-0.015
-0.155
-0.12
-0.095
0.065
0.245
0.325
0.39
0.385
0.145
-0.08
-0.165
-0.12
-0.04
0.14
0.28
0.355
0.34
0.315
0.115
-0.08
-0.205
-0.18
-0.085
0.085
0.345
0.405
0.385
0.39
0.13
-0.105
-0.2
-0.195
-0.06
0.23
0.365
0.33
0.32
0.22
0.025
-0.17
-0.135
-0.065
-0.055
0.14
0.265
0.34
0.345
0.275
0.06
-0.155
-0.155
-0.095
-0.04
0.165
0.355
0.37
0.32
0.28
0.04
-0.15
-0.17
-0.125
-0.01
0.235
0.355
0.345
0.295
0.27
0.07
-0.17
-0.205
-0.185
-0.07
0.21
0.335
0.335
0.315
0.215
0.015
-0.08
-0.145
-0.185
-0.03
0.185
0.375
0.38
0.31
0.22
0.055
-0.135
-0.215
-0.115
0.03
0.185
0.315
0.375
0.345
0.21
-0.005
-0.135
-0.16
-0.125
0.005
0.235
0.42
0.395
0.29
0.165
0.02
-0.135
-0.21
-0.19
0.05
0.245
0.35
0.31
0.27
0.17
-0.005
-0.125
-0.185
-0.135
0.03
0.21
0.37
0.39
0.34
0.15
-0.05
-0.145
-0.185
-0.15
0.01
0.225
0.355
0.4
0.35
0.185
-0.05
-0.275
-0.205
-0.085
0.07
0.25
0.335
0.365
0.26
0.13
-0.08
-0.175
-0.17
-0.1
0.06
0.325
0.41
0.275
0.28
0.105
-0.08
-0.155
-0.16
-0.065
0.13
0.305
0.41
0.4
0.33
0.155
-0.06
-0.115
-0.095
-0.005
0.235
0.49
0.45
0.425
0.3
0.105
-0.05
-0.105
-0.1
-0.085
0.125
0.38
0.455
0.395
0.375
0.105
-0.065
-0.125
-0.085
-0.08
0.16
0.31
0.36
0.305
0.28
0.055
-0.13
-0.175
-0.125
-0.065
0.15
0.39
0.38
0.29
0.21
-0.04
-0.2
-0.205
-0.145
-0.045
0.23
0.35
0.41
0.22
0.215
0.005
-0.145
-0.215
-0.155
-0.055
0.15
0.3
0.37
0.295
0.205
0.035
-0.13
-0.18
-0.12
-0.02
0.22
0.385
0.35
0.33
0.21
-0.04
-0.225
-0.24
-0.22
-0.19
0.03
0.28
0.415
0.445
0.395
0.3
0.285
0.39
0.6
0.815
1.035
1.275
1.325
1.3
1.19
0.945
0.605
0.225
0.075
0.14
0.37
0.465
0.455
0.385
0.24
0.03
-0.075
-0.085
-0.115
0.11
0.305
0.405
0.33
0.335
0.185
-0.02
-0.135
-0.125
-0.05
0.135
0.33
0.435
0.37
0.255
0.15
-0.015
-0.165
-0.155
-0.085
0.14
0.315
0.39
0.32
0.295
0.185
0.02
-0.12
-0.115
-0.045
0.095
0.29
0.4
0.37
0.3
0.115
-0.005
-0.085
-0.095
-0.05
0.155
0.395
0.47
0.45
0.325
0.055
-0.09
-0.09
-0.105
-0.02
0.15
0.33
0.455
0.455
0.36
0.185
-0.02
-0.105
-0.14
-0.085
0.185
0.405
0.455
0.49
0.425
0.145
-0.07
-0.115
-0.045
0.02
0.21
0.375
0.465
0.505
0.365
0.155
0.02
-0.045
0.015
0.075
0.3
0.445
0.5
0.465
0.395
0.175
0.005
-0.04
-0.005
0.07
0.305
0.485
0.565
0.525
0.48
0.27
0.08
0.065
0.105
0.145
0.295
0.445
0.565
0.55
0.46
0.27
0.09
0.05
0.115
0.24
0.49
0.65
0.73
0.655
0.53
0.28
0.11
0.06
0.155
0.25
0.47
0.675
0.665
0.565
0.51
0.265
0.03
0.025
0.105
0.235
0.425
0.575
0.56
0.48
0.325
0.145
0.03
0.02
0.055
0.135
0.32
0.45
0.455
0.435
0.285
0.055
-0.065
-0.07
-0.015
0.11
0.315
0.425
0.4
0.365
0.185
-0.04
-0.11
-0.055
-0.05
0.105
0.26
0.39
0.415
0.275
0.17
0.0
-0.125
-0.075
-0.025
0.12
0.31
0.41
0.36
0.405
0.25
-0.01
-0.13
-0.13
-0.04
0.105
0.245
0.41
0.385
0.36
0.19
-0.025
-0.13
-0.135
-0.065
0.07
0.31
0.44
0.455
0.395
0.19
-0.065
-0.12
-0.115
-0.115
0.09
0.33
0.415
0.43
0.38
0.215
0.025
-0.14
-0.1
-0.07
0.115
0.38
0.49
0.43
0.305
0.165
-0.06
-0.075
-0.085
-0.075
0.165
0.375
0.385
0.36
0.33
0.12
-0.07
-0.145
-0.07
-0.015
0.205
0.325
0.4
0.33
0.295
0.155
-0.075
-0.12
-0.065
0.05
0.165
0.38
0.415
0.355
0.29
0.08
-0.075
-0.07
-0.06
0.02
0.22
0.345
0.365
0.3
0.275
0.05
-0.14
-0.195
-0.135
0.04
0.295
0.37
0.375
0.295
0.18
0.035
-0.05
-0.115
-0.06
-0.015
0.165
0.365
0.405
0.34
0.24
0.04
-0.11
-0.125
-0.105
0.02
0.235
0.385
0.415
0.32
0.195
0.025
-0.115
-0.125
-0.09
0.03
0.23
0.375
0.38
0.325
0.175
-0.015
-0.16
-0.165
-0.085
0.05
0.295
0.34
0.395
0.385
0.16
-0.075
-0.125
-0.07
-0.03
0.12
0.28
0.39
0.425
0.395
0.25
0.005
-0.055
0.005
0.07
0.275
0.36
0.395
0.355
0.305
0.155
-0.035
-0.12
-0.035
-0.01
0.19
0.365
0.425
0.435
0.31
0.18
0.005
-0.09
-0.105
-0.095
0.125
0.28
0.34
0.375
0.33
0.12
-0.075
-0.19
-0.135
-0.03
0.19
0.32
0.36
0.39
0.255
0.075
-0.105
-0.095
-0.08
0.0
0.105
0.215
0.355
0.35
0.27
0.085
-0.15
-0.165
-0.215
-0.12
0.195
0.35
0.36
0.32
0.27
0.08
-0.055
-0.175
-0.17
-0.095
0.08
0.26
0.31
0.3
0.18
-0.015
-0.115
-0.175
-0.01
0.215
0.545
0.735
0.935
1.065
1.09
0.935
0.75
0.725
0.775
0.835
0.775
0.65
0.555
0.43
0.3
0.085
-0.08
-0.09
-0.005
0.03
0.195
0.365
0.36
0.32
0.3
0.085
-0.045
-0.095
-0.005
0.055
0.205
0.4
0.365
0.33
0.275
0.05
-0.09
-0.08
-0.02
0.05
0.235
0.415
0.435
0.37
0.275
0.04
-0.075
-0.115
-0.075
0.04
0.255
0.39
0.395
0.335
0.245
0.015
-0.075
-0.115
-0.06
0.075
0.27
0.395
0.355
0.355
0.245
0.065
-0.08
-0.115
-0.08
0.045
0.215
0.385
0.465
0.415
0.3
0.095
-0.115
-0.135
-0.105
0.095
0.25
0.455
0.41
0.365
0.2
0.04
-0.055
-0.085
-0.085
0.13
0.345
0.445
0.405
0.365
0.16
-0.035
-0.095
-0.02
-0.03
0.12
0.35
0.455
0.475
0.455
0.245
0.065
-0.065
-0.01
0.05
0.3
0.47
0.52
0.46
0.455
0.25
0.005
-0.075
0.01
0.165
0.315
0.475
0.495
0.435
0.4
0.27
0.085
0.005
0.055
0.115
0.365
0.535
0.69
0.555
0.47
0.315
0.125
0.055
0.105
0.185
0.385
0.565
0.595
0.56
0.485
0.25
0.12
0.105
0.12
0.26
0.465
0.585
0.615
0.515
0.46
0.26
0.005
-0.05
-0.01
0.1
0.35
0.54
0.53
0.385
0.27
0.08
-0.1
-0.14
-0.065
-0.01
0.21
0.36
0.425
0.385
0.25
0.055
-0.105
-0.16
-0.18
-0.06
0.165
0.37
0.34
0.32
0.25
0.03
-0.095
-0.09
-0.075
-0.015
0.13
0.275
0.36
0.26
0.19
-0.025
-0.175
-0.195
-0.155
-0.005
0.24
0.4
0.425
0.35
0.205
0.0
-0.1
-0.105
-0.12
-0.025
0.125
0.28
0.3
0.265
0.185
0.035
-0.1
-0.185
-0.115
0.075
0.215
0.36
0.39
0.325
0.19
-0.02
-0.15
-0.14
-0.11
0.045
0.18
0.375
0.35
0.32
0.125
-0.065
-0.18
-0.16
-0.08
0.1
0.21
0.405
0.35
0.26
0.125
-0.065
-0.205
-0.2
-0.14
-0.03
0.145
0.36
0.305
0.25
0.105
-0.115
-0.22
-0.19
-0.125
0.055
0.26
0.335
0.335
0.28
0.065
-0.14
-0.21
-0.21
-0.135
0.02
0.25
0.335
0.305
0.255
0.04
-0.085
-0.17
-0.17
-0.16
-0.005
0.255
0.36
0.32
0.25
0.055
-0.11
-0.18
-0.115
-0.055
0.14
0.215
0.275
0.315
