# TIPE ECG 2021 - ECG-ID Database v1.0.0 par Physionet
# [Numéro de la personne, Période d'échantillonnage, Prénom, Age, Sexe, Date de l'enregistrement]
[45, 0.002, Antonio, 75, H, 12.05.2005]
0.15
0.14
0.13
0.085
0.13
0.29
0.29
0.17
0.175
0.245
0.22
0.205
0.17
0.135
0.165
0.165
0.095
0.115
0.1
0.2
0.12
0.18
0.2
0.155
0.105
0.2
0.225
0.19
0.19
0.225
0.125
0.12
0.19
0.105
0.095
0.095
0.18
0.23
0.205
0.09
0.125
0.125
0.21
0.24
0.19
0.155
0.045
0.145
0.2
0.225
0.065
0.04
0.215
0.165
0.15
0.205
0.215
0.285
0.155
0.09
0.15
0.1
0.11
0.075
0.08
0.16
0.165
0.225
0.12
0.18
0.16
0.23
0.13
0.055
0.11
0.105
0.08
0.16
0.15
0.135
0.09
0.07
0.135
0.205
0.185
0.15
0.175
0.165
0.175
0.045
0.02
0.03
0.085
0.105
0.115
0.185
0.23
0.255
0.195
0.185
0.2
0.21
0.125
0.05
0.205
0.14
0.105
0.17
0.18
0.165
0.21
0.21
0.235
0.265
0.315
0.16
0.04
0.12
0.17
0.12
0.17
0.155
0.155
0.125
0.14
0.12
0.13
0.27
0.335
0.195
0.135
0.225
0.155
0.195
0.17
0.17
0.185
0.21
0.22
0.185
0.13
0.02
0.09
0.07
0.095
0.03
0.07
0.115
0.085
-0.05
0.035
0.17
0.15
0.01
0.115
0.175
0.13
0.105
0.1
0.075
-0.025
0.07
0.09
0.08
0.13
0.095
0.11
0.055
0.115
0.085
0.05
0.1
0.105
0.05
0.01
-0.015
0.11
0.215
0.235
0.3
0.43
0.535
0.66
0.835
0.92
0.955
0.885
0.84
0.675
0.51
0.29
0.055
-0.005
-0.11
-0.075
-0.055
-0.025
0.1
0.01
-0.065
0.0
0.0
0.01
0.2
0.12
0.005
0.06
0.07
0.055
0.055
0.1
0.095
0.05
0.12
0.095
0.01
0.1
0.145
0.08
0.105
0.09
0.095
0.085
0.035
0.115
0.19
0.145
0.155
0.14
0.18
0.085
0.11
0.125
0.25
0.265
0.3
0.22
0.085
0.0
0.005
0.085
0.135
0.145
0.055
0.16
0.125
0.205
0.075
0.13
0.165
0.23
0.18
0.155
0.23
0.195
0.17
0.095
0.085
0.09
0.125
0.18
0.185
0.16
0.2
0.215
0.21
0.195
0.235
0.22
0.165
0.155
0.245
0.19
0.125
0.29
0.265
0.21
0.21
0.2
0.17
0.255
0.21
0.205
0.23
0.25
0.185
0.265
0.355
0.265
0.26
0.31
0.3
0.29
0.29
0.325
0.355
0.265
0.24
0.285
0.27
0.365
0.255
0.385
0.315
0.245
0.31
0.325
0.315
0.325
0.325
0.245
0.22
0.29
0.3
0.275
0.31
0.315
0.31
0.27
0.325
0.27
0.25
0.32
0.335
0.39
0.405
0.405
0.305
0.22
0.175
0.24
0.245
0.28
0.24
0.23
0.25
0.245
0.255
0.31
0.255
0.285
0.265
0.235
0.245
0.255
0.26
0.225
0.235
0.24
0.17
0.255
0.25
0.25
0.05
0.085
0.23
0.285
0.29
0.2
0.245
0.265
0.195
0.2
0.22
0.205
0.26
0.285
0.215
0.225
0.17
0.25
0.28
0.245
0.235
0.125
0.185
0.225
0.195
0.135
0.225
0.21
0.16
0.225
0.26
0.255
0.22
0.315
0.185
0.14
0.155
0.185
0.25
0.335
0.24
0.235
0.24
0.285
0.23
0.22
0.255
0.18
0.27
0.295
0.285
0.315
0.26
0.18
0.265
0.24
0.21
0.195
0.255
0.295
0.205
0.25
0.26
0.12
0.17
0.18
0.165
0.19
0.165
0.205
0.205
0.225
0.145
0.185
0.23
0.255
0.195
0.215
0.22
0.25
0.195
0.24
0.195
0.335
0.33
0.22
0.25
0.165
0.2
0.23
0.23
0.2
0.17
0.2
0.255
0.34
0.185
0.16
0.125
0.155
0.215
0.21
0.22
0.185
0.18
0.17
0.205
0.17
0.18
0.185
0.265
0.275
0.28
0.205
0.22
0.215
0.21
0.19
0.185
0.255
0.295
0.26
0.38
0.33
0.35
0.31
0.265
0.315
0.4
0.19
0.135
0.175
0.145
0.2
0.245
0.215
0.24
0.235
0.23
0.26
0.235
0.29
0.225
0.27
0.28
0.25
0.31
0.25
0.225
0.225
0.18
0.19
0.175
0.115
0.095
0.06
0.1
0.09
0.235
0.1
0.145
0.155
0.095
0.115
0.1
0.055
0.07
-0.005
0.115
0.175
0.15
0.085
0.1
0.03
0.14
0.04
0.13
0.13
0.16
0.245
0.285
0.1
-0.105
-0.105
-0.07
-0.075
-0.045
0.01
0.14
0.155
0.195
0.31
0.275
0.405
0.575
0.735
0.9
0.935
0.865
0.75
0.65
0.595
0.325
0.055
-0.065
-0.135
-0.125
-0.155
-0.145
-0.165
-0.16
-0.135
-0.08
-0.035
-0.03
-0.01
-0.015
0.04
0.09
0.11
0.025
0.005
-0.01
-0.045
0.0
-0.02
-0.095
-0.125
-0.07
0.065
0.08
0.115
0.1
0.09
0.105
-0.055
-0.17
-0.16
-0.01
0.075
0.03
0.085
0.065
0.085
0.02
-0.015
-0.005
0.015
0.07
0.065
0.03
0.105
0.105
0.115
0.03
0.01
-0.05
0.04
0.125
0.185
0.165
0.145
0.045
-0.01
0.085
0.065
0.095
0.14
0.12
0.085
0.075
0.065
0.045
0.045
0.055
0.13
0.075
0.085
0.045
0.0
0.095
0.235
0.215
0.09
0.115
0.11
0.12
0.15
0.14
0.14
0.1
0.085
0.085
0.185
0.11
0.205
0.14
0.27
0.285
0.035
0.185
0.11
0.12
0.155
0.135
0.165
0.19
0.145
0.255
0.275
0.2
0.225
0.175
0.22
0.195
0.2
0.115
0.13
0.29
0.23
0.155
0.22
0.215
0.22
0.165
0.155
0.225
0.285
0.23
0.2
0.21
0.23
0.175
0.195
0.24
0.215
0.185
0.155
0.22
0.17
0.165
0.215
0.21
0.175
-0.055
0.175
0.025
0.13
0.18
0.165
0.175
0.14
0.175
0.06
0.08
0.12
0.06
0.05
0.08
0.065
-0.02
0.08
0.065
0.07
0.16
0.105
0.105
0.115
0.07
-0.005
0.085
0.07
0.04
-0.005
0.05
0.12
0.11
0.125
0.105
0.1
0.125
0.085
0.045
0.07
0.045
0.075
0.075
0.13
0.115
0.135
0.105
0.085
0.13
0.06
0.075
0.105
0.035
0.005
0.01
0.075
0.1
0.175
0.175
0.07
0.09
0.125
-0.065
0.045
0.05
0.07
0.085
0.03
-0.02
0.005
0.01
0.105
0.105
0.115
0.12
0.115
0.12
0.15
0.085
0.07
-0.065
-0.03
0.115
0.205
0.17
0.145
0.085
0.09
0.05
0.075
0.08
0.07
0.0
0.045
0.1
0.185
0.135
0.07
0.08
0.095
0.135
0.09
0.015
0.11
0.06
0.03
-0.01
0.055
0.05
0.045
0.005
-0.035
0.13
0.13
0.06
0.07
0.065
0.13
0.105
0.03
0.05
0.13
0.15
0.125
0.08
0.165
0.07
-0.035
-0.12
0.02
0.05
0.02
0.075
0.105
0.085
0.12
0.155
0.075
0.025
0.17
0.2
0.16
0.08
0.17
0.155
0.14
0.115
0.11
0.16
0.26
0.16
0.175
0.135
0.08
0.15
0.155
0.2
0.145
0.17
0.165
0.12
0.135
0.19
0.18
0.2
0.175
0.18
0.095
0.095
0.095
0.13
0.14
0.105
0.09
0.09
0.11
0.065
0.05
-0.01
-0.085
0.035
0.01
0.02
0.11
0.085
0.035
0.02
-0.02
0.015
0.075
0.075
0.07
0.135
0.06
0.045
-0.095
-0.035
-0.045
0.05
0.075
0.04
0.005
0.06
0.065
-0.1
-0.04
0.09
0.21
0.175
0.195
0.175
0.425
0.56
0.68
0.78
0.87
0.935
0.845
0.705
0.615
0.495
0.245
0.035
-0.085
-0.14
-0.05
-0.04
-0.03
-0.085
-0.08
0.01
-0.04
-0.01
-0.09
0.03
-0.005
-0.03
-0.05
0.05
0.1
0.03
0.095
0.105
-0.005
0.07
0.05
0.005
0.085
0.045
0.0
0.125
0.08
0.05
0.075
0.125
0.11
0.075
-0.055
-0.155
0.03
0.05
0.045
0.025
0.115
0.04
0.075
0.125
0.175
0.165
-0.01
0.07
0.105
0.07
0.12
0.13
0.115
0.095
0.09
0.085
0.04
0.095
0.14
0.165
0.12
0.1
0.1
0.135
0.135
0.15
0.18
0.175
0.235
0.235
0.19
0.21
0.055
0.105
0.045
-0.07
0.13
0.095
0.145
0.195
0.25
0.305
0.335
0.25
0.2
0.21
0.135
0.13
0.2
0.22
0.115
0.155
0.14
0.16
0.155
0.19
0.21
0.21
0.27
0.19
0.185
0.265
0.265
0.335
0.325
0.195
0.135
0.14
0.22
0.275
0.24
0.26
0.205
0.28
0.315
0.335
0.29
0.265
0.235
0.17
0.25
0.4
0.355
0.265
0.325
0.25
0.285
0.23
0.335
0.27
0.325
0.17
0.15
0.23
0.265
0.25
0.24
0.27
0.3
0.27
0.24
0.29
0.13
0.185
0.17
0.125
0.14
0.215
0.215
0.285
0.135
0.13
0.14
0.165
0.155
0.16
0.165
0.085
0.215
0.15
0.12
0.23
0.205
0.105
0.09
0.18
0.19
0.165
0.19
0.17
0.13
0.155
0.195
0.215
0.16
0.145
0.095
0.155
0.15
0.195
0.21
0.22
0.215
0.105
0.1
0.13
0.165
0.26
0.26
0.195
0.19
0.21
0.14
0.115
0.235
0.2
0.09
-0.06
0.12
0.255
0.3
0.205
0.29
0.21
0.19
0.255
0.245
0.31
0.365
0.175
0.19
0.16
0.19
0.225
0.2
0.205
0.28
0.225
0.135
0.125
0.26
0.175
0.145
0.15
0.18
-0.025
0.055
0.105
0.15
0.145
0.185
0.265
0.245
0.21
0.155
0.135
0.17
0.2
0.27
0.185
0.19
0.19
0.18
0.18
0.15
0.155
0.195
0.19
0.2
0.19
0.25
0.23
0.14
0.175
0.165
0.235
0.255
0.23
0.19
0.21
0.14
0.1
0.075
0.18
0.21
0.18
0.19
0.175
0.12
0.115
0.145
0.12
0.21
0.265
0.245
0.18
0.19
0.195
0.185
0.25
0.14
0.16
0.305
0.225
0.205
0.135
0.19
0.25
0.23
0.31
0.265
0.26
0.255
0.265
0.275
0.245
0.195
0.18
0.285
0.215
0.23
0.33
0.255
0.285
0.23
0.21
0.355
0.25
0.225
0.235
0.24
0.175
0.19
0.225
0.145
0.155
0.21
0.185
0.13
0.16
0.065
0.145
0.13
0.165
0.27
0.225
0.21
0.195
0.135
0.18
0.215
0.165
0.11
0.12
0.21
0.215
0.245
0.18
0.155
0.08
0.125
0.155
0.21
0.215
0.21
0.21
0.08
0.09
0.205
0.285
0.295
0.245
0.31
0.495
0.605
0.79
0.95
1.03
1.11
1.085
0.935
0.69
0.435
0.275
0.095
0.0
0.01
0.02
0.065
0.05
0.065
0.03
0.085
0.13
0.165
0.16
0.11
0.265
0.1
0.13
0.115
0.105
0.18
0.17
0.15
0.185
0.15
0.125
0.145
0.26
0.24
0.155
0.275
0.16
0.18
0.245
0.205
0.195
0.205
0.12
0.125
0.12
0.155
0.285
0.27
0.18
0.275
0.25
0.315
0.225
0.2
0.185
0.205
0.225
0.285
0.21
0.24
0.11
0.24
0.2
0.325
0.31
0.285
0.255
0.15
0.2
0.175
0.22
0.275
0.29
0.32
0.205
0.185
0.295
0.265
0.28
0.24
0.31
0.29
0.215
0.355
0.3
0.295
0.25
0.28
0.31
0.315
0.305
0.405
0.39
0.33
0.36
0.29
0.25
0.27
0.355
0.295
0.345
0.325
0.3
0.36
0.355
0.335
0.265
0.245
0.335
0.33
0.33
0.445
0.43
0.3
0.25
0.305
0.335
0.34
0.275
0.37
0.47
0.395
0.33
0.38
0.275
0.415
0.28
0.435
0.26
0.275
0.435
0.515
0.305
0.315
0.35
0.405
0.4
0.34
0.255
0.38
0.35
0.3
0.34
0.34
0.29
0.345
0.385
0.345
0.27
0.345
0.32
0.285
0.275
0.26
0.255
0.265
0.185
0.32
0.295
0.23
0.245
0.17
0.21
0.275
0.315
0.275
0.175
0.295
0.255
0.28
0.295
0.28
0.27
0.165
0.155
0.21
0.21
0.205
0.25
0.23
0.2
0.13
0.205
0.28
0.25
0.265
0.075
0.25
0.255
0.265
0.215
0.24
0.25
0.19
0.18
0.205
0.235
0.22
0.295
0.29
0.27
0.2
0.135
0.215
0.255
0.215
0.13
0.07
0.295
0.305
0.305
0.265
0.275
0.27
0.27
0.23
0.285
0.245
0.15
0.23
0.22
0.15
0.25
0.255
0.23
0.22
0.2
0.245
0.195
0.32
0.22
0.225
0.24
0.15
0.18
0.2
0.24
0.24
0.28
0.245
0.22
0.155
0.145
0.195
0.2
0.19
0.175
0.125
0.165
0.355
0.175
0.155
0.23
0.245
0.17
0.0
0.205
0.175
0.195
0.255
0.19
0.18
0.205
0.09
0.12
0.115
0.125
0.155
0.215
0.22
0.21
0.2
0.175
0.215
0.26
0.225
0.315
0.32
0.215
0.28
0.315
0.38
0.275
0.135
0.185
0.19
0.185
0.2
0.1
0.27
0.29
0.27
0.235
0.31
0.265
0.33
0.365
0.205
0.205
0.205
0.21
0.265
0.26
0.27
0.29
0.28
0.205
0.215
0.235
0.275
0.365
0.265
0.255
0.1
0.275
0.235
0.215
0.14
0.17
0.135
0.175
0.17
0.135
0.105
0.12
0.19
0.075
0.12
0.08
0.09
0.18
0.1
0.1
0.155
0.21
0.155
0.14
0.08
0.105
0.13
0.13
0.105
0.14
0.135
0.13
0.12
0.105
0.08
0.065
0.035
0.11
0.15
0.085
0.14
0.24
0.315
0.405
0.56
0.74
0.8
0.955
1.03
0.89
0.815
0.79
0.665
0.375
0.075
-0.01
-0.055
0.005
-0.05
-0.06
-0.15
-0.065
0.0
-0.075
0.01
0.055
0.045
0.015
0.04
0.09
0.14
0.025
-0.045
0.04
0.0
0.115
0.085
0.06
0.17
0.2
0.145
0.1
0.095
0.105
0.055
0.07
0.14
0.135
0.155
0.19
0.195
0.14
0.115
0.115
0.11
-0.05
0.15
0.12
0.145
0.125
0.08
0.16
0.15
0.15
0.135
0.09
0.165
0.235
0.25
0.125
0.055
0.165
0.2
0.12
0.145
0.245
0.13
0.165
0.135
0.11
0.12
0.235
0.215
0.275
0.285
0.26
0.1
-0.02
0.185
0.265
0.24
0.22
0.285
0.29
0.205
0.225
0.205
0.165
0.25
0.31
0.295
0.19
0.125
0.205
0.18
0.22
0.215
0.185
0.195
0.265
0.27
0.295
0.355
0.365
0.325
0.31
0.295
0.31
0.29
0.295
0.295
0.32
0.285
0.325
0.315
0.275
0.295
0.29
0.335
0.305
0.335
0.285
0.255
0.365
0.395
0.44
0.33
0.255
0.24
0.305
0.405
0.28
0.26
0.265
0.38
0.39
0.425
0.35
0.325
0.25
0.22
0.23
0.355
0.215
0.255
0.23
0.175
0.2
0.25
0.325
0.26
0.295
0.15
0.135
0.16
0.18
0.22
0.15
0.185
0.19
0.14
0.125
0.205
0.225
0.26
0.155
0.23
0.18
0.175
0.115
0.165
0.19
0.13
0.195
0.19
0.205
0.14
0.06
0.185
0.25
0.205
0.21
0.18
0.21
0.29
0.29
0.21
-0.02
0.215
0.26
0.225
0.175
0.18
0.17
0.2
0.15
0.165
0.19
0.205
0.18
0.205
0.185
0.28
0.21
0.16
0.115
0.13
0.205
0.21
0.295
0.29
0.18
0.19
0.24
0.215
0.22
0.215
0.14
0.18
0.225
0.21
0.21
0.245
0.29
0.27
0.235
0.22
0.265
0.24
0.145
0.005
0.075
0.26
0.195
0.23
0.27
0.26
0.26
0.2
0.175
0.19
0.22
0.19
0.195
0.14
0.185
0.15
0.145
0.25
0.335
0.335
0.26
0.205
0.095
0.185
0.11
0.115
0.145
0.24
0.23
0.18
0.255
0.19
0.255
0.195
0.115
0.12
0.09
0.23
0.15
0.145
0.15
0.165
0.225
0.265
0.25
0.285
0.3
0.29
0.25
0.28
0.36
0.36
0.28
0.14
0.145
0.305
0.335
0.39
0.3
0.14
0.31
0.355
0.265
0.235
0.255
0.235
0.265
0.195
0.28
0.285
0.185
0.255
0.33
0.32
0.31
0.265
0.245
0.26
0.26
0.205
0.29
0.335
0.315
0.255
0.215
0.17
0.155
0.215
0.205
0.245
0.26
0.23
0.29
0.305
0.175
0.09
0.125
0.105
0.02
0.0
0.125
0.24
0.195
0.175
0.27
0.15
0.11
0.12
0.185
0.185
0.155
0.175
0.155
0.195
0.145
0.15
0.115
0.12
0.1
0.08
0.165
0.22
0.305
0.32
0.375
0.455
0.52
0.61
0.695
0.75
0.855
0.975
0.99
0.965
0.765
0.61
0.44
0.21
0.065
0.13
0.085
0.06
0.12
-0.015
-0.005
0.045
0.11
0.07
0.12
0.075
0.215
0.15
0.17
0.195
0.17
0.18
0.01
0.045
0.12
0.215
0.19
0.175
0.215
0.14
0.21
0.195
0.115
0.135
0.16
0.19
0.205
0.245
0.305
0.22
0.13
0.115
0.145
0.155
0.135
0.225
0.215
0.175
0.15
0.325
0.22
0.19
0.155
0.155
0.185
0.155
0.215
0.26
0.31
0.265
0.29
0.15
0.145
0.26
0.19
0.215
0.275
0.315
0.27
0.265
0.235
0.185
0.14
0.175
0.34
0.2
0.285
0.305
0.31
0.275
0.25
0.34
0.305
0.37
0.28
0.275
0.33
0.345
0.315
0.385
0.37
0.4
0.375
0.375
0.32
0.375
0.215
0.345
0.465
0.45
0.365
0.35
0.39
0.45
0.385
0.36
0.335
0.355
0.355
0.43
0.405
0.415
0.36
0.33
0.33
0.395
0.48
0.495
0.465
0.52
0.38
0.39
0.485
0.445
0.4
0.315
0.425
0.52
0.51
0.34
0.4
0.34
0.36
0.365
0.44
0.445
0.365
0.44
0.475
0.39
0.44
0.45
0.35
0.32
0.35
0.335
0.365
0.35
0.38
0.355
0.365
0.375
0.345
0.385
0.375
0.305
0.305
0.35
0.305
0.34
0.41
0.365
0.32
0.285
0.37
0.28
0.2
0.28
0.255
0.175
0.21
0.415
0.42
0.26
0.29
0.345
0.385
0.415
0.315
0.295
0.3
0.34
0.25
0.2
0.23
0.35
0.395
0.35
0.22
0.365
0.345
0.35
0.38
0.305
0.34
0.34
0.31
0.32
0.235
0.18
0.31
0.345
0.35
0.325
0.26
0.235
0.285
0.25
0.26
0.28
0.265
0.265
0.31
0.34
0.36
0.26
0.255
0.3
0.365
0.355
0.31
0.35
0.375
0.32
0.305
0.295
0.24
0.245
0.325
0.39
0.4
0.335
0.335
0.375
0.34
0.325
0.305
0.35
0.275
0.515
0.295
0.29
0.3
0.305
0.32
0.295
0.345
0.37
0.385
0.365
0.245
0.25
0.28
0.14
0.275
0.295
0.28
0.4
0.33
0.25
0.265
0.34
0.415
0.35
0.34
0.24
0.295
0.205
0.255
0.34
0.305
0.275
0.305
0.37
0.315
0.285
0.26
0.305
0.42
0.375
0.315
0.375
0.375
0.345
0.395
0.375
0.41
0.43
0.43
0.405
0.36
0.505
0.3
0.37
0.35
0.325
0.26
0.325
0.435
0.41
0.34
0.34
0.255
0.29
0.33
0.32
0.365
0.395
0.315
0.305
0.21
0.105
0.185
0.27
0.235
0.24
0.245
0.285
0.255
0.29
0.25
0.225
0.24
0.23
0.325
0.34
0.185
0.17
0.215
0.255
0.28
0.275
0.225
0.215
0.245
0.27
0.285
0.47
0.625
0.8
0.78
0.88
1.04
1.065
1.095
1.02
0.875
0.67
0.44
0.3
0.175
0.09
0.01
0.055
0.1
0.045
-0.005
0.115
0.165
0.16
0.21
0.19
0.19
0.27
0.15
0.07
0.27
0.28
0.265
0.325
0.215
0.215
0.27
0.24
0.205
0.205
0.295
0.3
0.255
0.28
0.3
0.26
0.25
0.21
0.25
0.225
0.305
0.35
0.265
0.395
0.28
0.11
0.13
0.115
0.2
0.245
0.215
0.25
0.42
0.425
0.405
0.205
0.09
0.09
0.215
0.3
0.27
0.26
0.24
0.235
0.14
0.23
0.44
0.365
0.345
0.32
0.445
0.395
0.225
0.125
0.3
0.33
0.28
0.315
0.3
0.345
0.365
0.37
0.33
0.36
0.345
0.35
0.345
0.345
0.335
0.365
0.385
0.385
0.32
0.325
0.445
0.325
0.385
0.47
0.34
0.45
0.435
0.375
0.345
0.3
0.405
0.28
0.355
0.355
0.36
0.38
0.43
0.44
0.43
0.35
0.315
0.34
0.45
0.365
0.38
0.4
0.48
0.425
0.46
0.4
0.35
0.42
0.445
0.475
0.47
0.47
0.425
0.41
0.44
0.405
0.365
0.405
0.32
0.43
0.435
0.425
0.405
0.385
0.34
0.39
0.37
0.355
0.445
0.475
0.345
0.38
0.16
0.35
0.35
0.17
0.215
0.34
0.36
0.265
0.34
0.245
0.23
0.425
0.325
0.295
0.32
0.295
0.285
0.265
0.235
0.32
0.325
0.305
0.315
0.21
0.31
0.28
0.285
0.25
0.325
0.325
0.33
0.325
0.32
0.285
0.19
0.185
0.28
0.325
0.325
0.285
0.27
0.23
0.245
0.195
0.295
0.2
0.235
0.365
0.325
0.305
0.345
0.3
0.35
0.34
0.185
0.28
0.38
0.31
0.315
0.34
0.285
0.17
0.415
0.395
0.315
0.28
0.28
0.305
0.305
0.275
0.315
0.33
0.355
0.375
0.315
0.26
0.275
0.235
0.345
0.365
0.34
0.295
0.32
0.345
0.375
0.325
0.275
0.295
0.2
0.285
0.34
0.315
0.315
0.32
0.33
0.365
0.28
0.335
0.37
0.295
0.195
0.3
0.285
0.275
0.185
0.21
0.215
0.335
0.325
0.31
0.32
0.285
0.27
0.3
0.32
0.35
0.375
0.3
0.355
0.26
0.26
0.3
0.38
0.305
0.29
0.33
0.345
0.31
0.325
0.365
0.415
0.41
0.385
0.39
0.39
0.365
0.33
0.315
0.345
0.395
0.385
0.375
0.375
0.37
0.43
0.4
0.36
0.31
0.32
0.475
0.32
0.425
0.38
0.375
0.395
0.355
0.3
0.285
0.375
0.295
0.4
0.425
0.32
0.19
0.245
0.34
0.215
0.275
0.32
0.305
0.27
0.24
0.315
0.24
0.175
0.12
0.325
0.345
0.345
0.26
0.31
0.26
0.255
0.29
0.26
0.265
0.23
0.295
0.33
0.31
0.33
0.26
0.3
0.29
0.195
0.195
0.245
0.39
0.3
0.38
0.475
0.655
0.53
0.61
0.745
0.87
0.925
1.11
1.14
1.025
0.965
0.82
0.585
0.295
0.075
0.045
0.075
0.08
0.105
0.12
0.155
0.175
0.15
0.115
0.17
0.195
0.155
0.19
0.26
0.255
0.245
0.215
0.19
0.215
0.275
0.27
0.265
0.25
0.245
0.185
0.285
0.275
0.135
0.09
0.24
0.335
0.335
0.295
0.305
0.33
0.3
0.305
0.245
0.22
0.275
0.305
0.265
0.29
0.32
0.41
0.32
0.26
0.285
0.285
0.295
0.325
0.33
0.345
0.305
0.28
0.32
0.26
0.215
0.19
0.34
0.385
0.42
0.225
0.335
0.31
0.245
0.22
0.225
0.24
0.255
0.36
0.29
0.38
0.365
0.325
0.355
0.44
0.505
0.365
0.245
0.185
0.345
0.455
0.36
0.38
0.43
0.38
0.385
0.34
0.38
0.415
0.44
0.35
0.43
0.465
0.45
0.475
0.53
0.425
0.395
0.465
0.36
0.4
0.39
0.52
0.4
0.355
0.445
0.43
0.435
0.475
0.46
0.46
0.505
0.53
0.48
0.42
0.425
0.42
0.35
0.33
0.41
0.46
0.485
0.455
0.43
0.4
0.405
0.445
0.43
0.425
0.45
0.475
0.39
0.345
0.405
0.4
0.415
0.46
0.41
0.39
0.375
0.38
0.445
0.43
0.43
0.405
0.43
0.41
0.36
0.365
0.37
0.395
0.43
0.365
0.325
0.385
0.365
0.335
0.36
0.34
0.315
0.25
0.235
0.26
0.345
0.41
0.36
0.245
0.375
0.385
0.31
0.3
0.305
0.38
0.465
0.395
0.31
0.375
0.355
0.33
0.32
0.325
0.29
0.32
0.3
0.425
0.5
0.39
0.29
0.31
0.35
0.395
0.34
0.37
0.33
0.36
0.28
0.34
0.345
0.335
0.37
0.445
0.44
0.37
0.34
0.325
0.355
0.385
0.295
0.36
0.36
0.355
0.335
0.37
0.33
0.335
0.4
0.43
0.47
0.42
0.46
0.39
0.365
0.4
0.36
0.235
0.33
0.365
0.39
0.365
0.285
0.29
0.425
0.415
0.46
0.38
0.435
0.44
0.4
0.35
0.395
0.395
0.28
0.335
0.335
0.375
0.22
0.375
0.36
0.37
0.42
0.465
0.415
0.32
0.315
0.31
0.355
0.365
0.39
0.375
0.33
0.42
0.38
0.4
0.34
0.355
0.34
0.335
0.33
0.38
0.43
0.44
0.425
0.455
0.33
0.255
0.37
0.4
0.43
0.44
0.38
0.505
0.485
0.445
0.425
0.36
0.365
0.42
0.435
0.42
0.355
0.405
0.44
0.41
0.455
0.4
0.46
0.415
0.4
0.405
0.38
0.38
0.405
0.415
0.475
0.35
0.3
0.25
0.365
0.355
0.345
0.425
0.305
0.315
0.295
0.345
0.28
0.28
0.27
0.225
0.195
0.3
0.33
0.32
0.26
0.27
0.28
0.345
0.3
0.35
0.405
0.345
0.255
0.18
0.255
0.23
0.27
0.25
0.225
0.22
0.29
0.275
0.24
0.26
0.245
0.33
0.36
0.48
0.595
0.635
0.84
1.04
1.08
1.09
1.06
1.06
0.925
0.725
0.545
0.33
0.235
0.14
0.09
-0.02
0.1
0.04
-0.02
0.075
0.105
0.265
0.275
0.255
0.25
0.25
0.26
0.245
0.22
0.23
0.26
0.28
0.31
0.24
0.205
0.22
0.355
0.34
0.325
0.305
0.375
0.3
0.36
0.265
0.29
0.27
0.235
0.245
0.28
0.25
0.235
0.235
0.325
0.27
0.275
0.29
0.26
0.215
0.195
0.22
0.235
0.325
0.355
0.345
0.3
0.31
0.28
0.35
0.355
0.345
0.24
0.205
0.3
0.28
0.29
0.305
0.37
0.285
0.185
0.245
0.28
0.305
0.27
0.2
0.26
0.22
0.345
0.32
0.32
0.275
0.285
0.33
0.36
0.33
0.28
0.385
0.285
0.31
0.35
0.345
0.195
0.295
0.34
0.275
0.255
0.275
0.315
0.32
0.315
0.3
0.35
0.35
0.35
0.34
0.29
0.195
0.275
0.36
0.35
0.31
0.28
0.285
0.285
0.305
0.38
0.335
0.325
0.28
0.315
0.405
0.325
0.35
0.315
0.305
0.355
0.38
0.315
0.345
0.31
0.34
0.355
0.34
0.36
0.305
0.35
0.21
0.24
0.255
0.175
0.11
0.375
0.325
0.385
0.325
0.26
0.265
0.245
0.14
0.145
0.145
0.2
0.205
0.29
0.175
0.29
0.285
0.18
0.175
0.125
0.2
0.22
0.19
0.17
0.145
0.14
0.125
0.245
0.15
0.105
0.18
0.23
0.18
0.15
0.2
0.13
0.085
0.145
0.135
0.2
0.175
0.205
0.2
0.25
0.205
0.125
0.165
0.13
0.09
0.15
0.075
0.14
0.195
0.22
0.24
0.11
0.11
0.17
0.185
0.2
0.225
0.075
0.155
0.145
0.08
0.12
0.185
0.145
0.145
0.16
0.135
0.145
0.165
0.16
0.12
0.16
0.175
0.21
0.205
0.12
0.125
0.17
0.19
0.19
0.225
0.13
0.14
0.135
0.135
0.14
0.125
0.175
0.205
0.24
0.135
0.08
0.005
0.05
0.1
0.135
0.105
0.135
0.09
0.115
0.105
0.13
0.115
0.115
0.095
0.155
0.03
0.055
0.11
0.11
0.08
0.055
0.05
0.115
0.03
-0.01
0.085
0.115
0.125
0.085
0.035
0.12
0.07
0.155
0.18
0.16
0.115
0.205
0.13
0.11
0.045
0.145
0.23
0.16
0.145
0.125
0.175
0.15
0.075
0.215
0.205
0.145
0.115
0.135
0.13
0.025
0.05
0.115
0.155
0.155
0.12
0.145
0.1
0.17
0.06
0.125
0.145
0.185
0.17
0.275
0.015
-0.015
0.055
0.025
0.03
0.105
0.135
0.025
0.075
0.08
0.04
0.0
-0.045
0.08
0.12
0.07
-0.025
0.015
0.03
0.015
0.105
0.075
-0.015
0.04
0.1
-0.015
-0.08
-0.015
0.02
0.015
0.165
0.06
0.025
0.01
0.085
-0.005
-0.015
0.075
0.07
0.065
0.025
0.14
0.285
0.43
0.475
0.5
0.595
0.75
0.75
0.755
0.64
0.52
0.345
0.075
-0.125
-0.15
-0.295
-0.165
-0.235
-0.14
-0.1
-0.05
-0.065
-0.115
-0.115
-0.11
-0.095
-0.005
-0.065
0.005
-0.035
-0.02
0.01
-0.065
-0.035
0.005
0.105
0.07
0.03
-0.045
-0.01
-0.01
0.02
-0.02
0.045
0.03
0.025
0.025
0.06
0.01
0.0
0.045
0.06
0.06
-0.005
-0.015
0.09
0.115
0.015
-0.085
-0.08
0.03
0.095
0.07
0.105
0.005
0.075
0.03
0.07
0.07
0.08
0.015
0.02
-0.04
-0.095
-0.025
0.085
-0.005
0.025
0.01
-0.01
0.015
0.075
0.055
0.035
0.035
0.025
0.06
0.12
0.14
0.07
0.06
0.085
0.085
0.09
0.1
0.14
0.135
0.2
0.135
0.125
0.135
0.14
0.17
0.18
0.15
0.255
0.105
0.125
0.235
0.135
0.13
0.16
0.055
0.075
0.125
0.165
0.235
0.21
0.18
0.115
0.155
0.16
0.16
0.19
0.215
0.24
0.165
0.155
0.19
0.14
0.165
0.175
0.23
0.19
0.16
0.16
0.255
0.27
0.275
0.27
0.215
0.24
0.22
0.25
0.29
0.315
0.205
0.155
0.135
0.145
0.195
0.205
0.265
0.19
0.165
0.085
0.095
0.165
0.1
0.095
0.115
0.075
0.105
0.135
0.175
0.175
0.17
-0.015
-0.045
0.06
0.075
0.03
0.025
0.13
0.15
0.125
0.155
0.165
0.11
0.1
0.125
0.09
0.115
0.125
0.1
0.185
0.105
0.075
0.045
0.095
0.11
0.09
0.155
0.18
0.13
0.125
0.105
0.175
0.08
0.09
0.125
0.12
0.005
0.06
0.15
0.225
0.16
0.155
0.085
0.035
0.095
0.12
0.155
0.17
0.16
0.115
0.085
0.07
0.085
0.14
0.15
0.17
0.1
0.245
0.285
0.145
0.155
0.105
0.13
0.13
0.14
0.05
0.03
0.14
0.175
0.17
0.155
0.185
0.19
0.12
0.06
0.045
0.12
0.21
0.22
0.24
0.1
0.075
0.07
-0.005
0.1
0.115
0.14
0.17
0.185
0.02
0.095
0.035
0.08
0.135
0.26
0.155
0.035
-0.045
0.01
0.1
0.1
0.07
0.06
0.12
0.105
0.16
0.165
0.175
0.155
0.16
0.07
0.125
0.12
0.075
0.07
0.145
0.15
0.15
0.26
0.265
0.185
0.125
0.05
0.07
0.075
0.075
0.175
0.33
0.235
0.125
0.115
0.195
0.145
0.14
0.105
0.105
0.15
0.115
0.135
0.115
0.11
0.17
0.165
0.2
0.185
0.225
0.19
0.07
0.21
0.195
0.15
0.18
0.165
0.185
0.155
0.105
0.07
0.05
0.095
0.075
0.035
0.08
0.12
0.125
0.115
0.15
0.175
0.055
0.09
0.07
0.035
0.075
0.11
0.105
0.07
-0.025
-0.04
-0.01
0.065
0.11
0.125
0.02
-0.025
0.055
0.085
0.065
0.17
0.165
0.225
0.25
0.305
0.365
0.43
0.76
0.695
0.815
0.795
0.76
0.765
0.67
0.48
0.21
-0.035
-0.02
-0.005
-0.01
0.04
0.035
-0.06
-0.06
-0.07
-0.005
0.075
0.09
0.08
0.01
0.035
0.07
0.1
0.04
0.06
0.065
0.055
0.08
0.055
0.035
0.1
0.095
0.18
0.175
0.09
0.105
0.01
0.01
0.105
0.1
0.105
0.09
0.08
0.06
0.005
-0.015
0.07
0.11
0.125
0.115
0.09
0.135
0.13
0.03
0.015
0.03
0.06
0.09
0.12
0.12
0.105
0.08
0.1
0.045
-0.03
0.025
0.16
0.215
0.195
0.17
0.08
0.07
0.125
0.105
0.06
-0.01
0.065
0.075
0.09
0.15
0.16
0.22
0.155
0.17
0.13
0.14
0.085
0.265
0.2
0.175
0.13
0.2
0.17
0.135
0.14
0.215
0.13
0.05
0.14
0.195
0.155
0.11
0.23
0.22
0.125
0.14
0.05
0.195
0.27
0.245
0.26
0.26
0.25
0.245
0.19
0.13
0.13
0.15
0.27
0.34
0.215
0.115
0.12
0.15
0.195
0.18
0.285
0.29
0.23
0.155
0.245
0.31
0.015
0.185
0.32
0.19
0.24
0.205
0.225
0.215
0.2
0.145
0.16
0.11
0.12
0.155
0.155
0.235
0.215
0.12
0.1
0.14
0.14
0.115
0.13
0.075
0.035
0.015
0.035
0.125
0.07
0.065
0.12
0.165
0.13
0.095
0.095
0.165
0.055
0.11
0.085
0.085
0.065
0.175
0.12
0.115
0.08
0.07
0.115
0.16
0.12
0.095
0.125
0.11
0.165
0.13
0.0
0.05
0.045
0.07
0.145
0.135
0.155
0.195
0.14
0.1
0.145
0.035
0.045
0.13
0.18
0.07
0.005
0.01
0.12
0.065
0.05
0.1
0.115
0.165
0.185
0.035
0.03
0.105
0.09
0.08
0.12
0.165
0.195
0.18
0.175
0.105
0.115
0.09
0.13
0.11
0.095
0.085
0.095
0.155
0.16
0.045
0.01
0.0
0.06
0.09
0.12
0.11
0.115
0.1
0.1
0.105
0.125
0.165
0.15
0.13
0.0
-0.05
0.02
0.08
0.05
0.12
0.21
0.06
0.1
0.15
0.11
0.125
0.01
0.045
0.135
0.15
0.045
0.06
0.095
0.06
0.12
0.13
0.085
0.165
0.105
-0.01
-0.03
-0.025
0.0
0.08
0.12
0.08
0.125
0.11
0.12
0.105
0.08
0.04
0.095
0.125
0.16
0.115
0.125
0.095
0.115
0.135
0.15
0.17
0.13
0.205
0.155
0.21
0.23
0.185
0.195
0.14
0.08
0.015
0.015
0.105
0.12
0.195
0.25
0.33
0.215
0.05
0.15
0.055
0.025
0.03
0.095
0.06
0.065
0.135
0.13
0.04
0.07
0.05
0.125
0.105
0.065
0.13
0.095
0.0
0.03
0.02
0.03
0.045
0.045
0.02
0.1
0.08
0.09
0.095
0.055
0.025
0.05
0.11
0.095
0.095
0.105
0.045
0.07
0.045
0.04
0.085
0.095
0.065
0.155
0.045
0.24
0.375
0.515
0.615
0.725
0.825
0.775
0.815
0.815
0.715
0.445
0.24
0.0
0.04
-0.05
-0.13
-0.195
-0.11
-0.065
-0.115
-0.025
0.065
0.035
-0.01
0.03
0.1
0.04
0.01
-0.05
0.11
0.025
0.16
0.085
0.05
0.105
0.12
0.075
0.065
0.07
0.1
0.125
0.16
0.13
0.17
0.125
0.03
0.08
0.12
0.095
0.06
0.0
0.125
0.145
0.175
0.16
0.14
0.09
-0.01
0.0
0.165
0.2
0.12
0.12
0.17
0.12
0.22
0.145
0.165
0.13
0.215
0.24
0.25
0.265
0.215
0.15
0.105
0.155
0.16
0.2
0.17
0.15
0.07
0.135
0.15
0.11
0.205
0.1
0.055
0.16
0.255
0.23
0.175
0.2
0.165
0.215
0.265
0.185
0.19
0.235
0.29
0.24
0.215
0.26
0.315
0.28
0.235
0.175
0.255
0.265
0.255
0.275
0.3
0.325
0.355
0.29
0.265
0.15
0.2
0.265
0.31
0.305
0.31
0.355
0.23
0.19
0.32
0.225
0.35
0.34
0.37
0.285
0.295
0.255
0.285
0.275
0.355
0.19
0.145
0.26
0.345
0.295
0.24
0.27
0.29
0.265
0.29
0.36
0.28
0.27
0.25
0.275
0.19
0.22
0.185
0.225
0.295
0.26
0.24
0.23
0.25
0.315
0.25
0.22
0.225
0.165
0.16
0.2
0.24
0.265
0.195
0.185
0.15
-0.03
0.12
0.265
0.245
0.31
0.26
0.185
0.135
0.255
0.285
0.22
0.195
0.225
0.235
0.3
0.24
0.21
0.235
0.315
0.305
0.195
0.26
0.155
0.075
0.11
0.165
0.23
0.26
0.215
0.23
0.245
0.21
0.145
0.165
0.185
0.285
0.215
0.145
0.13
0.165
0.31
0.34
0.24
0.18
0.175
0.1
0.235
0.335
0.295
0.285
0.21
0.29
0.27
0.26
0.25
0.22
0.285
0.195
0.265
0.265
0.315
0.21
0.235
0.265
0.255
0.26
0.24
0.205
0.215
0.27
0.265
0.31
0.12
0.13
0.205
0.19
0.245
0.28
0.255
0.265
0.26
0.27
0.285
0.155
0.195
0.235
0.225
0.28
0.24
0.195
0.26
0.215
0.29
0.285
0.175
0.15
0.155
0.24
0.3
0.36
0.28
0.23
0.16
0.155
0.165
0.175
0.155
0.17
0.25
0.405
0.41
0.36
0.16
0.005
0.115
0.27
0.27
0.26
0.275
0.285
0.23
0.17
0.215
0.245
0.17
0.17
0.22
0.365
0.37
0.36
0.325
0.24
0.245
0.32
0.295
0.245
0.27
0.29
0.27
0.28
0.325
0.4
0.315
0.27
0.3
0.3
0.275
0.235
0.285
0.31
0.255
0.095
0.205
0.285
0.27
0.22
0.185
0.285
0.225
0.16
0.17
0.1
0.095
0.17
0.13
0.105
0.12
0.2
0.225
0.25
0.155
0.205
0.16
0.18
0.15
0.165
0.185
0.225
0.145
0.275
0.155
0.135
0.1
0.145
0.205
0.245
0.245
0.21
0.195
0.2
0.285
0.525
0.625
0.71
0.805
0.865
0.965
0.92
0.885
0.78
0.58
0.37
0.235
0.135
0.14
0.04
0.04
0.1
0.1
-0.025
0.035
0.035
0.055
0.095
0.08
0.13
0.095
0.1
0.195
0.175
0.165
0.14
0.195
0.16
0.1
0.115
0.18
0.28
0.27
0.35
0.18
0.085
0.12
0.13
0.24
0.26
0.2
0.165
0.2
0.19
0.135
0.25
0.165
0.165
0.19
0.225
0.315
0.31
0.265
0.235
0.22
0.225
0.235
0.255
0.235
0.265
0.275
0.205
0.2
0.255
0.19
0.19
0.285
0.26
0.275
0.31
0.215
0.25
0.28
0.245
0.255
0.2
0.205
0.27
0.335
0.235
0.295
0.245
0.28
0.31
0.295
0.255
0.295
0.33
0.265
0.275
0.255
0.31
0.335
0.38
0.33
0.215
0.255
0.345
0.33
0.42
0.385
0.265
0.23
0.3
0.245
0.315
0.36
0.49
0.44
0.39
0.375
0.365
0.365
0.37
0.43
0.36
0.45
0.405
0.29
0.36
0.32
0.385
0.45
0.475
0.34
0.295
0.34
0.255
0.24
0.305
0.34
0.345
0.37
0.375
0.37
0.28
0.295
0.335
0.345
0.31
0.345
0.42
0.36
0.4
0.31
0.22
0.285
0.22
0.27
0.23
0.135
0.34
0.345
0.37
0.28
0.32
0.255
0.285
0.305
0.315
0.345
0.365
0.335
0.23
0.205
0.09
0.155
0.285
0.335
0.28
0.195
0.235
0.235
0.225
0.25
0.205
0.205
0.23
0.195
0.285
0.26
0.275
0.21
0.175
0.19
0.275
0.385
0.24
0.16
0.28
0.085
0.125
0.235
0.3
0.185
0.2
0.225
0.23
0.235
0.29
0.245
0.3
0.36
0.35
0.315
0.225
0.29
0.315
0.185
0.325
0.32
0.275
0.23
0.365
0.23
0.245
0.165
0.185
0.3
0.39
0.315
0.23
0.26
0.335
0.295
0.235
0.215
0.235
0.315
0.245
0.295
0.29
0.29
0.305
0.295
0.13
0.15
0.175
0.125
0.19
0.27
0.17
0.235
0.37
0.36
0.3
0.39
0.335
0.3
0.295
0.325
0.355
0.295
0.215
0.19
0.07
0.11
0.265
0.29
0.29
0.41
0.215
0.23
0.26
0.19
0.17
0.305
0.275
0.21
0.255
0.295
0.26
0.21
0.195
0.215
0.245
0.335
0.35
0.37
0.35
0.335
0.34
0.35
0.33
0.35
0.34
0.33
0.29
0.325
0.365
0.37
0.28
0.22
0.295
0.33
0.345
0.32
0.335
0.345
0.31
0.335
0.215
0.29
0.285
0.285
0.345
0.315
0.235
0.265
0.26
0.325
0.285
0.25
0.21
0.16
0.235
0.16
0.34
0.31
0.275
0.26
0.135
0.145
0.19
0.27
0.115
0.075
0.165
0.19
0.18
0.215
0.16
0.07
0.14
0.205
0.14
0.185
0.18
0.18
0.26
0.245
0.245
0.175
0.135
0.09
0.27
0.24
0.265
0.185
0.225
0.245
0.19
0.15
0.2
0.27
0.455
0.61
0.82
0.92
1.02
1.03
0.925
0.8
0.59
0.43
0.21
0.095
0.05
0.045
0.01
0.03
0.07
0.09
0.035
0.085
0.04
0.065
0.05
-0.015
0.15
0.22
0.22
0.245
0.18
0.085
0.125
0.14
0.215
0.19
0.19
0.12
0.085
0.14
0.13
0.18
0.04
0.145
0.16
0.16
0.095
0.07
0.13
0.16
0.08
0.045
0.12
0.2
0.185
0.245
0.185
0.095
0.105
0.15
0.075
0.15
0.24
0.185
0.21
0.22
0.21
0.19
0.065
0.14
0.23
0.17
0.135
0.205
0.175
0.27
0.235
0.245
0.19
0.21
0.15
0.23
0.18
0.19
0.235
0.21
0.165
0.17
0.205
0.205
0.135
0.18
0.245
0.13
0.19
0.23
0.265
0.295
0.26
0.165
0.23
0.21
0.215
0.28
0.25
0.28
0.27
0.22
0.3
0.25
0.27
0.355
0.315
0.315
0.305
0.265
0.305
0.24
0.25
0.235
0.35
0.365
0.335
0.295
0.3
0.305
0.35
0.31
0.29
0.325
0.285
0.385
0.38
0.37
0.29
0.285
0.24
0.285
0.35
0.35
0.39
0.29
0.315
0.295
0.29
0.275
0.31
0.365
0.315
0.29
0.325
0.34
0.37
0.335
0.2
0.16
0.215
0.26
0.235
0.24
0.285
0.28
0.32
0.285
0.265
0.245
0.155
0.205
0.24
0.2
0.155
0.26
0.205
0.195
0.28
0.3
0.155
0.095
0.26
0.23
0.185
0.295
0.12
0.155
0.18
0.245
0.21
0.195
0.135
0.235
0.205
0.19
0.185
0.195
0.225
0.24
0.25
0.295
0.245
0.195
0.235
0.155
0.095
0.145
0.24
0.22
0.235
0.225
0.29
0.34
0.23
0.175
0.245
0.27
0.245
0.205
0.165
0.325
0.24
0.225
0.15
0.25
0.27
0.265
0.28
0.275
0.315
0.26
0.24
0.32
0.32
0.28
0.34
0.365
0.295
0.265
0.17
0.185
0.27
0.24
0.3
0.375
0.295
0.26
0.29
0.3
0.305
0.27
0.255
0.215
0.27
0.27
0.335
0.23
0.38
0.39
0.3
0.25
0.245
0.16
0.245
0.34
0.295
0.27
0.305
0.26
0.3
0.34
0.285
0.245
0.175
0.26
0.26
0.19
0.145
0.18
0.25
0.3
0.27
0.285
0.35
0.345
0.18
0.335
0.34
0.45
0.37
0.365
0.36
0.32
0.345
0.295
0.415
0.465
0.435
0.47
0.405
0.31
0.285
0.3
0.295
0.35
0.405
0.405
0.435
0.385
0.295
0.31
0.31
0.365
0.39
0.41
0.42
0.335
0.305
0.395
0.34
0.35
0.335
0.37
0.285
0.335
0.335
0.305
0.325
0.37
0.2
0.14
0.185
0.235
0.35
0.25
0.25
0.315
0.325
0.27
0.305
0.185
0.275
0.34
0.3
0.265
0.275
0.27
0.205
0.355
0.375
0.315
0.19
0.13
0.22
0.235
0.285
0.21
0.255
0.28
0.315
0.265
0.255
0.305
0.48
0.55
0.585
0.735
0.845
0.995
1.1
1.11
1.155
1.025
0.87
0.65
0.41
0.305
0.21
0.1
0.09
0.1
0.13
0.12
0.135
0.14
0.17
0.285
0.32
0.22
0.235
0.155
0.195
0.31
0.355
0.245
0.295
0.315
0.32
0.24
0.21
0.265
0.41
0.39
0.255
0.29
0.3
0.375
0.295
0.29
0.255
0.21
0.295
0.33
0.265
0.235
0.255
0.23
0.26
0.355
0.405
0.31
0.325
0.29
0.28
0.29
0.38
0.42
0.375
0.39
0.335
0.3
0.34
0.29
0.195
0.33
0.41
0.3
0.435
0.375
0.5
0.43
0.37
0.37
0.385
0.385
0.37
0.36
0.53
0.415
0.41
0.37
0.29
0.43
0.43
0.405
0.44
0.42
0.415
0.45
0.465
0.435
0.505
0.295
0.25
0.31
0.515
0.565
0.475
0.47
0.53
0.595
0.485
0.415
0.445
0.465
0.54
0.57
0.51
0.58
0.575
0.515
0.465
0.49
0.49
0.4
0.43
0.47
0.45
0.515
0.48
0.595
0.445
0.465
0.515
0.49
0.5
0.485
0.55
0.59
0.56
0.5
0.45
0.405
0.54
0.5
0.53
0.57
0.48
0.58
0.495
0.5
0.54
0.51
0.495
0.575
0.515
0.505
0.495
0.54
0.505
0.485
0.48
0.47
0.465
0.41
0.36
0.505
0.445
0.44
0.51
0.49
0.355
0.28
0.395
0.43
0.45
0.38
0.46
0.37
0.36
0.425
0.46
0.445
0.435
0.38
0.34
0.405
0.43
0.27
0.255
0.425
0.435
0.39
0.385
0.36
0.305
0.335
0.47
0.45
0.455
0.425
0.435
0.405
0.43
0.43
0.5
0.415
0.315
0.41
0.365
0.34
0.315
0.41
0.425
0.405
0.415
0.415
0.45
0.44
0.355
0.32
0.35
0.35
0.405
0.405
0.495
0.38
0.355
0.33
0.44
0.485
0.445
0.35
0.4
0.46
0.51
0.425
0.245
0.42
0.365
0.285
0.36
0.39
0.415
0.41
0.46
0.425
0.27
0.345
0.265
0.27
0.38
0.485
0.37
0.27
0.33
0.385
0.385
0.28
0.31
0.3
0.31
0.29
0.29
0.27
0.38
0.285
0.425
0.43
0.445
0.415
0.435
0.42
0.375
0.34
0.335
0.335
0.42
0.39
0.285
0.375
0.425
0.445
0.44
0.45
0.46
0.51
0.435
0.4
0.41
0.415
0.4
0.4
0.425
0.405
0.425
0.47
0.48
0.49
0.435
0.46
0.48
0.485
0.46
0.47
0.445
0.48
0.47
0.5
0.44
0.39
0.375
0.435
0.415
0.48
0.535
0.445
0.245
0.405
0.375
0.445
0.395
0.405
0.42
0.34
0.34
0.32
0.355
0.365
0.29
0.455
0.375
0.405
0.32
0.345
0.305
0.315
0.33
0.33
0.345
0.355
0.34
0.375
0.425
0.315
0.28
0.265
0.305
0.315
0.275
0.335
0.355
0.42
0.36
0.225
0.255
0.345
0.375
0.385
0.355
0.545
0.55
0.64
0.765
0.945
1.04
1.225
1.285
1.195
1.07
0.925
0.73
0.405
0.325
0.14
0.125
0.125
0.13
0.16
0.18
0.215
0.27
0.295
0.33
0.355
0.17
0.155
0.195
0.265
0.255
0.25
0.35
0.375
0.235
0.275
0.225
0.245
0.385
0.285
0.29
0.365
0.285
0.345
0.425
0.45
0.35
0.32
0.32
0.24
0.37
0.47
0.325
0.365
0.38
0.37
0.345
0.355
0.34
0.34
0.38
0.375
0.29
0.24
0.36
0.47
0.46
0.36
0.28
0.265
0.295
0.39
0.44
0.475
0.455
0.385
0.35
0.365
0.395
0.335
0.38
0.4
0.39
0.445
0.35
0.215
0.22
0.355
0.37
0.435
0.425
0.425
0.415
0.4
0.46
0.415
0.395
0.39
0.4
0.44
0.47
0.47
0.49
0.51
0.485
0.45
0.475
0.45
0.37
0.51
0.39
0.4
0.45
0.445
0.455
0.475
0.49
0.525
0.51
0.505
0.445
0.495
0.505
0.44
0.415
0.47
0.495
0.56
0.525
0.555
0.52
0.455
0.535
0.58
0.47
0.535
0.535
0.46
0.465
0.56
0.54
0.51
0.45
0.48
0.465
0.57
0.545
0.545
0.55
0.52
0.48
0.5
0.5
0.5
0.515
0.465
0.52
0.445
0.39
0.465
0.48
0.495
0.535
0.455
0.45
0.325
0.365
0.5
0.425
0.375
0.37
0.435
0.34
0.41
0.51
0.505
0.425
0.32
0.31
0.38
0.425
0.3
0.355
0.36
0.455
0.5
0.42
0.305
0.37
0.395
0.395
0.52
0.495
0.485
0.53
0.475
0.41
0.355
0.29
0.335
0.375
0.425
0.46
0.46
0.48
0.505
0.42
0.415
0.405
0.47
0.355
0.28
0.385
0.42
0.465
0.405
0.485
0.485
0.53
0.455
0.49
0.28
0.325
0.295
0.385
0.475
0.485
0.43
0.37
0.495
0.435
0.38
0.395
0.485
0.425
0.42
0.4
0.385
0.345
0.305
0.37
0.29
0.385
0.33
0.425
0.405
0.315
0.37
0.41
0.445
0.43
0.415
0.425
0.395
0.4
0.475
0.34
0.385
0.395
0.43
0.375
0.26
0.36
0.395
0.435
0.445
0.385
0.335
0.295
0.375
0.39
0.39
0.4
0.385
0.37
0.425
0.42
0.425
0.565
0.35
0.225
0.3
0.325
0.49
0.475
0.445
0.485
0.56
0.45
0.305
0.42
0.45
0.42
0.42
0.52
0.575
0.495
0.435
0.48
0.455
0.235
0.395
0.475
0.475
0.49
0.465
0.54
0.435
0.39
0.425
0.49
0.385
0.36
0.42
0.445
0.45
0.345
0.4
0.39
0.455
0.37
0.435
0.28
0.325
0.335
0.365
0.395
0.285
0.27
0.27
0.3
0.26
0.26
0.34
0.345
0.265
0.345
0.25
0.2
0.33
0.435
0.42
0.31
0.225
0.345
0.34
0.3
0.295
0.41
0.355
0.19
0.265
0.285
0.34
0.29
0.29
0.415
0.49
0.61
0.815
0.93
1.0
1.085
1.14
1.185
1.155
1.04
0.7
0.605
0.24
0.03
0.045
0.055
0.045
0.065
0.17
0.16
0.2
0.205
0.195
0.19
0.355
0.375
0.27
0.335
0.42
0.245
0.22
0.25
0.28
0.325
0.26
0.275
0.285
0.26
0.29
0.28
0.19
0.28
0.28
0.33
0.19
0.325
0.4
0.315
0.285
0.255
0.275
0.25
0.33
0.35
0.32
0.255
0.325
0.35
0.25
0.255
0.29
0.31
0.375
0.4
0.39
0.345
0.335
0.275
0.3
0.3
0.3
0.275
0.27
0.37
0.365
0.395
0.4
0.39
0.4
0.41
0.395
0.32
0.345
0.325
0.365
0.375
0.375
0.415
0.38
0.32
0.35
0.335
0.425
0.495
0.475
0.455
0.4
0.45
0.385
0.295
0.365
0.445
0.475
0.495
0.43
0.435
0.43
0.435
0.415
0.47
0.505
0.495
0.565
0.5
0.43
0.505
0.41
0.395
0.39
0.4
0.415
0.415
0.445
0.48
0.465
0.47
0.47
0.575
0.585
0.54
0.52
0.42
0.325
0.47
0.59
0.585
0.575
0.525
0.505
0.425
0.445
0.57
0.615
0.52
0.6
0.48
0.475
0.435
0.365
0.42
0.445
0.415
0.395
0.505
0.51
0.47
0.5
0.465
0.395
0.34
0.29
0.4
0.435
0.42
0.49
0.52
0.43
0.56
0.44
0.38
0.38
0.36
0.295
0.405
0.39
0.285
0.31
0.36
0.365
0.365
0.465
0.45
0.395
0.42
0.54
0.395
0.36
0.35
0.36
0.36
0.39
0.48
0.37
0.295
0.35
0.505
0.49
0.455
0.38
0.36
0.5
0.48
0.39
0.415
0.41
0.425
0.335
0.48
0.435
0.43
0.475
0.535
0.465
0.44
0.435
0.51
0.56
0.485
0.415
0.405
0.365
0.315
0.45
0.49
0.415
0.57
0.535
0.435
0.345
0.33
0.365
0.36
0.37
0.375
0.395
0.425
0.415
0.415
0.36
0.42
0.395
0.405
0.38
0.385
0.415
0.44
0.4
0.415
0.445
0.465
0.435
0.32
0.37
0.35
0.41
0.425
0.385
0.42
0.355
0.32
0.455
0.475
0.455
0.485
0.38
0.41
0.39
0.455
0.395
0.445
0.48
0.335
0.43
0.485
0.585
0.55
0.45
0.4
0.415
0.475
0.485
0.465
0.55
0.505
0.565
0.515
0.495
0.62
0.49
0.47
0.495
0.475
0.515
0.5
0.515
0.435
0.405
0.475
0.53
0.535
0.51
0.555
0.565
0.555
0.515
0.48
0.485
0.475
0.43
0.42
0.575
0.48
0.485
0.545
0.54
0.45
0.43
0.35
0.37
0.385
0.42
0.3
0.34
0.34
0.355
0.41
0.455
0.495
0.5
0.53
0.565
0.47
0.315
0.215
0.37
0.37
0.28
0.305
0.355
0.345
0.3
0.315
0.425
0.545
0.445
0.385
0.35
0.285
0.315
0.27
0.37
0.485
0.58
0.715
0.715
0.825
0.98
1.135
1.155
1.195
1.18
0.97
0.815
0.575
0.24
0.115
0.125
0.06
0.08
0.11
0.155
0.17
0.125
0.145
0.265
0.275
0.355
0.315
0.33
0.355
0.355
0.365
0.32
0.315
0.325
0.365
0.31
0.425
0.295
0.265
0.26
0.295
0.375
0.38
0.35
0.35
0.14
0.275
0.26
0.19
0.275
0.29
0.25
0.28
0.365
0.325
0.2
0.295
0.345
0.42
0.375
0.375
0.385
0.47
0.435
0.33
0.35
0.34
0.38
0.365
0.28
0.325
0.315
0.265
0.445
0.545
0.52
0.44
0.45
0.37
0.3
0.325
0.28
0.35
0.33
0.335
0.31
0.335
0.3
0.28
0.325
0.41
0.45
0.465
0.435
0.34
0.26
0.33
0.315
0.495
0.345
0.42
0.44
0.47
0.445
0.325
0.43
0.445
0.47
0.49
0.48
0.495
0.51
0.51
0.46
0.495
0.47
0.49
0.44
0.455
0.48
0.495
0.41
0.485
0.53
0.56
0.51
0.405
0.4
0.54
0.535
0.475
0.49
0.48
0.48
0.515
0.515
0.595
0.56
0.49
0.535
0.51
0.55
0.53
0.52
0.525
0.495
0.5
0.55
0.475
0.565
0.505
0.65
0.69
0.49
0.405
0.41
0.42
0.445
0.44
0.465
0.465
0.455
0.485
0.455
0.395
0.48
0.405
0.295
0.505
0.45
0.43
0.535
0.46
0.35
0.365
0.32
0.415
0.42
0.465
0.49
0.46
0.445
0.44
0.475
0.43
0.44
0.46
0.415
0.42
0.5
0.42
0.36
0.485
0.45
0.415
0.415
0.42
0.4
0.405
0.41
0.495
0.565
0.485
0.43
0.41
0.445
0.42
0.43
0.385
0.495
0.53
0.375
0.44
0.48
0.51
0.455
0.445
0.455
0.475
0.49
0.52
0.455
0.49
0.515
0.47
0.445
0.395
0.425
0.38
0.29
0.23
0.44
0.595
0.6
0.435
0.41
0.34
0.42
0.495
0.51
0.525
0.545
0.52
0.515
0.485
0.465
0.305
0.39
0.365
0.485
0.495
0.505
0.565
0.505
0.38
0.28
0.38
0.36
0.385
0.415
0.4
0.43
0.34
0.42
0.5
0.46
0.44
0.415
0.385
0.42
0.475
0.465
0.58
0.475
0.46
0.415
0.415
0.47
0.54
0.515
0.485
0.51
0.48
0.53
0.485
0.575
0.6
0.49
0.44
0.505
0.545
0.575
0.575
0.555
0.555
0.435
0.46
0.535
0.545
0.515
0.52
0.515
0.48
0.5
0.52
0.49
0.525
0.39
0.5
0.495
0.55
0.625
0.505
0.505
0.405
0.445
0.41
0.405
0.505
0.51
0.505
0.46
0.46
0.38
0.48
0.445
0.435
0.485
0.5
0.365
0.335
0.435
0.48
0.445
0.435
0.475
0.47
0.52
0.51
0.455
0.46
0.46
0.415
0.415
0.31
0.29
0.47
0.415
0.5
0.42
0.545
0.755
0.775
0.885
0.9
0.92
1.14
1.265
1.295
1.275
1.14
1.005
0.8
0.61
0.39
0.345
0.33
0.315
0.305
0.29
0.26
0.385
0.33
0.32
0.335
0.39
0.415
0.38
0.375
0.43
0.44
0.445
0.45
0.495
0.48
0.495
0.41
0.345
0.34
0.43
0.36
0.41
0.45
0.475
0.43
0.44
0.455
0.455
0.36
0.4
0.475
0.475
0.405
0.435
0.5
0.42
0.485
0.445
0.455
0.48
0.465
0.485
0.475
0.35
0.35
0.395
0.51
0.425
0.495
0.525
0.435
0.46
0.425
0.395
0.425
0.465
0.4
0.425
0.46
0.445
0.37
0.505
0.485
0.515
0.455
0.55
0.5
0.46
0.505
0.53
0.505
0.49
0.49
0.585
0.585
0.565
0.53
0.575
0.605
0.58
0.565
0.545
0.535
0.59
0.605
0.615
0.57
0.575
0.615
0.695
0.635
0.58
0.435
0.555
0.66
0.595
0.64
0.66
0.64
0.675
0.665
0.625
0.625
0.6
0.7
0.65
0.645
0.68
0.63
0.605
0.565
0.55
0.58
0.645
0.72
0.74
0.675
0.66
0.44
0.665
0.695
0.665
0.715
0.7
0.695
0.71
0.735
0.605
0.665
0.63
0.64
0.71
0.665
0.61
0.6
0.66
0.565
0.52
0.58
0.575
0.63
0.605
0.59
0.555
0.535
0.555
0.51
0.515
0.51
0.575
0.615
0.62
0.575
0.57
0.62
0.595
0.66
0.545
0.55
0.605
0.655
0.6
0.515
0.535
0.54
0.565
0.63
0.54
0.54
0.63
0.585
0.495
0.5
0.535
0.6
0.575
0.515
0.515
0.56
0.53
0.56
0.555
0.595
0.525
0.58
0.61
0.575
0.545
0.595
0.565
0.585
0.685
0.655
0.625
0.625
0.62
0.64
0.635
0.65
0.67
0.58
0.58
0.505
0.52
0.48
0.49
0.59
0.685
0.62
0.63
0.6
0.655
0.7
0.635
0.595
0.64
0.63
0.58
0.555
0.62
0.64
0.65
0.735
0.6
0.575
0.62
0.575
0.49
0.55
0.525
0.515
0.49
0.535
0.585
0.57
0.545
0.535
0.615
0.66
0.605
0.52
0.53
0.485
0.42
0.535
0.58
0.55
0.6
0.61
0.545
0.575
0.535
0.475
0.5
0.55
0.595
0.635
0.585
0.635
0.695
0.665
0.675
0.57
0.63
0.54
0.49
0.6
0.68
0.605
0.58
0.45
0.66
0.6
0.5
0.455
0.525
0.5
0.465
0.52
0.395
0.195
0.37
0.49
0.385
0.41
0.57
0.435
0.355
0.495
0.675
0.635
0.515
0.41
0.46
0.44
0.42
0.33
0.415
0.405
0.28
0.27
0.405
0.44
0.48
0.5
0.34
0.39
0.68
0.455
0.465
0.42
0.435
0.36
0.29
0.44
0.415
0.28
0.245
0.355
0.205
0.27
0.15
0.2
0.095
0.12
0.23
0.3
0.19
0.315
0.515
0.58
0.56
0.705
0.9
1.01
1.195
1.0
0.935
0.83
0.615
0.305
0.27
0.02
-0.04
0.025
-0.03
-0.095
-0.09
-0.025
-0.045
-0.055
-0.07
-0.16
-0.19
-0.155
-0.07
-0.145
-0.26
-0.16
-0.15
-0.185
-0.285
-0.215
-0.135
-0.205
-0.365
-0.325
-0.32
-0.36
-0.375
-0.375
-0.395
-0.32
-0.285
-0.29
-0.325
-0.415
-0.405
-0.46
-0.465
-0.47
-0.485
-0.48
-0.45
-0.52
-0.43
-0.62
-0.595
-0.515
-0.635
-0.69
-0.655
-0.65
-0.685
-0.735
-0.81
-0.88
-0.79
-0.76
-0.675
-0.62
-0.715
-0.845
-0.885
-0.8
-0.62
-0.77
-0.8
-0.805
-0.845
-0.815
-0.745
-0.65
-0.72
-0.815
-0.88
-0.985
-0.925
-0.775
-0.735
-0.86
-0.915
-0.775
-0.725
-0.765
-0.825
-0.735
-0.785
-0.79
-0.755
-0.8
-0.79
-0.72
-0.695
-0.715
-0.71
-0.725
-0.665
-0.69
-0.715
-0.76
-0.835
-0.835
-0.74
-0.735
-0.7
-0.585
-0.635
-0.795
-0.735
-0.665
-0.635
-0.65
-0.665
-0.735
-0.665
-0.665
-0.65
-0.685
-0.67
-0.585
-0.555
-0.68
-0.625
-0.645
-0.745
-0.79
-0.755
-0.685
-0.64
-0.555
-0.565
-0.66
-0.685
-0.67
-0.72
-0.74
-0.655
-0.595
-0.63
-0.755
-0.775
-0.74
-0.665
-0.635
-0.635
-0.67
-0.69
-0.715
-0.69
-0.76
-0.735
-0.69
-0.765
-0.79
-0.83
-0.815
-0.77
-0.725
-0.74
-0.715
-0.705
-0.745
-0.755
-0.755
-0.715
-0.755
-0.675
-0.765
-0.835
-0.73
-0.81
-0.81
-0.875
-0.82
-0.845
-0.7
-0.81
-0.795
-0.785
-0.735
-0.72
-0.72
-0.725
-0.72
-0.745
-0.74
-0.725
-0.745
-0.77
-0.585
-0.655
-0.815
-0.76
-0.67
-0.725
-0.705
-0.75
-0.765
-0.81
-0.73
-0.73
-0.765
-0.61
-0.595
-0.695
-0.645
-0.715
-0.73
-0.63
-0.58
-0.655
-0.76
-0.78
-0.675
-0.595
-0.595
-0.665
-0.645
-0.56
-0.69
-0.775
-0.715
-0.735
-0.66
-0.595
-0.58
-0.595
-0.62
-0.69
-0.75
-0.675
-0.665
-0.57
-0.635
-0.675
-0.675
-0.66
-0.55
-0.63
-0.59
-0.59
-0.575
-0.58
-0.545
-0.6
-0.655
-0.61
-0.585
-0.615
-0.685
-0.645
-0.64
-0.56
-0.56
-0.635
-0.625
-0.535
-0.61
-0.66
-0.66
-0.57
-0.61
-0.56
-0.5
-0.55
-0.62
-0.625
-0.64
-0.695
-0.685
-0.545
-0.52
-0.4
-0.46
-0.485
-0.515
-0.505
-0.495
-0.505
-0.51
-0.56
-0.615
-0.64
-0.51
-0.405
-0.525
-0.52
-0.475
-0.49
-0.46
-0.445
-0.55
-0.545
-0.38
-0.49
-0.465
-0.555
-0.605
-0.54
-0.505
-0.62
-0.665
-0.72
-0.78
-0.66
-0.59
-0.585
-0.585
-0.53
-0.615
-0.655
-0.66
-0.62
-0.53
-0.45
-0.555
-0.62
-0.67
-0.7
-0.57
-0.505
-0.515
-0.505
-0.49
-0.615
-0.645
-0.585
-0.56
-0.58
-0.61
-0.63
-0.48
-0.45
-0.39
-0.33
-0.37
-0.175
-0.035
0.065
0.185
0.3
0.315
0.14
-0.135
-0.275
-0.495
-0.65
-0.755
-0.675
-0.605
-0.655
-0.775
-0.625
-0.625
-0.635
-0.595
-0.63
-0.62
-0.63
-0.555
-0.615
-0.595
-0.58
-0.575
-0.64
-0.755
-0.695
-0.73
-0.665
-0.715
-0.68
-0.665
-0.66
-0.6
-0.51
-0.515
-0.555
-0.67
-0.685
-0.635
-0.625
-0.6
-0.71
-0.745
-0.69
-0.625
-0.57
-0.645
-0.645
-0.645
-0.545
-0.53
-0.605
-0.575
-0.555
-0.615
-0.67
-0.7
-0.64
-0.635
-0.635
-0.585
-0.605
-0.575
-0.595
-0.56
-0.645
-0.66
-0.66
-0.57
-0.565
-0.575
-0.505
-0.4
-0.48
-0.54
-0.605
-0.52
-0.475
-0.48
-0.645
-0.61
-0.655
-0.555
-0.525
-0.43
-0.515
-0.56
-0.49
-0.58
-0.53
-0.57
-0.655
-0.65
-0.48
-0.495
-0.5
-0.515
-0.47
-0.505
-0.59
-0.695
-0.68
-0.58
-0.59
-0.625
-0.575
-0.5
-0.58
-0.52
-0.455
-0.385
-0.44
-0.485
-0.435
-0.475
-0.465
-0.52
-0.51
-0.55
-0.535
-0.525
-0.575
-0.625
-0.42
-0.415
-0.455
-0.495
-0.535
-0.55
-0.485
-0.505
-0.575
-0.53
-0.53
-0.43
-0.365
-0.375
-0.44
-0.57
-0.63
-0.7
-0.535
-0.56
-0.605
-0.77
-0.71
-0.7
-0.675
-0.64
-0.585
-0.685
-0.64
-0.605
-0.595
-0.63
-0.715
-0.785
-0.65
-0.58
-0.48
-0.595
-0.645
-0.65
-0.63
-0.74
-0.83
-0.83
-0.805
-0.685
-0.71
-0.725
-0.775
-0.67
-0.6
-0.62
-0.66
-0.725
-0.83
-0.895
-0.955
-0.875
-0.68
-0.53
-0.61
-0.85
-0.85
-0.725
-0.65
-0.615
-0.74
-0.83
-0.72
-0.825
-0.79
-0.71
-0.66
-0.75
-0.665
-0.66
-0.635
-0.77
-0.74
-0.69
-0.8
-0.775
-0.7
-0.67
-0.625
-0.675
-0.66
-0.67
-0.68
-0.66
-0.83
-0.755
-0.78
-0.84
-0.73
-0.74
-0.745
-0.77
-0.775
-0.755
-0.645
-0.645
-0.83
-0.965
-0.785
-0.775
-0.855
-0.67
-0.63
-0.86
-0.825
-0.745
-0.725
-0.765
-0.71
-0.765
-0.86
-0.8
-0.74
-0.705
-0.585
-0.61
-0.63
-0.735
-0.815
-0.73
-0.705
-0.665
-0.73
-0.8
-0.805
-0.78
-0.725
-0.74
-0.795
-0.95
-0.96
-0.805
-0.695
-0.65
-0.64
-0.715
-0.745
-0.705
-0.705
-0.635
-0.68
-0.785
-0.675
-0.59
-0.685
-0.6
-0.64
-0.775
-0.54
-0.505
-0.425
-0.55
-0.685
-0.74
-0.765
-0.775
-0.765
-0.69
-0.59
-0.55
-0.64
-0.755
-0.68
-0.67
-0.765
-0.71
-0.745
-0.67
-0.845
-0.87
-0.855
-0.835
-0.69
-0.75
-0.75
-0.8
-0.83
-0.73
-0.69
-0.785
-0.88
-0.735
-0.765
-0.78
-0.84
-0.87
-0.79
-0.71
-0.715
-0.825
-0.8
-0.85
-0.815
-0.82
-0.78
-0.79
-0.795
-0.845
-0.77
-0.835
-0.945
-0.87
-0.685
-0.76
-0.81
-0.81
-0.76
-0.58
-0.43
-0.385
-0.225
-0.055
0.12
0.11
-0.01
-0.235
-0.405
-0.455
-0.685
-0.88
-0.9
-0.84
-0.985
-0.985
-0.925
-0.985
-1.015
-0.945
-0.925
-0.93
-0.895
-0.78
-0.615
-0.745
-0.915
-0.945
-0.895
-0.87
-0.89
-0.88
-0.795
-0.765
-0.72
-0.8
-0.775
-0.795
-0.845
-0.77
-0.81
-0.78
-0.84
-0.84
-0.84
-0.93
-0.81
-0.8
-0.73
-0.815
-0.795
-0.8
-0.84
-0.785
-0.715
-0.805
-0.885
-0.885
-0.89
-0.76
-0.805
-0.83
-0.82
-0.805
-0.7
-0.78
-0.78
-0.865
-0.81
-0.91
-0.845
-0.72
-0.82
-0.8
-0.745
-0.73
-0.74
-0.74
-0.845
-0.84
-0.815
-0.825
-0.855
-0.755
-0.705
-0.5
-0.635
-0.785
-0.79
-0.795
-0.815
-0.76
-0.815
-0.76
-0.68
-0.71
-0.68
-0.655
-0.63
-0.685
-0.665
-0.655
-0.54
-0.615
-0.76
-0.815
-0.77
-0.825
-0.77
-0.74
-0.64
-0.605
-0.68
-0.705
-0.705
-0.615
-0.575
-0.495
-0.555
-0.635
-0.585
-0.58
-0.61
-0.66
-0.675
-0.715
-0.665
-0.785
-0.705
-0.605
-0.56
-0.52
-0.605
-0.645
-0.66
-0.645
-0.665
-0.6
-0.575
-0.535
-0.49
-0.49
-0.525
-0.565
-0.705
-0.74
-0.66
-0.73
-0.735
-0.64
-0.57
-0.565
-0.58
-0.58
-0.62
-0.655
-0.695
-0.67
-0.72
-0.77
-0.745
-0.73
-0.675
-0.59
-0.66
-0.72
-0.82
-0.72
-0.575
-0.595
-0.655
-0.625
-0.74
-0.84
-0.69
-0.595
-0.805
-0.875
-0.735
-0.715
-0.745
-0.575
-0.685
-0.765
-0.77
-0.73
-0.685
-0.695
-0.675
-0.66
-0.705
-0.645
-0.6
-0.655
-0.685
-0.81
-0.77
-0.7
-0.78
-0.845
-0.815
-0.625
-0.565
-0.56
-0.505
-0.6
-0.57
-0.685
-0.835
-0.725
-0.735
-0.64
-0.595
-0.655
-0.755
-0.745
-0.725
-0.71
-0.73
-0.62
-0.605
-0.65
-0.7
-0.7
-0.665
-0.565
-0.64
-0.7
-0.705
-0.675
-0.645
-0.59
-0.65
-0.655
-0.83
-0.845
-0.73
-0.665
-0.585
-0.535
-0.475
-0.51
-0.635
-0.74
-0.69
-0.69
-0.785
-0.785
-0.71
-0.655
-0.71
-0.65
-0.635
-0.76
-0.665
-0.675
-0.745
-0.745
-0.755
-0.855
-0.69
-0.65
-0.485
-0.55
-0.6
-0.66
-0.645
-0.61
-0.67
-0.74
-0.62
-0.61
-0.605
-0.66
-0.625
-0.68
-0.755
-0.63
-0.55
-0.53
-0.53
-0.6
-0.565
-0.56
-0.65
-0.755
-0.61
-0.495
-0.425
-0.495
-0.495
-0.605
-0.7
-0.645
-0.5
-0.49
-0.545
-0.695
-0.705
-0.555
-0.7
-0.76
-0.71
-0.705
-0.72
-0.735
-0.77
-0.715
-0.685
-0.685
-0.675
-0.79
-0.755
-0.755
-0.81
-0.775
-0.785
-0.685
-0.525
-0.56
-0.645
-0.66
-0.525
-0.465
-0.535
-0.67
-0.77
-0.825
-0.735
-0.67
-0.645
-0.735
-0.725
-0.685
-0.765
-0.675
-0.695
-0.57
-0.58
-0.425
-0.135
0.05
0.045
-0.03
-0.015
0.05
-0.08
-0.245
-0.29
-0.41
-0.555
-0.62
-0.77
-0.805
-0.845
-0.895
-0.935
-0.77
-0.755
-0.795
-0.72
-0.62
-0.74
-0.875
-0.85
-0.785
-0.74
-0.69
-0.745
-0.685
-0.685
-0.72
-0.74
-0.655
-0.68
-0.715
-0.655
-0.65
-0.63
-0.59
-0.625
-0.635
-0.695
-0.75
-0.815
-0.77
-0.74
-0.605
-0.65
-0.63
-0.615
-0.665
-0.71
-0.64
-0.585
-0.615
-0.765
-0.69
-0.56
-0.525
-0.525
-0.62
-0.66
-0.695
-0.725
-0.75
-0.73
-0.635
-0.465
-0.465
-0.53
-0.58
-0.515
-0.56
-0.775
-0.82
-0.825
-0.735
-0.71
-0.655
-0.52
-0.505
-0.615
-0.605
-0.575
-0.62
-0.625
-0.635
-0.53
-0.62
-0.645
-0.6
-0.545
-0.535
-0.535
-0.57
-0.555
-0.58
-0.585
-0.68
-0.61
-0.575
-0.52
-0.61
-0.515
-0.475
-0.445
-0.455
-0.475
-0.42
-0.365
-0.5
-0.565
-0.645
-0.595
-0.57
-0.47
-0.46
-0.44
-0.425
-0.33
-0.375
-0.5
-0.545
-0.525
-0.47
-0.43
-0.38
-0.4
-0.43
-0.505
-0.625
-0.58
-0.595
-0.555
-0.495
-0.445
-0.33
-0.36
-0.545
-0.56
-0.38
-0.45
-0.51
-0.51
-0.495
-0.515
-0.44
-0.415
-0.355
-0.45
-0.52
-0.525
-0.585
-0.595
-0.46
-0.45
-0.63
-0.62
-0.58
-0.665
-0.605
-0.66
-0.575
-0.525
-0.55
-0.625
-0.635
-0.6
-0.54
-0.495
-0.495
-0.62
-0.65
-0.56
-0.525
-0.545
-0.64
-0.615
-0.535
-0.605
-0.695
-0.69
-0.655
-0.57
-0.49
-0.55
-0.615
-0.64
-0.635
-0.61
-0.57
-0.635
-0.505
-0.61
-0.655
-0.61
-0.605
-0.53
-0.53
-0.585
-0.605
-0.515
-0.545
-0.52
-0.51
-0.605
-0.655
-0.515
-0.57
-0.6
-0.67
-0.605
-0.525
-0.64
-0.62
-0.53
-0.565
-0.61
-0.695
-0.725
-0.765
-0.7
-0.525
-0.325
-0.46
-0.57
-0.53
-0.505
-0.56
-0.565
-0.5
-0.42
-0.58
-0.7
-0.675
-0.625
-0.59
-0.555
-0.545
-0.54
-0.59
-0.6
-0.555
-0.62
-0.56
-0.575
-0.655
-0.59
-0.5
-0.67
-0.705
-0.69
-0.535
-0.43
-0.44
-0.575
-0.655
-0.555
-0.475
-0.55
-0.585
-0.59
-0.68
-0.62
-0.595
-0.535
-0.475
-0.51
-0.505
-0.49
-0.565
-0.61
-0.575
-0.47
-0.415
-0.5
-0.625
-0.625
-0.525
-0.55
-0.485
-0.425
-0.37
-0.435
-0.475
-0.495
-0.45
-0.5
-0.475
-0.475
-0.535
-0.73
-0.675
-0.555
-0.43
-0.32
-0.295
-0.435
-0.58
-0.62
-0.64
-0.545
-0.59
-0.69
-0.665
-0.71
-0.695
-0.685
-0.64
-0.59
-0.6
-0.455
-0.53
-0.71
-0.685
-0.64
-0.65
-0.595
-0.465
-0.5
-0.6
-0.64
-0.67
-0.57
-0.675
-0.625
-0.63
-0.7
-0.66
-0.625
-0.66
-0.645
-0.635
-0.53
-0.52
-0.44
-0.32
-0.31
-0.15
-0.1
0.025
0.215
0.195
0.26
0.29
0.05
-0.14
-0.3
-0.495
-0.63
-0.7
-0.73
-0.735
-0.69
-0.69
-0.745
-0.715
-0.62
-0.625
-0.52
-0.53
-0.57
-0.62
-0.65
-0.635
-0.61
-0.59
-0.67
-0.64
-0.545
-0.57
-0.53
-0.54
-0.655
-0.725
-0.655
-0.61
-0.62
-0.625
-0.645
-0.625
-0.595
-0.635
-0.645
-0.655
-0.59
-0.63
-0.65
-0.6
-0.545
-0.575
-0.59
-0.605
-0.46
-0.45
-0.59
-0.72
-0.61
-0.595
-0.525
-0.55
-0.62
-0.605
-0.58
-0.63
-0.645
-0.605
-0.62
-0.665
-0.59
-0.555
-0.51
-0.5
-0.535
-0.58
-0.62
-0.615
-0.6
-0.625
-0.58
-0.505
-0.475
-0.48
-0.49
-0.555
-0.585
-0.505
-0.585
-0.52
-0.515
-0.47
-0.39
-0.525
-0.61
-0.72
-0.625
-0.43
-0.365
-0.36
-0.365
-0.42
-0.515
-0.47
-0.52
-0.4
-0.37
-0.32
-0.435
-0.57
-0.46
-0.385
-0.355
-0.43
-0.47
-0.46
-0.6
-0.62
-0.475
-0.455
-0.42
-0.28
-0.295
-0.455
-0.45
-0.525
-0.385
-0.39
-0.405
-0.36
-0.485
-0.415
-0.275
-0.255
-0.29
-0.33
-0.365
-0.51
-0.545
-0.415
-0.46
-0.54
-0.47
-0.41
-0.385
-0.335
-0.19
-0.36
-0.49
-0.485
-0.485
-0.505
-0.47
-0.39
-0.43
-0.57
-0.665
-0.45
-0.415
-0.455
-0.525
-0.56
-0.59
-0.505
-0.53
-0.61
-0.59
-0.485
-0.515
-0.54
-0.58
-0.56
-0.53
-0.495
-0.54
-0.425
-0.495
-0.495
-0.435
-0.52
-0.6
-0.565
-0.455
-0.33
-0.645
-0.765
-0.71
-0.61
-0.465
-0.505
-0.495
-0.57
-0.58
-0.63
-0.565
-0.465
-0.48
-0.495
-0.435
-0.52
-0.47
-0.485
-0.5
-0.455
-0.39
-0.43
-0.525
-0.57
-0.495
-0.53
-0.55
-0.57
-0.585
-0.61
-0.535
-0.49
-0.5
-0.555
-0.51
-0.61
-0.535
-0.55
-0.52
-0.46
-0.505
-0.55
-0.56
-0.495
-0.46
-0.47
-0.545
-0.475
-0.49
-0.575
-0.475
-0.45
-0.525
-0.555
-0.51
-0.53
-0.525
-0.535
-0.5
-0.565
-0.675
-0.7
-0.725
-0.57
-0.4
-0.395
-0.56
-0.545
-0.52
-0.45
-0.43
-0.38
-0.52
-0.595
-0.55
-0.545
-0.515
-0.57
-0.555
-0.575
-0.395
-0.295
-0.425
-0.45
-0.52
-0.505
-0.415
-0.475
-0.5
-0.395
-0.44
-0.465
-0.535
-0.44
-0.315
-0.39
-0.475
-0.55
-0.56
-0.425
-0.335
-0.365
-0.315
-0.255
-0.33
-0.455
-0.565
-0.54
-0.44
-0.41
-0.4
-0.56
-0.475
-0.38
-0.54
-0.64
-0.65
-0.67
-0.58
-0.48
-0.38
-0.39
-0.445
-0.57
-0.595
-0.625
-0.5
-0.44
-0.51
-0.525
-0.47
-0.5
-0.545
-0.525
-0.58
-0.585
-0.61
-0.605
-0.65
-0.64
-0.545
-0.365
-0.48
-0.515
-0.63
-0.67
-0.615
-0.62
-0.41
-0.29
-0.285
-0.225
-0.135
-0.05
0.18
0.22
0.31
0.425
0.315
0.145
-0.065
-0.31
-0.495
-0.62
-0.715
-0.665
-0.585
-0.69
-0.82
-0.605
-0.575
-0.615
-0.575
-0.575
-0.59
-0.64
-0.555
-0.475
-0.425
-0.475
-0.555
-0.58
-0.535
-0.445
-0.495
-0.53
-0.565
-0.43
-0.375
-0.545
-0.54
-0.625
-0.645
-0.65
-0.565
-0.55
-0.525
-0.555
-0.52
-0.405
-0.395
-0.5
-0.505
-0.5
-0.495
-0.54
-0.58
-0.56
-0.51
-0.43
-0.45
-0.545
-0.505
-0.38
-0.395
-0.335
-0.47
-0.435
-0.48
-0.655
-0.69
-0.59
-0.605
-0.505
-0.365
-0.38
-0.425
-0.555
-0.61
-0.62
-0.545
-0.38
-0.275
-0.37
-0.48
-0.55
-0.58
-0.4
-0.29
-0.365
-0.34
-0.365
-0.49
-0.6
-0.485
-0.385
-0.29
-0.225
-0.285
-0.35
-0.4
-0.495
-0.485
-0.44
-0.42
-0.44
-0.465
-0.495
-0.455
-0.38
-0.28
-0.24
-0.305
-0.36
-0.41
-0.375
-0.32
-0.31
-0.325
-0.4
-0.39
-0.265
-0.22
-0.3
-0.365
-0.2
-0.205
-0.4
-0.425
-0.3
-0.305
-0.295
-0.3
-0.23
-0.23
-0.41
-0.42
-0.33
-0.225
-0.27
-0.305
-0.33
-0.425
-0.445
-0.44
-0.35
-0.255
-0.27
-0.26
-0.38
-0.4
-0.415
-0.465
-0.34
-0.36
-0.425
-0.385
-0.32
-0.32
-0.34
-0.325
-0.34
-0.345
-0.395
-0.39
-0.435
-0.34
-0.27
-0.235
-0.31
-0.445
-0.61
-0.645
-0.665
-0.62
-0.525
-0.365
-0.25
-0.28
-0.295
-0.355
-0.405
-0.57
-0.605
-0.565
-0.47
-0.455
-0.37
-0.215
-0.315
-0.425
-0.45
-0.45
-0.46
-0.435
-0.345
-0.36
-0.54
-0.585
-0.395
-0.32
-0.425
-0.45
-0.355
-0.295
-0.375
-0.37
-0.35
-0.43
-0.425
-0.48
-0.555
-0.54
-0.44
-0.38
-0.29
-0.35
-0.385
-0.415
-0.51
-0.4
-0.32
-0.42
-0.42
-0.375
-0.35
-0.45
-0.54
-0.45
-0.32
-0.325
-0.45
-0.45
-0.365
-0.315
-0.37
-0.42
-0.355
-0.42
-0.48
-0.535
-0.575
-0.52
-0.49
-0.295
-0.155
-0.21
-0.445
-0.45
-0.325
-0.29
-0.325
-0.435
-0.485
-0.39
-0.52
-0.515
-0.37
-0.31
-0.335
-0.325
-0.385
-0.58
-0.595
-0.555
-0.49
-0.395
-0.395
-0.425
-0.43
-0.365
-0.345
-0.405
-0.4
-0.31
-0.415
-0.325
-0.32
-0.39
-0.38
-0.275
-0.24
-0.305
-0.36
-0.355
-0.29
-0.225
-0.21
-0.305
-0.445
-0.455
-0.41
-0.405
-0.38
-0.405
-0.36
-0.34
-0.275
-0.295
-0.435
-0.48
-0.455
-0.455
-0.42
-0.375
-0.445
-0.49
-0.455
-0.355
-0.33
-0.37
-0.4
-0.415
-0.425
-0.415
-0.515
-0.67
-0.6
-0.42
-0.41
-0.33
-0.42
-0.54
-0.505
-0.585
-0.65
-0.55
-0.46
-0.495
-0.47
-0.435
-0.475
-0.49
-0.46
-0.46
-0.445
-0.415
-0.345
-0.36
-0.24
-0.055
0.07
0.155
0.255
0.28
0.415
0.34
0.285
0.155
0.02
-0.19
-0.39
-0.465
-0.505
-0.585
-0.62
-0.565
-0.53
-0.59
-0.58
-0.57
-0.535
-0.655
-0.555
-0.47
-0.49
-0.355
-0.4
-0.295
-0.37
-0.39
-0.445
-0.545
-0.585
-0.51
-0.52
-0.525
-0.49
-0.445
-0.42
-0.365
-0.42
-0.4
-0.36
-0.415
-0.54
-0.57
-0.46
-0.35
-0.435
-0.44
-0.435
-0.455
-0.465
-0.5
-0.535
-0.47
-0.42
-0.39
-0.5
-0.36
-0.33
-0.365
-0.495
-0.41
-0.415
-0.5
-0.42
-0.395
-0.425
-0.45
-0.43
-0.44
-0.45
-0.455
-0.485
-0.415
-0.345
-0.25
-0.165
-0.345
-0.625
-0.615
-0.445
-0.4
-0.42
-0.435
-0.455
-0.48
-0.51
-0.415
-0.29
-0.33
-0.36
-0.19
-0.32
-0.505
-0.415
-0.335
-0.395
-0.285
-0.33
-0.33
-0.39
-0.415
-0.325
-0.32
-0.345
-0.325
-0.345
-0.35
-0.35
-0.27
-0.22
-0.22
-0.27
-0.29
-0.215
-0.335
-0.295
-0.225
-0.33
-0.35
-0.26
-0.175
-0.285
-0.36
-0.39
-0.33
-0.31
-0.2
-0.14
-0.2
-0.35
-0.325
-0.315
-0.29
-0.33
-0.29
-0.34
-0.33
-0.305
-0.265
-0.29
-0.305
-0.395
-0.335
-0.295
-0.215
-0.215
-0.305
-0.34
-0.35
-0.365
-0.38
-0.42
-0.32
-0.315
-0.395
-0.305
-0.3
-0.315
-0.355
-0.45
-0.44
-0.46
-0.39
-0.43
-0.5
-0.365
-0.345
-0.305
-0.365
-0.42
-0.48
-0.405
-0.39
-0.45
-0.43
-0.33
-0.415
-0.435
-0.37
-0.425
-0.45
-0.45
-0.4
-0.405
-0.495
-0.495
-0.42
-0.435
-0.435
-0.43
-0.385
-0.46
-0.33
-0.315
-0.38
-0.375
-0.415
-0.44
-0.475
-0.445
-0.425
-0.54
-0.41
-0.275
-0.325
-0.34
-0.265
-0.31
-0.395
-0.45
-0.445
-0.42
-0.455
-0.515
-0.43
-0.47
-0.485
-0.415
-0.445
-0.375
-0.38
-0.475
-0.435
-0.4
-0.425
-0.42
-0.415
-0.335
-0.365
-0.35
-0.355
-0.34
-0.335
-0.375
-0.345
-0.295
-0.45
-0.375
-0.38
-0.475
-0.485
-0.475
-0.485
-0.51
-0.565
-0.44
-0.295
-0.305
-0.505
-0.5
-0.43
-0.44
-0.4
-0.48
-0.53
-0.45
-0.425
-0.415
-0.485
-0.455
-0.435
-0.535
-0.57
-0.47
-0.44
-0.37
-0.355
-0.305
-0.365
-0.37
-0.35
-0.355
-0.43
-0.445
-0.42
-0.435
-0.43
-0.42
-0.415
-0.4
-0.32
-0.24
-0.36
-0.375
-0.37
-0.305
-0.35
-0.415
-0.41
-0.335
-0.38
-0.4
-0.315
-0.38
-0.53
-0.45
-0.355
-0.345
-0.445
-0.53
-0.46
-0.54
-0.45
-0.46
-0.535
-0.47
-0.495
-0.56
-0.705
-0.68
-0.575
-0.525
-0.37
-0.305
-0.405
-0.51
-0.5
-0.545
-0.65
-0.645
-0.53
-0.385
-0.395
-0.565
-0.53
-0.49
-0.53
-0.55
-0.565
-0.69
-0.7
-0.635
-0.655
-0.64
-0.535
-0.39
-0.36
-0.34
-0.32
-0.125
0.06
0.205
0.295
0.39
0.19
0.085
-0.025
-0.215
-0.395
-0.59
-0.58
-0.53
-0.485
-0.59
-0.71
-0.765
-0.765
-0.72
-0.7
-0.72
-0.635
-0.685
-0.775
-0.775
-0.68
-0.565
-0.55
-0.64
-0.705
-0.74
-0.785
-0.65
-0.615
-0.695
-0.685
-0.55
-0.625
-0.675
-0.685
-0.665
-0.57
-0.59
-0.47
-0.49
-0.635
-0.75
-0.8
-0.79
-0.65
-0.65
-0.65
-0.64
-0.695
-0.72
-0.685
-0.68
-0.675
-0.68
-0.6
-0.665
-0.7
-0.69
-0.725
-0.805
-0.87
-0.735
-0.665
-0.67
-0.685
-0.645
-0.71
-0.655
-0.56
-0.64
-0.58
-0.39
-0.42
-0.615
-0.725
-0.845
-0.84
-0.785
-0.845
-0.68
-0.575
-0.645
-0.635
-0.64
-0.615
-0.715
-0.56
-0.5
-0.63
-0.62
-0.625
-0.56
-0.545
-0.62
-0.56
-0.565
-0.72
-0.87
-0.78
-0.675
-0.65
-0.575
-0.53
-0.53
-0.53
-0.55
-0.63
-0.64
-0.56
-0.46
-0.4
-0.42
-0.505
-0.545
-0.545
-0.47
-0.51
-0.555
-0.61
-0.595
-0.405
-0.5
-0.54
-0.58
-0.625
-0.6
-0.615
-0.57
-0.57
-0.515
-0.39
-0.43
-0.54
-0.63
-0.625
-0.565
-0.475
-0.45
-0.4
-0.575
-0.775
-0.74
-0.73
-0.775
-0.75
-0.675
-0.6
-0.6
-0.6
-0.57
-0.565
-0.585
-0.765
-0.84
-0.765
-0.675
-0.62
-0.57
-0.625
-0.69
-0.745
-0.745
-0.715
-0.705
-0.78
-0.815
-0.835
-0.845
-0.845
-0.79
-0.725
-0.735
-0.775
-0.685
-0.74
-0.765
-0.67
-0.7
-0.725
-0.745
-0.8
-0.805
-0.76
-0.78
-0.795
-0.69
-0.69
-0.77
-0.75
-0.7
-0.725
-0.73
-0.745
-0.79
-0.85
-0.855
-0.78
-0.72
-0.76
-0.715
-0.775
-0.735
-0.77
-0.68
-0.72
-0.715
-0.71
-0.71
-0.685
-0.675
-0.655
-0.72
-0.715
-0.64
-0.68
-0.77
-0.725
-0.66
-0.64
-0.69
-0.73
-0.73
-0.7
-0.67
-0.59
-0.56
-0.575
-0.575
-0.605
-0.6
-0.645
-0.65
-0.605
-0.575
-0.605
-0.6
-0.52
-0.535
-0.565
-0.575
-0.59
-0.52
-0.52
-0.505
-0.51
-0.435
-0.45
-0.445
-0.39
-0.385
-0.4
-0.435
-0.42
-0.445
-0.425
-0.38
-0.36
-0.38
-0.44
-0.39
-0.36
-0.365
-0.325
-0.28
-0.285
-0.215
-0.25
-0.215
-0.22
-0.2
-0.18
-0.175
-0.115
-0.08
-0.15
-0.19
-0.17
-0.155
-0.22
-0.335
-0.275
-0.275
-0.235
-0.22
-0.335
-0.35
-0.38
-0.385
-0.365
-0.395
-0.37
-0.27
-0.32
-0.425
-0.395
-0.395
-0.45
-0.495
-0.54
-0.525
-0.5
-0.57
-0.53
-0.495
-0.515
-0.535
-0.57
-0.515
-0.5
-0.505
-0.485
-0.51
-0.445
-0.45
-0.45
-0.345
-0.295
-0.35
-0.34
-0.41
-0.38
-0.35
-0.405
-0.36
-0.285
-0.4
-0.375
-0.225
-0.265
-0.35
-0.315
-0.245
-0.175
-0.11
0.04
0.175
0.375
0.505
0.575
0.67
0.585
0.485
0.395
0.2
-0.045
-0.215
-0.345
-0.44
-0.465
-0.42
-0.445
-0.44
-0.455
-0.47
-0.485
-0.345
-0.355
-0.315
-0.345
-0.35
-0.39
-0.385
-0.44
-0.395
-0.39
-0.365
-0.35
-0.355
-0.325
-0.335
-0.34
-0.33
-0.335
-0.395
-0.465
-0.365
-0.28
-0.135
-0.215
-0.38
-0.28
-0.255
-0.11
-0.18
-0.18
-0.185
-0.3
-0.08
-0.01
-0.14
-0.185
-0.135
-0.11
-0.18
-0.06
-0.085
-0.02
0.1
-0.04
-0.13
-0.055
0.075
0.055
0.115
0.115
0.14
0.22
0.22
0.22
0.21
0.095
0.195
0.21
0.195
0.19
0.105
0.13
0.265
0.13
0.04
0.065
-0.025
-0.05
-0.01
-0.005
-0.02
0.03
-0.015
-0.035
-0.05
-0.05
-0.055
-0.065
-0.02
-0.055
-0.08
-0.105
-0.045
0.005
-0.055
-0.065
-0.055
-0.105
-0.14
-0.075
-0.075
-0.08
-0.075
-0.155
-0.105
-0.04
-0.065
-0.1
-0.16
-0.13
-0.145
-0.135
-0.18
-0.2
-0.265
-0.325
-0.135
-0.125
-0.115
-0.14
-0.16
-0.18
-0.13
-0.23
-0.37
-0.155
-0.065
-0.11
-0.27
-0.305
-0.25
-0.255
-0.21
-0.195
-0.19
-0.23
-0.205
-0.13
-0.125
-0.18
-0.25
-0.28
-0.31
-0.275
-0.3
-0.28
-0.25
-0.4
-0.48
-0.475
-0.41
-0.235
-0.25
-0.28
-0.355
-0.36
-0.35
-0.4
-0.45
-0.415
-0.39
-0.33
-0.335
-0.405
-0.37
-0.38
-0.41
-0.43
-0.45
-0.445
-0.485
-0.46
-0.285
-0.265
-0.48
-0.565
-0.6
-0.53
-0.58
-0.495
-0.46
-0.35
-0.46
-0.455
-0.415
-0.465
-0.545
-0.51
-0.605
-0.515
-0.39
-0.44
-0.45
-0.485
-0.505
-0.475
-0.49
-0.495
-0.545
-0.575
-0.45
-0.535
-0.54
-0.505
-0.5
-0.35
-0.52
-0.585
-0.545
-0.485
-0.515
-0.56
-0.475
-0.525
-0.545
-0.505
-0.455
-0.44
-0.435
-0.545
-0.575
-0.52
-0.585
-0.565
-0.635
-0.635
-0.53
-0.51
-0.495
-0.455
-0.44
-0.515
-0.585
-0.58
-0.725
-0.64
-0.57
-0.585
-0.595
-0.625
-0.625
-0.56
-0.55
-0.61
-0.415
-0.465
-0.5
-0.55
-0.585
-0.6
-0.51
-0.49
-0.545
-0.62
-0.565
-0.59
-0.63
-0.54
-0.54
-0.6
-0.68
-0.575
-0.54
-0.56
-0.585
-0.515
-0.535
-0.51
-0.415
-0.465
-0.475
-0.495
-0.49
-0.475
-0.445
-0.4
-0.36
-0.52
-0.545
-0.46
-0.475
-0.485
