# TIPE ECG 2021 - ECG-ID Database v1.0.0 par Physionet
# [Numéro de la personne, Période d'échantillonnage, Prénom, Age, Sexe, Date de l'enregistrement]
[46, 0.002, Herman, 21, H, 12.05.2005]
-0.155
-0.145
-0.16
-0.16
-0.18
-0.135
-0.11
-0.15
-0.15
-0.165
-0.145
-0.145
-0.165
-0.155
-0.16
-0.16
-0.17
-0.165
-0.15
-0.145
-0.155
-0.15
-0.175
-0.17
-0.17
-0.155
-0.16
-0.15
-0.15
-0.135
-0.145
-0.165
-0.14
-0.15
-0.145
-0.175
-0.165
-0.15
-0.18
-0.175
-0.155
-0.145
-0.16
-0.18
-0.175
-0.16
-0.15
-0.165
-0.175
-0.145
-0.14
-0.17
-0.175
-0.185
-0.18
-0.165
-0.17
-0.18
-0.175
-0.175
-0.175
-0.18
-0.135
-0.15
-0.16
-0.18
-0.165
-0.17
-0.155
-0.155
-0.16
-0.155
-0.165
-0.205
-0.185
-0.16
-0.165
-0.195
-0.2
-0.155
-0.11
-0.165
-0.18
-0.19
-0.195
-0.175
-0.17
-0.175
-0.17
-0.17
-0.165
-0.18
-0.19
-0.19
-0.195
-0.185
-0.175
-0.15
-0.15
-0.145
-0.185
-0.18
-0.18
-0.21
-0.19
-0.2
-0.165
-0.155
-0.175
-0.175
-0.17
-0.155
-0.175
-0.19
-0.195
-0.2
-0.17
-0.155
-0.18
-0.175
-0.175
-0.185
-0.185
-0.19
-0.185
-0.195
-0.19
-0.17
-0.16
-0.14
-0.135
-0.17
-0.145
-0.165
-0.165
-0.15
-0.13
-0.16
-0.17
-0.15
-0.14
-0.135
-0.16
-0.14
-0.09
-0.1
-0.11
-0.11
-0.095
-0.075
-0.075
-0.085
-0.115
-0.115
-0.07
-0.075
-0.08
-0.065
-0.09
-0.09
-0.09
-0.13
-0.15
-0.16
-0.175
-0.165
-0.15
-0.165
-0.15
-0.17
-0.175
-0.18
-0.185
-0.19
-0.12
-0.185
-0.2
-0.17
-0.18
-0.18
-0.17
-0.17
-0.205
-0.21
-0.195
-0.19
-0.18
-0.195
-0.155
-0.12
-0.125
-0.21
-0.225
-0.185
-0.185
-0.18
-0.175
-0.165
-0.12
-0.205
-0.22
-0.22
-0.23
-0.195
-0.125
-0.035
0.1
0.275
0.375
0.495
0.58
0.665
0.75
0.75
0.57
0.39
0.25
0.075
-0.09
-0.26
-0.385
-0.4
-0.345
-0.325
-0.325
-0.26
-0.265
-0.25
-0.195
-0.175
-0.165
-0.17
-0.165
-0.165
-0.155
-0.155
-0.13
-0.13
-0.13
-0.125
-0.15
-0.185
-0.19
-0.155
-0.16
-0.16
-0.15
-0.15
-0.135
-0.13
-0.155
-0.155
-0.115
-0.145
-0.155
-0.13
-0.12
-0.125
-0.105
-0.1
-0.13
-0.145
-0.135
-0.125
-0.13
-0.11
-0.125
-0.125
-0.1
-0.055
-0.075
-0.06
-0.1
-0.125
-0.125
-0.075
-0.085
-0.075
-0.07
-0.08
-0.1
-0.075
-0.08
-0.075
-0.07
-0.03
-0.025
-0.04
-0.04
-0.075
-0.075
-0.05
-0.055
-0.03
-0.01
-0.015
-0.01
0.01
0.005
-0.005
0.005
-0.02
-0.02
0.035
0.07
0.055
0.035
0.045
0.08
0.06
0.055
0.055
0.09
0.085
0.1
0.095
0.11
0.09
0.075
0.11
0.145
0.12
0.105
0.11
0.13
0.13
0.16
0.13
0.125
0.13
0.125
0.1
0.07
0.09
0.085
0.08
0.06
0.045
0.04
0.025
0.025
-0.015
-0.04
-0.065
-0.055
-0.08
-0.08
-0.07
-0.075
-0.115
-0.14
-0.15
-0.135
-0.105
-0.135
-0.14
-0.16
-0.15
-0.155
-0.18
-0.14
-0.165
-0.18
-0.19
-0.19
-0.15
-0.18
-0.145
-0.135
-0.18
-0.19
-0.185
-0.185
-0.18
-0.18
-0.185
-0.19
-0.185
-0.17
-0.16
-0.185
-0.205
-0.19
-0.205
-0.2
-0.205
-0.175
-0.195
-0.19
-0.18
-0.19
-0.21
-0.205
-0.195
-0.19
-0.175
-0.175
-0.17
-0.15
-0.19
-0.15
-0.175
-0.16
-0.17
-0.19
-0.2
-0.205
-0.19
-0.19
-0.135
-0.185
-0.2
-0.175
-0.175
-0.19
-0.175
-0.15
-0.165
-0.2
-0.21
-0.175
-0.145
-0.17
-0.18
-0.16
-0.18
-0.17
-0.19
-0.195
-0.19
-0.175
-0.18
-0.185
-0.19
-0.175
-0.155
-0.18
-0.125
-0.165
-0.205
-0.205
-0.195
-0.16
-0.21
-0.215
-0.19
-0.2
-0.17
-0.195
-0.185
-0.185
-0.19
-0.205
-0.2
-0.19
-0.195
-0.195
-0.175
-0.22
-0.22
-0.215
-0.2
-0.195
-0.19
-0.2
-0.2
-0.235
-0.21
-0.185
-0.185
-0.185
-0.2
-0.205
-0.21
-0.21
-0.215
-0.195
-0.19
-0.21
-0.19
-0.225
-0.22
-0.195
-0.225
-0.2
-0.135
-0.195
-0.2
-0.205
-0.215
-0.24
-0.22
-0.21
-0.205
-0.215
-0.215
-0.19
-0.195
-0.19
-0.23
-0.2
-0.22
-0.24
-0.23
-0.225
-0.215
-0.22
-0.22
-0.225
-0.22
-0.245
-0.185
-0.18
-0.185
-0.21
-0.21
-0.19
-0.175
-0.195
-0.175
-0.185
-0.2
-0.185
-0.175
-0.155
-0.16
-0.18
-0.2
-0.195
-0.145
-0.16
-0.16
-0.145
-0.16
-0.135
-0.105
-0.065
-0.1
-0.13
-0.11
-0.12
-0.145
-0.155
-0.11
-0.105
-0.1
-0.11
-0.13
-0.13
-0.125
-0.15
-0.175
-0.175
-0.165
-0.18
-0.23
-0.205
-0.23
-0.22
-0.23
-0.235
-0.19
-0.195
-0.2
-0.185
-0.22
-0.2
-0.19
-0.21
-0.24
-0.235
-0.225
-0.195
-0.185
-0.195
-0.22
-0.235
-0.225
-0.22
-0.205
-0.235
-0.215
-0.22
-0.24
-0.22
-0.215
-0.225
-0.23
-0.235
-0.24
-0.25
-0.265
-0.24
-0.17
-0.1
0.035
0.15
0.28
0.405
0.495
0.575
0.64
0.71
0.64
0.44
0.27
0.115
-0.045
-0.21
-0.38
-0.415
-0.435
-0.355
-0.32
-0.27
-0.26
-0.275
-0.21
-0.2
-0.235
-0.24
-0.215
-0.225
-0.18
-0.15
-0.175
-0.19
-0.2
-0.215
-0.19
-0.185
-0.2
-0.205
-0.17
-0.155
-0.19
-0.18
-0.2
-0.175
-0.205
-0.205
-0.185
-0.155
-0.155
-0.185
-0.165
-0.17
-0.17
-0.17
-0.165
-0.15
-0.16
-0.155
-0.15
-0.155
-0.14
-0.13
-0.125
-0.19
-0.15
-0.165
-0.135
-0.12
-0.09
-0.11
-0.13
-0.14
-0.11
-0.12
-0.12
-0.12
-0.14
-0.11
-0.105
-0.1
-0.08
-0.08
-0.105
-0.105
-0.115
-0.09
-0.075
-0.085
-0.06
-0.055
-0.06
-0.035
-0.045
-0.02
-0.02
-0.06
-0.04
-0.01
-0.02
0.0
0.02
0.005
-0.005
0.005
0.0
0.055
-0.005
0.035
0.05
0.09
0.135
0.1
0.06
0.045
0.05
0.105
0.08
0.065
0.075
0.065
0.1
0.1
0.085
0.085
0.06
0.07
0.065
0.05
0.04
0.035
0.02
0.035
-0.035
-0.05
-0.05
-0.05
-0.065
-0.055
-0.065
-0.085
-0.09
-0.085
-0.125
-0.145
-0.175
-0.15
-0.145
-0.145
-0.14
-0.175
-0.155
-0.17
-0.205
-0.225
-0.135
-0.135
-0.18
-0.205
-0.215
-0.205
-0.175
-0.195
-0.205
-0.22
-0.215
-0.23
-0.155
-0.185
-0.205
-0.205
-0.205
-0.22
-0.215
-0.205
-0.2
-0.18
-0.2
-0.21
-0.205
-0.2
-0.18
-0.21
-0.195
-0.215
-0.205
-0.18
-0.205
-0.215
-0.215
-0.18
-0.2
-0.195
-0.165
-0.2
-0.205
-0.175
-0.185
-0.205
-0.21
-0.19
-0.18
-0.19
-0.225
-0.2
-0.2
-0.19
-0.165
-0.175
-0.21
-0.19
-0.18
-0.185
-0.2
-0.2
-0.18
-0.195
-0.2
-0.17
-0.19
-0.16
-0.155
-0.2
-0.195
-0.185
-0.195
-0.21
-0.17
-0.21
-0.15
-0.165
-0.195
-0.215
-0.16
-0.18
-0.165
-0.2
-0.19
-0.205
-0.2
-0.195
-0.175
-0.205
-0.225
-0.21
-0.215
-0.2
-0.2
-0.21
-0.175
-0.17
-0.195
-0.215
-0.23
-0.205
-0.19
-0.195
-0.21
-0.19
-0.2
-0.21
-0.185
-0.21
-0.225
-0.22
-0.2
-0.21
-0.205
-0.185
-0.2
-0.21
-0.165
-0.205
-0.215
-0.215
-0.215
-0.185
-0.205
-0.215
-0.205
-0.195
-0.2
-0.19
-0.2
-0.22
-0.2
-0.2
-0.215
-0.21
-0.21
-0.205
-0.185
-0.215
-0.23
-0.23
-0.24
-0.21
-0.205
-0.195
-0.165
-0.165
-0.205
-0.23
-0.24
-0.24
-0.225
-0.245
-0.235
-0.18
-0.16
-0.215
-0.22
-0.225
-0.22
-0.225
-0.19
-0.22
-0.21
-0.21
-0.185
-0.2
-0.225
-0.235
-0.19
-0.2
-0.17
-0.19
-0.175
-0.165
-0.155
-0.185
-0.18
-0.19
-0.205
-0.185
-0.18
-0.16
-0.14
-0.11
-0.135
-0.14
-0.13
-0.14
-0.16
-0.135
-0.14
-0.135
-0.09
-0.125
-0.12
-0.145
-0.115
-0.135
-0.14
-0.135
-0.15
-0.17
-0.17
-0.185
-0.205
-0.2
-0.17
-0.205
-0.235
-0.2
-0.2
-0.21
-0.225
-0.215
-0.22
-0.235
-0.25
-0.22
-0.21
-0.18
-0.23
-0.24
-0.245
-0.22
-0.21
-0.22
-0.23
-0.23
-0.245
-0.225
-0.215
-0.22
-0.215
-0.215
-0.195
-0.235
-0.25
-0.26
-0.265
-0.255
-0.26
-0.235
-0.195
-0.115
-0.01
0.115
0.21
0.335
0.45
0.525
0.59
0.665
0.66
0.505
0.33
0.17
0.015
-0.14
-0.365
-0.42
-0.41
-0.37
-0.32
-0.285
-0.275
-0.25
-0.23
-0.215
-0.21
-0.135
-0.15
-0.185
-0.205
-0.19
-0.2
-0.205
-0.22
-0.23
-0.225
-0.2
-0.2
-0.215
-0.18
-0.175
-0.18
-0.19
-0.205
-0.205
-0.195
-0.185
-0.18
-0.175
-0.165
-0.17
-0.175
-0.18
-0.17
-0.18
-0.18
-0.2
-0.19
-0.15
-0.135
-0.15
-0.13
-0.13
-0.13
-0.16
-0.175
-0.17
-0.16
-0.16
-0.14
-0.13
-0.105
-0.13
-0.15
-0.15
-0.135
-0.145
-0.125
-0.11
-0.115
-0.105
-0.115
-0.075
-0.12
-0.12
-0.115
-0.095
-0.105
-0.1
-0.025
-0.055
-0.06
-0.065
-0.04
-0.07
-0.085
-0.045
-0.03
-0.02
-0.03
-0.025
-0.03
0.0
0.03
0.01
0.01
0.01
0.005
0.035
0.025
0.035
0.055
0.04
0.065
0.065
0.04
0.065
0.09
0.075
0.075
0.075
0.095
0.075
0.08
0.085
0.08
0.055
0.05
0.04
0.035
0.02
0.015
0.0
-0.005
-0.03
0.01
-0.015
-0.075
-0.085
-0.085
-0.095
-0.09
-0.11
-0.125
-0.14
-0.145
-0.16
-0.16
-0.185
-0.155
-0.175
-0.18
-0.185
-0.21
-0.175
-0.225
-0.205
-0.195
-0.185
-0.21
-0.2
-0.19
-0.22
-0.2
-0.2
-0.22
-0.205
-0.22
-0.23
-0.215
-0.2
-0.205
-0.23
-0.225
-0.185
-0.23
-0.235
-0.19
-0.2
-0.2
-0.23
-0.24
-0.18
-0.19
-0.2
-0.18
-0.195
-0.21
-0.225
-0.18
-0.2
-0.22
-0.215
-0.21
-0.195
-0.185
-0.205
-0.22
-0.2
-0.195
-0.23
-0.225
-0.195
-0.205
-0.205
-0.195
-0.2
-0.195
-0.195
-0.21
-0.2
-0.195
-0.19
-0.205
-0.215
-0.215
-0.22
-0.19
-0.195
-0.185
-0.185
-0.2
-0.22
-0.22
-0.19
-0.185
-0.205
-0.2
-0.195
-0.175
-0.16
-0.215
-0.22
-0.2
-0.18
-0.195
-0.195
-0.21
-0.22
-0.2
-0.205
-0.205
-0.225
-0.245
-0.225
-0.225
-0.23
-0.185
-0.2
-0.19
-0.165
-0.225
-0.215
-0.22
-0.23
-0.245
-0.235
-0.215
-0.22
-0.2
-0.175
-0.19
-0.235
-0.23
-0.215
-0.2
-0.205
-0.245
-0.215
-0.2
-0.21
-0.22
-0.235
-0.25
-0.245
-0.22
-0.19
-0.19
-0.185
-0.195
-0.195
-0.265
-0.24
-0.215
-0.215
-0.24
-0.255
-0.255
-0.23
-0.195
-0.22
-0.205
-0.225
-0.23
-0.22
-0.225
-0.205
-0.215
-0.23
-0.225
-0.235
-0.23
-0.245
-0.23
-0.225
-0.24
-0.24
-0.19
-0.17
-0.205
-0.24
-0.245
-0.235
-0.225
-0.23
-0.225
-0.225
-0.205
-0.17
-0.195
-0.25
-0.265
-0.25
-0.205
-0.21
-0.235
-0.23
-0.225
-0.215
-0.185
-0.215
-0.24
-0.2
-0.16
-0.165
-0.22
-0.23
-0.195
-0.19
-0.17
-0.165
-0.165
-0.175
-0.125
-0.13
-0.145
-0.15
-0.135
-0.09
-0.125
-0.15
-0.16
-0.15
-0.13
-0.125
-0.13
-0.12
-0.13
-0.125
-0.115
-0.15
-0.19
-0.185
-0.195
-0.225
-0.23
-0.215
-0.235
-0.22
-0.215
-0.22
-0.24
-0.245
-0.24
-0.22
-0.22
-0.24
-0.235
-0.235
-0.24
-0.23
-0.24
-0.265
-0.25
-0.21
-0.255
-0.255
-0.22
-0.17
-0.205
-0.195
-0.205
-0.255
-0.27
-0.25
-0.24
-0.24
-0.245
-0.215
-0.235
-0.265
-0.275
-0.245
-0.19
-0.065
0.065
0.17
0.24
0.39
0.525
0.59
0.64
0.71
0.67
0.465
0.3
0.16
-0.02
-0.18
-0.38
-0.455
-0.39
-0.365
-0.33
-0.305
-0.305
-0.28
-0.24
-0.225
-0.21
-0.175
-0.17
-0.16
-0.225
-0.24
-0.21
-0.175
-0.19
-0.165
-0.19
-0.215
-0.22
-0.195
-0.19
-0.195
-0.185
-0.17
-0.17
-0.165
-0.18
-0.195
-0.19
-0.185
-0.19
-0.175
-0.19
-0.18
-0.125
-0.145
-0.175
-0.175
-0.15
-0.145
-0.16
-0.19
-0.165
-0.135
-0.14
-0.14
-0.155
-0.155
-0.15
-0.15
-0.135
-0.145
-0.125
-0.115
-0.095
-0.07
-0.115
-0.13
-0.13
-0.125
-0.11
-0.08
-0.1
-0.095
-0.08
-0.09
-0.09
-0.11
-0.07
-0.05
-0.05
-0.085
-0.065
-0.035
-0.04
-0.045
-0.045
-0.05
-0.03
-0.04
-0.04
-0.015
0.005
0.01
0.025
0.045
0.065
0.055
-0.005
0.015
0.035
0.04
0.065
0.06
0.075
0.075
0.065
0.055
0.085
0.09
0.1
0.095
0.08
0.065
0.085
0.085
0.07
0.05
0.025
0.05
0.06
0.075
0.045
0.02
0.02
-0.005
-0.045
-0.065
-0.07
-0.06
-0.04
-0.08
-0.1
-0.075
-0.135
-0.14
-0.135
-0.18
-0.195
-0.18
-0.175
-0.165
-0.16
-0.18
-0.155
-0.16
-0.23
-0.215
-0.205
-0.215
-0.215
-0.21
-0.21
-0.185
-0.17
-0.2
-0.235
-0.22
-0.215
-0.23
-0.21
-0.21
-0.22
-0.21
-0.2
-0.205
-0.215
-0.22
-0.21
-0.235
-0.215
-0.19
-0.2
-0.21
-0.18
-0.205
-0.21
-0.205
-0.215
-0.215
-0.215
-0.225
-0.205
-0.19
-0.21
-0.18
-0.215
-0.22
-0.19
-0.2
-0.21
-0.21
-0.17
-0.17
-0.205
-0.225
-0.215
-0.225
-0.225
-0.175
-0.195
-0.165
-0.19
-0.19
-0.185
-0.21
-0.2
-0.215
-0.215
-0.215
-0.195
-0.205
-0.195
-0.195
-0.17
-0.19
-0.205
-0.23
-0.19
-0.205
-0.195
-0.2
-0.205
-0.18
-0.165
-0.18
-0.19
-0.215
-0.205
-0.21
-0.22
-0.22
-0.21
-0.17
-0.18
-0.2
-0.195
-0.2
-0.215
-0.22
-0.225
-0.21
-0.19
-0.17
-0.175
-0.22
-0.215
-0.205
-0.23
-0.23
-0.235
-0.22
-0.185
-0.2
-0.215
-0.19
-0.185
-0.235
-0.23
-0.225
-0.225
-0.21
-0.2
-0.195
-0.21
-0.23
-0.26
-0.195
-0.155
-0.185
-0.225
-0.215
-0.175
-0.175
-0.205
-0.235
-0.215
-0.22
-0.22
-0.22
-0.225
-0.235
-0.205
-0.16
-0.205
-0.21
-0.22
-0.215
-0.205
-0.205
-0.215
-0.21
-0.19
-0.2
-0.215
-0.21
-0.22
-0.23
-0.23
-0.22
-0.195
-0.225
-0.195
-0.175
-0.16
-0.215
-0.21
-0.2
-0.2
-0.17
-0.2
-0.165
-0.175
-0.225
-0.22
-0.21
-0.22
-0.205
-0.21
-0.205
-0.2
-0.205
-0.18
-0.18
-0.175
-0.205
-0.21
-0.14
-0.15
-0.195
-0.18
-0.155
-0.14
-0.145
-0.175
-0.16
-0.12
-0.12
-0.12
-0.14
-0.12
-0.135
-0.13
-0.125
-0.125
-0.125
-0.105
-0.02
-0.085
-0.1
-0.12
-0.13
-0.14
-0.155
-0.17
-0.16
-0.185
-0.205
-0.22
-0.22
-0.22
-0.22
-0.21
-0.215
-0.185
-0.22
-0.21
-0.235
-0.235
-0.22
-0.22
-0.2
-0.195
-0.17
-0.205
-0.25
-0.245
-0.26
-0.235
-0.205
-0.19
-0.18
-0.195
-0.205
-0.19
-0.205
-0.21
-0.205
-0.22
-0.21
-0.225
-0.215
-0.215
-0.26
-0.225
-0.22
-0.155
-0.095
0.03
0.145
0.255
0.43
0.545
0.61
0.68
0.715
0.65
0.47
0.29
0.135
-0.055
-0.235
-0.37
-0.42
-0.415
-0.395
-0.355
-0.335
-0.34
-0.29
-0.235
-0.215
-0.225
-0.205
-0.205
-0.2
-0.18
-0.195
-0.195
-0.2
-0.195
-0.185
-0.14
-0.135
-0.2
-0.155
-0.165
-0.175
-0.195
-0.175
-0.175
-0.175
-0.165
-0.175
-0.15
-0.195
-0.165
-0.09
-0.145
-0.16
-0.135
-0.115
-0.16
-0.185
-0.165
-0.165
-0.165
-0.15
-0.135
-0.145
-0.165
-0.175
-0.09
-0.06
-0.12
-0.155
-0.12
-0.13
-0.11
-0.1
-0.09
-0.09
-0.11
-0.125
-0.115
-0.12
-0.095
-0.1
-0.11
-0.09
-0.08
-0.07
-0.075
-0.095
-0.08
-0.06
-0.035
-0.07
-0.065
-0.05
-0.045
-0.02
-0.03
-0.025
0.05
0.01
-0.005
0.0
0.035
-0.015
-0.005
0.01
0.015
0.05
0.05
0.035
0.06
0.075
0.065
0.065
0.115
0.125
0.075
0.055
0.06
0.075
0.085
0.095
0.095
0.085
0.1
0.08
0.065
0.08
0.07
0.06
0.045
0.04
0.04
0.03
0.0
0.025
-0.015
-0.05
-0.04
-0.045
-0.06
-0.06
-0.085
-0.115
-0.1
-0.07
-0.13
-0.155
-0.16
-0.12
-0.135
-0.19
-0.195
-0.16
-0.12
-0.175
-0.2
-0.22
-0.21
-0.21
-0.18
-0.195
-0.215
-0.225
-0.19
-0.19
-0.185
-0.215
-0.195
-0.22
-0.215
-0.23
-0.24
-0.23
-0.22
-0.205
-0.21
-0.215
-0.235
-0.21
-0.185
-0.21
-0.18
-0.215
-0.18
-0.195
-0.19
-0.21
-0.22
-0.215
-0.175
-0.225
-0.215
-0.18
-0.165
-0.17
-0.195
-0.2
-0.245
-0.215
-0.185
-0.205
-0.215
-0.215
-0.195
-0.19
-0.18
-0.205
-0.21
-0.205
-0.2
-0.205
-0.19
-0.205
-0.185
-0.175
-0.195
-0.225
-0.205
-0.2
-0.145
-0.215
-0.205
-0.165
-0.185
-0.21
-0.17
-0.15
-0.215
-0.2
-0.185
-0.19
-0.2
-0.175
-0.17
-0.21
-0.215
-0.195
-0.2
-0.215
-0.21
-0.205
-0.22
-0.19
-0.19
-0.2
-0.195
-0.2
-0.235
-0.235
-0.225
-0.2
-0.21
-0.23
-0.22
-0.205
-0.2
-0.21
-0.22
-0.21
-0.22
-0.22
-0.22
-0.2
-0.195
-0.23
-0.245
-0.235
-0.225
-0.22
-0.23
-0.235
-0.235
-0.2
-0.15
-0.16
-0.22
-0.23
-0.21
-0.205
-0.23
-0.235
-0.245
-0.21
-0.2
-0.195
-0.23
-0.255
-0.21
-0.215
-0.195
-0.175
-0.21
-0.22
-0.195
-0.19
-0.19
-0.21
-0.205
-0.165
-0.175
-0.175
-0.21
-0.19
-0.16
-0.17
-0.16
-0.14
-0.12
-0.135
-0.145
-0.13
-0.14
-0.17
-0.065
-0.07
-0.145
-0.125
-0.115
-0.12
-0.135
-0.14
-0.15
-0.15
-0.155
-0.16
-0.205
-0.235
-0.22
-0.215
-0.23
-0.245
-0.235
-0.22
-0.215
-0.205
-0.225
-0.205
-0.225
-0.22
-0.22
-0.205
-0.175
-0.195
-0.255
-0.25
-0.25
-0.24
-0.235
-0.23
-0.235
-0.24
-0.24
-0.21
-0.22
-0.21
-0.215
-0.26
-0.245
-0.24
-0.205
-0.24
-0.26
-0.245
-0.255
-0.245
-0.19
-0.1
0.015
0.145
0.315
0.45
0.52
0.595
0.69
0.73
0.64
0.455
0.325
0.12
-0.03
-0.245
-0.385
-0.4
-0.395
-0.37
-0.32
-0.325
-0.295
-0.26
-0.275
-0.25
-0.215
-0.175
-0.19
-0.185
-0.19
-0.225
-0.21
-0.24
-0.23
-0.24
-0.205
-0.185
-0.15
-0.19
-0.215
-0.22
-0.195
-0.185
-0.18
-0.175
-0.165
-0.195
-0.185
-0.17
-0.185
-0.2
-0.19
-0.2
-0.185
-0.19
-0.19
-0.165
-0.145
-0.145
-0.145
-0.155
-0.185
-0.18
-0.155
-0.13
-0.16
-0.17
-0.155
-0.125
-0.13
-0.135
-0.14
-0.15
-0.14
-0.065
-0.1
-0.14
-0.13
-0.12
-0.125
-0.13
-0.13
-0.1
-0.095
-0.11
-0.07
-0.075
-0.08
-0.08
-0.11
-0.095
-0.015
-0.06
-0.065
-0.035
-0.01
-0.035
-0.025
-0.02
-0.035
-0.035
-0.005
0.0
-0.005
0.01
0.045
0.065
0.04
0.035
0.04
0.035
0.06
0.05
0.05
0.08
0.105
0.09
0.08
0.1
0.07
0.06
0.05
0.06
0.075
0.07
0.065
0.085
0.065
0.04
0.035
0.035
-0.005
-0.15
-0.185
-0.21
-0.23
-0.19
-0.18
-0.16
-0.17
-0.205
-0.19
-0.21
-0.205
-0.21
-0.23
-0.185
-0.215
-0.22
-0.235
-0.24
-0.2
-0.215
-0.235
-0.22
-0.22
-0.215
-0.215
-0.22
-0.225
-0.24
-0.2
-0.23
-0.21
-0.205
-0.225
-0.24
-0.205
-0.205
-0.205
-0.21
-0.185
-0.21
-0.23
-0.235
-0.235
-0.225
-0.22
-0.23
-0.19
-0.19
-0.205
-0.215
-0.2
-0.21
-0.235
-0.205
-0.195
-0.18
-0.125
-0.19
-0.225
-0.21
-0.19
-0.245
-0.24
-0.22
-0.195
-0.21
-0.195
-0.19
-0.22
-0.16
-0.21
-0.22
-0.155
-0.21
-0.21
-0.215
-0.215
-0.195
-0.21
-0.22
-0.195
-0.205
-0.225
-0.21
-0.215
-0.215
-0.2
-0.2
-0.2
-0.21
-0.225
-0.215
-0.23
-0.23
-0.215
-0.2
-0.185
-0.195
-0.19
-0.21
-0.23
-0.225
-0.24
-0.23
-0.235
-0.245
-0.215
-0.175
-0.22
-0.25
-0.22
-0.215
-0.21
-0.22
-0.225
-0.24
-0.24
-0.21
-0.215
-0.25
-0.215
-0.195
-0.23
-0.24
-0.255
-0.22
-0.225
-0.2
-0.215
-0.245
-0.255
-0.23
-0.175
-0.235
-0.265
-0.18
-0.23
-0.235
-0.205
-0.235
-0.245
-0.235
-0.23
-0.215
-0.225
-0.225
-0.22
-0.2
-0.205
-0.24
-0.235
-0.25
-0.195
-0.17
-0.185
-0.195
-0.21
-0.195
-0.21
-0.215
-0.22
-0.195
-0.17
-0.195
-0.195
-0.14
-0.11
-0.115
-0.125
-0.135
-0.135
-0.135
-0.13
-0.11
-0.115
-0.09
-0.11
-0.125
-0.15
-0.115
-0.165
-0.19
-0.18
-0.175
-0.17
-0.205
-0.235
-0.21
-0.18
-0.2
-0.27
-0.23
-0.225
-0.24
-0.235
-0.23
-0.215
-0.235
-0.23
-0.225
-0.23
-0.245
-0.25
-0.22
-0.21
-0.23
-0.225
-0.235
-0.24
-0.24
-0.25
-0.25
-0.23
-0.25
-0.26
-0.215
-0.22
-0.22
-0.21
-0.255
-0.275
-0.28
-0.245
-0.235
-0.17
-0.085
0.05
0.19
0.32
0.435
0.55
0.62
0.705
0.775
0.67
0.465
0.28
0.125
-0.055
-0.26
-0.455
-0.5
-0.4
-0.345
-0.315
-0.31
-0.28
-0.27
-0.24
-0.225
-0.225
-0.195
-0.215
-0.215
-0.185
-0.18
-0.225
-0.205
-0.195
-0.2
-0.205
-0.205
-0.185
-0.205
-0.215
-0.225
-0.21
-0.19
-0.155
-0.165
-0.195
-0.18
-0.205
-0.18
-0.18
-0.185
-0.175
-0.175
-0.18
-0.205
-0.175
-0.17
-0.165
-0.165
-0.145
-0.17
-0.16
-0.145
-0.14
-0.165
-0.17
-0.16
-0.135
-0.14
-0.155
-0.145
-0.14
-0.155
-0.16
-0.15
-0.09
-0.065
-0.105
-0.155
-0.15
-0.105
-0.1
-0.105
-0.1
-0.095
-0.085
-0.08
-0.1
-0.095
-0.08
-0.085
-0.04
-0.075
-0.055
-0.04
-0.045
-0.03
-0.03
-0.025
-0.025
-0.01
0.005
0.01
0.015
0.01
0.005
0.015
0.025
0.03
0.035
0.075
0.055
0.08
0.105
0.08
0.095
0.05
0.04
0.065
0.075
0.075
0.085
0.06
0.05
0.045
0.04
0.025
0.04
0.09
0.085
0.03
0.01
0.005
-0.025
-0.04
-0.05
-0.07
-0.09
-0.045
-0.09
-0.105
-0.095
-0.115
-0.145
-0.165
-0.15
-0.185
-0.205
-0.175
-0.155
-0.17
-0.195
-0.19
-0.205
-0.2
-0.22
-0.2
-0.21
-0.215
-0.21
-0.2
-0.19
-0.245
-0.25
-0.23
-0.23
-0.225
-0.23
-0.24
-0.24
-0.225
-0.24
-0.22
-0.225
-0.23
-0.195
-0.215
-0.205
-0.21
-0.215
-0.24
-0.215
-0.21
-0.23
-0.225
-0.205
-0.24
-0.23
-0.175
-0.2
-0.235
-0.195
-0.215
-0.215
-0.22
-0.195
-0.21
-0.215
-0.195
-0.19
-0.2
-0.22
-0.215
-0.215
-0.205
-0.215
-0.23
-0.22
-0.215
-0.205
-0.18
-0.21
-0.21
-0.235
-0.215
-0.21
-0.22
-0.235
-0.195
-0.195
-0.18
-0.23
-0.225
-0.205
-0.205
-0.22
-0.235
-0.205
-0.205
-0.2
-0.19
-0.21
-0.225
-0.225
-0.21
-0.21
-0.255
-0.23
-0.22
-0.205
-0.195
-0.215
-0.225
-0.24
-0.215
-0.225
-0.24
-0.21
-0.235
-0.23
-0.235
-0.22
-0.23
-0.265
-0.245
-0.235
-0.245
-0.215
-0.22
-0.205
-0.235
-0.225
-0.225
-0.245
-0.26
-0.245
-0.245
-0.205
-0.22
-0.235
-0.225
-0.25
-0.24
-0.225
-0.225
-0.235
-0.225
-0.19
-0.215
-0.205
-0.245
-0.25
-0.255
-0.245
-0.25
-0.25
-0.255
-0.24
-0.24
-0.225
-0.23
-0.23
-0.22
-0.26
-0.23
-0.24
-0.245
-0.27
-0.24
-0.2
-0.235
-0.22
-0.23
-0.23
-0.25
-0.245
-0.24
-0.25
-0.235
-0.235
-0.245
-0.235
-0.25
-0.245
-0.24
-0.215
-0.23
-0.215
-0.205
-0.18
-0.195
-0.22
-0.215
-0.2
-0.215
-0.275
-0.255
-0.195
-0.175
-0.16
-0.16
-0.14
-0.1
-0.145
-0.15
-0.2
-0.17
-0.15
-0.12
-0.13
-0.1
-0.13
-0.155
-0.16
-0.145
-0.175
-0.155
-0.185
-0.195
-0.16
-0.19
-0.225
-0.24
-0.235
-0.25
-0.255
-0.25
-0.22
-0.225
-0.24
-0.24
-0.25
-0.23
-0.265
-0.26
-0.245
-0.22
-0.25
-0.24
-0.245
-0.25
-0.25
-0.23
-0.245
-0.26
-0.26
-0.255
-0.25
-0.245
-0.24
-0.25
-0.255
-0.25
-0.26
-0.26
-0.275
-0.295
-0.275
-0.205
-0.095
-0.03
0.08
0.215
0.36
0.49
0.605
0.67
0.745
0.72
0.51
0.33
0.175
0.0
-0.165
-0.345
-0.465
-0.44
-0.39
-0.345
-0.34
-0.335
-0.335
-0.255
-0.24
-0.205
-0.165
-0.17
-0.205
-0.225
-0.24
-0.21
-0.22
-0.225
-0.2
-0.23
-0.225
-0.21
-0.215
-0.195
-0.18
-0.185
-0.225
-0.215
-0.225
-0.215
-0.205
-0.19
-0.19
-0.17
-0.19
-0.175
-0.195
-0.215
-0.21
-0.16
-0.185
-0.135
-0.14
-0.175
-0.175
-0.16
-0.19
-0.165
-0.17
-0.165
-0.165
-0.165
-0.16
-0.155
-0.115
-0.115
-0.14
-0.17
-0.17
-0.16
-0.175
-0.145
-0.115
-0.095
-0.09
-0.1
-0.135
-0.125
-0.12
-0.115
-0.085
-0.11
-0.095
-0.11
-0.1
-0.075
-0.09
-0.1
-0.06
-0.075
-0.075
-0.045
-0.015
-0.01
-0.03
-0.035
-0.035
-0.03
0.0
0.005
0.02
0.005
0.06
0.07
0.04
0.03
-0.005
0.025
0.045
0.04
0.04
0.035
0.055
0.065
0.05
0.04
0.055
0.045
0.05
0.04
0.02
0.02
0.045
0.02
0.0
0.025
-0.01
-0.015
-0.035
-0.065
-0.07
-0.05
-0.04
-0.09
-0.12
-0.125
-0.16
-0.16
-0.165
-0.15
-0.16
-0.16
-0.17
-0.165
-0.18
-0.21
-0.185
-0.22
-0.225
-0.215
-0.2
-0.235
-0.23
-0.23
-0.22
-0.235
-0.245
-0.23
-0.235
-0.23
-0.25
-0.23
-0.21
-0.25
-0.25
-0.25
-0.26
-0.245
-0.25
-0.24
-0.24
-0.235
-0.23
-0.23
-0.22
-0.245
-0.245
-0.215
-0.225
-0.275
-0.25
-0.215
-0.235
-0.26
-0.22
-0.225
-0.25
-0.23
-0.23
-0.25
-0.24
-0.225
-0.215
-0.24
-0.18
-0.21
-0.25
-0.215
-0.225
-0.23
-0.225
-0.22
-0.22
-0.225
-0.225
-0.225
-0.24
-0.26
-0.255
-0.22
-0.195
-0.23
-0.21
-0.195
-0.245
-0.23
-0.225
-0.235
-0.245
-0.23
-0.21
-0.21
-0.22
-0.21
-0.225
-0.25
-0.24
-0.2
-0.18
-0.215
-0.26
-0.25
-0.255
-0.225
-0.22
-0.265
-0.265
-0.26
-0.235
-0.2
-0.22
-0.245
-0.215
-0.25
-0.26
-0.26
-0.255
-0.225
-0.215
-0.235
-0.235
-0.24
-0.24
-0.24
-0.235
-0.235
-0.255
-0.265
-0.265
-0.255
-0.235
-0.235
-0.245
-0.235
-0.23
-0.235
-0.225
-0.255
-0.245
-0.26
-0.245
-0.235
-0.225
-0.27
-0.26
-0.25
-0.28
-0.28
-0.235
-0.2
-0.195
-0.24
-0.225
-0.24
-0.24
-0.23
-0.22
-0.22
-0.195
-0.225
-0.23
-0.215
-0.225
-0.205
-0.195
-0.195
-0.15
-0.175
-0.16
-0.165
-0.155
-0.12
-0.15
-0.15
-0.145
-0.135
-0.17
-0.16
-0.13
-0.11
-0.165
-0.17
-0.19
-0.23
-0.25
-0.24
-0.28
-0.27
-0.27
-0.235
-0.24
-0.26
-0.235
-0.185
-0.235
-0.295
-0.25
-0.265
-0.265
-0.25
-0.235
-0.24
-0.25
-0.27
-0.26
-0.275
-0.25
-0.255
-0.26
-0.27
-0.265
-0.275
-0.28
-0.24
-0.24
-0.245
-0.285
-0.285
-0.27
-0.28
-0.275
-0.29
-0.275
-0.255
-0.2
-0.095
0.06
0.26
0.375
0.445
0.525
0.63
0.72
0.69
0.515
0.305
0.15
0.045
-0.17
-0.325
-0.445
-0.43
-0.39
-0.365
-0.355
-0.34
-0.3
-0.3
-0.28
-0.25
-0.205
-0.235
-0.225
-0.215
-0.23
-0.225
-0.24
-0.225
-0.2
-0.2
-0.195
-0.215
-0.225
-0.225
-0.215
-0.21
-0.22
-0.215
-0.235
-0.205
-0.195
-0.195
-0.17
-0.195
-0.21
-0.19
-0.19
-0.16
-0.175
-0.175
-0.175
-0.185
-0.18
-0.16
-0.155
-0.16
-0.215
-0.195
-0.165
-0.17
-0.145
-0.16
-0.16
-0.17
-0.175
-0.16
-0.175
-0.145
-0.125
-0.115
-0.125
-0.125
-0.145
-0.14
-0.15
-0.12
-0.135
-0.12
-0.115
-0.12
-0.085
-0.075
-0.1
-0.09
-0.1
-0.1
-0.09
-0.07
-0.07
-0.06
-0.08
-0.06
-0.025
-0.03
-0.025
-0.045
-0.025
-0.03
0.045
0.055
0.03
0.055
0.01
0.01
-0.005
0.04
0.05
0.04
0.06
0.05
0.065
0.09
0.065
0.045
0.07
0.08
0.045
0.055
0.05
0.055
0.06
0.04
0.02
-0.005
-0.015
-0.015
-0.03
0.0
-0.03
-0.035
-0.07
-0.09
-0.085
-0.125
-0.15
-0.145
-0.145
-0.145
-0.185
-0.18
-0.11
-0.165
-0.225
-0.21
-0.215
-0.22
-0.22
-0.215
-0.23
-0.24
-0.205
-0.195
-0.22
-0.205
-0.255
-0.245
-0.255
-0.23
-0.225
-0.25
-0.24
-0.23
-0.24
-0.255
-0.245
-0.235
-0.25
-0.265
-0.245
-0.23
-0.24
-0.24
-0.255
-0.265
-0.26
-0.27
-0.22
-0.215
-0.255
-0.225
-0.24
-0.26
-0.22
-0.225
-0.23
-0.235
-0.25
-0.25
-0.25
-0.22
-0.24
-0.25
-0.255
-0.23
-0.245
-0.215
-0.245
-0.23
-0.17
-0.21
-0.235
-0.23
-0.245
-0.245
-0.245
-0.235
-0.24
-0.22
-0.22
-0.225
-0.22
-0.2
-0.235
-0.245
-0.215
-0.23
-0.25
-0.22
-0.235
-0.21
-0.215
-0.245
-0.25
-0.265
-0.245
-0.21
-0.255
-0.25
-0.27
-0.225
-0.23
-0.21
-0.26
-0.26
-0.245
-0.235
-0.25
-0.235
-0.245
-0.235
-0.22
-0.255
-0.275
-0.2
-0.21
-0.28
-0.245
-0.2
-0.21
-0.26
-0.28
-0.27
-0.275
-0.265
-0.265
-0.245
-0.24
-0.275
-0.24
-0.245
-0.245
-0.255
-0.285
-0.25
-0.21
-0.25
-0.28
-0.24
-0.255
-0.28
-0.285
-0.265
-0.265
-0.245
-0.265
-0.285
-0.255
-0.185
-0.225
-0.25
-0.24
-0.245
-0.265
-0.265
-0.255
-0.245
-0.255
-0.205
-0.2
-0.18
-0.22
-0.255
-0.305
-0.28
-0.27
-0.27
-0.25
-0.265
-0.24
-0.24
-0.23
-0.215
-0.225
-0.24
-0.245
-0.24
-0.225
-0.23
-0.23
-0.25
-0.215
-0.235
-0.24
-0.225
-0.215
-0.15
-0.155
-0.14
-0.15
-0.14
-0.155
-0.16
-0.21
-0.145
-0.125
-0.1
-0.105
-0.155
-0.125
-0.11
-0.175
-0.18
-0.21
-0.21
-0.21
-0.24
-0.235
-0.245
-0.245
-0.24
-0.25
-0.22
-0.245
-0.295
-0.285
-0.255
-0.24
-0.26
-0.255
-0.235
-0.255
-0.26
-0.27
-0.265
-0.285
-0.215
-0.225
-0.28
-0.255
-0.255
-0.28
-0.27
-0.27
-0.25
-0.27
-0.28
-0.275
-0.285
-0.29
-0.2
-0.235
-0.31
-0.27
-0.21
-0.1
0.02
0.12
0.275
0.435
0.505
0.59
0.68
0.72
0.655
0.47
0.26
0.095
-0.025
-0.22
-0.415
-0.5
-0.47
-0.425
-0.345
-0.32
-0.34
-0.315
-0.285
-0.24
-0.225
-0.225
-0.185
-0.245
-0.24
-0.245
-0.225
-0.22
-0.25
-0.23
-0.23
-0.245
-0.235
-0.245
-0.225
-0.205
-0.225
-0.24
-0.195
-0.17
-0.205
-0.22
-0.23
-0.22
-0.23
-0.21
-0.2
-0.205
-0.2
-0.175
-0.175
-0.195
-0.185
-0.215
-0.205
-0.19
-0.19
-0.175
-0.185
-0.175
-0.16
-0.185
-0.19
-0.19
-0.175
-0.16
-0.155
-0.175
-0.14
-0.125
-0.15
-0.175
-0.18
-0.15
-0.135
-0.13
-0.13
-0.105
-0.125
-0.125
-0.095
-0.14
-0.135
-0.125
-0.11
-0.11
-0.105
-0.105
-0.045
-0.015
-0.045
-0.045
-0.06
-0.06
-0.055
-0.055
-0.03
0.015
0.035
0.0
0.01
0.0
-0.005
0.015
0.03
0.02
0.03
0.04
0.055
0.05
0.065
0.06
0.02
0.05
0.08
0.065
0.05
0.04
0.06
0.055
0.04
0.04
0.015
0.025
0.015
-0.015
-0.02
-0.01
-0.015
-0.04
-0.05
-0.08
-0.095
-0.1
-0.12
-0.15
-0.13
-0.12
-0.13
-0.135
-0.13
-0.15
-0.175
-0.175
-0.195
-0.2
-0.25
-0.195
-0.18
-0.185
-0.245
-0.225
-0.21
-0.235
-0.19
-0.22
-0.225
-0.235
-0.195
-0.215
-0.235
-0.225
-0.225
-0.235
-0.225
-0.23
-0.25
-0.24
-0.225
-0.245
-0.25
-0.26
-0.25
-0.25
-0.25
-0.23
-0.225
-0.23
-0.225
-0.225
-0.24
-0.235
-0.235
-0.24
-0.23
-0.24
-0.23
-0.19
-0.2
-0.225
-0.245
-0.225
-0.205
-0.24
-0.24
-0.25
-0.23
-0.195
-0.18
-0.205
-0.225
-0.24
-0.215
-0.225
-0.235
-0.215
-0.215
-0.215
-0.195
-0.195
-0.225
-0.225
-0.23
-0.22
-0.215
-0.22
-0.23
-0.205
-0.205
-0.24
-0.245
-0.26
-0.255
-0.26
-0.245
-0.265
-0.22
-0.155
-0.215
-0.22
-0.225
-0.245
-0.24
-0.235
-0.245
-0.24
-0.23
-0.24
-0.25
-0.25
-0.255
-0.24
-0.205
-0.23
-0.23
-0.23
-0.235
-0.225
-0.185
-0.245
-0.245
-0.25
-0.245
-0.235
-0.22
-0.215
-0.225
-0.245
-0.245
-0.265
-0.255
-0.265
-0.285
-0.26
-0.24
-0.22
-0.22
-0.24
-0.275
-0.26
-0.25
-0.26
-0.25
-0.265
-0.28
-0.225
-0.24
-0.235
-0.23
-0.24
-0.26
-0.25
-0.25
-0.245
-0.26
-0.275
-0.27
-0.245
-0.2
-0.22
-0.255
-0.265
-0.225
-0.255
-0.25
-0.255
-0.265
-0.225
-0.255
-0.26
-0.235
-0.27
-0.245
-0.23
-0.255
-0.215
-0.225
-0.245
-0.24
-0.235
-0.21
-0.195
-0.205
-0.245
-0.27
-0.225
-0.21
-0.185
-0.215
-0.23
-0.22
-0.19
-0.175
-0.16
-0.145
-0.14
-0.16
-0.165
-0.18
-0.165
-0.15
-0.155
-0.16
-0.13
-0.16
-0.145
-0.16
-0.155
-0.19
-0.215
-0.225
-0.21
-0.175
-0.265
-0.26
-0.23
-0.225
-0.23
-0.23
-0.265
-0.285
-0.255
-0.265
-0.23
-0.22
-0.25
-0.255
-0.23
-0.23
-0.25
-0.265
-0.26
-0.27
-0.23
-0.23
-0.24
-0.24
-0.23
-0.24
-0.27
-0.275
-0.28
-0.265
-0.26
-0.26
-0.275
-0.265
-0.255
-0.275
-0.295
-0.215
-0.155
-0.07
0.06
0.2
0.33
0.46
0.565
0.665
0.71
0.675
0.535
0.355
0.195
0.025
-0.165
-0.31
-0.435
-0.435
-0.42
-0.39
-0.36
-0.32
-0.315
-0.295
-0.3
-0.235
-0.21
-0.195
-0.235
-0.24
-0.215
-0.2
-0.185
-0.19
-0.21
-0.205
-0.21
-0.205
-0.23
-0.215
-0.18
-0.195
-0.195
-0.205
-0.205
-0.185
-0.195
-0.2
-0.21
-0.205
-0.18
-0.185
-0.16
-0.19
-0.185
-0.18
-0.19
-0.195
-0.185
-0.19
-0.17
-0.18
-0.18
-0.165
-0.13
-0.13
-0.135
-0.15
-0.19
-0.155
-0.17
-0.155
-0.14
-0.13
-0.11
-0.115
-0.115
-0.145
-0.145
-0.155
-0.13
-0.135
-0.1
-0.105
-0.115
-0.095
-0.095
-0.105
-0.12
-0.105
-0.1
-0.1
-0.03
-0.07
-0.04
-0.05
-0.07
-0.085
-0.05
-0.03
-0.03
-0.025
-0.015
-0.015
-0.015
-0.01
-0.005
0.0
0.035
0.045
0.055
0.025
0.05
0.05
0.075
0.075
0.07
0.055
0.03
0.045
0.06
0.075
0.055
0.045
0.075
0.06
0.025
0.01
0.075
0.06
-0.01
-0.015
-0.02
-0.015
-0.02
-0.015
-0.05
-0.08
-0.095
-0.095
-0.115
-0.125
-0.15
-0.16
-0.16
-0.17
-0.195
-0.14
-0.175
-0.215
-0.22
-0.195
-0.2
-0.235
-0.215
-0.21
-0.225
-0.23
-0.245
-0.245
-0.245
-0.24
-0.185
-0.175
-0.22
-0.255
-0.26
-0.27
-0.26
-0.25
-0.255
-0.245
-0.25
-0.245
-0.25
-0.245
-0.255
-0.245
-0.24
-0.25
-0.26
-0.255
-0.26
-0.235
-0.225
-0.235
-0.25
-0.255
-0.295
-0.27
-0.25
-0.245
-0.25
-0.23
-0.225
-0.225
-0.245
-0.245
-0.245
-0.23
-0.23
-0.235
-0.24
-0.245
-0.22
-0.215
-0.235
-0.23
-0.235
-0.245
-0.235
-0.25
-0.245
-0.22
-0.21
-0.25
-0.25
-0.235
-0.23
-0.23
-0.255
-0.225
-0.235
-0.23
-0.245
-0.23
-0.22
-0.25
-0.255
-0.24
-0.245
-0.25
-0.225
-0.205
-0.22
-0.255
-0.255
-0.265
-0.275
-0.235
-0.235
-0.25
-0.23
-0.26
-0.27
-0.235
-0.225
-0.225
-0.235
-0.26
-0.265
-0.245
-0.255
-0.235
-0.25
-0.27
-0.26
-0.25
-0.23
-0.24
-0.25
-0.27
-0.29
-0.25
-0.25
-0.25
-0.265
-0.275
-0.285
-0.27
-0.27
-0.26
-0.27
-0.26
-0.255
-0.22
-0.27
-0.26
-0.255
-0.245
-0.245
-0.255
-0.235
-0.22
-0.225
-0.24
-0.24
-0.255
-0.26
-0.285
-0.245
-0.205
-0.24
-0.2
-0.175
-0.215
-0.21
-0.195
-0.18
-0.18
-0.185
-0.185
-0.19
-0.175
-0.165
-0.185
-0.135
-0.16
-0.175
-0.175
-0.18
-0.21
-0.19
-0.185
-0.22
-0.255
-0.26
-0.275
-0.265
-0.27
-0.28
-0.27
-0.27
-0.24
-0.23
-0.265
-0.285
-0.3
-0.28
-0.285
-0.285
-0.285
-0.28
-0.265
-0.205
-0.255
-0.26
-0.25
-0.275
-0.29
-0.275
-0.25
-0.28
-0.27
-0.23
-0.285
-0.295
-0.275
-0.28
-0.305
-0.26
-0.275
-0.3
-0.28
-0.29
-0.25
-0.175
-0.07
0.085
0.2
0.365
0.485
0.575
0.64
0.695
0.625
0.425
0.28
0.155
-0.035
-0.24
-0.41
-0.44
-0.415
-0.39
-0.37
-0.33
-0.315
-0.325
-0.305
-0.225
-0.235
-0.235
-0.2
-0.225
-0.185
-0.215
-0.23
-0.235
-0.24
-0.245
-0.225
-0.215
-0.2
-0.225
-0.235
-0.185
-0.21
-0.215
-0.215
-0.215
-0.205
-0.195
-0.19
-0.195
-0.2
-0.215
-0.2
-0.205
-0.185
-0.19
-0.175
-0.185
-0.19
-0.17
-0.21
-0.205
-0.19
-0.155
-0.16
-0.155
-0.14
-0.15
-0.14
-0.14
-0.155
-0.145
-0.125
-0.135
-0.165
-0.155
-0.135
-0.13
-0.13
-0.15
-0.145
-0.15
-0.14
-0.15
-0.125
-0.075
-0.09
-0.1
-0.09
-0.085
-0.065
-0.095
-0.095
-0.08
-0.07
-0.025
-0.065
-0.03
-0.01
-0.02
-0.01
0.0
-0.02
0.005
-0.005
-0.015
0.01
0.02
0.015
0.04
0.015
0.02
0.04
0.05
0.04
0.07
0.06
0.075
0.115
0.085
0.03
0.055
0.06
0.05
0.05
0.075
0.055
0.065
0.035
0.005
0.015
-0.015
0.005
0.005
-0.055
-0.06
-0.025
-0.025
-0.085
-0.1
-0.115
-0.135
-0.14
-0.16
-0.13
-0.11
-0.145
-0.195
-0.19
-0.2
-0.21
-0.2
-0.205
-0.2
-0.22
-0.22
-0.215
-0.195
-0.215
-0.245
-0.255
-0.23
-0.2
-0.23
-0.235
-0.21
-0.21
-0.225
-0.235
-0.21
-0.235
-0.23
-0.22
-0.225
-0.24
-0.23
-0.21
-0.21
-0.23
-0.24
-0.245
-0.225
-0.235
-0.195
-0.2
-0.23
-0.21
-0.205
-0.24
-0.235
-0.225
-0.215
-0.23
-0.205
-0.215
-0.21
-0.225
-0.235
-0.23
-0.235
-0.24
-0.235
-0.22
-0.21
-0.195
-0.19
-0.2
-0.195
-0.205
-0.2
-0.245
-0.225
-0.2
-0.215
-0.235
-0.225
-0.23
-0.2
-0.21
-0.21
-0.205
-0.215
-0.24
-0.23
-0.205
-0.195
-0.175
-0.205
-0.24
-0.235
-0.24
-0.23
-0.23
-0.265
-0.255
-0.175
-0.135
-0.2
-0.215
-0.23
-0.23
-0.22
-0.205
-0.195
-0.235
-0.24
-0.205
-0.215
-0.23
-0.235
-0.265
-0.23
-0.205
-0.21
-0.235
-0.235
-0.175
-0.205
-0.255
-0.24
-0.25
-0.235
-0.245
-0.24
-0.24
-0.22
-0.21
-0.16
-0.215
-0.25
-0.24
-0.26
-0.245
-0.235
-0.235
-0.22
-0.23
-0.245
-0.205
-0.225
-0.24
-0.24
-0.245
-0.255
-0.225
-0.235
-0.235
-0.24
-0.23
-0.25
-0.23
-0.225
-0.24
-0.245
-0.255
-0.23
-0.2
-0.24
-0.26
-0.27
-0.24
-0.185
-0.19
-0.24
-0.235
-0.235
-0.215
-0.25
-0.23
-0.235
-0.235
-0.22
-0.25
-0.2
-0.2
-0.18
-0.2
-0.23
-0.225
-0.24
-0.22
-0.215
-0.23
-0.205
-0.215
-0.21
-0.21
-0.14
-0.12
-0.13
-0.145
-0.14
-0.155
-0.165
-0.17
-0.13
-0.13
-0.125
-0.16
-0.17
-0.155
-0.15
-0.165
-0.165
-0.18
-0.19
-0.17
-0.215
-0.23
-0.24
-0.22
-0.225
-0.235
-0.26
-0.25
-0.235
-0.23
-0.215
-0.24
-0.25
-0.24
-0.24
-0.245
-0.24
-0.25
-0.23
-0.22
-0.23
-0.245
-0.26
-0.265
-0.27
-0.27
-0.24
-0.235
-0.225
-0.235
-0.26
-0.255
-0.25
-0.26
-0.265
-0.26
-0.275
-0.24
-0.225
-0.195
-0.13
-0.02
0.05
0.195
0.42
0.475
0.555
0.65
0.705
0.705
0.535
0.325
0.155
0.02
-0.17
-0.39
-0.45
-0.415
-0.34
-0.32
-0.315
-0.295
-0.275
-0.25
-0.25
-0.225
-0.205
-0.185
-0.16
-0.19
-0.23
-0.235
-0.225
-0.23
-0.225
-0.215
-0.205
-0.21
-0.225
-0.2
-0.17
-0.21
-0.215
-0.205
-0.195
-0.22
-0.2
-0.195
-0.19
-0.18
-0.18
-0.19
-0.195
-0.2
-0.175
-0.195
-0.185
-0.15
-0.175
-0.165
-0.17
-0.185
-0.195
-0.19
-0.16
-0.16
-0.15
-0.145
-0.17
-0.175
-0.15
-0.13
-0.16
-0.155
-0.125
-0.105
-0.135
-0.125
-0.12
-0.095
-0.135
-0.15
-0.12
-0.11
-0.105
-0.1
-0.085
-0.08
-0.08
-0.095
-0.11
-0.09
-0.035
-0.07
-0.085
-0.075
-0.035
-0.03
-0.045
-0.045
-0.035
-0.04
-0.02
-0.01
-0.01
0.01
0.015
0.06
0.055
0.02
0.02
0.015
0.04
0.06
0.045
0.03
0.09
0.095
0.06
0.025
0.05
0.075
0.06
0.065
0.06
0.06
0.045
0.045
0.055
0.045
0.01
-0.005
-0.01
-0.005
-0.01
-0.02
-0.055
-0.08
-0.105
-0.07
-0.08
-0.12
-0.14
-0.145
-0.15
-0.14
-0.165
-0.135
-0.17
-0.195
-0.19
-0.195
-0.205
-0.205
-0.205
-0.205
-0.21
-0.19
-0.195
-0.22
-0.22
-0.235
-0.245
-0.265
-0.225
-0.145
-0.185
-0.195
-0.215
-0.225
-0.25
-0.215
-0.23
-0.23
-0.23
-0.215
-0.19
-0.195
-0.205
-0.235
-0.25
-0.22
-0.195
-0.21
-0.19
-0.24
-0.225
-0.205
-0.205
-0.225
-0.24
-0.23
-0.22
-0.195
-0.205
-0.21
-0.21
-0.23
-0.215
-0.225
-0.22
-0.215
-0.21
-0.22
-0.2
-0.195
-0.2
-0.21
-0.185
-0.2
-0.23
-0.21
-0.215
-0.22
-0.22
-0.23
-0.2
-0.195
-0.2
-0.215
-0.22
-0.205
-0.215
-0.24
-0.235
-0.215
-0.21
-0.185
-0.2
-0.185
-0.21
-0.21
-0.215
-0.235
-0.24
-0.22
-0.215
-0.205
-0.21
-0.225
-0.23
-0.235
-0.21
-0.16
-0.24
-0.24
-0.225
-0.205
-0.205
-0.225
-0.225
-0.21
-0.215
-0.21
-0.22
-0.245
-0.225
-0.185
-0.19
-0.235
-0.245
-0.195
-0.2
-0.235
-0.235
-0.215
-0.21
-0.195
-0.215
-0.255
-0.245
-0.255
-0.26
-0.235
-0.21
-0.215
-0.185
-0.225
-0.235
-0.235
-0.24
-0.225
-0.23
-0.275
-0.27
-0.24
-0.185
-0.205
-0.21
-0.225
-0.26
-0.24
-0.255
-0.22
-0.225
-0.235
-0.195
-0.205
-0.23
-0.245
-0.22
-0.21
-0.25
-0.245
-0.235
-0.2
-0.225
-0.245
-0.26
-0.25
-0.235
-0.24
-0.245
-0.235
-0.23
-0.23
-0.21
-0.225
-0.245
-0.235
-0.215
-0.26
-0.23
-0.25
-0.235
-0.205
-0.215
-0.24
-0.235
-0.255
-0.26
-0.24
-0.25
-0.195
-0.21
-0.225
-0.215
-0.235
-0.25
-0.25
-0.26
-0.2
-0.265
-0.235
-0.19
-0.205
-0.215
-0.245
-0.265
-0.24
-0.21
-0.24
-0.235
-0.235
-0.22
-0.23
-0.22
-0.215
-0.22
-0.225
-0.225
-0.2
-0.19
-0.16
-0.17
-0.205
-0.215
-0.205
-0.21
-0.205
-0.19
-0.165
-0.16
-0.15
-0.15
-0.11
-0.115
-0.14
-0.17
-0.17
-0.175
-0.155
-0.135
-0.12
-0.135
-0.12
-0.125
-0.15
-0.17
-0.175
-0.17
-0.19
-0.215
-0.22
-0.2
-0.21
-0.215
-0.235
-0.24
-0.25
-0.26
-0.235
-0.22
-0.22
-0.225
-0.26
-0.25
-0.235
-0.23
-0.25
-0.23
-0.215
-0.22
-0.25
-0.24
-0.235
-0.265
-0.26
-0.245
-0.26
-0.25
-0.255
-0.265
-0.24
-0.23
-0.23
-0.245
-0.27
-0.22
-0.215
-0.26
-0.285
-0.28
-0.235
-0.14
-0.04
0.065
0.185
0.32
0.485
0.565
0.63
0.695
0.71
0.565
0.385
0.205
0.04
-0.155
-0.35
-0.46
-0.455
-0.43
-0.34
-0.325
-0.32
-0.3
-0.285
-0.26
-0.235
-0.195
-0.18
-0.21
-0.22
-0.205
-0.17
-0.2
-0.225
-0.225
-0.235
-0.195
-0.205
-0.22
-0.21
-0.225
-0.21
-0.18
-0.195
-0.175
-0.2
-0.215
-0.175
-0.2
-0.205
-0.185
-0.155
-0.185
-0.205
-0.205
-0.185
-0.185
-0.17
-0.165
-0.165
-0.165
-0.17
-0.145
-0.125
-0.16
-0.195
-0.175
-0.16
-0.16
-0.155
-0.145
-0.145
-0.165
-0.155
-0.16
-0.15
-0.13
-0.14
-0.14
-0.145
-0.135
-0.11
-0.105
-0.13
-0.145
-0.12
-0.1
-0.095
-0.11
-0.055
-0.05
-0.09
-0.095
-0.07
-0.07
-0.075
-0.07
-0.045
-0.025
-0.06
-0.04
-0.04
-0.04
-0.015
-0.04
-0.03
0.04
0.03
0.02
0.035
0.04
0.05
0.03
0.02
0.025
0.045
0.07
0.05
0.06
0.055
0.085
0.07
0.035
0.03
0.05
0.045
0.085
0.05
0.06
0.055
0.015
0.005
0.035
-0.005
-0.01
-0.005
-0.04
-0.04
-0.05
-0.085
-0.1
-0.095
-0.105
-0.12
-0.125
-0.14
-0.15
-0.155
-0.17
-0.165
-0.165
-0.175
-0.17
-0.205
-0.205
-0.195
-0.18
-0.195
-0.2
-0.215
-0.225
-0.23
-0.205
-0.23
-0.22
-0.21
-0.215
-0.19
-0.205
-0.22
-0.215
-0.21
-0.24
-0.245
-0.22
-0.235
-0.24
-0.2
-0.19
-0.2
-0.185
-0.225
-0.235
-0.24
-0.23
-0.24
-0.23
-0.22
-0.18
-0.18
-0.205
-0.24
-0.23
-0.205
-0.215
-0.23
-0.21
-0.21
-0.215
-0.21
-0.2
-0.22
-0.205
-0.225
-0.225
-0.215
-0.2
-0.21
-0.22
-0.21
-0.21
-0.225
-0.24
-0.225
-0.205
-0.22
-0.225
-0.22
-0.185
-0.185
-0.215
-0.195
-0.2
-0.2
-0.23
-0.205
-0.215
-0.21
-0.2
-0.19
-0.185
-0.205
-0.23
-0.235
-0.225
-0.205
-0.21
-0.215
-0.215
-0.195
-0.21
-0.22
-0.245
-0.235
-0.195
-0.205
-0.24
-0.235
-0.235
-0.18
-0.2
-0.19
-0.215
-0.275
-0.255
-0.215
-0.21
-0.225
-0.22
-0.2
-0.21
-0.225
-0.24
-0.23
-0.22
-0.235
-0.22
-0.22
-0.205
-0.245
-0.275
-0.26
-0.17
-0.18
-0.245
-0.24
-0.235
-0.23
-0.215
-0.22
-0.245
-0.22
-0.21
-0.23
-0.23
-0.225
-0.22
-0.235
-0.23
-0.22
-0.22
-0.245
-0.245
-0.215
-0.24
-0.235
-0.21
-0.23
-0.21
-0.225
-0.25
-0.23
-0.26
-0.24
-0.235
-0.23
-0.235
-0.235
-0.195
-0.19
-0.22
-0.24
-0.26
-0.23
-0.23
-0.24
-0.235
-0.24
-0.24
-0.235
-0.21
-0.215
-0.23
-0.2
-0.205
-0.265
-0.26
-0.21
-0.22
-0.255
-0.245
-0.25
-0.25
-0.225
-0.225
-0.22
-0.215
-0.23
-0.235
-0.215
-0.23
-0.225
-0.235
-0.235
-0.23
-0.235
-0.215
-0.21
-0.235
-0.23
-0.21
-0.215
-0.23
-0.22
-0.23
-0.195
-0.205
-0.22
-0.205
-0.225
-0.205
-0.165
-0.155
-0.17
-0.195
-0.175
-0.18
-0.145
-0.125
-0.125
-0.15
-0.18
-0.165
-0.165
-0.185
-0.165
-0.14
-0.135
-0.115
-0.11
-0.165
-0.175
-0.19
-0.2
-0.185
-0.16
-0.225
-0.235
-0.215
-0.215
-0.205
-0.255
-0.245
-0.285
-0.29
-0.265
-0.195
-0.195
-0.22
-0.215
-0.225
-0.235
-0.26
-0.25
-0.215
-0.225
-0.24
-0.24
-0.25
-0.22
-0.245
-0.28
-0.28
-0.235
-0.22
-0.215
-0.21
-0.225
-0.205
-0.245
-0.22
-0.26
-0.285
-0.255
-0.29
-0.28
-0.235
-0.145
-0.045
0.075
0.175
0.295
0.43
0.515
0.595
0.685
0.685
0.5
0.34
0.18
0.0
-0.2
-0.335
-0.425
-0.435
-0.4
-0.365
-0.35
-0.365
-0.335
-0.345
-0.33
-0.25
-0.24
-0.235
-0.205
-0.175
-0.19
-0.2
-0.2
-0.2
-0.205
-0.245
-0.225
-0.215
-0.195
-0.205
-0.185
-0.21
-0.215
-0.2
-0.21
-0.165
-0.175
-0.205
-0.19
-0.185
-0.18
-0.185
-0.19
-0.185
-0.175
-0.17
-0.19
-0.215
-0.19
-0.18
-0.14
-0.12
-0.16
-0.165
-0.19
-0.18
-0.165
-0.15
-0.15
-0.155
-0.125
-0.125
-0.135
-0.135
-0.115
-0.15
-0.17
-0.145
-0.135
-0.13
-0.125
-0.125
-0.13
-0.1
-0.135
-0.095
-0.06
-0.09
-0.11
-0.085
-0.08
-0.05
-0.065
-0.065
-0.09
-0.085
-0.075
-0.04
-0.05
-0.03
-0.03
-0.01
-0.03
-0.045
0.005
-0.01
-0.015
0.01
0.025
0.025
0.04
0.045
0.035
0.03
0.05
0.055
0.055
0.065
0.055
0.045
0.08
0.08
0.065
0.05
0.04
0.05
0.065
0.085
0.035
0.015
0.04
0.04
-0.005
0.0
0.01
-0.025
-0.06
-0.06
-0.055
-0.045
-0.04
-0.085
-0.135
-0.155
-0.145
-0.14
-0.165
-0.165
-0.16
-0.165
-0.18
-0.2
-0.215
-0.25
-0.225
-0.2
-0.195
-0.2
-0.19
-0.195
-0.21
-0.21
-0.21
-0.25
-0.24
-0.245
-0.255
-0.235
-0.24
-0.23
-0.23
-0.25
-0.24
-0.255
-0.235
-0.205
-0.215
-0.225
-0.23
-0.225
-0.215
-0.24
-0.24
-0.245
-0.235
-0.24
-0.235
-0.25
-0.25
-0.225
-0.17
-0.22
-0.275
-0.27
-0.255
-0.225
-0.22
-0.25
-0.215
-0.195
-0.21
-0.22
-0.225
-0.23
-0.23
-0.225
-0.24
-0.21
-0.205
-0.22
-0.195
-0.22
-0.225
-0.24
-0.225
-0.215
-0.205
-0.215
-0.22
-0.2
-0.205
-0.215
-0.235
-0.23
-0.2
-0.225
-0.215
-0.225
-0.255
-0.2
-0.21
-0.18
-0.23
-0.255
-0.24
-0.24
-0.23
-0.23
-0.24
-0.22
-0.215
-0.225
-0.255
-0.255
-0.26
-0.195
-0.185
-0.245
-0.245
-0.215
-0.21
-0.225
-0.24
-0.235
-0.25
-0.245
-0.235
-0.24
-0.27
-0.245
-0.21
-0.24
-0.235
-0.235
-0.235
-0.255
-0.265
-0.225
-0.2
-0.21
-0.24
-0.265
-0.285
-0.27
-0.23
-0.225
-0.225
-0.245
-0.215
-0.215
-0.23
-0.255
-0.255
-0.26
-0.25
-0.23
-0.25
-0.25
-0.24
-0.245
-0.24
-0.265
-0.245
-0.205
-0.245
-0.235
-0.235
-0.195
-0.185
-0.225
-0.22
-0.235
-0.22
-0.235
-0.235
-0.24
-0.235
-0.245
-0.185
-0.2
-0.19
-0.205
-0.2
-0.17
-0.15
-0.12
-0.16
-0.175
-0.17
-0.155
-0.145
-0.145
-0.15
-0.165
-0.15
-0.16
-0.145
-0.15
-0.185
-0.18
-0.19
-0.18
-0.245
-0.24
-0.24
-0.225
-0.23
-0.26
-0.25
-0.24
-0.275
-0.285
-0.205
-0.19
-0.21
-0.26
-0.265
-0.255
-0.24
-0.235
-0.27
-0.26
-0.255
-0.26
-0.27
-0.26
-0.225
-0.22
-0.235
-0.22
-0.27
-0.28
-0.28
-0.25
-0.25
-0.255
-0.245
-0.225
-0.245
-0.265
-0.265
-0.27
-0.24
-0.14
-0.045
0.06
0.205
0.38
0.505
0.575
0.62
0.695
0.68
0.48
0.315
0.155
0.0
-0.185
-0.36
-0.44
-0.435
-0.42
-0.34
-0.325
-0.32
-0.315
-0.255
-0.235
-0.245
-0.22
-0.215
-0.225
-0.225
-0.225
-0.225
-0.205
-0.195
-0.215
-0.205
-0.2
-0.225
-0.195
-0.225
-0.23
-0.18
-0.145
-0.175
-0.175
-0.175
-0.185
-0.18
-0.205
-0.205
-0.205
-0.21
-0.185
-0.21
-0.155
-0.165
-0.17
-0.18
-0.18
-0.17
-0.185
-0.16
-0.16
-0.135
-0.125
-0.14
-0.155
-0.145
-0.17
-0.17
-0.15
-0.155
-0.155
-0.12
-0.125
-0.125
-0.095
-0.14
-0.145
-0.135
-0.145
-0.11
-0.1
-0.115
-0.1
-0.095
-0.09
-0.105
-0.13
-0.085
-0.1
-0.055
-0.025
-0.03
-0.03
-0.045
-0.03
-0.01
-0.015
-0.015
0.02
-0.02
-0.045
-0.005
0.03
0.02
0.035
0.05
0.03
0.04
0.045
0.06
0.065
0.09
0.095
0.065
0.065
0.075
0.075
0.075
0.1
0.1
0.07
0.085
0.085
0.08
0.07
0.045
0.03
0.025
0.025
0.01
-0.01
0.015
0.015
-0.015
-0.025
-0.05
-0.08
-0.085
-0.1
-0.09
-0.12
-0.14
-0.135
-0.125
-0.135
-0.19
-0.2
-0.18
-0.185
-0.195
-0.2
-0.17
-0.165
-0.16
-0.17
-0.23
-0.245
-0.21
-0.2
-0.225
-0.215
-0.185
-0.195
-0.195
-0.21
-0.22
-0.205
-0.195
-0.21
-0.235
-0.225
-0.2
-0.205
-0.21
-0.195
-0.23
-0.21
-0.22
-0.265
-0.21
-0.185
-0.22
-0.205
-0.195
-0.2
-0.22
-0.23
-0.215
-0.225
-0.22
-0.215
-0.21
-0.18
-0.22
-0.215
-0.235
-0.21
-0.22
-0.21
-0.2
-0.2
-0.205
-0.2
-0.205
-0.195
-0.225
-0.21
-0.205
-0.16
-0.175
-0.185
-0.185
-0.18
-0.19
-0.205
-0.215
-0.22
-0.21
-0.195
-0.175
-0.195
-0.185
-0.19
-0.22
-0.22
-0.205
-0.2
-0.205
-0.205
-0.215
-0.19
-0.185
-0.18
-0.195
-0.22
-0.235
-0.22
-0.21
-0.205
-0.22
-0.21
-0.2
-0.185
-0.19
-0.215
-0.23
-0.21
-0.235
-0.23
-0.205
-0.205
-0.195
-0.21
-0.225
-0.225
-0.22
-0.24
-0.245
-0.225
-0.215
-0.205
-0.155
-0.155
-0.185
-0.21
-0.215
-0.225
-0.215
-0.19
-0.2
-0.235
-0.22
-0.23
-0.225
-0.24
-0.235
-0.195
-0.225
-0.25
-0.22
-0.19
-0.2
-0.21
-0.21
-0.24
-0.21
-0.205
-0.235
-0.235
-0.21
-0.215
-0.215
-0.215
-0.215
-0.2
-0.23
-0.21
-0.235
-0.24
-0.235
-0.205
-0.205
-0.21
-0.225
-0.22
-0.19
-0.2
-0.195
-0.205
-0.185
-0.175
-0.165
-0.21
-0.215
-0.215
-0.19
-0.19
-0.2
-0.175
-0.16
-0.145
-0.12
-0.13
-0.13
-0.12
-0.115
-0.13
-0.13
-0.14
-0.145
-0.075
-0.07
-0.13
-0.17
-0.17
-0.18
-0.175
-0.175
-0.19
-0.205
-0.2
-0.205
-0.22
-0.19
-0.21
-0.23
-0.245
-0.25
-0.225
-0.22
-0.215
-0.215
-0.225
-0.215
-0.25
-0.255
-0.225
-0.225
-0.24
-0.22
-0.2
-0.2
-0.19
-0.215
-0.23
-0.245
-0.24
-0.25
-0.235
-0.21
-0.22
-0.22
-0.23
-0.25
-0.28
-0.245
-0.235
-0.225
-0.145
-0.045
0.075
0.19
0.335
0.45
0.53
0.615
0.69
0.725
0.63
0.435
0.285
0.14
-0.02
-0.295
-0.435
-0.44
-0.4
-0.335
-0.305
-0.3
-0.255
-0.24
-0.24
-0.225
-0.18
-0.14
-0.18
-0.18
-0.215
-0.205
-0.205
-0.18
-0.185
-0.185
-0.2
-0.21
-0.215
-0.22
-0.215
-0.18
-0.135
-0.175
-0.18
-0.185
-0.205
-0.18
-0.18
-0.15
-0.16
-0.175
-0.16
-0.16
-0.17
-0.195
-0.17
-0.15
-0.17
-0.15
-0.155
-0.165
-0.135
-0.13
-0.135
-0.165
-0.145
-0.15
-0.155
-0.15
-0.16
-0.14
-0.13
-0.13
-0.145
-0.135
-0.13
-0.115
-0.135
-0.145
-0.125
-0.1
-0.125
-0.125
-0.06
-0.075
-0.075
-0.095
-0.09
-0.07
-0.07
-0.06
-0.055
-0.065
-0.08
-0.065
-0.03
-0.05
-0.035
0.02
-0.005
-0.015
0.015
0.015
0.01
0.005
-0.005
0.01
0.045
0.045
0.035
0.05
0.07
0.05
0.065
0.085
0.085
0.08
0.065
0.08
0.09
0.1
0.08
0.065
0.055
0.045
0.045
0.045
0.06
0.05
0.065
0.035
0.03
0.0
-0.025
-0.045
-0.025
-0.055
-0.07
-0.095
-0.095
-0.09
-0.04
-0.06
-0.13
-0.17
-0.185
-0.165
-0.15
-0.155
-0.16
-0.18
-0.175
-0.19
-0.205
-0.22
-0.21
-0.19
-0.185
-0.215
-0.22
-0.19
-0.205
-0.225
-0.225
-0.23
-0.205
-0.205
-0.23
-0.195
-0.22
-0.2
-0.215
-0.23
-0.225
-0.225
-0.215
-0.215
-0.225
-0.225
-0.215
-0.195
-0.2
-0.23
-0.245
-0.24
-0.21
-0.18
-0.16
-0.225
-0.22
-0.215
-0.21
-0.195
-0.23
-0.24
-0.23
-0.205
-0.2
-0.22
-0.21
-0.21
-0.195
-0.165
-0.205
-0.205
-0.195
-0.215
-0.21
-0.195
-0.17
-0.195
-0.215
-0.23
-0.245
-0.215
-0.23
-0.205
-0.205
-0.205
-0.21
-0.185
-0.195
-0.2
-0.22
-0.2
-0.225
-0.235
-0.2
-0.19
-0.205
-0.185
-0.215
-0.225
-0.235
-0.23
-0.22
-0.205
-0.21
-0.205
-0.195
-0.2
-0.22
-0.215
-0.23
-0.215
-0.225
-0.22
-0.215
-0.225
-0.23
-0.21
-0.205
-0.18
-0.22
-0.235
-0.215
-0.215
-0.195
-0.215
-0.235
-0.235
-0.215
-0.225
-0.24
-0.225
-0.23
-0.25
-0.24
-0.235
-0.24
-0.24
-0.225
-0.22
-0.23
-0.235
-0.22
-0.22
-0.215
-0.23
-0.215
-0.225
-0.225
-0.2
-0.225
-0.245
-0.23
-0.245
-0.22
-0.185
-0.23
-0.245
-0.235
-0.235
-0.24
-0.22
-0.225
-0.23
-0.24
-0.235
-0.21
-0.205
-0.235
-0.235
-0.235
-0.23
-0.225
-0.24
-0.24
-0.235
-0.23
-0.23
-0.22
-0.27
-0.265
-0.205
-0.215
-0.23
-0.19
-0.21
-0.215
-0.21
-0.205
-0.22
-0.225
-0.2
-0.205
-0.21
-0.175
-0.175
-0.185
-0.195
-0.205
-0.2
-0.17
-0.16
-0.17
-0.155
-0.165
-0.13
-0.125
-0.125
-0.105
-0.115
-0.155
-0.145
-0.09
-0.09
-0.12
-0.145
-0.145
-0.185
-0.205
-0.225
-0.205
-0.23
-0.235
-0.215
-0.205
-0.24
-0.23
-0.23
-0.215
-0.255
-0.25
-0.23
-0.24
-0.25
-0.24
-0.235
-0.24
-0.21
-0.225
-0.265
-0.28
-0.22
-0.195
-0.18
-0.21
-0.22
-0.23
-0.23
-0.24
-0.25
-0.235
-0.235
-0.23
-0.255
-0.245
-0.25
-0.24
-0.255
-0.245
-0.2
-0.125
-0.035
0.08
0.26
0.395
0.5
0.58
0.65
0.725
0.715
0.535
0.385
0.22
0.025
-0.17
-0.375
-0.475
-0.435
-0.4
-0.345
-0.33
-0.315
-0.3
-0.26
-0.245
-0.2
-0.185
-0.175
-0.18
-0.21
-0.22
-0.235
-0.21
-0.21
-0.18
-0.195
-0.19
-0.2
-0.2
-0.24
-0.205
-0.195
-0.175
-0.155
-0.185
-0.19
-0.185
-0.175
-0.195
-0.2
-0.19
-0.19
-0.19
-0.185
-0.18
-0.15
-0.17
-0.17
-0.135
-0.175
-0.145
-0.145
-0.185
-0.16
-0.15
-0.14
-0.155
-0.155
-0.155
-0.16
-0.155
-0.15
-0.155
-0.14
-0.135
-0.13
-0.13
-0.125
-0.13
-0.13
-0.12
-0.115
-0.13
-0.11
-0.09
-0.095
-0.095
-0.12
-0.1
-0.095
-0.07
-0.05
-0.055
-0.08
-0.05
-0.05
-0.055
-0.045
-0.04
-0.03
-0.025
-0.02
-0.005
0.0
0.015
0.025
-0.01
0.025
0.01
0.055
0.065
0.05
0.055
0.055
0.065
0.07
0.07
0.065
0.065
0.055
0.09
0.06
0.045
0.085
0.08
0.09
0.065
0.06
0.06
0.045
0.035
0.01
-0.025
0.03
0.04
0.01
-0.035
-0.075
-0.085
-0.09
-0.08
-0.085
-0.08
-0.125
-0.135
-0.14
-0.15
-0.19
-0.17
-0.15
-0.185
-0.2
-0.19
-0.17
-0.15
-0.21
-0.21
-0.22
-0.22
-0.215
-0.215
-0.185
-0.205
-0.235
-0.195
-0.2
-0.2
-0.215
-0.215
-0.2
-0.2
-0.23
-0.225
-0.225
-0.215
-0.225
-0.225
-0.215
-0.21
-0.215
-0.2
-0.21
-0.23
-0.225
-0.205
-0.185
-0.19
-0.22
-0.23
-0.2
-0.2
-0.225
-0.2
-0.195
-0.17
-0.185
-0.21
-0.225
-0.23
-0.225
-0.22
-0.205
-0.2
-0.205
-0.195
-0.215
-0.235
-0.18
-0.165
-0.21
-0.195
-0.2
-0.2
-0.205
-0.205
-0.205
-0.185
-0.235
-0.225
-0.205
-0.22
-0.2
-0.195
-0.18
-0.195
-0.2
-0.225
-0.245
-0.225
-0.205
-0.215
-0.22
-0.175
-0.19
-0.2
-0.2
-0.19
-0.2
-0.22
-0.215
-0.195
-0.19
-0.2
-0.22
-0.205
-0.22
-0.21
-0.23
-0.215
-0.205
-0.215
-0.23
-0.22
-0.2
-0.2
-0.21
-0.185
-0.225
-0.245
-0.215
-0.22
-0.225
-0.215
-0.23
-0.225
-0.18
-0.17
-0.23
-0.235
-0.23
-0.205
-0.225
-0.235
-0.22
-0.2
-0.23
-0.235
-0.245
-0.225
-0.22
-0.25
-0.24
-0.23
-0.23
-0.22
-0.23
-0.23
-0.245
-0.215
-0.215
-0.215
-0.24
-0.27
-0.255
-0.155
-0.185
-0.24
-0.22
-0.215
-0.24
-0.225
-0.22
-0.245
-0.23
-0.215
-0.195
-0.195
-0.245
-0.22
-0.23
-0.24
-0.23
-0.205
-0.2
-0.22
-0.25
-0.23
-0.235
-0.215
-0.215
-0.23
-0.23
-0.225
-0.225
-0.22
-0.2
-0.225
-0.235
-0.215
-0.195
-0.2
-0.195
-0.195
-0.17
-0.2
-0.22
-0.22
-0.205
-0.205
-0.19
-0.15
-0.155
-0.15
-0.15
-0.14
-0.115
-0.15
-0.09
-0.13
-0.125
-0.135
-0.125
-0.125
-0.135
-0.145
-0.175
-0.175
-0.155
-0.185
-0.21
-0.22
-0.21
-0.205
-0.215
-0.225
-0.255
-0.235
-0.245
-0.25
-0.245
-0.225
-0.225
-0.195
-0.205
-0.21
-0.245
-0.245
-0.24
-0.24
-0.225
-0.195
-0.2
-0.225
-0.24
-0.26
-0.235
-0.22
-0.22
-0.255
-0.25
-0.24
-0.23
-0.24
-0.215
-0.21
-0.265
-0.26
-0.265
-0.24
-0.195
-0.105
0.025
0.14
0.3
0.475
0.55
0.61
0.715
0.705
0.585
0.395
0.25
0.095
-0.085
-0.26
-0.4
-0.465
-0.415
-0.37
-0.37
-0.345
-0.33
-0.295
-0.255
-0.255
-0.265
-0.185
-0.195
-0.205
-0.2
-0.22
-0.235
-0.16
-0.18
-0.21
-0.22
-0.185
-0.17
-0.18
-0.195
-0.17
-0.175
-0.17
-0.18
-0.19
-0.195
-0.205
-0.2
-0.19
-0.19
-0.185
-0.16
-0.15
-0.16
-0.14
-0.2
-0.225
-0.175
-0.16
-0.135
-0.16
-0.155
-0.145
-0.16
-0.155
-0.16
-0.145
-0.135
-0.15
-0.135
-0.15
-0.145
-0.11
-0.12
-0.155
-0.16
-0.13
-0.13
-0.13
-0.145
-0.125
-0.1
-0.09
-0.08
-0.095
-0.085
-0.085
-0.1
-0.085
-0.105
-0.05
-0.025
-0.04
-0.045
-0.075
-0.055
-0.04
-0.035
-0.025
-0.03
-0.015
-0.005
-0.005
0.005
0.005
-0.005
0.01
0.01
0.01
0.04
0.065
0.08
0.06
0.055
0.06
0.045
0.055
0.08
0.055
0.07
0.07
0.06
0.075
0.15
0.105
0.06
0.085
0.08
0.08
0.065
0.01
0.015
0.03
0.005
0.005
-0.015
-0.045
-0.07
-0.08
-0.09
-0.05
-0.08
-0.115
-0.15
-0.13
-0.145
-0.165
-0.165
-0.165
-0.17
-0.18
-0.175
-0.17
-0.195
-0.21
-0.215
-0.195
-0.195
-0.215
-0.22
-0.205
-0.21
-0.225
-0.22
-0.225
-0.225
-0.245
-0.25
-0.24
-0.22
-0.21
-0.185
-0.23
-0.22
-0.25
-0.22
-0.21
-0.215
-0.2
-0.185
-0.21
-0.22
-0.22
-0.21
-0.225
-0.245
-0.23
-0.24
-0.24
-0.21
-0.2
-0.205
-0.2
-0.215
-0.23
-0.195
-0.195
-0.22
-0.245
-0.24
-0.21
-0.205
-0.21
-0.215
-0.23
-0.23
-0.205
-0.215
-0.21
-0.205
-0.21
-0.205
-0.215
-0.24
-0.195
-0.2
-0.215
-0.195
-0.2
-0.205
-0.215
-0.205
-0.205
-0.2
-0.225
-0.23
-0.23
-0.245
-0.165
-0.17
-0.21
-0.2
-0.195
-0.215
-0.235
-0.24
-0.215
-0.235
-0.235
-0.235
-0.22
-0.175
-0.18
-0.2
-0.245
-0.24
-0.24
-0.225
-0.215
-0.235
-0.24
-0.245
-0.215
-0.24
-0.25
-0.225
-0.245
-0.26
-0.26
-0.215
-0.215
-0.165
-0.18
-0.23
-0.245
-0.24
-0.23
-0.24
-0.235
-0.245
-0.255
-0.225
-0.205
-0.22
-0.255
-0.235
-0.23
-0.245
-0.25
-0.245
-0.245
-0.235
-0.24
-0.23
-0.215
-0.22
-0.25
-0.26
-0.245
-0.225
-0.22
-0.23
-0.22
-0.21
-0.23
-0.235
-0.24
-0.21
-0.205
-0.21
-0.21
-0.24
-0.235
-0.21
-0.235
-0.195
-0.18
-0.17
-0.19
-0.185
-0.125
-0.145
-0.145
-0.145
-0.155
-0.14
-0.125
-0.16
-0.17
-0.165
-0.125
-0.16
-0.205
-0.21
-0.2
-0.2
-0.235
-0.235
-0.24
-0.24
-0.215
-0.235
-0.25
-0.255
-0.265
-0.25
-0.26
-0.245
-0.255
-0.255
-0.22
-0.24
-0.255
-0.28
-0.285
-0.28
-0.235
-0.235
-0.245
-0.23
-0.22
-0.25
-0.265
-0.265
-0.26
-0.235
-0.25
-0.265
-0.27
-0.24
-0.23
-0.285
-0.29
-0.29
-0.275
-0.275
-0.225
-0.1
0.04
0.16
0.3
0.42
0.51
0.565
0.67
0.715
0.535
0.355
0.195
0.06
-0.11
-0.305
-0.435
-0.485
-0.455
-0.385
-0.345
-0.32
-0.31
-0.3
-0.285
-0.27
-0.27
-0.26
-0.2
-0.16
-0.205
-0.23
-0.235
-0.235
-0.21
-0.205
-0.235
-0.24
-0.225
-0.23
-0.215
-0.19
-0.205
-0.215
-0.205
-0.18
-0.22
-0.22
-0.215
-0.215
-0.205
-0.205
-0.215
-0.13
-0.12
-0.2
-0.225
-0.22
-0.195
-0.195
-0.205
-0.19
-0.175
-0.17
-0.16
-0.17
-0.175
-0.185
-0.185
-0.19
-0.16
-0.17
-0.16
-0.15
-0.145
-0.145
-0.15
-0.155
-0.15
-0.15
-0.14
-0.135
-0.12
-0.09
-0.105
-0.115
-0.105
-0.125
-0.145
-0.125
-0.105
-0.075
-0.05
-0.05
-0.06
-0.09
-0.1
-0.08
-0.055
-0.02
-0.045
-0.005
-0.025
-0.02
-0.015
0.0
-0.005
0.06
0.025
-0.015
0.01
0.02
0.035
0.065
0.045
0.035
0.045
0.06
0.05
0.065
0.04
0.045
0.055
0.08
0.075
0.045
0.025
0.025
0.035
0.025
0.005
0.01
-0.015
0.005
0.0
-0.015
-0.065
-0.11
-0.115
-0.115
-0.13
-0.105
-0.15
-0.165
-0.155
-0.175
-0.12
-0.175
-0.215
-0.215
-0.2
-0.21
-0.23
-0.225
-0.21
-0.245
-0.235
-0.205
-0.225
-0.25
-0.275
-0.215
-0.165
-0.2
-0.245
-0.245
-0.26
-0.255
-0.25
-0.24
-0.255
-0.235
-0.22
-0.215
-0.225
-0.245
-0.235
-0.24
-0.225
-0.24
-0.26
-0.22
-0.195
-0.21
-0.245
-0.255
-0.25
-0.245
-0.24
-0.245
-0.26
-0.24
-0.19
-0.23
-0.255
-0.23
-0.24
-0.23
-0.23
-0.26
-0.23
-0.205
-0.185
-0.18
-0.235
-0.26
-0.255
-0.24
-0.215
-0.23
-0.24
-0.235
-0.19
-0.22
-0.245
-0.23
-0.23
-0.2
-0.225
-0.225
-0.23
-0.23
-0.21
-0.215
-0.23
-0.215
-0.255
-0.24
-0.21
-0.22
-0.205
-0.215
-0.205
-0.22
-0.24
-0.245
-0.235
-0.24
-0.215
-0.215
-0.235
-0.225
-0.21
-0.215
-0.24
-0.25
-0.24
-0.245
-0.24
-0.24
-0.245
-0.22
-0.22
-0.245
-0.255
-0.255
-0.245
-0.25
-0.235
-0.23
-0.235
-0.245
-0.23
-0.235
-0.255
-0.24
-0.23
-0.245
-0.25
-0.245
-0.245
-0.235
-0.235
-0.205
-0.24
-0.265
-0.25
-0.22
-0.225
-0.235
-0.245
-0.235
-0.24
-0.24
-0.265
-0.275
-0.26
-0.255
-0.255
-0.26
-0.225
-0.21
-0.19
-0.21
-0.25
-0.275
-0.265
-0.25
-0.23
-0.235
-0.245
-0.24
-0.23
-0.225
-0.21
-0.235
-0.215
-0.22
-0.23
-0.21
-0.22
-0.215
-0.16
-0.22
-0.235
-0.225
-0.185
-0.195
-0.18
-0.145
-0.135
-0.145
-0.135
-0.13
-0.12
-0.145
-0.13
-0.16
-0.155
-0.14
-0.145
-0.16
-0.19
-0.18
-0.195
-0.205
-0.22
-0.25
-0.25
-0.24
-0.23
-0.215
-0.25
-0.255
-0.245
-0.26
-0.245
-0.255
-0.255
-0.255
-0.23
-0.24
-0.24
-0.24
-0.26
-0.265
-0.255
-0.235
-0.225
-0.24
-0.24
-0.245
-0.25
-0.25
-0.24
-0.27
-0.255
-0.26
-0.27
-0.24
-0.26
-0.26
-0.245
-0.265
-0.265
-0.16
-0.07
-0.02
0.135
0.265
0.4
0.52
0.58
0.635
0.695
0.65
0.465
0.305
0.125
-0.01
-0.24
-0.39
-0.43
-0.415
-0.385
-0.33
-0.29
-0.29
-0.275
-0.22
-0.235
-0.205
-0.2
-0.215
-0.235
-0.235
-0.21
-0.22
-0.21
-0.22
-0.2
-0.17
-0.205
-0.22
-0.21
-0.22
-0.21
-0.22
-0.21
-0.2
-0.19
-0.14
-0.15
-0.205
-0.21
-0.195
-0.205
-0.195
-0.17
-0.185
-0.19
-0.17
-0.18
-0.175
-0.155
-0.22
-0.2
-0.165
-0.17
-0.165
-0.145
-0.145
-0.165
-0.17
-0.16
-0.17
-0.15
-0.115
-0.16
-0.16
-0.15
-0.13
-0.135
-0.14
-0.15
-0.15
-0.13
-0.13
-0.12
-0.12
-0.1
-0.105
-0.08
-0.095
-0.08
-0.06
-0.1
-0.1
-0.06
-0.065
-0.07
-0.045
-0.045
-0.055
-0.06
-0.03
-0.01
-0.015
-0.02
-0.005
0.005
0.005
0.005
0.03
0.005
0.035
0.025
0.035
0.07
0.06
0.06
0.07
0.065
0.105
0.075
0.04
0.04
0.07
0.065
0.075
0.075
0.06
0.05
0.035
0.025
0.025
0.035
0.02
-0.015
-0.03
-0.02
-0.045
-0.06
-0.08
-0.095
-0.11
-0.095
-0.09
-0.145
-0.14
-0.145
-0.155
-0.165
-0.165
-0.13
-0.14
-0.225
-0.205
-0.19
-0.21
-0.21
-0.19
-0.18
-0.225
-0.23
-0.205
-0.22
-0.22
-0.23
-0.225
-0.21
-0.205
-0.245
-0.25
-0.225
-0.22
-0.215
-0.21
-0.22
-0.205
-0.195
-0.2
-0.215
-0.215
-0.225
-0.21
-0.22
-0.21
-0.215
-0.205
-0.21
-0.21
-0.205
-0.225
-0.24
-0.235
-0.23
-0.195
-0.19
-0.215
-0.205
-0.205
-0.205
-0.225
-0.23
-0.2
-0.205
-0.205
-0.195
-0.21
-0.2
-0.225
-0.19
-0.225
-0.21
-0.2
-0.21
-0.19
-0.19
-0.215
-0.185
-0.19
-0.23
-0.23
-0.21
-0.215
-0.225
-0.21
-0.2
-0.2
-0.2
-0.215
-0.2
-0.21
-0.235
-0.215
-0.205
-0.215
-0.23
-0.195
-0.225
-0.215
-0.225
-0.165
-0.185
-0.21
-0.2
-0.215
-0.21
-0.195
-0.205
-0.215
-0.245
-0.21
-0.225
-0.245
-0.245
-0.2
-0.215
-0.215
-0.215
-0.22
-0.23
-0.25
-0.235
-0.22
-0.24
-0.23
-0.23
-0.21
-0.23
-0.22
-0.225
-0.245
-0.225
-0.24
-0.24
-0.225
-0.215
-0.21
-0.21
-0.25
-0.275
-0.27
-0.185
-0.2
-0.245
-0.245
-0.245
-0.225
-0.215
-0.2
-0.225
-0.235
-0.225
-0.235
-0.215
-0.23
-0.215
-0.21
-0.225
-0.245
-0.24
-0.26
-0.22
-0.24
-0.225
-0.225
-0.24
-0.2
-0.225
-0.24
-0.265
-0.27
-0.27
-0.235
-0.2
-0.205
-0.19
-0.17
-0.16
-0.2
-0.24
-0.235
-0.22
-0.2
-0.195
-0.21
-0.205
-0.195
-0.175
-0.17
-0.175
-0.175
-0.155
-0.1
-0.075
-0.125
-0.135
-0.11
-0.105
-0.12
-0.13
-0.15
-0.155
-0.105
-0.065
-0.135
-0.175
-0.18
-0.205
-0.21
-0.235
-0.24
-0.25
-0.24
-0.245
-0.24
-0.22
-0.235
-0.22
-0.24
-0.25
-0.24
-0.235
-0.23
-0.21
-0.23
-0.235
-0.23
-0.225
-0.245
-0.255
-0.26
-0.24
-0.23
-0.255
-0.235
-0.215
-0.22
-0.24
-0.24
-0.25
-0.255
-0.26
-0.27
-0.29
-0.27
-0.245
-0.195
-0.095
0.015
0.1
0.235
0.36
0.485
0.565
0.665
0.74
0.75
0.59
0.37
0.215
0.055
-0.135
-0.36
-0.46
-0.435
-0.385
-0.335
-0.315
-0.3
-0.29
-0.25
-0.24
-0.175
-0.19
-0.18
-0.175
-0.195
-0.2
-0.215
-0.23
-0.205
-0.21
-0.21
-0.21
-0.2
-0.205
-0.195
-0.205
-0.21
-0.2
-0.21
-0.2
-0.175
-0.17
-0.18
-0.16
-0.18
-0.17
-0.17
-0.15
-0.145
-0.15
-0.19
-0.16
-0.19
-0.175
-0.16
-0.16
-0.165
-0.165
-0.155
-0.165
-0.125
-0.135
-0.155
-0.13
-0.125
-0.145
-0.135
-0.165
-0.13
-0.11
-0.105
-0.13
-0.12
-0.105
-0.105
-0.105
-0.12
-0.095
-0.095
-0.09
-0.065
-0.105
-0.105
-0.085
-0.085
-0.07
-0.08
-0.075
-0.06
-0.055
-0.03
-0.03
-0.06
-0.04
0.025
0.01
0.0
-0.01
0.015
0.02
0.015
0.04
0.02
0.05
0.065
0.07
0.08
0.05
0.04
0.055
0.06
0.075
0.065
0.08
0.08
0.065
0.08
0.06
0.075
0.075
0.085
0.09
0.09
0.075
0.02
0.055
0.045
0.035
0.015
-0.005
-0.015
-0.02
-0.045
-0.04
-0.055
-0.095
-0.085
-0.12
-0.13
-0.135
-0.14
-0.15
-0.14
-0.14
-0.17
-0.17
-0.185
-0.21
-0.185
-0.2
-0.17
-0.155
-0.185
-0.175
-0.185
-0.22
-0.23
-0.225
-0.22
-0.225
-0.245
-0.225
-0.19
-0.2
-0.215
-0.22
-0.225
-0.205
-0.2
-0.22
-0.24
-0.22
-0.175
-0.185
-0.18
-0.23
-0.245
-0.25
-0.245
-0.2
-0.2
-0.195
-0.155
-0.175
-0.2
-0.21
-0.225
-0.185
-0.175
-0.22
-0.19
-0.2
-0.17
-0.2
-0.225
-0.22
-0.21
-0.205
-0.155
-0.165
-0.2
-0.2
-0.19
-0.195
-0.215
-0.215
-0.22
-0.2
-0.19
-0.195
-0.195
-0.185
-0.165
-0.19
-0.2
-0.2
-0.215
-0.22
-0.19
-0.2
-0.205
-0.2
-0.19
-0.195
-0.21
-0.23
-0.195
-0.22
-0.2
-0.17
-0.215
-0.17
-0.17
-0.18
-0.2
-0.21
-0.225
-0.24
-0.22
-0.17
-0.18
-0.21
-0.19
-0.165
-0.21
-0.19
-0.215
-0.225
-0.22
-0.215
-0.215
-0.215
-0.205
-0.215
-0.23
-0.22
-0.225
-0.175
-0.18
-0.2
-0.215
-0.23
-0.215
-0.21
-0.225
-0.225
-0.21
-0.21
-0.21
-0.2
-0.205
-0.21
-0.205
-0.21
-0.235
-0.25
-0.195
-0.21
-0.23
-0.205
-0.215
-0.2
-0.195
-0.19
-0.19
-0.23
-0.235
-0.22
-0.23
-0.225
-0.215
-0.21
-0.215
-0.23
-0.235
-0.205
-0.2
-0.19
-0.18
-0.175
-0.23
-0.24
-0.21
-0.21
-0.215
-0.205
-0.215
-0.225
-0.225
-0.205
-0.19
-0.195
-0.225
-0.225
-0.23
-0.195
-0.22
-0.23
-0.225
-0.205
-0.17
-0.155
-0.2
-0.16
-0.215
-0.2
-0.185
-0.185
-0.165
-0.18
-0.195
-0.17
-0.155
-0.15
-0.165
-0.15
-0.105
-0.115
-0.12
-0.115
-0.13
-0.14
-0.125
-0.115
-0.105
-0.12
-0.105
-0.125
-0.095
-0.125
-0.13
-0.155
-0.165
-0.19
-0.215
-0.215
-0.185
-0.22
-0.24
-0.2
-0.215
-0.205
-0.205
-0.205
-0.2
-0.24
-0.235
-0.225
-0.215
-0.23
-0.21
-0.185
-0.2
-0.205
-0.22
-0.175
-0.195
-0.24
-0.21
-0.185
-0.22
-0.225
-0.205
-0.235
-0.24
-0.215
-0.2
-0.18
-0.24
-0.24
-0.215
-0.215
-0.225
-0.15
-0.05
0.085
0.19
0.34
0.49
0.56
0.655
0.74
0.765
0.585
0.41
0.265
0.08
-0.095
-0.27
-0.41
-0.42
-0.36
-0.335
-0.33
-0.3
-0.315
-0.305
-0.265
-0.22
-0.215
-0.18
-0.16
-0.17
-0.19
-0.2
-0.18
-0.175
-0.15
-0.21
-0.205
-0.175
-0.14
-0.14
-0.125
-0.16
-0.19
-0.18
-0.175
-0.175
-0.17
-0.135
-0.14
-0.14
-0.18
-0.18
-0.155
-0.14
-0.14
-0.17
-0.175
-0.145
-0.135
-0.13
-0.15
-0.17
-0.18
-0.13
-0.13
-0.145
-0.15
-0.11
-0.11
-0.14
-0.11
-0.115
-0.11
-0.11
-0.105
-0.095
-0.1
-0.08
-0.1
-0.075
-0.11
-0.085
-0.065
-0.095
-0.065
-0.065
-0.06
-0.045
-0.06
-0.095
-0.055
-0.025
-0.04
-0.015
-0.03
-0.02
-0.045
-0.03
-0.015
-0.01
-0.025
0.035
0.025
0.03
0.03
0.02
0.035
0.045
0.05
0.07
0.04
0.055
0.07
0.055
0.045
0.09
0.11
0.11
0.115
0.1
0.1
0.095
0.105
0.105
0.1
0.115
0.085
0.08
0.07
0.065
0.055
0.08
0.065
0.055
0.025
0.005
-0.005
-0.005
-0.02
-0.06
-0.06
-0.08
-0.1
-0.065
-0.085
-0.125
-0.11
-0.115
-0.14
-0.165
-0.175
-0.155
-0.185
-0.165
-0.135
-0.165
-0.185
-0.18
-0.17
-0.17
-0.205
-0.205
-0.2
-0.205
-0.215
-0.205
-0.17
-0.195
-0.215
-0.23
-0.22
-0.195
-0.2
-0.185
-0.19
-0.2
-0.205
-0.225
-0.235
-0.185
-0.18
-0.225
-0.2
-0.195
-0.205
-0.19
-0.185
-0.195
-0.195
-0.165
-0.21
-0.195
-0.215
-0.21
-0.21
-0.215
-0.17
-0.175
-0.175
-0.21
-0.21
-0.185
-0.2
-0.205
-0.195
-0.175
-0.175
-0.215
-0.19
-0.135
-0.18
-0.2
-0.185
-0.2
-0.195
-0.205
-0.17
-0.175
-0.185
-0.19
-0.2
-0.205
-0.2
-0.2
-0.205
-0.2
-0.18
-0.18
-0.185
-0.195
-0.225
-0.195
-0.17
-0.2
-0.16
-0.175
-0.175
-0.195
-0.19
-0.2
-0.205
-0.205
-0.205
-0.195
-0.19
-0.205
-0.2
-0.195
-0.205
-0.22
-0.185
-0.195
-0.215
-0.205
-0.205
-0.19
-0.195
-0.18
-0.2
-0.22
-0.23
-0.215
-0.2
-0.195
-0.215
-0.21
-0.21
-0.2
-0.21
-0.22
-0.23
-0.21
-0.205
-0.215
-0.225
-0.21
-0.165
-0.18
-0.21
-0.24
-0.205
-0.205
-0.235
-0.2
-0.21
-0.215
-0.22
-0.235
-0.205
-0.16
-0.18
-0.155
-0.2
-0.18
-0.18
-0.185
-0.195
-0.2
-0.21
-0.21
-0.185
-0.14
-0.12
-0.105
-0.135
-0.15
-0.145
-0.125
-0.105
-0.105
-0.12
-0.125
-0.1
-0.085
-0.09
-0.095
-0.075
-0.105
-0.11
-0.145
-0.14
-0.16
-0.18
-0.195
-0.19
-0.19
-0.19
-0.21
-0.22
-0.22
-0.21
-0.195
-0.2
-0.195
-0.185
-0.195
-0.215
-0.23
-0.225
-0.23
-0.22
-0.205
-0.205
-0.2
-0.205
-0.19
-0.2
-0.215
-0.235
-0.205
-0.215
-0.195
-0.19
-0.2
-0.215
-0.225
-0.225
-0.225
-0.23
-0.26
-0.255
-0.225
-0.185
-0.105
0.015
0.125
0.335
0.51
0.56
0.62
0.725
0.76
0.675
0.475
0.315
0.17
0.0
-0.195
-0.365
-0.415
-0.375
-0.345
-0.3
-0.27
-0.25
-0.25
-0.255
-0.25
-0.2
-0.195
-0.185
-0.19
-0.18
-0.2
-0.18
-0.155
-0.155
-0.165
-0.185
-0.155
-0.145
-0.145
-0.155
-0.18
-0.17
-0.155
-0.18
-0.17
-0.17
-0.155
-0.205
-0.195
-0.15
-0.14
-0.125
-0.155
-0.145
-0.135
-0.145
-0.125
-0.12
-0.125
-0.145
-0.13
-0.12
-0.115
-0.145
-0.14
-0.145
-0.145
-0.14
-0.105
-0.1
-0.085
-0.095
-0.1
-0.095
-0.085
-0.135
-0.125
-0.115
-0.09
-0.075
-0.085
-0.065
-0.045
-0.06
-0.11
-0.07
-0.07
-0.045
-0.05
-0.03
-0.015
-0.02
-0.05
-0.035
-0.025
-0.02
0.005
-0.015
0.015
0.04
0.015
0.03
0.045
0.035
0.04
0.03
0.05
0.06
0.075
0.08
0.075
0.09
0.115
0.095
0.09
0.095
0.105
0.1
0.115
0.12
0.115
0.135
0.11
0.135
0.105
0.09
0.08
0.085
0.07
0.055
0.045
0.06
0.06
0.03
0.0
0.005
-0.025
-0.05
-0.07
-0.09
-0.075
-0.065
-0.07
-0.105
-0.13
-0.12
-0.115
-0.175
-0.175
-0.155
-0.14
-0.13
-0.155
-0.155
-0.17
-0.165
-0.165
-0.18
-0.17
-0.175
-0.175
-0.17
-0.185
-0.2
-0.18
-0.17
-0.165
-0.205
-0.205
-0.175
-0.19
-0.16
-0.165
-0.2
-0.21
-0.21
-0.185
-0.15
-0.155
-0.195
-0.195
-0.18
-0.185
-0.19
-0.2
-0.2
-0.185
-0.165
-0.18
-0.15
-0.14
-0.18
-0.175
-0.18
-0.215
-0.17
-0.135
-0.165
-0.155
-0.16
-0.165
-0.155
-0.16
-0.17
-0.185
-0.175
-0.15
-0.135
-0.155
-0.15
-0.145
-0.155
-0.15
-0.15
-0.185
-0.18
-0.16
-0.18
-0.17
-0.17
-0.17
-0.115
-0.155
-0.165
-0.165
-0.16
-0.18
-0.17
-0.165
-0.195
-0.14
-0.115
-0.175
-0.155
-0.16
-0.16
-0.145
-0.15
-0.14
-0.17
-0.175
-0.145
-0.15
-0.15
-0.16
-0.18
-0.175
-0.175
-0.17
-0.15
-0.165
-0.17
-0.18
-0.195
-0.185
-0.195
-0.185
-0.17
-0.175
-0.175
-0.15
-0.17
-0.16
-0.18
-0.19
-0.165
-0.175
-0.165
-0.175
-0.19
-0.165
-0.18
-0.19
-0.2
-0.2
-0.2
-0.2
-0.195
-0.175
-0.16
-0.155
-0.175
-0.155
-0.16
-0.235
-0.195
-0.19
-0.16
-0.165
-0.165
-0.165
-0.16
-0.14
-0.18
-0.195
-0.185
-0.155
-0.16
-0.175
-0.175
-0.16
-0.18
-0.2
-0.2
-0.175
-0.19
-0.19
-0.185
-0.175
-0.17
-0.165
-0.185
-0.175
-0.185
-0.175
-0.175
-0.165
-0.18
-0.155
-0.135
-0.145
-0.155
-0.145
-0.11
-0.17
-0.165
-0.125
-0.11
-0.115
-0.12
-0.11
-0.11
-0.06
-0.1
-0.085
-0.115
-0.12
-0.095
-0.105
-0.065
-0.055
-0.085
-0.1
-0.055
-0.065
-0.09
-0.14
-0.155
-0.14
-0.12
-0.125
-0.16
-0.16
-0.2
-0.21
-0.165
-0.16
-0.175
-0.185
-0.185
-0.175
-0.185
-0.205
-0.205
-0.2
-0.2
-0.185
-0.2
-0.19
-0.16
-0.175
-0.18
-0.205
-0.19
-0.185
-0.2
-0.195
-0.195
-0.195
-0.175
-0.15
-0.185
-0.18
-0.16
-0.15
-0.165
-0.19
-0.25
-0.195
-0.12
-0.005
0.125
0.255
0.36
0.495
0.62
0.685
0.735
0.795
0.7
0.52
0.335
0.145
-0.015
-0.21
-0.365
-0.42
-0.355
-0.265
-0.245
-0.24
-0.235
-0.22
-0.195
-0.18
-0.17
-0.155
-0.16
-0.145
-0.105
-0.135
-0.135
-0.16
-0.18
-0.18
-0.145
-0.135
-0.135
-0.125
-0.14
-0.12
-0.14
-0.17
-0.165
-0.15
-0.13
-0.135
-0.12
-0.09
-0.105
-0.115
-0.11
-0.125
-0.18
-0.15
-0.105
-0.125
-0.11
-0.105
-0.095
-0.11
-0.12
-0.13
-0.105
-0.12
-0.115
-0.11
-0.085
-0.095
-0.11
-0.085
-0.09
-0.105
-0.095
-0.07
-0.085
-0.085
-0.075
-0.08
-0.045
0.015
-0.075
-0.08
-0.065
-0.06
-0.045
-0.045
-0.045
-0.035
-0.015
-0.015
0.01
-0.02
0.015
-0.01
-0.02
0.015
0.035
0.025
0.04
0.075
0.065
0.05
0.045
0.03
0.05
0.06
0.075
0.095
0.105
0.08
0.075
0.085
0.09
0.115
0.135
0.12
0.125
0.125
0.135
0.125
0.12
0.105
0.095
0.145
0.135
0.11
0.11
0.105
0.095
0.08
0.055
0.045
0.045
0.05
0.01
0.005
0.005
-0.005
-0.035
-0.065
-0.05
-0.03
-0.085
-0.1
-0.07
-0.095
-0.135
-0.115
-0.08
-0.125
-0.16
-0.16
-0.125
-0.125
-0.13
-0.155
-0.14
-0.12
-0.17
-0.19
-0.17
-0.165
-0.18
-0.165
-0.165
-0.165
-0.17
-0.18
-0.17
-0.155
-0.165
-0.165
-0.165
-0.155
-0.155
-0.165
-0.16
-0.155
-0.15
-0.15
-0.18
-0.175
-0.17
-0.165
-0.16
-0.17
-0.18
-0.1
-0.14
-0.19
-0.19
-0.17
-0.18
-0.16
-0.15
-0.175
-0.175
-0.135
-0.155
-0.155
-0.165
-0.16
-0.15
-0.17
-0.145
-0.16
-0.155
-0.145
-0.14
-0.16
-0.17
-0.155
-0.15
-0.145
-0.175
-0.16
-0.17
-0.16
-0.175
-0.145
-0.165
-0.185
-0.17
-0.14
-0.155
-0.145
-0.135
-0.15
-0.155
-0.16
-0.19
-0.15
-0.17
-0.17
-0.165
-0.16
-0.15
-0.16
-0.15
-0.15
-0.16
-0.17
-0.18
-0.18
-0.195
-0.18
-0.15
-0.15
-0.17
-0.18
-0.205
-0.19
-0.15
-0.18
-0.185
-0.145
-0.13
-0.16
-0.18
-0.195
-0.2
-0.175
-0.165
-0.165
-0.175
-0.19
-0.17
-0.18
-0.175
-0.185
-0.195
-0.185
-0.155
-0.175
-0.15
-0.16
-0.185
-0.155
-0.17
-0.2
-0.205
-0.205
-0.19
-0.195
-0.165
-0.165
-0.165
-0.185
-0.2
-0.205
-0.21
-0.18
-0.185
-0.19
-0.185
-0.165
-0.165
-0.18
-0.17
-0.2
-0.22
-0.2
-0.19
-0.19
-0.17
-0.19
-0.18
-0.185
-0.175
-0.205
-0.235
-0.21
-0.12
-0.155
-0.2
-0.185
-0.19
-0.185
-0.195
-0.185
-0.18
-0.175
-0.195
-0.19
-0.19
-0.21
-0.16
-0.13
-0.165
-0.2
-0.165
-0.16
-0.145
-0.16
-0.165
-0.155
-0.15
-0.155
-0.145
-0.14
-0.125
-0.145
-0.14
-0.12
-0.105
-0.055
-0.08
-0.125
-0.135
-0.115
-0.125
-0.115
-0.1
-0.09
-0.08
-0.07
-0.1
-0.11
-0.125
-0.13
-0.115
-0.14
-0.15
-0.17
-0.18
-0.185
-0.185
-0.155
-0.185
-0.21
-0.2
-0.205
-0.195
-0.19
-0.18
-0.18
-0.185
-0.19
-0.21
-0.235
-0.235
-0.16
-0.155
-0.14
-0.17
-0.21
-0.225
-0.21
-0.19
-0.21
-0.205
-0.21
-0.22
-0.215
-0.205
-0.165
-0.18
-0.21
-0.215
-0.215
-0.22
-0.235
-0.23
-0.185
-0.12
-0.005
0.125
0.245
0.36
0.48
0.585
0.675
0.75
0.79
0.66
0.485
0.295
0.095
-0.075
-0.315
-0.435
-0.43
-0.36
-0.305
-0.28
-0.27
-0.255
-0.23
-0.215
-0.225
-0.165
-0.08
-0.155
-0.19
-0.155
-0.14
-0.175
-0.2
-0.165
-0.175
-0.155
-0.175
-0.17
-0.165
-0.155
-0.13
-0.155
-0.17
-0.18
-0.165
-0.15
-0.125
-0.115
-0.13
-0.155
-0.17
-0.145
-0.165
-0.16
-0.14
-0.15
-0.15
-0.14
-0.125
-0.12
-0.13
-0.13
-0.115
-0.12
-0.125
-0.125
-0.12
-0.125
-0.1
-0.11
-0.09
-0.085
-0.1
-0.12
-0.115
-0.08
-0.07
-0.07
-0.085
-0.08
-0.09
-0.085
-0.06
-0.045
-0.03
-0.085
-0.06
-0.045
-0.065
-0.04
-0.04
-0.025
-0.02
-0.04
-0.025
0.015
-0.005
-0.025
0.0
0.045
0.055
0.03
0.03
0.025
0.03
0.05
0.05
0.08
0.09
0.09
0.095
0.08
0.065
0.08
0.105
0.095
0.085
0.135
0.135
0.105
0.09
0.105
0.095
0.09
0.09
0.08
