# TIPE ECG 2021 - ECG-ID Database v1.0.0 par Physionet
# [Numéro de la personne, Période d'échantillonnage, Prénom, Age, Sexe, Date de l'enregistrement]
[46, 0.002, Herman, 21, H, 20.05.2005]
-0.04
-0.025
-0.045
-0.03
-0.015
-0.035
-0.03
-0.025
-0.04
-0.035
-0.03
-0.015
-0.07
-0.055
0.02
0.05
0.04
-0.095
-0.07
-0.09
-0.035
-0.02
0.0
-0.035
-0.055
-0.045
-0.05
-0.03
-0.04
-0.025
-0.055
-0.04
-0.08
-0.065
-0.025
-0.03
-0.075
-0.065
-0.025
-0.045
-0.05
-0.045
-0.07
-0.055
-0.005
-0.075
-0.07
-0.05
-0.085
-0.08
-0.055
-0.05
-0.06
-0.045
-0.075
-0.03
-0.04
-0.08
-0.065
-0.06
-0.035
-0.085
-0.05
-0.06
-0.06
-0.04
-0.07
-0.04
-0.08
-0.065
-0.055
-0.065
-0.075
-0.07
-0.055
-0.06
-0.055
-0.075
-0.055
-0.055
-0.025
-0.06
-0.085
-0.02
-0.06
-0.07
-0.115
-0.045
-0.045
-0.06
-0.02
-0.01
-0.03
-0.035
0.0
-0.015
-0.04
-0.03
0.0
0.04
0.03
0.03
0.02
0.0
-0.015
-0.02
-0.055
-0.055
-0.065
-0.08
-0.095
-0.09
-0.06
-0.06
-0.055
-0.115
-0.105
-0.095
-0.11
-0.06
-0.085
-0.11
-0.075
-0.08
-0.07
-0.085
-0.095
-0.105
-0.065
-0.07
-0.085
-0.105
-0.1
-0.045
-0.05
-0.065
-0.115
-0.095
-0.085
-0.115
-0.09
-0.08
-0.105
-0.145
-0.13
-0.07
-0.095
-0.005
0.135
0.18
0.245
0.3
0.365
0.33
0.42
0.435
0.305
0.115
0.055
-0.045
-0.13
-0.245
-0.295
-0.23
-0.175
-0.1
-0.15
-0.165
-0.155
-0.075
-0.08
-0.045
-0.06
-0.065
-0.085
-0.055
-0.08
-0.07
-0.05
-0.08
-0.08
-0.1
-0.095
-0.095
-0.085
-0.065
-0.07
-0.05
-0.1
-0.045
-0.07
-0.08
-0.09
-0.085
-0.06
-0.07
-0.085
-0.04
-0.075
-0.055
-0.03
-0.04
-0.035
-0.07
-0.07
-0.06
-0.01
-0.025
-0.03
-0.045
-0.07
-0.06
-0.02
-0.065
-0.075
-0.03
-0.025
-0.04
-0.055
-0.06
-0.01
0.005
-0.005
-0.045
-0.035
-0.03
-0.04
-0.025
-0.015
0.01
0.02
0.0
0.005
-0.01
0.075
0.035
0.03
0.025
0.04
0.06
0.025
0.045
0.015
0.05
0.08
0.095
0.075
0.065
0.09
0.08
0.085
0.09
0.08
0.11
0.135
0.12
0.115
0.145
0.1
0.075
0.105
0.12
0.115
0.135
0.09
0.055
0.055
0.095
0.115
0.085
0.025
0.085
0.07
0.035
-0.01
-0.015
-0.01
-0.01
-0.035
-0.025
-0.045
-0.085
-0.03
-0.055
-0.08
-0.09
-0.08
-0.075
-0.08
-0.075
-0.08
-0.075
-0.06
-0.11
-0.13
-0.1
-0.095
-0.09
-0.1
-0.1
-0.085
-0.115
-0.08
-0.09
-0.11
-0.115
-0.075
-0.125
-0.12
-0.105
-0.135
-0.085
-0.1
-0.105
-0.11
-0.1
-0.09
-0.14
-0.125
-0.12
-0.095
-0.11
-0.065
-0.09
-0.115
-0.075
-0.065
-0.135
-0.11
-0.115
-0.105
-0.09
-0.085
-0.1
-0.06
-0.035
-0.13
-0.115
-0.105
-0.115
-0.135
-0.11
-0.075
-0.07
-0.105
-0.125
-0.105
-0.13
-0.12
-0.07
-0.045
-0.12
-0.11
-0.095
-0.11
-0.115
-0.11
-0.11
-0.055
-0.125
-0.125
-0.12
-0.085
-0.09
-0.05
-0.11
-0.085
-0.065
-0.11
-0.14
-0.115
-0.08
-0.12
-0.06
-0.11
-0.09
-0.09
-0.1
-0.105
-0.11
-0.135
-0.17
-0.095
-0.085
-0.09
-0.105
-0.105
-0.1
-0.095
-0.115
-0.115
-0.09
-0.09
-0.065
-0.045
-0.085
-0.065
-0.06
-0.1
-0.12
-0.07
-0.055
-0.095
-0.12
-0.09
-0.045
-0.06
-0.035
-0.005
-0.085
-0.115
-0.125
-0.065
-0.025
-0.06
0.005
-0.005
-0.015
-0.02
0.025
-0.015
-0.045
-0.045
-0.08
-0.07
-0.085
-0.1
-0.075
-0.06
-0.085
-0.14
-0.09
-0.065
-0.12
-0.125
-0.125
-0.12
-0.07
-0.06
-0.145
-0.12
-0.11
-0.09
-0.075
-0.08
-0.105
-0.095
-0.095
-0.09
-0.085
-0.09
-0.085
-0.08
-0.135
-0.105
-0.11
-0.07
-0.085
-0.095
-0.075
-0.095
-0.095
-0.04
-0.03
-0.005
0.09
0.2
0.205
0.32
0.375
0.445
0.505
0.52
0.445
0.27
0.17
0.06
-0.06
-0.165
-0.26
-0.27
-0.235
-0.195
-0.16
-0.195
-0.16
-0.115
-0.14
-0.115
-0.06
-0.045
-0.05
-0.025
-0.07
-0.05
-0.085
-0.08
-0.02
-0.045
-0.025
-0.025
-0.05
-0.075
-0.115
-0.005
-0.015
-0.025
-0.055
-0.05
-0.035
-0.045
-0.015
-0.03
-0.01
0.025
-0.045
-0.035
0.005
0.03
0.0
-0.035
-0.05
-0.065
-0.03
-0.02
0.015
0.04
0.03
0.035
0.0
-0.005
-0.01
0.01
0.0
-0.005
-0.045
0.0
0.02
0.01
0.035
0.06
0.06
0.005
0.015
0.05
0.11
0.055
0.06
0.09
0.06
0.085
0.095
0.05
0.06
0.11
0.11
0.11
0.115
0.095
0.125
0.09
0.15
0.16
0.13
0.155
0.145
0.185
0.155
0.22
0.15
0.17
0.2
0.165
0.19
0.2
0.165
0.175
0.18
0.195
0.19
0.18
0.17
0.185
0.175
0.165
0.155
0.19
0.17
0.11
0.145
0.145
0.13
0.095
-0.015
0.035
0.045
0.0
0.035
0.0
0.02
0.03
0.0
-0.03
0.025
-0.02
0.015
-0.035
-0.065
-0.075
-0.055
-0.015
-0.035
-0.03
-0.035
-0.05
-0.045
-0.045
-0.035
-0.05
-0.025
-0.03
-0.01
-0.055
-0.06
-0.075
-0.045
-0.07
-0.045
-0.04
-0.035
-0.055
0.0
-0.02
-0.07
-0.045
-0.02
-0.02
-0.02
-0.02
-0.025
-0.02
-0.07
-0.065
-0.075
-0.1
-0.03
0.02
0.0
0.01
-0.03
-0.055
-0.025
0.005
0.0
-0.04
-0.04
-0.03
-0.03
-0.015
0.01
-0.035
-0.05
-0.04
0.015
0.0
0.015
-0.03
-0.045
-0.035
-0.04
0.0
-0.015
-0.07
-0.05
-0.01
-0.04
-0.02
-0.04
-0.045
-0.05
-0.03
-0.05
-0.02
0.005
-0.045
0.015
-0.03
-0.03
-0.09
-0.055
-0.035
0.005
-0.03
-0.025
-0.005
0.01
-0.055
-0.05
-0.005
-0.035
-0.03
-0.015
-0.015
-0.04
-0.02
0.005
-0.01
-0.03
-0.055
-0.015
0.005
-0.04
0.015
-0.04
-0.005
0.02
0.01
-0.015
-0.005
-0.015
0.02
0.025
0.025
-0.02
0.015
0.045
0.08
0.06
0.035
0.05
0.05
0.03
-0.02
0.02
-0.045
-0.04
-0.04
-0.02
-0.04
-0.04
-0.04
-0.065
-0.05
-0.035
-0.05
-0.03
-0.015
-0.035
-0.03
-0.025
-0.025
-0.045
-0.065
-0.06
-0.065
-0.08
-0.06
-0.06
-0.06
-0.08
-0.015
-0.005
-0.045
-0.025
-0.065
-0.02
-0.005
-0.04
-0.065
-0.035
0.0
-0.05
0.035
0.095
0.15
0.275
0.37
0.435
0.46
0.515
0.575
0.495
0.335
0.24
0.14
-0.025
-0.12
-0.23
-0.28
-0.22
-0.16
-0.135
-0.14
-0.05
-0.075
-0.075
-0.085
-0.06
-0.025
-0.005
-0.025
-0.035
-0.045
0.02
0.05
0.0
-0.06
-0.05
-0.03
-0.035
0.0
0.005
-0.015
0.015
0.0
0.01
-0.005
-0.055
0.005
0.035
-0.04
-0.015
-0.005
0.02
-0.005
0.01
0.0
0.015
0.015
0.02
0.055
-0.01
0.055
0.04
0.03
0.045
0.02
-0.02
0.035
0.03
0.01
0.0
-0.005
0.015
0.045
0.075
0.08
0.06
0.075
0.045
0.045
0.06
0.06
0.025
0.055
0.095
0.08
0.075
0.085
0.095
0.115
0.13
0.115
0.125
0.135
0.135
0.13
0.125
0.115
0.18
0.165
0.165
0.16
0.17
0.14
0.175
0.26
0.195
0.155
0.185
0.165
0.185
0.19
0.19
0.215
0.205
0.185
0.18
0.18
0.185
0.225
0.185
0.17
0.13
0.135
0.16
0.175
0.14
0.105
0.11
0.095
0.085
0.05
0.05
0.05
0.055
0.035
0.025
0.01
0.0
0.005
-0.015
-0.015
-0.025
-0.02
-0.01
-0.065
-0.03
-0.01
-0.005
-0.025
-0.01
-0.015
-0.01
-0.03
-0.065
-0.025
-0.025
-0.02
-0.005
0.0
-0.035
-0.05
-0.05
-0.025
0.01
-0.035
-0.015
-0.015
-0.03
-0.035
-0.04
-0.01
-0.06
-0.045
-0.015
-0.035
-0.035
-0.01
-0.005
-0.005
-0.03
-0.03
-0.005
-0.005
-0.04
-0.03
-0.04
-0.025
-0.025
-0.045
-0.06
-0.03
0.01
-0.025
-0.015
-0.005
0.025
-0.01
-0.015
-0.045
-0.02
-0.035
-0.01
0.01
-0.005
-0.075
-0.08
0.02
0.0
-0.025
-0.05
-0.025
-0.005
-0.02
0.0
0.0
-0.015
-0.005
-0.03
-0.045
-0.055
-0.04
-0.065
-0.015
-0.025
-0.025
-0.06
-0.045
-0.005
-0.04
-0.04
-0.04
-0.035
-0.04
-0.025
-0.02
-0.015
-0.035
-0.02
-0.02
-0.045
-0.025
-0.03
-0.04
-0.02
-0.025
-0.04
-0.015
0.005
0.0
-0.04
-0.04
-0.005
0.01
0.0
0.02
-0.05
0.005
-0.02
-0.02
-0.005
0.02
0.09
0.085
0.03
-0.005
-0.005
0.02
0.04
0.015
0.0
-0.05
-0.05
-0.07
-0.05
-0.055
-0.025
-0.03
-0.005
-0.045
-0.05
-0.055
-0.05
-0.07
-0.04
-0.04
-0.04
-0.07
-0.05
-0.05
-0.055
-0.035
-0.03
-0.045
-0.035
-0.08
-0.07
-0.025
-0.035
-0.05
-0.055
-0.05
-0.05
-0.065
-0.08
-0.05
-0.055
-0.025
-0.07
-0.025
0.0
0.05
0.11
0.225
0.33
0.355
0.37
0.375
0.43
0.45
0.285
0.205
0.15
0.05
-0.135
-0.26
-0.255
-0.19
-0.155
-0.085
-0.06
-0.105
-0.045
-0.055
-0.045
-0.03
-0.02
-0.055
-0.04
-0.015
-0.045
-0.05
-0.05
-0.02
-0.05
-0.075
-0.03
-0.015
-0.06
-0.03
-0.03
-0.03
-0.04
-0.05
-0.03
-0.05
-0.015
-0.04
-0.045
0.01
-0.005
-0.06
-0.01
-0.02
-0.04
-0.025
-0.015
0.0
-0.01
-0.025
-0.045
-0.045
-0.02
-0.015
-0.005
-0.015
-0.01
-0.01
0.01
-0.02
-0.035
0.005
0.04
0.025
0.0
0.015
0.015
0.0
0.0
0.0
-0.01
-0.02
0.055
0.07
0.04
0.03
0.025
0.025
0.085
0.03
0.015
0.075
0.09
0.025
0.1
0.08
0.085
0.075
0.095
0.09
0.08
0.115
0.11
0.095
0.1
0.105
0.17
0.155
0.105
0.115
0.105
0.13
0.125
0.12
0.135
0.17
0.14
0.07
0.085
0.095
0.07
0.11
0.135
0.085
0.075
0.025
0.045
0.04
-0.015
0.005
-0.02
0.005
-0.01
-0.065
-0.015
-0.03
-0.085
0.015
-0.02
-0.075
-0.07
-0.075
-0.07
-0.08
-0.12
-0.06
-0.08
-0.08
-0.08
-0.075
-0.08
-0.055
-0.095
-0.085
-0.085
-0.075
-0.09
-0.08
-0.085
-0.07
-0.09
-0.1
-0.095
-0.085
-0.045
-0.065
-0.08
-0.075
-0.125
-0.06
-0.095
-0.065
-0.055
-0.065
-0.065
-0.075
-0.145
-0.135
-0.105
-0.045
-0.04
-0.105
-0.075
-0.075
-0.105
-0.095
-0.06
-0.075
-0.12
-0.06
-0.055
-0.05
-0.11
-0.115
-0.075
-0.05
-0.04
-0.095
-0.13
-0.075
-0.08
-0.06
-0.08
-0.09
-0.09
-0.115
-0.105
-0.085
-0.13
-0.1
-0.105
-0.11
-0.075
-0.06
-0.06
-0.115
-0.12
-0.075
-0.11
-0.075
-0.09
-0.09
-0.09
-0.165
-0.075
-0.055
-0.06
-0.07
-0.11
-0.08
-0.065
-0.1
-0.02
-0.06
-0.095
-0.095
-0.05
-0.09
-0.045
-0.065
-0.095
-0.035
-0.04
0.005
-0.03
-0.01
-0.035
-0.04
-0.015
-0.045
-0.035
-0.045
-0.08
-0.115
-0.125
-0.13
-0.105
-0.105
-0.11
-0.135
-0.15
-0.135
-0.095
-0.09
-0.12
-0.085
-0.11
-0.13
-0.08
-0.125
-0.13
-0.085
-0.095
-0.095
-0.07
-0.18
-0.14
-0.145
-0.13
-0.095
-0.14
-0.125
-0.16
-0.12
-0.115
-0.11
-0.15
-0.13
-0.145
-0.115
-0.13
-0.015
-0.005
0.06
0.125
0.19
0.275
0.315
0.35
0.38
0.41
0.34
0.2
0.065
-0.08
-0.125
-0.265
-0.355
-0.28
-0.22
-0.17
-0.15
-0.15
-0.17
-0.11
-0.12
-0.145
-0.135
-0.065
-0.065
-0.065
-0.05
-0.07
-0.105
-0.1
-0.13
-0.07
-0.125
-0.045
-0.075
-0.095
-0.1
-0.075
-0.08
-0.14
-0.085
-0.085
-0.075
-0.08
-0.07
-0.065
-0.05
-0.05
-0.05
-0.05
-0.075
-0.11
-0.035
-0.025
-0.05
-0.045
-0.065
-0.03
-0.05
-0.04
-0.045
-0.085
-0.065
-0.06
-0.02
0.0
-0.05
0.01
-0.025
-0.05
-0.05
0.0
-0.055
-0.055
-0.02
0.045
0.02
0.02
-0.005
-0.025
0.01
0.065
0.02
-0.01
-0.01
0.06
0.02
0.045
0.105
0.055
0.025
0.145
0.095
0.04
0.105
0.12
0.09
0.1
0.12
0.085
0.105
0.075
0.14
0.125
0.15
0.15
0.135
0.135
0.135
0.09
0.1
0.12
0.13
0.1
0.14
0.155
0.125
0.11
0.08
0.07
0.075
0.015
0.0
0.05
0.01
0.045
0.04
0.02
0.005
-0.025
-0.06
-0.07
0.005
-0.09
-0.015
-0.065
-0.06
-0.065
-0.025
-0.045
-0.065
-0.08
-0.075
-0.095
-0.07
-0.09
-0.09
-0.025
-0.05
-0.115
-0.105
-0.085
-0.04
-0.1
-0.07
-0.03
-0.105
-0.055
-0.065
-0.075
-0.075
-0.035
0.0
-0.065
-0.12
-0.085
-0.1
-0.055
-0.04
-0.12
-0.035
-0.055
-0.05
-0.05
-0.05
-0.07
-0.045
-0.045
-0.065
-0.065
-0.07
-0.055
-0.055
-0.07
-0.045
-0.065
-0.07
-0.075
-0.065
-0.06
-0.05
-0.055
-0.045
-0.02
-0.03
-0.005
0.0
-0.025
-0.095
-0.055
-0.06
-0.075
-0.025
0.01
-0.005
0.0
-0.09
-0.055
0.04
0.0
-0.025
-0.03
-0.015
-0.01
-0.025
-0.025
0.015
0.045
0.055
0.0
-0.055
-0.03
0.065
0.055
0.03
0.025
0.015
0.01
0.03
-0.01
0.055
0.065
0.035
0.015
-0.015
-0.03
-0.025
-0.055
-0.04
-0.015
-0.085
-0.045
-0.03
-0.085
-0.055
-0.065
-0.05
-0.02
-0.05
-0.055
-0.06
-0.04
-0.005
-0.03
-0.05
-0.015
-0.065
-0.06
-0.025
-0.065
-0.055
-0.055
-0.03
-0.055
-0.025
0.015
0.005
-0.05
-0.025
-0.04
-0.02
-0.03
-0.02
0.005
0.1
0.205
0.33
0.405
0.44
0.51
0.515
0.57
0.455
0.33
0.18
0.05
-0.055
-0.18
-0.28
-0.275
-0.19
-0.155
-0.16
-0.17
-0.11
-0.07
-0.075
-0.055
-0.015
-0.02
0.01
0.015
0.015
-0.01
-0.015
0.0
-0.035
0.035
0.07
0.045
0.04
-0.055
-0.01
-0.055
0.0
0.03
0.04
0.025
0.045
0.055
0.05
0.07
0.02
0.025
0.09
0.045
0.03
0.08
0.065
0.02
0.015
0.04
0.07
0.075
0.11
0.08
0.06
0.08
0.09
0.085
0.08
0.095
0.09
0.12
0.095
0.12
0.095
0.125
0.115
0.135
0.08
0.09
0.095
0.145
0.125
0.13
0.165
0.125
0.16
0.15
0.18
0.19
0.2
0.205
0.17
0.21
0.195
0.19
0.215
0.21
0.24
0.25
0.25
0.265
0.28
0.25
0.24
0.245
0.265
0.26
0.23
0.28
0.325
0.265
0.275
0.285
0.285
0.255
0.265
0.295
0.28
0.3
0.265
0.265
0.21
0.215
0.225
0.18
0.155
0.2
0.18
0.18
0.15
0.125
0.145
0.135
0.13
0.125
0.135
0.135
0.03
0.07
0.085
0.085
0.075
0.09
0.05
0.03
0.08
0.06
0.025
0.04
0.045
0.05
0.1
0.06
0.065
0.06
0.06
0.125
0.08
0.035
0.045
0.045
0.06
0.09
0.04
0.045
0.095
0.095
0.075
0.065
0.04
0.065
0.065
0.085
0.08
0.09
0.08
0.035
0.095
0.07
0.07
0.06
0.07
0.085
0.105
0.14
0.085
0.11
0.095
0.11
0.1
0.085
0.07
0.1
0.105
0.095
0.11
0.105
0.07
0.115
0.12
0.095
0.09
0.085
0.095
0.075
0.1
0.11
0.075
0.1
0.115
0.1
0.07
0.1
0.1
0.075
0.12
0.095
0.115
0.125
0.125
0.11
0.1
0.115
0.155
0.145
0.11
0.095
0.11
0.12
0.13
0.175
0.15
0.125
0.15
0.155
0.14
0.13
0.155
0.125
0.155
0.195
0.17
0.145
0.155
0.175
0.15
0.1
0.105
0.15
0.115
0.11
0.11
0.14
0.115
0.085
0.125
0.1
0.08
0.05
0.055
0.07
0.085
0.11
0.105
0.105
0.04
0.14
0.115
0.12
0.115
0.075
0.1
0.07
0.12
0.06
0.09
0.13
0.11
0.05
0.055
0.11
0.14
0.15
0.14
0.16
0.18
0.255
0.325
0.37
0.435
0.515
0.57
0.6
0.645
0.625
0.485
0.335
0.18
0.08
0.025
-0.09
-0.12
-0.075
-0.04
0.035
0.025
0.06
0.035
0.065
0.065
0.095
0.13
0.135
0.145
0.105
0.145
0.16
0.195
0.185
0.13
0.15
0.11
0.125
0.12
0.125
0.125
0.13
0.115
0.16
0.2
0.185
0.145
0.17
0.15
0.12
0.125
0.135
0.17
0.145
0.18
0.16
0.19
0.185
0.135
0.165
0.19
0.175
0.21
0.18
0.22
0.215
0.2
0.205
0.185
0.135
0.165
0.175
0.19
0.21
0.19
0.215
0.205
0.235
0.24
0.27
0.205
0.28
0.225
0.21
0.24
0.235
0.25
0.28
0.28
0.26
0.275
0.315
0.285
0.28
0.32
0.31
0.295
0.325
0.33
0.31
0.32
0.345
0.315
0.32
0.38
0.375
0.355
0.33
0.35
0.365
0.355
0.34
0.335
0.355
0.345
0.34
0.385
0.36
0.335
0.365
0.34
0.315
0.275
0.285
0.245
0.315
0.315
0.275
0.255
0.26
0.235
0.245
0.2
0.21
0.21
0.19
0.215
0.215
0.18
0.185
0.185
0.165
0.19
0.16
0.185
0.19
0.155
0.18
0.15
0.145
0.14
0.16
0.11
0.15
0.185
0.18
0.175
0.195
0.17
0.175
0.15
0.16
0.17
0.235
0.165
0.16
0.195
0.18
0.145
0.13
0.19
0.205
0.17
0.18
0.19
0.195
0.215
0.19
0.22
0.165
0.15
0.18
0.195
0.23
0.185
0.185
0.18
0.17
0.185
0.16
0.185
0.225
0.21
0.22
0.2
0.225
0.225
0.2
0.205
0.215
0.21
0.225
0.24
0.18
0.18
0.175
0.185
0.195
0.21
0.185
0.205
0.215
0.185
0.25
0.255
0.245
0.21
0.23
0.23
0.195
0.245
0.22
0.23
0.24
0.245
0.225
0.255
0.27
0.255
0.27
0.235
0.24
0.24
0.26
0.26
0.29
0.28
0.295
0.27
0.255
0.29
0.335
0.31
0.265
0.235
0.26
0.285
0.225
0.19
0.23
0.2
0.21
0.19
0.19
0.21
0.205
0.225
0.25
0.24
0.225
0.195
0.195
0.21
0.235
0.24
0.235
0.245
0.245
0.24
0.27
0.28
0.25
0.195
0.205
0.205
0.23
0.245
0.265
0.24
0.265
0.265
0.29
0.27
0.305
0.32
0.345
0.45
0.505
0.595
0.71
0.75
0.74
0.795
0.755
0.64
0.495
0.365
0.27
0.17
0.09
0.04
0.11
0.19
0.25
0.235
0.235
0.195
0.215
0.26
0.32
0.315
0.265
0.3
0.335
0.375
0.335
0.34
0.335
0.335
0.26
0.29
0.325
0.325
0.335
0.365
0.385
0.34
0.345
0.35
0.315
0.39
0.385
0.325
0.36
0.37
0.37
0.39
0.355
0.375
0.36
0.38
0.37
0.375
0.37
0.41
0.375
0.37
0.44
0.43
0.41
0.435
0.435
0.41
0.405
0.4
0.42
0.435
0.435
0.465
0.455
0.45
0.45
0.46
0.46
0.465
0.49
0.555
0.535
0.56
0.565
0.57
0.565
0.6
0.61
0.58
0.575
0.65
0.64
0.66
0.625
0.635
0.65
0.615
0.625
0.635
0.625
0.62
0.635
0.63
0.655
0.68
0.65
0.605
0.605
0.62
0.62
0.585
0.555
0.555
0.58
0.565
0.555
0.545
0.55
0.53
0.495
0.49
0.48
0.47
0.505
0.54
0.5
0.485
0.475
0.49
0.505
0.49
0.455
0.485
0.505
0.485
0.505
0.51
0.455
0.505
0.47
0.505
0.51
0.525
0.49
0.52
0.48
0.515
0.525
0.52
0.53
0.525
0.515
0.56
0.53
0.52
0.51
0.525
0.505
0.515
0.525
0.54
0.535
0.535
0.57
0.585
0.57
0.535
0.565
0.545
0.545
0.53
0.59
0.605
0.575
0.54
0.56
0.54
0.555
0.62
0.585
0.57
0.55
0.57
0.58
0.6
0.595
0.555
0.58
0.56
0.565
0.595
0.58
0.565
0.58
0.595
0.58
0.59
0.59
0.61
0.615
0.645
0.64
0.565
0.6
0.625
0.635
0.605
0.61
0.65
0.65
0.635
0.665
0.63
0.645
0.66
0.65
0.64
0.625
0.605
0.625
0.705
0.675
0.665
0.68
0.68
0.7
0.7
0.705
0.73
0.675
0.715
0.73
0.695
0.705
0.715
0.7
0.695
0.68
0.7
0.645
0.62
0.605
0.65
0.675
0.685
0.685
0.635
0.635
0.68
0.68
0.66
0.705
0.66
0.665
0.65
0.66
0.65
0.685
0.68
0.7
0.685
0.67
0.705
0.66
0.7
0.695
0.675
0.675
0.71
0.7
0.705
0.695
0.675
0.7
0.75
0.8
0.885
0.95
1.01
1.115
1.14
1.17
1.185
1.215
1.145
0.955
0.8
0.745
0.665
0.53
0.495
0.605
0.595
0.64
0.63
0.665
0.69
0.755
0.775
0.77
0.73
0.745
0.76
0.755
0.76
0.755
0.77
0.775
0.8
0.78
0.765
0.75
0.795
0.815
0.75
0.75
0.755
0.75
0.82
0.785
0.81
0.79
0.795
0.82
0.805
0.825
0.82
0.82
0.825
0.795
0.81
0.825
0.82
0.825
0.83
0.835
0.87
0.865
0.855
0.865
0.83
0.83
0.845
0.86
0.88
0.865
0.83
0.835
0.88
0.905
0.885
0.895
0.905
0.895
0.91
0.9
0.865
0.9
0.88
0.89
0.965
0.96
0.94
0.95
0.955
0.975
0.985
0.98
0.91
0.97
1.0
1.0
0.995
1.0
0.955
0.99
1.02
1.03
1.02
1.03
1.03
1.015
1.06
1.075
1.04
1.03
1.05
1.025
1.02
1.055
1.08
1.03
0.995
1.04
1.075
1.02
1.045
0.965
0.95
0.975
0.98
0.955
0.975
0.97
0.98
0.925
0.905
0.92
0.915
0.91
0.89
0.9
0.865
0.87
0.905
0.875
0.835
0.87
0.91
0.92
0.91
0.915
0.905
0.88
0.875
0.89
0.905
0.87
0.825
0.875
0.87
0.895
0.885
0.935
0.865
0.85
0.87
0.9
0.88
0.89
0.94
0.93
0.89
0.93
0.885
0.895
0.915
0.89
0.915
0.915
0.9
0.9
0.92
0.94
0.895
0.93
0.925
0.915
0.96
0.955
0.885
0.955
0.92
0.915
0.9
0.92
0.91
0.945
0.92
0.885
0.885
0.92
0.935
0.935
0.955
0.905
0.91
0.92
0.94
0.905
0.915
0.945
0.995
0.985
0.935
0.96
0.895
0.92
0.965
0.925
0.92
0.965
0.945
0.91
0.925
0.97
0.935
0.955
1.025
0.965
0.925
0.95
0.94
0.96
0.93
0.935
0.935
0.96
0.965
0.94
0.91
0.975
1.03
1.015
1.01
0.98
0.995
1.045
1.075
1.07
1.045
1.01
1.02
1.005
0.99
0.985
0.92
0.935
0.955
0.965
0.995
0.98
0.965
0.92
0.935
0.95
0.94
0.94
0.97
0.95
0.945
0.94
0.97
0.915
0.965
0.95
0.955
0.945
0.98
0.985
0.925
0.985
0.985
0.97
0.96
1.0
0.96
0.95
0.96
0.98
1.005
1.02
0.99
1.005
1.065
1.105
1.17
1.25
1.335
1.38
1.375
1.38
1.395
1.335
1.18
1.05
0.99
0.9
0.865
0.805
0.805
0.815
0.905
0.955
0.97
0.97
0.995
1.02
0.985
0.99
0.995
1.01
1.07
1.06
1.06
1.0
0.985
0.975
0.96
1.0
1.01
0.97
1.0
1.005
0.99
0.97
1.01
1.055
1.045
1.035
1.035
1.025
1.015
1.065
1.07
1.01
1.0
1.03
1.015
1.055
1.065
1.055
1.055
1.05
1.035
1.08
1.07
1.05
1.03
1.055
1.07
1.075
1.06
1.045
1.06
1.04
1.08
1.11
1.04
1.075
1.08
1.085
1.095
1.12
1.12
1.11
1.125
1.085
1.07
1.095
1.105
1.15
1.17
1.145
1.12
1.145
1.165
1.165
1.175
1.16
1.175
1.205
1.215
1.17
1.165
1.185
1.155
1.18
1.205
1.185
1.2
1.17
1.24
1.22
1.205
1.19
1.175
1.2
1.195
1.24
1.225
1.21
1.17
1.165
1.16
1.185
1.125
1.15
1.16
1.13
1.115
1.09
1.105
1.05
1.07
1.045
1.095
1.075
1.08
1.05
1.04
1.03
1.03
1.04
1.065
1.03
1.065
1.065
1.05
1.005
1.035
1.055
1.025
1.02
0.99
1.0
1.02
1.055
1.07
1.065
1.045
1.0
1.025
1.015
1.015
1.0
1.0
1.035
1.075
1.065
1.03
1.025
1.045
1.03
1.05
1.045
1.045
1.03
1.035
1.02
1.025
1.04
1.03
1.03
1.04
1.05
1.045
1.05
1.07
1.055
1.05
1.02
1.025
1.015
1.01
1.02
1.035
1.04
0.995
1.025
0.995
1.045
1.065
1.075
1.03
1.04
1.02
1.035
1.04
1.035
1.035
1.025
1.04
1.01
1.01
0.99
1.03
1.035
1.025
1.06
1.005
1.0
1.005
1.015
1.05
1.045
1.035
1.025
1.08
1.065
1.065
1.01
1.055
1.055
1.04
1.045
1.025
1.05
1.07
1.055
1.065
1.025
1.065
1.105
1.095
1.095
1.08
1.085
1.075
1.085
1.045
1.065
1.005
0.975
1.0
0.995
0.995
0.99
0.975
1.025
1.0
0.995
1.025
1.04
0.98
1.0
1.02
1.015
0.955
0.975
1.0
0.99
1.02
1.015
0.99
1.015
1.0
1.005
0.985
0.99
1.005
0.94
0.955
1.04
1.08
1.02
0.975
0.94
0.975
1.04
1.05
1.15
1.195
1.315
1.34
1.41
1.425
1.465
1.535
1.48
1.33
1.125
1.035
0.96
0.89
0.79
0.815
0.89
0.915
0.95
0.935
0.89
0.92
1.025
1.045
0.99
1.025
1.03
1.005
1.065
0.98
1.015
1.0
0.995
1.005
0.995
1.07
1.055
1.005
1.015
0.99
1.02
1.045
1.045
1.055
1.0
1.02
1.04
1.025
1.0
1.085
1.035
1.01
1.0
1.02
1.025
1.03
1.005
1.035
1.0
1.05
1.03
1.075
1.04
1.015
1.04
1.06
1.045
1.055
1.035
1.07
1.055
1.09
1.065
1.06
1.02
1.065
1.075
1.07
1.08
1.035
1.075
1.115
1.155
1.065
1.095
1.12
1.1
1.095
1.13
1.15
1.13
1.07
1.105
1.13
1.11
1.165
1.13
1.16
1.155
1.165
1.165
1.145
1.125
1.16
1.205
1.195
1.17
1.165
1.175
1.19
1.155
1.15
1.19
1.18
1.205
1.17
1.15
1.155
1.155
1.14
1.1
1.125
1.09
1.135
1.09
1.08
1.08
1.035
1.04
1.04
1.065
1.0
1.015
0.975
0.985
1.0
1.02
1.01
0.975
0.985
1.015
0.955
0.985
0.98
0.94
0.955
0.995
1.04
1.005
0.955
0.895
0.925
0.96
0.965
0.99
0.96
0.945
1.0
0.975
0.95
0.97
0.985
0.95
0.94
0.96
0.955
0.92
0.99
0.93
0.94
0.935
0.925
1.025
0.995
0.995
0.935
0.95
0.965
0.965
0.945
0.945
0.965
0.93
0.94
0.995
0.995
0.97
0.93
0.98
0.97
0.945
0.945
0.985
0.98
0.94
0.965
1.015
0.955
0.96
0.985
0.91
0.99
1.005
1.005
0.935
0.98
0.96
0.99
1.04
0.98
0.99
0.985
0.975
0.96
1.01
0.975
0.955
0.96
0.995
1.025
0.985
1.01
1.015
1.0
1.0
0.995
0.965
0.915
0.925
0.91
0.91
0.91
0.92
0.88
0.905
0.885
0.925
0.9
0.965
0.925
0.88
0.92
0.9
0.835
0.88
0.885
0.885
0.87
0.875
0.88
0.87
0.87
0.9
0.925
0.885
0.89
0.9
0.88
0.875
0.87
0.9
0.935
0.885
0.9
0.88
0.91
0.935
0.995
1.09
1.2
1.29
1.385
1.43
1.465
1.405
1.435
1.32
1.14
0.965
0.825
0.755
0.67
0.625
0.645
0.67
0.66
0.68
0.77
0.805
0.8
0.825
0.88
0.89
0.895
0.865
0.865
0.88
0.885
0.89
0.905
0.885
0.87
0.93
0.87
0.92
0.9
0.885
0.89
0.895
0.875
0.91
0.91
0.915
0.875
0.925
0.915
0.895
0.91
0.915
0.93
0.925
0.875
0.915
0.905
0.89
0.915
0.95
0.91
0.93
0.92
0.93
0.93
0.92
0.92
0.93
0.885
0.92
0.915
0.945
0.96
0.975
0.94
0.89
0.94
0.975
0.95
0.91
0.945
0.95
0.975
0.93
0.94
0.985
0.94
0.985
0.98
0.97
1.005
0.98
0.985
0.99
0.995
1.055
1.015
1.04
1.03
1.05
1.015
1.02
1.04
1.045
1.025
1.015
1.0
1.065
1.065
1.075
1.085
0.98
0.99
1.025
1.015
1.065
1.035
1.025
1.0
0.995
1.02
0.98
0.96
0.98
0.945
0.925
0.905
0.925
0.89
0.875
0.845
0.885
0.89
0.89
0.845
0.82
0.815
0.79
0.76
0.82
0.835
0.825
0.835
0.78
0.76
0.77
0.745
0.775
0.805
0.785
0.755
0.82
0.8
0.745
0.745
0.755
0.835
0.8
0.745
0.78
0.79
0.785
0.77
0.785
0.775
0.805
0.82
0.765
0.785
0.785
0.755
0.78
0.79
0.735
0.785
0.81
0.76
0.775
0.76
0.735
0.815
0.83
0.735
0.75
0.76
0.765
0.76
0.78
0.76
0.78
0.78
0.765
0.815
0.73
0.745
0.745
0.795
0.785
0.78
0.805
0.775
0.76
0.78
0.75
0.77
0.75
0.725
0.765
0.745
0.79
0.765
0.75
0.745
0.74
0.81
0.82
0.77
0.77
0.77
0.805
0.76
0.775
0.78
0.8
0.805
0.79
0.81
0.765
0.76
0.785
0.755
0.76
0.74
0.7
0.665
0.675
0.67
0.665
0.675
0.695
0.735
0.705
0.66
0.69
0.725
0.725
0.67
0.655
0.655
0.66
0.68
0.69
0.67
0.645
0.68
0.695
0.695
0.66
0.66
0.67
0.66
0.685
0.685
0.655
0.61
0.67
0.635
0.65
0.68
0.705
0.72
0.735
0.86
0.925
1.0
1.075
1.085
1.08
1.16
1.09
0.9
0.765
0.715
0.62
0.495
0.425
0.435
0.465
0.55
0.58
0.585
0.59
0.605
0.635
0.605
0.635
0.695
0.725
0.69
0.67
0.63
0.655
0.655
0.66
0.65
0.625
0.61
0.64
0.67
0.665
0.61
0.645
0.68
0.645
0.645
0.65
0.64
0.64
0.65
0.65
0.66
0.68
0.64
0.62
0.64
0.66
0.67
0.675
0.605
0.63
0.7
0.67
0.65
0.69
0.705
0.675
0.64
0.69
0.655
0.675
0.655
0.665
0.635
0.66
0.68
0.7
0.68
0.665
0.725
0.695
0.69
0.67
0.65
0.705
0.69
0.705
0.68
0.69
0.69
0.705
0.68
0.77
0.725
0.695
0.715
0.745
0.72
0.75
0.74
0.795
0.745
0.74
0.725
0.69
0.725
0.765
0.765
0.76
0.765
0.785
0.725
0.765
0.76
0.745
0.775
0.795
0.73
0.73
0.75
0.715
0.695
0.695
0.71
0.705
0.67
0.605
0.645
0.63
0.615
0.625
0.645
0.63
0.605
0.61
0.575
0.51
0.595
0.575
0.57
0.595
0.605
0.535
0.51
0.53
0.58
0.56
0.53
0.515
0.525
0.62
0.58
0.52
0.525
0.52
0.545
0.555
0.535
0.555
0.525
0.5
0.51
0.53
0.54
0.49
0.55
0.6
0.575
0.535
0.56
0.56
0.48
0.54
0.59
0.585
0.525
0.5
0.49
0.535
0.55
0.555
0.525
0.525
0.51
0.5
0.525
0.53
0.57
0.56
0.515
0.545
0.54
0.5
0.495
0.525
0.515
0.505
0.46
0.56
0.54
0.56
0.54
0.53
0.495
0.525
0.52
0.48
0.57
0.545
0.525
0.52
0.505
0.51
0.515
0.505
0.5
0.53
0.515
0.515
0.545
0.51
0.52
0.49
0.48
0.545
0.525
0.545
0.555
0.545
0.53
0.575
0.505
0.55
0.58
0.56
0.52
0.58
0.53
0.475
0.495
0.475
0.49
0.475
0.445
0.43
0.455
0.41
0.445
0.47
0.425
0.47
0.51
0.505
0.43
0.45
0.43
0.43
0.45
0.495
0.43
0.445
0.46
0.45
0.46
0.47
0.46
0.485
0.43
0.435
0.45
0.43
0.44
0.44
0.445
0.475
0.5
0.56
0.535
0.615
0.655
0.81
0.825
0.86
0.86
0.93
0.975
0.835
0.66
0.545
0.495
0.35
0.32
0.25
0.34
0.41
0.46
0.47
0.405
0.455
0.445
0.435
0.44
0.45
0.475
0.485
0.435
0.45
0.445
0.435
0.47
0.485
0.49
0.485
0.455
0.485
0.49
0.47
0.425
0.445
0.465
0.45
0.44
0.44
0.495
0.495
0.48
0.445
0.48
0.45
0.435
0.445
0.46
0.47
0.455
0.46
0.465
0.475
0.475
0.435
0.455
0.49
0.5
0.465
0.465
0.455
0.455
0.435
0.46
0.495
0.455
0.485
0.435
0.465
0.49
0.485
0.485
0.525
0.56
0.5
0.475
0.47
0.465
0.5
0.51
0.5
0.51
0.485
0.535
0.505
0.515
0.55
0.55
0.515
0.49
0.55
0.52
0.52
0.565
0.57
0.58
0.53
0.55
0.535
0.52
0.55
0.545
0.505
0.53
0.565
0.585
0.55
0.555
0.545
0.59
0.555
0.545
0.575
0.525
0.51
0.535
0.49
0.51
0.48
0.5
0.505
0.47
0.43
0.39
0.42
0.38
0.43
0.42
0.38
0.4
0.405
0.395
0.405
0.385
0.42
0.475
0.375
0.385
0.435
0.385
0.33
0.345
0.385
0.395
0.385
0.385
0.39
0.39
0.395
0.42
0.41
0.42
0.39
0.405
0.39
0.375
0.38
0.405
0.34
0.35
0.43
0.395
0.405
0.42
0.36
0.375
0.405
0.41
0.415
0.415
0.43
0.38
0.345
0.4
0.39
0.425
0.44
0.365
0.41
0.405
0.36
0.39
0.39
0.39
0.405
0.425
0.375
0.36
0.39
0.43
0.41
0.39
0.39
0.385
0.45
0.4
0.35
0.385
0.41
0.385
0.4
0.405
0.46
0.455
0.435
0.41
0.415
0.435
0.435
0.4
0.455
0.435
0.42
0.42
0.465
0.47
0.475
0.47
0.455
0.45
0.465
0.46
0.48
0.505
0.5
0.545
0.535
0.49
0.515
0.465
0.505
0.455
0.465
0.465
0.45
0.435
0.425
0.41
0.405
0.455
0.46
0.46
0.47
0.435
0.47
0.49
0.445
0.435
0.48
0.455
0.425
0.455
0.48
0.45
0.415
0.43
0.47
0.49
0.44
0.435
0.445
0.46
0.48
0.505
0.47
0.47
0.45
0.465
0.49
0.505
0.535
0.59
0.725
0.795
0.825
0.895
0.9
0.925
0.97
0.97
0.87
0.73
0.6
0.57
0.4
0.32
0.29
0.355
0.41
0.48
0.46
0.43
0.525
0.5
0.55
0.605
0.545
0.52
0.555
0.57
0.57
0.585
0.575
0.515
0.56
0.575
0.555
0.515
0.56
0.53
0.595
0.63
0.625
0.63
0.64
0.62
0.625
0.595
0.615
0.59
0.61
0.58
0.625
0.65
0.66
0.655
0.62
0.655
0.62
0.64
0.655
0.71
0.665
0.635
0.695
0.65
0.67
0.645
0.67
0.735
0.73
0.695
0.715
0.71
0.71
0.74
0.72
0.71
0.67
0.745
0.77
0.8
0.765
0.795
0.795
0.815
0.815
0.755
0.835
0.82
0.835
0.89
0.825
0.84
0.85
0.81
0.845
0.92
0.905
0.895
0.875
0.885
0.93
0.93
0.92
0.895
0.96
0.895
0.925
0.97
0.97
0.985
0.99
1.035
0.97
0.885
0.9
0.92
0.99
1.005
0.93
0.94
0.925
0.94
0.945
0.93
0.895
0.87
0.89
0.865
0.88
0.885
0.82
0.8
0.9
0.865
0.86
0.885
0.875
0.865
0.82
0.855
0.82
0.81
0.86
0.83
0.855
0.81
0.85
0.85
0.825
0.85
0.9
0.9
0.83
0.815
0.84
0.89
0.84
0.86
0.86
0.9
0.885
0.87
0.87
0.915
0.93
0.905
0.885
0.94
0.915
0.895
0.95
0.97
0.94
0.905
0.9
0.935
0.925
0.945
0.945
0.85
0.93
0.975
0.935
0.945
0.985
0.985
0.965
0.915
0.95
1.005
0.995
0.99
0.935
0.95
1.01
1.025
0.965
0.99
1.04
1.02
1.065
1.055
1.05
0.99
1.0
1.065
1.045
1.06
1.05
1.085
1.08
1.06
1.055
1.085
1.06
1.075
1.055
1.095
1.095
1.1
1.14
1.16
1.13
1.115
1.07
1.085
1.065
1.055
1.065
1.06
1.045
1.045
1.075
1.1
1.065
1.07
1.045
1.1
1.07
1.075
1.085
1.0
1.08
1.08
1.12
1.085
1.12
1.04
1.06
1.085
1.105
1.085
1.065
1.125
1.105
1.115
1.085
1.08
1.07
1.115
1.165
1.185
1.18
1.2
1.115
1.095
1.185
1.235
1.31
1.445
1.55
1.59
1.65
1.68
1.815
1.715
1.58
1.445
1.345
1.185
1.08
0.975
0.915
0.915
0.92
0.985
0.99
1.06
1.08
1.11
1.12
1.12
1.17
1.14
1.215
1.22
1.195
1.19
1.21
1.28
1.21
1.23
1.25
1.28
1.27
1.265
1.245
1.26
1.225
1.255
1.24
1.255
1.22
1.245
1.285
1.29
1.29
1.28
1.265
1.28
1.275
1.275
1.31
1.235
1.235
1.28
1.305
1.34
1.32
1.34
1.32
1.335
1.295
1.36
1.33
1.295
1.31
1.345
1.35
1.365
1.36
1.375
1.345
1.385
1.425
1.345
1.365
1.375
1.43
1.41
1.345
1.36
1.39
1.425
1.405
1.43
1.455
1.425
1.445
1.41
1.46
1.47
1.485
1.515
1.495
1.54
1.525
1.5
1.5
1.51
1.535
1.505
1.51
1.58
1.58
1.505
1.51
1.58
1.605
1.55
1.555
1.495
1.53
1.525
1.495
1.5
1.53
1.505
1.505
1.485
1.52
1.495
1.53
1.4
1.435
1.46
1.505
1.41
1.37
1.405
1.395
1.4
1.37
1.38
1.345
1.4
1.415
1.37
1.385
1.31
1.375
1.335
1.355
1.345
1.345
1.31
1.34
1.345
1.355
1.33
1.345
1.415
1.415
1.375
1.315
1.375
1.415
1.385
1.385
1.395
1.395
1.345
1.365
1.375
1.425
1.38
1.355
1.38
1.395
1.415
1.365
1.43
1.385
1.345
1.415
1.415
1.465
1.39
1.405
1.375
1.405
1.45
1.5
1.48
1.475
1.45
1.4
1.425
1.485
1.485
1.45
1.5
1.475
1.495
1.485
1.47
1.44
1.5
1.5
1.49
1.46
1.415
1.485
1.525
1.54
1.475
1.475
1.435
1.57
1.445
1.515
1.485
1.47
1.455
1.525
1.55
1.57
1.52
1.49
1.495
1.505
1.515
1.535
1.605
1.525
1.52
1.495
1.44
1.48
1.5
1.47
1.435
1.42
1.4
1.455
1.39
1.475
1.38
1.385
1.36
1.325
1.35
1.33
1.255
1.285
1.29
1.265
1.345
1.28
1.28
1.225
1.23
1.31
1.215
1.17
1.15
1.15
1.12
1.135
1.17
1.125
1.1
1.075
1.01
1.165
1.185
1.1
1.15
1.145
1.085
1.065
1.045
1.06
1.17
1.145
1.165
1.05
0.985
1.11
1.29
1.33
1.38
1.48
1.61
1.465
1.505
1.58
1.525
1.295
1.26
1.125
1.23
0.965
0.855
0.755
0.76
0.85
0.84
0.66
0.925
0.87
1.31
1.445
1.22
1.165
1.135
1.0
0.865
0.72
0.975
1.215
1.01
1.52
1.475
1.235
1.16
1.075
1.115
1.165
1.05
1.145
1.02
1.165
1.03
1.2
1.125
1.07
1.35
1.365
1.37
1.335
1.225
1.31
1.425
1.26
1.365
1.555
1.35
1.305
1.565
1.595
1.705
1.5
1.465
1.42
1.56
1.57
1.76
1.785
1.78
1.67
1.655
1.74
1.54
1.62
1.515
1.505
1.7
1.555
2.225
2.25
1.89
2.17
2.19
2.245
2.12
1.98
1.93
1.915
1.99
2.015
2.045
2.125
2.325
2.08
2.23
2.215
2.17
2.35
2.215
2.255
2.305
2.395
2.425
2.51
2.55
2.215
2.29
2.6
2.665
2.525
2.63
2.58
2.565
2.49
2.48
2.33
2.59
2.45
2.615
2.55
2.53
2.465
2.61
2.89
2.44
2.405
2.55
2.56
2.49
2.43
2.62
2.525
2.695
2.49
2.385
2.52
2.61
2.59
2.455
2.465
2.445
2.41
2.6
2.435
2.665
2.57
2.39
2.49
2.69
2.515
2.465
2.515
2.5
2.44
2.455
2.415
2.415
2.595
2.485
2.35
2.255
2.24
2.285
2.49
2.31
2.37
2.185
2.43
2.73
2.625
2.35
2.295
2.435
2.57
2.48
2.37
2.38
2.23
2.235
2.395
2.465
2.35
2.385
2.33
2.365
2.465
2.45
2.4
2.515
2.405
2.385
2.315
2.52
2.34
2.38
2.465
2.435
2.455
2.5
2.37
2.39
2.375
2.24
2.34
2.245
2.365
2.34
2.275
2.285
2.32
2.52
2.41
2.315
2.39
2.17
2.19
2.47
2.5
2.285
2.3
2.425
2.34
2.49
2.18
2.155
2.29
2.395
2.355
2.225
2.175
2.205
2.27
2.265
2.26
2.215
2.155
2.265
2.23
2.23
2.08
2.09
2.24
2.1
2.17
2.155
2.14
2.145
2.245
2.16
2.03
2.02
2.125
2.04
2.065
1.85
2.06
2.155
2.23
2.235
2.275
2.06
1.99
1.94
1.95
1.965
2.05
2.115
2.09
2.045
2.04
2.195
2.21
2.15
2.075
2.125
2.025
2.155
2.21
2.21
2.34
2.435
2.555
2.515
2.505
2.58
2.48
2.3
2.225
2.055
1.98
1.905
1.775
1.845
2.02
2.01
1.9
1.96
1.88
1.935
1.97
2.035
2.04
2.005
2.05
2.095
2.03
2.005
1.965
1.98
2.11
2.085
2.0
1.955
1.955
1.915
2.02
2.035
1.915
1.965
2.04
1.935
2.025
1.98
2.04
2.115
1.98
1.86
1.965
2.065
1.965
1.875
1.87
1.945
2.0
2.02
2.02
2.06
2.07
2.065
2.01
1.965
1.935
1.965
1.94
1.965
2.04
1.965
1.93
1.965
1.955
1.955
1.915
2.025
1.855
1.925
2.115
1.99
2.045
1.865
1.88
1.915
2.01
1.95
1.99
1.98
1.87
1.955
2.07
1.945
1.87
1.835
1.925
1.885
1.85
1.885
1.93
2.035
1.95
1.94
1.845
1.875
1.99
1.875
1.835
1.91
1.895
1.895
1.795
1.85
1.875
1.99
1.875
1.855
1.86
1.85
1.715
1.74
1.705
1.725
1.84
1.785
1.785
1.745
1.735
1.735
1.78
1.72
1.755
1.65
1.61
1.58
1.53
1.615
1.59
1.555
1.595
1.53
1.54
1.58
1.645
1.675
1.63
1.53
1.535
1.46
1.42
1.385
1.45
1.56
1.465
1.54
1.585
1.565
1.475
1.49
1.4
1.415
1.475
1.525
1.44
1.475
1.51
1.52
1.43
1.385
1.4
1.44
1.43
1.46
1.445
1.44
1.385
1.31
1.32
1.355
1.29
1.44
1.51
1.44
1.325
1.385
1.44
1.365
1.485
1.485
1.3
1.27
1.37
1.36
1.405
1.425
1.345
1.335
1.405
1.37
1.405
1.37
1.395
1.45
1.405
1.24
1.365
1.415
1.34
1.33
1.335
1.335
1.355
1.38
1.31
1.365
1.345
1.275
1.235
1.285
1.28
1.305
1.325
1.285
1.255
1.29
1.24
1.2
1.26
1.24
1.2
1.095
1.215
1.15
1.13
1.08
1.075
1.04
1.075
1.05
1.04
0.97
0.965
1.0
0.92
0.93
1.015
0.915
0.945
0.955
0.935
0.905
0.89
0.87
0.88
0.84
0.81
0.785
0.84
0.775
0.77
0.895
0.86
0.81
0.735
0.71
0.74
0.795
0.795
0.83
0.905
1.04
1.08
1.195
1.285
1.35
1.315
1.285
1.13
0.965
0.81
0.595
0.49
0.37
0.325
0.26
0.27
0.29
0.24
0.35
0.335
0.36
0.3
0.37
0.375
0.415
0.355
0.365
0.34
0.37
0.375
0.29
0.355
0.34
0.335
0.38
0.38
0.345
0.26
0.315
0.31
0.185
0.255
0.285
0.225
0.22
0.205
0.235
0.225
0.23
0.235
0.2
0.145
0.19
0.155
0.165
0.19
0.235
0.235
0.185
0.185
0.18
0.21
0.215
0.2
0.16
0.15
0.235
0.22
0.18
0.18
0.23
0.22
0.135
0.16
0.13
0.125
0.135
0.17
0.175
0.125
0.135
0.155
0.14
0.215
0.22
0.155
0.23
0.205
0.2
0.12
0.17
0.235
0.2
0.19
0.22
0.245
0.225
0.225
0.23
0.225
0.215
0.185
0.2
0.175
0.195
0.21
0.155
0.22
0.21
0.235
0.195
0.21
0.165
0.17
0.15
0.16
0.19
0.17
0.13
0.125
0.065
0.145
0.06
0.1
0.1
0.07
0.025
-0.015
-0.075
0.005
-0.05
-0.025
-0.005
0.05
-0.005
-0.105
-0.105
-0.01
-0.08
-0.045
-0.065
-0.17
-0.12
-0.115
-0.13
-0.22
-0.1
-0.11
-0.1
-0.09
-0.16
-0.25
-0.17
-0.17
-0.15
-0.155
-0.19
-0.185
-0.175
-0.18
-0.135
-0.16
-0.215
-0.255
-0.22
-0.2
-0.155
-0.155
-0.165
-0.225
-0.255
-0.175
-0.165
-0.2
-0.2
-0.185
-0.24
-0.22
-0.22
-0.24
-0.21
-0.195
-0.225
-0.215
-0.24
-0.255
-0.265
-0.23
-0.21
-0.28
-0.25
-0.265
-0.29
-0.26
-0.275
-0.31
-0.34
-0.27
-0.24
-0.255
-0.265
-0.245
-0.285
-0.295
-0.285
-0.28
-0.31
-0.29
-0.325
-0.29
-0.335
-0.295
-0.23
-0.285
-0.315
-0.305
-0.285
-0.365
-0.25
-0.345
-0.37
-0.285
-0.245
-0.245
-0.32
-0.315
-0.285
-0.355
-0.3
-0.32
-0.315
-0.29
-0.25
-0.24
-0.29
-0.28
-0.27
-0.29
-0.345
-0.355
-0.36
-0.36
-0.385
-0.445
-0.415
-0.395
-0.425
-0.415
-0.4
-0.41
-0.405
-0.43
-0.425
-0.415
-0.505
-0.5
-0.415
-0.465
-0.44
-0.425
-0.41
-0.445
-0.465
-0.435
-0.355
-0.41
-0.46
-0.415
-0.43
-0.52
-0.495
-0.475
-0.505
-0.485
-0.54
-0.485
-0.475
-0.43
-0.43
-0.375
-0.255
-0.17
-0.085
-0.055
0.005
0.07
0.12
0.015
-0.075
-0.215
-0.365
-0.535
-0.625
-0.6
-0.71
-0.665
-0.565
-0.585
-0.54
-0.53
-0.59
-0.55
-0.49
-0.5
-0.525
-0.49
-0.52
-0.53
-0.58
-0.55
-0.49
-0.525
-0.52
-0.59
-0.63
-0.51
-0.55
-0.57
-0.63
-0.615
-0.58
-0.54
-0.6
-0.535
-0.485
-0.54
-0.58
-0.565
-0.565
-0.645
-0.58
-0.525
-0.555
-0.54
-0.58
-0.59
-0.61
-0.55
-0.585
-0.64
-0.53
-0.535
-0.565
-0.57
-0.545
-0.55
-0.54
-0.555
-0.59
-0.59
-0.52
-0.55
-0.6
-0.59
-0.61
-0.545
-0.58
-0.535
-0.57
-0.58
-0.555
-0.585
-0.59
-0.51
-0.565
-0.545
-0.6
-0.56
-0.56
-0.51
-0.48
-0.57
-0.57
-0.525
-0.56
-0.475
-0.55
-0.525
-0.47
-0.515
-0.55
-0.545
-0.44
-0.51
-0.555
-0.585
-0.48
-0.455
-0.56
-0.6
-0.525
-0.525
-0.58
-0.515
-0.51
-0.585
-0.595
-0.58
-0.56
-0.56
-0.62
-0.625
-0.6
-0.63
-0.64
-0.61
-0.64
-0.67
-0.68
-0.735
-0.715
-0.65
-0.67
-0.695
-0.705
-0.73
-0.775
-0.75
-0.72
-0.77
-0.755
-0.785
-0.79
-0.8
-0.735
-0.775
-0.765
-0.785
-0.735
-0.83
-0.795
-0.79
-0.745
-0.805
-0.785
-0.815
-0.825
-0.865
-0.81
-0.785
-0.86
-0.78
-0.705
-0.82
-0.81
-0.79
-0.75
-0.825
-0.855
-0.8
-0.855
-0.815
-0.795
-0.795
-0.85
-0.795
-0.755
-0.795
-0.825
-0.815
-0.855
-0.885
-0.85
-0.83
-0.825
-0.83
-0.875
-0.84
-0.835
-0.83
-0.77
-0.8
-0.905
-0.83
-0.84
-0.855
-0.83
-0.815
-0.885
-0.84
-0.84
-0.875
-0.88
-0.83
-0.85
-0.885
-0.87
-0.875
-0.87
-0.885
-0.9
-0.885
-0.855
-0.835
-0.895
-0.915
-0.9
-0.885
-0.945
-0.905
-0.855
-0.8
-0.845
-0.86
-0.87
-0.96
-0.945
-0.915
-0.88
-0.895
-0.905
-0.915
-0.95
-0.9
-0.9
-0.875
-0.835
-0.875
-0.83
-0.85
-0.865
-0.84
-0.895
-0.86
-0.91
-0.9
-0.9
-0.925
-0.935
-0.96
-1.0
-0.98
-0.965
-0.965
-0.985
-0.98
-1.02
-1.05
-1.01
-1.075
-1.01
-1.01
-1.055
-1.08
-1.095
-1.12
-0.99
-0.97
-1.04
-1.02
-1.015
-1.01
-1.03
-1.055
-1.065
-1.055
-1.09
-1.13
-1.055
-1.025
-1.06
-1.06
-1.075
-1.075
-1.115
-1.125
-1.07
-0.995
-0.935
-0.81
-0.705
-0.55
-0.48
-0.415
-0.28
-0.175
-0.22
-0.4
-0.535
-0.715
-0.86
-1.035
-1.175
-1.24
-1.205
-1.14
-1.16
-1.15
-1.125
-1.125
-1.08
-1.085
-1.085
-1.08
-1.045
-1.095
-1.125
-1.095
-1.155
-1.085
-1.185
-1.205
-1.16
-1.09
-1.14
-1.13
-1.12
-1.125
-1.135
-1.145
-1.11
-1.095
-1.125
-1.115
-1.14
-1.125
-1.095
-1.1
-1.085
-1.105
-1.165
-1.17
-1.185
-1.1
-1.055
-1.09
-1.115
-1.105
-1.15
-1.175
-1.215
-1.115
-1.08
-1.17
-1.115
-1.115
-1.12
-1.135
-1.125
-1.15
-1.205
-1.135
-1.125
-1.085
-1.065
-1.115
-1.11
-1.105
-1.155
-1.115
-1.095
-1.095
-1.15
-1.105
-1.15
-1.085
-1.105
-1.155
-1.1
-1.105
-1.085
-1.09
-1.07
-1.04
-1.065
-1.05
-1.07
-1.045
-1.07
-1.0
-1.015
-1.115
-1.05
-1.035
-1.025
-1.015
-1.045
-1.07
-1.05
-1.125
-1.075
-1.065
-1.03
-1.04
-1.005
-1.105
-1.135
-1.065
-1.05
-1.105
-1.075
-1.065
-1.115
-1.09
-1.16
-1.215
-1.17
-1.22
-1.255
-1.225
-1.255
-1.215
-1.175
-1.155
-1.275
-1.295
-1.305
-1.26
-1.23
-1.26
-1.18
-1.21
-1.3
-1.275
-1.32
-1.295
-1.31
-1.295
-1.33
-1.295
-1.36
-1.33
-1.27
-1.245
-1.28
-1.3
-1.355
-1.31
-1.35
-1.335
-1.35
-1.305
-1.315
-1.265
-1.42
-1.31
-1.34
-1.34
-1.31
-1.375
-1.315
-1.345
-1.33
-1.33
-1.315
-1.37
-1.315
-1.34
-1.325
-1.295
-1.375
-1.345
-1.295
-1.27
-1.33
-1.385
-1.385
-1.32
-1.345
-1.33
-1.28
-1.3
-1.37
-1.38
-1.415
-1.39
-1.33
-1.345
-1.39
-1.41
-1.355
-1.34
-1.385
-1.37
-1.34
-1.31
-1.295
-1.38
-1.38
-1.34
-1.42
-1.465
-1.435
-1.405
-1.37
-1.37
-1.35
-1.325
-1.27
-1.235
-1.295
-1.35
-1.41
-1.4
-1.37
-1.325
-1.285
-1.31
-1.405
-1.25
-1.22
-1.21
-1.295
-1.435
-1.435
-1.4
-1.365
-1.33
-1.44
-1.43
-1.415
-1.365
-1.395
-1.465
-1.495
-1.38
-1.43
-1.41
-1.41
-1.455
-1.425
-1.455
-1.505
-1.485
-1.44
-1.355
-1.4
-1.5
-1.45
-1.475
-1.4
-1.42
-1.455
-1.41
-1.34
-1.395
-1.52
-1.44
-1.5
-1.42
-1.405
-1.38
-1.42
-1.435
-1.47
-1.44
-1.35
-1.29
-1.34
-1.225
-1.17
-1.095
-0.995
-0.995
-0.92
-0.91
-1.06
-1.145
-1.25
-1.29
-1.32
-1.495
-1.555
-1.62
-1.575
-1.55
-1.525
-1.495
-1.46
-1.49
-1.495
-1.505
-1.45
-1.39
-1.36
-1.41
-1.4
-1.415
-1.4
-1.395
-1.425
-1.425
-1.36
-1.39
-1.425
-1.445
-1.455
-1.44
-1.49
-1.425
-1.415
-1.42
-1.425
-1.405
-1.39
-1.41
-1.445
-1.475
-1.43
-1.405
-1.42
-1.43
-1.465
-1.44
-1.39
-1.375
-1.395
-1.465
-1.49
-1.405
-1.39
-1.38
-1.34
-1.435
-1.445
-1.41
-1.42
-1.435
-1.48
-1.455
-1.35
-1.395
-1.425
-1.425
-1.43
-1.43
-1.415
-1.385
-1.405
-1.435
-1.345
-1.41
-1.415
-1.35
-1.34
-1.35
-1.37
-1.38
-1.36
-1.365
-1.305
-1.305
-1.29
-1.335
-1.365
-1.305
-1.345
-1.33
-1.37
-1.375
-1.31
-1.32
-1.295
-1.285
-1.255
-1.295
-1.33
-1.3
-1.265
-1.35
-1.35
-1.345
-1.335
-1.28
-1.34
-1.37
-1.32
-1.4
-1.37
-1.345
-1.405
-1.37
-1.385
-1.415
-1.43
-1.46
-1.455
-1.46
-1.465
-1.565
-1.55
-1.48
-1.48
-1.485
-1.515
-1.59
-1.515
-1.535
-1.58
-1.6
-1.56
-1.555
-1.545
-1.605
-1.61
-1.58
-1.595
-1.605
-1.625
-1.545
-1.58
-1.605
-1.61
-1.595
-1.63
-1.63
-1.62
-1.575
-1.565
-1.6
-1.62
-1.59
-1.595
-1.63
-1.59
-1.625
-1.665
-1.585
-1.57
-1.57
-1.585
-1.62
-1.64
-1.625
-1.66
-1.6
-1.62
-1.6
-1.575
-1.59
-1.63
-1.62
-1.595
-1.545
-1.555
-1.525
-1.6
-1.585
-1.57
-1.575
-1.6
-1.585
-1.575
-1.57
-1.615
-1.61
-1.565
-1.58
-1.585
-1.59
-1.56
-1.53
-1.555
-1.575
-1.53
-1.525
-1.515
-1.495
-1.5
-1.555
-1.58
-1.54
-1.565
-1.53
-1.54
-1.54
-1.585
-1.54
-1.485
-1.525
-1.455
-1.455
-1.455
-1.46
-1.555
-1.48
-1.49
-1.5
-1.525
-1.535
-1.52
-1.57
-1.57
-1.575
-1.565
-1.58
-1.545
-1.565
-1.575
-1.58
-1.575
-1.59
-1.625
-1.565
-1.59
-1.555
-1.61
-1.59
-1.615
-1.62
-1.585
-1.585
-1.6
-1.59
-1.6
-1.585
-1.64
-1.605
-1.62
-1.63
-1.69
-1.655
-1.605
-1.615
-1.615
-1.61
-1.605
-1.645
-1.62
-1.58
-1.505
-1.445
-1.365
-1.285
-1.22
-1.065
-0.99
-0.98
-0.91
-0.97
-1.17
-1.34
-1.49
-1.595
-1.775
-1.825
-1.885
-1.77
-1.705
-1.705
-1.695
-1.605
-1.655
-1.685
-1.66
-1.62
-1.61
-1.615
-1.625
-1.675
-1.65
-1.625
-1.64
-1.645
-1.675
-1.64
-1.65
-1.665
-1.65
-1.65
-1.65
-1.66
-1.69
-1.695
-1.605
-1.655
-1.65
-1.7
-1.69
-1.595
-1.61
-1.655
-1.645
-1.665
-1.66
-1.64
-1.67
-1.65
-1.59
-1.63
-1.655
-1.595
-1.655
-1.7
-1.715
-1.675
-1.58
-1.63
-1.625
-1.67
-1.66
-1.66
-1.655
-1.665
-1.645
-1.67
-1.66
-1.645
-1.63
-1.61
-1.625
-1.62
-1.615
-1.585
-1.61
-1.595
-1.655
-1.62
-1.53
-1.575
-1.575
-1.515
-1.54
-1.515
-1.515
-1.545
-1.57
-1.55
-1.57
-1.565
-1.595
-1.57
-1.52
-1.53
-1.545
-1.475
-1.465
-1.495
-1.505
-1.555
-1.545
-1.6
-1.55
-1.535
-1.55
-1.555
-1.525
-1.55
-1.535
-1.49
-1.495
-1.525
-1.58
-1.625
-1.61
-1.58
-1.57
-1.69
-1.745
-1.72
-1.64
-1.65
-1.675
-1.745
-1.67
-1.695
-1.785
-1.78
-1.8
-1.775
-1.75
-1.765
-1.815
-1.815
-1.78
-1.7
-1.69
-1.795
-1.79
-1.84
-1.825
-1.845
-1.81
-1.755
-1.785
-1.835
-1.84
-1.79
-1.74
-1.825
-1.81
-1.82
-1.81
-1.845
-1.83
-1.765
-1.81
-1.86
-1.815
-1.745
-1.78
-1.8
-1.76
-1.785
-1.76
-1.735
-1.745
-1.745
-1.74
-1.78
-1.84
-1.8
-1.755
-1.78
-1.77
-1.795
-1.84
-1.785
-1.815
-1.745
-1.74
-1.765
-1.765
-1.77
-1.75
-1.725
-1.695
-1.695
-1.76
-1.775
-1.745
-1.78
-1.75
-1.72
-1.705
-1.665
-1.685
-1.715
-1.74
-1.63
-1.665
-1.71
-1.74
-1.695
-1.725
-1.735
-1.745
-1.75
-1.675
-1.66
-1.695
-1.69
-1.67
-1.68
-1.635
-1.71
-1.68
-1.725
-1.73
-1.705
-1.705
-1.79
-1.81
-1.76
-1.73
-1.725
-1.715
-1.735
-1.785
-1.69
-1.81
-1.79
-1.75
-1.78
-1.88
-1.785
-1.8
-1.735
-1.755
-1.795
-1.855
-1.79
-1.795
-1.805
-1.77
-1.74
-1.8
-1.795
-1.805
-1.78
-1.79
-1.79
-1.805
-1.765
-1.795
-1.8
-1.805
-1.77
-1.785
-1.78
-1.755
-1.93
-1.775
-1.73
-1.61
-1.54
-1.405
-1.355
-1.225
-1.16
-1.075
-1.05
-1.135
-1.26
-1.33
-1.44
-1.62
-1.755
-1.885
-2.005
-1.995
-1.905
-1.935
-1.945
-1.925
-1.88
-1.83
-1.78
-1.73
-1.74
-1.745
-1.795
-1.835
-1.86
-1.825
-1.765
-1.805
-1.83
-1.77
-1.71
-1.705
-1.755
-1.795
-1.79
-1.855
-1.8
-1.83
-1.78
-1.81
-1.785
-1.76
-1.785
-1.8
-1.735
-1.74
-1.85
-1.775
-1.78
-1.795
-1.78
-1.74
-1.7
-1.77
-1.785
-1.79
-1.71
-1.75
-1.755
-1.835
-1.775
-1.715
-1.695
-1.725
-1.82
-1.8
-1.815
-1.75
-1.695
-1.69
-1.755
-1.805
-1.75
-1.715
-1.71
-1.71
-1.755
-1.695
-1.695
-1.715
-1.73
-1.715
-1.735
-1.705
-1.685
-1.7
-1.695
-1.625
-1.61
-1.675
-1.67
-1.72
-1.68
-1.655
-1.64
-1.665
-1.685
-1.62
-1.645
-1.645
-1.615
-1.6
-1.65
-1.655
-1.645
-1.605
-1.645
-1.64
-1.62
-1.64
-1.655
-1.61
-1.62
-1.595
-1.59
-1.625
-1.685
-1.69
-1.75
-1.695
-1.685
-1.705
-1.76
-1.745
-1.785
-1.77
-1.78
-1.745
-1.78
-1.79
-1.775
-1.84
-1.82
-1.84
-1.79
-1.82
-1.8
-1.85
-1.785
-1.83
-1.865
-1.84
-1.9
-1.825
-1.805
-1.84
-1.81
-1.825
-1.86
-1.87
-1.82
-1.84
-1.82
-1.825
-1.775
-1.825
-1.79
-1.81
-1.89
-1.91
-1.87
-1.86
-1.86
-1.845
-1.83
-1.8
-1.84
-1.8
-1.81
-1.815
-1.855
-1.87
-1.845
-1.79
-1.76
-1.875
-1.815
-1.775
-1.81
-1.835
-1.85
-1.81
-1.81
-1.82
-1.845
-1.855
-1.86
-1.81
-1.81
-1.745
-1.795
-1.835
-1.89
-1.8
-1.785
-1.77
-1.79
-1.825
-1.8
-1.785
-1.765
-1.78
-1.76
-1.755
-1.74
-1.865
-1.83
-1.81
-1.775
-1.74
-1.77
-1.825
-1.79
-1.775
-1.77
-1.785
-1.805
-1.76
-1.745
-1.735
-1.74
-1.72
-1.815
-1.78
-1.73
-1.825
-1.815
-1.85
-1.875
-1.87
-1.9
-1.895
-1.925
-1.925
-1.845
-1.85
-1.805
-1.825
-1.845
-1.85
-1.87
-1.89
-1.89
-1.85
-1.88
-1.91
-1.895
-1.825
-1.835
-1.88
-1.88
-1.83
-1.855
-1.9
-1.99
-1.91
-1.905
-1.86
-1.9
-1.915
-1.885
-1.89
-1.895
-1.95
-1.91
-1.94
-1.845
-1.79
-1.66
-1.58
-1.5
-1.435
-1.33
-1.28
-1.22
-1.165
-1.255
-1.47
-1.52
-1.65
-1.78
-1.915
-2.05
-2.09
-2.035
-1.975
-1.935
-1.91
-1.94
-1.99
-1.955
-1.91
-1.9
-1.92
-1.9
-1.885
-1.89
-1.84
-1.845
-1.86
-1.85
-1.86
-1.865
-1.85
-1.83
-1.825
-1.825
-1.875
-1.865
-1.88
-1.92
-1.9
-1.9
-1.885
-1.885
-1.86
-1.82
-1.835
-1.895
-1.885
-1.915
-1.9
-1.91
-1.915
-1.88
-1.905
-1.825
-1.815
-1.905
-1.91
-1.86
-1.9
-1.93
-1.885
-1.865
-1.855
-1.865
-1.865
-1.895
-1.805
-1.885
-1.895
-1.85
-1.855
-1.88
-1.87
-1.885
-1.805
-1.77
-1.78
-1.91
-1.865
-1.84
-1.845
-1.865
-1.89
-1.81
-1.77
-1.74
-1.735
-1.825
-1.85
-1.79
-1.72
-1.69
-1.68
-1.71
-1.815
-1.78
-1.8
-1.765
-1.785
-1.72
-1.72
-1.68
-1.735
-1.775
-1.72
-1.685
-1.745
-1.725
-1.735
-1.77
-1.765
-1.76
-1.765
-1.8
-1.78
-1.77
-1.79
-1.79
-1.85
-1.845
-1.865
-1.795
-1.785
-1.855
-1.91
-1.91
-1.91
-1.92
-1.915
-1.955
-1.955
-1.93
-1.955
-1.925
-1.95
-1.95
-1.975
-1.91
-1.95
-1.97
-2.025
-1.975
-1.945
-1.975
-1.975
-1.945
-1.99
-1.975
-1.995
-2.005
-1.945
-1.94
-1.985
-1.955
-1.92
-1.92
-2.005
-1.97
-2.015
-1.96
-1.965
-1.99
-1.99
-1.98
-1.945
-2.0
-1.99
-1.985
-2.0
-1.96
-2.0
-2.0
-1.97
-1.96
-1.95
-1.99
-2.02
-2.0
-2.01
-1.965
-1.92
-1.96
-1.95
-2.1
-1.935
-2.015
-2.015
-1.995
-1.965
-1.96
-1.955
-1.93
-1.915
-1.945
-1.975
-2.015
-2.015
-1.98
-1.89
-1.895
-1.975
-1.95
-1.89
-1.94
-1.9
-1.97
-1.965
-1.98
-1.895
-1.915
-1.905
-1.925
-1.85
-1.92
-1.93
-1.92
-1.92
-2.065
-2.0
-1.97
-1.955
-1.945
-1.925
-1.92
-1.99
-1.995
-1.985
-2.045
-2.045
-2.07
-2.045
-2.075
-2.01
-2.0
-2.03
-2.025
-2.0
-1.985
-2.06
-2.06
-2.11
-2.075
-2.005
-2.05
-2.025
-2.085
-2.095
-2.08
-2.07
-2.085
-2.09
-2.04
-2.01
-2.09
-2.085
-2.06
-1.96
-1.975
-2.06
-2.005
-2.005
-2.025
-2.01
-2.02
-2.01
-2.03
-1.985
-2.02
-1.96
-1.845
-1.685
-1.605
-1.52
-1.405
-1.29
-1.255
-1.08
-0.995
-1.22
-1.385
-1.55
-1.74
-1.915
-2.11
-2.17
-2.135
-2.04
-2.05
-2.08
-2.095
-2.07
-2.055
-2.01
-1.92
-1.96
-1.975
-1.935
-1.98
-1.96
-1.975
-1.985
-2.015
-1.97
-1.995
-1.995
-1.965
-2.0
-1.97
-1.975
-2.0
-1.965
-1.96
-1.97
-1.96
-1.955
-2.025
-1.97
-1.985
-1.96
-1.99
-1.94
-1.96
-1.9
-1.91
-1.935
-1.905
-1.855
-1.87
-1.945
-1.95
-1.94
-1.885
-1.89
-1.93
-1.925
-1.86
-1.91
-1.84
-1.96
-1.93
-1.895
-1.83
-1.815
-1.875
-1.925
-1.915
-1.94
-1.82
-1.84
-1.825
-1.89
-1.795
-1.83
-1.865
-1.88
-1.825
-1.79
-1.865
-1.845
-1.845
-1.82
-1.795
-1.79
-1.805
-1.775
-1.765
-1.66
-1.755
-1.745
-1.745
-1.74
-1.725
-1.75
-1.765
-1.755
-1.765
-1.755
-1.755
-1.71
-1.645
-1.71
-1.77
-1.79
-1.75
-1.725
-1.74
-1.72
-1.74
-1.75
-1.755
-1.755
-1.785
-1.8
-1.82
-1.825
-1.815
-1.78
-1.845
-1.865
-1.835
-1.875
-1.845
-1.95
-1.89
-2.01
-1.935
-1.885
-1.93
-1.905
-1.89
-1.885
-1.92
-1.95
-1.935
-1.91
-1.895
-1.915
-1.9
-1.91
-1.92
-1.905
-1.915
-1.91
-1.87
-1.83
-1.87
-1.935
-1.94
-1.915
-1.925
-1.95
-1.98
-1.905
-1.88
-1.915
-1.95
-1.965
-1.94
-1.865
-1.895
-1.965
-1.93
-1.895
-1.97
-1.93
-1.91
-1.875
-1.9
-1.925
-1.86
-1.895
-1.91
-1.89
-1.91
-1.87
-1.905
-1.915
-1.925
-1.945
-1.865
-1.91
-1.88
-1.88
-1.91
-1.93
-1.965
-1.925
-1.875
-1.86
-1.895
-1.89
-1.94
-1.87
-1.915
-1.89
-1.895
-1.875
-1.945
-1.86
-1.835
-1.855
-1.85
-1.87
-1.925
-1.91
-1.85
-1.86
-1.825
-1.845
-1.89
-1.9
-1.855
-1.89
-1.855
-1.815
-1.805
-1.85
-1.77
-1.85
-1.815
-1.865
-1.92
-1.855
-1.79
-1.76
-1.76
-1.83
-1.845
-1.825
-1.85
-1.835
-1.805
-1.855
-1.885
-1.92
-1.87
-1.925
-1.905
-1.855
-1.855
-1.865
-1.835
-1.84
-1.87
-1.87
-1.92
-1.9
-1.92
-1.91
-1.92
-1.875
-1.895
-1.865
-1.895
-1.88
-1.885
-1.865
-1.905
-1.87
-1.865
-1.885
-1.94
-1.945
-1.925
-1.9
-1.92
-1.885
-1.905
-1.855
-1.805
-1.825
-1.87
-1.895
-1.925
-1.865
-1.77
-1.775
-1.68
-1.54
-1.435
-1.38
-1.335
-1.295
-1.27
-1.295
-1.465
-1.56
-1.655
-1.755
-1.85
-1.94
-2.005
-2.015
-1.955
-1.955
-1.975
-1.885
-1.905
-1.895
-1.94
-1.925
-1.82
-1.835
-1.905
-1.9
-1.875
-1.925
-1.945
-1.895
-1.875
-1.86
-1.85
-1.875
-1.83
-1.865
-1.895
-1.855
-1.955
-1.935
-1.89
-1.88
-1.84
-1.845
-1.89
-1.905
-1.87
-1.83
-1.855
-1.87
-1.9
-1.905
-1.87
-1.865
-1.845
-1.855
-1.88
-1.86
-1.795
-1.88
-1.865
-1.875
-1.87
-1.88
-1.93
-1.875
-1.855
-1.82
-1.845
-1.915
-1.905
-1.86
-1.85
-1.805
-1.855
-1.855
-1.885
-1.84
-1.85
-1.835
-1.845
-1.82
-1.845
-1.835
-1.825
-1.845
-1.82
-1.755
-1.75
-1.76
-1.73
-1.745
-1.745
-1.76
-1.765
-1.735
-1.71
-1.725
-1.73
-1.765
-1.785
-1.79
-1.7
-1.75
-1.72
-1.65
-1.675
-1.675
-1.71
-1.715
-1.74
-1.71
-1.715
-1.74
-1.735
-1.74
-1.74
-1.77
-1.755
-1.85
-1.78
-1.785
-1.78
-1.81
-1.815
-1.82
-1.89
-1.85
-1.875
-1.945
-1.91
-1.885
-1.915
-1.92
-1.955
-1.895
-1.97
-1.965
-1.97
-1.97
-1.905
-1.96
-1.955
-1.955
-1.975
-1.97
-1.995
-1.975
-1.94
-1.935
-1.95
-1.985
-1.955
-1.935
-1.975
-1.955
-2.02
-2.0
-2.005
-2.0
-1.97
-1.97
-2.01
-1.975
-2.0
-1.99
-1.965
-1.95
-1.94
-1.995
-1.945
-1.965
-1.955
-1.92
-1.955
-2.025
-1.995
-1.915
-1.94
-1.93
-1.975
-1.975
-1.995
-2.035
-1.96
-2.025
-2.04
-1.94
-1.95
-2.0
-1.96
-1.935
-1.945
-1.99
-2.005
-1.955
-1.97
-1.93
-1.945
-1.945
-2.0
-1.975
-1.965
-1.895
-1.93
-1.92
-1.935
-1.98
-1.965
-1.96
-1.92
-1.93
-1.955
-1.945
-1.935
-1.95
-1.92
-1.89
-1.9
-1.94
-1.89
-1.905
-1.95
-1.935
-1.93
-1.84
-1.865
-1.885
-1.895
-1.885
-2.005
-1.945
-1.965
-1.985
-1.93
-1.94
-1.935
-1.975
-1.96
-1.98
-2.0
-2.03
-1.995
-1.965
-2.005
-2.005
-2.01
-2.005
-1.96
-1.945
-1.96
-1.985
-2.04
-1.98
-1.975
-1.98
-1.96
-1.98
-1.955
-1.945
-1.98
-1.96
-1.955
-1.955
-2.015
-2.005
-1.955
-1.965
-1.965
-2.025
-1.995
-2.015
-2.04
-2.03
-2.005
-2.03
-1.935
-1.925
-1.87
-1.77
-1.66
-1.56
-1.515
-1.47
-1.41
-1.33
-1.385
-1.515
-1.625
-1.745
-1.875
-1.95
-2.125
-2.13
-2.115
-2.02
-1.98
-1.985
-1.99
-1.935
-1.98
-1.99
-1.93
-1.945
-1.95
-1.935
-1.93
-1.895
-1.91
-1.96
-1.97
-1.98
-1.925
-1.955
-1.955
-1.92
-1.96
-1.97
-1.945
-1.905
-1.885
-1.9
-1.905
-1.91
-1.93
-1.935
-1.975
-1.975
-1.915
-1.875
-1.93
-1.93
-1.855
-1.905
-1.935
-1.94
-1.905
-1.925
-1.84
-1.905
-1.935
-1.91
-1.905
-1.89
-1.935
-1.935
-1.895
-1.885
-1.885
-1.885
-1.86
-1.9
-1.9
-1.86
-1.865
-1.855
-1.895
-1.84
-1.855
-1.87
-1.905
-1.875
-1.82
-1.865
-1.885
-1.83
-1.81
-1.86
-1.86
-1.845
-1.8
-1.795
-1.815
-1.795
-1.79
-1.83
-1.785
-1.77
-1.77
-1.78
-1.77
-1.735
-1.765
-1.765
-1.75
-1.765
-1.795
-1.805
-1.77
-1.775
-1.765
-1.69
-1.725
-1.785
-1.775
-1.73
-1.77
-1.825
-1.82
-1.855
-1.89
-1.845
-1.875
-1.885
-1.93
-1.875
-1.94
-1.935
-1.925
-1.95
-1.93
-1.98
-1.955
-1.99
-1.95
-1.965
-1.95
-1.99
-1.99
-2.015
-2.01
-2.01
-2.02
-2.0
-2.02
-1.985
-1.98
-1.965
-1.985
-2.02
-2.055
-1.99
-1.99
-2.005
-2.04
-2.03
-2.005
-2.01
-2.02
-2.02
-2.05
-2.06
-2.02
-2.045
-2.05
-2.055
-2.01
-2.04
-2.035
-2.045
-2.045
-2.045
-2.025
-2.03
-1.99
-2.025
-1.98
-2.01
-2.0
-1.99
-2.045
-2.02
-2.06
-2.045
-2.085
-2.09
-2.0
-1.985
-2.0
-2.025
-2.04
-2.01
-2.05
-2.015
-2.025
-1.995
-2.06
-2.03
-2.02
-2.03
-2.045
-2.045
-2.065
-2.035
-1.955
-1.985
-2.025
-2.01
-2.065
-2.025
-2.025
-2.04
-2.04
-2.0
-2.055
-2.025
-2.01
-1.94
-2.02
-2.04
-2.04
-2.065
-2.06
-2.045
-2.025
-1.97
-1.96
-2.03
-2.045
-2.035
-2.01
-2.015
-2.055
-2.015
-2.04
-2.005
-1.985
-2.005
-2.035
-2.03
-1.935
-1.965
-1.95
-1.98
-1.985
-2.025
-2.0
-1.985
-1.915
-1.92
-1.97
-1.91
-1.965
-1.955
-1.935
-1.945
-1.975
-2.025
-1.975
-2.0
-2.0
-2.025
-2.04
-2.075
-2.04
-2.085
-2.09
-2.06
-2.065
-2.11
-2.1
-2.07
-2.085
-2.09
-2.06
-2.1
-2.09
-2.11
-2.035
-2.04
-2.09
-2.085
-2.095
-2.085
-2.075
-2.04
-2.07
-2.065
-2.06
-2.09
-2.08
-2.085
-2.11
-2.08
-2.105
-2.045
-2.045
-2.125
-2.12
-2.115
-2.16
-2.135
-2.105
-2.055
-2.005
-1.87
-1.74
-1.68
-1.545
-1.415
-1.3
-1.255
-1.27
-1.29
-1.475
-1.625
-1.815
-1.96
-2.165
-2.295
-2.275
-2.18
-2.115
-2.165
-2.15
-2.07
-2.025
-2.045
-2.03
-2.05
-2.06
-2.095
-2.1
-2.1
-2.095
-2.115
-2.07
-2.115
-2.105
-2.075
-2.085
-2.09
-2.025
-2.065
-2.095
-2.075
-2.065
-2.075
-2.075
-2.13
-2.1
-2.05
-2.07
-2.085
-2.08
-2.025
-2.035
-2.025
-2.065
-2.06
-2.0
-2.0
-2.015
-2.05
-2.04
-2.055
-2.07
-2.0
-1.995
-2.01
-2.05
-2.085
-2.085
-2.06
-2.045
-2.06
-2.095
-2.065
-2.035
-1.975
-2.0
-2.03
-1.97
-1.99
-2.045
-2.02
-1.97
-1.91
-1.95
-1.955
-2.025
-2.035
-1.995
-2.015
-1.96
-1.905
-1.92
-1.895
-1.855
-1.9
-1.925
-1.915
-1.875
-1.92
-1.955
-1.94
-1.91
-1.9
-1.86
-1.88
-1.895
-1.83
-1.855
-1.805
-1.865
-1.87
-1.89
-1.88
-1.84
-1.875
-1.87
-1.845
-1.875
-1.85
-1.895
-1.93
-1.9
-1.88
-1.94
-1.95
-1.965
-1.93
-1.945
-1.985
-1.945
-1.945
-2.02
-2.07
-2.015
-2.065
-2.07
-2.045
-2.04
-2.035
-2.04
-2.13
-2.095
-2.095
-2.1
-2.065
-2.105
-2.125
-2.08
-2.085
-2.035
-2.075
-2.125
-2.12
-2.085
-2.08
-2.11
-2.105
-2.13
-2.085
-2.16
-2.06
-2.09
-2.115
-2.09
-2.075
-2.115
-2.135
-2.105
-2.125
-2.095
-2.13
-2.13
-2.13
-2.07
-2.125
-2.15
-2.105
-2.14
-2.1
-2.07
-2.085
-2.08
-2.12
-2.105
-2.11
-2.105
-2.115
-2.105
-2.095
-2.155
-2.055
-2.095
-2.055
-2.055
-2.11
-2.1
-2.105
-2.07
-2.025
-2.045
-2.055
-2.03
-2.065
-2.11
-2.06
-2.065
-2.095
-2.07
-2.09
-2.05
-2.04
-2.12
-2.095
-2.08
-2.085
-2.125
-2.12
-2.08
-2.095
-2.05
-2.045
-2.105
-2.125
-2.095
-2.045
-2.08
-2.055
-2.06
-2.065
-2.085
-2.095
-2.09
-2.035
-2.07
-2.085
-2.07
-2.085
-2.075
-2.055
-2.04
-2.085
-2.1
-2.085
-2.12
-2.08
-2.04
-2.04
-2.055
-2.03
-2.015
-2.05
-2.025
-2.03
-1.98
-2.075
-2.075
-2.045
-2.09
-1.99
-2.01
-2.065
-2.035
-2.1
-2.035
-2.015
-2.015
-2.01
-2.015
-1.975
-2.015
-2.02
-1.965
-1.945
-1.98
-2.025
-1.985
-1.995
-1.975
-1.955
-2.01
-2.025
-2.065
-2.075
-2.055
-2.01
-1.99
-2.08
-2.1
-1.995
-1.985
-2.01
-2.085
-2.065
-2.05
-2.085
-2.055
-2.04
-2.05
-2.055
-2.08
-2.025
-2.04
-2.01
-2.06
-2.07
-2.11
-2.09
-2.05
-2.02
-1.985
-2.01
-2.075
-2.095
-2.065
-2.0
-2.065
-2.07
-2.055
-2.11
-2.04
-2.04
-2.09
-2.065
-2.045
-2.06
-2.025
-2.025
-1.96
-1.825
-1.71
-1.68
-1.58
-1.515
-1.465
-1.355
-1.3
-1.395
-1.615
-1.71
-1.785
-1.94
-2.065
-2.185
-2.21
-2.155
-2.155
-2.135
-2.1
-2.075
-2.06
-2.065
-2.025
-2.045
-2.035
-2.03
-1.995
-1.99
-1.96
-2.025
-2.01
-2.035
-2.015
-2.02
-1.98
-2.025
-2.09
-2.045
-2.005
-1.95
-2.005
-2.015
-1.995
-1.945
-2.02
-2.005
-2.01
-2.04
-1.955
-2.005
-2.02
-1.98
-2.01
-1.97
-2.035
-2.02
-2.0
-1.955
-1.985
-1.97
-1.995
-2.0
-1.97
-1.985
-1.985
-1.99
-2.005
-1.945
-1.995
-1.975
-1.94
-1.975
-2.015
-1.92
-2.005
-1.97
-1.955
-1.96
-1.945
-1.95
-1.95
-1.935
-1.915
-1.91
-1.97
-1.945
-1.95
-1.96
-1.9
-1.92
-1.915
-1.905
-1.915
-1.9
-1.885
-1.9
-1.845
-1.825
-1.88
-1.925
-1.895
-1.855
-1.83
-1.825
-1.865
-1.875
-1.875
-1.875
-1.845
-1.815
-1.795
-1.855
-1.855
-1.825
-1.82
-1.87
-1.875
-1.895
-1.89
-1.865
-1.825
-1.9
-1.92
-1.955
-1.885
-1.935
-1.89
-1.975
-1.965
-1.985
-2.035
-1.965
-2.025
-2.055
-2.08
-2.11
-2.06
-2.04
-2.055
-2.06
-2.105
-2.115
-2.055
-2.07
-2.085
-2.075
-2.18
-2.12
-2.055
-2.1
-2.105
-2.155
-2.14
-2.075
-2.12
-2.105
-2.145
-2.165
-2.15
-2.16
-2.17
-2.12
-2.07
-2.145
-2.09
-2.09
-2.18
-2.195
-2.125
-2.09
-2.11
-2.135
-2.13
-2.135
-2.115
-2.145
-2.095
-2.095
-2.185
-2.135
-2.145
-2.075
-2.105
-2.085
-2.115
-2.135
-2.11
-2.065
-2.095
-2.135
-2.145
-2.14
-2.075
-2.135
-2.14
-2.085
-2.07
-2.105
-2.1
-2.11
-2.105
-2.14
-2.105
-2.075
-2.12
-2.125
-2.09
-2.075
-2.105
-2.12
-2.12
-2.115
-2.125
-2.145
-2.155
-2.135
-2.13
-2.155
-2.14
-2.1
-2.09
-2.12
-2.15
-2.175
-2.1
-2.1
-2.125
-2.11
-2.155
-2.115
-2.11
-2.13
-2.075
-2.105
-2.095
-2.11
-2.105
-2.095
-2.035
-2.055
-2.105
-2.105
-2.075
-2.04
-2.065
-2.025
-2.11
-2.12
-2.05
-2.04
-2.055
-2.03
-2.075
-2.075
-2.095
-2.115
-2.09
-2.045
-2.075
-2.145
-2.145
-2.15
-2.155
-2.165
-2.13
-2.145
-2.175
-2.215
-2.2
-2.18
-2.19
-2.155
-2.135
-2.145
-2.15
-2.18
-2.16
-2.15
-2.12
-2.13
-2.16
-2.275
-2.155
-2.155
-2.2
-2.135
-2.21
-2.185
-2.195
-2.21
-2.18
-2.185
-2.235
-2.18
-2.18
-2.15
-2.13
-2.115
-2.21
-2.275
-2.255
-2.24
-2.21
-2.23
-2.125
-2.015
-1.91
-1.83
-1.68
-1.61
-1.535
-1.42
-1.34
-1.385
-1.455
-1.66
-1.815
-1.925
-2.13
-2.325
-2.35
-2.29
-2.19
-2.215
-2.185
-2.235
-2.235
-2.185
-2.17
-2.145
-2.155
-2.12
-2.135
-2.145
-2.145
-2.175
-2.18
-2.13
-2.165
-2.13
-2.145
-2.15
-2.2
-2.205
-2.16
-2.11
-2.12
-2.12
-2.19
-2.13
-2.09
-2.11
-2.125
-2.175
-2.18
-2.155
-2.15
-2.105
-2.075
-2.12
-2.135
-2.095
-2.105
-2.06
-2.085
-2.07
-2.165
-2.145
-2.065
-2.145
-2.105
-2.05
-2.065
-2.115
-2.135
-2.06
-2.075
-2.135
-2.105
-2.08
-2.09
-2.07
-2.07
-2.03
-2.04
-2.06
-2.07
-2.065
-2.04
-2.04
-2.07
-2.02
-2.05
-1.995
-1.995
-2.0
-2.02
-2.0
-1.975
-2.01
-1.94
-1.945
-1.955
-1.955
-1.99
-1.975
-1.955
-1.955
-1.92
-1.89
-1.965
-1.945
-1.93
-1.93
-1.945
-1.955
-1.95
-1.965
-1.875
-1.895
-1.9
-1.875
-1.91
-1.94
-1.97
-1.945
-1.95
-1.965
-1.995
-1.98
-1.985
-2.005
-1.985
-2.0
-2.05
-2.04
-2.02
-2.06
-2.115
-2.095
-2.115
-2.11
-2.13
-2.115
-2.13
-2.175
-2.165
-2.135
-2.17
-2.12
-2.105
-2.115
-2.165
-2.18
-2.135
-2.17
-2.135
-2.11
-2.135
-2.15
-2.105
-2.11
-2.11
-2.14
-2.19
-2.13
-2.115
-2.135
-2.135
-2.105
-2.165
-2.145
-2.155
-2.13
-2.15
-2.155
-2.11
-2.115
-2.11
-2.13
-2.145
-2.12
-2.18
-2.165
-2.185
-2.18
-2.155
-2.175
-2.165
-2.12
-2.065
-2.13
-2.13
-2.15
-2.18
-2.13
-2.135
-2.125
-2.135
-2.03
-2.175
-2.16
-2.13
-2.065
-2.07
-2.13
-2.145
-2.085
-2.135
-2.135
-2.13
-2.08
-2.075
-2.125
-2.165
-2.14
-2.115
-2.12
-2.145
-2.105
-2.095
-2.115
-2.125
-2.14
-2.13
-2.215
-2.125
-2.08
-2.12
-2.14
-2.075
-2.09
-2.105
-2.115
-2.15
-2.125
-2.11
-2.08
-2.075
-2.095
-2.07
-2.105
-2.105
-2.11
-2.095
-2.075
-2.095
-2.09
-2.135
-2.115
-2.18
-2.08
-2.06
-2.1
-2.1
-2.06
-2.08
-2.08
-2.12
-2.105
-2.12
-2.1
-2.045
-2.09
-2.04
-2.035
-2.01
-2.06
-2.075
-2.015
-2.095
-2.085
-2.075
-2.1
-2.025
-2.13
-2.12
-2.085
-2.02
-2.065
-2.085
-2.09
-2.07
-1.99
-1.97
-2.06
-2.035
-2.04
-2.05
-2.025
-2.04
-2.05
-1.99
-2.04
-2.05
-2.065
-2.125
-2.085
-2.065
-2.125
-2.11
-2.1
-2.095
-2.13
-2.09
-2.095
-2.06
-2.03
-2.065
-2.105
-2.135
-2.145
-2.09
-2.075
-2.14
-2.11
-2.035
-2.055
-2.095
-2.07
-2.095
-2.105
-2.155
-2.1
-2.075
-2.095
-2.065
-2.09
-2.07
-2.075
-2.07
-2.055
-2.11
-2.095
-2.09
-2.09
-2.1
-2.095
-2.135
-2.135
-2.025
-1.865
-1.775
-1.715
-1.655
-1.52
-1.475
-1.41
-1.35
-1.49
-1.565
-1.685
-1.76
-1.935
-2.04
-2.21
-2.225
-2.185
-2.15
-2.11
-2.115
-2.135
-2.105
-2.075
-2.08
-2.04
-2.05
-2.065
-2.01
-2.05
-2.055
-2.05
-2.09
-2.05
-2.065
-2.055
-2.055
-2.03
-2.035
-2.075
-2.07
-2.04
-2.025
-2.06
-2.06
-2.035
-2.035
-2.0
-2.035
-2.04
-2.04
-2.085
-2.03
-2.015
-2.035
-2.025
-2.02
-2.03
-2.055
-2.04
-2.055
-2.02
-2.01
-2.07
-1.975
-1.98
-2.025
-2.03
-2.02
-1.995
-2.01
-2.04
-2.005
-2.03
-2.025
-2.005
-2.045
-2.045
-2.025
-1.955
-1.925
-1.94
-2.03
-1.995
-1.91
-1.99
-2.01
-2.055
-2.005
-1.96
-1.92
-1.92
-1.93
-2.055
-2.02
-1.875
-1.81
-1.86
-1.905
-1.87
-1.8
-1.83
-1.895
-1.835
-1.87
-1.885
-1.88
-1.87
-1.865
-1.87
-1.89
-1.825
-1.875
-1.865
-1.795
-1.785
-1.815
-1.875
-1.84
-1.84
-1.855
-1.89
-1.875
-1.87
-1.88
-1.915
-1.91
-1.925
-1.975
-1.955
-1.94
-2.035
-2.0
-2.01
-2.03
-2.025
-2.065
-2.03
-2.01
-2.045
-2.065
-2.075
-2.09
-2.085
-2.055
-2.065
-2.055
-2.09
-2.07
-2.115
-2.12
-2.045
-2.035
-2.075
-2.12
-2.12
-2.13
-2.16
-2.14
-2.085
-2.07
-2.14
-2.11
-2.105
-2.145
-2.06
-2.1
-2.13
-2.16
-2.09
-2.095
-2.085
-2.095
-2.115
-2.1
-2.1
-2.08
-2.09
-2.08
-2.07
-2.025
-2.115
-2.085
-2.075
-2.065
-2.04
-2.06
-2.08
-2.125
-2.105
-2.07
-2.085
-2.065
-2.05
-2.05
-2.06
-2.12
-2.09
-2.07
-2.055
-2.095
-2.12
-2.155
-2.04
-2.035
-2.055
-2.075
-2.1
-2.065
-2.11
-2.095
-2.105
-2.135
-2.085
-2.035
-2.04
-2.05
-2.11
-2.14
-2.12
-2.165
-2.085
-2.1
-2.085
-2.095
-2.07
-2.13
-2.105
-2.105
-2.11
-2.13
-2.115
-2.1
-2.09
-2.1
-2.11
-2.095
-2.075
-2.15
-2.105
-2.04
-2.065
-2.065
-2.05
-2.085
-2.11
-2.11
-2.03
-2.035
-2.015
-2.035
-2.075
-2.035
-2.01
-2.065
-2.085
-2.005
-2.04
-2.0
-2.0
-2.015
-2.035
-2.05
-2.035
-2.025
-2.09
-2.145
-2.105
-2.13
-2.16
-2.145
-2.11
-2.125
-2.12
-2.11
-2.095
-2.09
-2.09
-2.15
-2.115
-2.085
-2.075
-2.095
-2.13
-2.15
-2.135
-2.105
-2.135
-2.14
-2.15
-2.145
-2.115
-2.09
-2.15
-2.13
-2.11
-2.1
-2.14
-2.155
-2.15
-2.16
-2.145
-2.135
-2.12
-2.105
-2.175
-2.135
-2.115
-2.125
-2.1
-2.125
-2.1
-2.035
-1.865
-1.77
-1.675
-1.57
-1.415
-1.395
-1.35
-1.355
-1.47
-1.565
-1.7
-1.885
-2.055
-2.175
-2.3
-2.27
-2.24
-2.195
-2.135
-2.11
-2.16
-2.08
-2.115
-2.145
-2.12
-2.065
-2.1
-2.135
-2.14
-2.125
-2.055
-2.065
-2.07
-2.12
-2.065
-2.13
-2.045
-2.085
-2.1
-2.1
-2.085
-2.1
-2.065
-2.04
-2.07
-2.07
-2.085
-2.09
-2.1
-2.075
-2.11
-2.085
-2.035
-2.07
-2.115
-2.09
-2.045
-2.065
-2.05
-2.02
-2.07
-2.04
-2.085
-2.025
-2.11
-2.095
-2.035
-2.04
-2.0
-2.035
-2.02
-2.03
-2.035
-2.01
-2.05
-1.98
-2.005
-2.04
-2.04
-2.04
-2.025
-2.005
-1.98
-2.015
-1.98
-1.995
-2.01
-1.97
-2.0
-1.925
-1.965
-1.95
-1.92
-1.935
-1.875
-1.93
-1.935
-1.985
-1.985
-1.925
-1.905
-1.88
-1.855
-1.85
-1.91
-1.915
-1.885
-1.855
-1.855
-1.915
-1.875
-1.855
-1.89
-1.89
-1.845
-1.855
-1.865
-1.91
-1.91
-1.91
-1.865
-1.935
-1.94
-1.925
-1.96
-1.965
-1.945
-1.975
-2.045
-2.0
-2.04
-2.09
-2.065
-2.09
-2.08
-2.03
-2.055
-2.115
-2.095
-2.105
-2.12
-2.08
-2.09
-2.125
-2.105
-2.1
-2.105
-2.105
-2.145
-2.115
-2.09
-2.125
-2.165
-2.12
-2.125
-2.165
-2.165
-2.08
-2.085
-2.1
-2.15
-2.125
-2.12
-2.135
-2.14
-2.135
-2.065
-2.1
-2.17
-2.1
-2.105
-2.11
-2.16
-2.17
-2.13
-2.135
-2.075
-2.085
-2.095
-2.115
-2.175
-2.14
-2.14
-2.125
-2.125
-2.085
-2.125
-2.09
-2.09
-2.11
-2.16
-2.145
-2.11
-2.09
-2.08
-2.11
-2.1
-2.14
-2.115
-2.115
-2.14
-2.08
-2.095
-2.125
-2.07
-2.155
-2.12
-2.1
-2.055
-2.09
-2.105
-2.09
-2.06
-2.095
-2.11
-2.08
-2.125
-2.125
-2.125
-2.075
-2.08
-2.145
-2.115
-2.11
-2.115
-2.135
-2.16
-2.125
-2.065
-2.07
-2.105
-2.095
-2.145
-2.105
-2.075
-2.065
-2.085
-2.15
-2.125
-2.105
-2.125
-2.08
-2.13
-2.095
-2.065
-2.115
-2.15
-2.12
-2.11
-2.11
-2.095
-2.115
-2.155
-2.13
-2.1
-2.105
-2.11
-2.105
-2.11
-2.105
-2.085
-2.09
-2.105
-2.095
-2.16
-2.095
-2.08
-2.1
-2.09
-2.15
-2.135
-2.12
-2.085
-2.065
-2.13
-2.08
-2.105
-2.085
-2.075
-2.085
-2.095
-2.085
-2.12
-2.095
-2.09
-2.07
-2.135
-2.09
-2.035
-2.025
-2.055
-2.085
-2.03
-2.075
-2.135
-2.07
-2.055
-2.095
-1.965
-2.015
-2.0
-1.985
-2.015
-2.02
-2.005
-1.995
-2.025
-2.005
-1.97
-2.015
-2.055
-1.99
-2.01
-2.02
-2.025
-2.055
-2.06
-2.06
-2.03
-2.04
-2.095
-2.085
-2.065
-2.085
-2.1
-2.105
-2.14
-2.125
-2.06
-2.11
-2.07
-2.06
-2.065
-2.115
-2.065
-2.105
-2.12
-2.085
-2.055
-2.1
-2.09
-2.09
-2.055
-2.105
-2.13
-2.105
-2.095
-2.075
-2.115
-2.11
-2.085
-2.16
-2.085
-2.105
-2.115
-2.13
-2.105
-2.095
-2.11
-2.055
-1.995
-1.895
-1.805
-1.655
-1.545
-1.415
-1.34
-1.275
-1.14
-1.175
-1.34
-1.535
-1.72
-1.865
-2.065
-2.305
-2.335
-2.225
-2.14
-2.195
-2.11
-2.125
-2.11
-2.035
-2.035
-2.05
-2.025
-2.03
-2.11
-2.06
-2.03
-2.06
-2.06
-2.03
-2.03
-2.005
-2.045
-2.065
-2.075
-2.075
-2.01
-2.015
-2.03
-2.05
-2.02
-2.005
-2.02
-2.02
-2.01
-2.01
-2.0
-2.025
-2.045
-2.045
-2.02
-1.925
-1.975
-1.985
-1.99
-2.025
-2.02
-2.025
-2.01
-2.005
-2.005
-2.005
-1.995
-1.995
-1.95
-1.975
-1.99
-1.96
-1.93
-1.975
-1.95
-1.95
-1.945
-1.955
-1.9
-1.9
-1.995
-1.965
-1.985
-1.95
-1.9
-1.915
-1.905
-1.905
-1.865
-1.925
-1.895
-1.87
-1.875
-1.895
-1.915
-1.875
-1.86
-1.905
-1.86
-1.85
-1.83
-1.84
-1.79
-1.775
-1.82
-1.815
-1.83
-1.785
-1.78
-1.795
-1.78
-1.78
-1.82
-1.785
-1.75
-1.81
-1.765
-1.785
-1.755
-1.775
-1.835
-1.815
-1.795
-1.8
-1.815
-1.81
-1.84
-1.9
-1.895
-1.89
-1.85
-1.89
-1.905
-1.885
-1.895
-1.935
-1.97
-1.975
-1.99
-1.985
-1.955
-1.98
-2.01
-2.025
-2.0
-1.995
-2.015
-2.01
-2.01
-2.04
-2.065
-2.06
-2.03
-2.045
-2.015
-2.045
-2.045
-2.04
-2.045
-2.02
-2.055
-2.015
-2.005
-1.97
-2.065
-2.085
-2.02
-2.05
-2.04
-2.045
-2.055
-2.045
-2.035
-1.985
-1.975
-2.06
-2.09
-2.075
-2.03
-2.015
-2.02
-1.995
-2.025
-2.025
-2.055
-2.04
-2.09
-2.02
-1.96
-2.035
-2.025
-2.05
-2.04
-2.005
-1.995
-2.015
-2.0
-1.99
-1.985
-2.0
-2.025
-2.02
-1.995
-2.01
-2.04
-2.055
-2.01
-2.0
-1.96
-2.015
-2.005
-2.01
-2.025
-2.02
-1.99
-1.975
-1.98
-1.955
-2.03
-2.02
-1.99
-2.04
-2.01
-2.015
-1.985
-2.01
-1.995
-1.98
-1.965
-1.99
-1.995
-2.0
-2.0
-2.025
-2.02
-2.0
-2.04
-2.005
-2.02
-2.02
-2.08
-2.03
-1.97
-1.98
-2.005
-1.965
-1.99
-1.98
-1.99
-2.03
-2.01
-1.975
-1.99
-1.99
-2.015
-1.98
-2.06
-2.03
-2.0
-2.025
-2.02
-2.0
-1.955
-1.945
-1.975
-2.01
-2.025
-1.96
-1.98
-1.975
-2.035
-2.02
-1.995
-1.985
-1.96
-1.99
-1.975
-1.985
-2.01
-1.96
-1.95
-2.025
