# TIPE ECG 2021 - ECG-ID Database v1.0.0 par Physionet
# [N° de la personne, N° de l'enregistrement, Période d'échantillonnage, Prénom, Age, Sexe, Date de l'enregistrement]
[3, 4, 0.002, "Camille", 23, "F", "15.03.2005"]
-0.09
-0.155
-0.21
-0.18
0.025
0.18
0.265
0.335
0.25
0.09
-0.05
-0.18
-0.255
-0.225
-0.035
0.165
0.32
0.345
0.26
0.105
0.03
-0.13
-0.16
-0.045
0.105
0.285
0.295
0.29
0.315
0.195
-0.02
-0.11
-0.135
-0.13
0.11
0.285
0.39
0.43
0.345
0.21
-0.01
-0.12
-0.07
-0.025
0.14
0.35
0.455
0.44
0.41
0.19
0.02
-0.015
0.055
0.115
0.285
0.41
0.485
0.44
0.385
0.215
0.04
-0.05
-0.04
-0.01
0.18
0.355
0.47
0.41
0.355
0.165
-0.025
-0.12
-0.14
-0.125
0.05
0.225
0.33
0.28
0.255
0.11
-0.105
-0.2
-0.175
-0.115
0.04
0.155
0.285
0.275
0.21
-0.02
-0.235
-0.4
-0.28
-0.155
-0.01
0.145
0.225
0.21
0.16
-0.08
-0.225
-0.295
-0.31
-0.245
-0.05
0.11
0.245
0.26
0.155
-0.065
-0.2
-0.26
-0.225
-0.205
-0.01
0.105
0.21
0.2
0.11
-0.08
-0.18
-0.33
-0.295
-0.14
-0.01
0.175
0.18
0.12
0.025
-0.085
-0.25
-0.33
-0.3
-0.23
-0.03
0.12
0.175
0.155
0.095
-0.085
-0.305
-0.395
-0.36
-0.2
0.07
0.205
0.21
0.145
0.0
-0.185
-0.205
-0.225
-0.24
-0.13
0.055
0.14
0.175
0.145
-0.025
-0.235
-0.285
-0.375
-0.35
-0.1
0.15
0.19
0.19
0.11
-0.025
-0.185
-0.295
-0.31
-0.31
-0.175
0.065
0.165
0.14
0.115
-0.005
-0.235
-0.325
-0.265
-0.24
-0.095
0.08
0.15
0.12
0.1
-0.085
-0.295
-0.355
-0.33
-0.305
-0.06
0.125
0.195
0.155
0.085
-0.09
-0.195
-0.275
-0.335
-0.315
-0.16
0.12
0.205
0.175
0.175
-0.075
-0.27
-0.35
-0.285
-0.265
-0.13
0.055
0.165
0.195
0.16
-0.04
-0.19
-0.315
-0.375
-0.275
-0.08
0.07
0.12
0.075
0.08
-0.125
-0.285
-0.35
-0.325
-0.295
-0.08
0.075
0.24
0.22
0.095
-0.16
-0.245
-0.35
-0.285
-0.225
-0.06
0.07
0.155
0.17
0.105
-0.11
-0.255
-0.32
-0.325
-0.33
-0.145
0.01
0.105
0.155
0.095
-0.13
-0.3
-0.34
-0.325
-0.205
-0.03
0.135
0.15
0.09
0.02
-0.175
-0.31
-0.395
-0.345
-0.27
-0.02
0.17
0.21
0.125
-0.02
-0.195
-0.255
-0.315
-0.315
-0.245
-0.055
0.07
0.11
0.08
0.0
-0.13
-0.27
-0.395
-0.355
-0.21
0.02
0.135
0.185
0.12
0.005
-0.18
-0.28
-0.31
-0.295
-0.18
-0.01
0.105
0.16
0.095
-0.085
-0.2
-0.235
-0.245
-0.275
-0.135
0.045
0.2
0.185
0.135
-0.04
-0.22
-0.325
-0.345
-0.32
-0.21
-0.07
0.085
0.105
0.13
0.035
-0.19
-0.4
-0.425
-0.335
-0.185
0.005
0.13
0.15
0.11
-0.06
-0.225
-0.365
-0.355
-0.4
-0.18
-0.005
0.025
0.045
0.145
-0.05
-0.215
-0.255
-0.315
-0.36
-0.195
0.0
0.115
0.08
0.04
-0.095
-0.255
-0.335
-0.34
-0.33
-0.13
0.0
0.055
0.065
0.01
-0.16
-0.395
-0.445
-0.315
-0.15
0.13
0.33
0.595
0.75
0.79
0.605
0.435
0.435
0.465
0.58
0.745
0.785
0.575
0.405
0.235
0.035
-0.225
-0.34
-0.35
-0.28
-0.085
0.05
0.135
0.11
0.03
-0.14
-0.28
-0.335
-0.36
-0.24
0.0
0.15
0.145
0.095
0.015
-0.195
-0.39
-0.39
-0.33
-0.23
-0.095
0.015
0.14
0.14
0.01
-0.205
-0.32
-0.335
-0.315
-0.235
0.0
0.19
0.18
0.08
-0.06
-0.22
-0.365
-0.415
-0.285
-0.185
-0.05
0.03
0.12
0.085
-0.005
-0.135
-0.265
-0.3
-0.32
-0.2
-0.03
0.135
0.11
0.09
-0.005
-0.17
-0.325
-0.395
-0.36
-0.165
0.02
0.145
0.18
0.125
0.005
-0.19
-0.285
-0.325
-0.325
-0.185
0.02
0.14
0.155
0.09
-0.035
-0.175
-0.215
-0.275
-0.24
-0.09
0.065
0.2
0.14
0.085
-0.025
-0.21
-0.285
-0.235
-0.235
-0.085
0.175
0.3
0.26
0.16
-0.065
-0.215
-0.28
-0.22
-0.235
-0.025
0.22
0.335
0.305
0.23
0.075
-0.15
-0.275
-0.26
-0.19
0.09
0.22
0.335
0.305
0.305
0.11
-0.025
-0.12
-0.14
-0.16
0.035
0.23
0.275
0.26
0.235
0.115
-0.065
-0.215
-0.17
-0.15
0.05
0.24
0.34
0.25
0.14
-0.06
-0.22
-0.255
-0.245
-0.23
-0.035
0.12
0.19
0.155
0.085
-0.085
-0.305
-0.36
-0.365
-0.265
-0.1
0.025
0.06
0.085
0.03
-0.15
-0.325
-0.365
-0.385
-0.27
-0.095
0.05
0.08
0.04
-0.04
-0.245
-0.39
-0.42
-0.42
-0.31
-0.15
0.03
0.155
0.07
-0.05
-0.23
-0.34
-0.385
-0.375
-0.275
-0.075
0.065
0.07
0.05
-0.095
-0.32
-0.425
-0.385
-0.345
-0.27
-0.08
0.06
0.1
0.03
-0.14
-0.31
-0.405
-0.45
-0.365
-0.23
-0.035
0.095
0.105
0.075
-0.1
-0.285
-0.405
-0.42
-0.33
-0.195
-0.065
0.02
0.075
0.09
-0.09
-0.295
-0.375
-0.4
-0.37
-0.235
-0.045
0.085
0.09
0.025
-0.15
-0.325
-0.455
-0.425
-0.425
-0.245
-0.07
0.015
0.025
0.015
-0.15
-0.395
-0.505
-0.435
-0.345
-0.21
0.02
0.07
0.04
0.025
-0.15
-0.345
-0.44
-0.445
-0.41
-0.19
0.05
0.095
0.06
0.03
-0.125
-0.34
-0.425
-0.415
-0.37
-0.22
-0.01
0.105
0.13
0.05
-0.175
-0.38
-0.46
-0.485
-0.44
-0.235
0.045
0.025
0.005
0.0
-0.21
-0.33
-0.37
-0.4
-0.325
-0.13
0.01
0.07
0.06
-0.015
-0.235
-0.37
-0.435
-0.385
-0.31
-0.145
0.025
0.055
0.015
0.035
-0.215
-0.38
-0.435
-0.41
-0.38
-0.16
0.05
0.105
0.085
0.01
-0.25
-0.35
-0.39
-0.36
-0.345
-0.195
-0.01
0.1
0.11
0.005
-0.21
-0.375
-0.445
-0.38
-0.235
-0.06
0.075
0.105
0.03
-0.115
-0.27
-0.375
-0.425
-0.44
-0.305
-0.16
0.065
0.075
0.04
-0.065
-0.215
-0.395
-0.41
-0.42
-0.32
-0.13
0.02
0.08
0.05
-0.085
-0.26
-0.42
-0.38
-0.35
-0.235
-0.05
0.03
0.05
0.0
-0.105
-0.275
-0.385
-0.405
-0.335
-0.185
0.025
0.1
0.16
0.15
-0.005
-0.22
-0.33
-0.335
-0.36
-0.265
-0.04
0.155
0.145
0.105
-0.035
-0.225
-0.375
-0.405
-0.315
-0.145
-0.035
-0.02
0.065
0.185
-0.05
-0.315
-0.385
-0.425
-0.42
-0.195
-0.02
0.075
0.065
0.07
-0.125
-0.365
-0.455
-0.465
-0.395
-0.17
0.03
0.105
0.04
-0.01
-0.19
-0.325
-0.35
-0.425
-0.42
-0.22
-0.07
0.04
0.055
-0.005
-0.15
-0.36
-0.375
-0.365
-0.315
-0.165
0.0
0.015
0.11
0.095
-0.145
-0.41
-0.51
-0.485
-0.37
-0.15
0.02
0.05
0.005
-0.095
-0.255
-0.355
-0.33
-0.155
-0.05
0.265
0.53
0.705
0.74
0.725
0.57
0.38
0.38
0.455
0.49
0.375
0.275
0.21
0.13
0.05
-0.105
-0.39
-0.36
-0.35
-0.29
-0.065
0.095
0.11
0.035
-0.065
-0.265
-0.365
-0.32
-0.32
-0.23
-0.06
0.025
0.085
0.02
-0.035
-0.265
-0.38
-0.39
-0.315
-0.24
-0.055
0.07
0.095
0.05
-0.09
-0.23
-0.33
-0.4
-0.385
-0.195
-0.04
0.1
0.145
0.12
-0.075
-0.22
-0.32
-0.4
-0.44
-0.225
-0.025
0.13
0.15
0.16
-0.025
-0.255
-0.38
-0.38
-0.34
-0.19
-0.06
0.075
0.1
0.06
-0.11
-0.24
-0.295
-0.325
-0.295
-0.095
0.04
0.18
0.135
0.04
-0.075
-0.265
-0.335
-0.32
-0.23
-0.09
0.11
0.155
0.085
0.08
-0.175
-0.27
-0.225
-0.215
-0.28
-0.1
0.09
0.23
0.17
0.145
-0.04
-0.21
-0.325
-0.32
-0.265
-0.08
0.085
0.13
0.155
0.24
0.06
-0.18
-0.305
-0.32
-0.2
0.075
0.185
0.255
0.18
0.215
0.035
-0.15
-0.235
-0.225
-0.145
0.035
0.27
0.45
0.355
0.175
0.025
-0.055
-0.115
-0.13
-0.085
0.145
0.345
0.41
0.36
0.245
0.065
-0.15
-0.23
-0.17
-0.03
0.14
0.235
0.26
0.225
0.195
-0.01
-0.205
-0.26
-0.215
-0.125
0.07
0.17
0.13
0.12
0.12
-0.15
-0.295
-0.335
-0.305
-0.11
0.05
0.135
0.145
0.135
0.035
-0.145
-0.335
-0.38
-0.335
-0.235
-0.035
0.1
0.14
0.105
-0.055
-0.26
-0.35
-0.405
-0.275
-0.115
-0.005
0.115
0.145
0.09
-0.085
-0.295
-0.31
-0.33
-0.36
-0.19
-0.04
0.125
0.08
0.115
-0.005
-0.275
-0.345
-0.365
-0.32
-0.145
-0.01
0.12
0.11
0.085
-0.105
-0.255
-0.34
-0.41
-0.325
-0.15
0.005
0.145
0.12
0.105
-0.06
-0.26
-0.35
-0.38
-0.35
-0.125
0.005
0.1
0.135
0.135
-0.06
-0.265
-0.36
-0.365
-0.34
-0.12
0.08
0.195
0.185
0.105
-0.14
-0.365
-0.515
-0.375
-0.325
-0.225
0.13
0.11
0.06
0.045
-0.115
-0.26
-0.34
-0.355
-0.335
-0.14
0.125
0.18
0.175
0.125
-0.095
-0.295
-0.425
-0.4
-0.275
-0.145
0.03
0.14
0.065
0.035
-0.125
-0.265
-0.34
-0.34
-0.3
-0.115
-0.005
0.12
0.125
0.02
-0.2
-0.33
-0.36
-0.335
-0.235
-0.055
0.05
0.105
0.05
0.065
-0.195
-0.325
-0.37
-0.33
-0.23
-0.065
0.025
0.07
0.04
-0.03
-0.185
-0.355
-0.36
-0.32
-0.21
-0.08
0.035
0.085
0.08
-0.035
-0.255
-0.34
-0.38
-0.39
-0.235
-0.065
0.08
0.125
0.09
0.0
-0.29
-0.385
-0.38
-0.345
-0.185
-0.02
0.095
0.105
0.065
-0.085
-0.26
-0.365
-0.41
-0.42
-0.275
0.0
0.17
0.14
0.085
-0.035
-0.305
-0.435
-0.45
-0.41
-0.23
-0.02
0.1
0.06
0.095
0.01
-0.215
-0.36
-0.365
-0.38
-0.215
0.02
0.145
0.17
0.105
0.025
-0.185
-0.395
-0.39
-0.355
-0.165
-0.015
0.085
0.09
0.06
-0.085
-0.25
-0.38
-0.375
-0.39
-0.16
-0.02
0.03
-0.02
0.025
-0.165
-0.35
-0.365
-0.42
-0.43
-0.22
-0.03
0.09
0.045
0.01
-0.145
-0.255
-0.39
-0.44
-0.395
-0.16
-0.05
0.07
0.035
-0.01
-0.17
-0.32
-0.43
-0.43
-0.425
-0.2
-0.02
0.02
0.015
0.07
-0.175
-0.305
-0.34
-0.385
-0.33
-0.135
0.05
0.075
0.095
0.005
-0.275
-0.415
-0.525
-0.535
-0.425
-0.21
0.05
0.18
0.255
0.255
0.215
0.18
0.25
0.32
0.44
0.605
0.77
0.875
0.875
0.665
0.125
-0.165
-0.325
-0.32
-0.265
-0.105
0.075
0.175
0.08
-0.015
-0.155
-0.32
-0.34
-0.38
-0.34
-0.1
0.07
0.08
0.01
-0.12
-0.24
-0.395
-0.425
-0.425
-0.29
-0.08
0.02
0.11
0.045
-0.025
-0.245
-0.42
-0.435
-0.395
-0.225
-0.065
0.085
0.105
0.075
-0.09
-0.305
-0.385
-0.39
-0.36
-0.225
-0.075
0.095
0.1
0.025
-0.015
-0.225
-0.405
-0.405
-0.345
-0.155
-0.065
0.11
0.15
0.07
-0.125
-0.305
-0.38
-0.405
-0.41
-0.155
0.06
0.125
0.135
0.13
-0.035
-0.25
-0.4
-0.355
-0.29
-0.155
0.06
0.105
0.085
0.035
-0.105
-0.255
-0.365
-0.355
-0.28
-0.085
0.085
0.17
0.185
0.105
-0.1
-0.21
-0.245
-0.235
-0.28
-0.13
0.095
0.155
0.15
0.125
-0.1
-0.17
-0.215
-0.245
-0.195
-0.005
0.1
0.24
0.205
0.18
0.015
-0.185
-0.275
-0.2
-0.075
0.115
0.23
0.28
0.285
0.245
0.04
-0.11
-0.145
-0.145
-0.085
0.09
0.19
0.35
0.38
0.285
0.095
-0.1
-0.13
-0.145
-0.02
0.135
0.28
0.315
0.285
0.165
-0.08
-0.24
-0.165
-0.16
-0.095
0.025
0.255
0.285
0.285
0.13
-0.15
-0.275
-0.315
-0.305
-0.24
-0.035
0.095
0.165
0.125
0.06
-0.11
-0.315
-0.425
-0.41
-0.23
-0.03
0.07
0.07
0.12
0.025
-0.145
-0.3
-0.37
-0.325
-0.21
-0.08
0.025
0.09
0.08
-0.035
-0.21
-0.355
-0.375
-0.275
-0.17
-0.045
0.035
0.05
0.07
-0.015
-0.195
-0.36
-0.4
-0.385
-0.205
-0.015
0.2
0.15
0.085
-0.085
-0.25
-0.345
-0.35
-0.345
-0.18
-0.06
0.05
0.09
0.055
0.0
-0.275
-0.37
-0.385
-0.39
-0.17
-0.025
0.105
0.115
0.035
-0.145
-0.315
-0.445
-0.355
-0.315
-0.155
0.045
0.155
0.145
0.13
-0.105
-0.315
-0.39
-0.355
-0.33
-0.16
0.04
0.1
0.06
0.04
-0.135
-0.325
-0.435
-0.46
-0.39
-0.225
0.06
0.145
0.14
0.12
-0.125
-0.285
-0.415
-0.39
-0.32
-0.135
0.02
0.085
0.07
-0.02
-0.175
-0.335
-0.35
-0.32
-0.245
-0.065
0.055
0.085
0.015
-0.075
-0.195
-0.315
-0.41
-0.445
-0.26
-0.07
0.09
0.13
0.085
0.025
-0.2
-0.38
-0.4
-0.355
-0.25
-0.105
0.065
0.1
-0.02
-0.005
-0.23
-0.38
-0.435
-0.39
-0.265
-0.135
0.065
0.18
0.09
0.01
-0.2
-0.37
-0.43
-0.37
-0.275
-0.1
0.08
0.105
0.11
-0.035
-0.28
-0.385
-0.39
-0.34
-0.225
-0.03
0.11
0.14
0.085
-0.085
-0.26
-0.38
-0.36
-0.345
-0.26
-0.08
0.11
0.175
0.07
-0.12
-0.295
-0.44
-0.505
-0.435
-0.3
-0.04
0.155
0.19
0.12
-0.03
-0.225
-0.355
-0.335
-0.355
-0.21
-0.01
0.05
0.075
0.09
-0.07
-0.265
-0.385
-0.39
-0.37
-0.165
-0.005
0.095
0.14
0.185
0.035
-0.16
-0.34
-0.43
-0.395
-0.18
0.005
0.095
0.1
0.07
-0.105
-0.27
-0.365
-0.44
-0.33
-0.145
0.06
0.175
0.15
0.115
-0.04
-0.18
-0.315
-0.295
-0.28
-0.045
0.1
0.195
0.18
0.145
-0.035
-0.245
-0.335
-0.305
-0.25
-0.045
0.065
0.21
0.205
0.08
-0.08
-0.195
-0.25
-0.31
-0.3
-0.13
0.08
0.15
0.13
0.045
-0.16
-0.32
-0.335
-0.34
-0.315
-0.09
0.14
0.15
0.135
0.09
-0.11
-0.265
-0.325
-0.32
-0.245
-0.065
0.055
0.155
0.115
0.075
-0.155
-0.3
-0.375
-0.335
-0.235
-0.065
0.1
0.16
0.115
0.02
-0.18
-0.375
-0.36
-0.375
-0.215
-0.065
0.125
0.155
0.095
-0.045
-0.195
-0.39
-0.445
-0.405
-0.31
-0.04
0.135
0.235
0.33
0.29
0.105
0.16
0.275
0.36
0.545
0.81
0.93
0.945
0.965
0.89
0.565
0.105
-0.15
-0.165
-0.025
0.09
0.22
0.205
0.1
0.02
-0.145
-0.26
-0.345
-0.27
-0.085
0.075
0.15
0.14
0.155
-0.025
-0.28
-0.345
-0.36
-0.305
-0.185
0.05
0.13
0.145
0.135
-0.005
-0.235
-0.255
-0.28
-0.29
-0.115
0.065
0.18
0.175
0.16
0.0
-0.2
-0.3
-0.33
-0.285
-0.1
0.05
0.125
0.15
0.155
-0.035
-0.23
-0.3
-0.32
-0.285
-0.125
0.05
0.205
0.185
0.175
-0.025
-0.265
-0.305
-0.33
-0.33
-0.05
0.1
0.185
0.175
0.165
-0.015
-0.205
-0.275
-0.275
-0.235
-0.04
0.12
0.21
0.21
0.13
-0.085
-0.19
-0.26
-0.225
-0.19
-0.065
0.105
0.225
0.175
0.145
-0.05
-0.205
-0.245
-0.225
-0.2
0.005
0.215
0.285
0.285
0.19
0.0
-0.19
-0.235
-0.22
-0.115
0.085
0.225
0.305
0.225
0.27
0.055
-0.125
-0.21
-0.15
-0.02
0.19
0.36
0.38
0.29
0.195
0.045
-0.105
-0.12
-0.12
-0.01
0.165
0.345
0.405
0.385
0.27
0.035
-0.09
-0.06
-0.055
0.035
0.23
0.35
0.415
0.345
0.21
0.05
-0.11
-0.2
-0.15
0.035
0.195
0.24
0.3
0.265
0.035
-0.145
-0.25
-0.18
-0.175
-0.075
0.065
0.215
0.25
0.175
0.005
-0.17
-0.265
-0.29
-0.24
-0.11
0.04
0.15
0.11
0.14
-0.005
-0.21
-0.36
-0.35
-0.345
-0.135
0.09
0.16
0.12
0.1
0.01
-0.165
-0.295
-0.305
-0.305
-0.13
0.035
0.1
0.14
0.18
-0.09
-0.255
-0.335
-0.35
-0.295
-0.11
0.02
0.115
0.245
0.16
-0.11
-0.26
-0.355
-0.345
-0.3
-0.12
0.025
0.14
0.15
0.045
-0.115
-0.26
-0.355
-0.33
-0.235
-0.055
0.045
0.185
0.14
0.1
-0.08
-0.265
-0.36
-0.325
-0.265
-0.08
0.055
0.11
0.105
0.075
-0.105
-0.275
-0.415
-0.34
-0.225
-0.04
0.12
0.18
0.095
0.055
-0.145
-0.285
-0.365
-0.3
-0.24
-0.165
-0.02
0.145
0.145
0.125
-0.11
-0.315
-0.395
-0.37
-0.25
-0.04
0.095
0.12
0.11
0.04
-0.165
-0.345
-0.41
-0.335
-0.205
-0.025
0.125
0.125
0.03
0.09
-0.125
-0.32
-0.36
-0.325
-0.21
-0.02
0.08
0.14
0.14
0.005
-0.16
-0.31
-0.365
-0.33
-0.225
0.01
0.105
0.17
0.09
-0.02
-0.29
-0.335
-0.35
-0.32
-0.185
0.015
0.13
0.165
0.14
-0.01
-0.245
-0.265
-0.315
-0.395
-0.22
0.02
0.085
0.06
0.055
-0.045
-0.235
-0.325
-0.345
-0.305
-0.12
0.1
0.18
0.155
0.105
-0.11
-0.24
-0.33
-0.32
-0.315
-0.215
0.0
0.215
0.15
0.115
-0.075
-0.28
-0.28
-0.315
-0.255
-0.09
0.055
0.18
0.18
0.085
-0.075
-0.29
-0.345
-0.33
-0.315
-0.1
0.085
0.16
0.13
0.08
-0.045
-0.25
-0.28
-0.295
-0.295
-0.165
0.005
0.1
0.135
0.12
-0.07
-0.26
-0.295
-0.315
-0.3
-0.07
0.07
0.175
0.175
0.105
-0.09
-0.22
-0.365
-0.4
-0.39
-0.21
0.17
0.25
0.195
0.115
-0.075
-0.22
-0.305
-0.235
-0.18
0.01
0.155
0.165
0.205
0.155
-0.075
-0.215
-0.35
-0.28
-0.185
-0.045
0.18
0.24
0.205
0.085
-0.145
-0.26
-0.295
-0.25
-0.18
-0.035
0.09
0.17
0.105
0.0
-0.145
-0.245
-0.28
-0.31
-0.19
-0.035
0.11
0.1
0.175
0.09
-0.15
-0.335
-0.345
-0.3
-0.155
0.005
0.08
0.12
0.14
-0.035
-0.22
-0.305
-0.3
-0.27
-0.165
0.025
0.125
0.125
0.15
0.035
-0.15
-0.285
-0.35
-0.345
-0.16
0.06
0.155
0.18
0.18
0.0
-0.21
-0.295
-0.365
-0.365
-0.205
-0.04
0.015
0.045
0.11
0.0
-0.12
-0.12
-0.035
0.125
0.44
0.74
0.915
0.975
0.94
0.745
0.535
0.435
0.465
0.21
0.135
0.195
0.245
0.17
0.12
-0.015
-0.12
-0.22
-0.22
-0.21
-0.055
0.04
0.195
0.2
0.13
-0.015
-0.18
-0.31
-0.345
-0.315
-0.075
0.135
0.23
0.215
0.135
-0.035
-0.255
-0.295
-0.235
-0.28
-0.155
0.165
0.23
0.19
0.135
-0.065
-0.2
-0.285
-0.26
-0.235
-0.03
0.1
0.13
0.175
0.11
-0.085
-0.235
-0.3
-0.245
-0.21
-0.035
0.19
0.225
0.165
0.105
-0.08
-0.245
-0.325
-0.3
-0.175
0.005
0.14
0.21
0.13
0.025
-0.12
-0.22
-0.28
-0.26
-0.175
0.05
0.165
0.21
0.135
0.055
-0.095
-0.245
-0.345
-0.195
-0.04
0.015
0.14
0.215
0.225
0.11
-0.095
-0.24
-0.275
-0.25
-0.135
0.01
0.195
0.185
0.23
0.125
-0.075
-0.185
-0.215
-0.2
-0.025
0.145
0.285
0.325
0.25
0.095
-0.105
-0.17
-0.23
-0.25
0.035
0.24
0.275
0.28
0.24
0.185
0.04
-0.11
-0.17
-0.07
0.03
0.215
0.365
0.39
0.35
0.175
0.0
-0.08
-0.17
-0.06
0.085
0.25
0.37
0.375
0.355
0.14
-0.015
-0.11
-0.195
-0.11
0.08
0.24
0.335
0.265
0.215
0.09
-0.13
-0.245
-0.22
-0.2
-0.07
0.14
0.22
0.185
0.17
0.02
-0.185
-0.32
-0.35
-0.28
-0.055
0.105
0.17
0.18
0.125
-0.09
-0.27
-0.38
-0.37
-0.255
-0.08
0.06
0.125
0.145
0.075
-0.105
-0.27
-0.335
-0.28
-0.23
-0.045
0.075
0.13
0.085
0.025
-0.11
-0.29
-0.37
-0.32
-0.245
-0.03
0.065
0.195
0.155
0.045
-0.155
-0.285
-0.35
-0.265
-0.23
-0.1
0.08
0.14
0.11
0.055
-0.135
-0.29
-0.385
-0.35
-0.225
-0.03
0.09
0.15
0.04
0.01
-0.09
-0.33
-0.375
-0.325
-0.26
-0.04
0.125
0.16
0.16
0.06
-0.19
-0.43
-0.395
-0.305
-0.205
-0.08
-0.02
0.06
0.105
0.01
-0.225
-0.35
-0.355
-0.335
-0.21
-0.005
0.115
0.2
0.11
-0.045
-0.2
-0.325
-0.37
-0.31
-0.24
-0.02
0.13
0.175
0.145
0.03
-0.205
-0.335
-0.38
-0.345
-0.205
-0.025
0.105
0.205
0.13
-0.005
-0.29
-0.365
-0.37
-0.335
-0.18
0.005
0.115
0.12
0.045
-0.1
-0.285
-0.405
-0.375
-0.31
-0.15
-0.02
0.085
0.115
0.065
-0.08
-0.23
-0.345
-0.345
-0.35
-0.175
0.05
0.14
0.12
0.085
-0.09
-0.275
-0.37
-0.38
-0.38
-0.145
0.11
0.16
0.095
0.005
-0.12
-0.255
-0.35
-0.345
-0.32
-0.195
0.02
0.125
0.18
0.065
-0.11
-0.29
-0.4
-0.42
-0.335
-0.125
0.015
0.075
0.06
0.105
-0.075
-0.285
-0.36
-0.39
-0.355
-0.145
0.02
0.11
0.07
-0.02
-0.1
-0.26
-0.35
-0.295
-0.25
-0.04
0.095
0.13
0.12
0.075
-0.09
-0.31
-0.375
-0.405
-0.28
-0.11
0.09
0.14
0.125
0.025
-0.15
-0.29
-0.325
-0.28
-0.195
-0.005
0.085
0.105
0.1
0.06
-0.175
-0.35
-0.395
-0.38
-0.29
-0.08
0.04
0.085
0.02
0.025
-0.135
-0.325
-0.42
-0.38
-0.28
-0.065
0.05
0.09
0.035
-0.065
-0.185
-0.29
-0.4
-0.365
-0.35
-0.155
0.055
0.09
0.04
-0.095
-0.305
-0.4
-0.385
-0.36
-0.3
-0.08
0.075
0.105
0.04
-0.08
-0.295
-0.435
-0.435
-0.41
-0.23
-0.075
0.115
0.145
0.09
-0.14
-0.37
-0.445
-0.475
-0.43
-0.115
0.235
0.425
0.455
0.55
0.545
0.455
0.31
0.365
0.45
0.575
0.74
0.77
0.48
0.215
0.02
-0.195
-0.35
-0.345
-0.245
-0.085
0.035
0.12
0.145
0.135
-0.045
-0.235
-0.345
-0.37
-0.365
-0.2
0.055
0.155
0.09
0.095
-0.12
-0.27
-0.355
-0.33
-0.3
-0.09
0.09
0.16
0.155
0.045
-0.11
-0.295
-0.365
-0.345
-0.28
-0.085
0.105
0.165
0.13
0.055
-0.105
-0.315
-0.415
-0.37
-0.255
-0.08
0.06
0.14
0.08
0.01
-0.155
-0.28
-0.36
-0.37
-0.33
-0.075
0.095
0.175
0.135
0.05
-0.13
-0.29
-0.365
-0.325
-0.275
-0.07
0.095
0.125
0.15
0.055
-0.15
-0.35
-0.32
-0.3
-0.24
-0.08
0.055
0.145
0.19
0.06
-0.15
-0.285
-0.325
-0.26
-0.21
0.005
0.19
0.19
0.09
0.04
-0.2
-0.315
-0.305
-0.32
-0.19
0.06
0.155
0.15
0.14
0.08
-0.11
-0.285
-0.34
-0.205
-0.07
0.075
0.23
0.27
0.15
-0.005
-0.06
-0.15
-0.185
-0.185
-0.02
0.17
0.245
0.245
0.22
0.085
-0.05
-0.225
-0.19
-0.155
0.06
0.215
0.33
0.355
0.33
0.14
-0.09
-0.17
-0.195
-0.195
-0.04
0.185
0.315
0.295
0.285
0.125
-0.115
-0.225
-0.245
-0.26
-0.04
0.085
0.19
0.17
0.135
-0.015
-0.25
-0.295
-0.285
-0.29
-0.07
0.075
0.175
0.11
0.095
-0.075
-0.26
-0.33
-0.335
-0.325
-0.15
-0.01
0.085
0.135
0.065
-0.11
-0.26
-0.375
-0.315
-0.315
-0.14
-0.015
0.075
0.065
0.02
-0.12
-0.335
-0.36
-0.36
-0.3
-0.12
0.045
0.125
0.125
0.045
-0.14
-0.31
-0.435
-0.395
-0.265
-0.035
0.055
0.04
0.02
0.03
-0.135
-0.325
-0.345
-0.34
-0.29
-0.11
0.065
0.105
0.145
0.08
-0.165
-0.38
-0.45
-0.445
-0.365
-0.125
0.12
0.14
0.045
-0.06
-0.205
-0.355
-0.36
-0.355
-0.255
-0.06
0.03
0.07
0.065
-0.045
-0.205
-0.3
-0.36
-0.34
-0.28
-0.14
0.005
0.085
0.095
0.01
-0.205
-0.355
-0.385
-0.4
-0.23
-0.04
0.085
0.11
0.035
-0.06
-0.225
-0.375
-0.395
-0.405
-0.27
-0.09
0.045
0.06
0.025
-0.1
-0.31
-0.375
-0.355
-0.325
-0.185
-0.02
0.06
0.075
0.06
-0.125
-0.325
-0.42
-0.395
-0.375
-0.225
-0.085
0.085
0.115
0.04
-0.1
-0.315
-0.345
-0.36
-0.4
-0.2
0.015
0.045
0.08
0.07
-0.125
-0.27
-0.375
-0.395
-0.36
-0.17
-0.025
0.09
0.14
0.085
-0.145
-0.33
-0.415
-0.41
-0.34
-0.155
-0.06
0.0
0.095
0.055
-0.11
-0.27
-0.395
-0.39
-0.35
-0.08
0.09
0.155
0.115
0.045
-0.115
-0.31
-0.35
-0.285
-0.3
-0.195
0.01
0.17
0.155
0.075
-0.105
-0.26
-0.34
-0.26
-0.2
-0.03
0.07
0.105
0.11
0.035
-0.135
-0.29
-0.35
-0.31
-0.275
-0.11
0.04
0.095
0.055
0.015
-0.185
-0.325
-0.365
-0.365
-0.315
-0.155
0.05
0.15
0.1
0.0
-0.205
-0.33
-0.405
-0.35
-0.3
-0.075
0.09
0.155
0.13
-0.005
-0.18
-0.34
-0.365
-0.395
-0.25
-0.075
0.06
0.105
0.1
0.035
-0.175
-0.32
-0.35
-0.345
-0.24
-0.095
0.055
0.105
0.065
-0.06
-0.275
-0.425
-0.435
-0.43
-0.285
-0.005
0.255
0.35
0.435
0.395
0.335
0.305
0.345
0.45
0.595
0.75
0.935
0.925
0.795
0.355
0.0
-0.24
-0.275
-0.275
-0.15
0.085
0.15
0.165
0.175
-0.055
-0.24
-0.305
-0.26
-0.24
-0.08
0.05
0.13
0.115
0.04
-0.135
-0.265
-0.365
-0.355
-0.385
-0.145
-0.03
0.13
0.175
0.095
-0.085
-0.275
-0.375
-0.285
-0.26
-0.09
0.075
0.17
0.08
0.005
-0.105
-0.275
-0.38
-0.335
-0.3
-0.09
0.055
0.115
0.155
0.09
-0.07
-0.235
-0.3
-0.365
-0.305
-0.105
0.04
0.135
0.115
0.105
-0.1
-0.265
-0.385
-0.3
-0.205
-0.035
0.11
0.175
0.11
0.035
-0.065
-0.28
-0.36
-0.33
-0.27
-0.025
0.09
0.165
0.145
0.095
-0.09
-0.255
-0.3
-0.275
-0.26
-0.035
0.155
0.195
0.21
0.1
-0.125
-0.295
-0.295
-0.3
-0.19
0.02
0.265
0.285
0.18
0.15
-0.04
-0.205
-0.23
-0.19
-0.11
0.06
0.165
0.285
0.29
0.16
-0.04
-0.19
-0.225
-0.14
-0.05
0.145
0.295
0.32
0.305
0.24
0.05
-0.09
-0.16
-0.105
0.04
0.18
0.25
0.33
0.39
0.19
0.02
-0.1
-0.135
-0.135
0.01
0.215
0.31
0.375
0.37
0.165
-0.065
-0.135
-0.145
-0.16
-0.015
0.125
0.23
0.2
0.22
0.12
-0.08
-0.24
-0.28
-0.315
-0.195
0.05
0.165
0.185
0.14
-0.085
-0.205
-0.285
-0.325
-0.28
-0.195
-0.03
0.125
0.18
0.13
-0.02
-0.24
-0.36
-0.33
-0.28
-0.095
0.035
0.035
0.09
0.07
-0.035
-0.215
-0.33
-0.32
-0.33
-0.165
0.015
0.155
0.115
0.055
-0.07
-0.23
-0.325
-0.405
-0.345
-0.15
0.035
0.09
0.04
0.02
-0.13
-0.25
-0.3
-0.29
-0.28
-0.135
0.015
0.11
0.09
0.06
-0.05
-0.205
-0.345
-0.34
-0.28
-0.09
0.025
0.14
0.11
0.06
-0.065
-0.24
-0.335
-0.365
-0.285
-0.055
0.035
0.15
0.13
0.055
-0.125
-0.31
-0.39
-0.375
-0.245
-0.05
0.115
0.145
0.11
0.04
-0.135
-0.275
-0.385
-0.365
-0.26
-0.015
0.175
0.18
0.115
0.075
-0.145
-0.29
-0.34
-0.305
-0.235
-0.015
0.12
0.16
0.15
0.03
-0.13
-0.28
-0.39
-0.385
-0.245
-0.03
0.155
0.195
0.105
0.03
-0.145
-0.275
-0.27
-0.275
-0.17
0.005
0.155
0.185
0.14
-0.005
-0.19
-0.325
-0.385
-0.32
-0.25
0.01
0.155
0.19
0.165
0.01
-0.16
-0.265
-0.295
-0.29
-0.15
0.045
0.125
0.15
0.125
0.01
-0.155
-0.36
-0.375
-0.34
-0.165
-0.015
0.11
0.17
0.13
-0.02
-0.16
-0.32
-0.34
-0.32
-0.075
0.045
0.125
0.215
0.155
-0.15
-0.25
-0.3
-0.36
-0.33
-0.065
0.14
0.205
0.185
0.14
-0.025
-0.175
-0.3
-0.325
-0.26
-0.055
0.14
0.215
0.105
0.13
-0.035
-0.245
-0.35
-0.35
-0.305
-0.04
0.12
0.18
0.175
0.155
-0.065
-0.18
-0.305
-0.26
-0.19
0.025
0.165
0.21
0.185
0.11
-0.06
-0.22
-0.29
-0.28
-0.175
0.04
0.17
0.22
0.22
0.14
-0.025
-0.2
-0.24
-0.29
-0.205
0.06
0.285
0.29
0.165
0.05
-0.15
-0.255
-0.325
-0.31
-0.195
-0.01
0.12
0.18
0.12
0.08
-0.095
-0.19
-0.265
-0.26
-0.215
0.0
0.14
0.18
0.16
0.055
-0.155
-0.3
-0.335
-0.35
-0.235
0.03
0.165
0.215
0.18
0.055
-0.12
-0.275
-0.295
-0.225
-0.165
-0.005
0.11
0.135
0.135
-0.015
-0.175
-0.295
-0.34
-0.355
-0.25
-0.035
0.04
0.12
0.13
0.02
-0.165
-0.135
-0.015
0.065
0.235
0.545
0.755
0.945
0.96
0.82
0.635
0.585
0.575
0.5
0.33
0.305
0.35
0.365
0.295
0.045
-0.19
-0.24
-0.25
-0.23
-0.06
0.105
0.19
0.165
0.14
-0.03
-0.215
-0.28
-0.275
-0.26
-0.105
0.08
0.21
0.215
0.155
-0.01
-0.23
-0.315
-0.315
-0.3
-0.115
0.08
0.19
0.18
0.145
-0.045
-0.195
-0.23
-0.21
-0.205
-0.04
0.145
0.165
0.145
0.15
-0.025
-0.235
-0.325
-0.345
-0.22
0.005
0.105
0.155
0.195
0.165
-0.025
-0.195
-0.29
-0.3
-0.26
-0.085
0.14
0.18
0.15
0.135
-0.065
-0.25
-0.33
-0.26
-0.14
0.035
0.145
0.21
0.125
0.045
-0.07
-0.2
-0.24
-0.325
-0.2
0.005
0.24
0.27
0.235
0.16
-0.085
-0.26
-0.315
-0.23
-0.085
0.07
0.255
0.265
0.195
0.075
-0.07
-0.21
-0.23
-0.195
-0.12
0.115
0.275
0.325
0.3
0.165
-0.015
-0.12
-0.2
-0.145
-0.065
0.055
0.295
0.335
0.31
0.22
-0.015
-0.125
-0.155
-0.115
-0.04
0.15
0.365
0.395
0.365
0.24
0.015
-0.065
-0.105
-0.055
0.06
0.26
0.405
0.38
0.365
0.2
0.005
-0.095
-0.11
-0.085
0.01
0.12
0.33
0.42
0.385
0.165
-0.045
-0.18
-0.215
-0.235
-0.055
0.125
0.215
0.25
0.235
0.005
-0.185
-0.31
-0.325
-0.23
-0.07
0.045
0.11
0.125
0.14
0.01
-0.14
-0.33
-0.325
-0.27
-0.165
0.04
0.135
0.155
0.145
-0.05
-0.205
-0.335
-0.395
-0.345
-0.095
0.135
0.21
0.125
0.125
-0.11
-0.235
-0.32
-0.37
-0.37
-0.14
0.065
0.13
0.125
0.125
-0.14
-0.28
-0.3
-0.325
-0.33
-0.1
0.065
0.135
0.15
0.075
-0.08
-0.25
-0.335
-0.38
-0.33
-0.145
0.06
0.135
0.105
0.115
-0.1
-0.29
-0.33
-0.295
-0.21
-0.005
0.075
0.125
0.07
0.005
-0.155
-0.275
-0.35
-0.34
-0.29
-0.08
0.055
0.11
0.085
0.015
-0.165
-0.28
-0.31
-0.36
-0.24
-0.085
0.1
0.155
0.085
0.085
-0.145
-0.35
-0.39
-0.33
-0.245
-0.115
0.06
0.13
0.15
0.06
-0.125
-0.28
-0.335
-0.33
-0.24
-0.015
0.045
0.1
0.07
0.02
-0.17
-0.355
-0.35
-0.345
-0.195
-0.025
0.11
0.11
0.075
-0.03
-0.195
-0.395
-0.44
-0.4
-0.175
-0.005
0.125
0.12
-0.03
-0.125
-0.28
-0.37
-0.4
-0.395
-0.195
-0.025
0.07
0.105
0.105
-0.065
-0.275
-0.375
-0.39
-0.345
-0.15
-0.035
0.06
0.095
0.12
-0.1
-0.325
-0.415
-0.38
-0.385
-0.2
-0.05
0.08
0.09
0.035
-0.13
-0.315
-0.345
-0.375
-0.385
-0.19
0.065
0.18
0.15
0.115
-0.12
-0.285
-0.355
-0.335
-0.275
-0.11
0.015
0.065
0.035
0.045
-0.175
-0.31
-0.36
-0.385
-0.365
-0.15
0.015
0.115
0.155
0.055
-0.095
-0.275
-0.385
-0.37
-0.33
-0.21
0.035
0.07
0.025
-0.005
-0.145
-0.35
-0.41
-0.33
-0.24
-0.065
0.095
0.175
0.16
0.105
-0.095
-0.315
-0.415
-0.41
-0.2
-0.01
0.115
0.175
0.13
0.045
-0.11
-0.28
-0.285
-0.27
-0.24
-0.1
0.09
0.12
0.14
0.075
-0.185
-0.35
-0.47
-0.435
-0.25
-0.04
0.085
0.115
0.06
-0.035
-0.245
-0.375
-0.375
-0.4
-0.315
-0.06
0.07
0.105
0.09
-0.03
-0.21
-0.395
-0.39
-0.355
-0.235
-0.045
0.025
0.11
0.105
-0.015
-0.21
-0.32
-0.37
-0.39
-0.255
-0.035
0.065
0.085
0.05
-0.035
-0.225
-0.305
-0.315
-0.34
-0.26
-0.04
0.02
0.035
-0.03
-0.185
-0.385
-0.475
-0.45
-0.4
-0.215
0.095
0.29
0.425
0.5
0.49
0.385
0.365
0.39
0.39
0.58
0.79
0.885
0.7
0.38
0.09
-0.21
-0.415
-0.36
-0.37
-0.115
0.08
0.07
0.145
0.065
-0.08
-0.31
-0.415
-0.335
-0.295
-0.105
0.06
0.13
0.06
-0.03
-0.165
-0.335
-0.465
-0.42
-0.325
-0.115
0.025
0.08
0.075
0.075
-0.12
-0.31
-0.37
-0.36
-0.355
-0.205
0.0
0.075
0.075
0.0
-0.2
-0.28
-0.37
-0.315
-0.305
-0.09
0.025
0.065
0.02
-0.005
-0.24
-0.3
-0.315
-0.28
-0.29
-0.1
0.02
0.1
0.06
0.03
-0.17
-0.34
-0.375
-0.335
-0.24
-0.02
0.1
0.165
0.1
0.025
-0.17
-0.31
-0.39
-0.32
-0.17
0.015
0.13
0.13
0.115
0.105
-0.105
-0.265
-0.355
-0.355
-0.235
-0.075
0.165
0.23
0.155
-0.02
-0.135
-0.295
-0.33
-0.23
-0.08
0.09
0.185
0.255
0.24
0.085
-0.17
-0.25
-0.2
-0.195
-0.085
0.09
0.245
0.27
0.225
0.11
-0.06
-0.17
-0.21
-0.215
-0.055
0.105
0.265
0.295
0.27
0.08
-0.095
-0.09
-0.115
-0.09
0.08
0.245
0.285
0.325
0.355
0.2
-0.035
-0.15
-0.14
-0.14
0.055
0.2
0.295
0.315
0.275
0.1
-0.095
-0.185
-0.245
-0.235
-0.02
0.175
0.275
0.275
0.16
-0.02
-0.205
-0.295
-0.385
-0.39
-0.195
0.07
0.29
0.15
0.145
-0.02
-0.265
-0.335
-0.255
-0.27
-0.075
0.05
0.13
0.085
0.045
-0.16
-0.27
-0.31
-0.305
-0.26
-0.11
0.07
0.145
0.115
0.06
-0.095
-0.265
-0.31
-0.305
-0.255
-0.095
0.01
0.145
0.185
0.095
-0.155
-0.275
-0.365
-0.38
-0.3
-0.065
0.065
0.12
0.13
0.125
-0.115
-0.325
-0.41
-0.42
-0.31
-0.09
0.08
0.205
0.115
0.075
-0.13
-0.26
-0.355
-0.38
-0.27
-0.055
0.085
0.165
0.14
-0.06
-0.135
-0.28
-0.37
-0.3
-0.22
-0.005
0.075
0.14
0.125
-0.03
-0.2
-0.33
-0.43
-0.37
-0.195
0.03
0.115
0.13
0.135
0.02
-0.225
-0.36
-0.32
-0.3
-0.25
-0.045
0.11
0.1
0.19
-0.02
-0.22
-0.29
-0.32
-0.345
-0.24
0.0
0.065
0.115
0.13
-0.01
-0.2
-0.33
-0.295
-0.315
-0.16
-0.02
0.12
0.16
0.12
0.005
-0.2
-0.355
-0.375
-0.34
-0.21
-0.01
0.13
0.185
0.155
-0.04
-0.275
-0.355
-0.37
-0.345
-0.125
0.04
0.16
0.1
0.06
-0.11
-0.23
-0.335
-0.345
-0.32
-0.19
0.09
0.11
0.105
0.145
-0.035
-0.28
-0.33
-0.345
-0.3
-0.165
0.04
0.15
0.125
0.095
-0.105
-0.25
-0.305
-0.3
-0.24
-0.05
0.1
0.145
0.13
0.1
-0.15
-0.31
-0.35
-0.235
-0.205
-0.06
0.07
0.155
0.105
0.08
-0.07
-0.35
-0.345
-0.275
-0.185
-0.04
0.14
0.21
0.16
0.075
-0.08
-0.275
-0.3
-0.26
-0.195
0.04
0.17
0.2
0.205
0.14
-0.045
-0.235
-0.305
-0.305
-0.215
0.01
0.135
0.2
0.15
0.075
-0.15
-0.295
-0.35
-0.335
-0.195
-0.025
0.14
0.15
0.1
-0.005
-0.175
-0.275
-0.34
-0.315
-0.225
-0.06
0.025
0.04
0.11
0.125
-0.11
-0.35
-0.36
-0.375
-0.235
-0.02
0.11
0.185
0.145
0.01
-0.185
-0.295
-0.275
-0.28
-0.13
0.015
0.125
0.06
0.065
0.01
-0.26
-0.37
-0.325
-0.335
-0.26
-0.01
0.125
0.105
0.115
-0.025
-0.245
-0.43
-0.45
-0.33
0.08
0.33
0.52
0.585
0.65
0.58
0.47
0.395
0.38
0.48
0.635
0.76
0.615
0.445
0.265
0.11
-0.165
-0.285
-0.33
-0.29
-0.1
0.09
0.18
0.205
0.185
0.0
-0.165
-0.295
-0.31
-0.29
-0.08
0.07
0.175
0.115
0.03
-0.13
-0.19
-0.315
-0.235
-0.245
-0.1
0.04
0.105
0.16
0.19
0.025
-0.145
-0.22
-0.235
-0.275
-0.04
0.095
0.215
0.17
0.08
-0.07
-0.24
-0.345
-0.33
-0.29
-0.06
0.125
0.175
0.17
0.12
-0.07
-0.225
-0.35
-0.285
-0.22
-0.035
0.05
0.105
0.18
0.13
-0.105
-0.24
-0.34
-0.285
-0.245
-0.065
0.115
0.175
0.15
0.125
-0.025
-0.235
-0.295
-0.235
-0.16
0.02
0.175
0.205
0.215
0.175
-0.08
-0.25
-0.255
-0.255
-0.245
-0.02
0.13
0.175
0.145
0.135
-0.06
-0.255
-0.27
-0.19
-0.12
0.07
0.24
0.26
0.18
0.135
-0.005
-0.14
-0.225
-0.175
-0.05
0.12
0.24
0.285
0.225
0.13
-0.03
-0.105
-0.145
-0.11
0.005
0.14
0.265
0.305
0.3
0.22
0.045
-0.145
-0.155
-0.12
0.01
0.16
0.34
0.375
0.39
0.25
0.06
-0.11
-0.185
-0.075
0.04
0.235
0.38
0.325
0.235
0.07
-0.12
-0.205
-0.225
-0.18
-0.005
0.17
0.23
0.27
0.2
0.025
-0.13
-0.225
-0.3
-0.27
-0.09
0.085
0.15
0.17
0.12
-0.03
-0.16
-0.26
-0.31
-0.33
-0.155
-0.025
0.13
0.13
0.045
-0.07
-0.15
-0.285
-0.3
-0.295
-0.1
0.08
0.165
0.14
0.105
-0.085
-0.24
-0.345
-0.355
-0.305
-0.03
0.135
0.13
0.13
0.095
-0.045
-0.225
-0.36
-0.345
-0.265
-0.015
0.15
0.21
0.195
0.065
-0.11
-0.245
-0.33
-0.3
-0.27
-0.115
0.085
0.21
0.18
0.11
-0.115
-0.245
-0.295
-0.34
-0.175
-0.015
0.13
0.195
0.145
0.095
-0.115
-0.29
-0.36
-0.32
-0.275
-0.065
0.13
0.175
0.205
0.095
-0.125
-0.285
-0.335
-0.355
-0.235
-0.01
0.11
0.175
0.16
0.08
-0.105
-0.235
-0.295
-0.28
-0.2
-0.04
0.1
0.175
0.165
0.05
-0.175
-0.26
-0.28
-0.255
-0.16
0.03
0.13
0.18
0.12
0.02
-0.12
-0.215
-0.3
-0.335
-0.23
-0.045
0.11
0.175
0.135
0.025
-0.18
-0.325
-0.32
-0.28
-0.155
-0.01
0.13
0.155
0.095
-0.03
-0.195
-0.355
-0.35
-0.305
-0.085
0.14
0.18
0.21
0.165
-0.04
-0.22
-0.29
-0.325
-0.275
-0.11
0.075
0.21
0.19
0.16
0.025
-0.2
-0.32
-0.335
-0.265
-0.075
0.065
0.15
0.195
0.13
-0.11
-0.2
-0.245
-0.265
-0.24
-0.065
0.065
0.23
0.2
0.095
-0.065
-0.155
-0.235
-0.225
-0.17
0.03
0.14
0.15
0.16
0.165
-0.005
-0.135
-0.215
-0.23
-0.205
-0.05
0.105
0.145
0.16
0.16
-0.095
-0.215
-0.27
-0.355
-0.28
-0.06
0.135
0.135
0.09
0.075
-0.125
-0.26
-0.27
-0.225
-0.19
-0.01
0.105
0.095
0.095
0.105
-0.08
-0.245
-0.29
-0.31
-0.255
-0.045
0.14
0.19
0.135
0.09
-0.145
-0.22
-0.33
-0.3
-0.21
-0.05
0.085
0.19
0.19
0.06
-0.1
-0.29
-0.38
-0.31
-0.29
-0.085
0.08
0.14
0.145
0.05
-0.025
-0.05
-0.08
0.035
0.27
0.59
0.82
0.925
0.895
0.84
0.695
0.535
0.415
0.28
0.2
0.25
0.265
0.3
0.23
0.105
-0.09
-0.19
-0.23
-0.2
-0.06
0.16
0.245
0.21
0.16
0.02
-0.155
-0.265
-0.33
-0.3
-0.07
0.11
0.185
0.18
0.205
0.09
-0.095
-0.23
-0.295
-0.275
-0.105
0.025
0.185
0.19
0.175
0.045
-0.13
-0.295
-0.295
-0.21
-0.03
0.11
0.255
0.295
0.255
0.08
-0.095
-0.205
-0.25
-0.22
-0.07
0.145
0.25
0.245
0.23
0.07
-0.145
-0.235
-0.205
-0.215
-0.03
0.18
0.255
0.25
0.215
0.065
-0.14
-0.215
-0.22
-0.175
0.025
0.155
0.225
0.265
0.275
0.06
-0.135
-0.24
-0.18
-0.095
0.05
0.27
0.325
0.25
0.185
0.045
-0.13
-0.265
-0.185
-0.15
0.03
0.265
0.33
0.285
0.215
0.04
-0.11
-0.165
-0.165
-0.095
0.045
0.26
0.35
0.31
0.275
0.13
-0.025
-0.135
-0.125
0.0
0.215
0.375
0.365
0.355
0.27
0.075
-0.055
-0.09
-0.06
0.105
0.29
0.435
0.435
0.39
0.28
0.135
-0.025
-0.065
-0.045
0.08
0.28
0.435
0.49
0.43
0.33
0.125
-0.015
-0.095
-0.05
0.095
0.23
0.37
0.405
0.365
0.22
-0.035
-0.185
-0.285
-0.205
0.01
0.155
0.31
0.365
0.395
0.205
-0.01
-0.225
-0.275
-0.205
-0.05
0.145
0.215
0.185
0.165
0.075
-0.055
-0.18
-0.24
-0.26
-0.05
0.175
0.245
0.24
0.23
0.07
-0.125
-0.215
-0.235
-0.225
-0.045
0.15
0.19
0.21
0.2
0.035
-0.155
-0.245
-0.24
-0.255
-0.135
0.09
0.26
0.26
0.25
0.075
-0.135
-0.18
-0.27
-0.195
-0.035
0.12
0.215
0.245
0.22
0.095
-0.14
-0.24
-0.25
-0.22
0.005
0.155
0.26
0.335
0.25
0.015
-0.26
-0.36
-0.33
-0.195
0.09
0.26
0.285
0.27
0.2
-0.01
-0.225
-0.23
-0.195
-0.14
0.125
0.225
0.24
0.245
0.16
0.015
-0.19
-0.305
-0.255
-0.14
0.05
0.185
0.22
0.245
0.185
-0.03
-0.175
-0.23
-0.215
-0.13
-0.005
0.155
0.305
0.305
0.26
-0.04
-0.265
-0.305
-0.24
-0.14
0.02
0.21
0.27
0.31
0.19
-0.075
-0.21
-0.27
-0.215
-0.105
0.02
0.115
0.23
0.24
0.165
-0.02
-0.16
-0.265
-0.22
-0.105
0.06
0.22
0.275
0.23
0.095
-0.125
-0.21
-0.255
-0.23
-0.085
0.08
0.2
0.245
0.235
0.02
-0.155
-0.275
-0.265
-0.195
-0.075
0.14
0.22
0.265
0.24
0.05
-0.165
-0.16
-0.195
-0.23
-0.04
0.18
0.255
0.23
0.275
0.13
-0.09
-0.22
-0.32
-0.295
-0.095
0.145
0.245
0.255
0.24
0.105
-0.115
-0.195
-0.245
-0.215
0.005
0.18
0.27
0.24
0.21
0.11
-0.14
-0.255
-0.305
-0.145
0.055
0.19
0.28
0.265
0.31
0.105
-0.125
-0.16
-0.12
-0.095
0.1
0.285
0.29
0.26
0.125
0.075
-0.085
-0.19
-0.13
-0.075
0.07
0.25
0.275
0.295
0.275
0.02
-0.165
-0.185
-0.215
-0.14
0.06
0.23
0.32
0.285
0.16
-0.08
-0.18
-0.345
-0.215
-0.09
0.09
0.205
0.295
0.31
0.205
0.035
-0.16
-0.215
-0.165
-0.09
0.07
0.255
0.265
0.175
0.125
0.0
-0.11
-0.225
-0.185
-0.04
0.115
0.275
0.335
0.245
0.165
-0.015
-0.155
-0.205
-0.15
-0.05
0.115
0.24
0.225
0.115
-0.015
-0.18
-0.255
-0.245
-0.125
0.155
0.51
0.79
0.915
0.935
0.875
0.78
0.675
0.615
0.685
0.855
0.945
0.685
0.53
0.425
0.33
0.125
-0.13
-0.18
-0.135
-0.05
0.16
0.29
0.35
0.305
0.165
-0.025
-0.125
-0.155
-0.13
-0.015
0.155
0.215
0.3
0.295
0.19
-0.025
-0.125
-0.14
-0.19
-0.035
0.12
0.26
0.355
0.315
0.1
-0.05
-0.15
-0.11
-0.125
0.03
0.2
0.32
0.315
0.22
0.095
-0.015
-0.18
-0.13
-0.095
0.045
0.185
0.375
0.36
0.32
0.165
-0.04
-0.185
-0.17
-0.185
0.005
0.19
0.28
0.315
0.25
0.12
0.0
-0.065
-0.09
-0.09
0.06
0.255
0.365
0.34
0.34
0.125
-0.025
-0.13
-0.14
-0.105
0.085
0.24
0.32
0.32
0.315
0.13
-0.045
-0.19
-0.14
-0.055
0.175
0.32
0.41
0.43
0.36
0.165
-0.01
-0.13
-0.045
-0.045
0.135
0.245
0.375
0.365
0.325
0.195
0.085
0.02
0.025
0.06
0.23
0.345
0.5
0.47
0.38
0.225
0.03
-0.04
0.0
0.045
0.275
0.495
0.55
0.51
0.39
0.19
0.05
0.02
0.105
0.175
0.355
0.465
0.51
0.535
0.405
0.17
0.075
0.06
0.14
0.22
0.325
0.425
0.48
0.42
0.235
0.06
0.02
-0.025
-0.105
0.03
0.25
0.41
0.445
0.405
0.25
-0.035
-0.095
-0.13
-0.105
0.045
0.2
0.3
0.315
0.275
0.215
0.03
-0.1
-0.105
-0.105
0.04
0.22
0.31
0.305
0.175
0.01
-0.155
-0.16
-0.165
-0.17
-0.045
0.19
0.31
0.31
0.265
0.155
-0.03
-0.155
-0.165
-0.195
-0.03
0.115
0.205
0.285
0.345
0.185
-0.055
-0.175
-0.175
-0.135
0.025
0.18
0.31
0.345
0.29
0.08
-0.095
-0.135
-0.155
-0.265
-0.055
0.185
0.335
0.28
0.265
0.085
-0.12
-0.17
-0.22
-0.17
0.075
0.25
0.3
0.26
0.19
0.03
-0.14
-0.255
-0.195
-0.105
0.065
0.185
0.265
0.335
0.285
0.08
-0.115
-0.175
-0.18
-0.14
0.07
0.21
0.285
0.255
0.215
0.035
-0.195
-0.195
-0.135
-0.075
0.155
0.255
0.3
0.335
0.24
0.0
-0.155
-0.21
-0.155
-0.105
0.105
0.255
0.345
0.29
0.215
0.025
-0.135
-0.225
-0.22
-0.15
0.05
0.25
0.305
0.245
0.185
-0.01
-0.125
-0.19
-0.155
-0.05
0.095
0.24
0.295
0.305
0.23
0.005
-0.155
-0.195
-0.185
-0.03
0.125
0.29
0.31
0.23
0.125
0.01
-0.165
-0.23
-0.135
-0.055
0.135
0.3
0.34
0.25
0.1
-0.065
-0.16
-0.125
-0.11
-0.03
0.15
0.27
0.305
0.29
0.155
0.02
-0.125
-0.135
-0.15
-0.01
0.145
0.275
0.315
0.325
0.19
-0.06
-0.165
-0.175
-0.135
0.03
0.195
0.295
0.32
0.21
0.015
-0.125
-0.11
-0.14
-0.12
0.06
0.21
0.3
0.345
0.345
0.175
-0.035
-0.125
-0.135
-0.145
0.105
0.335
0.385
0.355
0.355
0.165
-0.02
-0.08
-0.11
-0.09
0.14
0.315
0.415
0.375
0.31
0.155
-0.085
-0.21
-0.195
-0.16
0.055
0.295
0.38
0.31
0.22
0.04
-0.19
-0.18
-0.13
-0.16
0.07
0.26
0.325
0.36
0.225
0.075
-0.07
-0.135
-0.175
-0.09
0.06
0.215
0.335
0.375
0.275
0.09
-0.065
-0.13
-0.125
-0.035
0.17
0.325
0.295
0.265
0.155
0.0
-0.185
-0.215
-0.085
-0.04
0.17
0.295
0.305
0.25
0.145
-0.015
-0.17
-0.17
-0.115
0.01
0.22
0.47
0.725
0.835
0.94
0.765
0.595
0.57
0.665
0.875
1.06
1.1
0.99
0.7
0.455
0.195
0.03
-0.05
-0.06
0.035
0.19
0.36
0.4
0.34
0.19
-0.025
-0.125
-0.16
-0.115
0.07
0.255
0.385
0.46
0.375
0.245
-0.01
-0.225
-0.215
-0.145
0.005
0.185
0.315
0.3
0.305
0.23
0.07
-0.07
-0.09
-0.08
0.085
0.24
0.335
0.365
0.29
0.08
-0.03
-0.07
-0.16
-0.075
0.075
0.265
0.345
0.365
0.325
0.155
-0.02
-0.065
-0.07
-0.03
0.12
0.225
0.3
0.375
0.34
0.21
-0.04
-0.155
-0.1
-0.065
0.12
0.28
0.355
0.355
0.37
0.19
0.055
-0.13
-0.135
-0.05
0.12
0.285
0.29
0.32
0.4
0.205
0.055
-0.09
-0.04
0.05
0.22
0.35
0.46
0.445
0.42
0.135
-0.1
-0.025
0.005
0.065
0.205
0.395
0.49
0.445
0.385
0.19
0.075
0.035
0.025
0.095
0.37
0.565
0.505
0.415
0.385
0.225
0.045
-0.015
0.015
0.15
0.32
0.47
0.595
0.49
0.495
0.34
0.255
0.17
0.2
0.24
0.35
0.44
0.565
0.555
0.465
0.32
0.145
0.09
0.09
0.215
0.365
0.55
0.585
0.56
0.455
0.235
0.07
0.03
0.02
0.155
0.32
0.4
0.435
0.385
0.32
0.18
0.015
-0.05
-0.05
0.02
0.225
0.375
0.425
0.405
0.225
0.02
-0.125
-0.15
-0.13
0.04
0.28
0.335
0.33
0.33
0.23
0.005
-0.105
-0.085
-0.085
0.09
0.29
0.305
0.325
0.285
0.155
-0.035
-0.14
-0.1
-0.05
0.035
0.24
0.355
0.295
0.275
0.135
0.01
-0.15
-0.15
-0.085
0.035
0.25
0.335
0.38
0.32
0.16
-0.03
-0.115
-0.18
-0.15
0.02
0.19
0.29
0.3
0.265
0.205
-0.015
-0.11
-0.06
-0.025
0.135
0.245
0.315
0.36
0.36
0.12
-0.05
-0.115
-0.125
-0.105
0.06
0.32
0.37
0.315
0.32
0.075
-0.105
-0.155
-0.135
-0.055
0.12
0.165
0.235
0.28
0.25
0.055
-0.035
-0.12
-0.095
-0.025
0.115
0.255
0.32
0.28
0.275
0.125
-0.085
-0.16
-0.185
-0.06
0.12
0.27
0.36
0.28
0.255
0.095
-0.07
-0.11
-0.085
-0.04
0.115
0.24
0.32
0.31
0.19
0.015
-0.025
-0.135
-0.125
-0.02
0.125
0.275
0.365
0.325
0.28
0.03
-0.12
-0.135
-0.1
-0.02
0.115
0.285
0.345
0.295
0.18
-0.005
-0.125
-0.175
-0.15
-0.03
0.165
0.3
0.405
0.3
0.2
-0.01
-0.135
-0.14
-0.13
0.005
0.19
0.33
0.355
0.25
0.135
-0.035
-0.02
-0.08
-0.09
0.035
0.21
0.35
0.44
0.36
0.205
0.025
-0.065
-0.16
-0.165
0.025
0.235
0.345
0.365
0.345
0.24
0.015
-0.1
-0.135
-0.07
0.04
0.28
0.39
0.43
0.395
0.195
-0.035
-0.02
0.0
-0.03
0.115
0.26
0.36
0.29
0.335
0.225
0.035
-0.095
-0.17
-0.1
0.12
0.3
0.335
0.325
0.255
0.11
-0.03
-0.095
-0.12
-0.09
0.125
0.32
0.42
0.36
0.29
0.2
-0.04
-0.18
-0.125
-0.12
0.08
0.24
0.415
0.415
0.35
0.13
-0.095
-0.145
-0.125
-0.095
0.11
0.27
0.375
0.385
0.325
0.13
-0.055
-0.12
-0.095
-0.035
0.095
0.18
0.22
0.25
0.27
0.12
0.055
0.085
0.205
0.31
0.665
0.885
1.005
1.045
0.97
0.84
0.735
0.745
0.735
0.535
0.405
0.385
0.465
0.425
0.355
0.135
-0.025
-0.045
-0.035
0.05
0.22
0.355
0.36
0.3
0.25
0.115
-0.015
-0.1
-0.115
0.01
0.175
0.33
0.365
0.355
0.265
0.08
-0.025
-0.125
-0.07
0.03
0.24
0.4
0.395
0.33
0.225
0.07
-0.105
-0.16
-0.06
0.085
0.285
0.39
0.36
0.38
0.26
0.01
-0.105
-0.125
-0.085
0.055
0.29
0.42
0.36
0.315
0.215
0.04
-0.085
-0.11
-0.09
0.035
0.21
0.305
0.34
0.315
0.225
0.02
-0.085
-0.055
-0.035
0.14
0.28
0.385
0.38
0.4
0.225
0.085
-0.055
-0.065
-0.035
0.16
0.265
0.4
0.49
0.44
0.21
-0.005
-0.015
0.035
0.02
0.205
0.32
0.395
0.355
0.38
0.2
0.04
-0.03
-0.025
-0.035
0.2
0.335
0.4
0.47
0.43
0.28
0.045
-0.025
0.04
0.105
0.22
0.43
0.54
0.54
0.47
0.275
0.1
0.085
0.095
0.09
0.285
0.515
0.55
0.545
0.495
0.335
0.21
0.165
0.2
0.245
0.285
0.41
0.515
0.515
0.475
0.25
0.075
0.01
0.015
0.14
0.375
0.47
0.475
0.49
0.43
0.215
0.06
-0.025
-0.01
0.055
0.215
0.35
0.42
0.36
0.255
0.095
-0.035
-0.125
-0.085
0.01
0.255
0.36
0.37
0.35
0.26
0.065
-0.075
-0.16
-0.135
-0.03
0.15
0.3
0.38
0.355
0.205
0.005
-0.09
-0.155
-0.145
-0.01
0.28
0.42
0.425
0.355
0.15
-0.04
-0.16
-0.185
-0.085
0.035
0.19
0.355
0.35
0.325
0.25
0.055
-0.04
-0.155
-0.075
0.05
0.18
0.34
0.41
0.46
0.305
0.1
-0.14
-0.21
-0.195
0.065
0.265
0.31
0.31
0.31
0.185
0.005
-0.14
-0.175
-0.09
0.06
0.22
0.395
0.385
0.38
0.215
-0.035
-0.12
-0.115
-0.11
0.06
0.245
0.305
0.31
0.36
0.16
0.0
-0.12
-0.11
-0.15
0.09
0.39
0.485
0.425
0.38
0.15
-0.115
-0.16
-0.205
-0.175
0.05
0.3
0.38
0.32
0.27
0.125
-0.08
-0.16
-0.07
-0.04
0.125
0.305
0.36
0.375
0.33
0.125
-0.065
-0.15
-0.13
-0.17
0.06
0.155
0.325
0.43
0.29
0.085
-0.07
-0.105
-0.095
-0.015
0.13
0.33
0.35
0.35
0.275
0.1
-0.145
-0.17
-0.195
-0.075
0.175
0.315
0.39
0.355
0.285
0.085
-0.085
-0.17
-0.045
0.045
0.235
0.36
0.36
0.3
0.275
0.07
-0.04
-0.11
-0.15
0.02
0.225
0.365
0.43
0.39
0.26
0.05
-0.04
-0.05
-0.1
-0.045
0.185
0.345
0.35
0.29
0.165
-0.005
-0.15
-0.2
-0.14
0.005
0.16
0.315
0.335
0.305
0.225
0.08
-0.105
-0.2
-0.145
-0.01
0.19
0.295
0.335
0.34
0.195
-0.015
-0.165
-0.2
-0.1
0.065
0.2
0.325
0.31
0.285
0.125
-0.085
-0.19
-0.165
-0.085
0.02
0.185
0.3
0.355
0.335
0.135
-0.03
-0.13
-0.185
-0.185
0.005
0.145
0.205
0.295
0.315
0.21
0.1
0.06
0.165
0.34
0.65
0.87
0.985
1.035
1.01
0.8
0.59
0.405
0.16
0.02
0.175
0.315
0.385
0.345
0.31
0.115
-0.095
-0.095
-0.05
-0.05
0.13
0.315
0.405
0.34
0.195
0.075
-0.115
-0.11
-0.12
-0.16
0.095
0.27
0.355
0.325
0.325
0.145
-0.045
-0.175
-0.115
-0.07
0.145
0.275
0.33
0.29
0.2
0.055
-0.1
-0.155
-0.145
-0.11
0.015
0.195
0.29
0.315
0.29
0.135
-0.015
-0.12
-0.12
-0.045
0.12
0.285
0.345
0.32
0.2
0.03
-0.08
-0.08
-0.075
-0.015
0.18
0.315
0.365
0.35
0.24
0.025
-0.095
-0.12
-0.13
-0.005
0.185
0.34
0.4
0.335
0.24
0.05
-0.11
-0.145
-0.08
0.025
0.25
0.39
0.45
0.345
0.235
0.055
-0.045
-0.11
-0.05
0.05
0.24
0.375
0.415
0.395
0.275
0.08
-0.06
-0.07
-0.06
0.08
0.255
0.365
0.43
0.405
0.255
0.065
-0.085
-0.035
0.015
0.135
0.35
0.46
0.465
0.425
0.295
0.095
0.0
-0.07
-0.005
0.255
0.36
0.505
0.475
0.47
0.285
0.135
0.045
-0.025
0.06
0.26
0.45
0.51
0.49
0.515
0.28
0.075
-0.035
-0.085
-0.08
0.1
0.405
0.52
0.475
0.425
0.22
0.0
-0.1
-0.13
-0.065
0.06
0.21
0.32
0.345
0.335
0.12
-0.08
-0.15
-0.16
-0.14
0.06
0.2
0.29
0.33
0.275
0.045
-0.13
-0.185
-0.17
-0.145
0.09
0.215
0.305
0.285
0.225
0.05
-0.115
-0.25
-0.215
-0.09
0.055
0.215
0.305
0.25
0.185
-0.005
-0.235
-0.29
-0.185
-0.13
0.065
0.225
0.26
0.25
0.205
0.0
-0.19
-0.195
-0.105
-0.115
0.08
0.21
0.265
0.25
0.155
-0.055
-0.12
-0.175
-0.18
-0.085
0.115
0.295
0.29
0.27
0.15
0.045
-0.16
-0.22
-0.14
-0.05
0.075
0.14
0.335
0.24
0.15
0.0
-0.095
-0.185
-0.145
-0.065
0.09
0.24
0.26
0.275
0.14
-0.06
-0.08
-0.155
-0.175
-0.045
0.135
0.25
0.29
0.255
0.155
0.01
-0.125
-0.23
-0.17
0.0
0.155
0.255
0.27
0.31
0.145
-0.075
-0.18
-0.195
-0.17
-0.01
0.16
0.285
0.28
0.22
0.09
-0.07
-0.185
-0.18
-0.12
-0.02
0.135
0.295
0.275
0.25
0.09
-0.095
-0.205
-0.21
-0.13
0.06
0.225
0.265
0.255
0.28
0.13
-0.07
-0.125
-0.175
-0.2
0.025
0.135
0.25
0.275
0.295
0.145
-0.085
-0.135
-0.195
-0.18
0.0
0.065
0.29
0.355
0.26
0.055
-0.125
-0.235
-0.12
-0.11
0.125
0.31
0.355
0.3
0.245
0.08
-0.08
-0.175
-0.15
-0.045
0.115
0.265
0.33
0.29
0.285
0.105
-0.065
-0.135
-0.075
-0.04
0.11
0.3
0.37
0.305
0.205
0.03
-0.12
-0.125
-0.125
-0.075
0.095
0.235
0.28
0.285
0.22
0.07
-0.09
-0.175
-0.125
-0.075
0.055
0.195
0.31
0.315
0.26
0.05
-0.115
-0.22
-0.17
-0.07
0.08
0.195
0.29
0.265
0.25
0.05
-0.155
-0.2
-0.17
-0.045
0.155
0.27
0.25
0.225
0.145
-0.03
-0.18
-0.18
-0.155
-0.085
0.105
0.25
0.295
0.25
0.115
-0.06
-0.215
-0.27
-0.265
-0.105
0.16
0.35
0.44
0.47
0.435
0.325
0.28
0.4
0.535
0.735
0.91
1.035
1.15
1.14
0.94
0.56
0.19
0.08
0.035
0.115
0.27
0.365
0.36
0.305
0.13
-0.065
-0.17
-0.15
-0.145
0.005
0.18
0.305
0.27
0.255
0.2
-0.045
-0.135
-0.11
-0.155
0.05
0.23
0.325
0.33
0.255
0.08
-0.12
-0.185
-0.205
-0.16
0.015
0.21
0.3
0.3
0.3
0.12
-0.09
-0.195
-0.195
-0.16
0.03
0.165
0.315
0.355
0.245
0.14
-0.09
-0.22
-0.205
-0.175
0.02
0.175
0.29
0.31
0.235
0.14
-0.02
-0.1
-0.19
-0.165
0.07
0.26
0.305
0.29
0.26
0.03
-0.095
-0.2
-0.175
-0.105
0.05
0.195
0.315
0.33
0.265
0.1
-0.09
-0.18
-0.12
-0.085
0.105
0.25
0.345
0.35
0.27
0.105
-0.035
-0.15
-0.12
0.06
0.2
0.33
0.375
0.31
0.255
0.08
-0.02
-0.07
-0.035
0.07
0.235
0.4
0.44
0.445
0.32
0.095
-0.025
-0.045
-0.015
0.14
0.285
0.39
0.375
0.485
0.38
0.175
0.1
0.055
0.065
0.2
0.345
0.51
0.485
0.42
0.345
0.11
-0.035
-0.09
0.03
0.29
0.465
0.545
0.54
0.5
0.325
0.14
0.03
0.02
-0.01
0.14
0.285
0.335
0.34
0.35
0.25
0.035
-0.095
-0.105
-0.105
0.075
0.24
0.345
0.285
0.285
0.135
-0.045
-0.13
-0.235
-0.32
-0.095
0.175
0.295
0.225
0.335
0.11
-0.08
-0.17
-0.18
-0.145
0.035
0.19
0.295
0.27
0.26
0.13
-0.045
-0.15
-0.19
-0.185
-0.05
0.165
0.265
0.295
0.27
0.085
-0.12
-0.165
-0.15
-0.145
0.02
0.23
0.32
0.31
0.285
0.065
-0.16
-0.22
-0.2
-0.235
-0.06
0.145
0.34
0.34
0.275
0.05
-0.14
-0.215
-0.18
-0.1
0.115
0.215
0.285
0.28
0.225
0.04
-0.155
-0.23
-0.195
-0.14
0.045
0.245
0.28
0.235
0.11
-0.015
-0.2
-0.18
-0.23
-0.15
0.135
0.215
0.285
0.29
0.16
-0.075
-0.26
-0.245
-0.14
-0.14
0.055
0.23
0.315
0.27
0.175
-0.035
-0.16
-0.25
-0.22
-0.07
0.07
0.22
0.235
0.21
0.16
-0.04
-0.16
-0.215
-0.2
-0.01
0.13
0.245
0.255
0.23
0.1
-0.055
-0.16
-0.21
-0.225
-0.13
0.07
0.205
0.27
0.255
0.15
-0.06
-0.165
-0.21
-0.255
-0.2
0.03
0.3
0.32
0.185
0.03
-0.135
-0.17
-0.13
-0.12
-0.045
0.105
0.23
0.255
0.24
0.135
-0.07
-0.205
-0.195
-0.165
-0.065
0.19
0.29
0.325
0.275
0.08
-0.195
-0.25
-0.25
-0.215
-0.08
0.115
0.22
0.2
0.15
0.065
-0.055
-0.165
-0.16
-0.125
-0.01
0.12
0.185
0.235
0.17
0.075
-0.105
-0.21
-0.205
-0.15
0.1
0.24
0.345
0.335
0.285
0.065
-0.085
-0.205
-0.23
-0.165
0.05
0.23
0.3
0.31
0.245
0.04
-0.06
-0.14
-0.18
-0.08
0.085
0.155
0.225
0.275
0.31
0.075
-0.19
-0.265
-0.23
-0.255
0.005
0.235
0.29
0.245
0.195
0.0
-0.22
-0.27
-0.245
-0.17
-0.025
0.19
0.3
0.315
0.24
0.055
-0.13
-0.18
-0.28
-0.23
0.035
0.19
0.295
0.215
0.11
-0.105
-0.23
-0.27
-0.215
-0.105
0.04
0.195
0.265
0.24
0.19
-0.02
-0.18
-0.155
-0.175
-0.09
0.055
0.165
0.165
0.1
0.085
-0.125
-0.23
-0.215
-0.155
0.03
0.27
0.635
0.78
0.85
0.81
0.67
0.625
0.6
0.68
0.815
0.955
0.905
0.67
0.44
0.23
0.005
-0.15
-0.175
-0.08
-0.005
0.21
0.26
0.255
0.22
0.09
-0.025
-0.115
-0.195
-0.135
-0.015
0.135
0.165
0.215
0.245
0.095
-0.07
-0.16
-0.19
-0.21
-0.065
0.155
0.225
0.235
0.24
0.115
-0.09
-0.155
-0.23
-0.175
-0.025
0.155
0.285
0.325
0.265
0.05
-0.13
-0.2
-0.22
-0.19
0.04
0.195
0.28
0.25
0.24
0.025
-0.13
-0.17
-0.17
-0.15
0.0
0.19
0.335
0.295
0.24
0.105
-0.16
-0.21
-0.135
-0.08
0.045
0.13
0.21
0.265
0.29
0.095
-0.15
-0.2
-0.17
-0.12
0.045
0.205
0.3
0.305
0.295
0.12
-0.045
-0.16
-0.21
-0.065
0.135
0.295
0.355
0.355
0.31
0.08
-0.12
-0.215
-0.165
-0.06
0.13
0.29
0.395
0.455
0.355
0.025
-0.125
-0.155
-0.115
0.005
0.155
0.305
0.38
0.36
0.325
0.13
-0.085
-0.11
0.02
0.11
0.27
0.415
0.495
0.415
0.33
0.165
-0.005
-0.09
-0.01
0.175
0.4
0.515
0.5
0.375
0.32
0.205
0.055
0.005
0.08
0.125
0.26
0.45
0.455
0.455
0.35
0.11
-0.045
-0.09
-0.13
0.02
0.25
0.35
0.395
0.385
0.185
0.005
-0.145
-0.19
-0.14
0.01
0.19
0.37
0.35
0.27
0.105
-0.115
-0.245
-0.215
-0.175
-0.075
0.14
0.245
0.28
0.335
0.19
-0.045
-0.18
-0.21
-0.25
-0.05
0.125
0.195
0.27
0.325
0.14
-0.045
-0.145
-0.23
-0.215
0.035
0.27
0.31
0.33
0.275
0.1
-0.095
-0.18
-0.225
-0.17
-0.03
0.13
0.295
0.315
0.25
0.035
-0.1
-0.18
-0.225
-0.225
-0.02
0.21
0.325
0.275
0.23
0.055
-0.125
-0.205
-0.2
-0.2
-0.005
0.22
0.345
0.31
0.215
0.025
-0.125
-0.18
-0.15
-0.1
0.07
0.24
0.31
0.355
0.215
-0.025
-0.19
-0.245
-0.22
-0.205
0.1
0.245
0.305
0.275
0.175
0.03
-0.155
-0.215
-0.205
-0.115
0.07
0.245
0.27
0.28
0.2
-0.035
-0.19
-0.29
-0.225
-0.095
0.095
0.26
0.355
0.255
0.21
0.02
-0.23
-0.235
-0.17
-0.15
0.055
0.18
0.31
0.32
0.215
-0.035
-0.2
-0.23
-0.21
-0.035
0.145
0.22
0.185
0.21
0.155
-0.055
-0.16
-0.185
-0.185
-0.045
0.155
0.265
0.285
0.24
0.105
-0.1
-0.21
-0.24
-0.285
-0.045
0.195
0.26
0.27
0.24
0.08
-0.085
-0.195
-0.225
-0.225
-0.05
0.155
0.305
0.265
0.225
0.065
-0.125
-0.17
-0.225
-0.245
-0.095
0.105
0.31
0.355
0.285
0.09
-0.1
-0.235
-0.21
-0.145
-0.015
0.165
0.295
0.25
0.135
0.02
-0.145
-0.315
-0.1
-0.11
0.055
0.23
0.315
0.28
0.265
0.085
-0.14
-0.24
-0.185
-0.18
0.03
0.205
0.255
0.25
0.25
0.065
-0.155
-0.215
-0.2
-0.17
0.055
0.225
0.265
0.265
0.2
0.045
-0.12
-0.205
-0.19
-0.095
0.12
0.26
0.33
0.225
0.195
-0.03
-0.28
-0.105
-0.05
0.0
0.205
0.335
0.325
0.28
0.245
0.015
-0.18
-0.175
-0.14
-0.075
0.12
0.295
0.35
0.295
0.2
-0.015
-0.18
-0.19
-0.205
-0.13
0.12
0.24
0.28
0.24
0.145
-0.1
-0.13
-0.22
-0.195
-0.05
0.12
0.25
0.285
0.24
0.085
0.03
-0.18
-0.285
-0.21
-0.085
0.075
0.26
0.265
0.21
0.125
-0.055
-0.17
-0.225
-0.18
-0.045
0.08
0.205
0.335
0.315
0.15
-0.115
-0.225
-0.245
-0.17
-0.05
0.14
0.195
0.26
0.21
0.095
-0.175
-0.275
-0.355
-0.205
-0.02
0.235
0.38
0.495
0.645
0.595
0.5
0.395
0.415
0.485
0.69
0.93
1.12
1.08
0.85
0.44
0.135
-0.06
-0.09
-0.105
0.015
0.16
0.27
0.285
0.215
0.075
-0.11
-0.22
-0.27
-0.19
0.015
0.175
0.275
0.29
0.26
0.055
-0.135
-0.285
-0.21
-0.155
-0.005
0.18
0.3
0.315
0.25
0.04
-0.12
-0.245
-0.275
-0.25
-0.05
0.125
0.28
0.24
0.22
0.02
-0.145
-0.22
-0.185
-0.18
0.02
0.2
0.325
0.27
0.195
-0.065
-0.195
-0.2
-0.185
-0.16
0.05
0.17
0.27
0.27
0.27
0.1
-0.1
-0.21
-0.23
-0.045
0.09
0.19
0.255
0.215
0.22
0.03
-0.16
-0.205
-0.19
-0.115
0.055
0.275
0.33
0.245
0.22
0.01
-0.1
-0.16
-0.155
-0.095
0.035
0.16
0.23
0.25
0.26
0.035
-0.125
-0.08
-0.075
-0.015
0.18
0.28
0.33
0.285
0.215
-0.04
-0.18
-0.22
-0.06
0.085
0.235
0.42
0.435
0.355
0.21
0.09
-0.01
-0.085
-0.085
0.0
0.22
0.37
0.4
0.4
0.345
0.135
0.01
-0.04
-0.025
0.11
0.24
0.355
0.49
0.485
0.345
0.07
0.015
-0.03
-0.02
0.13
0.315
0.465
0.47
0.395
0.345
0.145
-0.03
-0.115
-0.085
0.105
0.29
0.38
0.37
0.385
0.195
-0.015
-0.14
-0.145
-0.075
0.095
0.245
0.275
0.25
0.235
0.12
-0.12
-0.245
-0.205
-0.18
0.0
0.195
0.295
0.275
0.23
0.045
-0.145
-0.18
-0.125
-0.145
0.02
0.135
0.18
0.225
0.25
0.025
-0.135
-0.255
-0.205
-0.15
0.02
0.225
0.275
0.255
0.25
-0.01
-0.17
-0.245
-0.23
-0.225
0.015
0.205
0.29
0.235
0.23
0.095
-0.115
-0.205
-0.16
-0.145
-0.03
0.14
0.265
0.295
0.25
-0.03
-0.19
-0.22
-0.16
-0.2
0.025
0.21
0.235
0.255
0.17
-0.05
-0.165
-0.25
-0.275
-0.14
0.035
0.165
0.22
0.22
0.17
0.0
-0.185
-0.215
-0.205
-0.185
-0.02
0.235
0.29
0.23
0.17
-0.02
-0.235
-0.345
-0.185
-0.115
0.07
0.185
0.24
0.215
0.135
-0.13
-0.235
-0.245
-0.22
-0.135
0.07
0.22
0.255
0.235
0.085
-0.085
-0.25
-0.3
-0.225
-0.165
0.1
0.22
0.245
0.21
0.12
-0.07
-0.175
-0.25
-0.2
-0.055
0.115
0.215
0.23
0.225
0.11
-0.105
-0.22
-0.265
-0.185
-0.09
0.11
0.225
0.27
0.24
0.105
-0.05
-0.23
-0.275
-0.265
-0.08
0.1
0.125
0.255
0.24
0.06
-0.145
-0.24
-0.225
-0.255
-0.085
0.125
0.21
0.195
0.235
0.085
-0.1
-0.295
-0.23
-0.195
-0.02
0.15
0.215
0.23
0.225
0.04
-0.1
-0.21
-0.265
-0.235
-0.045
0.09
0.22
0.24
0.245
0.095
-0.07
-0.155
-0.18
-0.19
-0.02
0.095
0.26
0.275
0.28
0.115
-0.155
-0.18
-0.14
-0.145
0.045
0.32
0.345
0.235
0.2
0.03
-0.13
-0.25
-0.145
-0.11
0.065
0.2
0.195
0.16
0.105
-0.08
-0.25
-0.22
-0.18
-0.115
0.03
0.18
0.245
0.205
0.13
0.025
-0.145
-0.245
-0.24
-0.18
0.025
0.215
0.285
0.265
0.175
-0.09
-0.23
-0.28
-0.28
-0.205
0.03
0.285
0.285
0.23
0.13
-0.035
-0.185
-0.25
-0.195
-0.07
0.1
0.22
0.265
0.235
0.09
-0.085
-0.205
-0.24
-0.23
-0.15
-0.04
0.105
0.09
0.15
0.09
-0.07
-0.115
-0.075
0.045
0.23
0.47
0.69
0.825
0.895
0.795
0.61
0.56
0.55
0.55
0.405
0.415
0.37
0.29
0.195
0.21
0.075
-0.125
-0.2
-0.165
-0.01
0.225
0.295
0.31
0.245
0.11
-0.105
-0.245
-0.245
-0.195
-0.06
0.15
0.27
0.29
0.23
0.06
-0.14
-0.21
-0.195
-0.2
-0.03
0.155
0.235
0.27
0.235
0.005
-0.15
-0.185
-0.18
-0.205
0.04
0.295
0.335
0.265
0.22
0.0
-0.165
-0.23
-0.225
-0.145
0.04
0.215
0.3
0.26
0.215
0.095
-0.135
-0.235
-0.225
-0.17
0.04
0.205
0.29
0.265
0.19
0.04
-0.095
-0.21
-0.235
-0.12
0.1
0.315
0.375
0.29
0.2
-0.04
-0.22
-0.22
-0.165
-0.06
0.1
0.235
0.32
0.27
0.21
0.05
-0.125
-0.155
-0.11
-0.115
0.1
0.215
0.28
0.29
0.255
0.08
-0.085
-0.18
-0.105
0.015
0.13
0.265
0.36
0.33
0.28
0.08
-0.04
-0.115
-0.09
0.035
0.18
0.3
0.355
0.35
0.25
0.145
0.01
-0.02
0.005
0.06
0.26
0.41
0.455
0.455
0.29
0.075
0.01
0.05
0.025
0.105
0.275
0.435
0.475
0.42
0.34
0.155
-0.01
-0.035
-0.05
0.15
0.28
0.445
0.385
0.38
0.27
0.105
-0.105
-0.145
-0.09
0.055
0.25
0.315
0.335
0.29
0.135
-0.025
-0.125
-0.2
-0.15
-0.02
0.215
0.27
0.31
0.245
0.065
-0.105
-0.22
-0.295
-0.265
-0.115
0.11
0.29
0.25
0.2
0.015
-0.17
-0.21
-0.205
-0.19
-0.005
0.155
0.26
0.265
0.275
0.12
-0.135
-0.245
-0.24
-0.245
-0.04
0.22
0.315
0.345
0.29
0.06
-0.155
-0.205
-0.255
-0.225
-0.075
0.095
0.275
0.195
0.195
-0.01
-0.2
-0.19
-0.125
-0.17
-0.04
0.145
0.3
0.265
0.135
0.02
-0.19
-0.24
-0.18
-0.175
0.035
0.17
0.22
0.295
0.265
0.035
-0.215
-0.27
-0.185
-0.18
-0.005
0.135
0.265
0.205
0.13
0.045
-0.13
-0.205
-0.265
-0.185
0.03
0.205
0.26
0.23
0.13
-0.09
-0.17
-0.175
-0.17
-0.155
0.01
0.115
0.15
0.26
0.15
-0.04
-0.155
-0.245
-0.215
-0.165
0.07
0.205
0.215
0.21
0.14
-0.045
-0.215
-0.255
-0.215
-0.11
0.015
0.12
0.285
0.235
0.165
-0.075
-0.185
-0.28
-0.29
-0.16
0.07
0.21
0.26
0.21
0.1
-0.11
-0.21
-0.295
-0.205
-0.08
0.11
0.22
0.26
0.23
0.01
-0.175
-0.235
-0.19
-0.16
-0.05
0.105
0.195
0.125
0.205
0.16
-0.06
-0.235
-0.32
-0.245
-0.065
0.135
0.22
0.245
0.24
0.09
-0.155
-0.185
-0.215
-0.22
-0.085
0.13
0.22
0.225
0.205
0.04
-0.135
-0.265
-0.245
-0.22
-0.065
0.105
0.215
0.295
0.235
0.075
-0.135
-0.3
-0.335
-0.245
-0.01
0.115
0.18
0.16
0.17
0.055
-0.18
-0.31
-0.28
-0.245
-0.06
0.205
0.245
0.225
0.205
0.08
-0.16
-0.23
-0.25
-0.21
0.01
0.2
0.235
0.18
0.17
0.025
-0.13
-0.16
-0.1
-0.155
-0.065
0.08
0.26
0.25
0.23
0.01
-0.145
-0.2
-0.195
-0.145
0.005
0.14
0.265
0.245
0.14
-0.005
-0.11
-0.155
-0.11
-0.075
0.095
0.27
0.29
0.235
0.185
0.06
-0.105
-0.205
-0.205
-0.145
-0.005
0.17
0.275
0.245
0.135
0.04
-0.155
-0.21
-0.27
-0.13
0.045
0.245
0.295
0.235
0.085
-0.13
-0.225
-0.21
-0.195
-0.125
0.025
0.17
0.28
0.29
0.155
-0.045
-0.17
-0.24
-0.225
-0.14
0.105
0.24
0.305
0.25
0.09
-0.135
-0.215
-0.25
-0.23
-0.145
0.09
0.2
0.25
0.225
0.12
-0.125
-0.29
-0.305
-0.285
-0.165
0.08
0.215
0.215
0.29
0.22
0.16
0.175
0.3
0.46
0.67
0.86
0.985
1.085
1.1
0.9
0.67
0.295
0.015
-0.03
0.095
0.23
0.26
0.28
0.26
0.1
-0.135
-0.245
-0.2
-0.17
0.065
0.19
0.31
0.3
0.21
0.015
-0.19
-0.315
-0.25
-0.19
-0.02
0.14
0.24
0.285
0.255
0.075
-0.155
-0.25
-0.22
-0.19
-0.05
0.12
0.295
0.325
0.26
0.085
-0.175
-0.27
-0.245
-0.145
0.035
0.18
0.26
0.235
0.18
0.005
-0.18
-0.235
-0.225
-0.16
0.035
0.225
0.275
0.255
0.205
-0.05
-0.205
-0.245
-0.235
-0.245
0.12
0.305
0.375
0.28
0.105
0.02
-0.18
-0.245
-0.175
-0.085
0.07
0.315
0.37
0.315
0.235
0.01
-0.105
-0.215
-0.18
-0.1
0.08
0.26
0.34
0.325
0.165
-0.015
-0.22
-0.125
-0.09
-0.01
0.125
0.25
0.295
0.36
0.29
0.035
-0.15
-0.145
-0.09
-0.005
0.16
0.275
0.34
0.385
0.28
0.08
-0.045
-0.125
-0.085
-0.015
0.24
0.455
0.465
0.41
0.295
0.135
-0.005
-0.015
-0.01
0.135
0.285
0.39
0.445
0.455
0.305
0.06
-0.025
-0.015
0.075
0.18
0.42
0.49
0.53
0.48
0.25
0.07
0.0
-0.06
-0.08
0.05
0.27
0.39
0.43
0.395
0.205
0.02
-0.12
-0.15
-0.15
0.045
0.2
0.28
0.275
0.275
0.095
-0.08
-0.17
-0.21
-0.16
0.0
0.175
0.21
0.235
0.195
0.035
-0.175
-0.24
-0.18
-0.165
0.03
0.17
0.27
0.27
0.285
0.075
-0.21
-0.3
-0.255
-0.22
-0.01
0.135
0.24
0.235
0.205
0.0
-0.16
-0.195
-0.195
-0.175
-0.005
0.185
0.22
0.2
0.11
-0.005
-0.18
-0.245
-0.23
-0.13
0.025
0.1
0.125
0.195
0.195
-0.025
-0.27
-0.285
-0.135
-0.09
0.055
0.2
0.3
0.255
0.145
-0.005
-0.165
-0.25
-0.22
-0.13
0.04
0.195
0.225
0.205
0.185
-0.04
-0.2
-0.28
-0.205
-0.11
0.035
0.165
0.205
0.23
0.14
-0.075
-0.2
-0.215
-0.215
-0.065
0.09
0.23
0.27
0.2
0.095
-0.08
-0.19
-0.21
-0.19
-0.12
0.045
0.15
0.185
0.28
0.125
-0.07
-0.185
-0.27
-0.18
-0.11
0.115
0.225
0.29
0.25
0.125
-0.095
-0.19
-0.23
-0.19
-0.07
0.065
0.2
0.255
0.245
0.095
-0.08
-0.185
-0.215
-0.14
-0.065
0.12
0.23
0.25
0.21
0.04
-0.06
-0.195
-0.275
-0.2
-0.01
0.165
0.3
0.305
0.19
0.065
-0.05
-0.21
-0.23
-0.23
-0.07
0.225
0.285
0.255
0.225
0.065
-0.105
-0.185
-0.18
-0.185
-0.03
0.2
0.295
0.28
0.235
0.055
-0.155
-0.23
-0.205
-0.21
-0.035
0.18
0.23
0.215
0.255
0.05
-0.15
-0.205
-0.17
-0.19
-0.035
0.175
0.32
0.27
0.225
0.035
-0.175
-0.28
-0.165
-0.12
0.005
0.175
0.285
0.285
0.24
0.005
-0.12
-0.22
-0.17
-0.11
0.055
0.205
0.35
0.25
0.275
0.09
-0.14
-0.19
-0.18
-0.11
0.065
0.195
0.325
0.325
0.275
0.085
-0.065
-0.115
-0.065
-0.03
0.125
0.28
0.335
0.28
0.15
0.03
-0.13
-0.22
-0.22
-0.09
0.095
0.26
0.265
0.195
0.1
-0.045
-0.18
-0.275
-0.185
-0.045
0.1
0.22
0.24
0.245
0.125
-0.04
-0.195
-0.26
-0.21
-0.06
0.15
0.225
0.26
0.235
0.14
-0.08
-0.195
-0.235
-0.225
-0.04
0.115
0.23
0.23
0.25
0.11
-0.115
-0.255
-0.245
-0.175
-0.03
0.145
0.275
0.29
0.215
0.0
-0.235
-0.32
-0.305
-0.265
-0.065
0.16
0.36
0.495
0.545
0.545
0.525
0.5
0.465
0.535
0.705
0.91
1.09
1.145
0.945
0.43
0.07
-0.11
-0.11
-0.11
0.03
0.23
0.31
0.32
0.315
0.14
-0.05
-0.155
-0.205
-0.16
0.015
0.185
0.265
0.27
0.285
0.08
-0.11
-0.145
-0.17
-0.135
0.07
0.225
0.34
0.365
0.29
0.075
-0.21
-0.235
-0.085
-0.11
0.07
0.235
0.26
0.29
0.26
0.17
-0.045
-0.135
-0.135
-0.105
0.025
0.215
0.36
0.345
0.255
0.04
-0.08
-0.155
-0.105
-0.05
0.14
0.33
0.39
0.335
0.315
0.075
-0.095
-0.13
-0.15
-0.055
0.125
0.265
0.335
0.34
0.3
0.075
-0.035
-0.07
-0.06
-0.005
0.205
0.325
0.305
0.315
0.29
0.145
-0.04
-0.12
-0.065
0.015
0.21
0.375
0.41
0.375
0.235
0.085
-0.05
-0.015
-0.02
0.145
0.33
0.415
0.46
0.45
0.355
0.115
-0.075
-0.105
-0.005
0.155
0.33
0.465
0.5
0.475
0.325
0.115
-0.015
-0.07
0.005
0.18
0.355
0.445
0.5
0.52
0.38
0.17
0.05
0.035
0.035
0.16
0.29
0.5
0.62
0.555
0.39
0.23
0.125
0.095
0.095
0.245
0.405
0.51
0.525
0.515
0.34
0.12
0.04
0.045
0.01
0.215
0.37
0.43
0.445
0.405
0.235
0.01
-0.095
-0.055
-0.01
0.115
0.265
0.35
0.385
0.395
0.145
-0.04
-0.165
-0.2
-0.13
0.0
0.195
0.335
0.405
0.39
0.14
0.0
-0.14
-0.145
-0.105
0.11
0.25
0.285
0.28
0.27
0.13
0.005
-0.085
-0.155
-0.21
0.01
0.175
0.33
0.315
0.28
0.065
-0.09
-0.175
-0.17
-0.1
0.155
0.24
0.26
0.31
0.225
0.02
-0.11
-0.155
-0.17
-0.065
0.06
0.245
0.27
0.245
0.245
0.045
-0.15
-0.195
-0.225
-0.135
0.08
0.265
0.335
0.32
0.2
0.01
-0.075
-0.23
-0.195
-0.025
0.16
0.22
0.27
0.3
0.22
0.005
-0.14
-0.2
-0.195
-0.045
0.15
0.31
0.31
0.29
0.185
0.01
-0.18
-0.225
-0.215
-0.085
0.16
0.295
0.305
0.24
0.1
-0.09
-0.2
-0.16
-0.135
-0.005
0.125
0.26
0.315
0.29
0.12
-0.085
-0.15
-0.18
-0.175
-0.015
0.16
0.275
0.27
0.27
0.12
-0.095
-0.22
-0.27
-0.15
0.015
0.19
0.285
0.275
0.295
0.11
-0.1
-0.22
-0.21
-0.145
0.055
0.165
0.21
0.29
0.24
0.125
-0.065
-0.165
-0.215
-0.145
0.01
0.17
0.28
0.28
0.215
0.03
-0.1
-0.22
-0.195
-0.175
0.055
0.175
0.245
0.245
0.265
0.105
-0.105
-0.23
-0.245
-0.195
-0.055
0.165
0.295
0.325
0.25
0.04
-0.035
-0.185
-0.115
-0.09
0.095
0.235
0.29
0.285
0.315
0.09
-0.13
-0.185
-0.15
-0.125
0.1
0.27
0.335
0.275
0.22
0.07
-0.135
-0.19
-0.13
-0.13
0.065
0.26
0.32
0.3
0.255
0.005
-0.205
-0.245
-0.24
-0.16
0.055
0.16
0.25
0.3
0.155
0.0
-0.09
-0.125
-0.145
-0.155
0.06
0.15
0.245
0.355
0.185
-0.04
-0.155
-0.13
-0.125
-0.09
0.115
0.25
0.31
0.31
0.145
-0.06
-0.16
-0.19
-0.165
-0.055
0.12
0.295
0.29
0.275
0.14
-0.085
-0.245
-0.265
-0.195
0.105
0.435
0.63
0.73
0.765
0.7
0.605
0.5
0.445
0.585
0.755
0.865
0.785
0.48
0.34
0.24
-0.005
-0.13
-0.13
-0.13
0.02
0.215
0.32
0.345
0.335
0.15
-0.055
-0.15
-0.15
-0.155
0.0
0.165
0.235
0.255
0.22
0.08
-0.05
-0.13
-0.165
-0.13
0.035
0.195
0.27
0.305
0.26
0.075
-0.075
-0.21
-0.155
-0.12
0.025
0.175
0.295
0.27
0.265
0.065
-0.145
-0.22
-0.225
-0.165
0.06
0.195
0.3
0.375
0.285
0.095
-0.045
-0.13
-0.14
-0.105
0.07
0.275
0.285
0.26
0.27
0.065
-0.055
-0.155
-0.17
-0.16
0.095
0.25
0.365
0.33
0.295
0.105
-0.04
-0.11
-0.13
-0.155
0.09
0.28
0.36
0.325
0.29
0.085
-0.025
-0.15
-0.115
-0.06
0.125
0.23
0.33
0.325
0.29
0.165
0.005
-0.105
-0.105
0.025
0.26
0.36
0.445
0.415
0.315
0.135
0.035
-0.03
-0.03
0.01
0.275
0.41
0.425
0.4
0.33
0.14
0.06
0.015
0.015
0.105
0.29
0.43
0.495
0.49
0.39
0.215
0.055
0.02
0.015
0.145
0.365
0.545
0.515
0.52
0.35
0.19
0.035
0.0
0.06
0.195
0.29
0.425
0.525
0.5
0.355
0.11
-0.06
-0.12
-0.015
0.12
0.25
0.37
0.36
0.355
0.185
-0.025
-0.115
-0.145
-0.06
0.005
0.175
0.295
0.35
0.34
0.18
-0.065
-0.155
-0.16
-0.145
-0.015
0.165
0.27
0.275
0.235
0.065
-0.08
-0.15
-0.11
-0.135
0.0
0.155
0.23
0.265
0.26
0.12
-0.12
-0.265
-0.225
-0.17
0.02
0.21
0.265
0.26
0.255
0.075
-0.01
-0.135
-0.195
-0.15
0.05
0.225
0.29
0.315
0.3
0.125
-0.05
-0.18
-0.18
-0.115
0.07
0.255
0.29
0.265
0.215
0.09
-0.06
-0.115
-0.15
-0.16
0.03
0.29
0.295
0.31
0.325
0.16
-0.075
-0.18
-0.195
-0.175
0.03
0.26
0.36
0.285
0.235
0.0
-0.105
-0.15
-0.14
-0.11
0.135
0.27
0.335
0.3
0.26
0.03
-0.13
-0.185
-0.11
-0.055
0.15
0.255
0.305
0.255
0.24
0.035
-0.085
-0.145
-0.135
-0.06
0.09
0.25
0.34
0.325
0.17
0.02
-0.08
-0.165
-0.16
-0.055
0.17
0.25
0.28
0.255
0.21
0.01
-0.135
-0.15
-0.14
0.005
0.15
0.235
0.355
0.29
0.12
-0.04
-0.085
-0.16
-0.16
-0.03
0.16
0.28
0.295
0.265
0.165
0.005
-0.09
-0.165
-0.155
0.045
0.215
0.35
0.35
0.3
0.13
-0.06
-0.17
-0.16
-0.11
0.035
0.205
0.325
0.36
0.29
0.145
-0.065
-0.13
-0.165
-0.15
0.03
0.205
0.355
0.335
0.335
0.18
0.005
-0.085
-0.14
-0.065
0.09
0.23
0.32
0.265
0.32
0.2
0.015
-0.06
-0.085
-0.045
0.16
0.285
0.405
0.435
0.375
0.18
0.07
-0.04
-0.095
-0.055
0.11
0.295
0.43
0.405
0.335
0.155
-0.005
-0.14
-0.14
-0.03
0.13
0.23
0.35
0.31
0.265
0.145
-0.045
-0.195
-0.135
-0.005
0.14
0.29
0.4
0.38
0.305
0.075
-0.105
-0.175
-0.125
-0.105
0.11
0.33
0.38
0.385
0.32
0.1
-0.055
-0.085
-0.095
-0.05
0.125
0.315
0.395
0.35
0.23
0.025
-0.11
-0.115
-0.165
-0.125
0.075
0.24
0.335
0.28
0.185
0.015
-0.025
0.09
0.185
0.32
0.67
0.95
1.14
1.14
1.005
0.815
0.725
0.735
0.735
0.65
0.575
0.525
0.54
0.5
0.365
0.14
-0.01
-0.075
-0.04
0.085
0.255
0.415
0.415
0.41
0.265
0.065
-0.045
-0.065
-0.085
0.07
0.255
0.375
0.38
0.48
0.315
0.025
-0.05
-0.08
-0.06
0.065
0.275
0.35
0.36
0.4
0.305
0.09
-0.095
-0.07
-0.025
0.155
0.31
0.385
0.375
0.38
0.27
0.07
-0.045
-0.08
-0.015
0.135
0.305
0.385
0.38
0.39
0.285
0.075
-0.095
-0.085
-0.06
0.12
0.345
0.44
0.44
0.37
0.195
0.025
0.0
-0.04
0.035
0.21
0.335
0.395
0.4
0.355
0.245
0.14
0.015
-0.02
0.01
0.125
0.375
0.535
0.465
0.39
0.175
0.04
-0.015
0.025
0.11
0.345
0.49
0.465
0.425
0.39
0.19
0.055
0.03
0.05
0.115
0.325
0.495
0.545
0.5
0.48
0.31
0.125
0.035
0.115
0.2
0.35
0.505
0.54
0.545
0.48
0.255
0.22
0.115
0.12
0.22
0.435
0.59
0.645
0.63
0.545
0.34
0.25
0.165
0.21
0.275
0.465
0.59
0.68
0.64
