# TIPE ECG 2021 - ECG-ID Database v1.0.0 par Physionet
# [N° de la personne, N° de l'enregistrement, Période d'échantillonnage, Prénom, Age, Sexe, Date de l'enregistrement]
[5, 1, 0.002, "Jules", 21, "H", "15.03.2005"]
-0.38
-0.36
-0.34
-0.26
-0.395
-0.49
-0.555
-0.605
-0.565
-0.45
-0.33
-0.29
-0.345
-0.395
-0.485
-0.51
-0.535
-0.505
-0.475
-0.42
-0.375
-0.355
-0.365
-0.375
-0.47
-0.51
-0.545
-0.525
-0.49
-0.455
-0.475
-0.41
-0.425
-0.48
-0.51
-0.535
-0.57
-0.575
-0.565
-0.44
-0.38
-0.33
-0.295
-0.285
-0.295
-0.265
-0.295
-0.27
-0.19
-0.08
-0.045
-0.015
-0.07
-0.185
-0.36
-0.51
-0.71
-0.715
-0.755
-0.745
-0.765
-0.805
-0.905
-1.02
-1.115
-1.115
-1.175
-1.05
-0.92
-0.81
-0.75
-0.64
-0.6
-0.605
-0.645
-0.635
-0.665
-0.625
-0.55
-0.455
-0.435
-0.35
-0.37
-0.445
-0.505
-0.515
-0.555
-0.475
-0.39
-0.305
-0.3
-0.26
-0.285
-0.345
-0.455
-0.45
-0.59
-0.57
-0.455
-0.355
-0.31
-0.245
-0.275
-0.345
-0.415
-0.435
-0.5
-0.485
-0.38
-0.335
-0.345
-0.295
-0.32
-0.36
-0.375
-0.365
-0.425
-0.4
-0.33
-0.28
-0.24
-0.2
-0.22
-0.305
-0.38
-0.44
-0.49
-0.43
-0.35
-0.345
-0.255
-0.2
-0.225
-0.31
-0.355
-0.36
-0.4
-0.38
-0.275
-0.195
-0.165
-0.135
-0.19
-0.265
-0.335
-0.385
-0.375
-0.395
-0.315
-0.26
-0.2
-0.165
-0.16
-0.245
-0.28
-0.305
-0.29
-0.27
-0.185
-0.125
-0.075
-0.075
-0.11
-0.195
-0.23
-0.29
-0.26
-0.26
-0.125
-0.065
-0.025
-0.035
-0.015
-0.1
-0.125
-0.17
-0.115
-0.1
-0.04
-0.02
0.025
0.025
0.0
-0.11
-0.125
-0.215
-0.185
-0.16
-0.12
-0.115
-0.055
-0.055
-0.095
-0.21
-0.235
-0.295
-0.26
-0.235
-0.15
-0.14
-0.1
-0.135
-0.205
-0.27
-0.32
-0.385
-0.405
-0.41
-0.3
-0.29
-0.255
-0.32
-0.36
-0.43
-0.44
-0.51
-0.5
-0.48
-0.42
-0.44
-0.41
-0.4
-0.37
-0.445
-0.43
-0.545
-0.55
-0.49
-0.41
-0.37
-0.37
-0.37
-0.38
-0.45
-0.5
-0.57
-0.535
-0.485
-0.43
-0.435
-0.34
-0.345
-0.395
-0.435
-0.495
-0.56
-0.525
-0.465
-0.4
-0.39
-0.35
-0.395
-0.44
-0.49
-0.475
-0.515
-0.515
-0.44
-0.37
-0.38
-0.33
-0.335
-0.385
-0.495
-0.515
-0.53
-0.51
-0.46
-0.4
-0.355
-0.31
-0.28
-0.35
-0.435
-0.475
-0.515
-0.555
-0.5
-0.44
-0.415
-0.37
-0.375
-0.47
-0.5
-0.49
-0.495
-0.45
-0.405
-0.38
-0.305
-0.3
-0.36
-0.43
-0.475
-0.5
-0.52
-0.525
-0.44
-0.395
-0.355
-0.315
-0.33
-0.4
-0.45
-0.52
-0.515
-0.475
-0.415
-0.385
-0.37
-0.38
-0.41
-0.435
-0.48
-0.555
-0.545
-0.54
-0.465
-0.425
-0.37
-0.39
-0.41
-0.495
-0.53
-0.58
-0.545
-0.565
-0.44
-0.385
-0.34
-0.375
-0.43
-0.495
-0.51
-0.535
-0.515
-0.5
-0.425
-0.405
-0.355
-0.405
-0.43
-0.53
-0.545
-0.595
-0.58
-0.545
-0.485
-0.455
-0.375
-0.405
-0.435
-0.53
-0.535
-0.6
-0.58
-0.565
-0.505
-0.465
-0.365
-0.38
-0.435
-0.505
-0.505
-0.53
-0.515
-0.45
-0.405
-0.425
-0.38
-0.415
-0.495
-0.61
-0.635
-0.645
-0.62
-0.53
-0.47
-0.425
-0.37
-0.385
-0.43
-0.48
-0.535
-0.645
-0.63
-0.605
-0.555
-0.52
-0.41
-0.355
-0.455
-0.495
-0.51
-0.565
-0.565
-0.49
-0.405
-0.43
-0.4
-0.415
-0.495
-0.595
-0.595
-0.615
-0.585
-0.535
-0.48
-0.48
-0.445
-0.44
-0.52
-0.57
-0.59
-0.65
-0.62
-0.575
-0.485
-0.48
-0.435
-0.44
-0.5
-0.555
-0.585
-0.62
-0.61
-0.575
-0.49
-0.44
-0.41
-0.39
-0.45
-0.505
-0.45
-0.445
-0.395
-0.31
-0.22
-0.215
-0.21
-0.255
-0.34
-0.5
-0.645
-0.745
-0.86
-0.91
-0.9
-0.915
-1.0
-1.125
-1.24
-1.195
-1.185
-1.135
-1.01
-0.87
-0.78
-0.675
-0.64
-0.64
-0.68
-0.695
-0.705
-0.67
-0.66
-0.535
-0.52
-0.495
-0.49
-0.5
-0.57
-0.595
-0.675
-0.61
-0.6
-0.56
-0.535
-0.465
-0.46
-0.455
-0.495
-0.55
-0.56
-0.495
-0.48
-0.435
-0.515
-0.465
-0.47
-0.485
-0.54
-0.57
-0.635
-0.6
-0.605
-0.515
-0.49
-0.43
-0.435
-0.465
-0.545
-0.525
-0.59
-0.53
-0.51
-0.485
-0.42
-0.36
-0.41
-0.44
-0.495
-0.515
-0.58
-0.555
-0.545
-0.45
-0.435
-0.375
-0.34
-0.38
-0.45
-0.48
-0.565
-0.52
-0.45
-0.38
-0.395
-0.315
-0.325
-0.355
-0.41
-0.42
-0.47
-0.455
-0.465
-0.405
-0.365
-0.3
-0.32
-0.35
-0.385
-0.4
-0.455
-0.42
-0.345
-0.225
-0.27
-0.22
-0.21
-0.245
-0.295
-0.325
-0.405
-0.38
-0.3
-0.24
-0.245
-0.205
-0.175
-0.225
-0.33
-0.325
-0.37
-0.33
-0.25
-0.205
-0.14
-0.08
-0.105
-0.18
-0.225
-0.235
-0.28
-0.295
-0.255
-0.2
-0.175
-0.15
-0.185
-0.28
-0.375
-0.38
-0.41
-0.405
-0.345
-0.3
-0.275
-0.23
-0.31
-0.41
-0.495
-0.565
-0.56
-0.535
-0.485
-0.43
-0.43
-0.435
-0.475
-0.54
-0.575
-0.65
-0.685
-0.67
-0.58
-0.515
-0.45
-0.485
-0.515
-0.56
-0.575
-0.64
-0.66
-0.635
-0.555
-0.56
-0.5
-0.475
-0.545
-0.655
-0.69
-0.74
-0.735
-0.71
-0.62
-0.56
-0.53
-0.545
-0.575
-0.645
-0.695
-0.785
-0.735
-0.715
-0.625
-0.52
-0.44
-0.495
-0.57
-0.635
-0.655
-0.73
-0.705
-0.675
-0.615
-0.58
-0.51
-0.525
-0.565
-0.625
-0.625
-0.7
-0.68
-0.65
-0.6
-0.555
-0.495
-0.525
-0.57
-0.64
-0.705
-0.76
-0.71
-0.67
-0.58
-0.59
-0.45
-0.46
-0.53
-0.615
-0.625
-0.705
-0.68
-0.66
-0.585
-0.545
-0.45
-0.47
-0.54
-0.6
-0.605
-0.74
-0.775
-0.745
-0.66
-0.64
-0.535
-0.525
-0.55
-0.665
-0.685
-0.715
-0.705
-0.61
-0.57
-0.615
-0.52
-0.54
-0.59
-0.65
-0.7
-0.765
-0.78
-0.695
-0.605
-0.61
-0.545
-0.575
-0.65
-0.685
-0.67
-0.73
-0.75
-0.7
-0.635
-0.615
-0.54
-0.52
-0.57
-0.65
-0.71
-0.755
-0.74
-0.68
-0.62
-0.605
-0.565
-0.6
-0.64
-0.74
-0.78
-0.805
-0.785
-0.68
-0.625
-0.585
-0.58
-0.58
-0.655
-0.67
-0.715
-0.795
-0.805
-0.745
-0.675
-0.585
-0.585
-0.615
-0.7
-0.79
-0.85
-0.795
-0.74
-0.675
-0.63
-0.58
-0.585
-0.61
-0.7
-0.74
-0.76
-0.73
-0.71
-0.65
-0.635
-0.575
-0.605
-0.655
-0.75
-0.725
-0.78
-0.78
-0.77
-0.685
-0.65
-0.59
-0.59
-0.64
-0.69
-0.735
-0.815
-0.795
-0.77
-0.695
-0.67
-0.59
-0.575
-0.63
-0.73
-0.74
-0.82
-0.805
-0.785
-0.76
-0.7
-0.585
-0.55
-0.59
-0.705
-0.755
-0.79
-0.785
-0.8
-0.765
-0.75
-0.67
-0.695
-0.76
-0.825
-0.81
-0.85
-0.81
-0.73
-0.635
-0.625
-0.6
-0.6
-0.625
-0.665
-0.7
-0.82
-0.85
-0.795
-0.73
-0.755
-0.66
-0.685
-0.745
-0.77
-0.73
-0.83
-0.825
-0.73
-0.665
-0.675
-0.635
-0.635
-0.675
-0.755
-0.745
-0.83
-0.84
-0.76
-0.705
-0.7
-0.62
-0.615
-0.74
-0.79
-0.755
-0.805
-0.84
-0.855
-0.775
-0.73
-0.665
-0.665
-0.73
-0.805
-0.875
-0.865
-0.86
-0.78
-0.685
-0.685
-0.655
-0.685
-0.735
-0.79
-0.795
-0.815
-0.815
-0.735
-0.695
-0.68
-0.68
-0.66
-0.765
-0.84
-0.845
-0.83
-0.82
-0.715
-0.675
-0.655
-0.67
-0.675
-0.765
-0.815
-0.86
-0.885
-0.865
-0.815
-0.71
-0.64
-0.64
-0.645
-0.725
-0.775
-0.805
-0.82
-0.8
-0.74
-0.73
-0.71
-0.695
-0.69
-0.76
-0.84
-0.905
-0.895
-0.87
-0.79
-0.755
-0.68
-0.61
-0.6
-0.715
-0.76
-0.835
-0.8
-0.74
-0.71
-0.69
-0.615
-0.61
-0.65
-0.76
-0.81
-0.89
-0.83
-0.805
-0.71
-0.685
-0.61
-0.64
-0.69
-0.75
-0.775
-0.84
-0.825
-0.825
-0.75
-0.735
-0.655
-0.675
-0.715
-0.805
-0.82
-0.88
-0.82
-0.77
-0.78
-0.765
-0.67
-0.685
-0.72
-0.825
-0.825
-0.88
-0.835
-0.78
-0.69
-0.71
-0.62
-0.605
-0.655
-0.73
-0.765
-0.82
-0.73
-0.645
-0.57
-0.515
-0.465
-0.465
-0.48
-0.565
-0.615
-0.74
-0.77
-0.775
-0.8
-0.88
-0.82
-0.855
-0.935
-1.07
-1.16
-1.295
-1.37
-1.31
-1.225
-1.15
-1.035
-1.015
-1.02
-1.01
-0.96
-0.96
-0.955
-0.88
-0.795
-0.75
-0.68
-0.685
-0.74
-0.845
-0.895
-0.905
-0.85
-0.78
-0.69
-0.665
-0.65
-0.64
-0.655
-0.735
-0.775
-0.795
-0.73
-0.665
-0.64
-0.63
-0.595
-0.595
-0.655
-0.765
-0.805
-0.83
-0.795
-0.75
-0.675
-0.64
-0.575
-0.54
-0.585
-0.685
-0.71
-0.685
-0.7
-0.66
-0.565
-0.615
-0.58
-0.58
-0.63
-0.73
-0.775
-0.75
-0.7
-0.63
-0.615
-0.565
-0.535
-0.56
-0.605
-0.65
-0.74
-0.735
-0.71
-0.605
-0.52
-0.475
-0.48
-0.495
-0.585
-0.6
-0.675
-0.685
-0.665
-0.58
-0.545
-0.515
-0.54
-0.575
-0.64
-0.655
-0.66
-0.61
-0.54
-0.43
-0.4
-0.345
-0.39
-0.425
-0.505
-0.51
-0.52
-0.505
-0.495
-0.435
-0.375
-0.3
-0.365
-0.395
-0.475
-0.5
-0.575
-0.515
-0.495
-0.39
-0.365
-0.255
-0.265
-0.32
-0.395
-0.445
-0.47
-0.455
-0.435
-0.385
-0.4
-0.33
-0.36
-0.41
-0.435
-0.445
-0.545
-0.535
-0.52
-0.45
-0.45
-0.41
-0.45
-0.5
-0.54
-0.58
-0.655
-0.635
-0.595
-0.505
-0.5
-0.42
-0.455
-0.6
-0.675
-0.66
-0.73
-0.72
-0.725
-0.655
-0.62
-0.565
-0.595
-0.64
-0.72
-0.75
-0.83
-0.815
-0.735
-0.685
-0.64
-0.61
-0.635
-0.685
-0.795
-0.82
-0.9
-0.84
-0.735
-0.675
-0.675
-0.66
-0.67
-0.71
-0.765
-0.825
-0.86
-0.82
-0.765
-0.675
-0.68
-0.63
-0.64
-0.71
-0.79
-0.84
-0.88
-0.845
-0.765
-0.7
-0.645
-0.6
-0.635
-0.745
-0.77
-0.805
-0.78
-0.79
-0.755
-0.715
-0.665
-0.65
-0.665
-0.73
-0.72
-0.755
-0.79
-0.785
-0.705
-0.69
-0.635
-0.675
-0.69
-0.72
-0.78
-0.82
-0.78
-0.76
-0.725
-0.69
-0.635
-0.63
-0.665
-0.755
-0.765
-0.835
-0.815
-0.795
-0.73
-0.675
-0.595
-0.61
-0.68
-0.745
-0.775
-0.835
-0.805
-0.76
-0.705
-0.685
-0.62
-0.62
-0.675
-0.725
-0.785
-0.865
-0.85
-0.835
-0.76
-0.74
-0.6
-0.63
-0.68
-0.755
-0.775
-0.8
-0.83
-0.81
-0.725
-0.72
-0.665
-0.72
-0.755
-0.785
-0.795
-0.835
-0.79
-0.75
-0.67
-0.665
-0.655
-0.665
-0.76
-0.83
-0.805
-0.895
-0.86
-0.8
-0.71
-0.715
-0.655
-0.685
-0.73
-0.795
-0.805
-0.875
-0.85
-0.82
-0.745
-0.71
-0.635
-0.65
-0.725
-0.765
-0.795
-0.87
-0.84
-0.765
-0.7
-0.74
-0.69
-0.71
-0.77
-0.82
-0.82
-0.855
-0.84
-0.795
-0.725
-0.735
-0.69
-0.685
-0.77
-0.79
-0.815
-0.855
-0.81
-0.77
-0.72
-0.69
-0.67
-0.69
-0.755
-0.81
-0.835
-0.86
-0.8
-0.75
-0.715
-0.715
-0.73
-0.725
-0.78
-0.79
-0.825
-0.865
-0.91
-0.805
-0.75
-0.715
-0.67
-0.695
-0.795
-0.845
-0.85
-0.86
-0.835
-0.785
-0.715
-0.64
-0.635
-0.69
-0.785
-0.81
-0.855
-0.875
-0.85
-0.78
-0.71
-0.66
-0.68
-0.73
-0.77
-0.82
-0.875
-0.895
-0.855
-0.795
-0.75
-0.735
-0.755
-0.72
-0.77
-0.82
-0.85
-0.855
-0.81
-0.73
-0.71
-0.63
-0.665
-0.69
-0.755
-0.8
-0.87
-0.84
-0.835
-0.775
-0.73
-0.67
-0.695
-0.755
-0.85
-0.9
-0.92
-0.88
-0.78
-0.76
-0.76
-0.665
-0.665
-0.67
-0.785
-0.805
-0.86
-0.825
-0.79
-0.695
-0.695
-0.625
-0.675
-0.73
-0.785
-0.805
-0.885
-0.845
-0.815
-0.725
-0.71
-0.63
-0.65
-0.72
-0.795
-0.805
-0.88
-0.85
-0.8
-0.735
-0.73
-0.665
-0.705
-0.765
-0.81
-0.82
-0.91
-0.905
-0.81
-0.745
-0.72
-0.685
-0.72
-0.785
-0.84
-0.86
-0.945
-0.935
-0.88
-0.8
-0.81
-0.745
-0.695
-0.775
-0.81
-0.83
-0.905
-0.87
-0.79
-0.72
-0.705
-0.655
-0.655
-0.665
-0.695
-0.68
-0.65
-0.605
-0.545
-0.495
-0.525
-0.53
-0.545
-0.665
-0.805
-0.915
-1.055
-1.1
-1.1
-1.05
-1.085
-1.14
-1.21
-1.355
-1.415
-1.335
-1.31
-1.245
-1.16
-1.025
-0.995
-0.88
-0.845
-0.915
-0.955
-0.96
-0.925
-0.92
-0.845
-0.77
-0.765
-0.785
-0.765
-0.815
-0.85
-0.87
-0.83
-0.835
-0.795
-0.745
-0.685
-0.675
-0.67
-0.725
-0.76
-0.845
-0.865
-0.85
-0.775
-0.755
-0.705
-0.715
-0.695
-0.745
-0.78
-0.83
-0.81
-0.78
-0.715
-0.695
-0.655
-0.64
-0.695
-0.74
-0.79
-0.83
-0.82
-0.805
-0.715
-0.725
-0.67
-0.685
-0.685
-0.78
-0.82
-0.875
-0.79
-0.76
-0.695
-0.64
-0.565
-0.575
-0.605
-0.71
-0.74
-0.8
-0.77
-0.745
-0.67
-0.64
-0.565
-0.615
-0.63
-0.69
-0.71
-0.775
-0.775
-0.695
-0.62
-0.58
-0.535
-0.535
-0.565
-0.625
-0.595
-0.68
-0.655
-0.615
-0.57
-0.605
-0.52
-0.525
-0.52
-0.575
-0.575
-0.655
-0.645
-0.59
-0.5
-0.53
-0.43
-0.445
-0.485
-0.555
-0.57
-0.58
-0.56
-0.495
-0.39
-0.38
-0.34
-0.335
-0.39
-0.455
-0.515
-0.565
-0.54
-0.5
-0.45
-0.47
-0.43
-0.445
-0.54
-0.61
-0.595
-0.655
-0.66
-0.59
-0.545
-0.53
-0.5
-0.525
-0.575
-0.66
-0.69
-0.745
-0.76
-0.755
-0.71
-0.665
-0.64
-0.675
-0.745
-0.835
-0.855
-0.87
-0.83
-0.77
-0.72
-0.695
-0.675
-0.705
-0.78
-0.845
-0.89
-0.91
-0.875
-0.815
-0.765
-0.73
-0.76
-0.79
-0.83
-0.885
-0.915
-0.915
-0.905
-0.82
-0.77
-0.73
-0.705
-0.785
-0.865
-0.87
-0.955
-0.93
-0.91
-0.85
-0.825
-0.685
-0.665
-0.7
-0.79
-0.875
-0.905
-0.905
-0.9
-0.82
-0.785
-0.725
-0.715
-0.735
-0.785
-0.855
-0.91
-0.905
-0.88
-0.825
-0.795
-0.76
-0.77
-0.785
-0.88
-0.835
-0.905
-0.86
-0.86
-0.775
-0.75
-0.67
-0.69
-0.755
-0.85
-0.86
-0.915
-0.9
-0.895
-0.815
-0.8
-0.705
-0.74
-0.78
-0.865
-0.89
-1.01
-0.965
-0.875
-0.825
-0.865
-0.71
-0.675
-0.735
-0.815
-0.815
-0.855
-0.855
-0.805
-0.75
-0.76
-0.67
-0.675
-0.72
-0.82
-0.845
-0.92
-0.895
-0.875
-0.825
-0.81
-0.765
-0.76
-0.8
-0.86
-0.865
-0.94
-0.915
-0.87
-0.785
-0.81
-0.76
-0.765
-0.805
-0.89
-0.865
-0.93
-0.92
-0.88
-0.835
-0.83
-0.785
-0.815
-0.865
-0.91
-0.89
-0.925
-0.91
-0.885
-0.865
-0.85
-0.79
-0.805
-0.85
-0.93
-0.97
-0.975
-0.965
-0.9
-0.81
-0.795
-0.75
-0.775
-0.835
-0.895
-0.91
-0.93
-0.895
-0.845
-0.8
-0.76
-0.745
-0.775
-0.875
-0.915
-0.935
-0.93
-0.94
-0.88
-0.81
-0.775
-0.79
-0.835
-0.895
-0.945
-1.015
-1.015
-0.96
-0.905
-0.845
-0.805
-0.81
-0.835
-0.905
-0.9
-0.95
-0.97
-0.945
-0.845
-0.815
-0.755
-0.775
-0.81
-0.93
-0.94
-0.99
-0.99
-0.925
-0.84
-0.83
-0.77
-0.81
-0.835
-0.93
-0.955
-1.03
-0.96
-0.95
-0.855
-0.825
-0.75
-0.805
-0.83
-0.88
-0.905
-0.975
-0.925
-0.93
-0.89
-0.895
-0.8
-0.8
-0.82
-0.88
-0.89
-0.99
-0.99
-0.935
-0.86
-0.845
-0.775
-0.82
-0.87
-0.91
-0.9
-0.985
-0.955
-0.915
-0.86
-0.845
-0.77
-0.805
-0.865
-0.955
-0.945
-1.025
-0.99
-0.945
-0.845
-0.845
-0.8
-0.815
-0.855
-0.92
-0.92
-1.01
-1.0
-0.96
-0.89
-0.88
-0.88
-0.84
-0.84
-0.895
-0.875
-0.94
-0.955
-0.905
-0.825
-0.83
-0.79
-0.855
-0.885
-0.965
-0.995
-1.05
-1.02
-0.925
-0.795
-0.8
-0.795
-0.785
-0.835
-0.93
-0.93
-0.995
-0.98
-0.92
-0.865
-0.855
-0.8
-0.835
-0.885
-0.93
-0.92
-1.0
-0.965
-0.89
-0.84
-0.81
-0.765
-0.795
-0.885
-0.955
-0.99
-0.99
-0.96
-0.905
-0.885
-0.845
-0.825
-0.82
-0.975
-1.03
-1.06
-1.05
-1.005
-0.955
-0.885
-0.825
-0.785
-0.815
-0.88
-0.895
-0.94
-0.915
-0.92
-0.865
-0.845
-0.82
-0.815
-0.855
-0.945
-0.99
-1.02
-1.015
-1.0
-0.94
-0.885
-0.78
-0.72
-0.795
-0.88
-0.9
-0.945
-0.93
-0.915
-0.86
-0.82
-0.755
-0.785
-0.8
-0.87
-0.92
-0.97
-0.925
-0.885
-0.82
-0.795
-0.725
-0.74
-0.79
-0.87
-0.915
-0.99
-0.975
-0.98
-0.88
-0.85
-0.795
-0.845
-0.87
-0.93
-0.955
-1.045
-1.01
-0.98
-0.92
-0.885
-0.85
-0.845
-0.89
-0.94
-0.925
-0.995
-0.99
-0.96
-0.87
-0.895
-0.84
-0.845
-0.83
-0.87
-0.83
-0.85
-0.84
-0.765
-0.68
-0.64
-0.535
-0.525
-0.595
-0.67
-0.705
-0.795
-0.84
-0.875
-0.925
-1.015
-1.055
-1.15
-1.225
-1.355
-1.475
-1.59
-1.575
-1.49
-1.33
-1.235
-1.14
-1.11
-1.14
-1.175
-1.165
-1.14
-1.105
-1.0
-0.905
-0.89
-0.85
-0.865
-0.92
-0.96
-0.965
-0.975
-0.96
-0.915
-0.85
-0.855
-0.825
-0.815
-0.91
-0.97
-0.97
-0.975
-1.0
-0.885
-0.8
-0.795
-0.745
-0.755
-0.81
-0.885
-0.93
-0.95
-0.95
-0.915
-0.84
-0.835
-0.8
-0.805
-0.85
-0.865
-0.885
-0.875
-0.89
-0.825
-0.775
-0.795
-0.725
-0.755
-0.81
-0.88
-0.92
-0.92
-0.915
-0.84
-0.785
-0.76
-0.75
-0.75
-0.855
-0.905
-0.955
-0.93
-0.875
-0.75
-0.71
-0.675
-0.685
-0.72
-0.76
-0.79
-0.865
-0.84
-0.8
-0.735
-0.72
-0.665
-0.68
-0.675
-0.71
-0.745
-0.82
-0.805
-0.75
-0.685
-0.685
-0.61
-0.63
-0.66
-0.695
-0.695
-0.735
-0.73
-0.69
-0.605
-0.56
-0.475
-0.515
-0.575
-0.62
-0.65
-0.73
-0.695
-0.6
-0.495
-0.505
-0.44
-0.45
-0.47
-0.57
-0.59
-0.66
-0.63
-0.59
-0.555
-0.54
-0.47
-0.49
-0.53
-0.59
-0.59
-0.69
-0.69
-0.665
-0.545
-0.58
-0.485
-0.53
-0.58
-0.67
-0.7
-0.775
-0.81
-0.75
-0.685
-0.705
-0.67
-0.675
-0.725
-0.815
-0.835
-0.93
-0.915
-0.845
-0.8
-0.785
-0.765
-0.785
-0.83
-0.88
-0.89
-0.94
-0.93
-0.91
-0.82
-0.83
-0.775
-0.725
-0.835
-0.945
-0.975
-0.99
-0.97
-0.9
-0.82
-0.8
-0.775
-0.75
-0.835
-0.905
-0.935
-0.98
-0.97
-0.88
-0.84
-0.835
-0.8
-0.805
-0.86
-0.935
-0.975
-0.985
-0.99
-0.915
-0.87
-0.815
-0.825
-0.76
-0.82
-0.86
-0.915
-0.925
-0.935
-0.87
-0.8
-0.745
-0.75
-0.79
-0.855
-0.945
-0.955
-0.935
-0.895
-0.825
-0.78
-0.74
-0.81
-0.85
-0.93
-0.97
-1.01
-0.955
-0.92
-0.81
-0.785
-0.725
-0.74
-0.785
-0.86
-0.895
-0.955
-0.94
-0.915
-0.82
-0.785
-0.695
-0.715
-0.78
-0.9
-0.94
-1.005
-0.97
-0.87
-0.83
-0.82
-0.78
-0.8
-0.8
-0.86
-0.85
-0.905
-0.895
-0.855
-0.8
-0.775
-0.72
-0.735
-0.8
-0.89
-0.94
-0.99
-0.96
-0.9
-0.85
-0.855
-0.775
-0.765
-0.805
-0.92
-0.94
-1.015
-0.935
-0.88
-0.82
-0.825
-0.735
-0.77
-0.825
-0.91
-0.92
-0.95
-0.94
-0.875
-0.825
-0.86
-0.77
-0.765
-0.845
-0.93
-0.94
-0.98
-0.97
-0.92
-0.845
-0.8
-0.755
-0.77
-0.835
-0.935
-0.94
-1.01
-0.965
-0.905
-0.85
-0.815
-0.745
-0.78
-0.84
-0.93
-0.925
-0.96
-0.925
-0.87
-0.825
-0.825
-0.75
-0.75
-0.805
-0.895
-0.905
-0.95
-1.01
-0.975
-0.895
-0.85
-0.77
-0.775
-0.815
-0.925
-0.915
-0.985
-0.95
-0.89
-0.805
-0.825
-0.795
-0.84
-0.89
-0.93
-0.925
-0.935
-0.93
-0.835
-0.78
-0.775
-0.75
-0.785
-0.87
-0.89
-0.92
-0.94
-0.935
-0.855
-0.845
-0.81
-0.785
-0.8
-0.89
-0.96
-0.985
-0.99
-0.97
-0.895
-0.815
-0.755
-0.765
-0.78
-0.84
-0.905
-0.965
-0.98
-1.005
-0.915
-0.845
-0.8
-0.78
-0.77
-0.81
-0.83
-0.935
-0.97
-0.95
-0.88
-0.835
-0.76
-0.755
-0.78
-0.89
-0.915
-0.975
-0.95
-0.915
-0.86
-0.87
-0.805
-0.8
-0.835
-0.89
-0.9
-0.95
-0.915
-0.9
-0.82
-0.795
-0.755
-0.785
-0.82
-0.9
-0.96
-1.02
-0.985
-0.945
-0.855
-0.82
-0.77
-0.81
-0.84
-0.87
-0.85
-0.905
-0.915
-0.885
-0.835
-0.815
-0.765
-0.765
-0.845
-0.89
-0.915
-0.99
-0.935
-0.87
-0.855
-0.815
-0.745
-0.765
-0.805
-0.89
-0.895
-0.945
-0.97
-0.945
-0.875
-0.815
-0.8
-0.775
-0.825
-0.89
-0.93
-1.015
-0.94
-0.865
-0.815
-0.77
-0.71
-0.745
-0.805
-0.86
-0.91
-1.025
-1.03
-0.875
-0.765
-0.755
-0.68
-0.68
-0.77
-0.86
-0.85
-0.895
-0.885
-0.865
-0.77
-0.755
-0.745
-0.76
-0.81
-0.885
-0.885
-0.93
-0.86
-0.805
-0.775
-0.755
-0.715
-0.74
-0.81
-0.91
-0.965
-0.98
-0.975
-0.905
-0.82
-0.75
-0.775
-0.805
-0.82
-0.845
-0.915
-0.915
-0.915
-0.855
-0.81
-0.795
-0.775
-0.805
-0.845
-0.895
-0.96
-0.985
-0.97
-0.84
-0.78
-0.72
-0.68
-0.725
-0.78
-0.795
-0.815
-0.77
-0.71
-0.66
-0.58
-0.525
-0.53
-0.56
-0.68
-0.755
-0.88
-0.93
-0.975
-1.0
-1.01
-1.05
-1.095
-1.16
-1.28
-1.395
-1.495
-1.455
-1.42
-1.295
-1.195
-1.085
-1.03
-1.03
-1.065
-1.065
-1.125
-1.07
-1.005
-0.91
-0.88
-0.82
-0.815
-0.83
-0.9
-0.925
-0.975
-0.98
-0.9
-0.82
-0.78
-0.66
-0.67
-0.72
-0.84
-0.85
-0.94
-0.88
-0.855
-0.775
-0.765
-0.71
-0.71
-0.735
-0.775
-0.795
-0.885
-0.87
-0.84
-0.775
-0.735
-0.68
-0.695
-0.74
-0.805
-0.815
-0.87
-0.865
-0.79
-0.71
-0.685
-0.62
-0.67
-0.76
-0.83
-0.82
-0.86
-0.865
-0.78
-0.685
-0.67
-0.6
-0.59
-0.635
-0.745
-0.77
-0.84
-0.85
-0.785
-0.715
-0.715
-0.66
-0.655
-0.66
-0.675
-0.72
-0.755
-0.72
-0.615
-0.555
-0.575
-0.545
-0.545
-0.595
-0.645
-0.68
-0.735
-0.735
-0.615
-0.555
-0.535
-0.505
-0.485
-0.54
-0.575
-0.565
-0.615
-0.595
-0.535
-0.48
-0.475
-0.425
-0.435
-0.52
-0.565
-0.58
-0.535
-0.525
-0.49
-0.455
-0.42
-0.435
-0.465
-0.465
-0.47
-0.465
-0.44
-0.465
-0.455
-0.44
-0.415
-0.44
-0.41
-0.46
-0.525
-0.595
-0.57
-0.58
-0.545
-0.52
-0.5
-0.495
-0.515
-0.57
-0.63
-0.745
-0.725
-0.68
-0.655
-0.63
-0.615
-0.655
-0.685
-0.775
-0.79
-0.845
-0.87
-0.825
-0.745
-0.72
-0.68
-0.71
-0.715
-0.805
-0.865
-0.92
-0.895
-0.895
-0.87
-0.89
-0.82
-0.815
-0.81
-0.85
-0.845
-0.93
-0.895
-0.895
-0.82
-0.78
-0.675
-0.71
-0.775
-0.85
-0.91
-0.975
-0.97
-0.92
-0.865
-0.855
-0.795
-0.725
-0.8
-0.905
-0.94
-0.995
-0.98
-0.945
-0.86
-0.835
-0.755
-0.785
-0.805
-0.865
-0.905
-0.965
-0.935
-0.87
-0.83
-0.83
-0.77
-0.765
-0.81
-0.88
-0.845
-0.925
-0.915
-0.895
-0.82
-0.8
-0.76
-0.78
-0.82
-0.85
-0.82
-0.94
-0.915
-0.865
-0.81
-0.815
-0.775
-0.78
-0.855
-0.925
-0.945
-0.955
-0.985
-0.93
-0.845
-0.85
-0.82
-0.82
-0.89
-0.935
-0.935
-0.995
-0.965
-0.89
-0.81
-0.77
-0.72
-0.725
-0.8
-0.865
-0.92
-0.97
-0.955
-0.87
-0.775
-0.775
-0.775
-0.825
-0.89
-0.955
-0.965
-0.965
-0.945
-0.89
-0.85
-0.825
-0.815
-0.83
-0.9
-0.955
-1.0
-1.0
-0.975
-0.905
-0.845
-0.785
-0.775
-0.8
-0.885
-0.96
-1.0
-1.015
-1.0
-0.965
-0.915
-0.86
-0.84
-0.845
-0.98
-1.01
-1.065
-1.03
-0.99
-0.91
-0.835
-0.745
-0.77
-0.805
-0.905
-0.945
-1.005
-1.005
-0.96
-0.875
-0.865
-0.82
-0.835
-0.865
-0.945
-0.98
-1.035
-0.96
-0.895
-0.865
-0.84
-0.79
-0.81
-0.82
-0.925
-0.98
-1.035
-0.97
-0.91
-0.89
-0.88
-0.8
-0.825
-0.88
-0.98
-0.985
-1.03
-1.015
-0.965
-0.925
-0.91
-0.87
-0.855
-0.89
-0.98
-0.99
-1.035
-0.99
-0.95
-0.875
-0.865
-0.795
-0.795
-0.845
-0.95
-0.935
-1.03
-1.0
-0.945
-0.905
-0.925
-0.87
-0.9
-0.985
-1.025
-0.9
-0.94
-0.935
-0.915
-0.87
-0.885
-0.795
-0.835
-0.9
-0.96
-0.98
-1.02
-0.995
-0.945
-0.885
-0.865
-0.8
-0.805
-0.89
-0.96
-0.995
-1.06
-1.02
-0.955
-0.925
-0.9
-0.81
-0.815
-0.875
-0.965
-0.955
-1.005
-1.02
-0.96
-0.865
-0.86
-0.825
-0.83
-0.885
-0.97
-1.03
-1.03
-1.0
-0.955
-0.89
-0.905
-0.865
-0.865
-0.92
-0.965
-1.0
-1.03
-1.025
-0.93
-0.875
-0.825
-0.79
-0.84
-0.905
-0.96
-0.995
-1.015
-1.0
-0.91
-0.895
-0.845
-0.86
-0.86
-0.925
-0.985
-1.0
-1.01
-1.025
-0.945
-0.915
-0.87
-0.835
-0.84
-0.92
-0.955
-1.065
-1.035
-1.0
-0.93
-0.9
-0.865
-0.85
-0.865
-0.945
-0.99
-1.045
-0.995
-0.975
-0.92
-0.865
-0.825
-0.855
-0.885
-0.99
-1.01
-1.08
-1.08
-1.07
-0.985
-0.96
-0.85
-0.845
-0.875
-0.885
-0.885
-0.96
-0.945
-0.93
-0.845
-0.81
-0.755
-0.825
-0.855
-0.935
-0.915
-0.99
-0.935
-0.89
-0.865
-0.87
-0.775
-0.77
-0.835
-0.89
-0.91
-0.985
-0.97
-0.95
-0.89
-0.88
-0.835
-0.85
-0.9
-0.97
-0.97
-1.035
-1.05
-1.0
-0.915
-0.9
-0.85
-0.835
-0.895
-0.965
-0.97
-1.0
-1.005
-0.985
-0.935
-0.94
-0.905
-0.885
-0.955
-0.98
-0.93
-0.965
-0.945
-0.88
-0.785
-0.715
-0.555
-0.565
-0.635
-0.675
-0.695
-0.755
-0.765
-0.76
-0.72
-0.82
-0.89
-0.965
-1.12
-1.245
-1.285
-1.39
-1.44
-1.41
-1.41
-1.385
-1.265
-1.205
-1.24
-1.26
-1.23
-1.225
-1.155
-1.045
-0.965
-0.945
-0.9
-0.87
-0.975
-0.99
-1.055
-1.1
-1.09
-0.985
-0.88
-0.805
-0.825
-0.85
-0.89
-0.975
-1.005
-0.995
-1.0
-0.91
-0.835
-0.795
-0.79
-0.765
-0.82
-0.9
-0.95
-0.97
-0.975
-0.86
-0.845
-0.81
-0.805
-0.815
-0.92
-0.955
-0.945
-0.93
-0.905
-0.835
-0.8
-0.77
-0.75
-0.77
-0.87
-0.905
-0.98
-0.935
-0.865
-0.79
-0.78
-0.73
-0.755
-0.8
-0.84
-0.85
-0.93
-0.915
-0.895
-0.79
-0.76
-0.695
-0.73
-0.74
-0.83
-0.85
-0.92
-0.915
-0.855
-0.755
-0.76
-0.66
-0.665
-0.7
-0.79
-0.845
-0.92
-0.9
-0.825
-0.76
-0.735
-0.64
-0.62
-0.62
-0.695
-0.73
-0.795
-0.755
-0.67
-0.615
-0.6
-0.57
-0.565
-0.6
-0.665
-0.66
-0.74
-0.705
-0.645
-0.575
-0.57
-0.52
-0.54
-0.545
-0.62
-0.635
-0.71
-0.715
-0.65
-0.575
-0.535
-0.525
-0.51
-0.56
-0.64
-0.655
-0.72
-0.71
-0.665
-0.605
-0.62
-0.585
-0.59
-0.66
-0.745
-0.76
-0.845
-0.83
-0.78
-0.705
-0.71
-0.695
-0.735
-0.795
-0.89
-0.915
-0.94
-0.905
-0.87
-0.81
-0.82
-0.785
-0.8
-0.87
-0.91
-0.91
-1.0
-1.01
-0.905
-0.835
-0.845
-0.865
-0.845
-0.91
-0.96
-1.03
-1.02
-1.02
-0.955
-0.875
-0.845
-0.865
-0.875
-0.9
-0.975
-1.005
-1.05
-1.06
-0.975
-0.935
-0.87
-0.835
-0.87
-0.955
-0.995
-1.035
-1.025
-1.01
-0.94
-0.915
-0.875
-0.85
-0.87
-0.985
-0.995
-1.04
-1.07
-1.035
-0.935
-0.895
-0.795
-0.82
-0.85
-0.935
-0.995
-1.04
-1.04
-1.045
-0.975
-0.945
-0.875
-0.885
-0.95
-1.03
-0.975
-1.055
-1.005
-0.945
-0.875
-0.845
-0.77
-0.795
-0.865
-0.96
-0.99
-1.06
-1.05
-1.0
-0.925
-0.89
-0.795
-0.82
-0.895
-0.92
-0.93
-1.015
-1.02
-0.995
-0.92
-0.915
-0.855
-0.875
-0.925
-0.985
-0.985
-1.04
-0.985
-0.92
-0.895
-0.91
-0.83
-0.87
-0.89
-0.93
-0.965
-1.005
-1.005
-0.95
-0.91
-0.93
-0.875
-0.895
-0.915
-0.97
-0.985
-1.04
-1.04
-1.005
-0.94
-0.895
-0.86
-0.875
-0.945
-1.02
-1.035
-1.09
-1.1
-1.02
-0.95
-0.965
-0.895
-0.895
-0.955
-0.99
-0.965
-1.055
-1.075
-1.0
-0.905
-0.895
-0.845
-0.85
-0.92
-1.035
-1.055
-1.075
-1.125
-1.06
-0.98
-0.95
-0.86
-0.865
-0.955
-1.015
-0.975
-1.02
-1.005
-0.965
-0.915
-0.905
-0.87
-0.87
-0.98
-1.045
-1.03
-1.065
-1.06
-1.005
-0.9
-0.855
-0.825
-0.86
-0.935
-0.98
-1.025
-1.055
-1.04
-0.99
-0.92
-0.92
-0.95
-0.96
-1.015
-1.06
-1.11
-1.1
-1.055
-0.97
-0.945
-0.915
-0.915
-0.925
-1.015
-1.07
-1.105
-1.09
-1.06
-0.98
-0.955
-0.915
-0.93
-0.955
-1.015
-1.045
-1.1
-1.055
-1.035
-0.99
-0.97
-0.92
-0.915
-0.9
-0.955
-1.0
-1.065
-1.06
-1.04
-1.02
-0.975
-0.915
-0.9
-0.89
-0.96
-1.0
-1.05
-1.015
-1.04
-1.02
-1.015
-0.895
-0.9
-0.955
-1.03
-1.04
-1.1
-1.065
-1.06
-0.985
-0.995
-0.865
-0.89
-0.965
-1.035
-1.03
-1.105
-1.105
-1.05
-1.01
-0.995
-0.915
-0.93
-1.0
-1.07
-1.035
-1.08
-1.07
-1.015
-0.94
-0.95
-0.89
-0.935
-0.98
-1.06
-1.06
-1.14
-1.115
-1.035
-0.99
-0.965
-0.88
-0.89
-0.91
-0.95
-1.05
-1.12
-1.135
-1.08
-1.005
-0.97
-0.885
-0.88
-0.92
-0.96
-0.985
-1.04
-1.035
-1.0
-0.97
-0.96
-0.93
-0.945
-1.02
-1.07
-1.065
-1.075
-1.065
-1.03
-0.99
-0.96
-0.92
-0.9
-0.94
-1.02
-1.09
-1.135
-1.125
-1.055
-0.99
-0.98
-0.87
-0.895
-0.965
-1.065
-1.04
-1.06
-1.055
-0.99
-0.945
-0.915
-0.91
-0.93
-0.955
-1.02
-1.06
-1.06
-1.09
-1.025
-0.98
-0.915
-0.915
-0.905
-0.965
-1.02
-1.07
-1.065
-1.09
-1.05
-1.02
-0.965
-0.925
-0.925
-0.995
-1.03
-1.08
-1.065
-1.04
-1.025
-0.975
-0.925
-0.91
-0.945
-1.005
-1.01
-1.08
-1.08
-1.105
-1.0
-0.925
-0.895
-0.88
-0.93
-1.005
-1.025
-1.09
-1.115
-1.045
-0.945
-0.95
-0.885
-0.875
-0.895
-0.985
-0.995
-1.05
-1.02
-0.97
-0.88
-0.86
-0.815
-0.855
-0.91
-0.985
-1.04
-1.125
-1.095
-1.04
-0.955
-0.94
-0.875
-0.86
-0.88
-0.99
-1.07
-1.11
-1.115
-1.055
-0.975
-0.945
-0.85
-0.895
-0.95
-1.055
-1.1
-1.145
-1.085
-1.02
-0.955
-0.96
-0.905
-0.895
-0.895
-0.935
-0.945
-0.965
-0.93
-0.86
-0.765
-0.755
-0.68
-0.62
-0.695
-0.83
-0.845
-0.995
-1.04
-1.04
-1.06
-1.095
-1.105
-1.16
-1.28
-1.435
-1.515
-1.64
-1.645
-1.54
-1.395
-1.35
-1.25
-1.21
-1.22
-1.245
-1.215
-1.195
-1.155
-1.085
-1.005
-1.0
-0.955
-0.965
-1.035
-1.045
-1.045
-1.07
-1.045
-0.95
-0.89
-0.885
-0.87
-0.875
-0.95
-1.035
-1.06
-1.055
-1.07
-1.0
-0.96
-0.905
-0.87
-0.86
-0.94
-1.005
-1.0
-0.965
-0.965
-0.925
-0.865
-0.86
-0.825
-0.845
-0.945
-0.98
-0.99
-0.97
-0.965
-0.935
-0.875
-0.8
-0.77
-0.86
-0.94
-0.995
-1.005
-0.98
-0.965
-0.905
-0.835
-0.76
-0.77
-0.81
-0.875
-0.915
-0.975
-0.92
-0.915
-0.84
-0.75
-0.72
-0.745
-0.76
-0.855
-0.875
-0.935
-0.88
-0.795
-0.795
-0.835
-0.775
-0.74
-0.76
-0.81
-0.85
-0.91
-0.835
-0.8
-0.71
-0.705
-0.635
-0.695
-0.73
-0.8
-0.8
-0.81
-0.79
-0.77
-0.685
-0.65
-0.6
-0.615
-0.62
-0.65
-0.65
-0.755
-0.725
-0.7
-0.59
-0.6
-0.5
-0.54
-0.61
-0.645
-0.65
-0.705
-0.7
-0.71
-0.66
-0.66
-0.56
-0.53
-0.555
-0.635
-0.655
-0.745
-0.765
-0.745
-0.66
-0.645
-0.64
-0.65
-0.675
-0.75
-0.835
-0.915
-0.91
-0.87
-0.815
-0.77
-0.72
-0.755
-0.845
-0.915
-0.93
-0.98
-0.97
-0.895
-0.84
-0.89
-0.85
-0.83
-0.87
-0.94
-0.98
-1.045
-1.01
-0.965
-0.905
-0.905
-0.895
-0.865
-0.955
-1.06
-1.03
-1.04
-1.04
-1.025
-0.95
-0.94
-0.905
-0.91
-0.97
-1.02
-1.03
-1.07
-1.025
-1.005
-0.915
-0.885
-0.85
-0.885
-0.985
-1.06
-1.105
-1.125
-1.085
-1.0
-0.92
-0.89
-0.855
-0.895
-0.98
-0.99
-1.015
-1.075
-1.025
-0.91
-0.9
-0.85
-0.865
-0.845
-0.905
-0.975
-1.04
-1.07
-1.045
-1.005
-0.95
-0.915
-0.915
-0.89
-0.955
-1.01
-1.075
-1.02
-0.97
-0.9
-0.895
-0.825
-0.825
-0.89
-0.955
-0.975
-1.035
-1.015
-1.005
-0.935
-0.89
-0.9
-0.91
-0.965
-1.045
-1.065
-1.115
-1.08
-1.01
-0.895
-0.89
-0.815
-0.805
-0.85
-0.955
-1.025
-1.06
-1.045
-0.97
-0.895
-0.87
-0.805
-0.83
-0.875
-0.965
-1.035
-1.105
-1.075
-1.0
-0.965
-0.95
-0.825
-0.845
-0.915
-1.005
-1.03
-1.105
-1.115
-1.085
-0.99
-0.965
-0.875
-0.855
-0.895
-0.985
-1.0
-1.08
-1.055
-1.015
-0.98
-0.92
-0.855
-0.89
-0.96
-1.0
-0.97
-1.07
-1.08
-1.025
-0.935
-0.955
-0.905
-0.885
-0.965
-1.045
-1.01
-1.09
-1.06
-0.985
-0.89
-0.88
-0.82
-0.825
-0.905
-0.975
-1.0
-1.06
-1.07
-1.07
-0.97
-0.955
-0.92
-0.925
-0.97
-0.985
-0.985
-1.045
-1.035
-0.985
-0.925
-0.91
-0.9
-0.9
-0.945
-1.02
-1.04
-1.045
-1.07
-1.005
-0.935
-0.9
-0.925
-0.97
-0.965
-1.0
-1.045
-1.065
-1.045
-0.985
-0.925
-0.895
-0.905
-0.88
-0.97
-1.0
-1.03
-1.04
-1.01
-0.975
-0.96
-0.91
-0.895
-0.94
-1.0
-1.04
-1.075
-1.08
-1.04
-0.955
-0.935
-0.885
-0.91
-0.885
-0.985
-1.055
-1.075
-1.085
-1.07
-0.96
-0.9
-0.845
-0.87
-0.875
-1.005
-1.045
-1.12
-1.12
-1.08
-0.99
-0.91
-0.815
-0.855
-0.93
-0.99
-1.01
-1.06
-1.03
-1.04
-0.995
-0.955
-0.895
-0.915
-0.9
-0.99
-1.05
-1.1
-1.065
-1.01
-0.95
-0.94
-0.835
-0.885
-0.97
-1.05
-1.045
-1.09
-1.08
-1.035
-0.925
-0.93
-0.895
-0.92
-1.0
-1.045
-1.025
-1.075
-1.03
-1.02
-0.975
-0.97
-0.9
-0.89
-0.93
-1.01
-0.955
-1.04
-1.045
-1.035
-0.935
-0.935
-0.88
-0.875
-0.92
-1.025
-1.07
-1.1
-1.08
-1.02
-0.96
-0.95
-0.92
-0.93
-0.975
-1.03
-1.03
-1.085
-1.08
-1.02
-0.95
-0.915
-0.88
-0.88
-0.97
-1.04
-1.035
-1.095
-1.08
-1.04
-0.91
-0.925
-0.885
-0.945
-0.98
-1.005
-0.955
-1.0
-1.025
-0.98
-0.93
-0.92
-0.875
-0.88
-0.89
-0.965
-1.03
-1.035
-1.035
-0.955
-0.875
-0.865
-0.815
-0.835
-0.91
-1.005
-1.07
-1.09
-1.05
-0.975
-0.9
-0.89
-0.835
-0.875
-0.975
-1.015
-1.08
-1.09
-1.085
-1.0
-0.955
-0.895
-0.89
-0.9
-0.955
-1.02
-1.065
-1.045
-1.02
-1.015
-0.95
-0.89
-0.88
-0.91
-0.98
-0.995
-1.06
-1.07
-1.07
-1.005
-0.93
-0.83
-0.835
-0.835
-0.885
-0.935
-0.945
-0.885
-0.88
-0.78
-0.71
-0.66
-0.715
-0.8
-0.86
-0.95
-1.075
-1.095
-1.165
-1.185
-1.18
-1.165
-1.255
-1.38
-1.48
-1.565
-1.64
-1.6
-1.51
-1.37
-1.28
-1.18
-1.15
-1.13
-1.185
-1.18
-1.19
-1.14
-1.045
-0.995
-0.925
-0.87
-0.895
-0.95
-1.0
-1.055
-1.115
-1.09
-1.04
-0.945
-0.905
-0.805
-0.805
-0.845
-0.91
-0.94
-1.05
-1.055
-0.985
-0.92
-0.9
-0.835
-0.85
-0.88
-0.955
-0.925
-0.99
-0.97
-0.955
-0.895
-0.87
-0.805
-0.805
-0.86
-0.895
-0.905
-0.965
-0.955
-0.91
-0.88
-0.865
-0.76
-0.78
-0.83
-0.9
-0.92
-0.96
-0.955
-0.895
-0.85
-0.805
-0.73
-0.77
-0.86
-0.86
-0.825
-0.95
-0.965
-0.845
-0.77
-0.785
-0.72
-0.73
-0.79
-0.785
-0.86
-0.985
-0.995
-0.905
-0.8
-0.765
-0.705
-0.715
-0.775
-0.835
-0.84
-0.875
-0.865
-0.765
-0.695
-0.71
-0.68
-0.675
-0.755
-0.78
-0.815
-0.795
-0.745
-0.65
-0.64
-0.605
-0.56
-0.52
-0.61
-0.645
-0.705
-0.7
-0.685
-0.61
-0.55
-0.52
-0.52
-0.555
-0.59
-0.655
-0.715
-0.715
-0.665
-0.605
-0.595
-0.53
-0.535
-0.6
-0.685
-0.755
-0.865
-0.835
-0.765
-0.68
-0.68
-0.64
-0.64
-0.665
-0.74
-0.765
-0.855
-0.865
-0.91
-0.86
-0.785
-0.74
-0.755
-0.8
-0.86
-0.92
-1.015
-1.005
-1.015
-0.945
-0.92
-0.87
-0.88
-0.95
-1.02
-1.005
-1.055
-1.03
-0.98
-0.9
-0.905
-0.855
-0.86
-0.915
-1.0
-1.015
-1.095
-1.09
-1.045
-0.985
-0.975
-0.875
-0.875
-0.95
-1.005
-1.01
-1.06
-1.085
-1.035
-0.975
-0.955
-0.89
-0.905
-0.96
-1.04
-1.075
-1.135
-1.105
-1.05
-0.97
-0.96
-0.85
-0.8
-0.875
-0.97
-0.99
-1.075
-1.105
-1.06
-1.0
-1.01
-0.895
-0.9
-0.945
-1.035
-1.02
-1.025
-1.015
-0.97
-0.91
-0.9
-0.83
-0.835
-0.925
-0.99
-1.01
-1.08
-1.03
-0.97
-0.905
-0.885
-0.845
-0.855
-0.92
-0.99
-1.02
-1.055
-1.03
-0.965
-0.905
-0.905
-0.87
-0.88
-0.95
-1.01
-1.0
-1.05
-1.045
-0.985
-0.865
-0.825
-0.815
-0.835
-0.915
-0.95
-1.025
-1.025
-0.98
-0.885
-0.825
-0.775
-0.8
-0.86
-0.955
-1.03
-1.04
-1.035
-1.06
-1.015
-0.935
-0.89
-0.875
-0.91
-1.02
-1.05
-1.04
-1.04
-1.025
-0.955
-0.9
-0.845
-0.845
-0.865
-0.95
-1.005
-1.08
-1.05
-1.05
-0.975
-0.945
-0.885
-0.87
-0.91
-0.975
-1.045
-1.08
-1.045
-1.015
-0.98
-0.975
-0.915
-0.905
-0.91
-0.935
-0.95
-1.04
-1.04
-1.015
-0.935
-0.92
-0.86
-0.89
-0.895
-0.98
-1.005
-1.035
-1.01
-1.0
-0.915
-0.875
-0.87
-0.915
-0.97
-0.985
-0.98
-1.085
-1.09
-1.005
-0.96
-0.98
-0.915
-0.935
-1.0
-1.035
-1.03
-1.11
-1.09
-1.05
-0.96
-0.945
-0.895
-0.915
-0.965
-1.01
-1.03
-1.125
-1.105
-1.035
-0.995
-0.955
-0.9
-0.915
-0.965
-1.025
-1.025
-1.085
-1.09
-1.02
-0.985
-0.965
-0.895
-0.86
-0.93
-1.015
-1.035
-1.115
-1.1
-1.025
-0.965
-0.925
-0.915
-0.875
-0.98
-1.075
-1.08
-1.135
-1.11
-1.075
-0.91
-0.885
-0.86
-0.915
-0.955
-1.03
-1.015
-1.035
-1.04
-1.015
-0.95
-0.955
-0.92
-0.915
-0.97
-1.035
-1.09
-1.1
-1.075
-1.03
-0.98
-0.96
-0.915
-0.925
-1.005
-1.06
-1.08
-1.095
-1.075
-0.98
-0.91
-0.915
-0.94
-0.96
-1.035
-1.09
-1.115
-1.105
-1.1
-1.035
-0.965
-0.935
-0.94
-0.97
-1.04
-1.04
-1.065
-1.07
-1.095
-1.04
-0.995
-0.9
-0.905
-0.95
-1.03
-1.055
-1.105
-1.115
-1.065
-0.98
-0.97
-0.93
-0.975
-0.995
-1.025
-1.03
-1.045
-1.03
-0.99
-0.95
-0.95
-0.905
-0.93
-0.99
-1.03
-1.045
-1.105
-1.09
-1.065
-1.005
-0.975
-0.905
-0.935
-0.97
-1.005
-1.045
-1.115
-1.08
-1.025
-0.97
-0.95
-0.915
-0.94
-0.94
-1.015
-1.055
-1.115
-1.085
-1.035
-0.945
-0.92
-0.88
-0.93
-0.98
-1.06
-1.035
-1.095
-1.09
-1.025
-0.98
-1.0
-0.89
-0.88
-0.94
-1.045
-1.04
-1.11
-1.08
-1.085
-0.995
-0.95
-0.875
-0.915
-0.995
-1.06
-1.06
-1.12
-1.09
-1.03
-0.915
-0.91
-0.855
-0.865
-0.93
-1.025
-1.05
-1.07
-1.025
-0.985
-0.925
-0.975
-0.91
-0.915
-0.975
-1.035
-1.02
-1.05
-0.985
-0.955
-0.91
-0.915
-0.88
-0.865
-0.94
-0.965
-0.975
-1.015
-1.025
-0.965
-0.905
-0.92
-0.875
-0.895
-0.995
-1.03
-0.985
-1.01
-1.035
-0.98
-0.965
-0.97
-0.965
-0.98
-1.095
-1.135
-1.085
-1.09
-1.035
-0.93
-0.91
-0.905
-0.895
-0.91
-1.005
-1.07
-1.11
-1.135
-1.115
-1.025
-0.96
-0.955
-0.89
-0.865
-0.9
-0.92
-1.015
-1.035
-0.955
-0.81
-0.72
-0.645
-0.615
-0.615
-0.73
-0.795
-0.88
-0.94
-1.0
-1.05
-1.14
-1.165
-1.225
-1.26
-1.4
-1.535
-1.635
-1.665
-1.615
-1.44
-1.35
-1.22
-1.24
-1.18
-1.225
-1.245
-1.29
-1.22
-1.175
-1.085
-1.02
-0.92
-0.925
-0.965
-1.05
-1.08
-1.125
-1.09
-1.02
-0.955
-0.925
-0.89
-0.93
-0.94
-1.015
-1.035
-1.115
-1.065
-1.04
-0.96
-0.925
-0.9
-0.85
-0.85
-0.93
-0.955
-1.005
-0.965
-0.93
-0.885
-0.885
-0.805
-0.81
-0.88
-0.955
-0.93
-1.01
-1.04
-0.99
-0.9
-0.92
-0.85
-0.84
-0.875
-0.95
-0.98
-1.02
-0.995
-0.94
-0.89
-0.9
-0.805
-0.78
-0.83
-0.89
-0.91
-0.975
-0.96
-0.91
-0.815
-0.815
-0.79
-0.8
-0.845
-0.88
-0.85
-0.955
-0.945
-0.89
-0.87
-0.845
-0.785
-0.78
-0.795
-0.83
-0.815
-0.84
-0.84
-0.78
-0.725
-0.665
-0.615
-0.635
-0.695
-0.78
-0.785
-0.79
-0.8
-0.73
-0.625
-0.59
-0.56
-0.565
-0.69
-0.75
-0.735
-0.76
-0.725
-0.65
-0.605
-0.57
-0.545
-0.515
-0.565
-0.66
-0.715
-0.715
-0.7
-0.62
-0.585
-0.56
-0.52
-0.515
-0.61
-0.68
-0.765
-0.77
-0.76
-0.7
-0.69
-0.655
-0.66
-0.67
-0.7
-0.745
-0.8
-0.83
-0.83
-0.78
-0.75
-0.72
-0.71
-0.74
-0.82
-0.855
-0.955
-0.985
-0.97
-0.89
-0.85
-0.825
-0.815
-0.84
-0.925
-0.95
-1.0
-1.04
-0.995
-0.935
-0.895
-0.865
-0.87
-0.935
-1.0
-0.98
-1.015
-1.02
-0.99
-0.935
-0.92
-0.865
-0.885
-0.88
-0.95
-0.99
-1.08
-1.075
-1.045
-0.975
-0.915
-0.86
-0.86
-0.89
-0.96
-0.985
-1.065
-1.035
-1.005
-0.94
-0.925
-0.85
-0.87
-0.895
-0.945
-0.99
-1.035
-0.995
-0.965
-0.9
-0.88
-0.89
-0.88
-0.925
-0.99
-0.98
-1.055
-1.045
-1.005
-0.93
-0.91
-0.835
-0.835
-0.915
-0.975
-1.01
-1.08
-1.065
-1.015
-0.91
-0.9
-0.81
-0.75
-0.81
-0.925
-0.98
-1.025
-0.995
-0.9
-0.82
-0.81
-0.775
-0.83
-0.86
-0.955
-0.985
-1.03
-0.975
-0.95
-0.88
-0.865
-0.835
-0.835
-0.91
-1.025
-1.035
-1.025
-1.03
-0.935
-0.85
-0.835
-0.795
-0.805
-0.89
-0.95
-0.995
-1.03
-1.03
-0.96
-0.91
-0.875
-0.84
-0.86
-0.94
-1.015
-1.04
-1.04
-1.02
-0.88
-0.825
-0.825
-0.82
-0.85
-0.965
-1.015
-1.035
-1.02
-0.995
-0.935
-0.9
-0.825
-0.805
-0.845
-0.915
-0.965
-1.035
-0.995
-1.04
-0.945
-0.89
-0.82
-0.845
-0.895
-0.915
-0.995
-1.025
-1.02
-0.99
-0.915
-0.87
-0.83
-0.82
-0.865
-0.915
-0.955
-1.035
-1.025
-0.99
-0.91
-0.89
-0.82
-0.825
-0.87
-0.935
-0.99
-1.05
-1.025
-1.015
-0.94
-0.915
-0.86
-0.855
-0.87
-0.93
-0.95
-1.05
-1.025
-0.96
-0.86
-0.855
-0.8
-0.855
-0.87
-0.955
-0.95
-1.05
-1.04
-0.955
-0.87
-0.84
-0.785
-0.83
-0.87
-0.94
-0.955
-1.025
-1.01
-0.95
-0.92
-0.905
-0.805
-0.78
-0.825
-0.945
-0.965
-1.03
-1.015
-0.95
-0.88
-0.865
-0.835
-0.88
-0.93
-0.985
-0.91
-0.965
-0.97
-0.925
-0.855
-0.85
-0.765
-0.78
-0.865
-0.965
-0.935
-0.98
-0.98
-0.91
-0.875
-0.895
-0.825
-0.83
-0.86
-0.905
-0.93
-0.98
-1.0
-0.92
-0.84
-0.82
-0.76
-0.765
-0.825
-0.905
-0.925
-0.995
-0.97
-0.895
-0.815
-0.83
-0.81
-0.825
-0.88
-0.965
-0.965
-0.995
-0.97
-0.865
-0.78
-0.805
-0.77
-0.77
-0.85
-0.9
-0.93
-0.96
-0.92
-0.845
-0.82
-0.805
-0.765
-0.785
-0.86
-0.9
-0.97
-0.955
-0.94
-0.885
-0.83
-0.78
-0.775
-0.805
-0.845
-0.89
-0.935
-0.895
-0.89
-0.855
-0.86
-0.81
-0.8
-0.815
-0.89
-0.925
-0.965
-0.935
-0.94
-0.89
-0.84
-0.76
-0.745
-0.785
-0.86
-0.935
-0.975
-0.945
-0.94
-0.885
-0.8
-0.74
-0.665
-0.665
-0.835
-0.9
-0.955
-0.96
-0.945
-0.855
-0.82
-0.76
-0.75
-0.755
-0.88
-0.905
-0.96
-0.895
-0.88
-0.785
-0.785
-0.74
-0.78
-0.815
-0.88
-0.94
-0.995
-0.985
-0.91
-0.845
-0.815
-0.745
-0.77
-0.85
-0.89
-0.93
-0.97
-0.98
-0.88
-0.77
-0.715
-0.68
-0.715
-0.78
-0.89
-0.92
-1.0
-0.92
-0.885
-0.84
-0.81
-0.73
-0.73
-0.765
-0.825
-0.85
-0.915
-0.875
-0.805
-0.77
-0.77
-0.705
-0.78
-0.84
-0.885
-0.86
-0.94
-0.95
-0.825
-0.735
-0.775
-0.68
-0.64
-0.68
-0.755
-0.805
-0.845
-0.87
-0.83
-0.78
-0.77
-0.695
-0.735
-0.81
-0.84
-0.845
-0.89
-0.88
-0.84
-0.775
-0.725
-0.69
-0.73
-0.8
-0.885
-0.875
-0.945
-0.905
-0.815
-0.775
-0.735
-0.715
-0.73
-0.805
-0.855
-0.91
-0.945
-0.945
-0.885
-0.805
-0.76
-0.765
-0.755
-0.805
-0.86
-0.92
-0.94
-0.92
-0.8
-0.69
-0.64
-0.595
-0.595
-0.665
-0.695
-0.725
-0.685
-0.65
-0.595
-0.57
-0.54
-0.56
-0.635
-0.78
-0.92
-1.09
-1.095
-1.15
-1.175
-1.135
-1.125
-1.215
-1.325
-1.39
-1.375
-1.355
-1.28
-1.2
-1.11
-1.085
-0.96
-0.92
-0.98
-0.985
-0.955
-0.995
-0.99
-0.96
-0.85
-0.795
-0.715
-0.72
-0.755
-0.815
-0.855
-0.935
-0.895
-0.855
-0.775
-0.725
-0.655
-0.675
-0.715
-0.805
-0.86
-0.94
-0.905
-0.86
-0.785
-0.765
-0.695
-0.695
-0.71
-0.8
-0.845
-0.91
-0.815
-0.78
-0.72
-0.725
-0.665
-0.7
-0.77
-0.805
-0.765
-0.805
-0.825
-0.77
-0.695
-0.705
-0.635
-0.625
-0.645
-0.76
-0.77
-0.85
-0.825
-0.78
-0.71
-0.715
-0.59
-0.58
-0.625
-0.695
-0.71
-0.745
-0.75
-0.725
-0.7
-0.695
-0.695
-0.685
-0.725
-0.735
-0.715
-0.69
-0.68
-0.62
-0.58
-0.575
-0.555
-0.535
-0.57
-0.68
-0.69
-0.725
-0.62
-0.545
-0.51
-0.525
-0.485
-0.48
-0.55
-0.59
-0.53
-0.6
-0.6
-0.51
-0.42
-0.39
-0.39
-0.465
-0.495
-0.49
-0.525
-0.545
-0.5
-0.45
-0.37
-0.365
-0.38
-0.415
-0.475
-0.525
-0.56
-0.55
-0.525
-0.495
-0.455
-0.41
-0.425
-0.44
-0.555
-0.52
-0.56
-0.58
-0.595
-0.58
-0.525
-0.48
-0.45
-0.515
-0.61
-0.65
-0.72
-0.71
-0.695
-0.63
-0.61
-0.585
-0.63
-0.635
-0.745
-0.77
-0.845
-0.795
-0.81
-0.755
-0.74
-0.69
-0.685
-0.73
-0.795
-0.875
-0.91
-0.845
-0.815
-0.76
-0.745
-0.675
-0.705
-0.76
-0.795
-0.83
-0.94
-0.915
-0.9
-0.87
-0.855
-0.78
-0.755
-0.745
-0.805
-0.845
-0.925
-0.955
-0.92
-0.825
-0.755
-0.655
-0.68
-0.73
-0.805
-0.81
-0.855
-0.83
-0.815
-0.775
-0.745
-0.665
-0.68
-0.755
-0.8
-0.825
-0.9
-0.88
-0.835
-0.745
-0.695
-0.66
-0.69
-0.74
-0.835
-0.845
-0.91
-0.89
-0.815
-0.735
-0.715
-0.68
-0.705
-0.78
-0.815
-0.865
-0.97
-0.925
-0.815
-0.71
-0.67
-0.615
-0.655
-0.71
-0.755
-0.79
-0.845
-0.855
-0.805
-0.735
-0.735
-0.635
-0.665
-0.755
-0.855
-0.87
-0.88
-0.86
-0.765
-0.675
-0.68
-0.65
-0.69
-0.76
-0.795
-0.855
-0.855
-0.86
-0.78
-0.705
-0.655
-0.64
-0.68
-0.77
-0.815
-0.82
-0.85
-0.9
-0.805
-0.785
-0.765
-0.735
-0.71
-0.78
-0.835
-0.84
-0.82
-0.8
-0.785
-0.745
-0.665
-0.67
-0.73
-0.76
-0.81
-0.85
-0.825
-0.845
-0.775
-0.705
-0.68
-0.68
-0.695
-0.73
-0.8
-0.865
-0.88
-0.875
-0.805
-0.79
-0.765
-0.73
-0.705
-0.81
-0.86
-0.91
-0.85
-0.765
-0.745
-0.77
-0.68
-0.69
-0.725
-0.8
-0.83
-0.89
-0.83
-0.79
-0.735
-0.68
-0.635
-0.705
-0.72
-0.765
-0.79
-0.865
-0.885
-0.87
-0.8
-0.745
-0.685
-0.695
-0.73
-0.795
-0.83
-0.905
-0.875
-0.85
-0.8
-0.795
-0.69
-0.675
-0.725
-0.815
-0.825
-0.89
-0.845
-0.795
-0.76
-0.73
-0.66
-0.695
-0.755
-0.825
-0.865
-0.94
-0.89
-0.855
-0.74
-0.76
-0.685
-0.615
-0.68
-0.725
-0.77
-0.84
-0.845
-0.805
-0.75
-0.755
-0.71
-0.755
-0.77
-0.81
-0.835
-0.895
-0.91
-0.86
-0.77
-0.745
-0.7
-0.68
-0.74
-0.815
-0.8
-0.88
-0.865
-0.835
-0.745
-0.715
-0.675
-0.72
-0.775
-0.835
-0.85
-0.895
-0.91
-0.85
-0.765
-0.745
-0.71
-0.68
-0.77
-0.855
-0.84
-0.89
-0.84
-0.725
-0.695
-0.73
-0.705
-0.74
-0.785
-0.87
-0.895
-0.915
-0.895
-0.83
-0.74
-0.73
-0.72
-0.735
-0.755
-0.78
-0.83
-0.79
-0.785
-0.77
-0.735
-0.73
-0.72
-0.74
-0.8
-0.83
-0.855
-0.85
-0.825
-0.76
-0.695
-0.65
-0.63
-0.75
-0.83
-0.845
-0.915
-0.89
-0.87
-0.81
-0.745
-0.705
-0.715
-0.73
-0.785
-0.805
-0.875
-0.835
-0.835
-0.775
-0.705
-0.65
-0.665
-0.68
-0.765
-0.77
-0.84
-0.82
-0.795
-0.76
-0.675
-0.595
-0.65
-0.72
-0.765
-0.75
-0.84
-0.805
-0.79
-0.705
-0.695
-0.64
-0.67
-0.665
-0.755
-0.805
-0.85
-0.805
-0.725
-0.65
-0.66
-0.605
-0.62
-0.65
-0.715
-0.775
-0.885
-0.88
-0.795
-0.74
-0.76
-0.67
-0.675
-0.725
-0.8
-0.83
-0.895
-0.925
-0.83
-0.78
-0.755
-0.72
-0.72
-0.72
-0.8
-0.82
-0.91
-0.895
-0.825
-0.725
-0.71
-0.59
-0.595
-0.665
-0.725
-0.7
-0.68
-0.64
-0.535
-0.46
-0.47
-0.455
-0.5
-0.615
-0.715
-0.79
-0.945
-1.05
-1.065
-1.015
-1.005
-0.92
-1.05
-1.175
-1.285
-1.32
-1.33
-1.29
-1.21
-1.105
-1.015
-0.925
-0.88
-0.895
-0.96
-0.915
-0.915
-0.92
-0.82
-0.76
-0.74
-0.71
-0.715
-0.765
-0.815
-0.84
-0.865
-0.85
-0.77
-0.69
-0.68
-0.65
-0.655
-0.725
-0.755
-0.815
-0.8
-0.755
-0.685
-0.645
-0.6
-0.565
-0.585
-0.69
-0.735
-0.76
-0.745
-0.735
-0.66
-0.675
-0.65
-0.665
-0.675
-0.73
-0.77
-0.835
-0.79
-0.76
-0.655
-0.605
-0.55
-0.54
-0.57
-0.635
-0.685
-0.75
-0.725
-0.71
-0.67
-0.6
-0.555
-0.585
-0.61
-0.675
-0.705
-0.715
-0.65
-0.655
-0.56
-0.535
-0.435
-0.455
-0.54
-0.64
-0.69
-0.735
-0.675
-0.645
-0.57
-0.525
-0.485
-0.5
-0.53
-0.6
-0.6
-0.635
-0.61
-0.59
-0.48
-0.44
-0.385
-0.4
-0.43
-0.48
-0.49
-0.54
-0.52
-0.46
-0.355
-0.34
-0.315
-0.335
-0.43
-0.44
-0.445
-0.52
-0.47
-0.415
-0.37
-0.325
-0.225
-0.245
-0.315
-0.385
-0.405
-0.435
-0.445
-0.395
-0.295
-0.32
-0.29
-0.315
-0.385
-0.47
-0.44
-0.51
-0.55
-0.52
-0.435
-0.445
-0.38
-0.39
-0.475
-0.565
-0.59
-0.675
-0.72
-0.65
-0.59
-0.55
-0.495
-0.51
-0.575
-0.67
-0.67
-0.705
-0.73
-0.73
-0.66
-0.655
-0.59
-0.63
-0.72
-0.765
-0.785
-0.82
-0.825
-0.75
-0.72
-0.68
-0.635
-0.63
-0.695
-0.76
-0.775
-0.83
-0.82
-0.745
-0.7
-0.68
-0.655
-0.64
-0.725
-0.81
-0.87
-0.925
-0.875
-0.81
-0.735
-0.675
-0.665
-0.665
-0.765
-0.82
-0.855
-0.825
-0.825
-0.77
-0.71
-0.675
-0.655
-0.64
-0.71
-0.73
-0.815
-0.805
-0.805
-0.73
-0.655
-0.63
-0.655
-0.685
-0.75
-0.765
-0.825
-0.81
-0.8
-0.755
-0.71
-0.63
-0.65
-0.68
-0.72
-0.77
-0.85
-0.83
-0.805
-0.735
-0.725
-0.635
-0.63
-0.66
-0.77
-0.775
-0.85
-0.79
-0.755
-0.73
-0.71
-0.61
-0.62
-0.665
-0.755
-0.81
-0.835
-0.81
-0.8
-0.745
-0.76
-0.65
-0.645
-0.62
-0.705
-0.725
-0.805
-0.795
-0.745
-0.685
-0.73
-0.695
-0.68
-0.695
-0.725
-0.735
-0.815
-0.82
-0.765
-0.695
-0.705
-0.625
-0.63
-0.685
-0.805
-0.815
-0.855
-0.875
-0.81
-0.745
-0.71
-0.65
-0.65
-0.745
-0.83
-0.83
-0.895
-0.86
-0.815
-0.735
-0.705
-0.665
-0.665
-0.735
-0.775
-0.79
-0.83
-0.845
-0.755
-0.685
-0.67
-0.625
-0.67
-0.74
-0.82
-0.835
-0.885
-0.85
-0.755
-0.725
-0.72
-0.685
-0.685
-0.77
-0.83
-0.865
-0.92
-0.905
-0.81
-0.76
-0.685
-0.635
-0.64
-0.755
-0.87
-0.85
-0.865
-0.87
-0.795
-0.68
-0.66
-0.675
-0.705
-0.785
-0.815
-0.825
-0.88
-0.88
-0.805
-0.725
-0.67
-0.66
-0.67
-0.76
-0.81
-0.845
-0.865
-0.865
-0.795
-0.75
-0.74
-0.735
-0.71
-0.785
-0.815
-0.865
-0.85
-0.85
-0.785
-0.735
-0.68
-0.68
-0.715
-0.8
-0.845
-0.94
-0.88
-0.84
-0.78
-0.745
-0.695
-0.73
-0.745
-0.83
-0.885
-0.965
-0.895
-0.85
-0.775
-0.755
-0.66
-0.675
-0.695
-0.765
-0.79
-0.88
-0.875
-0.81
-0.74
-0.71
-0.71
-0.705
-0.735
-0.795
-0.815
-0.86
-0.81
-0.825
-0.8
-0.74
-0.605
-0.67
-0.79
-0.825
-0.81
-0.895
-0.89
-0.83
-0.765
-0.75
-0.7
-0.715
-0.765
-0.84
-0.88
-0.91
-0.84
-0.845
-0.79
-0.78
-0.715
-0.71
-0.77
-0.835
-0.84
-0.905
-0.865
-0.8
-0.77
-0.76
-0.675
-0.645
-0.755
-0.87
-0.85
-0.92
-0.905
-0.835
-0.81
-0.855
-0.75
-0.745
-0.82
-0.845
-0.815
-0.85
-0.83
-0.785
-0.72
-0.705
-0.67
-0.705
-0.78
-0.785
-0.805
-0.845
-0.84
-0.79
-0.705
-0.725
-0.74
-0.71
-0.745
-0.845
-0.85
-0.925
-0.925
-0.86
-0.76
-0.715
-0.67
-0.73
-0.83
-0.86
-0.86
-0.875
-0.92
-0.88
-0.78
-0.73
-0.705
-0.73
-0.795
-0.855
-0.9
-0.895
-0.865
-0.785
-0.775
-0.75
-0.735
-0.725
-0.82
-0.885
-0.94
-0.925
-0.93
-0.87
-0.8
-0.68
-0.68
-0.725
-0.795
-0.825
-0.855
-0.845
-0.825
-0.73
-0.7
-0.645
-0.68
-0.715
-0.77
-0.815
-0.895
-0.86
-0.815
-0.71
-0.63
-0.57
-0.575
-0.63
-0.71
-0.74
-0.815
-0.83
-0.795
-0.695
-0.685
-0.64
-0.65
-0.65
-0.715
-0.775
-0.88
-0.835
-0.81
-0.735
-0.71
-0.63
-0.66
-0.72
-0.85
-0.85
-0.915
-0.875
-0.795
-0.74
-0.76
-0.715
-0.725
-0.77
-0.865
-0.895
-0.975
-0.92
-0.875
-0.805
-0.765
-0.7
-0.72
-0.73
-0.815
-0.855
-0.925
-0.895
-0.81
-0.715
-0.68
-0.6
-0.585
-0.62
-0.655
-0.595
-0.575
-0.53
-0.505
-0.44
-0.49
-0.465
-0.525
-0.605
-0.815
-0.945
-1.1
-1.175
-1.155
-1.115
-1.18
-1.19
-1.245
-1.315
-1.345
-1.27
-1.275
-1.21
-1.085
-0.975
-0.915
-0.845
-0.835
-0.895
-0.935
-0.91
-0.97
-0.965
-0.885
-0.775
-0.77
-0.735
-0.785
-0.85
-0.92
-0.875
-0.885
-0.85
-0.79
-0.73
-0.715
-0.695
-0.68
-0.775
-0.82
-0.85
-0.86
-0.825
-0.74
-0.705
-0.665
-0.675
-0.715
-0.8
-0.82
-0.85
-0.85
-0.855
-0.755
-0.71
-0.66
-0.645
-0.645
-0.765
-0.815
-0.85
-0.835
-0.81
-0.77
-0.705
-0.695
-0.645
-0.65
-0.745
-0.77
-0.79
-0.775
-0.775
-0.725
-0.655
-0.6
-0.605
-0.62
-0.67
-0.71
-0.775
-0.765
-0.755
-0.695
-0.675
-0.63
-0.635
-0.665
-0.735
-0.74
-0.76
-0.725
-0.72
-0.67
-0.655
-0.57
-0.57
-0.58
-0.635
-0.665
-0.7
-0.715
-0.65
-0.54
-0.515
-0.5
-0.545
-0.53
-0.615
-0.6
-0.655
-0.62
-0.545
-0.47
-0.435
-0.37
-0.38
-0.45
-0.54
-0.585
-0.625
-0.58
-0.495
-0.39
-0.395
-0.33
-0.38
-0.445
-0.525
-0.56
-0.635
-0.615
-0.52
-0.455
-0.415
-0.33
-0.395
-0.515
-0.605
-0.58
-0.61
-0.62
-0.605
-0.555
-0.58
-0.53
-0.57
-0.645
-0.72
-0.75
-0.79
-0.745
-0.67
-0.615
-0.63
-0.615
-0.6
-0.665
-0.76
-0.775
-0.835
-0.85
-0.81
-0.79
-0.795
-0.73
-0.755
-0.815
-0.87
-0.88
-0.93
-0.895
-0.82
-0.79
-0.735
-0.695
-0.74
-0.79
-0.865
-0.885
-0.915
-0.925
-0.85
-0.8
-0.77
-0.74
-0.77
-0.815
-0.855
-0.885
-0.91
-0.92
-0.845
-0.81
-0.785
-0.795
-0.83
-0.895
-0.945
-0.95
-0.935
-0.905
-0.84
-0.76
-0.705
-0.7
-0.735
-0.82
-0.9
-0.91
-0.915
-0.905
-0.81
-0.78
-0.745
-0.74
-0.735
-0.805
-0.86
-0.91
-0.87
-0.88
-0.81
-0.755
-0.73
-0.75
-0.775
-0.865
-0.88
-0.945
-0.9
-0.86
-0.8
-0.765
-0.7
-0.72
-0.795
-0.87
-0.93
-0.965
-0.935
-0.905
-0.84
-0.79
-0.7
-0.725
-0.78
-0.83
-0.86
-0.91
-0.855
-0.87
-0.83
-0.815
-0.755
-0.75
-0.785
-0.85
-0.82
-0.88
-0.85
-0.875
-0.77
-0.75
-0.705
-0.725
-0.8
-0.85
-0.89
-0.97
-0.925
-0.86
-0.78
-0.78
-0.74
-0.76
-0.815
-0.855
-0.87
-0.895
-0.91
-0.91
-0.855
-0.825
-0.785
-0.81
-0.865
-0.91
-0.905
-0.94
-0.92
-0.885
-0.82
-0.83
-0.74
-0.735
-0.795
-0.85
-0.87
-0.96
-0.97
-0.925
-0.86
-0.845
-0.795
-0.76
-0.8
-0.885
-0.87
-0.93
-0.91
-0.82
-0.81
-0.81
-0.75
-0.805
-0.895
-0.965
-0.96
-1.0
-0.98
-0.87
-0.8
-0.77
-0.715
-0.73
-0.805
-0.895
-0.94
-0.93
-0.96
-0.915
-0.83
-0.82
-0.76
-0.76
-0.85
-0.895
-0.925
-0.95
-0.905
-0.835
-0.78
-0.765
-0.725
-0.72
-0.835
-0.905
-0.965
-1.01
-0.975
-0.9
-0.83
-0.79
-0.81
-0.8
-0.885
-0.93
-0.955
-0.94
-0.925
-0.87
-0.835
-0.77
-0.75
-0.775
-0.885
-0.935
-0.965
-0.94
-0.94
-0.865
-0.83
-0.755
-0.75
-0.785
-0.845
-0.865
-0.93
-0.925
-0.905
-0.84
-0.825
-0.765
-0.78
-0.845
-0.845
-0.855
-0.94
-0.92
-0.9
-0.82
-0.8
-0.715
-0.75
-0.845
-0.91
-0.94
-1.025
-0.96
-0.91
-0.835
-0.84
-0.775
-0.825
-0.855
-0.93
-0.875
-0.95
-0.89
-0.885
-0.86
-0.84
-0.765
-0.775
-0.81
-0.88
-0.9
-0.975
-0.955
-0.88
-0.825
-0.81
-0.73
-0.77
-0.785
-0.84
-0.875
-0.925
-0.91
-0.88
-0.86
-0.875
-0.82
-0.78
-0.775
-0.85
-0.875
-0.97
-0.93
-0.905
-0.835
-0.805
-0.745
-0.755
-0.835
-0.895
-0.89
-0.965
-0.915
-0.895
-0.865
-0.87
-0.77
-0.765
-0.805
-0.875
-0.87
-0.89
-0.92
-0.85
-0.765
-0.815
-0.775
-0.8
-0.88
-0.925
-0.92
-0.99
-0.92
-0.845
-0.75
-0.76
-0.75
-0.75
-0.82
-0.915
-0.975
-1.02
-0.975
-0.895
-0.845
-0.805
-0.765
-0.735
-0.805
-0.865
-0.915
-0.97
-0.94
-0.865
-0.82
-0.78
-0.735
-0.785
-0.845
-0.905
-0.935
-0.95
-0.93
-0.88
-0.81
-0.755
-0.735
-0.745
-0.83
-0.875
-0.935
-0.93
-0.945
-0.87
-0.83
-0.805
-0.8
-0.82
-0.905
-0.905
-0.925
-0.91
-0.915
-0.825
-0.77
-0.725
-0.765
-0.815
-0.88
-0.91
-0.955
-0.92
-0.87
-0.815
-0.805
-0.735
-0.735
-0.8
-0.855
-0.86
-0.955
-0.94
-0.895
-0.84
-0.815
-0.775
-0.765
-0.765
-0.81
-0.825
-0.875
-0.82
-0.785
-0.76
-0.74
-0.655
-0.68
-0.765
-0.83
-0.845
-0.89
-0.885
-0.835
-0.815
-0.82
-0.735
-0.76
-0.82
-0.87
-0.9
-0.945
-0.96
-0.92
-0.83
-0.845
-0.77
-0.78
-0.805
-0.885
-0.895
-1.0
-0.98
-0.95
-0.865
-0.835
-0.755
-0.765
-0.79
-0.85
-0.875
-0.96
-0.94
-0.895
-0.825
-0.805
-0.735
-0.745
-0.755
-0.8
-0.79
-0.825
-0.75
-0.66
-0.575
-0.55
-0.475
-0.5
-0.575
-0.695
-0.765
-0.905
-1.015
-1.075
-1.08
-1.09
-1.09
-1.2
-1.325
-1.41
-1.47
-1.465
-1.405
-1.28
-1.18
-1.125
-1.045
-1.05
-1.02
-1.035
-0.995
-0.98
-0.965
-0.89
-0.82
-0.78
-0.77
-0.765
-0.81
-0.865
-0.92
-0.94
-0.91
-0.825
-0.79
-0.81
-0.8
-0.775
-0.865
-0.915
-0.925
-0.92
-0.895
-0.825
-0.74
-0.705
-0.695
-0.71
-0.795
-0.805
-0.89
-0.885
-0.875
-0.81
-0.76
-0.685
-0.685
-0.71
-0.785
-0.865
-0.94
-0.92
-0.86
-0.78
-0.685
-0.605
-0.67
-0.725
-0.79
-0.865
-0.895
-0.84
-0.815
-0.735
-0.67
-0.62
-0.635
-0.64
-0.72
-0.75
-0.815
-0.805
-0.77
-0.705
-0.675
-0.635
-0.67
-0.72
-0.735
-0.77
-0.835
-0.825
-0.795
-0.715
-0.71
-0.66
-0.625
-0.62
-0.665
-0.68
-0.765
-0.73
-0.64
-0.615
-0.63
-0.595
-0.555
-0.555
-0.59
-0.605
-0.675
-0.645
-0.615
-0.54
-0.515
-0.43
-0.445
-0.48
-0.52
-0.515
-0.585
-0.58
-0.525
-0.46
-0.455
-0.39
-0.42
-0.495
-0.55
-0.58
-0.59
-0.58
-0.54
-0.465
-0.46
-0.385
-0.42
-0.495
-0.59
-0.59
-0.66
-0.595
-0.56
-0.515
-0.53
-0.48
-0.515
-0.595
-0.66
-0.705
-0.78
-0.765
-0.69
-0.615
-0.65
-0.61
-0.665
-0.75
-0.81
-0.82
-0.825
-0.83
-0.795
-0.755
-0.745
-0.715
-0.74
-0.805
-0.9
-0.945
-0.955
-0.945
-0.785
-0.66
-0.68
-0.725
-0.745
-0.8
-0.875
-0.92
-0.945
-0.915
-0.825
-0.75
-0.735
-0.7
-0.745
-0.835
-0.93
-0.99
-0.935
-0.905
-0.88
-0.835
-0.775
-0.765
-0.815
-0.865
-0.935
-0.96
-0.955
-0.925
-0.815
-0.77
-0.695
-0.72
-0.77
-0.855
-0.87
-0.91
-0.915
-0.9
-0.835
-0.785
-0.805
-0.78
-0.815
-0.83
-0.81
-0.85
-0.865
-0.875
-0.805
-0.8
-0.755
-0.745
-0.77
-0.86
-0.91
-0.935
-0.925
-0.885
-0.795
-0.77
-0.705
-0.7
-0.74
-0.805
-0.83
-0.9
-0.87
-0.855
-0.83
-0.825
-0.75
-0.785
-0.78
-0.82
-0.86
-0.925
-0.92
-0.905
-0.845
-0.8
-0.71
-0.735
-0.78
-0.82
-0.825
-0.895
-0.905
-0.865
-0.805
-0.77
-0.72
-0.755
-0.82
-0.84
-0.87
-0.945
-0.915
-0.855
-0.805
-0.805
-0.745
-0.74
-0.805
-0.88
-0.895
-0.985
-0.96
-0.875
-0.83
-0.82
-0.73
-0.725
-0.785
-0.835
-0.815
-0.91
-0.945
-0.865
-0.8
-0.805
-0.73
-0.77
-0.85
-0.92
-0.945
-0.99
-0.93
-0.855
-0.715
-0.72
-0.68
-0.735
-0.775
-0.81
-0.87
-0.96
-0.97
-0.91
-0.865
-0.835
-0.755
-0.74
-0.84
-0.91
-0.915
-0.92
-0.89
-0.765
-0.69
-0.725
-0.74
-0.8
-0.875
-0.94
-0.985
-1.0
-0.98
-0.925
-0.835
-0.81
-0.79
-0.805
-0.845
-0.865
-0.955
-0.98
-0.925
-0.85
-0.81
-0.785
-0.75
-0.81
-0.82
-0.845
-0.915
-0.915
-0.94
-0.87
-0.835
-0.735
-0.74
-0.76
-0.83
-0.895
-0.935
-0.94
-0.935
-0.855
-0.81
-0.76
-0.795
-0.855
-0.905
-0.945
-0.95
-0.87
-0.875
-0.82
-0.815
-0.76
-0.79
-0.8
-0.895
-0.945
-1.0
-0.995
-0.935
-0.825
-0.785
-0.74
-0.765
-0.8
-0.89
-0.91
-0.995
-0.98
-0.915
-0.835
-0.81
-0.74
-0.76
-0.81
-0.88
-0.91
-1.005
-0.985
-0.935
-0.855
-0.855
-0.765
-0.775
-0.815
-0.89
-0.865
-0.945
-0.94
-0.94
-0.9
-0.875
-0.755
-0.81
-0.865
-0.87
-0.91
-0.985
-0.98
-0.9
-0.84
-0.85
-0.845
-0.84
-0.865
-0.92
-0.885
-0.91
-0.93
-0.845
-0.765
-0.775
-0.725
-0.755
-0.825
-0.94
-0.975
-0.99
-0.93
-0.875
-0.81
-0.79
-0.74
-0.785
-0.82
-0.93
-0.92
-0.985
-0.935
-0.93
-0.81
-0.8
-0.735
-0.73
-0.835
-0.93
-0.94
-0.985
-0.985
-0.86
-0.815
-0.8
-0.715
-0.77
-0.795
-0.84
-0.84
-0.875
-0.865
-0.785
-0.715
-0.69
-0.69
-0.775
-0.84
-0.88
-0.91
-0.905
-0.915
-0.835
-0.765
-0.71
-0.72
-0.735
-0.815
-0.895
-0.97
-0.99
-0.955
-0.925
-0.84
-0.815
-0.805
-0.77
-0.795
-0.87
-0.92
-0.89
-0.925
-0.9
-0.83
-0.785
-0.78
-0.81
-0.875
-0.925
-0.985
-0.975
-0.98
-0.895
-0.815
-0.745
-0.73
-0.78
-0.815
-0.83
-0.9
-0.87
-0.83
-0.7
-0.63
-0.575
-0.52
-0.615
-0.685
-0.715
-0.775
-0.82
-0.855
-0.89
-0.95
-0.96
-1.04
-1.1
-1.215
-1.34
-1.45
-1.44
-1.46
-1.41
-1.335
-1.195
-1.16
-1.12
-1.19
-1.16
-1.16
-1.12
-1.09
-1.01
-1.005
-0.93
-0.885
-0.9
-0.89
-0.83
-0.865
-0.865
-0.835
-0.795
-0.775
-0.725
-0.735
-0.8
-0.825
-0.82
-0.9
-0.895
-0.835
-0.76
-0.73
-0.685
-0.725
-0.74
-0.805
-0.815
-0.86
-0.89
-0.875
-0.795
-0.735
-0.695
-0.735
-0.785
-0.83
-0.81
-0.855
-0.825
-0.775
-0.69
-0.685
-0.655
-0.655
-0.725
-0.805
-0.81
-0.86
-0.905
-0.85
-0.76
-0.765
-0.725
-0.68
-0.69
-0.77
-0.745
-0.78
-0.745
-0.7
-0.65
-0.645
-0.595
-0.595
-0.63
-0.69
-0.71
-0.77
-0.77
-0.73
-0.69
-0.675
-0.61
-0.595
-0.635
-0.69
-0.74
-0.73
-0.72
-0.655
-0.61
-0.555
-0.515
-0.59
-0.63
-0.675
-0.7
-0.72
-0.665
-0.575
-0.5
-0.465
-0.465
-0.475
-0.57
-0.595
-0.595
-0.565
-0.535
-0.44
-0.435
-0.405
-0.415
-0.445
-0.515
-0.55
-0.58
-0.605
-0.575
-0.51
-0.455
-0.395
-0.405
-0.445
-0.555
-0.615
-0.68
-0.615
-0.62
-0.565
-0.555
-0.535
-0.54
-0.58
-0.625
-0.625
-0.73
-0.805
-0.765
-0.69
-0.695
-0.65
-0.665
-0.7
-0.77
-0.8
-0.865
-0.83
-0.81
-0.765
-0.765
-0.76
-0.775
-0.8
-0.88
-0.905
-1.005
-0.99
-0.95
-0.88
-0.855
-0.8
-0.785
-0.84
-0.915
-0.94
-1.01
-0.96
-0.915
-0.83
-0.85
-0.76
-0.805
-0.855
-0.92
-0.925
-1.015
-1.02
-0.995
-0.92
-0.94
-0.875
-0.865
-0.88
-0.94
-0.97
-1.04
-1.0
-0.94
-0.875
-0.785
-0.725
-0.74
-0.805
-0.91
-0.935
-0.97
-1.0
-0.995
-0.84
-0.845
-0.815
-0.825
-0.89
-0.945
-0.96
-1.035
-1.005
-0.915
-0.82
-0.835
-0.81
-0.8
-0.85
-0.935
-0.955
-0.96
-0.935
-0.86
-0.77
-0.815
-0.79
-0.785
-0.84
-0.92
-0.915
-0.96
-0.95
-0.905
-0.85
-0.855
-0.82
-0.785
-0.865
-0.915
-0.915
-0.955
-0.995
-0.905
-0.85
-0.795
-0.78
-0.78
-0.865
-0.91
-0.975
-1.015
-1.0
-0.9
-0.84
-0.815
-0.775
-0.82
-0.88
-0.9
-0.96
-0.96
-0.955
-0.875
-0.81
-0.78
-0.795
-0.845
-0.93
-0.96
-1.01
-0.995
-0.965
-0.92
-0.87
-0.815
-0.835
-0.88
-0.92
-0.945
-1.015
-1.01
-0.98
-0.87
-0.835
-0.8
-0.815
-0.88
-0.935
-0.945
-1.055
-1.02
-0.99
-0.925
-0.83
-0.765
-0.775
-0.795
-0.885
-0.925
-1.035
-0.975
-0.925
-0.865
-0.86
-0.79
-0.795
-0.84
-0.935
-0.955
-1.015
-1.015
-0.975
-0.93
-0.915
-0.825
-0.795
-0.86
-0.97
-0.97
-1.03
-1.01
-0.975
-0.92
-0.925
-0.83
-0.785
-0.835
-0.915
-0.95
-1.01
-1.0
-0.96
-0.86
-0.845
-0.81
-0.825
-0.88
-0.965
-0.965
-0.985
-0.955
-0.92
-0.875
-0.87
-0.83
-0.815
-0.855
-0.88
-0.885
-0.945
-0.93
-0.87
-0.81
-0.81
-0.795
-0.83
-0.905
-0.95
-0.955
-1.01
-0.985
-0.94
-0.875
-0.895
-0.86
-0.83
-0.875
-0.945
-0.96
-1.03
-1.02
-0.99
-0.925
-0.91
-0.825
-0.845
-0.895
-0.955
-0.965
-1.005
-1.0
-0.93
-0.86
-0.835
-0.775
-0.785
-0.875
-0.93
-0.95
-0.985
-1.01
-0.945
-0.85
-0.805
-0.82
-0.845
-0.935
-0.925
-0.965
-0.96
-0.945
-0.88
-0.84
-0.84
-0.81
-0.815
-0.885
-0.895
-0.925
-0.915
-0.88
-0.81
-0.79
-0.755
-0.76
-0.795
-0.88
-0.89
-1.0
-0.995
-0.95
-0.87
-0.825
-0.785
-0.815
-0.82
-0.89
-0.94
-1.01
-1.02
-0.995
-0.91
-0.87
-0.825
-0.83
-0.86
-0.94
-0.945
-0.975
-0.98
-0.945
-0.875
-0.865
-0.83
-0.815
-0.86
-0.95
-0.975
-1.02
-0.975
-0.975
-0.94
-0.91
-0.815
-0.815
-0.86
-0.92
-0.93
-0.955
-0.905
-0.855
-0.77
-0.705
-0.61
-0.63
-0.635
-0.675
-0.725
-0.835
-0.89
-0.875
-0.85
-0.935
-0.97
-1.04
-1.16
-1.245
-1.26
-1.4
-1.48
-1.485
-1.4
-1.375
-1.235
-1.19
-1.185
-1.23
-1.23
-1.235
-1.205
-1.13
-1.055
-1.005
-0.925
-0.9
-0.925
-0.98
-0.985
-1.06
-1.07
-0.985
-0.92
-0.875
-0.815
-0.8
-0.87
-0.92
-0.93
-0.98
-0.955
-0.905
-0.84
-0.85
-0.81
-0.825
-0.85
-0.9
-0.915
-0.94
-0.925
-0.865
-0.815
-0.82
-0.785
-0.8
-0.87
-0.905
-0.905
-0.915
-0.885
-0.82
-0.805
-0.78
-0.75
-0.765
-0.86
-0.885
-0.9
-0.94
-0.915
-0.84
-0.775
-0.77
-0.765
-0.775
-0.86
-0.93
-0.955
-0.925
-0.905
-0.78
-0.73
-0.71
-0.695
-0.71
-0.79
-0.8
-0.855
-0.85
-0.82
-0.725
-0.74
-0.69
-0.685
-0.735
-0.795
-0.765
-0.835
-0.77
-0.715
-0.63
-0.595
-0.56
-0.595
-0.62
-0.695
-0.735
-0.77
-0.76
-0.745
-0.625
-0.565
-0.51
-0.525
-0.565
-0.645
-0.65
-0.7
-0.645
-0.595
-0.525
-0.535
-0.47
-0.49
-0.5
-0.56
-0.575
-0.645
-0.655
-0.63
-0.555
-0.535
-0.475
-0.47
-0.51
-0.595
-0.63
-0.67
-0.61
-0.575
-0.54
-0.56
-0.495
-0.53
-0.59
-0.69
-0.735
-0.82
-0.795
-0.75
-0.705
-0.725
-0.66
-0.665
-0.715
-0.795
-0.79
-0.895
-0.91
-0.895
-0.845
-0.85
-0.81
-0.79
-0.855
-0.88
-0.92
-0.995
-1.0
-0.95
-0.885
-0.865
-0.805
-0.835
-0.895
-0.895
-0.92
-0.98
-0.97
-0.905
-0.825
-0.825
-0.805
-0.825
-0.895
-0.965
-0.98
-1.015
-0.965
-0.945
-0.91
-0.9
-0.83
-0.835
-0.895
-0.93
-0.96
-0.995
-1.0
-0.93
-0.865
-0.845
-0.82
-0.835
-0.9
-0.945
-1.02
-1.015
-1.04
-0.97
-0.935
-0.905
-0.875
-0.87
-0.915
-0.965
-0.98
-0.96
-0.945
-0.885
-0.835
-0.795
-0.795
-0.825
-0.87
-0.92
-0.95
-0.935
-0.945
-0.91
-0.86
-0.805
-0.775
-0.81
-0.88
-0.94
-0.985
-0.95
-0.92
-0.865
-0.83
-0.8
-0.79
-0.83
-0.89
-0.925
-0.965
-0.97
-0.955
-0.88
-0.84
-0.765
-0.74
-0.76
-0.86
-0.93
-1.05
-0.995
-0.96
-0.865
-0.835
-0.79
-0.795
-0.82
-0.9
-0.945
-0.98
-0.93
-0.905
-0.855
-0.84
-0.76
-0.775
-0.78
-0.86
-0.905
-0.98
-0.975
-0.895
-0.85
-0.83
-0.75
-0.785
-0.85
-0.925
-0.91
-0.975
-0.96
-0.94
-0.85
-0.83
-0.79
-0.78
-0.845
-0.905
-0.95
-1.02
-0.985
-0.965
-0.87
-0.87
-0.82
-0.81
-0.86
-0.91
-0.9
-0.985
-0.965
-0.875
-0.805
-0.83
-0.75
-0.795
-0.875
-0.945
-0.96
-1.03
-1.02
-0.935
-0.85
-0.825
-0.805
-0.805
-0.845
-0.905
-0.92
-0.965
-0.92
-0.86
-0.78
-0.795
-0.78
-0.755
-0.855
-0.955
-0.955
-0.975
-0.965
-0.925
-0.865
-0.845
-0.82
-0.815
-0.91
-0.93
-0.915
-0.955
-0.98
-0.865
-0.765
-0.755
-0.73
-0.76
-0.9
-0.9
-0.935
-0.98
-0.975
-0.9
-0.835
-0.765
-0.74
-0.76
-0.83
-0.9
-1.0
-1.0
-0.995
-0.89
-0.865
-0.815
-0.78
-0.78
-0.85
-0.905
-0.945
-0.915
-0.92
-0.87
-0.825
-0.775
-0.775
-0.8
-0.915
-0.97
-1.025
-1.0
-0.935
-0.845
-0.835
-0.77
-0.785
-0.77
-0.855
-0.91
-0.94
-0.895
-0.905
-0.83
-0.82
-0.795
-0.86
-0.84
-0.875
-0.885
-1.005
-0.965
-0.915
-0.84
-0.83
-0.78
-0.805
-0.775
-0.88
-0.905
-0.955
-0.935
-0.94
-0.855
-0.825
-0.75
-0.74
-0.79
-0.875
-0.92
-0.955
-0.925
-0.87
-0.78
-0.775
-0.725
-0.765
-0.795
-0.865
-0.91
-0.97
-0.94
-0.89
-0.82
-0.805
-0.765
-0.765
-0.795
-0.895
-0.905
-0.995
-0.965
-0.935
-0.835
-0.78
-0.76
-0.765
-0.83
-0.87
-0.87
-0.95
-0.945
-0.865
-0.805
-0.83
-0.8
-0.805
-0.86
-0.925
-0.94
-1.005
-0.925
-0.835
-0.79
-0.75
-0.72
-0.745
-0.825
-0.875
-0.9
-0.92
-0.905
-0.855
-0.785
-0.805
-0.725
-0.695
-0.815
-0.91
-0.9
-0.97
-0.935
-0.885
-0.815
-0.795
-0.72
-0.75
-0.785
-0.89
-0.89
-0.92
-0.885
-0.805
-0.75
-0.72
-0.68
-0.71
-0.81
-0.895
-0.97
-1.015
-0.955
-0.86
-0.81
-0.755
-0.715
-0.73
-0.83
-0.88
-0.915
-0.925
-0.905
-0.83
-0.805
-0.745
-0.74
-0.74
-0.815
-0.825
-0.89
-0.895
-0.87
-0.8
-0.745
-0.715
-0.725
-0.73
-0.79
-0.835
-0.875
-0.815
-0.83
-0.785
-0.755
-0.68
-0.675
-0.685
-0.73
-0.74
-0.81
-0.795
-0.78
-0.705
-0.69
-0.665
-0.7
-0.725
-0.825
-0.85
-0.895
-0.885
-0.81
-0.765
-0.765
-0.68
-0.66
-0.695
-0.775
-0.755
-0.83
-0.825
-0.875
-0.78
-0.785
-0.755
-0.775
-0.775
-0.825
-0.81
-0.86
-0.865
-0.835
-0.785
-0.75
-0.695
-0.72
-0.74
-0.765
-0.8
-0.9
-0.89
-0.82
-0.72
-0.715
-0.61
-0.605
-0.64
-0.71
-0.675
-0.675
-0.62
-0.535
-0.465
-0.425
-0.415
-0.45
-0.515
-0.59
-0.645
-0.825
-0.915
-0.96
-0.99
-1.055
-0.995
-1.075
-1.21
-1.34
-1.325
-1.285
-1.2
-1.14
-1.035
-1.015
-0.915
-0.885
-0.935
-0.995
-0.99
-0.985
-0.905
-0.775
-0.69
-0.695
-0.68
-0.69
-0.73
-0.785
-0.765
-0.795
-0.805
-0.715
-0.65
-0.65
-0.64
-0.61
-0.61
-0.69
-0.76
-0.77
-0.765
-0.695
-0.59
-0.59
-0.565
-0.575
-0.635
-0.705
-0.745
-0.755
-0.745
-0.69
-0.595
-0.55
-0.53
-0.53
-0.595
-0.675
-0.755
-0.73
-0.71
-0.635
-0.605
-0.58
-0.595
-0.615
-0.665
-0.68
-0.755
-0.72
-0.69
-0.61
-0.555
-0.49
-0.495
-0.52
-0.615
-0.635
-0.695
-0.64
-0.61
-0.535
-0.505
-0.43
-0.45
-0.515
-0.585
-0.565
-0.6
-0.595
-0.585
-0.51
-0.51
-0.4
-0.39
-0.41
-0.465
-0.47
-0.575
-0.54
-0.51
-0.41
-0.36
-0.315
-0.365
-0.395
-0.425
-0.43
-0.505
-0.47
-0.42
-0.34
-0.305
-0.255
-0.265
-0.27
-0.335
-0.325
-0.42
-0.425
-0.36
-0.29
-0.255
-0.22
-0.2
-0.255
-0.32
-0.33
-0.395
-0.365
-0.33
-0.26
-0.2
-0.17
-0.22
-0.275
-0.35
-0.37
-0.41
-0.4
-0.34
-0.295
-0.31
-0.245
-0.28
-0.325
-0.42
-0.465
-0.515
-0.525
-0.485
-0.405
-0.405
-0.415
-0.48
-0.535
-0.6
-0.615
-0.64
-0.6
-0.465
-0.425
-0.46
-0.41
-0.465
-0.515
-0.585
-0.58
-0.66
-0.64
-0.59
-0.5
-0.515
-0.49
-0.495
-0.53
-0.595
-0.66
-0.665
-0.635
-0.605
-0.53
-0.515
-0.485
-0.48
-0.53
-0.6
-0.635
-0.65
-0.64
-0.585
-0.525
-0.505
-0.44
-0.47
-0.55
-0.62
-0.65
-0.66
-0.62
-0.565
-0.53
-0.5
-0.495
-0.51
-0.52
-0.585
-0.605
-0.6
-0.6
-0.56
-0.475
-0.48
-0.425
-0.425
-0.49
-0.55
-0.63
-0.635
-0.625
-0.535
-0.475
-0.47
-0.47
-0.48
-0.56
-0.59
-0.635
-0.61
-0.585
-0.505
-0.475
-0.435
-0.445
-0.44
-0.52
-0.565
-0.605
-0.6
-0.545
-0.455
-0.48
-0.405
-0.415
-0.48
-0.59
-0.57
-0.625
-0.61
-0.57
-0.475
-0.44
-0.365
-0.395
-0.45
-0.52
-0.5
-0.585
-0.585
-0.545
-0.47
-0.425
-0.325
-0.355
-0.405
-0.46
-0.52
-0.575
-0.635
-0.57
-0.485
-0.47
-0.395
-0.415
-0.41
-0.475
-0.505
-0.6
-0.59
-0.54
-0.45
-0.46
-0.43
-0.475
-0.5
-0.565
-0.58
-0.645
-0.625
-0.585
-0.485
-0.42
-0.385
-0.385
-0.395
-0.44
-0.485
-0.55
-0.55
-0.52
-0.44
-0.44
-0.37
-0.41
-0.47
-0.525
-0.51
-0.555
-0.555
-0.49
-0.44
-0.445
-0.39
-0.38
-0.45
-0.54
-0.55
-0.58
-0.56
-0.475
-0.395
-0.38
-0.345
-0.35
-0.39
-0.435
-0.485
-0.575
-0.525
-0.43
-0.39
-0.425
-0.39
-0.36
-0.425
-0.495
-0.53
-0.605
-0.565
-0.48
-0.425
-0.4
-0.375
-0.365
-0.44
-0.46
-0.48
-0.52
-0.505
-0.47
-0.41
-0.325
-0.325
-0.365
-0.425
-0.475
-0.51
-0.535
-0.475
-0.43
-0.37
-0.335
-0.34
-0.35
-0.41
-0.485
-0.565
-0.48
-0.48
-0.395
-0.345
-0.31
-0.315
-0.365
-0.44
-0.455
-0.545
-0.47
-0.42
-0.335
-0.32
-0.33
-0.32
-0.34
-0.405
-0.465
-0.515
-0.49
-0.48
-0.39
-0.35
-0.275
-0.31
-0.36
-0.46
-0.425
-0.475
-0.48
-0.465
-0.38
-0.34
-0.275
-0.315
-0.335
-0.405
-0.455
-0.51
-0.45
-0.4
-0.345
-0.34
-0.275
-0.275
-0.31
-0.405
-0.42
-0.475
-0.48
-0.425
-0.29
-0.28
-0.235
-0.265
-0.31
-0.36
-0.4
-0.495
-0.45
-0.405
-0.33
-0.355
-0.3
-0.32
-0.35
-0.405
-0.405
-0.46
-0.445
-0.385
-0.34
-0.35
-0.28
-0.255
-0.335
-0.41
-0.4
-0.465
-0.42
-0.38
-0.33
-0.3
-0.24
-0.28
-0.38
-0.415
-0.4
-0.455
-0.455
-0.42
-0.365
-0.35
-0.28
-0.29
-0.35
-0.395
-0.395
-0.45
-0.405
-0.37
-0.36
-0.315
-0.295
-0.3
-0.365
-0.405
-0.36
-0.395
-0.4
-0.34
-0.27
-0.24
-0.22
-0.26
-0.285
-0.375
-0.395
-0.425
-0.435
-0.395
-0.34
-0.33
-0.275
-0.295
-0.37
-0.405
-0.43
-0.435
-0.39
-0.33
-0.295
-0.24
-0.235
-0.27
-0.35
-0.45
-0.48
-0.485
-0.445
-0.345
-0.295
-0.25
-0.24
-0.255
-0.31
-0.355
-0.375
-0.365
-0.36
-0.285
-0.275
-0.25
-0.22
-0.24
-0.315
-0.34
-0.4
-0.37
-0.33
-0.27
-0.225
-0.155
-0.19
-0.255
-0.315
-0.34
-0.415
-0.375
-0.39
-0.27
-0.24
-0.17
-0.18
-0.23
-0.295
-0.315
-0.405
-0.415
-0.415
-0.325
-0.285
-0.21
-0.26
-0.33
-0.375
-0.405
-0.46
-0.435
-0.425
-0.355
-0.375
-0.305
-0.31
-0.28
-0.38
-0.355
-0.385
-0.34
-0.325
-0.27
-0.28
-0.26
-0.24
-0.305
-0.385
-0.32
-0.345
-0.325
-0.295
-0.175
-0.075
0.045
0.07
0.03
-0.055
-0.105
-0.21
-0.24
-0.225
-0.21
-0.315
-0.35
-0.405
-0.525
-0.605
-0.66
-0.75
-0.83
-0.875
-0.805
-0.78
-0.655
-0.625
-0.655
-0.675
-0.64
-0.605
-0.565
-0.45
-0.365
-0.31
-0.245
-0.255
-0.295
-0.37
-0.375
-0.37
-0.36
-0.31
-0.2
-0.225
-0.17
-0.205
-0.28
-0.26
-0.3
-0.335
-0.34
-0.285
-0.195
-0.23
-0.18
-0.215
-0.255
-0.31
-0.335
-0.37
-0.35
-0.265
-0.21
-0.2
-0.2
-0.185
-0.215
-0.255
-0.26
-0.27
-0.28
-0.23
-0.22
-0.205
-0.16
-0.1
-0.155
-0.245
-0.305
-0.315
-0.25
-0.2
-0.16
-0.125
-0.15
-0.14
-0.18
-0.21
-0.215
-0.215
-0.23
-0.19
-0.12
-0.05
-0.08
-0.1
-0.115
-0.175
-0.28
-0.255
-0.24
-0.13
-0.07
-0.01
-0.025
-0.03
-0.095
-0.15
-0.22
-0.195
-0.195
-0.105
-0.085
0.03
0.05
0.0
-0.035
-0.045
-0.12
-0.075
-0.02
0.03
0.02
0.11
0.12
0.07
0.0
0.0
-0.04
-0.01
0.05
0.115
0.16
0.215
0.175
0.15
0.11
0.095
0.035
0.05
0.06
0.105
0.13
0.19
0.15
0.13
0.06
0.045
-0.04
-0.02
0.01
0.1
0.1
0.195
0.16
0.09
-0.035
-0.035
-0.09
-0.04
-0.055
0.015
-0.02
-0.015
-0.04
-0.11
-0.195
-0.23
-0.235
-0.2
-0.13
-0.095
-0.065
-0.005
-0.04
-0.1
-0.18
-0.205
-0.305
-0.305
-0.235
-0.16
-0.13
-0.08
-0.14
-0.185
-0.26
-0.265
-0.325
-0.33
-0.25
-0.175
-0.15
-0.13
-0.155
-0.21
-0.3
-0.28
-0.285
-0.315
-0.225
-0.155
-0.145
-0.12
-0.155
-0.225
-0.245
-0.275
-0.285
-0.285
-0.225
-0.15
-0.175
-0.125
-0.095
-0.155
-0.21
-0.25
-0.265
-0.275
-0.2
-0.15
-0.105
-0.085
-0.13
-0.22
-0.27
-0.31
-0.3
-0.255
-0.165
-0.15
-0.105
-0.105
-0.095
-0.18
-0.265
-0.315
-0.25
-0.235
-0.185
-0.165
-0.14
-0.14
-0.14
-0.17
-0.195
-0.22
-0.23
-0.23
-0.145
-0.105
-0.04
-0.065
-0.095
-0.185
-0.22
-0.305
-0.28
-0.26
-0.175
-0.115
-0.04
-0.09
-0.14
-0.2
-0.25
-0.33
-0.285
-0.225
-0.185
-0.125
0.01
-0.06
-0.12
-0.18
-0.2
-0.27
-0.25
-0.235
-0.17
-0.145
-0.08
-0.07
-0.15
-0.28
-0.3
-0.315
-0.22
-0.16
-0.115
-0.08
-0.03
-0.075
-0.145
-0.215
-0.21
-0.28
-0.3
-0.27
-0.165
-0.145
-0.055
-0.11
-0.19
-0.24
-0.24
-0.265
-0.255
-0.225
-0.185
-0.19
-0.175
-0.165
-0.19
-0.285
-0.275
-0.305
-0.32
-0.215
-0.15
-0.125
-0.055
-0.06
-0.145
-0.2
-0.2
-0.28
-0.285
-0.195
-0.135
-0.15
-0.09
-0.09
-0.16
-0.255
-0.235
-0.305
-0.26
-0.205
-0.15
-0.14
-0.1
-0.125
-0.12
-0.18
-0.215
-0.255
-0.25
-0.175
-0.135
-0.105
-0.07
-0.11
-0.15
-0.17
-0.225
-0.285
-0.27
-0.205
-0.18
-0.19
-0.145
-0.11
-0.16
-0.205
-0.32
-0.325
-0.26
-0.2
-0.15
-0.115
-0.06
-0.06
-0.15
-0.21
-0.265
-0.28
-0.275
-0.205
-0.16
-0.08
-0.05
-0.065
-0.155
-0.19
-0.25
-0.245
-0.235
-0.14
-0.125
-0.085
-0.035
-0.075
-0.185
-0.215
-0.285
-0.245
-0.23
-0.175
-0.125
-0.005
-0.02
-0.05
-0.135
-0.135
-0.25
-0.31
-0.33
-0.225
-0.2
-0.15
-0.09
-0.07
-0.13
-0.185
-0.23
-0.205
-0.19
-0.135
-0.14
-0.075
-0.075
-0.115
-0.19
-0.225
-0.28
-0.24
-0.21
-0.13
-0.1
-0.01
-0.06
-0.115
-0.2
-0.205
-0.265
-0.28
-0.25
-0.15
-0.115
-0.04
-0.07
-0.125
-0.175
-0.12
-0.215
-0.255
-0.185
-0.095
-0.095
-0.08
-0.09
-0.135
-0.225
-0.215
-0.31
-0.26
-0.205
-0.115
-0.105
0.0
-0.02
-0.08
-0.17
-0.225
-0.275
-0.225
-0.19
-0.105
-0.06
0.025
0.0
-0.08
-0.185
-0.23
-0.29
-0.24
-0.165
-0.12
-0.115
-0.045
-0.045
-0.085
-0.11
-0.12
-0.14
-0.11
-0.075
-0.03
-0.015
0.035
0.015
-0.11
-0.2
-0.205
-0.195
-0.235
-0.185
-0.095
-0.055
0.0
-0.08
-0.155
-0.22
-0.23
-0.24
-0.22
-0.15
-0.125
-0.08
-0.065
-0.06
-0.13
-0.175
-0.215
-0.26
-0.225
-0.18
-0.115
-0.09
-0.09
-0.13
-0.2
-0.215
-0.285
-0.31
-0.295
-0.2
-0.17
-0.115
-0.08
-0.08
-0.135
-0.165
-0.18
-0.15
-0.12
-0.065
0.005
0.085
0.11
0.095
0.03
-0.015
-0.11
-0.145
-0.195
-0.2
-0.255
-0.26
-0.31
-0.345
-0.45
-0.53
-0.685
-0.725
-0.755
-0.7
-0.67
-0.56
-0.505
-0.5
-0.54
-0.515
-0.54
-0.46
-0.425
-0.325
-0.27
-0.17
-0.185
-0.205
-0.275
-0.305
-0.355
-0.33
-0.265
-0.18
-0.155
-0.075
-0.11
-0.145
-0.205
-0.24
-0.28
-0.235
-0.165
-0.085
-0.09
-0.02
-0.015
-0.04
-0.2
-0.22
-0.285
-0.295
-0.26
-0.155
-0.145
-0.095
-0.1
-0.15
-0.235
-0.235
-0.265
-0.255
-0.2
-0.13
-0.12
-0.025
-0.055
-0.115
-0.165
-0.17
-0.185
-0.23
-0.185
-0.105
-0.09
-0.055
-0.055
-0.095
-0.15
-0.16
-0.245
-0.23
-0.18
-0.115
-0.095
-0.01
-0.05
-0.08
-0.165
-0.16
-0.175
-0.155
-0.055
0.01
0.01
0.02
-0.02
-0.08
-0.135
-0.155
-0.145
-0.11
-0.055
0.025
0.0
0.06
0.085
0.025
-0.045
-0.06
-0.06
-0.06
0.025
0.06
0.105
0.14
0.155
0.11
0.04
-0.015
