# TIPE ECG 2021 - ECG-ID Database v1.0.0 par Physionet
# [Numéro de la personne, Période d'échantillonnage, Prénom, Age, Sexe, Date de l'enregistrement]
[51, 0.002, Howard, 31, H, 12.05.2005]
0.225
0.23
0.215
0.205
0.21
0.24
0.235
0.245
0.225
0.22
0.225
0.245
0.22
0.215
0.245
0.245
0.215
0.18
0.175
0.285
0.295
0.26
0.23
0.22
0.225
0.23
0.245
0.255
0.23
0.3
0.24
0.23
0.23
0.25
0.225
0.275
0.25
0.265
0.25
0.265
0.255
0.235
0.24
0.265
0.21
0.265
0.26
0.255
0.24
0.26
0.245
0.245
0.27
0.24
0.245
0.23
0.28
0.28
0.255
0.26
0.225
0.265
0.26
0.235
0.27
0.275
0.27
0.245
0.215
0.21
0.205
0.24
0.27
0.215
0.2
0.28
0.3
0.225
0.265
0.24
0.22
0.245
0.25
0.235
0.25
0.24
0.235
0.24
0.235
0.23
0.22
0.235
0.235
0.24
0.285
0.235
0.195
0.255
0.285
0.285
0.255
0.22
0.245
0.215
0.23
0.245
0.25
0.225
0.24
0.21
0.21
0.225
0.245
0.25
0.26
0.26
0.255
0.225
0.225
0.235
0.24
0.255
0.22
0.25
0.23
0.24
0.24
0.25
0.26
0.255
0.235
0.225
0.24
0.225
0.235
0.23
0.235
0.245
0.22
0.255
0.245
0.215
0.24
0.225
0.165
0.18
0.28
0.255
0.245
0.25
0.24
0.215
0.255
0.245
0.26
0.255
0.26
0.245
0.22
0.235
0.235
0.225
0.24
0.235
0.245
0.25
0.25
0.25
0.24
0.225
0.19
0.195
0.26
0.255
0.235
0.245
0.255
0.275
0.21
0.21
0.225
0.23
0.235
0.23
0.23
0.24
0.25
0.235
0.235
0.24
0.245
0.235
0.235
0.24
0.265
0.27
0.265
0.235
0.24
0.21
0.22
0.225
0.24
0.255
0.22
0.275
0.265
0.28
0.28
0.295
0.28
0.28
0.27
0.245
0.28
0.28
0.31
0.29
0.29
0.285
0.29
0.29
0.3
0.32
0.305
0.325
0.37
0.345
0.3
0.315
0.295
0.305
0.295
0.295
0.315
0.335
0.345
0.285
0.275
0.285
0.29
0.29
0.25
0.285
0.255
0.255
0.235
0.21
0.255
0.26
0.235
0.25
0.255
0.25
0.27
0.245
0.24
0.255
0.235
0.27
0.235
0.225
0.205
0.25
0.26
0.225
0.23
0.225
0.215
0.24
0.22
0.21
0.215
0.23
0.25
0.225
0.23
0.22
0.235
0.24
0.245
0.24
0.225
0.205
0.2
0.18
0.18
0.175
0.175
0.18
0.19
0.2
0.235
0.28
0.33
0.4
0.415
0.49
0.53
0.535
0.58
0.66
0.63
0.575
0.505
0.45
0.32
0.2
0.13
0.05
0.045
0.06
0.04
0.035
0.025
0.035
0.04
0.07
0.09
0.12
0.17
0.18
0.185
0.21
0.21
0.22
0.225
0.235
0.245
0.26
0.265
0.21
0.28
0.26
0.25
0.245
0.26
0.255
0.255
0.25
0.245
0.29
0.23
0.24
0.285
0.275
0.25
0.28
0.26
0.275
0.27
0.265
0.26
0.265
0.285
0.275
0.28
0.27
0.295
0.3
0.28
0.27
0.265
0.29
0.31
0.255
0.27
0.295
0.295
0.305
0.28
0.275
0.305
0.3
0.3
0.315
0.29
0.285
0.285
0.315
0.315
0.3
0.31
0.305
0.315
0.335
0.335
0.34
0.32
0.315
0.32
0.335
0.31
0.345
0.32
0.335
0.37
0.385
0.32
0.325
0.365
0.38
0.385
0.37
0.375
0.385
0.375
0.35
0.395
0.405
0.405
0.435
0.415
0.425
0.435
0.46
0.455
0.45
0.455
0.45
0.47
0.47
0.49
0.49
0.485
0.48
0.5
0.54
0.515
0.55
0.535
0.525
0.535
0.54
0.56
0.56
0.545
0.56
0.535
0.52
0.535
0.525
0.545
0.52
0.505
0.525
0.505
0.48
0.495
0.485
0.475
0.465
0.45
0.415
0.42
0.42
0.375
0.385
0.355
0.355
0.335
0.35
0.335
0.315
0.31
0.335
0.315
0.295
0.32
0.28
0.26
0.255
0.28
0.295
0.25
0.245
0.275
0.245
0.3
0.275
0.255
0.26
0.265
0.25
0.265
0.275
0.295
0.235
0.215
0.24
0.275
0.265
0.25
0.255
0.26
0.23
0.24
0.255
0.265
0.26
0.225
0.235
0.24
0.25
0.27
0.22
0.195
0.235
0.23
0.235
0.26
0.26
0.245
0.275
0.255
0.275
0.27
0.24
0.27
0.26
0.25
0.28
0.25
0.26
0.255
0.26
0.26
0.255
0.26
0.265
0.25
0.25
0.275
0.255
0.245
0.23
0.305
0.285
0.22
0.23
0.25
0.25
0.255
0.22
0.275
0.28
0.265
0.225
0.245
0.26
0.27
0.25
0.27
0.275
0.235
0.255
0.28
0.275
0.24
0.25
0.225
0.215
0.26
0.255
0.255
0.275
0.25
0.26
0.26
0.26
0.225
0.255
0.225
0.255
0.255
0.235
0.225
0.26
0.23
0.2
0.195
0.245
0.2
0.255
0.25
0.255
0.22
0.23
0.27
0.255
0.24
0.23
0.22
0.23
0.215
0.23
0.215
0.235
0.24
0.245
0.255
0.24
0.23
0.21
0.225
0.21
0.22
0.225
0.205
0.21
0.24
0.24
0.25
0.23
0.235
0.21
0.225
0.24
0.225
0.195
0.205
0.25
0.205
0.21
0.205
0.225
0.23
0.26
0.23
0.245
0.23
0.21
0.205
0.215
0.215
0.215
0.225
0.2
0.215
0.22
0.22
0.215
0.2
0.21
0.235
0.225
0.245
0.23
0.185
0.2
0.22
0.205
0.195
0.17
0.245
0.225
0.21
0.21
0.215
0.24
0.245
0.225
0.225
0.24
0.21
0.2
0.185
0.19
0.225
0.215
0.225
0.215
0.19
0.23
0.23
0.215
0.23
0.235
0.21
0.22
0.23
0.225
0.215
0.21
0.22
0.215
0.22
0.195
0.225
0.225
0.215
0.225
0.275
0.26
0.27
0.25
0.235
0.225
0.205
0.235
0.305
0.245
0.27
0.225
0.29
0.28
0.265
0.285
0.28
0.25
0.27
0.29
0.305
0.29
0.305
0.285
0.27
0.275
0.27
0.285
0.31
0.335
0.345
0.345
0.345
0.325
0.325
0.325
0.3
0.315
0.345
0.35
0.35
0.295
0.295
0.25
0.3
0.3
0.295
0.3
0.265
0.28
0.285
0.26
0.255
0.24
0.275
0.265
0.24
0.24
0.25
0.25
0.255
0.27
0.26
0.25
0.255
0.255
0.26
0.23
0.22
0.235
0.255
0.24
0.24
0.245
0.225
0.25
0.25
0.245
0.215
0.235
0.27
0.255
0.245
0.26
0.25
0.245
0.23
0.235
0.22
0.24
0.23
0.19
0.16
0.19
0.22
0.185
0.22
0.275
0.315
0.36
0.425
0.47
0.465
0.545
0.61
0.575
0.615
0.575
0.525
0.46
0.375
0.235
0.115
0.07
0.065
0.07
0.035
0.025
0.01
0.03
0.05
0.045
0.065
0.11
0.16
0.21
0.2
0.26
0.23
0.235
0.26
0.25
0.225
0.28
0.28
0.275
0.295
0.26
0.265
0.285
0.255
0.29
0.285
0.25
0.29
0.27
0.27
0.265
0.3
0.335
0.325
0.295
0.295
0.315
0.305
0.335
0.31
0.28
0.3
0.325
0.28
0.32
0.31
0.33
0.325
0.29
0.32
0.34
0.33
0.325
0.31
0.355
0.33
0.325
0.34
0.31
0.335
0.335
0.365
0.355
0.33
0.35
0.35
0.335
0.33
0.29
0.34
0.385
0.335
0.38
0.44
0.395
0.375
0.42
0.37
0.34
0.375
0.395
0.375
0.395
0.4
0.405
0.395
0.395
0.365
0.39
0.405
0.4
0.41
0.445
0.425
0.44
0.425
0.47
0.45
0.485
0.475
0.47
0.46
0.47
0.48
0.51
0.51
0.505
0.5
0.51
0.525
0.505
0.53
0.565
0.57
0.59
0.56
0.555
0.57
0.55
0.585
0.6
0.6
0.6
0.59
0.54
0.55
0.585
0.56
0.58
0.565
0.56
0.54
0.59
0.565
0.53
0.555
0.535
0.505
0.505
0.495
0.47
0.475
0.465
0.465
0.45
0.445
0.41
0.385
0.37
0.365
0.39
0.38
0.345
0.34
0.32
0.285
0.34
0.365
0.33
0.34
0.325
0.31
0.33
0.305
0.285
0.29
0.32
0.32
0.31
0.34
0.31
0.3
0.31
0.295
0.29
0.295
0.29
0.27
0.265
0.275
0.25
0.305
0.335
0.28
0.275
0.255
0.26
0.275
0.275
0.28
0.305
0.255
0.29
0.315
0.25
0.28
0.27
0.29
0.31
0.295
0.265
0.305
0.31
0.31
0.29
0.29
0.275
0.285
0.285
0.275
0.285
0.295
0.265
0.285
0.26
0.28
0.31
0.27
0.275
0.275
0.28
0.265
0.265
0.27
0.27
0.25
0.295
0.235
0.275
0.27
0.275
0.245
0.28
0.26
0.26
0.255
0.245
0.255
0.275
0.27
0.27
0.27
0.27
0.26
0.26
0.25
0.265
0.25
0.245
0.245
0.275
0.27
0.255
0.25
0.26
0.225
0.265
0.255
0.255
0.26
0.265
0.235
0.225
0.26
0.255
0.25
0.26
0.215
0.24
0.245
0.235
0.23
0.24
0.23
0.26
0.25
0.245
0.26
0.26
0.265
0.28
0.285
0.265
0.235
0.255
0.26
0.215
0.22
0.22
0.225
0.225
0.245
0.23
0.255
0.265
0.2
0.23
0.24
0.235
0.255
0.235
0.235
0.235
0.23
0.23
0.235
0.23
0.225
0.21
0.22
0.22
0.22
0.225
0.215
0.24
0.185
0.185
0.185
0.195
0.24
0.225
0.2
0.225
0.2
0.22
0.215
0.205
0.205
0.225
0.195
0.23
0.195
0.215
0.215
0.225
0.2
0.2
0.225
0.205
0.225
0.21
0.2
0.195
0.2
0.2
0.215
0.21
0.215
0.195
0.195
0.22
0.22
0.21
0.19
0.195
0.18
0.195
0.215
0.195
0.19
0.215
0.2
0.195
0.145
0.175
0.195
0.17
0.225
0.23
0.23
0.205
0.15
0.2
0.195
0.205
0.2
0.195
0.215
0.225
0.21
0.2
0.19
0.185
0.24
0.24
0.205
0.245
0.22
0.205
0.21
0.235
0.215
0.235
0.265
0.265
0.24
0.25
0.24
0.27
0.275
0.3
0.29
0.28
0.28
0.29
0.3
0.31
0.31
0.3
0.275
0.295
0.31
0.33
0.335
0.335
0.315
0.33
0.335
0.34
0.32
0.32
0.33
0.345
0.33
0.295
0.29
0.305
0.305
0.275
0.25
0.29
0.295
0.275
0.275
0.25
0.25
0.26
0.275
0.265
0.26
0.28
0.26
0.255
0.275
0.28
0.225
0.23
0.26
0.25
0.25
0.235
0.26
0.245
0.245
0.26
0.215
0.285
0.28
0.25
0.265
0.26
0.26
0.27
0.255
0.23
0.25
0.26
0.26
0.25
0.235
0.245
0.215
0.24
0.2
0.165
0.17
0.18
0.255
0.265
0.3
0.345
0.375
0.44
0.455
0.52
0.545
0.595
0.73
0.68
0.62
0.55
0.515
0.39
0.285
0.185
0.115
0.09
0.065
0.085
0.08
0.03
0.06
0.06
0.07
0.115
0.15
0.15
0.185
0.215
0.245
0.235
0.24
0.24
0.25
0.26
0.27
0.26
0.27
0.285
0.295
0.24
0.24
0.255
0.27
0.28
0.27
0.265
0.34
0.33
0.275
0.27
0.275
0.285
0.28
0.285
0.285
0.3
0.29
0.31
0.33
0.31
0.325
0.305
0.28
0.295
0.295
0.3
0.31
0.29
0.295
0.33
0.325
0.29
0.295
0.29
0.32
0.33
0.365
0.325
0.315
0.325
0.325
0.315
0.31
0.285
0.31
0.345
0.31
0.345
0.35
0.345
0.36
0.34
0.34
0.355
0.335
0.33
0.355
0.355
0.35
0.355
0.375
0.345
0.37
0.375
0.36
0.335
0.36
0.365
0.405
0.39
0.4
0.41
0.405
0.4
0.42
0.415
0.42
0.43
0.425
0.415
0.45
0.465
0.48
0.49
0.495
0.485
0.495
0.47
0.495
0.5
0.535
0.475
0.505
0.51
0.525
0.565
0.535
0.535
0.575
0.525
0.595
0.6
0.56
0.535
0.545
0.555
0.555
0.505
0.52
0.555
0.555
0.54
0.465
0.5
0.495
0.505
0.49
0.465
0.455
0.455
0.44
0.425
0.38
0.405
0.405
0.37
0.35
0.375
0.36
0.34
0.33
0.325
0.32
0.305
0.305
0.315
0.325
0.295
0.28
0.3
0.315
0.285
0.285
0.28
0.255
0.28
0.29
0.28
0.27
0.28
0.255
0.295
0.24
0.235
0.26
0.255
0.255
0.305
0.31
0.265
0.295
0.295
0.245
0.255
0.27
0.275
0.275
0.27
0.275
0.265
0.255
0.245
0.25
0.265
0.285
0.285
0.275
0.28
0.265
0.25
0.29
0.275
0.3
0.305
0.265
0.285
0.26
0.28
0.29
0.27
0.265
0.295
0.275
0.265
0.3
0.3
0.31
0.3
0.295
0.315
0.3
0.265
0.285
0.275
0.29
0.29
0.285
0.28
0.275
0.285
0.27
0.27
0.29
0.28
0.275
0.295
0.29
0.275
0.285
0.285
0.25
0.315
0.275
0.28
0.305
0.3
0.265
0.245
0.29
0.275
0.29
0.255
0.275
0.265
0.31
0.27
0.265
0.29
0.265
0.28
0.27
0.29
0.255
0.26
0.305
0.285
0.265
0.245
0.285
0.26
0.28
0.29
0.275
0.3
0.285
0.26
0.26
0.29
0.3
0.31
0.295
0.26
0.295
0.28
0.245
0.295
0.265
0.275
0.275
0.26
0.245
0.245
0.27
0.27
0.265
0.265
0.275
0.295
0.295
0.28
0.265
0.275
0.265
0.285
0.26
0.305
0.285
0.27
0.28
0.275
0.285
0.24
0.275
0.255
0.255
0.24
0.24
0.31
0.305
0.255
0.265
0.28
0.28
0.275
0.25
0.285
0.28
0.225
0.265
0.28
0.275
0.22
0.28
0.27
0.26
0.24
0.305
0.27
0.27
0.295
0.29
0.28
0.27
0.265
0.245
0.26
0.25
0.255
0.25
0.27
0.275
0.295
0.28
0.275
0.255
0.26
0.285
0.26
0.275
0.275
0.235
0.285
0.285
0.275
0.27
0.27
0.24
0.275
0.26
0.265
0.29
0.275
0.245
0.25
0.245
0.285
0.275
0.255
0.255
0.265
0.275
0.255
0.3
0.28
0.25
0.275
0.295
0.29
0.295
0.27
0.275
0.295
0.305
0.315
0.295
0.265
0.3
0.305
0.305
0.31
0.32
0.31
0.325
0.3
0.33
0.31
0.335
0.37
0.285
0.34
0.38
0.355
0.36
0.35
0.345
0.35
0.35
0.345
0.36
0.35
0.36
0.345
0.31
0.32
0.315
0.335
0.305
0.28
0.255
0.285
0.27
0.275
0.265
0.275
0.27
0.275
0.28
0.245
0.265
0.275
0.255
0.285
0.26
0.27
0.28
0.27
0.285
0.27
0.255
0.235
0.255
0.28
0.26
0.26
0.245
0.265
0.265
0.32
0.285
0.26
0.275
0.255
0.245
0.26
0.25
0.235
0.24
0.245
0.205
0.23
0.21
0.2
0.205
0.225
0.23
0.23
0.28
0.295
0.365
0.425
0.425
0.475
0.54
0.56
0.6
0.675
0.67
0.6
0.53
0.525
0.385
0.245
0.155
0.105
0.07
0.03
0.09
0.06
0.045
0.06
0.055
0.05
0.08
0.16
0.19
0.21
0.265
0.23
0.215
0.225
0.225
0.26
0.28
0.27
0.26
0.245
0.255
0.285
0.27
0.265
0.27
0.28
0.265
0.29
0.295
0.27
0.275
0.28
0.295
0.295
0.305
0.315
0.29
0.265
0.33
0.35
0.32
0.285
0.3
0.28
0.295
0.3
0.32
0.345
0.305
0.29
0.295
0.315
0.32
0.3
0.305
0.305
0.32
0.36
0.33
0.32
0.32
0.31
0.335
0.33
0.33
0.335
0.335
0.325
0.335
0.335
0.335
0.33
0.38
0.355
0.37
0.36
0.34
0.335
0.33
0.285
0.36
0.375
0.4
0.385
0.38
0.36
0.36
0.38
0.4
0.41
0.395
0.395
0.42
0.43
0.41
0.425
0.42
0.425
0.44
0.44
0.45
0.435
0.44
0.45
0.5
0.48
0.475
0.5
0.51
0.535
0.52
0.505
0.585
0.55
0.525
0.545
0.54
0.555
0.56
0.555
0.56
0.57
0.555
0.585
0.58
0.535
0.555
0.57
0.575
0.58
0.58
0.575
0.57
0.545
0.555
0.535
0.525
0.52
0.5
0.475
0.465
0.455
0.445
0.46
0.405
0.395
0.4
0.325
0.405
0.43
0.36
0.385
0.365
0.355
0.335
0.32
0.315
0.32
0.335
0.325
0.32
0.31
0.3
0.3
0.295
0.29
0.305
0.3
0.285
0.275
0.275
0.29
0.295
0.29
0.275
0.28
0.28
0.305
0.29
0.275
0.295
0.275
0.285
0.305
0.285
0.29
0.285
0.29
0.31
0.255
0.255
0.28
0.275
0.285
0.285
0.28
0.205
0.25
0.31
0.315
0.305
0.295
0.29
0.295
0.305
0.295
0.29
0.295
0.315
0.3
0.285
0.285
0.305
0.31
0.295
0.295
0.3
0.325
0.32
0.3
0.295
0.285
0.285
0.29
0.295
0.29
0.245
0.29
0.345
0.315
0.31
0.32
0.3
0.295
0.3
0.315
0.315
0.305
0.31
0.3
0.3
0.315
0.29
0.295
0.31
0.305
0.28
0.3
0.31
0.3
0.3
0.295
0.28
0.285
0.285
0.26
0.28
0.3
0.29
0.335
0.295
0.285
0.28
0.28
0.305
0.315
0.32
0.3
0.295
0.27
0.285
0.31
0.275
0.265
0.305
0.305
0.3
0.295
0.29
0.25
0.295
0.305
0.275
0.3
0.315
0.29
0.31
0.32
0.295
0.295
0.295
0.3
0.335
0.28
0.29
0.295
0.3
0.285
0.28
0.29
0.295
0.31
0.265
0.265
0.33
0.31
0.26
0.325
0.305
0.28
0.255
0.305
0.305
0.285
0.3
0.31
0.31
0.305
0.285
0.305
0.295
0.295
0.31
0.315
0.315
0.295
0.29
0.295
0.305
0.295
0.275
0.265
0.265
0.33
0.275
0.305
0.315
0.32
0.3
0.315
0.315
0.295
0.29
0.315
0.34
0.325
0.305
0.31
0.305
0.275
0.305
0.31
0.285
0.29
0.295
0.31
0.31
0.315
0.305
0.295
0.33
0.33
0.29
0.305
0.255
0.275
0.35
0.31
0.335
0.285
0.305
0.3
0.295
0.3
0.31
0.32
0.32
0.32
0.305
0.31
0.325
0.315
0.305
0.3
0.31
0.31
0.305
0.3
0.275
0.295
0.305
0.295
0.335
0.33
0.31
0.335
0.265
0.34
0.4
0.365
0.375
0.365
0.345
0.38
0.35
0.365
0.37
0.405
0.405
0.36
0.35
0.38
0.395
0.38
0.4
0.33
0.355
0.365
0.38
0.41
0.38
0.36
0.41
0.395
0.36
0.355
0.355
0.36
0.33
0.32
0.325
0.32
0.325
0.325
0.305
0.305
0.325
0.3
0.3
0.28
0.23
0.31
0.375
0.375
0.29
0.305
0.305
0.31
0.32
0.31
0.305
0.31
0.32
0.295
0.305
0.32
0.315
0.315
0.3
0.31
0.325
0.285
0.3
0.295
0.32
0.325
0.32
0.285
0.335
0.345
0.24
0.25
0.255
0.245
0.24
0.2
0.24
0.285
0.315
0.34
0.38
0.425
0.46
0.515
0.555
0.58
0.62
0.69
0.68
0.645
0.57
0.51
0.435
0.33
0.115
0.105
0.12
0.105
0.12
0.16
0.2
0.19
0.245
0.255
0.33
0.315
0.285
0.28
0.315
0.325
0.305
0.3
0.32
0.335
0.295
0.305
0.305
0.32
0.365
0.34
0.325
0.33
0.33
0.34
0.32
0.335
0.345
0.355
0.36
0.37
0.36
0.31
0.34
0.36
0.36
0.355
0.355
0.335
0.345
0.34
0.36
0.36
0.355
0.405
0.41
0.375
0.415
0.335
0.41
0.385
0.37
0.355
0.35
0.375
0.39
0.38
0.385
0.395
0.38
0.395
0.4
0.4
0.385
0.41
0.4
0.345
0.37
0.455
0.375
0.44
0.445
0.44
0.445
0.415
0.43
0.46
0.425
0.435
0.425
0.43
0.46
0.435
0.44
0.445
0.46
0.455
0.455
0.46
0.46
0.515
0.495
0.485
0.505
0.46
0.515
0.555
0.515
0.54
0.54
0.54
0.535
0.57
0.57
0.575
0.585
0.595
0.58
0.595
0.59
0.62
0.625
0.635
0.625
0.64
0.62
0.62
0.6
0.635
0.605
0.61
0.62
0.625
0.64
0.645
0.62
0.615
0.585
0.59
0.615
0.58
0.545
0.53
0.52
0.52
0.52
0.5
0.47
0.455
0.49
0.47
0.45
0.45
0.43
0.425
0.42
0.41
0.41
0.395
0.39
0.37
0.34
0.335
0.355
0.355
0.37
0.38
0.365
0.325
0.365
0.34
0.325
0.31
0.38
0.32
0.35
0.38
0.345
0.315
0.33
0.355
0.325
0.315
0.31
0.315
0.325
0.32
0.345
0.335
0.335
0.335
0.32
0.345
0.34
0.34
0.35
0.295
0.32
0.305
0.32
0.36
0.37
0.375
0.36
0.325
0.325
0.31
0.345
0.355
0.375
0.35
0.345
0.33
0.355
0.34
0.345
0.34
0.315
0.33
0.355
0.355
0.36
0.355
0.35
0.335
0.37
0.345
0.375
0.38
0.31
0.355
0.36
0.34
0.35
0.325
0.37
0.355
0.335
0.355
0.345
0.345
0.355
0.35
0.375
0.35
0.36
0.335
0.315
0.33
0.34
0.355
0.36
0.335
0.32
0.355
0.32
0.33
0.345
0.345
0.34
0.32
0.33
0.305
0.315
0.35
0.34
0.315
0.33
0.33
0.345
0.335
0.32
0.34
0.33
0.325
0.335
0.315
0.33
0.33
0.29
0.315
0.33
0.335
0.325
0.305
0.33
0.32
0.31
0.32
0.33
0.315
0.31
0.335
0.34
0.325
0.33
0.33
0.32
0.325
0.32
0.33
0.32
0.33
0.3
0.31
0.315
0.33
0.34
0.33
0.34
0.335
0.315
0.295
0.325
0.355
0.31
0.29
0.32
0.35
0.335
0.315
0.31
0.325
0.335
0.325
0.315
0.285
0.335
0.345
0.355
0.325
0.31
0.325
0.315
0.3
0.33
0.335
0.325
0.335
0.34
0.315
0.34
0.33
0.285
0.295
0.305
0.3
0.315
0.33
0.32
0.33
0.325
0.31
0.345
0.33
0.31
0.335
0.33
0.325
0.33
0.325
0.335
0.31
0.33
0.32
0.33
0.3
0.325
0.37
0.35
0.335
0.35
0.34
0.325
0.295
0.315
0.355
0.345
0.315
0.345
0.35
0.3
0.315
0.31
0.31
0.305
0.36
0.33
0.315
0.325
0.365
0.315
0.32
0.34
0.335
0.325
0.35
0.355
0.375
0.37
0.37
0.355
0.37
0.4
0.39
0.37
0.38
0.36
0.4
0.395
0.37
0.36
0.395
0.385
0.415
0.43
0.4
0.415
0.405
0.41
0.4
0.405
0.415
0.445
0.395
0.375
0.35
0.35
0.335
0.365
0.36
0.32
0.335
0.305
0.365
0.365
0.33
0.335
0.35
0.325
0.315
0.34
0.33
0.325
0.32
0.32
0.31
0.325
0.325
0.32
0.32
0.295
0.32
0.325
0.33
0.33
0.31
0.345
0.335
0.33
0.27
0.3
0.34
0.325
0.285
0.29
0.275
0.295
0.315
0.34
0.32
0.285
0.285
0.3
0.29
0.285
0.27
0.27
0.27
0.285
0.315
0.36
0.4
0.47
0.52
0.555
0.565
0.605
0.67
0.775
0.76
0.665
0.585
0.515
0.37
0.265
0.2
0.145
0.145
0.14
0.115
0.09
0.085
0.11
0.11
0.155
0.21
0.215
0.225
0.235
0.25
0.275
0.295
0.295
0.265
0.285
0.345
0.33
0.34
0.335
0.29
0.345
0.32
0.32
0.355
0.35
0.355
0.345
0.36
0.35
0.34
0.325
0.335
0.35
0.35
0.34
0.36
0.34
0.335
0.365
0.325
0.33
0.36
0.4
0.41
0.355
0.39
0.37
0.365
0.385
0.35
0.36
0.36
0.375
0.37
0.36
0.36
0.37
0.36
0.365
0.365
0.36
0.375
0.405
0.415
0.405
0.35
0.395
0.37
0.34
0.4
0.4
0.37
0.41
0.42
0.42
0.42
0.425
0.425
0.425
0.415
0.395
0.41
0.435
0.43
0.45
0.445
0.44
0.42
0.425
0.44
0.445
0.44
0.465
0.485
0.455
0.515
0.495
0.495
0.485
0.48
0.49
0.485
0.56
0.545
0.505
0.495
0.565
0.55
0.58
0.58
0.59
0.58
0.595
0.6
0.62
0.59
0.595
0.605
0.61
0.62
0.595
0.575
0.615
0.64
0.64
0.635
0.62
0.61
0.62
0.625
0.615
0.565
0.625
0.61
0.595
0.58
0.54
0.56
0.57
0.495
0.505
0.515
0.5
0.475
0.505
0.46
0.445
0.435
0.44
0.415
0.395
0.41
0.39
0.375
0.4
0.41
0.395
0.385
0.345
0.37
0.35
0.32
0.3
0.37
0.37
0.345
0.34
0.355
0.35
0.36
0.33
0.32
0.335
0.33
0.345
0.365
0.335
0.315
0.325
0.315
0.3
0.31
0.32
0.335
0.345
0.35
0.355
0.305
0.315
0.335
0.325
0.325
0.365
0.365
0.36
0.315
0.315
0.36
0.335
0.35
0.36
0.335
0.34
0.335
0.32
0.315
0.365
0.35
0.3
0.32
0.36
0.375
0.34
0.365
0.34
0.37
0.33
0.36
0.375
0.355
0.37
0.36
0.345
0.35
0.345
0.36
0.35
0.345
0.335
0.35
0.345
0.335
0.32
0.33
0.365
0.36
0.355
0.35
0.31
0.36
0.345
0.355
0.35
0.345
0.345
0.35
0.32
0.38
0.365
0.35
0.29
0.34
0.365
0.335
0.345
0.345
0.33
0.325
0.35
0.345
0.325
0.32
0.29
0.335
0.38
0.385
0.355
0.335
0.33
0.345
0.335
0.335
0.345
0.365
0.33
0.33
0.335
0.345
0.33
0.325
0.32
0.34
0.325
0.36
0.335
0.365
0.33
0.32
0.3
0.315
0.34
0.335
0.33
0.325
0.34
0.33
0.325
0.33
0.35
0.355
0.34
0.325
0.325
0.325
0.315
0.335
0.345
0.38
0.34
0.285
0.285
0.3
0.36
0.35
0.365
0.35
0.35
0.33
0.315
0.29
0.335
0.36
0.33
0.325
0.33
0.355
0.385
0.34
0.295
0.31
0.31
0.31
0.335
0.295
0.32
0.34
0.345
0.32
0.34
0.35
0.31
0.355
0.325
0.33
0.345
0.28
0.315
0.315
0.32
0.33
0.315
0.335
0.335
0.35
0.305
0.32
0.335
0.35
0.325
0.285
0.33
0.355
0.36
0.34
0.32
0.35
0.335
0.325
0.345
0.32
0.335
0.34
0.32
0.32
0.37
0.37
0.31
0.33
0.345
0.295
0.245
0.325
0.35
0.325
0.305
0.305
0.315
0.385
0.31
0.345
0.34
0.355
0.33
0.34
0.34
0.315
0.335
0.325
0.32
0.315
0.345
0.355
0.365
0.365
0.365
0.38
0.365
0.36
0.355
0.38
0.345
0.37
0.38
0.395
0.37
0.38
0.37
0.38
0.37
0.415
0.405
0.375
0.41
0.405
0.395
0.395
0.395
0.36
0.39
0.415
0.425
0.42
0.42
0.4
0.375
0.36
0.35
0.345
0.345
0.35
0.34
0.335
0.325
0.33
0.315
0.35
0.34
0.34
0.33
0.33
0.33
0.34
0.32
0.34
0.315
0.305
0.33
0.325
0.31
0.335
0.325
0.325
0.285
0.3
0.29
0.335
0.315
0.32
0.33
0.325
0.29
0.34
0.335
0.33
0.285
0.31
0.335
0.29
0.315
0.3
0.275
0.265
0.275
0.275
0.245
0.245
0.275
0.295
0.37
0.385
0.43
0.485
0.535
0.56
0.6
0.615
0.685
0.695
0.68
0.585
0.545
0.445
0.325
0.23
0.17
0.105
0.14
0.115
0.13
0.085
0.07
0.125
0.125
0.165
0.205
0.235
0.235
0.26
0.31
0.28
0.295
0.29
0.295
0.31
0.3
0.31
0.325
0.34
0.32
0.315
0.33
0.335
0.34
0.345
0.325
0.365
0.39
0.35
0.335
0.345
0.36
0.365
0.34
0.35
0.385
0.36
0.375
0.365
0.355
0.37
0.39
0.375
0.385
0.37
0.375
0.375
0.38
0.345
0.35
0.36
0.37
0.38
0.38
0.355
0.345
0.385
0.395
0.385
0.385
0.405
0.4
0.37
0.4
0.405
0.395
0.41
0.36
0.4
0.415
0.41
0.41
0.38
0.405
0.385
0.445
0.435
0.42
0.41
0.385
0.435
0.42
0.435
0.45
0.44
0.43
0.445
0.435
0.46
0.475
0.475
0.465
0.485
0.48
0.48
0.48
0.465
0.485
0.5
0.525
0.53
0.525
0.565
0.555
0.54
0.55
0.595
0.59
0.535
0.56
0.555
0.565
0.605
0.605
0.605
0.605
0.595
0.615
0.65
0.605
0.62
0.64
0.645
0.65
0.635
0.615
0.585
0.645
0.645
0.645
0.61
0.615
0.645
0.635
0.59
0.58
0.55
0.565
0.575
0.605
0.55
0.475
0.485
0.47
0.49
0.48
0.45
0.415
0.445
0.415
0.425
0.42
0.41
0.415
0.4
0.37
0.37
0.395
0.385
0.365
0.37
0.35
0.38
0.35
0.375
0.365
0.34
0.335
0.375
0.36
0.335
0.385
0.34
0.35
0.34
0.345
0.375
0.365
0.33
0.335
0.355
0.36
0.35
0.355
0.395
0.35
0.32
0.37
0.33
0.345
0.35
0.375
0.375
0.39
0.355
0.355
0.355
0.335
0.33
0.36
0.365
0.36
0.35
0.35
0.39
0.36
0.35
0.39
0.355
0.34
0.375
0.38
0.365
0.37
0.34
0.385
0.4
0.39
0.37
0.395
0.385
0.385
0.36
0.395
0.38
0.35
0.4
0.385
0.37
0.39
0.355
0.37
0.375
0.37
0.38
0.38
0.355
0.365
0.37
0.375
0.39
0.365
0.38
0.36
0.39
0.38
0.39
0.39
0.345
0.355
0.4
0.37
0.325
0.355
0.395
0.375
0.35
0.36
0.365
0.385
0.37
0.355
0.37
0.375
0.385
0.34
0.38
0.36
0.345
0.365
0.355
0.37
0.365
0.36
0.38
0.375
0.37
0.355
0.355
0.385
0.39
0.36
0.37
0.375
0.39
0.34
0.35
0.35
0.375
0.375
0.35
0.34
0.37
0.375
0.335
0.385
0.365
0.345
0.36
0.385
0.36
0.37
0.37
0.37
0.35
0.36
0.365
0.37
0.345
0.365
0.385
0.385
0.385
0.37
0.335
0.315
0.315
0.37
0.39
0.37
0.35
0.365
0.365
0.365
0.36
0.365
0.365
0.365
0.35
0.345
0.37
0.39
0.395
0.38
0.345
0.355
0.355
0.35
0.355
0.365
0.345
0.36
0.39
0.355
0.365
0.38
0.365
0.385
0.36
0.365
0.345
0.39
0.38
0.345
0.325
0.355
0.365
0.36
0.375
0.365
0.315
0.365
0.365
0.355
0.37
0.33
0.36
0.38
0.38
0.365
0.365
0.39
0.365
0.35
0.345
0.345
0.355
0.345
0.365
0.37
0.375
0.38
0.36
0.365
0.345
0.335
0.365
0.36
0.37
0.39
0.4
0.37
0.365
0.37
0.345
0.33
0.38
0.38
0.395
0.4
0.385
0.415
0.405
0.37
0.41
0.375
0.385
0.415
0.41
0.42
0.46
0.44
0.42
0.395
0.435
0.42
0.4
0.42
0.43
0.44
0.44
0.43
0.465
0.435
0.45
0.44
0.455
0.425
0.415
0.44
0.435
0.43
0.425
0.375
0.395
0.385
0.39
0.425
0.415
0.365
0.335
0.395
0.37
0.345
0.38
0.36
0.365
0.385
0.395
0.38
0.35
0.335
0.34
0.375
0.35
0.375
0.36
0.37
0.355
0.355
0.37
0.365
0.345
0.355
0.37
0.38
0.365
0.34
0.365
0.35
0.345
0.365
0.355
0.35
0.35
0.345
0.36
0.355
0.36
0.32
0.305
0.305
0.275
0.285
0.285
0.295
0.335
0.41
0.435
0.495
0.54
0.575
0.61
0.63
0.69
0.76
0.785
0.725
0.645
0.605
0.485
0.355
0.255
0.165
0.175
0.19
0.15
0.175
0.145
0.155
0.175
0.19
0.19
0.2
0.26
0.29
0.3
0.315
0.36
0.345
0.34
0.335
0.35
0.365
0.395
0.355
0.38
0.38
0.365
0.365
0.345
0.38
0.375
0.385
0.345
0.34
0.365
0.38
0.395
0.365
0.4
0.39
0.39
0.36
0.45
0.37
0.38
0.405
0.405
0.41
0.405
0.37
0.435
0.38
0.41
0.425
0.43
0.43
0.445
0.425
0.405
0.395
0.4
0.425
0.41
0.375
0.385
0.405
0.4
0.4
0.42
0.43
0.43
0.455
0.46
0.455
0.435
0.435
0.47
0.48
0.47
0.445
0.435
0.46
0.435
0.45
0.445
0.465
0.45
0.465
0.46
0.465
0.47
0.495
0.485
0.47
0.48
0.5
0.495
0.51
0.52
0.515
0.51
0.46
0.505
0.505
0.54
0.555
0.585
0.605
0.57
0.54
0.58
0.6
0.59
0.58
0.585
0.63
0.62
0.63
0.66
0.69
0.645
0.61
0.59
0.675
0.65
0.69
0.675
0.675
0.69
0.675
0.645
0.65
0.655
0.65
0.645
0.65
0.685
0.65
0.625
0.625
0.62
0.605
0.61
0.6
0.56
0.565
0.57
0.555
0.525
0.5
0.51
0.52
0.5
0.455
0.435
0.475
0.445
0.46
0.45
0.425
0.395
0.42
0.415
0.405
0.38
0.39
0.415
0.445
0.415
0.385
0.405
0.355
0.375
0.34
0.36
0.38
0.38
0.37
0.365
0.375
0.37
0.36
0.36
0.355
0.35
0.38
0.36
0.355
0.35
0.35
0.36
0.37
0.34
0.35
0.375
0.38
0.365
0.365
0.355
0.355
0.39
0.36
0.375
0.355
0.36
0.395
0.395
0.345
0.39
0.385
0.38
0.35
0.38
0.39
0.36
0.38
0.385
0.36
0.37
0.38
0.39
0.4
0.375
0.4
0.365
0.38
0.39
0.375
0.365
0.38
0.395
0.375
0.375
0.385
0.37
0.355
0.385
0.38
0.385
0.36
0.415
0.37
0.38
0.36
0.365
0.415
0.415
0.4
0.38
0.375
0.375
0.39
0.38
0.355
0.39
0.39
0.4
0.345
0.355
0.38
0.39
0.375
0.375
0.4
0.4
0.375
0.375
0.375
0.375
0.345
0.37
0.39
0.375
0.36
0.35
0.375
0.4
0.375
0.385
0.395
0.37
0.375
0.375
0.37
0.425
0.37
0.325
0.37
0.4
0.375
0.325
0.35
0.38
0.385
0.36
0.37
0.365
0.375
0.37
0.365
0.345
0.36
0.345
0.35
0.35
0.395
0.405
0.36
0.37
0.385
0.345
0.36
0.385
0.365
0.34
0.385
0.38
0.39
0.385
0.365
0.385
0.35
0.33
0.365
0.385
0.375
0.375
0.375
0.36
0.365
0.37
0.35
0.36
0.375
0.365
0.33
0.385
0.38
0.375
0.4
0.365
0.35
0.355
0.37
0.345
0.36
0.405
0.405
0.39
0.38
0.345
0.36
0.36
0.365
0.365
0.365
0.375
0.38
0.355
0.36
0.385
0.365
0.385
0.39
0.39
0.385
0.37
0.345
0.37
0.355
0.345
0.355
0.345
0.37
0.355
0.36
0.36
0.36
0.365
0.385
0.37
0.375
0.365
0.33
0.395
0.37
0.355
0.355
0.375
0.385
0.375
0.36
0.365
0.365
0.36
0.37
0.38
0.355
0.365
0.355
0.37
0.36
0.355
0.335
0.36
0.375
0.365
0.355
0.375
0.42
0.38
0.345
0.36
0.35
0.38
0.385
0.385
0.375
0.36
0.365
0.4
0.365
0.43
0.39
0.4
0.405
0.435
0.4
0.41
0.405
0.41
0.395
0.42
0.41
0.43
0.425
0.415
0.425
0.455
0.47
0.455
0.42
0.39
0.44
0.46
0.46
0.445
0.43
0.43
0.43
0.415
0.425
0.425
0.38
0.4
0.375
0.37
0.39
0.35
0.37
0.39
0.365
0.335
0.39
0.38
0.4
0.375
0.37
0.375
0.385
0.37
0.35
0.365
0.36
0.35
0.38
0.345
0.36
0.385
0.355
0.35
0.325
0.38
0.35
0.34
0.4
0.38
0.34
0.35
0.36
0.34
0.35
0.33
0.355
0.36
0.365
0.355
0.325
0.33
0.34
0.285
0.275
0.305
0.305
0.325
0.34
0.35
0.385
0.44
0.495
0.52
0.58
0.63
0.63
0.67
0.775
0.755
0.685
0.61
0.57
0.415
0.315
0.23
0.185
0.165
0.18
0.19
0.16
0.145
0.125
0.155
0.175
0.205
0.255
0.285
0.275
0.325
0.35
0.31
0.34
0.37
0.345
0.37
0.36
0.355
0.38
0.345
0.39
0.37
0.375
0.395
0.39
0.38
0.355
0.41
0.39
0.415
0.4
0.385
0.44
0.415
0.375
0.345
0.385
0.39
0.415
0.435
0.43
0.435
0.43
0.41
0.36
0.42
0.41
0.38
0.425
0.41
0.41
0.425
0.415
0.43
0.415
0.425
0.445
0.435
0.44
0.43
0.455
0.435
0.415
0.425
0.445
0.41
0.435
0.425
0.45
0.43
0.425
0.43
0.445
0.47
0.47
0.48
0.48
0.475
0.46
0.46
0.465
0.445
0.465
0.495
0.48
0.485
0.48
0.475
0.49
0.495
0.475
0.485
0.51
0.525
0.515
0.525
0.56
0.57
0.565
0.595
0.56
0.58
0.55
0.53
0.595
0.585
0.57
0.595
0.585
0.64
0.66
0.66
0.64
0.64
0.65
0.675
0.665
0.66
0.67
0.68
0.675
0.685
0.7
0.705
0.69
0.705
0.67
0.645
0.695
0.675
0.64
0.65
0.665
0.655
0.655
0.66
0.65
0.62
0.61
0.605
0.56
0.58
0.565
0.56
0.56
0.51
0.49
0.495
0.48
0.445
0.485
0.475
0.485
0.455
0.45
0.47
0.46
0.44
0.42
0.41
0.43
0.415
0.395
0.42
0.435
0.375
0.38
0.375
0.375
0.405
0.385
0.39
0.385
0.41
0.41
0.415
0.4
0.39
0.375
0.38
0.41
0.425
0.375
0.405
0.37
0.345
0.415
0.39
0.345
0.35
0.355
0.38
0.37
0.4
0.375
0.415
0.4
0.38
0.395
0.415
0.365
0.4
0.43
0.42
0.415
0.4
0.385
0.4
0.4
0.385
0.39
0.405
0.405
0.385
0.39
0.385
0.42
0.425
0.405
0.39
0.35
0.375
0.405
0.385
0.38
0.405
0.405
0.43
0.395
0.405
0.425
0.435
0.405
0.39
0.395
0.405
0.42
0.415
0.4
0.4
0.365
0.41
0.43
0.44
0.45
0.375
0.425
0.42
0.4
0.36
0.39
0.39
0.4
0.39
0.37
0.385
0.42
0.395
0.4
0.405
0.39
0.37
0.415
0.425
0.365
0.355
0.395
0.38
0.365
0.355
0.36
0.36
0.4
0.335
0.355
0.38
0.375
0.37
0.41
0.395
0.35
0.4
0.405
0.415
0.36
0.405
0.405
0.39
0.38
0.37
0.37
0.385
0.365
0.355
0.385
0.385
0.39
0.35
0.355
0.36
0.355
0.355
0.335
0.35
0.34
0.37
0.365
0.385
0.38
0.38
0.34
0.365
0.365
0.37
0.38
0.35
0.37
0.38
0.39
0.355
0.33
0.38
0.39
0.395
0.34
0.38
0.325
0.365
0.385
0.365
0.375
0.37
0.365
0.35
0.39
0.38
0.38
0.37
0.375
0.385
0.385
0.4
0.405
0.37
0.415
0.39
0.375
0.37
0.395
0.41
0.355
0.37
0.4
0.365
0.36
0.39
0.365
0.37
0.36
0.36
0.335
0.36
0.365
0.435
0.36
0.4
0.385
0.365
0.395
0.38
0.365
0.375
0.385
0.42
0.375
0.38
0.365
0.41
0.375
0.36
0.345
0.36
0.385
0.375
0.4
0.385
0.335
0.39
0.37
0.335
0.34
0.36
0.38
0.37
0.4
0.415
0.385
0.365
0.375
0.42
0.4
0.39
0.375
0.35
0.4
0.415
0.44
0.455
0.445
0.405
0.385
0.415
0.445
0.445
0.47
0.475
0.49
0.475
0.475
0.43
0.42
0.45
0.43
0.43
0.45
0.43
0.425
0.435
0.46
0.485
0.41
0.4
0.39
0.425
0.42
0.38
0.345
0.355
0.345
0.375
0.395
0.385
0.41
0.43
0.415
0.395
0.395
0.37
0.35
0.38
0.38
0.395
0.385
0.38
0.365
0.38
0.38
0.405
0.395
0.355
0.355
0.33
0.37
0.365
0.355
0.365
0.375
0.32
0.335
0.38
0.41
0.395
0.37
0.35
0.35
0.325
0.335
0.345
0.33
0.335
0.34
0.335
0.33
0.34
0.355
0.38
0.43
0.46
0.5
0.565
0.63
0.675
0.7
0.74
0.795
0.785
0.735
0.68
0.595
0.465
0.315
0.225
0.17
0.175
0.185
0.195
0.215
0.22
0.205
0.195
0.185
0.225
0.28
0.28
0.305
0.34
0.4
0.415
0.37
0.39
0.365
0.365
0.4
0.36
0.38
0.365
0.345
0.375
0.38
0.425
0.405
0.415
0.4
0.36
0.44
0.445
0.41
0.38
0.375
0.38
0.39
0.42
0.41
0.445
0.435
0.415
0.415
0.395
0.415
0.445
0.4
0.405
0.425
0.45
0.475
0.475
0.46
0.43
0.435
0.44
0.445
0.475
0.425
0.42
0.425
0.445
0.435
0.415
0.455
0.465
0.45
0.475
0.485
0.515
0.485
0.48
0.475
0.465
0.46
0.45
0.445
0.485
0.475
0.475
0.485
0.47
0.475
0.48
0.475
0.485
0.5
0.5
0.495
0.51
0.525
0.52
0.505
0.505
0.54
0.535
0.52
0.565
0.57
0.56
0.585
0.58
0.575
0.565
0.555
0.595
0.625
0.61
0.6
0.64
0.635
0.63
0.615
0.645
0.665
0.635
0.64
0.685
0.685
0.67
0.67
0.665
0.69
0.675
0.69
0.685
0.755
0.73
0.715
0.705
0.715
0.695
0.65
0.65
0.63
0.68
0.66
0.655
0.665
0.645
0.625
0.625
0.585
0.575
0.57
0.565
0.535
0.525
0.53
0.5
0.49
0.515
0.53
0.49
0.455
0.45
0.485
0.47
0.47
0.46
0.435
0.425
0.395
0.38
0.415
0.42
0.44
0.375
0.4
0.43
0.43
0.415
0.395
0.375
0.375
0.395
0.4
0.44
0.435
0.39
0.38
0.38
0.385
0.39
0.37
0.405
0.385
0.43
0.385
0.395
0.43
0.445
0.435
0.415
0.4
0.405
0.41
0.42
0.415
0.4
0.445
0.43
0.41
0.42
0.42
0.405
0.39
0.395
0.4
0.42
0.405
0.415
0.385
0.41
0.365
0.39
0.435
0.43
0.43
0.405
0.44
0.445
0.445
0.425
0.435
0.425
0.43
0.43
0.435
0.41
0.425
0.42
0.425
0.44
0.43
0.455
0.445
0.44
0.43
0.4
0.425
0.425
0.435
0.42
0.4
0.42
0.415
0.435
0.41
0.415
0.425
0.395
0.425
0.455
0.445
0.445
0.43
0.41
0.415
0.43
0.41
0.4
0.43
0.425
0.4
0.41
0.42
0.44
0.405
0.395
0.445
0.425
0.42
0.42
0.42
0.39
0.41
0.425
0.42
0.445
0.41
0.39
0.425
0.45
0.425
0.435
0.41
0.41
0.44
0.465
0.4
0.395
0.38
0.395
0.38
0.405
0.43
0.415
0.4
0.43
0.385
0.4
0.47
0.405
0.395
0.415
0.4
0.41
0.425
0.405
0.405
0.395
0.44
0.39
0.375
0.41
0.42
0.42
0.435
0.435
0.405
0.4
0.395
0.405
0.4
0.395
0.41
0.44
0.4
0.43
0.415
0.415
0.395
0.38
0.41
0.4
0.425
0.42
0.405
0.385
0.405
0.395
0.395
0.365
0.385
0.405
0.4
0.435
0.41
0.39
0.4
0.4
0.37
0.36
0.39
0.38
0.41
0.39
0.41
0.395
0.36
0.41
0.38
0.39
0.385
0.395
0.405
0.39
0.37
0.385
0.405
0.4
0.38
0.385
0.395
0.385
0.365
0.405
0.395
0.41
0.38
0.38
0.395
0.355
0.355
0.425
0.385
0.39
0.395
0.375
0.38
0.35
0.39
0.395
0.375
0.355
0.355
0.37
0.405
0.38
0.355
0.365
0.34
0.38
0.38
0.37
0.355
0.385
0.395
0.4
0.385
0.365
0.375
0.36
0.355
0.385
0.39
0.39
0.35
0.37
0.365
0.37
0.37
0.355
0.36
0.36
0.38
0.385
0.385
0.375
0.375
0.42
0.41
0.4
0.39
0.385
0.4
0.43
0.43
0.39
0.37
0.4
0.375
0.38
0.41
0.44
0.43
0.45
0.475
0.455
0.44
0.425
0.415
0.44
0.43
0.44
0.455
0.435
0.46
0.445
0.43
0.395
0.38
0.42
0.38
0.395
0.365
0.39
0.39
0.36
0.37
0.4
0.38
0.375
0.355
0.37
0.38
0.395
0.325
0.335
0.36
0.335
0.355
0.365
0.38
0.375
0.375
0.37
0.36
0.34
0.365
0.36
0.345
0.325
0.37
0.35
0.375
0.38
0.36
0.365
0.37
0.365
0.35
0.33
0.33
0.37
0.38
0.36
0.35
0.32
0.295
0.315
0.31
0.315
0.31
0.33
0.36
0.435
0.445
0.46
0.57
0.59
0.64
0.655
0.72
0.79
0.87
0.845
0.75
0.69
0.62
0.49
0.355
0.275
0.225
0.235
0.235
0.205
0.185
0.16
0.13
0.16
0.155
0.235
0.285
0.305
0.305
0.35
0.355
0.335
0.34
0.355
0.355
0.355
0.31
0.37
0.38
0.4
0.33
0.385
0.385
0.375
0.37
0.395
0.4
0.385
0.38
0.37
0.375
0.375
0.415
0.405
0.4
0.405
0.395
0.385
0.405
0.425
0.415
0.395
0.43
0.43
0.41
0.395
0.39
0.41
0.425
0.405
0.375
0.455
0.445
0.41
0.38
0.405
0.44
0.435
0.42
0.45
0.43
0.445
0.445
0.43
0.445
0.44
0.43
0.42
0.445
0.47
0.45
0.455
0.47
0.45
0.46
0.435
0.455
0.455
0.46
0.445
0.46
0.5
0.485
0.475
0.465
0.51
0.475
0.485
0.455
0.52
0.51
0.48
0.495
0.5
0.51
0.515
0.525
0.525
0.575
0.555
0.58
0.55
0.565
0.565
0.555
0.585
0.55
0.565
0.62
0.61
0.615
0.61
0.625
0.64
0.61
0.65
0.635
0.65
0.635
0.665
0.665
0.665
0.675
0.685
0.635
0.67
0.66
0.645
0.7
0.65
0.645
0.655
0.665
0.66
0.615
0.635
0.57
0.575
0.575
0.575
0.59
0.56
0.545
0.525
0.51
0.515
0.47
0.49
0.49
0.46
0.46
0.46
0.485
0.405
0.375
0.43
0.405
0.42
0.395
0.395
0.38
0.385
0.385
0.375
0.385
0.355
0.375
0.395
0.37
0.355
0.37
0.375
0.385
0.385
0.395
0.39
0.32
0.365
0.34
0.345
0.34
0.34
0.37
0.355
0.32
0.35
0.39
0.365
0.35
0.295
0.305
0.34
0.365
0.34
0.36
0.37
0.35
0.37
0.36
0.365
0.34
0.37
0.365
0.355
0.385
0.4
0.355
0.345
0.36
0.34
0.335
0.35
0.38
0.365
0.365
0.37
0.375
0.33
0.375
0.375
0.345
0.335
0.35
0.355
0.35
0.375
0.395
0.385
0.365
0.375
0.395
0.37
0.36
0.335
0.33
0.365
0.365
0.37
0.375
0.36
0.35
0.355
0.41
0.355
0.33
0.35
0.34
0.37
0.39
0.36
0.35
0.375
0.35
0.34
0.36
0.38
0.38
0.395
0.37
0.38
0.35
0.325
0.37
0.335
0.355
0.345
0.365
0.375
0.36
0.34
0.39
0.385
0.37
0.35
0.355
0.38
0.355
0.35
0.38
0.38
0.35
0.35
0.32
0.36
0.375
0.35
0.345
0.34
0.35
0.345
0.385
0.34
0.345
0.35
0.355
0.335
0.33
0.35
0.335
0.35
0.33
0.325
0.34
0.335
0.345
0.37
0.34
0.365
0.345
0.34
0.3
0.34
0.355
0.355
0.37
0.37
0.37
0.355
0.35
0.355
0.355
0.305
0.33
0.345
0.36
0.305
0.38
0.355
0.325
0.335
0.36
0.365
0.34
0.345
0.34
0.345
0.335
0.32
0.33
0.315
0.38
0.355
0.33
0.35
0.335
0.35
0.34
0.375
0.33
0.32
0.34
0.35
0.345
0.35
0.335
0.345
0.35
0.335
0.35
0.345
0.32
0.325
0.355
0.34
0.34
0.34
0.375
0.35
0.345
0.3
0.355
0.34
0.345
0.345
0.365
0.33
0.345
0.33
0.365
0.34
0.375
0.335
0.32
0.33
0.335
0.34
0.35
0.345
0.315
0.315
0.36
0.29
0.32
0.39
0.345
0.35
0.4
0.37
0.365
0.355
0.375
0.395
0.39
0.375
0.355
0.39
0.385
0.38
0.395
0.385
0.42
0.4
0.4
0.435
0.445
0.41
0.42
0.435
0.425
0.41
0.4
0.405
0.4
0.41
0.42
0.43
0.39
0.385
0.4
0.405
0.375
0.345
0.365
0.365
0.325
0.345
0.34
0.34
0.365
0.36
0.35
0.355
0.345
0.335
0.33
0.345
0.33
0.32
0.375
0.35
0.32
0.33
0.365
0.345
0.35
0.31
0.33
0.34
0.34
0.34
0.35
0.31
0.31
0.315
0.355
0.36
0.32
0.325
0.33
0.335
0.36
0.335
0.31
0.315
0.31
0.335
0.3
0.295
0.255
0.25
0.27
0.28
0.33
0.37
0.365
0.435
0.505
0.53
0.56
0.595
0.635
0.725
0.735
0.69
0.635
0.575
0.48
0.41
0.265
0.17
0.11
0.155
0.14
0.115
0.13
0.135
0.13
0.15
0.17
0.19
0.21
0.25
0.28
0.285
0.3
0.315
0.33
0.315
0.31
0.355
0.365
0.35
0.35
0.36
0.355
0.345
0.335
0.365
0.355
0.335
0.375
0.37
0.345
0.355
0.35
0.39
0.415
0.4
0.35
0.345
0.37
0.41
0.345
0.38
0.395
0.415
0.385
0.405
0.395
0.39
0.38
0.38
0.395
0.4
0.415
0.395
0.42
0.395
0.395
0.41
0.395
0.42
0.405
0.42
0.41
0.4
0.44
0.465
0.435
0.43
0.43
0.39
0.405
0.43
0.435
0.42
0.435
0.43
0.435
0.435
0.43
0.465
0.445
0.44
0.43
0.475
0.485
0.46
0.455
0.47
0.465
0.455
0.48
0.5
0.48
0.48
0.505
0.515
0.52
0.52
0.5
0.525
0.565
0.555
0.555
0.535
0.545
0.58
0.59
0.6
0.595
0.595
0.605
0.585
0.625
0.615
0.615
0.645
0.63
0.635
0.665
0.65
0.64
0.7
0.675
0.66
0.72
0.675
0.645
0.65
0.66
0.675
0.695
0.67
0.655
0.635
0.635
0.62
0.645
0.635
0.615
0.59
0.585
0.595
0.57
0.545
0.53
0.535
0.52
0.51
0.49
0.48
0.48
0.475
0.435
0.44
0.445
0.44
0.415
0.42
0.42
0.47
0.42
0.39
0.39
0.375
0.415
0.385
0.37
0.38
0.37
0.38
0.37
0.355
0.375
0.35
0.39
0.385
0.385
0.375
0.36
0.39
0.38
0.37
0.375
0.375
0.37
0.38
0.365
0.385
0.38
0.38
0.365
0.375
0.365
0.425
0.38
0.375
0.37
0.385
0.39
0.33
0.395
0.38
0.355
0.355
0.35
0.395
0.385
0.37
0.39
0.375
0.385
0.4
0.43
0.425
0.385
0.38
0.375
0.39
0.38
0.38
0.385
0.42
0.41
0.395
0.375
0.395
0.4
0.365
0.39
0.395
0.405
0.395
0.4
0.365
0.4
0.43
0.395
0.385
0.37
0.37
0.385
0.365
0.42
0.41
0.395
0.415
0.4
0.39
0.4
0.38
0.39
0.395
0.395
0.395
0.39
0.37
0.375
0.38
0.385
0.39
0.37
0.39
0.395
0.39
0.39
0.385
0.385
0.4
0.405
0.405
0.395
0.385
0.375
0.38
0.345
0.38
0.37
0.385
0.39
0.39
0.39
0.4
0.375
0.36
0.395
0.35
0.345
0.395
0.385
0.385
0.4
0.385
0.39
0.365
0.335
0.38
0.345
0.37
0.375
0.37
0.375
0.375
0.365
0.38
0.355
0.37
0.395
0.385
0.38
0.39
0.37
0.385
0.38
0.395
0.39
0.38
0.355
0.35
0.375
0.38
0.355
0.38
0.4
0.38
0.37
0.375
0.37
0.375
0.385
0.375
0.365
0.4
0.37
0.355
0.335
0.35
0.37
0.385
0.375
0.345
0.365
0.42
0.38
0.375
0.38
0.355
0.34
0.355
0.375
0.41
0.35
0.375
0.365
0.365
0.37
0.39
0.375
0.37
0.375
0.385
0.395
0.395
0.335
0.365
0.355
0.395
0.37
0.37
0.405
0.39
0.38
0.37
0.38
0.345
0.355
0.405
0.37
0.385
0.38
0.36
0.39
0.37
0.37
0.365
0.375
0.38
0.38
0.385
0.36
0.345
0.375
0.375
0.375
0.37
0.355
0.37
0.355
0.375
0.39
0.39
0.385
0.375
0.39
0.36
0.355
0.35
0.365
0.38
0.35
0.37
0.39
0.385
0.375
0.39
0.425
0.43
0.395
0.395
0.405
0.405
0.425
0.405
0.4
0.425
0.455
0.445
0.395
0.435
0.45
0.415
0.42
0.445
0.46
0.45
0.44
0.43
0.455
0.43
0.43
0.425
0.45
0.475
0.46
0.45
0.435
0.41
0.38
0.38
0.44
0.395
0.39
0.375
0.385
0.36
0.395
0.35
0.375
0.42
0.37
0.385
0.405
0.38
0.385
0.375
0.335
0.34
0.355
0.395
0.37
0.35
0.34
0.33
0.375
0.375
0.385
0.365
0.345
0.36
0.38
0.34
0.37
0.365
0.34
0.335
0.335
0.36
0.35
0.37
0.33
0.38
0.35
0.325
0.33
0.35
0.345
0.3
0.28
0.35
0.31
0.37
0.4
0.44
0.47
0.535
0.605
0.625
0.645
0.72
0.775
0.74
0.725
0.66
0.575
0.445
0.32
0.23
0.195
0.205
0.18
0.165
0.155
0.125
0.135
0.145
0.18
0.23
0.26
0.275
0.31
0.305
0.34
0.33
0.335
0.345
0.365
0.355
0.36
0.38
0.35
0.38
0.365
0.365
0.425
0.385
0.385
0.37
0.36
0.395
0.36
0.385
0.385
0.395
0.4
0.385
0.38
0.395
0.365
0.4
0.395
0.425
0.405
0.395
0.375
0.39
0.41
0.415
0.405
0.395
0.395
0.385
0.435
0.425
0.415
0.415
0.4
0.4
0.4
0.42
0.41
0.425
0.435
0.445
0.41
0.415
0.445
0.405
0.42
0.44
0.455
0.43
0.435
0.405
0.415
0.46
0.455
0.445
0.45
0.46
0.44
0.455
0.47
0.465
0.45
0.49
0.47
0.425
0.455
0.47
0.48
0.49
0.49
0.495
0.49
0.505
0.49
0.51
0.52
0.49
0.525
0.56
0.59
0.59
0.535
0.58
0.55
0.56
0.575
0.585
0.6
0.59
0.59
0.59
0.605
0.645
0.635
0.635
0.645
0.66
0.64
0.67
0.665
0.655
0.65
0.635
0.67
0.66
0.68
0.7
0.655
0.675
0.65
0.655
0.67
0.655
0.62
0.64
0.615
0.6
0.615
0.575
0.595
0.575
0.545
0.52
0.505
0.525
0.515
0.49
0.47
0.465
0.48
0.45
0.46
0.445
0.435
0.425
0.42
0.42
0.415
0.425
0.425
0.39
0.385
0.4
0.42
0.415
0.41
0.365
0.385
0.395
0.385
0.4
0.405
0.365
0.36
0.38
0.38
0.365
0.355
0.38
0.38
0.355
0.365
0.355
0.36
0.4
0.385
0.35
0.38
0.395
0.395
0.38
0.35
0.365
0.37
0.38
0.365
0.375
0.395
0.36
0.335
0.345
0.385
0.38
0.38
0.37
0.395
0.395
0.365
0.385
0.385
0.39
0.4
0.425
0.38
0.36
0.37
0.4
0.385
0.375
0.385
0.38
0.385
0.38
0.375
0.365
0.39
0.37
0.38
0.39
0.41
0.39
0.345
0.39
0.395
0.35
0.36
0.375
0.405
0.39
0.345
0.39
0.39
0.41
0.365
0.36
0.385
0.37
0.38
0.425
0.39
0.36
0.405
0.375
0.375
0.39
0.405
0.37
0.36
0.385
0.37
0.405
0.39
0.35
0.345
0.355
0.36
0.345
0.36
0.37
0.385
0.395
0.365
0.34
0.335
0.35
0.38
0.385
0.385
0.38
0.37
0.35
0.35
0.355
0.365
0.355
0.385
0.385
0.375
0.355
0.37
0.365
0.37
0.37
0.34
0.355
0.38
0.375
0.365
0.38
0.36
0.36
0.35
0.37
0.335
0.335
0.34
0.37
0.375
0.37
0.34
0.335
0.365
0.37
0.365
0.355
0.37
0.37
0.365
0.38
0.355
0.35
0.37
0.35
0.35
0.405
0.36
0.35
0.335
0.36
0.36
0.36
0.38
0.365
0.325
0.34
0.365
0.365
0.37
0.36
0.345
0.34
0.34
0.355
0.35
0.36
0.36
0.37
0.315
0.365
0.36
0.36
0.34
0.365
0.375
0.395
0.35
0.385
0.335
0.33
0.355
0.34
0.335
0.34
0.355
0.38
0.36
0.355
0.355
0.34
0.355
0.335
0.32
0.31
0.38
0.345
0.38
0.365
0.345
0.38
0.37
0.34
0.37
0.36
0.345
0.355
0.35
0.32
0.34
0.39
0.34
0.355
0.34
0.33
0.34
0.37
0.395
0.35
0.34
0.375
0.35
0.34
0.345
0.345
0.36
0.35
0.36
0.365
0.34
0.315
0.335
0.355
0.33
0.355
0.355
0.37
0.36
0.35
0.385
0.355
0.38
0.38
0.38
0.38
0.4
0.36
0.395
0.415
0.395
0.4
0.385
0.365
0.39
0.415
0.415
0.42
0.41
0.395
0.45
0.425
0.42
0.41
0.415
0.425
0.42
0.43
0.395
0.41
0.39
0.4
0.39
0.4
0.36
0.385
0.395
0.37
0.34
0.345
0.335
0.34
0.385
0.36
0.355
0.355
0.335
0.355
0.365
0.34
0.325
0.375
0.34
0.33
0.325
0.33
0.335
0.33
0.325
0.33
0.315
0.315
0.34
0.285
0.32
0.33
0.33
0.315
0.34
0.32
0.34
0.325
0.34
0.34
0.345
0.345
0.345
0.33
0.27
0.29
0.29
0.285
0.29
0.29
0.245
0.295
0.345
0.415
0.405
0.435
0.51
0.53
0.565
0.59
0.64
0.76
0.755
0.69
0.65
0.6
0.48
0.345
0.25
0.185
0.185
0.14
0.14
0.13
0.115
0.11
0.11
0.145
0.16
0.22
0.27
0.22
0.265
0.305
0.305
0.325
0.305
0.3
0.32
0.355
0.34
0.33
0.345
0.33
0.35
0.34
0.35
0.295
0.355
0.34
0.36
0.34
0.33
0.38
0.36
0.365
0.385
0.36
0.315
0.365
0.38
0.395
0.385
0.35
0.385
0.36
0.35
0.365
0.365
0.39
0.39
0.37
0.365
0.385
0.38
0.37
0.4
0.38
0.365
0.37
0.375
0.375
0.395
0.385
0.39
0.4
0.38
0.4
0.42
0.395
0.365
0.39
0.38
0.405
0.41
0.41
0.405
0.415
0.38
0.39
0.43
0.435
0.405
0.42
0.445
0.455
0.415
0.385
0.44
0.41
0.445
0.44
0.43
0.435
0.43
0.465
0.48
0.475
0.455
0.495
0.49
0.5
0.52
0.545
0.505
0.49
0.525
0.53
0.56
0.545
0.54
0.525
0.555
0.575
0.595
0.595
0.635
0.625
0.575
0.58
0.62
0.62
0.58
0.61
0.63
0.605
0.605
0.62
0.62
0.615
0.645
0.615
0.645
0.645
0.635
0.6
0.61
0.63
0.565
0.56
0.595
0.555
0.565
0.545
0.53
0.53
0.505
0.475
0.51
0.49
0.435
0.45
0.46
0.425
0.43
0.42
0.43
0.4
0.38
0.425
0.365
0.385
0.405
0.385
0.375
0.355
0.365
0.345
0.34
0.33
0.325
0.325
0.35
0.34
0.335
0.34
0.32
0.325
0.325
0.335
0.36
0.355
0.32
0.325
0.365
0.33
0.325
0.345
0.27
0.35
0.33
0.38
0.38
0.305
0.315
0.35
0.37
0.34
0.335
0.345
0.325
0.34
0.335
0.32
0.355
0.315
0.32
0.325
0.335
0.32
0.36
0.355
0.35
0.355
0.35
0.325
0.325
0.32
0.34
0.345
0.345
0.33
0.33
0.325
0.34
0.335
0.35
0.35
0.345
0.35
0.335
0.305
0.335
0.32
0.365
0.37
0.335
0.335
0.32
0.33
0.37
0.34
0.35
0.36
0.35
0.32
0.36
0.37
0.29
0.355
0.335
0.345
0.345
0.355
0.345
0.35
0.365
0.355
0.33
0.315
0.32
0.35
0.34
0.32
0.335
0.335
0.325
0.33
0.325
0.335
0.355
0.33
0.33
0.305
0.335
0.33
0.335
0.32
0.355
0.355
0.33
0.325
0.335
0.335
0.325
0.315
0.305
0.315
0.35
0.32
0.345
0.32
0.32
0.3
0.31
0.335
0.315
0.33
0.32
0.305
0.315
0.33
0.315
0.315
0.32
0.35
0.315
0.32
0.305
0.305
0.305
0.31
0.345
0.315
0.34
0.3
0.315
0.325
0.325
0.32
0.305
0.325
0.32
0.335
0.335
0.315
0.325
0.315
0.31
0.32
0.325
0.32
0.325
0.31
0.345
0.34
0.33
0.325
0.315
0.335
0.325
0.345
0.275
0.305
0.305
0.345
0.315
0.3
0.34
0.315
0.32
0.335
0.32
0.305
0.31
0.335
0.32
0.32
0.32
0.31
0.32
0.345
0.33
0.31
0.335
0.335
0.305
0.295
0.33
0.335
0.33
0.33
0.325
0.325
0.3
0.325
0.315
0.31
0.32
0.35
0.295
0.33
0.3
0.33
0.31
0.33
0.295
0.315
0.33
0.315
0.33
0.345
0.31
0.32
0.34
0.315
0.305
0.32
0.335
0.335
0.335
0.335
0.325
0.305
0.275
0.34
0.325
0.335
0.335
0.32
0.32
0.33
0.355
0.33
0.305
0.335
0.34
0.325
0.36
0.33
0.345
0.345
0.385
0.36
0.36
0.35
0.365
0.335
0.335
0.4
0.335
0.37
0.395
0.39
0.385
0.38
0.39
0.405
0.415
0.395
0.395
0.405
0.405
0.395
0.385
0.41
0.385
0.395
0.395
0.385
0.35
0.36
0.37
0.355
0.34
0.355
0.335
0.325
0.34
0.315
0.33
0.33
0.35
0.34
0.33
0.305
0.325
0.365
0.32
0.325
0.34
0.325
0.295
0.32
0.315
0.3
0.265
0.26
0.335
0.355
0.325
0.29
0.305
0.31
0.34
0.32
0.325
0.33
0.32
0.32
0.295
0.305
0.335
0.305
0.305
0.295
0.285
0.28
0.29
0.28
0.275
0.26
0.25
0.255
0.28
0.295
0.35
0.365
0.45
0.495
0.5
0.58
0.58
0.635
0.705
0.74
0.69
0.62
0.545
0.455
0.345
0.24
0.15
0.13
0.145
0.13
0.105
0.085
0.1
0.095
0.12
0.155
0.195
0.22
0.255
0.23
0.285
0.285
0.29
0.295
0.31
0.31
0.325
0.315
0.315
0.33
0.33
0.33
0.32
0.315
0.355
0.34
0.31
0.305
0.29
0.3
0.35
0.3
0.335
0.355
0.36
0.385
0.375
0.35
0.345
0.365
0.37
0.34
0.335
0.355
0.365
0.36
0.34
0.35
0.355
0.37
0.37
0.325
0.4
0.405
0.385
0.34
0.345
0.355
0.37
0.37
0.355
0.36
0.395
0.39
0.36
0.39
0.39
0.395
0.395
0.39
0.395
0.395
0.41
0.42
0.41
0.405
0.425
0.395
0.345
0.37
0.41
0.44
0.4
0.405
0.41
0.425
0.455
0.445
0.47
0.445
0.445
0.435
0.47
0.465
0.48
0.46
0.475
0.47
0.485
0.475
0.51
0.52
0.525
0.515
0.515
0.525
0.51
0.54
0.545
0.575
0.57
0.565
0.57
0.59
0.585
0.59
0.605
0.545
0.595
0.64
0.625
0.625
0.64
0.615
0.63
0.645
0.63
0.61
0.63
0.61
0.61
0.61
0.605
0.6
0.595
0.595
0.595
0.565
0.555
0.525
0.525
0.52
0.5
0.515
0.495
0.45
0.445
0.455
0.44
0.41
0.42
0.435
0.385
0.395
0.395
0.4
0.39
0.38
0.385
0.35
0.355
0.345
0.325
0.305
0.37
0.35
0.325
0.335
0.34
0.315
0.345
0.33
0.315
0.345
0.32
0.31
0.315
0.31
0.32
0.305
0.31
0.315
0.31
0.33
0.29
0.34
0.355
0.305
0.31
0.34
0.325
0.31
0.305
0.33
0.32
0.32
0.305
0.31
0.33
0.335
0.32
0.34
0.34
0.3
0.295
0.32
0.3
0.325
0.34
0.31
0.295
0.305
0.335
0.365
0.33
0.33
0.33
0.325
0.29
0.3
0.325
0.33
0.325
0.335
0.335
0.325
0.355
0.335
0.32
0.32
0.325
0.31
0.305
0.34
0.355
0.335
0.3
0.325
0.325
0.33
0.315
0.36
0.34
0.32
0.345
0.335
0.315
0.325
0.31
0.32
0.325
0.34
0.3
0.27
0.27
0.345
0.36
0.315
0.29
0.31
0.37
0.325
0.3
0.33
0.31
0.315
0.315
0.305
0.31
0.305
0.32
0.31
0.33
0.325
0.285
0.3
0.315
0.32
0.295
0.3
0.315
0.325
0.32
0.33
0.3
0.26
0.34
0.34
0.3
0.29
0.3
0.3
0.3
0.31
0.265
0.29
0.345
0.315
0.305
0.31
0.28
0.325
0.33
0.29
0.305
0.31
0.3
0.305
0.3
0.315
0.31
0.305
0.295
0.305
0.295
0.305
0.25
0.235
0.335
0.31
0.28
0.325
0.335
0.305
0.325
0.295
0.315
0.36
0.3
0.29
0.3
0.305
0.31
0.285
0.295
0.3
0.32
0.325
0.29
0.32
0.31
0.275
0.3
0.3
0.295
0.285
0.325
0.32
0.305
0.31
0.31
0.315
0.325
0.305
0.29
0.29
0.295
0.305
0.29
0.31
0.29
0.31
0.325
0.33
0.295
0.285
0.295
0.31
0.295
0.34
0.32
0.315
0.325
0.305
0.3
0.29
0.3
0.27
0.29
0.315
0.295
0.35
0.32
0.29
0.31
0.31
0.285
0.31
0.29
0.305
0.29
0.29
0.345
0.31
0.32
0.305
0.305
0.285
0.285
0.27
0.295
0.365
0.32
0.31
0.31
0.31
0.325
0.335
0.32
0.325
0.325
0.325
0.365
0.355
0.355
0.37
0.38
0.34
0.345
0.355
0.38
0.37
0.38
0.385
0.355
0.38
0.375
0.37
0.385
0.4
0.375
0.36
0.41
0.37
0.345
0.365
0.38
0.385
0.36
0.365
0.395
0.33
0.355
0.37
0.34
0.31
0.275
0.325
0.315
0.335
0.325
0.32
0.31
0.31
0.305
0.325
0.315
0.315
0.315
0.315
0.31
0.305
0.31
0.335
0.285
0.29
0.315
0.3
0.33
0.27
0.295
0.305
0.315
0.315
0.295
0.315
0.29
0.295
0.3
0.32
0.265
0.3
0.355
0.33
0.275
0.245
0.265
0.27
0.255
0.295
0.265
0.2
0.255
0.25
0.29
0.36
0.365
0.41
0.44
0.48
0.535
0.565
0.595
0.675
0.715
0.69
0.595
0.535
0.42
0.365
0.26
0.17
0.115
0.07
0.085
0.08
0.07
0.065
0.075
0.105
0.135
0.165
0.205
0.245
0.295
0.25
0.27
0.28
0.31
0.285
0.3
0.345
0.315
0.3
0.3
0.31
0.325
0.345
0.335
0.32
0.31
0.33
0.33
0.32
0.33
0.315
0.345
0.37
0.345
0.35
0.335
0.36
0.335
0.36
0.335
0.355
0.36
0.34
0.355
0.37
0.365
0.365
0.365
0.355
0.365
0.375
0.39
0.37
0.355
0.355
0.36
0.375
0.39
0.395
0.365
0.375
0.37
0.35
0.355
0.38
0.39
0.365
0.385
0.375
0.39
0.385
0.385
0.395
0.395
0.39
0.365
0.425
0.4
0.42
0.415
0.405
0.385
0.405
0.425
0.405
0.415
0.465
0.42
0.425
0.475
0.455
0.45
0.45
0.435
0.45
0.465
0.48
0.475
0.505
0.5
0.485
0.475
0.475
0.515
0.495
0.54
0.54
0.555
0.585
0.55
0.55
0.565
0.555
0.595
0.595
0.59
0.605
0.615
0.59
0.61
0.6
0.595
0.62
0.625
0.655
0.66
0.62
0.61
0.615
0.64
0.605
0.63
0.61
0.635
0.595
0.575
0.565
0.57
0.535
0.52
0.52
0.525
0.495
0.48
0.505
0.48
0.425
0.46
0.435
0.45
0.41
0.41
0.42
0.415
0.395
0.39
0.395
0.34
0.355
0.365
0.35
0.345
0.325
0.355
0.36
0.365
0.335
0.31
0.295
0.325
0.31
0.345
0.36
0.305
0.32
0.31
0.31
0.345
0.3
0.295
0.31
0.3
0.315
0.33
0.33
0.315
0.315
0.33
0.34
0.325
0.295
0.31
0.31
0.33
0.305
0.295
0.305
0.335
0.31
0.33
0.33
0.345
0.33
0.325
0.325
0.335
0.335
0.365
0.325
0.315
0.31
0.33
0.325
0.335
0.335
0.32
0.355
0.335
0.285
0.33
0.32
0.335
0.305
0.335
0.325
0.32
0.315
0.315
0.335
0.34
0.32
0.335
0.34
0.315
0.34
0.38
0.34
0.345
0.3
0.325
0.37
0.33
0.325
0.32
0.315
0.32
0.315
0.315
0.345
0.345
0.29
0.305
0.345
0.345
0.315
0.32
0.335
0.295
0.33
0.335
0.305
0.32
0.35
0.3
0.33
0.31
0.325
0.31
0.275
0.295
0.315
0.3
0.315
0.285
0.305
0.35
0.355
0.31
0.315
0.3
0.3
0.305
0.315
0.315
0.315
0.33
0.32
0.285
0.3
0.285
0.26
0.275
0.28
0.29
0.33
0.34
0.305
0.275
0.265
0.31
0.295
0.25
0.3
0.3
0.285
0.31
0.31
0.33
0.31
0.305
0.27
0.265
0.28
0.285
0.285
0.3
0.295
0.29
0.295
0.285
0.28
0.28
0.265
0.275
0.295
0.285
0.26
0.285
0.305
0.29
0.255
0.28
0.29
0.295
0.3
0.27
0.28
0.245
0.245
0.245
0.34
0.27
0.255
0.245
0.26
0.285
0.27
0.27
0.28
0.275
0.265
0.28
0.235
0.25
0.28
0.295
0.255
0.28
0.27
0.255
0.285
0.29
0.275
0.26
0.31
0.29
0.305
0.27
0.295
0.29
0.26
0.3
0.28
0.285
0.295
0.27
0.285
0.295
0.26
0.28
0.255
0.29
0.275
0.265
0.285
0.28
0.3
0.3
0.27
0.29
0.26
0.28
0.25
0.235
0.275
0.275
0.27
0.285
0.305
0.255
0.27
0.3
0.285
0.29
0.25
0.29
0.275
0.245
0.31
0.27
0.285
0.3
0.28
0.26
0.275
0.295
0.29
0.305
0.29
0.3
0.325
0.32
0.335
0.31
0.29
0.295
0.355
0.365
0.33
0.295
0.345
0.355
0.335
0.355
0.36
0.335
0.35
0.385
0.375
0.31
0.395
0.375
0.37
0.35
0.35
0.355
0.35
0.345
0.34
0.335
0.315
0.335
0.315
0.31
0.33
0.295
0.295
0.26
0.29
0.28
0.28
0.275
0.27
0.315
0.285
0.285
0.275
0.265
0.27
0.255
0.23
0.255
0.295
0.31
0.325
0.295
0.275
0.26
0.25
0.275
0.295
0.26
0.275
0.27
0.29
0.3
0.23
0.25
0.265
0.24
0.28
0.28
0.275
0.265
0.235
0.27
0.255
0.24
0.23
0.23
0.25
0.215
0.23
0.235
0.305
0.325
0.365
0.405
0.425
0.51
0.535
0.61
0.655
0.725
0.7
0.695
0.63
0.59
0.465
0.315
0.19
0.185
0.125
0.135
0.115
0.07
0.05
0.045
0.05
0.07
0.1
0.155
0.14
0.22
0.24
0.235
0.265
0.255
0.29
0.295
0.28
0.285
0.255
0.28
0.29
0.29
0.26
0.275
0.3
0.305
0.31
0.29
0.3
0.305
0.325
0.3
0.31
0.295
0.315
0.325
0.29
0.265
0.31
0.305
0.3
0.35
0.335
0.32
0.315
0.345
0.33
0.32
0.325
0.365
0.345
0.34
0.34
0.33
0.335
0.32
0.32
0.31
0.35
0.37
0.37
0.355
0.35
0.37
0.315
0.34
0.365
0.37
0.365
0.355
0.35
0.36
0.36
0.34
0.35
0.36
0.38
0.4
0.375
0.36
0.375
0.41
0.45
0.425
0.41
0.4
0.405
0.395
0.415
0.445
0.425
0.41
0.425
0.435
0.415
0.435
0.465
0.465
0.475
0.475
0.485
0.46
0.45
0.485
0.505
0.49
0.51
0.505
0.485
0.5
0.54
0.56
0.565
0.545
0.54
0.585
0.575
0.56
0.59
0.585
0.585
0.56
0.64
0.635
0.59
0.575
0.615
0.63
0.635
0.6
0.61
0.555
0.585
0.56
0.605
0.545
0.55
0.575
0.56
0.58
0.54
0.51
0.495
0.525
0.475
0.47
0.47
0.48
0.475
0.43
0.425
0.44
0.44
0.435
0.385
0.395
0.35
0.38
0.415
0.355
0.365
0.39
0.355
0.35
0.365
0.385
0.345
0.335
0.33
0.36
0.36
0.355
0.325
0.33
0.33
0.365
0.365
0.35
0.35
0.315
0.37
0.33
0.285
0.315
0.37
0.325
0.37
0.345
0.33
0.35
0.355
0.35
0.345
0.33
0.32
0.345
0.335
0.33
0.345
0.36
0.335
0.355
0.325
0.385
0.385
0.355
0.35
0.34
0.365
0.37
0.36
0.345
0.35
0.36
0.33
0.36
0.36
0.385
0.38
0.35
0.34
0.37
0.35
0.335
0.37
0.38
0.345
0.335
0.36
0.35
0.35
0.355
0.35
0.34
0.385
0.365
0.35
0.355
0.375
0.365
0.36
0.325
0.325
0.37
0.36
0.37
0.345
0.36
0.355
0.335
0.33
0.325
0.39
0.36
0.365
0.38
0.335
0.37
0.365
0.35
0.335
0.335
0.39
0.34
0.33
0.35
0.37
0.36
0.33
0.325
0.345
0.335
0.335
0.32
0.335
0.36
0.35
0.35
0.36
0.345
0.34
0.33
0.32
0.325
0.37
0.34
0.36
0.345
0.315
0.325
0.33
0.325
0.32
0.33
0.34
0.335
0.335
0.33
0.33
0.345
0.385
0.335
0.34
0.335
0.315
0.32
0.305
0.32
0.355
0.34
0.33
0.32
0.345
0.34
0.33
0.325
0.34
0.32
0.35
0.335
0.32
0.325
0.31
0.295
0.345
0.375
0.36
0.335
0.3
0.32
0.335
0.315
0.345
0.36
0.35
0.315
0.325
0.315
0.355
0.305
0.35
0.305
0.3
0.325
0.36
0.315
0.35
0.36
0.335
0.335
0.32
0.305
0.31
0.33
0.335
0.3
0.305
0.355
0.34
0.31
0.35
0.36
0.31
0.33
0.34
0.36
0.33
0.28
0.295
0.345
0.32
0.3
0.37
0.345
0.34
0.33
0.33
0.34
0.355
0.325
0.335
0.345
0.315
0.34
0.36
0.335
0.33
0.375
0.31
0.32
0.305
0.305
0.32
0.335
0.33
0.315
0.33
0.355
0.365
0.345
0.345
0.31
0.3
0.325
0.34
0.365
0.355
0.33
0.315
0.355
0.345
0.295
0.35
0.355
0.325
0.32
0.36
0.315
0.325
0.35
0.345
0.35
0.35
0.355
0.36
0.355
0.37
0.35
0.36
0.39
0.38
0.38
0.365
0.38
0.405
0.37
0.395
0.4
0.425
0.4
0.375
0.395
0.435
0.425
0.385
0.385
0.435
0.42
0.415
0.365
0.425
0.445
0.405
0.405
0.42
0.415
0.355
0.39
0.38
0.4
0.42
0.34
0.34
0.345
0.325
0.32
0.32
0.37
0.34
0.365
0.355
0.335
0.345
0.34
0.32
0.34
0.325
0.31
0.305
0.33
0.345
0.3
0.33
0.32
0.31
0.34
0.345
0.345
0.355
0.33
0.29
0.305
0.32
0.335
0.34
0.315
0.32
0.315
0.315
0.315
0.325
0.295
0.27
0.29
0.28
0.29
0.255
0.265
0.285
0.27
0.32
0.32
0.4
0.44
0.47
0.53
0.585
0.625
0.645
0.705
0.74
0.825
0.75
0.68
0.62
0.505
0.385
0.26
0.185
0.175
0.14
0.15
0.13
0.08
0.095
0.135
0.16
0.175
0.225
0.245
0.255
0.265
0.27
0.345
0.355
0.315
0.285
0.325
0.31
0.315
0.3
0.305
0.33
0.345
0.315
0.35
0.35
0.33
0.33
0.37
0.34
0.33
0.345
0.325
0.335
0.34
0.335
0.345
0.365
0.36
0.325
0.35
0.355
0.365
0.35
0.375
0.375
0.35
0.345
0.31
0.355
0.4
0.365
0.39
0.375
0.385
0.37
0.35
0.39
0.36
0.375
0.395
0.355
0.385
0.405
0.37
0.385
0.395
0.415
0.38
0.39
0.395
0.36
0.41
0.405
0.415
0.425
0.415
0.395
0.395
0.42
0.415
0.41
0.405
0.39
0.41
0.445
0.415
0.43
0.46
0.44
0.44
0.455
0.465
0.47
0.48
0.51
0.44
0.47
0.49
0.5
0.505
0.495
0.51
0.51
0.525
0.52
0.53
0.525
0.575
0.58
0.555
0.585
0.565
0.58
0.585
0.62
0.61
0.585
0.6
0.605
0.64
0.62
0.6
0.65
0.64
0.64
0.625
0.64
0.635
0.6
0.615
0.635
0.63
0.63
0.605
0.605
0.605
0.585
0.63
0.57
0.56
0.555
0.53
0.52
0.48
0.47
0.475
0.485
0.49
0.46
0.425
0.43
0.42
0.425
0.395
0.42
0.355
0.405
0.37
0.375
0.385
0.37
0.36
0.355
0.36
0.355
0.355
0.32
0.335
0.33
0.355
0.35
0.345
0.36
0.31
0.295
0.33
0.325
0.32
0.3
0.3
0.355
0.335
0.335
0.355
0.31
0.315
0.33
0.36
0.3
0.34
0.325
0.33
0.325
0.315
0.32
0.305
0.335
0.31
0.33
0.335
0.325
0.345
0.335
0.33
0.325
0.31
0.3
0.345
0.32
0.34
0.33
0.34
0.345
0.355
0.34
0.33
0.34
0.355
0.35
0.325
0.325
0.35
0.32
0.335
0.35
0.315
0.33
0.36
0.355
0.32
0.345
0.315
0.365
0.34
0.315
0.315
0.355
0.36
0.325
0.355
0.345
0.295
0.355
0.365
0.325
0.34
0.33
0.325
0.335
0.36
0.345
0.33
0.345
0.325
0.35
0.32
0.33
0.355
0.35
0.35
0.325
0.355
0.34
0.365
0.34
0.335
0.35
0.33
0.33
0.33
0.3
0.34
0.37
0.34
0.335
0.33
0.345
0.33
0.315
0.34
0.295
0.33
0.35
0.345
0.34
0.32
0.33
0.335
0.325
0.335
0.34
0.365
0.32
0.32
0.3
0.35
0.34
0.33
0.3
0.305
0.355
0.39
0.34
0.325
0.355
0.34
0.33
0.335
0.35
0.33
0.325
0.325
0.365
0.34
0.325
0.295
0.3
0.36
0.335
0.34
0.34
0.36
0.32
0.325
0.31
0.325
0.315
0.345
0.345
0.35
0.32
0.335
0.33
0.335
0.305
0.33
0.325
0.33
0.345
0.35
0.33
0.32
0.32
0.325
0.32
0.33
0.345
0.32
0.32
0.345
0.31
0.34
0.345
0.325
0.335
0.335
0.31
0.335
0.33
0.3
0.32
0.37
0.345
0.33
0.32
0.31
0.32
0.32
0.335
0.345
0.34
0.32
0.325
0.325
0.33
0.37
0.31
0.34
0.325
0.3
0.335
0.315
0.34
0.34
0.345
0.335
0.33
0.335
0.32
0.305
0.35
0.315
0.325
0.335
0.32
0.33
0.335
0.295
0.34
0.305
0.345
0.375
0.345
0.31
0.325
0.315
0.32
0.335
0.355
0.32
0.3
0.355
0.35
0.355
0.34
0.365
0.33
0.32
0.33
0.35
0.335
0.32
0.34
0.305
0.31
0.335
0.305
0.32
0.335
0.335
0.365
0.325
0.3
0.305
0.3
0.335
0.32
0.365
0.345
0.35
0.37
0.375
0.4
0.385
0.35
0.3
0.39
0.41
0.38
0.385
0.385
0.42
0.385
0.405
0.415
0.405
0.4
0.405
0.4
0.395
0.405
0.41
0.415
0.415
0.42
0.395
0.405
0.395
0.365
0.395
0.4
0.38
0.325
0.34
0.32
0.345
0.33
0.345
0.355
0.34
0.345
0.36
0.32
0.305
0.325
0.3
0.32
0.295
0.315
0.38
0.35
0.3
0.32
0.35
0.31
0.315
0.355
0.325
0.34
0.34
0.33
0.32
0.325
0.35
0.315
0.27
0.29
0.325
0.31
0.315
0.315
0.325
0.295
0.3
0.3
0.29
0.295
0.27
0.255
0.275
0.255
0.205
0.29
0.37
0.4
0.415
0.475
0.53
0.59
0.645
0.655
0.77
0.825
0.83
0.72
0.665
0.62
0.565
0.435
0.27
0.185
0.18
0.155
0.165
0.14
0.085
0.11
0.13
0.105
0.1
0.2
0.24
0.25
0.3
0.29
0.28
0.3
0.31
0.32
0.31
0.295
0.34
0.305
0.315
0.32
0.34
0.34
0.335
0.335
0.34
0.335
0.315
0.345
0.355
0.365
0.35
0.365
0.345
0.345
0.355
0.37
0.38
0.355
0.355
0.36
0.325
0.345
0.385
0.38
0.385
0.37
0.355
0.38
0.38
0.37
0.37
0.335
0.405
0.355
0.395
0.405
0.385
0.41
0.37
0.33
0.36
0.39
0.405
0.39
0.41
0.39
0.39
0.405
0.39
0.42
0.375
0.365
0.41
0.425
0.395
0.415
0.415
0.425
0.405
0.41
0.43
0.445
0.43
0.44
0.465
0.445
0.45
0.455
0.45
0.47
0.45
0.48
0.485
0.505
0.505
0.48
0.47
0.455
0.47
0.51
0.55
0.53
0.55
0.54
0.54
0.54
0.555
0.585
0.56
0.575
0.575
0.61
0.605
0.57
0.625
0.605
0.63
0.62
0.65
0.63
0.645
0.675
0.635
0.655
0.665
0.655
0.665
0.64
0.645
0.63
0.62
0.645
0.64
0.625
0.615
0.62
0.6
0.59
0.605
0.54
0.53
0.535
0.51
0.555
0.495
0.515
0.44
0.44
0.425
0.44
0.44
0.435
0.41
0.41
0.43
0.425
0.375
0.38
0.365
0.36
0.395
0.36
0.39
0.335
0.36
0.355
0.34
0.34
0.335
0.335
0.345
0.33
0.34
0.33
0.355
0.315
0.335
0.335
0.31
0.335
0.315
0.32
0.35
0.37
0.33
0.335
0.355
0.32
0.31
0.31
0.35
0.345
0.33
0.335
0.33
0.31
0.355
0.33
0.335
0.305
0.33
0.36
0.345
0.355
0.33
0.36
0.315
0.325
0.34
0.345
0.35
0.345
0.34
0.325
0.34
0.335
0.36
0.34
0.34
0.35
0.345
0.33
0.355
0.365
0.345
0.35
0.35
0.345
0.345
0.35
0.35
0.355
0.325
0.34
0.36
0.34
0.35
0.33
0.315
0.325
0.34
0.35
0.335
0.325
0.335
0.375
0.345
0.31
0.345
0.335
0.34
0.35
0.345
0.345
0.315
0.305
0.34
0.32
0.33
0.33
0.32
0.3
0.355
0.325
0.315
0.365
0.335
0.315
0.335
0.35
0.34
0.325
0.305
0.31
0.325
0.325
0.34
0.335
0.34
0.305
0.315
0.34
0.33
0.305
0.325
0.31
0.32
0.315
0.35
0.32
0.29
0.32
0.3
0.315
0.365
0.3
0.345
0.31
0.305
0.34
0.335
0.325
0.31
0.31
0.31
0.31
0.32
0.3
0.32
0.325
0.305
0.33
0.31
0.31
0.315
0.325
0.295
0.32
0.295
0.315
0.325
0.32
0.29
0.285
0.355
0.29
0.29
0.33
0.325
0.325
0.315
0.335
0.34
0.315
0.315
0.31
0.275
0.325
0.34
0.3
0.31
0.335
0.3
0.32
0.315
0.31
0.305
0.315
0.32
0.315
0.295
0.3
0.315
0.315
0.285
0.31
0.295
0.315
0.325
0.32
0.305
0.31
0.295
0.31
0.325
0.315
0.315
0.295
0.28
0.325
0.31
0.31
0.29
0.33
0.335
0.3
0.295
0.315
0.31
0.295
0.29
0.28
0.32
0.285
0.31
0.31
0.345
0.31
0.335
0.35
0.325
0.315
0.335
0.3
0.275
0.275
0.29
0.31
0.275
0.315
0.32
0.3
0.31
0.295
0.325
0.3
0.31
0.32
0.325
0.29
0.28
0.325
0.31
0.33
0.32
0.305
0.305
0.315
0.32
0.315
0.295
0.29
0.32
0.305
0.32
0.35
0.355
0.325
0.35
0.355
0.38
0.355
0.33
0.345
0.38
0.37
0.375
0.36
