# TIPE ECG 2021 - ECG-ID Database v1.0.0 par Physionet
# [Numéro de la personne, Période d'échantillonnage, Prénom, Age, Sexe, Date de l'enregistrement]
[52, 0.002, Pamela, 23, F, 12.05.2005]
0.37
0.345
0.35
0.355
0.38
0.38
0.325
0.365
0.385
0.36
0.365
0.35
0.38
0.37
0.37
0.37
0.35
0.375
0.355
0.365
0.34
0.35
0.37
0.375
0.37
0.385
0.335
0.36
0.375
0.36
0.365
0.41
0.365
0.38
0.345
0.355
0.36
0.375
0.35
0.36
0.385
0.375
0.385
0.345
0.375
0.37
0.36
0.355
0.355
0.37
0.355
0.37
0.38
0.365
0.36
0.35
0.35
0.345
0.38
0.39
0.355
0.36
0.35
0.35
0.365
0.37
0.365
0.385
0.35
0.36
0.375
0.385
0.38
0.395
0.38
0.365
0.36
0.39
0.36
0.39
0.39
0.42
0.445
0.43
0.39
0.43
0.445
0.415
0.405
0.415
0.425
0.39
0.39
0.425
0.39
0.425
0.385
0.36
0.355
0.35
0.33
0.33
0.335
0.355
0.365
0.3
0.37
0.38
0.37
0.325
0.335
0.345
0.325
0.285
0.36
0.355
0.305
0.335
0.325
0.35
0.335
0.35
0.32
0.325
0.345
0.335
0.325
0.33
0.295
0.305
0.335
0.245
0.235
0.17
0.23
0.32
0.345
0.455
0.57
0.72
0.865
0.965
1.105
1.13
1.115
1.0
0.86
0.84
0.73
0.55
0.32
0.245
0.17
0.23
0.275
0.315
0.305
0.27
0.305
0.335
0.33
0.33
0.32
0.3
0.305
0.28
0.325
0.315
0.32
0.3
0.3
0.29
0.31
0.315
0.315
0.305
0.29
0.28
0.3
0.295
0.305
0.285
0.28
0.31
0.315
0.3
0.36
0.335
0.295
0.3
0.315
0.31
0.3
0.31
0.31
0.31
0.32
0.315
0.315
0.305
0.325
0.32
0.295
0.305
0.33
0.3
0.34
0.33
0.295
0.34
0.32
0.325
0.315
0.325
0.35
0.325
0.33
0.32
0.305
0.345
0.34
0.345
0.35
0.34
0.345
0.36
0.345
0.365
0.335
0.34
0.365
0.38
0.39
0.39
0.38
0.39
0.415
0.385
0.415
0.455
0.445
0.415
0.405
0.435
0.45
0.47
0.43
0.45
0.465
0.51
0.475
0.485
0.46
0.5
0.48
0.48
0.515
0.525
0.495
0.51
0.47
0.485
0.46
0.44
0.445
0.445
0.43
0.415
0.41
0.4
0.4
0.375
0.38
0.395
0.355
0.315
0.365
0.34
0.35
0.34
0.335
0.325
0.32
0.315
0.32
0.325
0.29
0.325
0.295
0.3
0.29
0.3
0.33
0.31
0.295
0.31
0.32
0.305
0.27
0.31
0.3
0.315
0.325
0.3
0.315
0.31
0.3
0.285
0.275
0.295
0.305
0.29
0.32
0.325
0.255
0.29
0.315
0.265
0.285
0.34
0.28
0.3
0.305
0.29
0.305
0.295
0.295
0.3
0.305
0.31
0.31
0.315
0.29
0.27
0.285
0.3
0.3
0.28
0.265
0.32
0.3
0.27
0.29
0.325
0.34
0.27
0.29
0.315
0.31
0.31
0.3
0.28
0.32
0.28
0.27
0.245
0.32
0.32
0.31
0.305
0.325
0.295
0.31
0.29
0.28
0.31
0.305
0.285
0.295
0.315
0.29
0.305
0.315
0.295
0.29
0.285
0.295
0.275
0.275
0.285
0.26
0.275
0.305
0.27
0.275
0.305
0.28
0.295
0.305
0.29
0.265
0.275
0.265
0.295
0.3
0.28
0.27
0.235
0.285
0.31
0.31
0.275
0.275
0.27
0.255
0.295
0.29
0.28
0.295
0.275
0.28
0.27
0.26
0.265
0.3
0.28
0.28
0.325
0.3
0.285
0.285
0.285
0.335
0.295
0.325
0.335
0.315
0.34
0.315
0.325
0.33
0.34
0.355
0.345
0.295
0.32
0.33
0.335
0.265
0.265
0.26
0.26
0.25
0.265
0.245
0.23
0.25
0.265
0.28
0.25
0.255
0.22
0.26
0.24
0.22
0.225
0.24
0.23
0.255
0.22
0.26
0.26
0.245
0.245
0.245
0.235
0.235
0.235
0.225
0.26
0.24
0.25
0.23
0.205
0.215
0.15
0.12
0.145
0.17
0.24
0.295
0.41
0.61
0.74
0.89
1.0
1.075
1.065
0.965
0.805
0.74
0.67
0.51
0.34
0.085
-0.005
0.065
0.145
0.19
0.225
0.235
0.225
0.25
0.22
0.215
0.215
0.245
0.225
0.2
0.215
0.235
0.225
0.21
0.21
0.22
0.215
0.225
0.175
0.205
0.225
0.225
0.245
0.205
0.22
0.235
0.21
0.23
0.22
0.255
0.205
0.23
0.235
0.205
0.22
0.23
0.255
0.205
0.22
0.2
0.205
0.22
0.235
0.2
0.235
0.22
0.225
0.24
0.235
0.21
0.25
0.255
0.23
0.235
0.245
0.24
0.24
0.245
0.24
0.24
0.24
0.24
0.26
0.25
0.245
0.245
0.28
0.24
0.26
0.245
0.29
0.295
0.285
0.305
0.285
0.285
0.28
0.275
0.315
0.305
0.335
0.335
0.34
0.355
0.34
0.32
0.36
0.385
0.365
0.375
0.375
0.395
0.425
0.41
0.39
0.42
0.42
0.405
0.405
0.415
0.37
0.385
0.435
0.39
0.42
0.4
0.39
0.375
0.39
0.39
0.36
0.365
0.34
0.34
0.305
0.295
0.29
0.305
0.275
0.275
0.29
0.24
0.265
0.28
0.25
0.275
0.25
0.24
0.255
0.25
0.23
0.225
0.255
0.25
0.245
0.215
0.24
0.21
0.25
0.21
0.205
0.24
0.23
0.225
0.215
0.21
0.235
0.205
0.23
0.235
0.18
0.235
0.215
0.235
0.245
0.23
0.245
0.215
0.23
0.205
0.23
0.22
0.235
0.185
0.235
0.24
0.23
0.24
0.21
0.225
0.23
0.21
0.23
0.21
0.215
0.195
0.23
0.215
0.22
0.225
0.245
0.215
0.225
0.25
0.25
0.22
0.2
0.19
0.245
0.245
0.245
0.24
0.215
0.225
0.225
0.245
0.25
0.24
0.215
0.225
0.23
0.225
0.215
0.225
0.22
0.22
0.24
0.235
0.22
0.23
0.2
0.235
0.21
0.24
0.22
0.225
0.205
0.22
0.225
0.215
0.235
0.22
0.22
0.24
0.235
0.24
0.225
0.2
0.25
0.22
0.205
0.21
0.22
0.235
0.2
0.225
0.21
0.2
0.17
0.235
0.22
0.225
0.195
0.21
0.23
0.225
0.21
0.225
0.21
0.22
0.215
0.19
0.21
0.2
0.205
0.195
0.225
0.21
0.23
0.225
0.225
0.2
0.2
0.195
0.255
0.205
0.2
0.205
0.205
0.225
0.22
0.21
0.225
0.25
0.265
0.23
0.225
0.24
0.245
0.235
0.27
0.235
0.24
0.275
0.245
0.27
0.315
0.28
0.27
0.275
0.28
0.275
0.275
0.255
0.255
0.205
0.23
0.22
0.23
0.205
0.215
0.205
0.21
0.2
0.17
0.205
0.22
0.17
0.18
0.24
0.215
0.215
0.21
0.205
0.185
0.215
0.185
0.21
0.195
0.18
0.195
0.16
0.185
0.21
0.19
0.17
0.195
0.175
0.185
0.19
0.19
0.195
0.165
0.12
0.08
0.1
0.14
0.175
0.23
0.37
0.47
0.64
0.82
0.95
1.015
1.025
0.925
0.795
0.73
0.635
0.49
0.305
0.1
-0.06
-0.03
0.035
0.115
0.2
0.195
0.195
0.165
0.18
0.195
0.195
0.18
0.175
0.175
0.18
0.175
0.165
0.16
0.18
0.16
0.165
0.205
0.165
0.165
0.18
0.14
0.17
0.175
0.18
0.18
0.185
0.185
0.185
0.155
0.175
0.185
0.185
0.17
0.185
0.195
0.18
0.175
0.16
0.205
0.2
0.215
0.215
0.195
0.175
0.19
0.175
0.19
0.205
0.205
0.185
0.2
0.215
0.215
0.21
0.145
0.245
0.2
0.205
0.195
0.18
0.205
0.22
0.21
0.195
0.225
0.235
0.195
0.22
0.245
0.22
0.225
0.21
0.245
0.215
0.275
0.255
0.285
0.29
0.285
0.275
0.285
0.3
0.3
0.28
0.32
0.31
0.31
0.37
0.38
0.355
0.355
0.34
0.33
0.395
0.375
0.39
0.365
0.405
0.385
0.38
0.4
0.38
0.35
0.35
0.365
0.365
0.37
0.37
0.35
0.31
0.325
0.34
0.29
0.295
0.3
0.265
0.255
0.27
0.25
0.22
0.24
0.265
0.235
0.21
0.21
0.235
0.24
0.2
0.185
0.25
0.21
0.23
0.2
0.22
0.205
0.195
0.19
0.22
0.19
0.21
0.22
0.205
0.195
0.19
0.21
0.205
0.22
0.175
0.2
0.195
0.205
0.195
0.19
0.18
0.175
0.215
0.195
0.22
0.215
0.19
0.205
0.205
0.2
0.205
0.21
0.175
0.195
0.23
0.225
0.21
0.225
0.195
0.24
0.22
0.19
0.205
0.21
0.21
0.215
0.205
0.225
0.21
0.23
0.23
0.24
0.26
0.2
0.21
0.21
0.215
0.245
0.235
0.23
0.21
0.24
0.22
0.245
0.22
0.21
0.215
0.22
0.235
0.225
0.235
0.245
0.195
0.21
0.23
0.22
0.23
0.21
0.225
0.21
0.23
0.23
0.235
0.24
0.215
0.23
0.225
0.22
0.22
0.18
0.22
0.19
0.25
0.205
0.21
0.25
0.225
0.225
0.235
0.235
0.275
0.22
0.225
0.225
0.215
0.225
0.24
0.25
0.22
0.26
0.215
0.235
0.215
0.24
0.235
0.23
0.205
0.23
0.215
0.25
0.22
0.22
0.23
0.23
0.235
0.235
0.255
0.245
0.235
0.24
0.225
0.235
0.23
0.245
0.26
0.25
0.26
0.275
0.26
0.265
0.26
0.26
0.255
0.275
0.285
0.315
0.325
0.3
0.265
0.295
0.3
0.305
0.295
0.355
0.305
0.28
0.28
0.29
0.305
0.25
0.24
0.23
0.255
0.225
0.255
0.255
0.255
0.255
0.235
0.225
0.25
0.225
0.21
0.245
0.245
0.215
0.24
0.21
0.235
0.245
0.255
0.225
0.24
0.24
0.245
0.225
0.235
0.23
0.24
0.225
0.19
0.195
0.235
0.265
0.21
0.19
0.14
0.115
0.14
0.21
0.245
0.36
0.485
0.625
0.77
0.93
1.015
1.03
0.925
0.835
0.76
0.685
0.55
0.365
0.16
0.02
-0.015
0.025
0.11
0.145
0.22
0.23
0.245
0.225
0.245
0.22
0.21
0.23
0.24
0.195
0.2
0.255
0.21
0.22
0.23
0.215
0.24
0.23
0.21
0.215
0.205
0.2
0.23
0.22
0.22
0.24
0.235
0.21
0.22
0.225
0.205
0.23
0.24
0.23
0.23
0.235
0.205
0.24
0.23
0.24
0.235
0.23
0.25
0.22
0.24
0.25
0.23
0.245
0.255
0.25
0.23
0.22
0.24
0.245
0.225
0.235
0.265
0.27
0.26
0.25
0.27
0.255
0.235
0.275
0.265
0.235
0.27
0.27
0.265
0.3
0.3
0.275
0.31
0.295
0.305
0.335
0.325
0.31
0.3
0.325
0.325
0.33
0.35
0.35
0.375
0.38
0.405
0.39
0.365
0.405
0.4
0.415
0.405
0.4
0.43
0.43
0.43
0.415
0.375
0.4
0.4
0.425
0.425
0.425
0.4
0.395
0.39
0.385
0.375
0.365
0.36
0.32
0.36
0.345
0.35
0.32
0.29
0.29
0.285
0.31
0.28
0.245
0.24
0.28
0.25
0.265
0.22
0.275
0.23
0.245
0.225
0.245
0.245
0.23
0.205
0.255
0.205
0.21
0.205
0.23
0.22
0.205
0.235
0.235
0.225
0.235
0.215
0.21
0.22
0.195
0.215
0.21
0.225
0.23
0.21
0.215
0.19
0.24
0.23
0.185
0.195
0.23
0.235
0.215
0.205
0.255
0.235
0.225
0.23
0.21
0.22
0.24
0.235
0.22
0.21
0.245
0.245
0.225
0.22
0.255
0.24
0.23
0.25
0.24
0.245
0.24
0.235
0.245
0.23
0.265
0.255
0.24
0.225
0.225
0.25
0.21
0.26
0.245
0.24
0.205
0.23
0.26
0.235
0.23
0.23
0.24
0.21
0.225
0.23
0.205
0.2
0.25
0.25
0.225
0.235
0.245
0.235
0.235
0.2
0.2
0.2
0.23
0.265
0.235
0.21
0.22
0.225
0.215
0.25
0.205
0.235
0.225
0.22
0.235
0.255
0.225
0.225
0.235
0.21
0.215
0.225
0.22
0.235
0.235
0.235
0.215
0.215
0.24
0.255
0.235
0.245
0.245
0.27
0.24
0.235
0.265
0.275
0.28
0.265
0.255
0.275
0.25
0.3
0.325
0.31
0.29
0.28
0.295
0.295
0.26
0.205
0.215
0.215
0.245
0.21
0.21
0.205
0.215
0.18
0.205
0.235
0.2
0.2
0.245
0.23
0.215
0.18
0.19
0.225
0.2
0.21
0.205
0.19
0.175
0.21
0.195
0.22
0.175
0.22
0.2
0.195
0.19
0.2
0.2
0.195
0.185
0.18
0.18
0.135
0.065
0.08
0.135
0.165
0.2
0.275
0.315
0.5
0.72
0.885
0.935
0.95
0.87
0.765
0.73
0.685
0.57
0.35
0.205
-0.01
-0.08
-0.06
0.03
0.11
0.135
0.18
0.175
0.17
0.175
0.19
0.18
0.165
0.17
0.2
0.17
0.18
0.17
0.16
0.18
0.175
0.17
0.175
0.18
0.175
0.18
0.2
0.17
0.19
0.17
0.19
0.15
0.19
0.175
0.16
0.18
0.175
0.17
0.16
0.17
0.18
0.145
0.195
0.185
0.195
0.175
0.19
0.175
0.19
0.18
0.19
0.185
0.205
0.195
0.2
0.205
0.175
0.215
0.185
0.17
0.19
0.21
0.235
0.195
0.185
0.17
0.195
0.255
0.24
0.205
0.21
0.22
0.205
0.225
0.23
0.23
0.265
0.235
0.26
0.25
0.24
0.26
0.295
0.255
0.29
0.3
0.275
0.275
0.315
0.33
0.345
0.32
0.315
0.295
0.345
0.34
0.355
0.355
0.375
0.34
0.355
0.355
0.375
0.4
0.395
0.38
0.375
0.375
0.355
0.365
0.34
0.34
0.355
0.315
0.31
0.305
0.31
0.28
0.265
0.265
0.275
0.255
0.24
0.23
0.22
0.235
0.215
0.2
0.2
0.18
0.195
0.21
0.19
0.185
0.18
0.18
0.18
0.145
0.18
0.155
0.15
0.18
0.165
0.165
0.17
0.145
0.11
0.18
0.175
0.185
0.14
0.13
0.135
0.21
0.19
0.115
0.15
0.145
0.15
0.16
0.155
0.16
0.145
0.17
0.16
0.17
0.165
0.18
0.15
0.14
0.165
0.16
0.16
0.14
0.18
0.18
0.17
0.16
0.165
0.16
0.13
0.185
0.17
0.17
0.135
0.165
0.155
0.195
0.175
0.155
0.165
0.14
0.15
0.185
0.175
0.17
0.155
0.185
0.155
0.185
0.165
0.145
0.17
0.16
0.16
0.13
0.185
0.145
0.155
0.16
0.17
0.16
0.17
0.14
0.15
0.155
0.165
0.16
0.115
0.165
0.165
0.155
0.16
0.155
0.16
0.15
0.125
0.135
0.15
0.155
0.145
0.125
0.135
0.16
0.15
0.15
0.135
0.155
0.15
0.13
0.155
0.145
0.14
0.13
0.175
0.15
0.15
0.12
0.125
0.165
0.115
0.145
0.15
0.155
0.15
0.14
0.14
0.14
0.18
0.11
0.145
0.125
0.155
0.18
0.175
0.15
0.145
0.13
0.175
0.18
0.175
0.195
0.175
0.19
0.205
0.2
0.195
0.205
0.235
0.18
0.21
0.15
0.235
0.205
0.2
0.17
0.2
0.185
0.14
0.13
0.13
0.14
0.145
0.15
0.12
0.135
0.11
0.13
0.125
0.13
0.12
0.135
0.115
0.125
0.1
0.115
0.13
0.13
0.08
0.15
0.105
0.125
0.115
0.13
0.11
0.135
0.125
0.14
0.105
0.135
0.125
0.085
0.09
0.065
0.0
0.02
0.055
0.09
0.14
0.19
0.385
0.54
0.685
0.835
0.925
0.96
0.87
0.79
0.66
0.625
0.555
0.345
0.13
-0.075
-0.1
-0.045
0.04
0.035
0.115
0.12
0.115
0.1
0.12
0.105
0.135
0.12
0.115
0.085
0.085
0.095
0.09
0.125
0.11
0.075
0.1
0.09
0.11
0.085
0.035
0.05
0.105
0.15
0.13
0.125
0.11
0.115
0.105
0.11
0.11
0.09
0.105
0.105
0.13
0.105
0.105
0.1
0.105
0.095
0.125
0.105
0.095
0.12
0.125
0.12
0.12
0.115
0.1
0.11
0.035
0.16
0.135
0.155
0.125
0.115
0.075
0.055
0.15
0.145
0.15
0.14
0.12
0.105
0.14
0.145
0.125
0.09
0.19
0.2
0.145
0.135
0.175
0.21
0.185
0.165
0.19
0.19
0.175
0.175
0.18
0.21
0.22
0.235
0.25
0.245
0.225
0.265
0.26
0.245
0.275
0.27
0.28
0.28
0.295
0.26
0.275
0.3
0.31
0.28
0.3
0.3
0.29
0.3
0.275
0.285
0.275
0.215
0.205
0.24
0.26
0.22
0.215
0.2
0.195
0.2
0.18
0.155
0.17
0.1
0.14
0.135
0.12
0.12
0.14
0.05
0.14
0.1
0.135
0.125
0.1
0.085
0.12
0.115
0.09
0.095
0.1
0.115
0.09
0.08
0.1
0.115
0.08
0.09
0.09
0.12
0.09
0.05
0.095
0.095
0.075
0.1
0.09
0.08
0.085
0.095
0.1
0.08
0.075
0.085
0.075
0.08
0.105
0.085
0.075
0.065
0.055
0.1
0.08
0.06
0.065
0.085
0.07
0.09
0.085
0.095
0.085
0.06
0.085
0.07
0.1
0.115
0.075
0.085
0.1
0.085
0.1
0.13
0.095
0.065
0.065
0.1
0.095
0.1
0.085
0.09
0.085
0.115
0.09
0.075
0.09
0.06
0.08
0.07
0.125
0.11
0.055
0.055
0.05
0.07
0.085
0.11
0.07
0.055
0.085
0.065
0.085
0.08
0.075
0.085
0.065
0.09
0.07
0.07
0.06
0.05
0.04
0.065
0.075
0.075
0.04
0.07
0.105
0.095
0.065
0.06
0.055
0.095
0.065
0.055
0.055
0.07
0.06
0.09
0.075
0.065
0.09
0.05
0.085
0.045
0.055
0.045
0.055
0.075
0.09
0.075
0.055
0.055
0.055
0.07
0.04
0.065
0.065
0.065
0.07
0.05
0.04
0.085
0.06
0.065
0.085
0.05
0.065
0.095
0.05
0.11
0.1
0.095
0.105
0.115
0.125
0.125
0.12
0.12
0.1
0.125
0.135
0.115
0.115
0.11
0.1
0.065
0.07
0.08
0.055
0.07
0.065
0.025
0.03
0.03
0.045
0.08
0.05
0.04
0.045
0.025
0.03
0.05
0.025
0.065
0.015
0.05
0.05
0.02
0.04
0.02
0.015
0.04
0.04
0.025
0.02
0.02
0.04
0.04
0.04
0.01
0.01
-0.045
-0.065
-0.08
-0.065
-0.02
0.02
0.09
0.185
0.35
0.55
0.64
0.79
0.835
0.825
0.74
0.63
0.57
0.495
0.33
0.135
-0.06
-0.17
-0.175
-0.075
-0.06
-0.01
0.03
0.035
0.0
-0.025
0.04
0.025
0.005
-0.01
0.03
0.02
0.025
-0.015
0.005
-0.01
0.03
0.0
0.005
0.005
-0.01
0.01
0.01
0.01
0.005
0.03
0.0
-0.03
-0.02
0.005
0.03
-0.015
0.0
-0.02
-0.005
0.02
0.01
0.035
0.005
0.025
0.01
0.005
0.005
0.03
0.01
0.0
-0.01
0.0
0.03
-0.035
0.045
0.035
0.01
0.03
0.015
-0.01
0.015
0.02
0.025
0.03
0.025
0.02
0.005
0.035
0.01
0.05
0.02
0.04
0.05
0.045
0.055
0.06
0.065
0.055
0.085
0.07
0.08
0.07
0.06
0.07
0.1
0.095
0.1
0.12
0.09
0.13
0.105
0.165
0.14
0.155
0.16
0.15
0.185
0.175
0.17
0.18
0.185
0.16
0.2
0.18
0.165
0.16
0.175
0.22
0.175
0.16
0.165
0.18
0.18
0.165
0.115
0.16
0.12
0.105
0.1
0.08
0.08
0.085
0.095
0.07
0.065
0.045
0.065
0.025
0.01
0.01
0.03
0.01
-0.005
0.02
0.01
0.0
0.01
0.025
0.005
0.015
-0.025
0.0
-0.01
-0.025
-0.01
0.01
-0.03
0.005
0.0
0.005
-0.06
-0.005
0.0
0.0
0.01
0.005
-0.02
0.01
0.015
-0.035
-0.045
-0.035
-0.03
-0.005
-0.015
-0.015
-0.02
0.01
-0.025
-0.01
-0.025
-0.01
0.01
0.005
-0.035
-0.02
0.015
0.015
-0.015
-0.01
-0.015
-0.03
-0.055
0.02
0.0
0.01
-0.02
0.0
-0.015
0.02
-0.03
0.015
-0.005
-0.025
0.005
-0.005
0.015
0.005
0.005
-0.005
0.0
-0.025
0.005
0.015
0.0
-0.015
-0.02
0.005
-0.03
0.005
0.015
-0.005
0.005
-0.015
0.0
-0.03
0.01
-0.01
-0.03
-0.02
-0.015
-0.04
-0.01
-0.005
0.02
-0.02
-0.045
-0.035
-0.01
-0.015
-0.02
-0.02
-0.015
-0.025
-0.01
0.005
-0.01
-0.02
-0.015
-0.04
-0.02
-0.01
-0.015
-0.02
-0.02
-0.01
-0.02
-0.025
-0.035
-0.03
-0.015
-0.015
-0.015
-0.015
0.01
-0.015
-0.06
-0.055
-0.035
0.0
0.0
0.0
-0.005
-0.04
-0.005
0.03
0.02
0.0
0.005
0.015
-0.01
0.005
0.01
0.03
0.045
0.055
0.07
0.03
0.035
0.04
0.025
0.025
0.03
0.07
0.045
0.02
0.01
-0.035
-0.02
-0.02
0.005
-0.04
-0.04
-0.005
-0.015
-0.035
-0.04
-0.06
-0.06
-0.065
-0.01
-0.04
0.01
-0.05
-0.03
-0.025
-0.03
-0.015
-0.07
-0.02
-0.035
-0.015
-0.035
-0.04
-0.025
-0.035
-0.05
-0.06
-0.05
-0.05
-0.045
-0.08
-0.065
-0.105
-0.15
-0.155
-0.065
-0.035
0.035
0.115
0.265
0.435
0.575
0.7
0.75
0.735
0.57
0.53
0.48
0.35
0.23
0.025
-0.145
-0.285
-0.28
-0.195
-0.12
-0.1
-0.06
-0.07
-0.06
-0.045
-0.035
-0.065
-0.02
-0.045
-0.095
-0.09
-0.055
-0.035
-0.035
-0.05
-0.055
-0.065
-0.04
-0.08
-0.045
-0.04
-0.075
-0.075
-0.055
-0.05
-0.03
-0.04
-0.03
-0.04
-0.025
-0.05
-0.055
-0.06
-0.04
-0.03
-0.065
-0.04
-0.035
-0.07
-0.045
-0.04
-0.02
-0.015
-0.075
-0.06
-0.06
0.005
-0.04
-0.035
-0.03
-0.075
-0.055
-0.015
-0.09
-0.015
0.01
-0.045
-0.04
-0.015
-0.01
0.01
-0.005
-0.045
-0.005
-0.01
-0.005
-0.02
-0.015
0.005
0.015
0.025
0.015
0.03
0.02
0.02
0.035
0.05
0.04
0.015
0.045
0.055
0.055
0.075
0.075
0.09
0.085
0.11
0.09
0.11
0.12
0.12
0.1
0.105
0.12
0.14
0.145
0.17
0.14
0.11
0.125
0.155
0.145
0.15
0.125
0.125
0.13
0.11
0.145
0.1
0.105
0.06
0.07
0.075
0.04
0.035
0.055
0.02
0.005
0.01
0.01
-0.005
-0.015
-0.015
-0.015
-0.02
-0.035
-0.035
-0.035
-0.05
-0.06
-0.045
-0.055
-0.05
-0.08
-0.025
-0.045
-0.045
-0.06
-0.07
-0.04
-0.09
-0.06
-0.06
-0.045
-0.06
-0.06
-0.085
-0.065
-0.11
-0.08
-0.04
-0.065
-0.07
-0.065
-0.02
-0.055
-0.095
-0.05
-0.055
-0.09
-0.085
-0.065
-0.055
-0.05
-0.06
-0.065
-0.045
-0.085
-0.07
-0.075
-0.085
-0.07
-0.055
-0.055
-0.095
-0.045
-0.04
-0.05
-0.055
-0.025
-0.06
-0.035
-0.035
-0.04
-0.055
-0.02
-0.015
-0.015
-0.025
-0.025
-0.05
-0.05
-0.03
-0.01
-0.015
0.01
-0.03
-0.015
-0.01
-0.005
-0.005
0.0
-0.03
-0.02
-0.01
-0.025
-0.005
-0.025
-0.03
-0.015
-0.005
0.015
0.02
0.015
-0.045
-0.03
-0.025
-0.015
-0.025
-0.02
-0.035
-0.025
-0.025
-0.025
-0.005
0.005
-0.025
-0.03
-0.02
-0.035
-0.06
-0.035
-0.02
0.0
-0.02
0.01
0.015
-0.02
0.0
-0.015
-0.02
0.015
0.02
0.01
0.015
-0.015
0.045
0.03
0.04
0.025
-0.01
0.025
0.005
0.035
0.04
0.025
-0.03
0.005
-0.025
-0.03
-0.06
-0.03
-0.075
-0.05
-0.055
-0.065
-0.045
-0.075
-0.03
-0.05
-0.05
-0.075
-0.11
-0.07
-0.035
-0.07
-0.1
-0.045
-0.055
-0.06
-0.04
-0.065
-0.08
-0.08
-0.085
-0.075
-0.085
-0.055
-0.085
-0.075
-0.08
-0.055
-0.055
-0.09
-0.12
-0.13
-0.135
-0.145
-0.15
-0.1
-0.025
0.035
0.2
0.335
0.52
0.64
0.695
0.635
0.56
0.445
0.415
0.33
0.175
-0.055
-0.24
-0.33
-0.32
-0.285
-0.22
-0.2
-0.11
-0.07
-0.1
-0.085
-0.075
-0.065
-0.09
-0.09
-0.075
-0.08
-0.065
-0.095
-0.1
-0.09
-0.09
-0.08
-0.095
-0.08
-0.115
-0.09
-0.1
-0.08
-0.1
-0.095
-0.07
-0.075
-0.1
-0.085
-0.1
-0.09
-0.07
-0.105
-0.105
-0.1
-0.08
-0.09
-0.1
-0.075
-0.07
-0.06
-0.105
-0.08
-0.045
-0.075
-0.12
-0.07
-0.1
-0.095
-0.07
-0.075
-0.05
-0.045
-0.095
-0.085
-0.07
-0.105
-0.07
-0.065
-0.05
-0.06
-0.075
-0.04
-0.055
-0.055
-0.035
-0.05
-0.035
-0.065
-0.055
-0.055
-0.02
-0.01
-0.005
0.0
-0.015
-0.025
0.02
-0.01
-0.005
0.015
0.04
0.025
0.035
0.045
0.065
0.05
0.04
0.08
0.075
0.08
0.065
0.08
0.09
0.085
0.125
0.135
0.14
0.11
0.09
0.09
0.07
0.06
0.09
0.075
0.085
0.1
0.06
0.05
0.02
0.04
0.055
0.025
-0.01
-0.015
0.0
-0.02
-0.03
-0.055
-0.035
-0.055
-0.085
-0.1
-0.045
-0.08
-0.085
-0.07
-0.07
-0.075
-0.085
-0.095
-0.105
-0.095
-0.095
-0.12
-0.1
-0.095
-0.105
-0.105
-0.135
-0.145
-0.09
-0.12
-0.09
-0.1
-0.095
-0.1
-0.105
-0.125
-0.11
-0.09
-0.13
-0.125
-0.13
-0.09
-0.115
-0.14
-0.13
-0.12
-0.085
-0.09
-0.14
-0.09
-0.07
-0.12
-0.1
-0.14
-0.115
-0.105
-0.11
-0.11
-0.135
-0.12
-0.07
-0.08
-0.085
-0.095
-0.095
-0.11
-0.12
-0.08
-0.08
-0.12
-0.11
-0.08
-0.07
-0.11
-0.12
-0.125
-0.095
-0.105
-0.08
-0.085
-0.075
-0.12
-0.115
-0.105
-0.1
-0.09
-0.105
-0.095
-0.095
-0.07
-0.105
-0.125
-0.09
-0.085
-0.085
-0.11
-0.115
-0.125
-0.11
-0.1
-0.11
-0.135
-0.115
-0.105
-0.075
-0.115
-0.105
-0.135
-0.1
-0.11
-0.085
-0.12
-0.09
-0.115
-0.12
-0.12
-0.095
-0.095
-0.1
-0.11
-0.065
-0.05
-0.065
-0.105
-0.11
-0.08
-0.085
-0.1
-0.065
-0.075
-0.075
-0.06
-0.06
-0.035
-0.05
-0.06
-0.05
-0.035
-0.04
-0.065
-0.065
-0.05
-0.08
-0.12
-0.11
-0.125
-0.12
-0.09
-0.125
-0.125
-0.165
-0.09
-0.125
-0.125
-0.11
-0.115
-0.135
-0.14
-0.13
-0.125
-0.145
-0.11
-0.125
-0.125
-0.135
-0.135
-0.135
-0.135
-0.135
-0.135
-0.12
-0.15
-0.13
-0.12
-0.12
-0.125
-0.13
-0.14
-0.16
-0.165
-0.195
-0.265
-0.24
-0.18
-0.14
-0.13
0.03
0.15
0.325
0.475
0.615
0.645
0.61
0.56
0.415
0.39
0.285
0.14
-0.02
-0.215
-0.38
-0.35
-0.295
-0.215
-0.17
-0.16
-0.145
-0.145
-0.135
-0.135
-0.21
-0.18
-0.12
-0.13
-0.145
-0.135
-0.13
-0.15
-0.16
-0.16
-0.145
-0.16
-0.16
-0.16
-0.17
-0.175
-0.155
-0.135
-0.175
-0.125
-0.14
-0.145
-0.135
-0.145
-0.15
-0.15
-0.15
-0.165
-0.14
-0.125
-0.145
-0.15
-0.155
-0.125
-0.155
-0.2
-0.13
-0.145
-0.145
-0.14
-0.125
-0.11
-0.13
-0.17
-0.13
-0.145
-0.14
-0.13
-0.125
-0.11
-0.205
-0.07
-0.12
-0.15
-0.14
-0.1
-0.1
-0.115
-0.105
-0.095
-0.1
-0.13
-0.115
-0.105
-0.09
-0.1
-0.1
-0.085
-0.06
-0.07
-0.065
-0.055
-0.07
-0.005
-0.07
-0.05
-0.025
-0.02
-0.03
-0.02
-0.02
0.045
0.015
0.04
0.055
0.03
0.01
0.03
0.045
0.035
0.035
0.05
0.03
0.045
0.05
0.045
0.04
0.015
0.03
0.015
-0.055
0.02
0.02
0.03
-0.015
-0.015
-0.02
-0.035
-0.06
-0.055
-0.07
-0.09
-0.08
-0.09
-0.105
-0.135
-0.12
-0.125
-0.1
-0.145
-0.12
-0.12
-0.11
-0.15
-0.165
-0.12
-0.14
-0.165
-0.155
-0.145
-0.165
-0.14
-0.135
-0.185
-0.15
-0.195
-0.125
-0.14
-0.155
-0.15
-0.165
-0.16
-0.17
-0.205
-0.155
-0.17
-0.165
-0.15
-0.135
-0.155
-0.155
-0.17
-0.17
-0.17
-0.18
-0.165
-0.135
-0.155
-0.155
-0.17
-0.165
-0.15
-0.14
-0.15
-0.16
-0.165
-0.135
-0.155
-0.145
-0.165
-0.15
-0.16
-0.16
-0.145
-0.16
-0.13
-0.155
-0.125
-0.145
-0.125
-0.13
-0.18
-0.105
-0.17
-0.18
-0.16
-0.13
-0.14
-0.18
-0.16
-0.165
-0.14
-0.175
-0.14
-0.15
-0.17
-0.145
-0.115
-0.145
-0.13
-0.145
-0.145
-0.155
-0.15
-0.13
-0.15
-0.15
-0.14
-0.135
-0.18
-0.145
-0.145
-0.145
-0.195
-0.155
-0.14
-0.14
-0.15
-0.13
-0.14
-0.165
-0.16
-0.175
-0.175
-0.145
-0.13
-0.15
-0.16
-0.14
-0.18
-0.185
-0.175
-0.155
-0.155
-0.185
-0.155
-0.15
-0.165
-0.16
-0.125
-0.16
-0.145
-0.145
-0.16
-0.19
-0.155
-0.135
-0.16
-0.12
-0.13
-0.125
-0.13
-0.12
-0.125
-0.135
-0.105
-0.075
-0.075
-0.06
-0.12
-0.11
-0.09
-0.1
-0.095
-0.08
-0.1
-0.12
-0.145
-0.12
-0.135
-0.16
-0.18
-0.185
-0.2
-0.205
-0.13
-0.205
-0.21
-0.135
-0.165
-0.21
-0.15
-0.17
-0.165
-0.16
-0.205
-0.165
-0.185
-0.19
-0.195
-0.16
-0.205
-0.235
-0.205
-0.155
-0.165
-0.2
-0.16
-0.18
-0.14
-0.195
-0.21
-0.195
-0.225
-0.235
-0.275
-0.3
-0.26
-0.205
-0.145
-0.075
0.05
0.205
0.375
0.485
0.615
0.645
0.605
0.495
0.37
0.325
0.23
0.055
-0.125
-0.3
-0.345
-0.32
-0.23
-0.175
-0.165
-0.185
-0.19
-0.14
-0.155
-0.2
-0.17
-0.205
-0.185
-0.21
-0.195
-0.18
-0.185
-0.22
-0.215
-0.195
-0.215
-0.165
-0.185
-0.23
-0.19
-0.2
-0.205
-0.195
-0.18
-0.18
-0.19
-0.17
-0.16
-0.17
-0.175
-0.19
-0.175
-0.2
-0.195
-0.165
-0.19
-0.185
-0.165
-0.16
-0.145
-0.17
-0.18
-0.195
-0.18
-0.16
-0.175
-0.15
-0.155
-0.18
-0.155
-0.175
-0.185
-0.15
-0.18
-0.155
-0.16
-0.14
-0.13
-0.145
-0.145
-0.15
-0.14
-0.15
-0.17
-0.175
-0.15
-0.135
-0.145
-0.155
-0.115
-0.12
-0.12
-0.115
-0.07
-0.095
-0.105
-0.08
-0.05
-0.09
-0.09
-0.055
-0.08
-0.065
-0.055
-0.06
-0.025
0.01
0.005
-0.01
0.005
0.0
0.03
0.045
-0.015
0.005
0.05
0.025
0.01
0.01
0.04
0.03
0.03
0.015
0.03
0.0
0.0
-0.005
0.0
-0.015
-0.035
-0.075
-0.055
-0.06
-0.06
-0.07
-0.06
-0.095
-0.14
-0.12
-0.095
-0.145
-0.095
-0.11
-0.14
-0.13
-0.115
-0.11
-0.135
-0.135
-0.14
-0.16
-0.145
-0.135
-0.145
-0.115
-0.16
-0.12
-0.13
-0.145
-0.14
-0.145
-0.17
-0.135
-0.155
-0.185
-0.165
-0.14
-0.155
-0.15
-0.155
-0.135
-0.135
-0.175
-0.145
-0.14
-0.155
-0.145
-0.15
-0.155
-0.165
-0.17
-0.18
-0.155
-0.155
-0.12
-0.17
-0.125
-0.155
-0.12
-0.155
-0.13
-0.16
-0.13
-0.14
-0.145
-0.145
-0.12
-0.12
-0.085
-0.135
-0.145
-0.17
-0.14
-0.12
-0.125
-0.135
-0.135
-0.13
-0.125
-0.125
-0.13
-0.16
-0.155
-0.11
-0.125
-0.145
-0.1
-0.11
-0.12
-0.15
-0.16
-0.11
-0.165
-0.115
-0.12
-0.115
-0.115
-0.13
-0.155
-0.14
-0.08
-0.1
-0.13
-0.13
-0.16
-0.135
-0.115
-0.065
-0.09
-0.135
-0.15
-0.1
-0.1
-0.14
-0.15
-0.115
-0.105
-0.105
-0.125
-0.115
-0.12
-0.125
-0.145
-0.14
-0.125
-0.09
-0.13
-0.125
-0.12
-0.095
-0.125
-0.135
-0.11
-0.125
-0.105
-0.1
-0.115
-0.115
-0.125
-0.1
-0.125
-0.12
-0.125
-0.125
-0.115
-0.12
-0.085
-0.115
-0.125
-0.125
-0.095
-0.09
-0.09
-0.08
-0.085
-0.09
-0.09
-0.06
-0.09
-0.06
-0.06
-0.075
-0.07
-0.04
-0.045
-0.02
-0.065
-0.05
-0.06
-0.045
-0.04
-0.06
-0.055
-0.08
-0.075
-0.07
-0.075
-0.095
-0.125
-0.145
-0.125
-0.115
-0.09
-0.085
-0.105
-0.095
-0.105
-0.145
-0.11
-0.13
-0.115
-0.1
-0.115
-0.12
-0.14
-0.075
-0.1
-0.135
-0.12
-0.115
-0.125
-0.14
-0.105
-0.08
-0.095
-0.12
-0.11
-0.105
-0.13
-0.155
-0.19
-0.235
-0.225
-0.165
-0.15
-0.07
0.035
0.15
0.325
0.52
0.62
0.68
0.74
0.645
0.5
0.415
0.39
0.245
0.08
-0.125
-0.24
-0.255
-0.195
-0.13
-0.1
-0.095
-0.09
-0.1
-0.125
-0.11
-0.145
-0.11
-0.105
-0.125
-0.125
-0.1
-0.1
-0.125
-0.1
-0.125
-0.11
-0.095
-0.12
-0.13
-0.13
-0.105
-0.105
-0.13
-0.115
-0.125
-0.14
-0.08
-0.135
-0.095
-0.08
-0.065
-0.1
-0.095
-0.11
-0.12
-0.105
-0.09
-0.09
-0.1
-0.075
-0.115
-0.095
-0.11
-0.105
-0.08
-0.11
-0.07
-0.09
-0.12
-0.075
-0.1
-0.09
-0.075
-0.065
-0.105
-0.1
-0.07
-0.08
-0.1
-0.075
-0.07
-0.1
-0.105
-0.055
-0.055
-0.05
-0.06
-0.05
-0.07
-0.085
0.0
-0.005
-0.025
-0.025
-0.05
-0.03
-0.03
-0.01
0.025
-0.005
0.03
-0.025
0.03
0.07
0.05
0.035
0.06
0.04
0.05
0.055
0.11
0.1
0.07
0.075
0.07
0.105
0.13
0.075
0.115
0.12
0.095
0.1
0.105
0.105
0.08
0.09
0.08
0.065
0.04
0.03
0.06
0.02
0.01
0.0
0.015
-0.03
-0.04
-0.025
-0.01
-0.005
-0.045
-0.03
-0.05
-0.07
-0.065
-0.05
-0.05
-0.04
-0.055
-0.055
-0.11
-0.06
-0.06
-0.075
-0.07
-0.085
-0.05
-0.065
-0.08
-0.095
-0.08
-0.11
-0.09
-0.06
-0.08
-0.075
-0.095
-0.09
-0.085
-0.085
-0.055
-0.035
-0.085
-0.075
-0.09
-0.06
-0.09
-0.085
-0.075
-0.08
-0.07
-0.07
-0.095
-0.1
-0.1
-0.06
-0.07
-0.045
-0.05
-0.065
-0.135
-0.075
-0.09
-0.055
-0.12
-0.055
-0.045
-0.06
-0.1
-0.09
-0.08
-0.11
-0.07
-0.095
-0.07
-0.07
-0.035
-0.05
-0.085
-0.06
-0.075
-0.095
-0.02
-0.055
-0.05
-0.07
-0.055
-0.06
-0.045
-0.055
-0.065
-0.09
-0.06
-0.08
-0.06
-0.035
-0.045
-0.07
-0.03
-0.065
-0.035
-0.085
-0.06
-0.08
-0.095
-0.05
-0.065
-0.055
-0.03
-0.03
-0.025
-0.05
-0.08
-0.07
-0.035
-0.075
-0.065
-0.05
-0.06
-0.065
-0.075
-0.04
-0.05
-0.025
-0.035
-0.08
-0.055
-0.055
-0.05
-0.04
-0.07
-0.095
-0.04
-0.07
-0.065
-0.065
-0.06
-0.065
-0.05
-0.05
-0.05
-0.03
-0.055
-0.08
-0.06
-0.045
-0.045
-0.055
-0.065
-0.04
-0.065
-0.07
-0.07
-0.075
-0.035
-0.055
-0.075
-0.035
-0.07
-0.045
-0.055
-0.07
-0.06
-0.08
-0.05
-0.02
-0.045
-0.055
-0.04
-0.08
-0.03
-0.01
-0.03
-0.025
-0.055
-0.02
-0.005
0.0
0.015
0.015
-0.02
0.03
0.0
0.005
0.0
0.015
0.0
0.005
-0.01
-0.015
-0.01
-0.03
-0.045
-0.055
-0.04
-0.04
-0.055
-0.06
-0.06
-0.055
-0.05
-0.08
-0.065
-0.1
-0.09
-0.085
-0.095
-0.065
-0.065
-0.075
-0.075
-0.125
-0.04
-0.095
-0.075
-0.07
-0.06
-0.06
-0.085
-0.105
-0.1
-0.085
-0.07
-0.05
-0.125
-0.07
-0.09
-0.085
-0.125
-0.165
-0.16
-0.135
-0.085
-0.015
0.07
0.2
0.36
0.52
0.665
0.7
0.75
0.68
0.565
0.46
0.405
0.285
0.135
-0.035
-0.235
-0.245
-0.185
-0.115
-0.085
-0.065
-0.05
-0.1
-0.1
-0.075
-0.085
-0.08
-0.085
-0.1
-0.06
-0.11
-0.1
-0.1
-0.075
-0.08
-0.07
-0.12
-0.115
-0.07
-0.115
-0.135
-0.07
-0.095
-0.075
-0.105
-0.09
-0.055
-0.09
-0.08
-0.06
-0.11
-0.105
-0.075
-0.075
-0.065
-0.08
-0.09
-0.065
-0.08
-0.075
-0.105
-0.07
-0.09
-0.095
-0.065
-0.075
-0.085
-0.07
-0.07
-0.06
-0.085
-0.07
-0.09
-0.07
-0.085
-0.045
-0.05
-0.065
-0.035
-0.065
-0.05
-0.07
-0.04
-0.055
-0.05
-0.055
-0.07
-0.055
-0.025
-0.015
-0.04
-0.03
-0.035
-0.025
-0.03
-0.005
0.02
-0.005
0.005
0.025
0.02
0.04
0.035
0.035
0.05
0.06
0.065
0.08
0.07
0.035
0.07
0.105
0.11
0.075
0.09
0.115
0.115
0.105
0.12
0.095
0.125
0.125
0.125
0.11
0.12
0.11
0.09
0.105
0.08
0.06
0.05
0.03
0.05
0.04
0.03
0.015
-0.04
-0.02
-0.055
-0.02
-0.04
-0.06
-0.03
-0.035
-0.02
-0.045
-0.03
-0.075
-0.08
-0.065
-0.075
-0.06
-0.08
-0.08
-0.07
-0.08
-0.07
-0.085
-0.055
-0.05
-0.07
-0.07
-0.095
-0.065
-0.07
-0.09
-0.075
-0.09
-0.06
-0.05
-0.075
-0.11
-0.07
-0.045
-0.075
-0.09
-0.095
-0.08
-0.08
-0.1
-0.1
-0.08
-0.09
-0.075
-0.095
-0.085
-0.06
-0.08
-0.105
-0.075
-0.075
-0.095
-0.105
-0.14
-0.065
-0.055
-0.09
-0.115
-0.07
-0.105
-0.07
-0.085
-0.09
-0.06
-0.08
-0.065
-0.08
-0.055
-0.07
-0.08
-0.095
-0.085
-0.065
-0.08
-0.09
-0.07
-0.08
-0.065
-0.09
-0.075
-0.08
-0.08
-0.105
-0.085
-0.04
-0.065
-0.095
-0.07
-0.06
-0.085
-0.05
-0.055
-0.075
-0.08
-0.095
-0.1
-0.09
-0.075
-0.05
-0.09
-0.105
-0.055
-0.1
-0.015
-0.065
-0.075
-0.085
-0.07
-0.08
-0.065
-0.095
-0.05
-0.1
-0.105
-0.085
-0.09
-0.095
-0.105
-0.045
-0.055
-0.05
-0.065
-0.085
-0.035
-0.095
-0.085
-0.08
-0.09
-0.085
-0.095
-0.085
-0.07
-0.095
-0.07
-0.075
-0.06
-0.085
-0.08
-0.09
-0.085
-0.07
-0.08
-0.065
-0.09
-0.085
-0.09
-0.09
-0.085
-0.085
-0.105
-0.055
-0.1
-0.065
-0.065
-0.06
-0.12
-0.125
-0.095
-0.09
-0.115
-0.07
-0.08
-0.105
-0.06
-0.075
-0.105
-0.14
-0.09
-0.06
-0.07
-0.045
-0.07
-0.1
-0.085
-0.075
-0.06
-0.085
-0.075
-0.075
-0.07
-0.06
-0.075
-0.085
-0.03
-0.06
-0.055
-0.055
-0.03
-0.045
-0.01
0.01
-0.015
-0.04
-0.02
-0.01
-0.04
-0.04
-0.06
-0.05
-0.095
-0.07
-0.105
-0.07
-0.085
-0.09
-0.095
-0.085
-0.11
-0.1
-0.095
-0.07
-0.11
-0.105
-0.11
-0.11
-0.105
-0.115
-0.105
-0.09
-0.125
-0.095
-0.105
-0.095
-0.105
-0.105
-0.135
-0.145
-0.07
-0.09
-0.1
-0.075
-0.1
-0.13
-0.14
-0.115
-0.135
-0.175
-0.2
-0.205
-0.155
-0.1
-0.08
0.0
0.15
0.32
0.48
0.59
0.69
0.755
0.645
0.515
0.4
0.37
0.255
0.08
-0.085
-0.295
-0.275
-0.21
-0.205
-0.135
-0.105
-0.075
-0.1
-0.145
-0.09
-0.125
-0.125
-0.135
-0.115
-0.1
-0.09
-0.125
-0.13
-0.135
-0.115
-0.125
-0.135
-0.16
-0.11
-0.105
-0.115
-0.115
-0.115
-0.125
-0.165
-0.115
-0.135
-0.125
-0.095
-0.115
-0.14
-0.095
-0.085
-0.105
-0.14
-0.095
-0.11
-0.135
-0.13
-0.07
-0.105
-0.105
-0.125
-0.105
-0.095
-0.13
-0.12
-0.125
-0.08
-0.11
-0.1
-0.085
-0.115
-0.1
-0.125
-0.095
-0.095
-0.105
-0.145
-0.15
-0.09
-0.06
-0.085
-0.085
-0.06
-0.075
-0.1
-0.075
-0.08
-0.095
-0.06
-0.06
-0.06
-0.04
-0.03
-0.05
-0.03
-0.02
-0.035
-0.015
-0.01
-0.025
-0.005
-0.01
0.015
0.025
0.01
0.03
0.065
0.035
0.045
0.045
0.045
0.045
0.08
0.085
0.095
0.08
0.1
0.075
0.095
0.1
0.07
0.065
0.075
0.065
0.08
0.06
0.04
0.01
0.02
0.02
-0.02
0.015
-0.03
-0.045
0.0
-0.035
-0.04
-0.055
-0.055
-0.06
-0.09
-0.06
-0.1
-0.095
-0.065
-0.11
-0.135
-0.11
-0.08
-0.105
-0.14
-0.11
-0.11
-0.115
-0.14
-0.115
-0.1
-0.095
-0.13
-0.105
-0.125
-0.125
-0.08
-0.075
-0.135
-0.125
-0.125
-0.12
-0.11
-0.125
-0.14
-0.12
-0.135
-0.115
-0.1
-0.115
-0.125
-0.1
-0.16
-0.095
-0.145
-0.15
-0.14
-0.145
-0.085
-0.085
-0.13
-0.125
-0.135
-0.105
-0.12
-0.115
-0.1
-0.16
-0.15
-0.11
-0.12
-0.115
-0.12
-0.11
-0.11
-0.15
-0.13
-0.115
-0.11
-0.105
-0.115
-0.115
-0.11
-0.12
-0.105
-0.125
-0.12
-0.11
-0.135
-0.11
-0.095
-0.1
-0.1
-0.095
-0.125
-0.125
-0.13
-0.145
-0.12
-0.11
-0.105
-0.105
-0.135
-0.125
-0.08
-0.105
-0.105
-0.095
-0.135
-0.115
-0.105
-0.11
-0.105
-0.15
-0.145
-0.125
-0.1
-0.14
-0.12
-0.125
-0.17
-0.085
-0.12
-0.115
-0.14
-0.085
-0.095
-0.145
-0.125
-0.11
-0.115
-0.11
-0.125
-0.12
-0.115
-0.11
-0.1
-0.125
-0.105
-0.105
-0.13
-0.115
-0.11
-0.11
-0.11
-0.135
-0.12
-0.105
-0.125
-0.145
-0.135
-0.115
-0.11
-0.115
-0.1
-0.105
-0.125
-0.145
-0.105
-0.115
-0.12
-0.12
-0.11
-0.1
-0.125
-0.13
-0.09
-0.13
-0.13
-0.155
-0.13
-0.11
-0.09
-0.1
-0.12
-0.12
-0.145
-0.135
-0.12
-0.105
-0.095
-0.095
-0.115
-0.12
-0.115
-0.125
-0.12
-0.11
-0.09
-0.11
-0.1
-0.09
-0.095
-0.13
-0.125
-0.11
-0.115
-0.115
-0.07
-0.06
-0.07
-0.05
-0.075
-0.045
-0.04
-0.085
-0.125
-0.05
-0.035
-0.03
-0.03
-0.065
-0.07
-0.065
-0.075
-0.125
-0.125
-0.125
-0.125
-0.145
-0.135
-0.12
-0.115
-0.11
-0.12
-0.145
-0.145
-0.14
-0.16
-0.17
-0.125
-0.135
-0.135
-0.13
-0.12
-0.135
-0.145
-0.125
-0.135
-0.115
-0.175
-0.145
-0.14
-0.115
-0.15
-0.165
-0.17
-0.145
-0.155
-0.15
-0.15
-0.2
-0.245
-0.26
-0.195
-0.185
-0.11
-0.02
0.13
0.295
0.47
0.595
0.7
0.725
0.595
0.505
0.37
0.345
0.22
0.04
-0.19
-0.345
-0.37
-0.245
-0.2
-0.155
-0.145
-0.135
-0.155
-0.135
-0.125
-0.17
-0.135
-0.16
-0.175
-0.15
-0.18
-0.18
-0.17
-0.155
-0.145
-0.135
-0.145
-0.17
-0.17
-0.155
-0.16
-0.18
-0.16
-0.16
-0.145
-0.155
-0.145
-0.16
-0.155
-0.155
-0.14
-0.15
-0.145
-0.125
-0.18
-0.18
-0.16
-0.175
-0.13
-0.16
-0.15
-0.15
-0.155
-0.145
-0.155
-0.15
-0.155
-0.15
-0.16
-0.14
-0.12
-0.15
-0.125
-0.13
-0.135
-0.16
-0.13
-0.11
-0.12
-0.115
-0.13
-0.115
-0.175
-0.13
-0.125
-0.11
-0.105
-0.12
-0.095
-0.115
-0.095
-0.1
-0.09
-0.085
-0.075
-0.085
-0.075
-0.05
-0.08
-0.065
-0.055
-0.04
-0.03
-0.045
-0.025
-0.025
-0.01
-0.015
0.0
0.015
0.025
0.025
0.045
0.08
0.095
0.07
0.035
0.075
0.06
0.055
0.035
0.05
0.09
0.055
0.085
0.035
0.035
0.035
0.02
-0.025
0.01
0.02
-0.035
-0.035
-0.025
-0.06
-0.095
-0.075
-0.08
-0.075
-0.1
-0.11
-0.105
-0.09
-0.105
-0.12
-0.125
-0.115
-0.13
-0.14
-0.165
-0.18
-0.135
-0.135
-0.165
-0.15
-0.12
-0.115
-0.145
-0.16
-0.145
-0.175
-0.16
-0.145
-0.135
-0.145
-0.175
-0.175
-0.17
-0.17
-0.145
-0.165
-0.165
-0.185
-0.175
-0.175
-0.13
-0.15
-0.15
-0.145
-0.15
-0.16
-0.125
-0.155
-0.18
-0.165
-0.16
-0.155
-0.155
-0.155
-0.155
-0.165
-0.15
-0.155
-0.155
-0.145
-0.15
-0.18
-0.135
-0.17
-0.15
-0.16
-0.15
-0.155
-0.115
-0.15
-0.15
-0.17
-0.17
-0.135
-0.13
-0.14
-0.135
-0.15
-0.165
-0.15
-0.14
-0.175
-0.16
-0.16
-0.15
-0.135
-0.135
-0.155
-0.15
-0.15
-0.16
-0.175
-0.18
-0.185
-0.17
-0.135
-0.12
-0.13
-0.14
-0.145
-0.13
-0.125
-0.14
-0.175
-0.145
-0.17
-0.16
-0.16
-0.185
-0.14
-0.16
-0.17
-0.16
-0.155
-0.155
-0.125
-0.14
-0.145
-0.15
-0.15
-0.15
-0.17
-0.175
-0.16
-0.145
-0.135
-0.15
-0.14
-0.16
-0.16
-0.155
-0.175
-0.16
-0.16
-0.155
-0.165
-0.155
-0.205
-0.175
-0.19
-0.175
-0.215
-0.185
-0.15
-0.145
-0.155
-0.125
-0.15
-0.17
-0.155
-0.185
-0.125
-0.13
-0.125
-0.165
-0.155
-0.085
-0.12
-0.135
-0.165
-0.155
-0.125
-0.1
-0.09
-0.105
-0.1
-0.09
-0.095
-0.075
-0.075
-0.07
-0.115
-0.105
-0.09
-0.105
-0.105
-0.115
-0.145
-0.19
-0.14
-0.16
-0.165
-0.16
-0.195
-0.16
-0.185
-0.205
-0.18
-0.16
-0.17
-0.14
-0.13
-0.16
-0.18
-0.2
-0.185
-0.15
-0.18
-0.18
-0.18
-0.17
-0.18
-0.16
-0.16
-0.165
-0.185
-0.16
-0.16
-0.195
-0.2
-0.16
-0.21
-0.195
-0.225
-0.235
-0.255
-0.26
-0.205
-0.175
-0.085
0.04
0.18
0.36
0.48
0.61
0.625
0.5
0.355
0.295
0.255
0.125
-0.065
-0.28
-0.43
-0.48
-0.435
-0.36
-0.26
-0.22
-0.16
-0.15
-0.065
-0.105
-0.175
-0.275
-0.2
-0.215
-0.19
-0.215
-0.235
-0.195
-0.19
-0.2
-0.21
-0.215
-0.18
-0.185
-0.195
-0.19
-0.225
-0.195
-0.185
-0.185
-0.2
-0.175
-0.18
-0.17
-0.19
-0.155
-0.195
-0.2
-0.195
-0.19
-0.17
-0.195
-0.145
-0.175
-0.165
-0.185
-0.155
-0.165
-0.185
-0.165
-0.14
-0.185
-0.115
-0.145
-0.185
-0.225
-0.18
-0.16
-0.135
-0.155
-0.145
-0.13
-0.135
-0.15
-0.145
-0.155
-0.135
-0.13
-0.14
-0.15
-0.145
-0.105
-0.11
-0.105
-0.105
-0.12
-0.115
-0.08
-0.11
-0.085
-0.08
-0.09
-0.08
-0.1
-0.065
-0.055
-0.055
-0.045
-0.01
-0.015
-0.01
-0.01
-0.045
-0.06
0.03
0.02
0.015
0.01
0.025
0.01
0.015
0.055
0.035
0.01
0.005
-0.02
0.03
0.02
0.025
0.035
0.035
0.02
-0.005
-0.025
-0.03
-0.03
-0.035
-0.065
-0.04
-0.065
-0.045
-0.055
-0.115
-0.095
-0.14
-0.12
-0.12
-0.115
-0.14
-0.15
-0.15
-0.18
-0.155
-0.165
-0.19
-0.2
-0.225
-0.145
-0.135
-0.18
-0.175
-0.165
-0.18
-0.195
-0.18
-0.2
-0.22
-0.215
-0.17
-0.205
-0.195
-0.21
-0.21
-0.195
-0.16
-0.19
-0.215
-0.185
-0.205
-0.19
-0.215
-0.205
-0.22
-0.185
-0.17
-0.175
-0.2
-0.205
-0.205
-0.175
-0.22
-0.18
-0.165
-0.18
-0.165
-0.21
-0.18
-0.19
-0.185
-0.19
-0.2
-0.14
-0.17
-0.175
-0.165
-0.18
-0.17
-0.17
-0.155
-0.16
-0.16
-0.18
-0.185
-0.165
-0.175
-0.215
-0.185
-0.175
-0.19
-0.19
-0.2
-0.17
-0.16
-0.18
-0.18
-0.215
-0.21
-0.21
-0.17
-0.15
-0.165
-0.215
-0.2
-0.18
-0.205
-0.235
-0.16
-0.155
-0.17
-0.2
-0.205
-0.19
-0.215
-0.22
-0.195
-0.16
-0.145
-0.185
-0.175
-0.185
-0.17
-0.165
-0.17
-0.16
-0.16
-0.175
-0.16
-0.17
-0.175
-0.15
-0.15
-0.13
-0.12
-0.12
-0.105
-0.11
-0.14
-0.11
-0.125
-0.145
-0.13
-0.135
-0.115
-0.135
-0.165
-0.195
-0.18
-0.175
-0.195
-0.195
-0.175
-0.215
-0.225
-0.19
-0.21
-0.21
-0.21
-0.24
-0.23
-0.245
-0.23
-0.2
-0.185
-0.18
-0.185
-0.22
-0.225
-0.18
-0.19
-0.2
-0.21
-0.19
-0.21
-0.22
-0.2
-0.215
-0.22
-0.215
-0.245
-0.215
-0.245
-0.255
-0.255
-0.26
-0.28
-0.285
-0.255
-0.205
-0.09
0.035
0.2
0.345
0.495
0.55
0.43
0.36
0.255
0.225
0.135
-0.005
-0.17
-0.4
-0.505
-0.5
-0.465
-0.375
-0.33
-0.31
-0.24
-0.195
-0.22
-0.22
-0.245
-0.225
-0.24
-0.255
-0.25
-0.215
-0.245
-0.23
-0.23
-0.22
-0.235
-0.215
-0.225
-0.245
-0.245
-0.19
-0.22
-0.205
-0.225
-0.235
-0.22
-0.265
-0.22
-0.235
-0.23
-0.185
-0.235
-0.225
-0.245
-0.21
-0.225
-0.205
-0.23
-0.215
-0.205
-0.21
-0.215
-0.215
-0.21
-0.22
-0.205
-0.205
-0.22
-0.21
-0.195
-0.21
-0.175
-0.205
-0.2
-0.215
-0.21
-0.16
-0.2
-0.18
-0.165
-0.175
-0.22
-0.165
-0.215
-0.21
-0.125
-0.125
-0.15
-0.13
-0.155
-0.15
-0.145
-0.12
-0.155
-0.11
-0.135
-0.12
-0.11
-0.11
-0.085
-0.095
-0.08
-0.085
-0.045
-0.04
-0.025
-0.045
-0.03
-0.03
-0.025
-0.01
0.0
-0.015
0.01
-0.04
0.02
0.01
0.005
-0.015
0.03
0.01
-0.005
-0.035
-0.065
-0.02
-0.03
-0.045
-0.055
-0.095
-0.12
-0.06
-0.09
-0.085
-0.12
-0.11
-0.125
-0.14
-0.145
-0.175
-0.16
-0.16
-0.175
-0.185
-0.185
-0.22
-0.205
-0.21
-0.22
-0.23
-0.21
-0.22
-0.22
-0.23
-0.245
-0.23
-0.215
-0.24
-0.235
-0.225
-0.215
-0.25
-0.24
-0.235
-0.24
-0.245
-0.205
-0.23
-0.255
-0.225
-0.22
-0.235
-0.215
-0.22
-0.24
-0.23
-0.22
-0.23
-0.245
-0.265
-0.255
-0.235
-0.185
-0.245
-0.24
-0.24
-0.245
-0.225
-0.23
-0.235
-0.225
-0.23
-0.23
-0.25
-0.23
-0.245
-0.25
-0.24
-0.205
-0.215
-0.21
-0.215
-0.23
-0.235
-0.245
-0.195
-0.205
-0.255
-0.26
-0.215
-0.23
-0.21
-0.2
-0.21
-0.215
-0.25
-0.26
-0.2
-0.215
-0.235
-0.25
-0.235
-0.22
-0.22
-0.215
-0.225
-0.23
-0.24
-0.255
-0.25
-0.265
-0.255
-0.25
-0.235
-0.265
-0.225
-0.24
-0.265
-0.225
-0.215
-0.235
-0.225
-0.175
-0.205
-0.275
-0.235
-0.225
-0.25
-0.24
-0.24
-0.19
-0.19
-0.215
-0.22
-0.2
-0.195
-0.195
-0.21
-0.185
-0.175
-0.195
-0.16
-0.16
-0.16
-0.175
-0.165
-0.21
-0.175
-0.205
-0.21
-0.25
-0.2
-0.22
-0.255
-0.285
-0.26
-0.275
-0.26
-0.245
-0.24
-0.24
-0.25
-0.245
-0.255
-0.28
-0.275
-0.265
-0.255
-0.25
-0.255
-0.24
-0.265
-0.27
-0.26
-0.27
-0.255
-0.265
-0.27
-0.285
-0.26
-0.295
-0.26
-0.25
-0.275
-0.27
-0.265
-0.305
-0.345
-0.39
-0.4
-0.335
-0.3
-0.175
-0.095
0.035
0.18
0.385
0.5
0.59
0.55
0.47
0.34
0.31
0.245
0.04
-0.12
-0.325
-0.475
-0.475
-0.37
-0.36
-0.295
-0.28
-0.265
-0.28
-0.235
-0.275
-0.265
-0.25
-0.265
-0.28
-0.27
-0.28
-0.285
-0.28
-0.305
-0.265
-0.29
-0.295
-0.255
-0.255
-0.28
-0.3
-0.295
-0.265
-0.29
-0.28
-0.27
-0.265
-0.28
-0.285
-0.31
-0.275
-0.275
-0.255
-0.22
-0.265
-0.275
-0.305
-0.285
-0.255
-0.24
-0.265
-0.29
-0.26
-0.255
-0.265
-0.27
-0.25
-0.26
-0.26
-0.265
-0.24
-0.275
-0.235
-0.23
-0.25
-0.255
-0.275
-0.27
-0.235
-0.26
-0.255
-0.28
-0.22
-0.235
-0.255
-0.235
-0.235
-0.205
-0.26
-0.17
-0.215
-0.2
-0.205
-0.21
-0.205
-0.195
-0.16
-0.19
-0.145
-0.165
-0.155
-0.17
-0.125
-0.14
-0.155
-0.14
-0.105
-0.09
-0.085
-0.085
-0.09
-0.09
-0.07
-0.075
-0.055
-0.045
-0.085
-0.07
-0.055
-0.06
-0.07
-0.09
-0.085
-0.075
-0.09
-0.1
-0.11
-0.115
-0.135
-0.135
-0.145
-0.125
-0.15
-0.195
-0.185
-0.185
-0.2
-0.245
-0.235
-0.215
-0.23
-0.255
-0.245
-0.25
-0.26
-0.22
-0.245
-0.28
-0.28
-0.265
-0.265
-0.255
-0.265
-0.255
-0.265
-0.275
-0.255
-0.255
-0.25
-0.25
-0.29
-0.26
-0.28
-0.265
-0.255
-0.25
-0.25
-0.295
-0.285
-0.285
-0.29
-0.29
-0.275
-0.27
-0.275
-0.28
-0.27
-0.295
-0.27
-0.31
-0.29
-0.305
-0.27
-0.285
-0.275
-0.255
-0.265
-0.305
-0.265
-0.26
-0.275
-0.27
-0.29
-0.27
-0.295
-0.265
-0.285
-0.245
-0.27
-0.3
-0.275
-0.255
-0.26
-0.275
-0.26
-0.27
-0.275
-0.255
-0.275
-0.245
-0.26
-0.26
-0.27
-0.275
-0.28
-0.265
-0.26
-0.285
-0.27
-0.235
-0.255
-0.275
-0.265
-0.265
-0.265
-0.275
-0.275
-0.255
-0.26
-0.27
-0.325
-0.26
-0.26
-0.265
-0.285
-0.285
-0.245
-0.255
-0.235
-0.255
-0.255
-0.26
-0.245
-0.255
-0.28
-0.27
-0.265
-0.245
-0.24
-0.245
-0.245
-0.265
-0.265
-0.235
-0.225
-0.225
-0.21
-0.215
-0.19
-0.215
-0.195
-0.215
-0.24
-0.2
-0.21
-0.165
-0.18
-0.21
-0.18
-0.185
-0.215
-0.235
-0.205
-0.26
-0.26
-0.285
-0.265
-0.24
-0.28
-0.255
-0.275
-0.26
-0.285
-0.32
-0.285
-0.275
-0.28
-0.28
-0.255
-0.265
-0.27
-0.27
-0.3
-0.285
-0.265
-0.29
-0.285
-0.3
-0.26
-0.31
-0.295
-0.265
-0.275
-0.28
-0.285
-0.25
-0.27
-0.28
-0.31
-0.345
-0.395
-0.38
-0.4
-0.34
-0.295
-0.22
-0.125
0.005
0.195
0.37
0.48
0.525
0.58
0.46
0.325
0.26
0.185
0.045
-0.115
-0.32
-0.46
-0.48
-0.365
-0.36
-0.305
-0.29
-0.26
-0.29
-0.295
-0.26
-0.29
-0.3
-0.28
-0.285
-0.32
-0.305
-0.28
-0.28
-0.28
-0.3
-0.3
-0.295
-0.3
-0.315
-0.295
-0.31
-0.275
-0.305
-0.305
-0.29
-0.31
-0.285
-0.28
-0.275
-0.295
-0.27
-0.29
-0.295
-0.3
-0.285
-0.295
-0.305
-0.28
-0.285
-0.27
-0.275
-0.275
-0.285
-0.31
-0.285
-0.275
-0.295
-0.295
-0.305
-0.275
-0.265
-0.27
-0.28
-0.265
-0.255
-0.3
-0.285
-0.26
-0.28
-0.27
-0.24
-0.21
-0.26
-0.26
-0.275
-0.275
-0.27
-0.25
-0.245
-0.28
-0.225
-0.24
-0.215
-0.235
-0.22
-0.225
-0.21
-0.205
-0.16
-0.17
-0.18
-0.16
-0.19
-0.17
-0.175
-0.155
-0.165
-0.145
-0.13
-0.08
-0.115
-0.09
-0.095
-0.1
-0.095
-0.11
-0.11
-0.095
-0.09
-0.095
-0.125
-0.105
-0.085
-0.11
-0.125
-0.095
-0.11
-0.135
-0.165
-0.135
-0.145
-0.205
-0.22
-0.175
-0.22
-0.215
-0.24
-0.24
-0.25
-0.265
-0.29
-0.245
-0.255
-0.255
-0.265
-0.26
-0.25
-0.28
-0.275
-0.285
-0.305
-0.3
-0.28
-0.285
-0.315
-0.305
-0.27
-0.285
-0.28
-0.285
-0.27
-0.3
-0.315
-0.32
-0.32
-0.285
-0.3
-0.3
-0.285
-0.325
-0.3
-0.265
-0.27
-0.285
-0.31
-0.31
-0.295
-0.325
-0.3
-0.3
-0.285
-0.295
-0.285
-0.33
-0.295
-0.3
-0.32
-0.255
-0.3
-0.275
-0.3
-0.285
-0.305
-0.27
-0.29
-0.295
-0.31
-0.275
-0.295
-0.305
-0.29
-0.31
-0.32
-0.275
-0.265
-0.27
-0.285
-0.3
-0.28
-0.3
-0.3
-0.305
-0.275
-0.31
-0.29
-0.275
-0.3
-0.29
-0.305
-0.28
-0.255
-0.31
-0.295
-0.295
-0.26
-0.285
-0.29
-0.28
-0.275
-0.3
-0.305
-0.325
-0.275
-0.26
-0.285
-0.29
-0.29
-0.285
-0.305
-0.255
-0.295
-0.285
-0.285
-0.29
-0.32
-0.315
-0.3
-0.28
-0.32
-0.31
-0.265
-0.27
-0.255
-0.275
-0.28
-0.27
-0.255
-0.29
-0.27
-0.265
-0.285
-0.25
-0.265
-0.25
-0.26
-0.215
-0.25
-0.19
-0.205
-0.22
-0.21
-0.21
-0.23
-0.225
-0.24
-0.25
-0.245
-0.255
-0.255
-0.29
-0.285
-0.27
-0.295
-0.29
-0.3
-0.305
-0.33
-0.33
-0.27
-0.275
-0.29
-0.295
-0.295
-0.305
-0.285
-0.31
-0.365
-0.34
-0.315
-0.315
-0.28
-0.28
-0.305
-0.3
-0.29
-0.315
-0.305
-0.31
-0.31
-0.345
-0.31
-0.3
-0.325
-0.34
-0.34
-0.395
-0.405
-0.475
-0.365
-0.315
-0.265
-0.205
-0.04
0.165
0.3
0.43
0.5
0.56
0.49
0.345
0.245
0.19
0.07
-0.1
-0.355
-0.535
-0.525
-0.425
-0.34
-0.33
-0.355
-0.315
-0.295
-0.27
-0.335
-0.305
-0.315
-0.315
-0.335
-0.36
-0.31
-0.35
-0.37
-0.32
-0.31
-0.32
-0.325
-0.32
-0.32
-0.31
-0.315
-0.32
-0.355
-0.305
-0.325
-0.325
-0.325
-0.305
-0.31
-0.325
-0.32
-0.34
-0.35
-0.315
-0.315
-0.325
-0.315
-0.325
-0.355
-0.28
-0.28
-0.29
-0.31
-0.29
-0.29
-0.32
-0.34
-0.3
-0.31
-0.29
-0.29
-0.315
-0.3
-0.3
-0.315
-0.325
-0.325
-0.305
-0.33
-0.305
-0.275
-0.305
-0.285
-0.29
-0.34
-0.25
-0.29
-0.25
-0.255
-0.25
-0.265
-0.27
-0.255
-0.25
-0.265
-0.245
-0.235
-0.225
-0.22
-0.2
-0.215
-0.175
-0.185
-0.195
-0.17
-0.18
-0.175
-0.14
-0.135
-0.145
-0.135
-0.135
-0.145
-0.11
-0.11
-0.115
-0.1
-0.125
-0.115
-0.085
-0.12
-0.115
-0.115
-0.135
-0.15
-0.145
-0.14
-0.175
-0.13
-0.155
-0.17
-0.225
-0.185
-0.195
-0.235
-0.265
-0.195
-0.265
-0.26
-0.25
-0.28
-0.285
-0.32
-0.27
-0.3
-0.325
-0.26
-0.29
-0.305
-0.29
-0.285
-0.305
-0.305
-0.3
-0.3
-0.31
-0.31
-0.295
-0.305
-0.32
-0.335
-0.295
-0.335
-0.32
-0.325
-0.29
-0.33
-0.305
-0.3
-0.32
-0.305
-0.32
-0.32
-0.31
-0.31
-0.33
-0.365
-0.35
-0.315
-0.29
-0.29
-0.305
-0.35
-0.305
-0.315
-0.31
-0.315
-0.345
-0.3
-0.3
-0.315
-0.295
-0.285
-0.32
-0.34
-0.29
-0.31
-0.3
-0.33
-0.33
-0.31
-0.325
-0.305
-0.325
-0.32
-0.325
-0.305
-0.29
-0.32
-0.305
-0.3
-0.3
-0.295
-0.3
-0.295
-0.3
-0.315
-0.305
-0.315
-0.33
-0.295
-0.305
-0.305
-0.295
-0.31
-0.325
-0.315
-0.29
-0.29
-0.265
-0.3
-0.3
-0.31
-0.31
-0.32
-0.32
-0.3
-0.295
-0.355
-0.295
-0.285
-0.305
-0.305
-0.32
-0.315
-0.285
-0.335
-0.26
-0.285
-0.29
-0.315
-0.31
-0.295
-0.305
-0.29
-0.32
-0.295
-0.315
-0.29
-0.31
-0.32
-0.3
-0.305
-0.3
-0.275
-0.28
-0.315
-0.295
-0.28
-0.27
-0.265
-0.27
-0.275
-0.295
-0.305
-0.265
-0.255
-0.225
-0.225
-0.22
-0.235
-0.225
-0.23
-0.25
-0.235
-0.28
-0.275
-0.285
-0.245
-0.275
-0.275
-0.275
-0.295
-0.335
-0.315
-0.325
-0.32
-0.315
-0.29
-0.32
-0.305
-0.35
-0.27
-0.29
-0.315
-0.31
-0.32
-0.325
-0.295
-0.355
-0.355
-0.33
-0.32
-0.3
-0.295
-0.325
-0.3
-0.31
-0.32
-0.325
-0.33
-0.315
-0.31
-0.325
-0.315
-0.325
-0.375
-0.415
-0.44
-0.405
-0.37
-0.325
-0.235
-0.105
0.05
0.225
0.385
0.46
0.53
0.495
0.425
0.255
0.23
0.125
-0.01
-0.245
-0.435
-0.515
-0.435
-0.38
-0.365
-0.32
-0.33
-0.345
-0.33
-0.33
-0.33
-0.29
-0.31
-0.33
-0.345
-0.315
-0.31
-0.33
-0.31
-0.32
-0.335
-0.32
-0.34
-0.325
-0.335
-0.335
-0.28
-0.34
-0.315
-0.305
-0.33
-0.3
-0.3
-0.31
-0.31
-0.325
-0.3
-0.32
-0.335
-0.31
-0.32
-0.32
-0.325
-0.32
-0.295
-0.315
-0.29
-0.29
-0.295
-0.32
-0.355
-0.305
-0.24
-0.29
-0.295
-0.295
-0.305
-0.275
-0.275
-0.27
-0.305
-0.315
-0.305
-0.305
-0.29
-0.27
-0.265
-0.28
-0.285
-0.26
-0.27
-0.285
-0.255
-0.26
-0.27
-0.245
-0.25
-0.25
-0.23
-0.265
-0.21
-0.24
-0.195
-0.22
-0.23
-0.21
-0.175
-0.18
-0.16
-0.17
-0.17
-0.15
-0.115
-0.14
-0.15
-0.115
-0.125
-0.13
-0.07
-0.1
-0.11
-0.1
-0.07
-0.055
-0.065
-0.115
-0.13
-0.125
-0.085
-0.085
-0.12
-0.14
-0.145
-0.125
-0.115
-0.165
-0.16
-0.15
-0.15
-0.2
-0.22
-0.21
-0.205
-0.245
-0.245
-0.235
-0.3
-0.285
-0.28
-0.27
-0.22
-0.23
-0.255
-0.29
-0.27
-0.29
-0.29
-0.275
-0.3
-0.285
-0.27
-0.275
-0.29
-0.285
-0.285
-0.295
-0.3
-0.31
-0.3
-0.295
-0.285
-0.325
-0.29
-0.28
-0.275
-0.285
-0.285
-0.32
-0.3
-0.28
-0.3
-0.285
-0.33
-0.315
-0.255
-0.285
-0.295
-0.33
-0.3
-0.325
-0.26
-0.28
-0.265
-0.3
-0.285
-0.29
-0.27
-0.285
-0.3
-0.305
-0.3
-0.3
-0.31
-0.3
-0.28
-0.29
-0.265
-0.285
-0.305
-0.315
-0.27
-0.275
-0.27
-0.285
-0.3
-0.3
-0.3
-0.29
-0.285
-0.28
-0.28
-0.285
-0.29
-0.285
-0.26
-0.265
-0.285
-0.295
-0.29
-0.27
-0.29
-0.275
-0.27
-0.26
-0.285
-0.27
-0.305
-0.295
-0.255
-0.295
-0.265
-0.28
-0.285
-0.27
-0.32
-0.28
-0.285
-0.3
-0.3
-0.275
-0.3
-0.265
-0.275
-0.255
-0.265
-0.295
-0.295
-0.295
-0.305
-0.28
-0.27
-0.28
-0.3
-0.27
-0.26
-0.3
-0.295
-0.3
-0.275
-0.275
-0.285
-0.285
-0.3
-0.29
-0.29
-0.285
-0.28
-0.285
-0.285
-0.29
-0.265
-0.28
-0.275
-0.275
-0.285
-0.29
-0.28
-0.28
-0.245
-0.255
-0.255
-0.235
-0.26
-0.215
-0.22
-0.215
-0.245
-0.25
-0.235
-0.215
-0.225
-0.2
-0.255
-0.225
-0.205
-0.24
-0.26
-0.27
-0.27
-0.27
-0.285
-0.3
-0.325
-0.29
-0.33
-0.295
-0.305
-0.3
-0.31
-0.3
-0.305
-0.275
-0.295
-0.285
-0.31
-0.275
-0.28
-0.325
-0.305
-0.295
-0.27
-0.33
-0.295
-0.32
-0.305
-0.305
-0.295
-0.305
-0.31
-0.29
-0.28
-0.315
-0.32
-0.365
-0.375
-0.43
-0.4
-0.38
-0.295
-0.265
-0.165
-0.04
0.155
0.325
0.435
0.495
0.57
0.525
0.39
0.265
0.22
0.085
-0.125
-0.33
-0.47
-0.495
-0.39
-0.36
-0.305
-0.295
-0.3
-0.315
-0.285
-0.29
-0.305
-0.3
-0.32
-0.32
-0.31
-0.305
-0.315
-0.325
-0.32
-0.32
-0.35
-0.27
-0.315
-0.29
-0.315
-0.31
-0.31
-0.295
-0.325
-0.315
-0.305
-0.3
-0.28
-0.32
-0.295
-0.31
-0.28
-0.285
-0.34
-0.275
-0.29
-0.3
-0.31
-0.305
-0.295
-0.3
-0.285
-0.31
-0.295
-0.285
-0.285
-0.285
-0.31
-0.28
-0.285
-0.265
-0.27
-0.29
-0.295
-0.275
-0.265
-0.27
-0.255
-0.28
-0.27
-0.25
-0.27
-0.25
-0.25
-0.245
-0.3
-0.26
-0.285
-0.22
-0.245
-0.225
-0.235
-0.24
-0.215
-0.195
-0.215
-0.215
-0.19
-0.19
-0.2
-0.18
-0.19
-0.17
-0.145
-0.135
-0.13
-0.135
-0.105
-0.115
-0.11
-0.075
-0.095
-0.11
-0.09
-0.08
-0.08
-0.08
-0.085
-0.065
-0.07
-0.075
-0.075
-0.08
-0.085
-0.075
-0.1
-0.115
-0.12
-0.105
-0.115
-0.155
-0.155
-0.16
-0.18
-0.185
-0.21
-0.21
-0.205
-0.185
-0.2
-0.24
-0.24
-0.23
-0.225
-0.24
-0.27
-0.22
-0.26
-0.265
-0.255
-0.26
-0.33
-0.29
-0.235
-0.27
-0.25
-0.25
-0.315
-0.285
-0.28
-0.26
-0.245
-0.27
-0.265
-0.28
-0.29
-0.275
-0.295
-0.27
-0.26
-0.29
-0.28
-0.265
-0.265
-0.305
-0.29
-0.27
-0.26
-0.29
-0.245
-0.265
-0.27
-0.28
-0.28
-0.27
-0.275
-0.3
-0.235
-0.26
-0.275
-0.265
-0.26
-0.285
-0.32
-0.28
-0.28
-0.27
-0.29
-0.28
-0.26
-0.25
-0.26
-0.275
-0.29
-0.27
-0.265
-0.265
-0.275
-0.275
-0.26
-0.255
-0.275
-0.26
-0.25
-0.255
-0.255
-0.27
-0.28
-0.235
-0.245
-0.24
-0.27
-0.245
-0.275
-0.25
-0.265
-0.265
-0.3
-0.235
-0.265
-0.275
-0.245
-0.23
-0.25
-0.265
-0.25
-0.245
-0.255
-0.24
-0.275
-0.25
-0.245
-0.25
-0.26
-0.265
-0.25
-0.27
-0.26
-0.245
-0.255
-0.26
-0.255
-0.265
-0.27
-0.255
-0.26
-0.26
-0.26
-0.26
-0.245
-0.28
-0.28
-0.255
-0.285
-0.29
-0.245
-0.245
-0.25
-0.25
-0.25
-0.25
-0.27
-0.255
-0.27
-0.295
-0.27
-0.22
-0.27
-0.265
-0.25
-0.23
-0.255
-0.28
-0.235
-0.265
-0.255
-0.22
-0.26
-0.24
-0.245
-0.235
-0.25
-0.24
-0.23
-0.22
-0.215
-0.2
-0.24
-0.2
-0.17
-0.195
-0.155
-0.175
-0.195
-0.205
-0.205
-0.195
-0.21
-0.19
-0.205
-0.245
-0.265
-0.275
-0.245
-0.245
-0.265
-0.265
-0.255
-0.26
-0.255
-0.275
-0.27
-0.28
-0.275
-0.265
-0.26
-0.28
-0.285
-0.245
-0.28
-0.255
-0.255
-0.26
-0.29
-0.27
-0.285
-0.275
-0.285
-0.3
-0.28
-0.24
-0.26
-0.26
-0.255
-0.255
-0.315
-0.28
-0.31
-0.35
-0.375
-0.375
-0.305
-0.28
-0.23
-0.125
-0.005
0.185
0.315
0.48
0.57
0.61
0.455
0.33
0.25
0.155
0.08
-0.13
-0.345
-0.495
-0.52
-0.415
-0.335
-0.34
-0.29
-0.26
-0.26
-0.27
-0.28
-0.295
-0.265
-0.26
-0.325
-0.255
-0.27
-0.29
-0.3
-0.27
-0.28
-0.27
-0.29
-0.295
-0.32
-0.29
-0.31
-0.275
-0.28
-0.265
-0.26
-0.275
-0.255
-0.265
-0.245
-0.27
-0.25
-0.325
-0.255
-0.27
-0.28
-0.27
-0.26
-0.26
-0.27
-0.285
-0.265
-0.275
-0.255
-0.26
-0.26
-0.25
-0.265
-0.235
-0.265
-0.26
-0.265
-0.25
-0.23
-0.245
-0.24
-0.26
-0.245
-0.22
-0.225
-0.26
-0.225
-0.22
-0.235
-0.265
-0.23
-0.21
-0.23
-0.235
-0.21
-0.19
-0.245
-0.165
-0.185
-0.19
-0.21
-0.16
-0.175
-0.16
-0.185
-0.14
-0.125
-0.14
-0.11
-0.105
-0.09
-0.08
-0.085
-0.115
-0.095
-0.065
-0.085
-0.095
-0.04
-0.05
-0.03
-0.04
-0.055
-0.055
-0.04
-0.065
-0.04
-0.02
-0.03
-0.025
-0.045
-0.065
-0.11
-0.095
-0.08
-0.085
-0.105
-0.105
-0.13
-0.16
-0.155
-0.16
-0.19
-0.15
-0.19
-0.215
-0.195
-0.195
-0.22
-0.215
-0.24
-0.23
-0.24
-0.225
-0.24
-0.24
-0.225
-0.235
-0.255
-0.215
-0.245
-0.25
-0.23
-0.235
-0.285
-0.255
-0.255
-0.27
-0.275
-0.27
-0.275
-0.25
-0.23
-0.25
-0.26
-0.255
-0.26
-0.255
-0.26
-0.265
-0.225
-0.305
-0.265
-0.255
-0.245
-0.285
-0.27
-0.25
-0.24
-0.26
-0.245
-0.305
-0.215
-0.225
-0.245
-0.25
-0.28
-0.255
-0.235
-0.235
-0.225
-0.275
-0.26
-0.24
-0.28
-0.255
-0.235
-0.265
-0.26
-0.22
-0.24
-0.205
-0.245
-0.235
-0.24
-0.245
-0.225
-0.22
-0.21
-0.235
-0.215
-0.24
-0.225
-0.25
-0.255
-0.28
-0.26
-0.26
-0.24
-0.245
-0.22
-0.205
-0.24
-0.25
-0.245
-0.24
-0.22
-0.225
-0.205
-0.23
-0.235
-0.235
-0.235
-0.27
-0.245
-0.23
-0.235
-0.245
-0.22
-0.22
-0.245
-0.22
-0.245
-0.23
-0.245
-0.265
-0.22
-0.21
-0.235
-0.26
-0.255
-0.26
-0.245
-0.245
-0.25
-0.23
-0.235
-0.245
-0.24
-0.255
-0.22
-0.225
-0.225
-0.235
-0.225
-0.21
-0.2
-0.21
-0.22
-0.21
-0.21
-0.205
-0.21
-0.205
-0.21
-0.22
-0.2
-0.21
-0.175
-0.16
-0.17
-0.18
-0.19
-0.165
-0.17
-0.145
-0.145
-0.165
-0.15
-0.16
-0.2
-0.195
-0.24
-0.255
-0.27
-0.26
-0.28
-0.23
-0.235
-0.23
-0.245
-0.24
-0.195
-0.27
-0.25
-0.225
-0.23
-0.23
-0.235
-0.275
-0.27
-0.245
-0.22
-0.22
-0.24
-0.27
-0.235
-0.26
-0.225
-0.23
-0.245
-0.245
-0.27
-0.26
-0.255
-0.245
-0.25
-0.27
-0.265
-0.26
-0.295
-0.315
-0.315
-0.305
-0.27
-0.185
-0.085
0.045
0.205
0.325
0.465
0.545
0.49
0.375
0.265
0.22
0.11
-0.045
-0.225
-0.405
-0.55
-0.495
-0.455
-0.335
-0.355
-0.285
-0.26
-0.24
-0.215
-0.26
-0.25
-0.26
-0.255
-0.295
-0.275
-0.265
-0.235
-0.24
-0.26
-0.25
-0.245
-0.26
-0.245
-0.255
-0.285
-0.265
-0.265
-0.26
-0.25
-0.245
-0.24
-0.26
-0.255
-0.235
-0.235
-0.24
-0.27
-0.25
-0.22
-0.22
-0.245
-0.235
-0.25
-0.285
-0.22
-0.27
-0.26
-0.225
-0.215
-0.215
-0.235
-0.235
-0.24
-0.225
-0.22
-0.22
-0.215
-0.215
-0.19
-0.225
-0.25
-0.22
-0.225
-0.22
-0.225
-0.17
-0.19
-0.165
-0.185
-0.185
-0.185
-0.19
-0.22
-0.205
-0.185
-0.16
-0.125
-0.16
-0.165
-0.125
-0.145
-0.14
-0.125
-0.115
-0.12
-0.125
-0.105
-0.09
-0.12
-0.075
-0.065
-0.055
-0.03
-0.05
-0.075
-0.04
-0.025
-0.04
-0.025
-0.02
-0.03
0.01
-0.025
0.0
-0.01
-0.02
-0.005
-0.02
-0.06
-0.025
-0.045
-0.065
-0.05
-0.07
-0.08
-0.1
-0.08
-0.12
-0.14
-0.11
-0.135
-0.15
-0.19
-0.18
-0.19
-0.185
-0.155
-0.19
-0.185
-0.19
-0.23
-0.21
-0.21
-0.21
-0.245
-0.2
-0.225
-0.225
-0.25
-0.21
-0.24
-0.23
-0.245
-0.245
-0.235
-0.23
-0.23
-0.245
-0.255
-0.23
-0.24
-0.26
-0.265
-0.31
-0.26
-0.24
-0.21
-0.21
-0.24
-0.215
-0.23
-0.25
-0.24
-0.25
-0.23
-0.235
-0.255
-0.235
-0.23
-0.24
-0.225
-0.235
-0.24
-0.225
-0.235
-0.225
-0.23
-0.23
-0.235
-0.23
-0.215
-0.25
-0.24
-0.24
-0.235
-0.22
-0.235
-0.215
-0.23
-0.195
-0.24
-0.22
-0.245
-0.22
-0.25
-0.215
-0.21
-0.23
-0.22
-0.235
-0.215
-0.225
-0.225
-0.215
-0.24
-0.24
-0.21
-0.24
-0.215
-0.24
-0.235
-0.255
-0.2
-0.25
-0.21
-0.21
-0.23
-0.235
-0.23
-0.22
-0.225
-0.225
-0.24
-0.23
-0.23
-0.235
-0.245
-0.195
-0.215
-0.225
-0.215
-0.21
-0.215
-0.23
-0.245
-0.23
-0.25
-0.23
-0.23
-0.24
-0.23
-0.22
-0.22
-0.235
-0.225
-0.235
-0.23
-0.235
-0.215
-0.215
-0.22
-0.225
-0.23
-0.205
-0.19
-0.195
-0.2
-0.19
-0.25
-0.205
-0.205
-0.195
-0.175
-0.185
-0.15
-0.175
-0.165
-0.16
-0.18
-0.155
-0.16
-0.19
-0.225
-0.235
-0.245
-0.22
-0.21
-0.225
-0.25
-0.22
-0.24
-0.205
-0.23
-0.215
-0.225
-0.255
-0.245
-0.235
-0.26
-0.235
-0.265
-0.25
-0.255
-0.22
-0.215
-0.24
-0.27
-0.255
-0.245
-0.26
-0.245
-0.26
-0.27
-0.265
-0.24
-0.25
-0.255
-0.23
-0.275
-0.29
-0.235
-0.285
-0.3
-0.31
-0.35
-0.33
-0.275
-0.215
-0.145
-0.03
0.12
0.29
0.415
0.49
0.59
0.43
0.36
0.275
0.23
0.08
-0.07
-0.28
-0.435
-0.495
-0.445
-0.365
-0.305
-0.3
-0.255
-0.265
-0.24
-0.255
-0.29
-0.255
-0.245
-0.27
-0.265
-0.27
-0.275
-0.275
-0.265
-0.26
-0.255
-0.275
-0.28
-0.27
-0.27
-0.255
-0.315
-0.3
-0.29
-0.23
-0.25
-0.23
-0.255
-0.27
-0.26
-0.275
-0.25
-0.235
-0.275
-0.27
-0.27
-0.265
-0.255
-0.285
-0.24
-0.245
-0.26
-0.22
-0.225
-0.255
-0.235
-0.245
-0.265
-0.23
-0.225
-0.275
-0.21
-0.23
-0.27
-0.24
-0.26
-0.26
-0.24
-0.23
-0.225
-0.22
-0.24
-0.215
-0.23
-0.23
-0.21
-0.2
-0.2
-0.215
-0.195
-0.205
-0.215
-0.2
-0.2
-0.195
-0.18
-0.195
-0.145
-0.14
-0.15
-0.12
-0.125
-0.11
-0.13
-0.09
-0.13
-0.075
-0.075
-0.07
-0.085
-0.085
-0.11
-0.105
-0.06
-0.06
-0.035
-0.02
-0.025
-0.02
-0.015
-0.04
-0.03
-0.03
-0.055
-0.06
-0.1
-0.075
-0.08
-0.08
-0.1
-0.165
-0.14
-0.155
-0.12
-0.135
-0.18
-0.155
-0.19
-0.16
-0.19
-0.175
-0.205
-0.225
-0.225
-0.21
-0.235
-0.24
-0.23
-0.25
-0.22
-0.27
-0.245
-0.235
-0.23
-0.245
-0.245
-0.25
-0.245
-0.25
-0.24
-0.26
-0.24
-0.26
-0.25
-0.255
-0.27
-0.29
-0.325
-0.31
-0.255
-0.235
-0.225
-0.26
-0.24
-0.28
-0.255
-0.255
-0.245
-0.265
-0.255
-0.265
-0.275
-0.27
-0.275
-0.28
-0.29
-0.27
-0.26
-0.235
-0.26
-0.215
-0.245
-0.28
-0.26
-0.26
-0.26
-0.255
-0.245
-0.26
-0.235
-0.265
-0.265
-0.245
-0.245
-0.245
-0.265
-0.235
-0.25
-0.26
-0.22
-0.26
-0.23
-0.25
-0.235
-0.225
-0.24
-0.235
-0.25
-0.24
-0.28
-0.26
-0.23
-0.26
-0.275
-0.24
-0.24
-0.215
-0.24
-0.245
-0.26
-0.26
-0.215
-0.255
-0.23
-0.235
-0.225
-0.235
-0.285
-0.245
-0.26
-0.255
-0.29
-0.275
-0.26
-0.255
-0.285
-0.225
-0.225
-0.23
-0.24
-0.255
-0.275
-0.235
-0.265
-0.255
-0.24
-0.25
-0.25
-0.25
-0.255
-0.28
-0.275
-0.27
-0.245
-0.225
-0.225
-0.225
-0.245
-0.245
-0.245
-0.305
-0.245
-0.225
-0.245
-0.245
-0.26
-0.26
-0.26
-0.245
-0.275
-0.28
-0.29
-0.275
-0.28
-0.25
-0.22
-0.22
-0.245
-0.245
-0.24
-0.225
-0.235
-0.245
-0.25
-0.225
-0.23
-0.225
-0.24
-0.225
-0.23
-0.21
-0.235
-0.195
-0.215
-0.195
-0.225
-0.205
-0.17
-0.18
-0.195
-0.18
-0.195
-0.2
-0.185
-0.24
-0.24
-0.27
-0.245
-0.25
-0.265
-0.275
-0.265
-0.29
-0.3
-0.28
-0.275
-0.26
-0.235
-0.235
-0.28
-0.275
-0.27
-0.295
-0.275
-0.235
-0.275
-0.26
-0.27
-0.28
-0.275
-0.305
-0.335
-0.31
-0.27
-0.24
-0.27
-0.265
-0.26
-0.285
-0.31
-0.3
-0.345
-0.345
-0.36
-0.325
-0.31
-0.21
-0.135
0.02
0.16
0.31
0.42
0.49
0.56
0.485
0.35
0.245
0.22
0.1
-0.07
-0.225
-0.42
-0.46
-0.345
-0.32
-0.305
-0.26
-0.29
-0.285
-0.3
-0.275
-0.31
-0.325
-0.305
-0.26
-0.27
-0.255
-0.26
-0.285
-0.3
-0.285
-0.3
-0.3
-0.26
-0.285
-0.275
-0.27
-0.305
-0.285
-0.33
-0.325
-0.29
-0.285
-0.275
-0.26
-0.28
-0.26
-0.27
-0.265
-0.25
-0.275
-0.275
-0.275
-0.245
-0.285
-0.27
-0.29
-0.28
-0.295
-0.28
-0.3
-0.33
-0.29
-0.275
-0.26
-0.265
-0.28
-0.24
-0.23
-0.305
-0.255
-0.27
-0.26
-0.28
-0.26
-0.245
-0.29
-0.265
-0.265
-0.27
-0.245
-0.255
-0.27
-0.25
-0.235
-0.215
-0.205
-0.225
-0.22
-0.2
-0.21
-0.2
-0.19
-0.225
-0.21
-0.22
-0.22
-0.13
-0.18
-0.175
-0.195
-0.19
-0.14
-0.145
-0.11
-0.115
-0.12
-0.115
-0.085
-0.085
-0.11
-0.095
-0.085
-0.075
-0.08
-0.07
-0.105
-0.095
-0.095
-0.065
-0.11
-0.095
-0.085
-0.07
-0.125
-0.11
-0.135
-0.205
-0.15
-0.16
-0.215
-0.195
-0.19
-0.2
-0.205
-0.215
-0.24
-0.22
-0.24
-0.26
-0.25
-0.235
-0.275
-0.29
-0.255
-0.255
-0.28
-0.265
-0.27
-0.26
-0.3
-0.29
-0.26
-0.27
-0.275
-0.225
-0.245
-0.28
-0.265
-0.29
-0.305
-0.305
-0.29
-0.275
-0.265
-0.28
-0.29
-0.26
-0.28
-0.25
-0.295
-0.32
-0.29
-0.3
-0.31
-0.3
-0.29
-0.255
-0.265
-0.255
-0.27
-0.32
-0.305
-0.28
-0.27
-0.28
-0.275
-0.295
-0.285
-0.26
-0.3
-0.33
-0.325
-0.27
-0.275
-0.275
-0.26
-0.285
-0.255
-0.27
-0.28
-0.265
-0.305
-0.29
-0.285
-0.245
-0.24
-0.265
-0.26
-0.265
-0.265
-0.285
-0.275
-0.28
-0.25
-0.27
-0.3
-0.29
-0.275
-0.295
-0.265
-0.28
-0.275
-0.245
-0.26
-0.27
-0.29
-0.255
-0.28
-0.265
-0.26
-0.28
-0.285
-0.26
-0.27
-0.26
-0.28
-0.28
-0.285
-0.29
-0.28
-0.28
-0.285
-0.285
-0.25
-0.255
-0.285
-0.285
-0.295
-0.27
-0.305
-0.265
-0.295
-0.29
-0.24
-0.245
-0.255
-0.285
-0.28
-0.26
-0.28
-0.28
-0.245
-0.275
-0.275
-0.265
-0.28
-0.275
-0.27
-0.28
-0.285
-0.285
-0.26
-0.275
-0.29
-0.25
-0.295
-0.3
-0.27
-0.27
-0.285
-0.275
-0.28
-0.285
-0.255
-0.25
-0.28
-0.28
-0.26
-0.26
-0.26
-0.27
-0.275
-0.29
-0.26
-0.235
-0.245
-0.275
-0.25
-0.24
-0.235
-0.225
-0.2
-0.21
-0.225
-0.225
-0.235
-0.215
-0.22
-0.215
-0.215
-0.25
-0.26
-0.24
-0.255
-0.275
-0.265
-0.285
-0.265
-0.255
-0.305
-0.295
-0.28
-0.29
-0.27
-0.28
-0.29
-0.27
-0.275
-0.3
-0.3
-0.32
-0.325
-0.265
-0.275
-0.31
-0.285
-0.33
-0.35
-0.27
-0.285
-0.275
-0.28
-0.285
-0.3
-0.275
-0.29
-0.3
-0.355
-0.365
-0.385
-0.405
-0.4
-0.34
-0.285
-0.235
-0.12
0.015
0.17
0.29
0.47
0.535
0.55
0.46
0.325
0.265
0.18
0.045
-0.12
-0.355
-0.455
-0.395
-0.39
-0.32
-0.32
-0.295
-0.28
-0.295
-0.315
-0.295
-0.31
-0.31
-0.305
-0.305
-0.315
-0.34
-0.285
-0.28
-0.305
-0.285
-0.29
-0.32
-0.325
-0.31
-0.315
-0.335
-0.33
-0.315
-0.285
-0.305
-0.34
-0.31
-0.305
-0.295
-0.29
-0.31
-0.305
-0.285
-0.295
-0.305
-0.305
-0.275
-0.285
-0.31
-0.28
-0.31
-0.29
-0.295
-0.305
-0.295
-0.305
-0.295
-0.285
-0.305
-0.285
-0.28
-0.31
-0.29
-0.28
-0.28
-0.3
-0.27
-0.25
-0.285
-0.28
-0.275
-0.3
-0.28
-0.29
-0.265
-0.265
-0.245
-0.285
-0.26
-0.22
-0.22
-0.255
-0.24
-0.245
-0.295
-0.215
-0.2
-0.225
-0.23
-0.2
-0.205
-0.205
-0.205
-0.16
-0.175
-0.18
-0.175
-0.13
-0.115
-0.105
-0.11
-0.105
-0.12
-0.13
-0.09
-0.09
-0.115
-0.075
-0.09
-0.07
-0.1
-0.095
-0.1
-0.08
-0.095
-0.09
-0.155
-0.15
-0.11
-0.13
-0.15
-0.205
-0.13
-0.145
-0.18
-0.225
-0.22
-0.225
-0.235
-0.22
-0.245
-0.25
-0.26
-0.265
-0.285
-0.275
-0.305
-0.285
-0.28
-0.28
-0.28
-0.265
-0.29
-0.275
-0.3
-0.29
-0.295
-0.29
-0.3
-0.275
-0.265
-0.26
-0.32
-0.29
-0.3
-0.31
-0.315
-0.315
-0.315
-0.315
-0.315
-0.305
-0.29
-0.31
-0.305
-0.3
-0.31
-0.29
-0.285
-0.285
-0.29
-0.28
-0.3
-0.31
-0.295
-0.315
-0.265
-0.28
-0.31
-0.3
-0.315
-0.31
-0.325
-0.25
-0.305
-0.295
-0.29
-0.27
-0.3
-0.305
-0.305
-0.295
-0.285
-0.29
-0.3
-0.305
-0.295
-0.305
-0.27
-0.27
-0.275
-0.3
-0.295
-0.29
-0.295
-0.29
-0.29
-0.285
-0.285
-0.29
-0.255
-0.295
-0.275
-0.255
-0.295
-0.285
-0.3
-0.29
-0.265
-0.28
-0.305
-0.31
-0.33
-0.265
-0.25
-0.28
-0.3
-0.28
-0.265
-0.28
-0.275
-0.315
-0.305
-0.3
-0.28
-0.29
-0.265
-0.295
-0.3
-0.305
-0.27
-0.285
-0.28
-0.28
-0.285
-0.325
-0.295
-0.3
-0.275
-0.255
-0.27
-0.275
-0.315
-0.27
-0.28
-0.285
-0.285
-0.315
-0.285
-0.295
-0.27
-0.26
-0.295
-0.295
-0.28
-0.285
-0.3
-0.275
-0.3
-0.29
-0.29
-0.285
-0.285
-0.275
-0.26
-0.32
-0.315
-0.25
-0.26
-0.295
-0.28
-0.295
-0.305
-0.275
-0.28
-0.295
-0.285
-0.285
-0.27
-0.295
-0.295
-0.33
-0.265
-0.265
-0.28
-0.26
-0.25
-0.24
-0.265
-0.225
-0.255
-0.23
-0.25
-0.22
-0.225
-0.24
-0.205
-0.235
-0.23
-0.235
-0.27
-0.235
-0.2
-0.25
-0.23
-0.26
-0.27
-0.275
-0.3
-0.305
-0.29
-0.275
-0.33
-0.355
-0.31
-0.29
-0.265
-0.275
-0.32
-0.31
-0.28
-0.305
-0.335
-0.3
-0.285
-0.305
-0.31
-0.295
-0.29
-0.275
-0.3
-0.305
-0.31
-0.325
-0.29
-0.3
-0.32
-0.295
-0.305
-0.34
-0.34
-0.355
-0.37
-0.405
-0.415
-0.4
-0.35
-0.295
-0.195
-0.04
0.105
0.265
0.39
0.49
0.535
0.52
0.395
0.26
0.19
0.095
-0.045
-0.305
-0.46
-0.505
-0.405
-0.355
-0.32
-0.31
-0.305
-0.3
-0.31
-0.35
-0.305
-0.32
-0.29
-0.305
-0.31
-0.32
-0.33
-0.34
-0.32
-0.335
-0.37
-0.31
-0.325
-0.345
-0.33
-0.325
-0.3
-0.32
-0.325
-0.32
-0.315
-0.325
-0.335
-0.335
-0.315
-0.3
-0.325
-0.335
-0.31
-0.315
-0.34
-0.31
-0.31
-0.35
-0.335
-0.28
-0.3
-0.305
-0.275
-0.34
-0.335
-0.315
-0.29
-0.28
-0.295
-0.31
-0.31
-0.295
-0.33
-0.3
-0.29
-0.27
-0.29
-0.3
-0.29
-0.27
-0.285
-0.27
-0.28
-0.29
-0.27
-0.265
-0.295
-0.265
-0.275
-0.28
-0.245
-0.24
-0.215
-0.235
-0.24
-0.205
-0.23
-0.225
-0.2
-0.18
-0.205
-0.19
-0.2
-0.155
-0.14
-0.16
-0.145
-0.165
-0.135
-0.17
-0.11
-0.14
-0.115
-0.11
-0.11
-0.125
-0.1
-0.05
-0.07
-0.09
-0.085
-0.075
-0.1
-0.08
-0.105
-0.14
-0.12
-0.115
-0.115
-0.135
-0.155
-0.175
-0.16
-0.23
-0.175
-0.17
-0.21
-0.205
-0.22
-0.235
-0.255
-0.235
-0.275
-0.26
-0.285
-0.27
-0.26
-0.305
-0.27
-0.3
-0.31
-0.295
-0.27
-0.255
-0.295
-0.275
-0.28
-0.28
-0.305
-0.315
-0.325
-0.3
-0.305
-0.265
-0.285
-0.315
-0.305
-0.29
-0.3
-0.325
-0.31
-0.3
-0.31
-0.295
-0.315
-0.325
-0.285
-0.29
-0.275
-0.28
-0.27
-0.305
-0.31
-0.335
-0.27
-0.29
-0.345
-0.315
-0.285
-0.285
-0.32
-0.285
-0.32
-0.29
-0.285
-0.29
-0.285
-0.26
-0.275
-0.3
-0.265
-0.295
-0.305
-0.295
-0.3
-0.295
-0.305
-0.265
-0.265
-0.28
-0.29
-0.305
-0.315
-0.28
-0.285
-0.29
-0.285
-0.27
-0.285
-0.295
-0.31
-0.3
-0.295
-0.33
-0.265
-0.285
-0.285
-0.28
-0.325
-0.315
-0.29
-0.295
-0.28
-0.265
-0.29
-0.265
-0.29
-0.27
-0.26
-0.295
-0.265
-0.305
-0.295
-0.325
-0.29
-0.29
-0.275
-0.28
-0.275
-0.295
-0.29
-0.3
-0.285
-0.31
-0.31
-0.3
-0.27
-0.285
-0.29
-0.285
-0.285
-0.295
-0.295
-0.285
-0.285
-0.28
-0.295
-0.285
-0.29
-0.275
-0.29
-0.325
-0.295
-0.295
-0.295
-0.285
-0.28
-0.27
-0.275
-0.29
-0.295
-0.285
-0.26
-0.3
-0.305
-0.315
-0.3
-0.265
-0.28
-0.265
-0.285
-0.27
-0.285
-0.275
-0.255
-0.265
-0.24
-0.21
-0.255
-0.24
-0.23
-0.23
-0.235
-0.225
-0.225
-0.24
-0.225
-0.21
-0.235
-0.225
-0.23
-0.24
-0.26
-0.265
-0.3
-0.27
-0.285
-0.29
-0.31
-0.305
-0.3
-0.33
-0.31
-0.31
-0.3
-0.285
-0.27
-0.3
-0.31
-0.33
-0.305
-0.35
-0.34
-0.305
-0.315
-0.31
-0.31
-0.295
-0.29
-0.285
-0.32
-0.315
-0.315
-0.305
-0.315
-0.275
-0.275
-0.305
-0.315
-0.365
-0.395
-0.445
-0.36
-0.345
-0.285
-0.17
-0.035
0.14
0.305
0.415
0.52
0.56
0.49
0.36
0.245
0.205
0.065
-0.13
-0.325
-0.475
-0.525
-0.455
-0.375
-0.35
-0.305
-0.33
-0.34
-0.325
-0.29
-0.295
-0.305
-0.31
-0.305
-0.325
-0.325
-0.345
-0.3
-0.3
-0.31
-0.32
-0.305
-0.33
-0.33
-0.345
-0.33
-0.3
-0.29
-0.29
-0.32
-0.325
-0.355
-0.35
-0.32
-0.3
-0.305
-0.295
-0.295
-0.31
-0.33
-0.32
-0.29
-0.31
-0.31
-0.29
-0.32
-0.28
-0.32
-0.3
-0.325
-0.31
-0.285
-0.295
-0.3
-0.3
-0.29
-0.305
-0.28
-0.285
-0.275
-0.27
-0.3
-0.29
-0.28
-0.285
-0.295
-0.28
-0.29
-0.27
-0.29
-0.275
-0.24
-0.26
-0.295
-0.26
-0.215
-0.22
-0.245
-0.225
-0.23
-0.22
-0.24
-0.225
-0.195
-0.165
-0.205
-0.24
-0.16
-0.19
-0.18
-0.185
-0.145
-0.135
-0.145
-0.135
-0.115
-0.105
-0.09
-0.095
-0.13
-0.085
-0.115
-0.08
-0.08
-0.09
-0.095
-0.08
-0.1
-0.095
-0.105
-0.135
-0.125
-0.125
-0.14
-0.12
-0.14
-0.115
-0.145
-0.175
-0.21
-0.215
-0.205
-0.205
-0.205
-0.225
-0.235
-0.23
-0.215
-0.24
-0.25
-0.29
-0.295
-0.285
-0.29
-0.255
-0.295
-0.335
-0.26
-0.275
-0.27
-0.255
-0.29
-0.27
-0.285
-0.3
-0.28
-0.305
-0.315
-0.295
-0.3
-0.29
-0.28
-0.27
-0.295
-0.31
-0.26
-0.28
-0.29
-0.3
-0.31
-0.31
-0.295
-0.3
-0.29
-0.295
-0.29
-0.315
-0.295
-0.285
-0.28
-0.305
-0.335
-0.31
-0.28
-0.29
-0.295
-0.295
-0.29
-0.28
-0.285
-0.3
-0.28
-0.28
-0.28
-0.285
-0.285
-0.295
-0.28
-0.3
-0.315
-0.31
-0.29
-0.27
-0.265
-0.29
-0.245
-0.27
-0.29
-0.26
-0.285
-0.285
-0.295
-0.285
-0.27
-0.275
-0.305
-0.27
-0.29
-0.305
-0.285
-0.31
-0.275
-0.26
-0.285
-0.295
-0.215
-0.295
-0.28
-0.285
-0.285
-0.28
-0.295
-0.29
-0.285
-0.275
-0.27
-0.285
-0.265
-0.285
-0.285
-0.3
-0.285
