# TIPE ECG 2021 - ECG-ID Database v1.0.0 par Physionet
# [Numéro de la personne, Période d'échantillonnage, Prénom, Age, Sexe, Date de l'enregistrement]
[52, 0.002, Pamela, 23, F, 12.05.2005]
-0.04
0.01
0.01
0.0
-0.015
-0.015
-0.03
-0.025
-0.015
-0.005
-0.005
0.03
-0.01
-0.005
0.005
-0.015
0.005
-0.02
-0.025
0.005
-0.015
0.0
0.0
-0.025
-0.015
0.0
0.0
0.005
0.005
0.01
0.005
0.005
0.03
0.0
0.0
-0.01
-0.025
-0.025
-0.02
0.005
-0.02
0.005
-0.005
-0.025
0.01
0.0
-0.005
-0.005
-0.01
-0.005
0.0
-0.015
0.015
-0.05
-0.01
0.015
0.02
0.025
-0.01
0.0
0.025
-0.015
-0.01
0.015
0.065
0.05
0.03
0.045
0.055
0.05
0.055
0.07
0.085
0.055
0.035
0.06
0.075
0.035
0.05
0.015
0.025
-0.01
-0.01
-0.025
-0.01
-0.04
-0.07
-0.025
0.005
-0.02
0.0
-0.01
-0.01
-0.005
-0.02
-0.045
-0.01
-0.005
-0.005
-0.02
-0.03
-0.015
-0.045
-0.055
-0.025
-0.065
-0.07
-0.015
-0.045
-0.03
-0.01
-0.03
-0.035
-0.045
-0.055
-0.025
-0.07
-0.17
-0.155
-0.095
-0.03
0.045
0.105
0.215
0.425
0.57
0.735
0.815
0.86
0.775
0.595
0.555
0.49
0.365
0.2
-0.05
-0.24
-0.17
-0.09
-0.1
-0.035
-0.005
-0.025
-0.02
-0.06
-0.055
0.005
-0.035
-0.045
-0.05
-0.09
-0.025
-0.025
-0.075
-0.065
-0.07
-0.025
-0.035
-0.03
-0.03
-0.05
-0.04
-0.075
-0.02
-0.025
-0.05
-0.04
-0.1
-0.005
0.005
-0.035
-0.04
-0.07
0.01
-0.04
-0.065
-0.015
0.005
-0.01
-0.015
-0.05
-0.04
0.01
-0.02
-0.03
-0.06
-0.03
-0.05
-0.025
0.005
-0.015
-0.01
-0.005
-0.03
-0.015
-0.03
-0.05
-0.015
-0.01
-0.015
0.025
0.015
0.03
0.01
0.01
-0.015
0.015
0.0
0.025
0.025
0.005
0.02
0.035
0.04
0.035
0.015
0.03
0.03
0.035
0.065
0.05
0.085
0.115
0.1
0.085
0.12
0.155
0.13
0.12
0.115
0.15
0.15
0.16
0.16
0.125
0.155
0.165
0.185
0.175
0.2
0.16
0.165
0.2
0.155
0.175
0.185
0.155
0.145
0.145
0.125
0.125
0.115
0.105
0.1
0.095
0.08
0.065
0.05
0.045
0.06
0.01
0.035
0.005
-0.01
-0.01
-0.01
0.02
-0.025
0.0
-0.01
-0.02
-0.02
-0.03
-0.035
-0.06
-0.055
-0.095
-0.01
0.005
0.015
-0.02
0.015
-0.005
-0.015
-0.06
-0.05
-0.025
-0.02
-0.03
0.015
-0.01
0.0
-0.03
-0.055
-0.04
-0.03
0.0
-0.05
-0.025
0.015
-0.025
-0.02
-0.025
-0.015
-0.025
-0.035
-0.02
-0.015
-0.035
-0.015
-0.045
-0.02
-0.045
-0.04
-0.03
-0.065
-0.02
0.015
0.0
0.02
0.005
-0.01
-0.045
-0.035
-0.08
-0.045
-0.015
-0.05
-0.035
-0.04
0.035
-0.005
-0.02
-0.03
0.015
0.01
-0.025
-0.035
-0.005
-0.02
-0.02
-0.015
-0.005
0.0
-0.02
-0.03
-0.01
-0.035
-0.025
0.0
-0.03
-0.045
-0.025
-0.02
0.005
-0.015
-0.025
-0.015
-0.04
-0.055
-0.02
-0.015
-0.02
-0.025
0.0
-0.025
-0.035
-0.005
-0.015
-0.005
-0.015
0.005
-0.02
-0.005
-0.02
-0.005
0.0
-0.02
0.025
0.025
0.035
0.025
0.05
0.045
0.03
0.03
0.04
0.06
0.055
0.035
0.065
0.04
0.045
0.02
0.015
-0.01
-0.005
-0.015
-0.025
-0.03
-0.035
-0.065
-0.01
-0.02
0.005
-0.015
0.005
-0.04
-0.02
-0.045
-0.06
-0.035
-0.04
-0.025
-0.08
-0.025
-0.06
-0.05
-0.05
-0.04
-0.095
-0.04
-0.075
-0.06
-0.065
-0.065
0.01
-0.085
-0.065
-0.075
-0.04
-0.085
-0.14
-0.135
-0.215
-0.095
-0.045
0.045
0.115
0.265
0.425
0.65
0.775
0.825
0.875
0.75
0.6
0.52
0.46
0.315
0.14
-0.065
-0.22
-0.24
-0.15
-0.055
-0.08
-0.015
-0.025
-0.04
-0.005
-0.06
-0.065
-0.065
-0.065
-0.08
-0.09
-0.08
-0.08
-0.015
-0.07
-0.025
-0.055
-0.07
-0.05
-0.065
-0.045
-0.04
-0.035
-0.04
0.005
-0.045
-0.055
-0.065
-0.075
-0.035
-0.03
-0.035
-0.055
-0.065
-0.02
-0.02
-0.07
-0.045
-0.03
-0.025
-0.01
-0.01
0.0
-0.045
-0.03
-0.06
-0.01
-0.035
-0.035
-0.005
-0.05
-0.025
-0.025
-0.005
-0.025
0.0
-0.005
-0.005
-0.02
-0.005
-0.035
-0.02
0.005
-0.005
-0.04
-0.04
-0.01
0.02
0.02
0.04
0.025
0.025
-0.01
0.025
0.035
0.025
0.045
0.035
0.065
0.065
0.095
0.1
0.095
0.095
0.11
0.09
0.13
0.16
0.135
0.13
0.18
0.17
0.145
0.165
0.175
0.17
0.165
0.18
0.19
0.195
0.185
0.175
0.185
0.18
0.145
0.155
0.18
0.17
0.125
0.105
0.11
0.11
0.065
0.06
0.065
0.06
0.09
0.085
0.05
0.03
0.01
0.025
-0.005
-0.055
0.025
0.045
0.05
0.02
-0.03
0.02
0.025
0.025
0.02
-0.04
-0.025
-0.005
-0.005
-0.01
-0.025
0.0
-0.01
-0.035
-0.05
-0.02
-0.025
-0.01
-0.01
-0.03
-0.02
-0.015
-0.04
-0.015
-0.025
-0.035
-0.04
-0.05
-0.015
-0.035
-0.01
0.0
0.0
0.015
0.015
-0.015
-0.01
-0.03
-0.105
-0.03
0.01
-0.035
-0.055
0.0
-0.005
0.005
0.0
0.0
-0.015
0.005
-0.03
-0.095
0.005
-0.02
0.005
-0.045
0.01
0.025
0.005
-0.04
-0.07
-0.05
-0.01
0.005
-0.005
-0.015
-0.035
-0.005
-0.045
-0.065
-0.05
0.045
0.02
0.015
0.005
-0.01
0.0
-0.01
0.02
0.0
-0.045
-0.015
-0.025
-0.04
-0.025
-0.015
-0.02
-0.035
-0.02
0.01
-0.005
0.025
-0.01
-0.015
-0.035
-0.02
-0.02
-0.05
-0.045
-0.06
-0.025
-0.065
-0.015
-0.005
-0.02
-0.045
0.025
0.0
0.03
-0.015
-0.005
-0.015
-0.03
0.005
-0.005
-0.03
-0.01
-0.035
0.0
0.035
0.03
-0.005
-0.04
0.02
0.04
0.005
0.02
0.045
0.045
0.045
0.05
0.05
0.055
0.05
0.07
0.04
0.03
0.045
0.035
0.01
0.015
-0.015
0.01
-0.035
-0.03
-0.055
-0.02
-0.04
-0.04
-0.065
-0.025
0.0
-0.015
-0.03
-0.01
-0.02
-0.05
-0.08
-0.035
0.02
-0.01
-0.045
-0.05
-0.02
-0.055
-0.05
-0.05
-0.07
-0.055
-0.005
-0.015
-0.025
-0.02
-0.075
-0.05
-0.045
-0.035
-0.115
-0.15
-0.145
-0.135
-0.11
-0.045
0.0
0.15
0.275
0.46
0.605
0.715
0.775
0.825
0.7
0.565
0.485
0.445
0.3
0.1
-0.12
-0.25
-0.24
-0.17
-0.09
-0.105
-0.04
-0.035
-0.045
-0.02
-0.075
-0.025
-0.01
-0.04
-0.08
-0.08
-0.055
-0.055
-0.04
-0.075
-0.045
-0.07
-0.05
-0.06
-0.045
-0.045
-0.035
-0.04
-0.04
-0.075
-0.03
-0.05
-0.055
-0.08
-0.075
-0.05
-0.08
-0.09
-0.06
-0.06
-0.06
-0.06
-0.04
-0.035
-0.02
-0.06
0.0
-0.05
-0.045
-0.03
-0.055
-0.05
-0.08
-0.055
-0.03
-0.005
-0.04
-0.05
-0.04
0.005
0.01
-0.03
-0.02
-0.01
0.005
-0.005
-0.085
-0.06
-0.01
-0.025
-0.005
0.02
0.01
0.03
0.035
0.035
0.01
-0.005
-0.035
0.0
0.015
0.065
0.06
0.085
0.08
0.05
0.095
0.075
0.055
0.125
0.13
0.095
0.135
0.12
0.12
0.125
0.11
0.125
0.2
0.195
0.15
0.14
0.155
0.19
0.185
0.135
0.165
0.15
0.145
0.14
0.185
0.15
0.15
0.16
0.13
0.095
0.095
0.08
0.065
0.075
0.08
0.04
0.08
0.025
0.02
0.03
-0.025
0.01
-0.005
-0.01
-0.015
-0.02
-0.035
-0.05
-0.045
0.045
-0.03
-0.035
0.0
-0.035
-0.02
-0.04
-0.05
-0.03
-0.015
-0.05
-0.03
-0.04
-0.07
-0.08
-0.035
-0.07
-0.03
-0.04
-0.03
-0.045
-0.06
-0.09
-0.07
-0.065
-0.05
-0.055
-0.065
-0.05
-0.05
-0.025
-0.025
-0.03
-0.065
-0.055
-0.105
-0.065
-0.075
-0.03
-0.02
-0.035
-0.035
-0.025
-0.045
-0.055
-0.05
-0.04
-0.07
-0.02
-0.03
0.005
-0.03
0.005
-0.05
-0.04
-0.055
0.005
-0.075
-0.045
-0.015
-0.025
-0.05
-0.06
-0.055
-0.06
-0.03
-0.035
-0.045
-0.06
-0.03
-0.04
-0.055
-0.085
-0.08
-0.035
-0.01
-0.01
-0.05
-0.015
-0.05
-0.04
-0.055
-0.04
-0.07
-0.06
-0.03
0.005
-0.015
-0.025
-0.045
-0.005
-0.04
-0.085
-0.08
-0.025
-0.01
-0.035
-0.035
-0.015
-0.07
-0.035
-0.045
-0.01
-0.03
-0.035
0.0
-0.01
-0.05
-0.055
-0.02
-0.01
-0.035
-0.015
0.01
0.01
0.03
0.04
0.02
-0.025
0.04
0.025
0.01
-0.02
-0.005
0.045
0.01
0.005
-0.04
-0.01
-0.065
-0.005
-0.035
-0.01
-0.05
-0.02
-0.035
-0.035
-0.04
-0.095
-0.12
-0.045
-0.07
-0.075
-0.045
-0.035
-0.06
-0.055
-0.035
-0.055
-0.01
-0.035
-0.07
-0.06
-0.065
-0.035
-0.035
-0.08
-0.07
-0.085
-0.085
-0.04
-0.075
-0.095
-0.07
-0.11
-0.12
-0.115
-0.13
-0.15
-0.105
-0.08
0.005
0.115
0.215
0.4
0.55
0.675
0.735
0.685
0.555
0.46
0.455
0.33
0.225
0.025
-0.18
-0.27
-0.3
-0.25
-0.18
-0.14
-0.1
-0.085
-0.08
-0.03
-0.045
-0.045
-0.065
-0.11
-0.085
-0.07
-0.07
-0.065
-0.07
-0.125
-0.11
-0.07
-0.105
-0.035
-0.04
-0.06
-0.045
-0.065
-0.06
-0.065
-0.085
-0.055
-0.105
-0.085
-0.075
-0.06
-0.05
-0.04
-0.04
-0.075
-0.06
-0.035
-0.05
-0.08
-0.075
-0.045
-0.08
-0.045
-0.045
-0.03
-0.035
-0.05
-0.05
-0.06
-0.04
-0.06
-0.065
-0.05
-0.05
-0.025
-0.045
-0.04
-0.005
-0.015
0.01
-0.005
0.0
-0.02
-0.045
0.015
-0.02
-0.005
0.005
0.015
0.01
0.02
0.02
0.01
0.01
-0.01
0.035
0.065
0.08
0.05
0.0
0.075
0.085
0.115
0.07
0.085
0.09
0.12
0.125
0.105
0.125
0.11
0.165
0.16
0.14
0.135
0.125
0.155
0.15
0.16
0.195
0.175
0.145
0.165
0.18
0.14
0.175
0.105
0.145
0.13
0.1
0.095
0.1
0.07
0.045
0.03
0.055
0.075
0.035
-0.01
0.04
0.015
0.005
0.015
-0.025
-0.025
-0.025
-0.035
-0.07
-0.03
-0.035
-0.05
-0.035
-0.05
0.0
-0.045
-0.06
-0.05
-0.065
-0.06
-0.045
-0.04
-0.035
-0.065
-0.045
-0.06
-0.07
-0.085
-0.045
-0.05
-0.045
-0.07
-0.075
-0.065
-0.04
-0.025
-0.05
-0.045
-0.09
-0.075
-0.05
-0.085
-0.075
-0.05
-0.05
-0.035
-0.05
-0.03
-0.035
-0.065
-0.085
-0.06
-0.05
-0.045
-0.03
-0.03
-0.05
-0.035
-0.03
-0.07
-0.075
-0.055
-0.05
-0.01
0.02
-0.035
0.0
-0.045
-0.12
-0.08
-0.01
-0.05
-0.05
-0.04
-0.04
-0.04
-0.02
-0.025
-0.04
-0.05
-0.03
-0.045
-0.045
-0.08
-0.075
-0.125
-0.04
-0.045
-0.085
-0.05
0.005
-0.03
-0.035
-0.03
-0.03
-0.03
-0.06
-0.045
-0.055
-0.075
-0.07
-0.05
-0.085
-0.055
-0.035
-0.07
-0.04
-0.035
-0.07
-0.01
-0.03
-0.04
-0.03
0.005
0.005
-0.005
-0.04
-0.025
0.0
-0.035
-0.03
0.005
0.02
0.025
0.025
0.01
0.0
0.05
0.01
0.04
0.04
0.01
-0.005
-0.035
-0.02
-0.055
-0.065
-0.045
-0.07
-0.065
-0.115
-0.05
-0.08
-0.045
-0.055
-0.05
-0.045
-0.1
-0.075
-0.095
-0.06
-0.08
-0.085
-0.045
-0.09
-0.04
-0.03
-0.075
-0.08
-0.105
-0.125
-0.055
-0.055
-0.075
-0.075
-0.045
-0.04
-0.075
-0.095
-0.085
-0.11
-0.095
-0.135
-0.16
-0.17
-0.095
-0.045
0.01
0.135
0.285
0.445
0.59
0.69
0.75
0.655
0.55
0.46
0.405
0.31
0.11
-0.095
-0.255
-0.37
-0.3
-0.19
-0.17
-0.135
-0.11
-0.095
-0.095
-0.05
-0.09
-0.07
-0.045
-0.09
-0.1
-0.085
-0.115
-0.08
-0.09
-0.065
-0.1
-0.09
-0.08
-0.075
-0.095
-0.065
-0.055
-0.095
-0.06
-0.115
-0.105
-0.04
-0.07
-0.055
-0.07
-0.085
-0.07
-0.065
-0.07
-0.1
-0.08
-0.06
-0.075
-0.065
-0.09
-0.07
-0.055
-0.09
-0.075
-0.06
-0.065
-0.05
-0.06
-0.035
-0.05
-0.045
-0.05
-0.065
-0.095
-0.05
-0.045
-0.06
-0.12
-0.02
-0.045
-0.055
-0.01
-0.02
-0.055
-0.01
-0.015
0.03
-0.015
-0.015
-0.02
-0.015
0.0
0.04
0.005
-0.01
-0.005
0.04
-0.01
0.07
0.06
0.06
0.045
0.08
0.055
0.1
0.1
0.105
0.095
0.12
0.11
0.095
0.12
0.095
0.13
0.155
0.14
0.1
0.155
0.115
0.16
0.165
0.155
0.155
0.14
0.12
0.105
0.115
0.12
0.14
0.06
0.04
0.05
0.105
0.06
0.06
0.025
0.015
-0.025
-0.075
0.035
-0.015
0.02
-0.01
-0.015
-0.01
-0.045
-0.045
-0.06
-0.06
-0.04
-0.05
-0.05
-0.07
-0.115
-0.06
-0.05
-0.07
-0.08
-0.08
-0.08
-0.075
-0.05
-0.1
-0.075
-0.09
-0.065
-0.045
-0.05
-0.065
-0.07
-0.08
-0.07
-0.075
-0.075
-0.075
-0.115
-0.095
-0.055
-0.08
-0.07
-0.055
-0.055
-0.07
-0.06
-0.1
-0.07
-0.09
-0.08
-0.075
-0.07
-0.035
-0.045
-0.07
-0.06
-0.06
-0.08
-0.08
-0.05
-0.065
-0.05
-0.115
-0.045
-0.04
-0.07
-0.045
-0.075
-0.06
-0.04
-0.055
-0.055
-0.085
-0.115
-0.065
-0.075
-0.07
-0.045
-0.06
-0.05
-0.035
-0.03
-0.06
-0.075
-0.045
-0.09
-0.08
-0.05
-0.055
-0.035
-0.035
-0.075
-0.065
-0.08
-0.04
-0.07
-0.075
-0.04
-0.06
-0.075
-0.105
-0.055
-0.05
-0.085
-0.055
-0.06
-0.08
-0.055
-0.045
-0.07
-0.085
-0.075
-0.065
-0.07
-0.06
-0.075
-0.04
-0.035
-0.04
-0.085
-0.02
-0.04
-0.085
-0.085
-0.085
-0.055
-0.045
-0.045
-0.045
-0.035
-0.05
-0.05
0.005
-0.005
-0.01
-0.005
-0.01
0.04
-0.01
-0.005
0.02
0.005
0.0
0.025
-0.01
-0.015
-0.045
-0.015
-0.08
-0.075
-0.03
-0.06
-0.075
-0.06
-0.055
-0.065
-0.1
-0.055
-0.02
-0.075
-0.06
-0.07
-0.09
-0.1
-0.075
-0.095
-0.085
-0.1
-0.08
-0.06
-0.045
-0.06
-0.08
-0.09
-0.07
-0.095
-0.07
-0.07
-0.06
-0.09
-0.08
-0.105
-0.075
-0.07
-0.12
-0.14
-0.12
-0.18
-0.185
-0.14
-0.095
-0.015
0.085
0.195
0.405
0.595
0.66
0.71
0.775
0.71
0.595
0.465
0.42
0.295
0.095
-0.11
-0.24
-0.24
-0.16
-0.125
-0.11
-0.06
-0.085
-0.09
-0.12
-0.075
-0.085
-0.085
-0.085
-0.075
-0.08
-0.09
-0.095
-0.08
-0.09
-0.13
-0.125
-0.1
-0.105
-0.07
-0.07
-0.085
-0.045
-0.07
-0.095
-0.075
-0.07
-0.1
-0.1
-0.115
-0.09
-0.065
-0.065
-0.07
-0.08
-0.065
-0.065
-0.1
-0.09
-0.1
-0.12
-0.11
-0.07
-0.04
-0.03
-0.055
-0.065
-0.09
-0.07
-0.075
-0.085
-0.075
-0.085
-0.08
-0.105
-0.06
-0.075
-0.045
-0.07
-0.015
-0.01
-0.1
-0.045
-0.045
-0.04
-0.04
-0.055
-0.03
-0.03
-0.035
-0.025
-0.045
-0.015
-0.005
0.005
0.0
0.01
0.055
0.01
0.02
0.04
0.025
0.01
0.045
0.035
0.085
0.095
0.08
0.1
0.13
0.085
0.085
0.08
0.095
0.08
0.135
0.14
0.12
0.13
0.11
0.11
0.09
0.12
0.125
0.145
0.195
0.16
0.12
0.11
0.075
0.055
0.03
0.055
0.045
0.005
0.025
0.02
0.02
0.02
0.015
0.02
-0.015
-0.04
-0.05
-0.065
-0.085
-0.02
-0.005
-0.04
-0.055
-0.075
-0.115
-0.095
-0.08
-0.045
-0.05
-0.06
-0.035
-0.07
-0.08
-0.085
-0.055
-0.1
-0.075
-0.09
-0.075
-0.03
-0.075
-0.1
-0.06
-0.065
-0.09
-0.05
-0.065
-0.06
-0.09
-0.095
-0.085
-0.08
-0.09
-0.08
-0.055
-0.05
-0.075
-0.09
-0.11
-0.075
-0.11
-0.065
-0.125
-0.095
-0.05
-0.075
-0.11
-0.11
-0.065
-0.06
-0.045
-0.055
-0.075
-0.08
-0.08
-0.04
-0.065
-0.075
-0.085
-0.055
-0.06
-0.06
-0.085
-0.025
-0.06
-0.065
-0.07
-0.055
-0.075
-0.08
-0.06
-0.05
-0.06
-0.055
-0.055
-0.045
-0.105
-0.105
-0.09
-0.06
-0.06
-0.055
-0.09
-0.085
-0.055
-0.055
-0.085
-0.075
-0.085
-0.08
-0.11
-0.08
-0.05
-0.035
-0.04
-0.09
-0.07
-0.1
-0.105
-0.05
-0.07
-0.04
-0.06
-0.045
-0.05
-0.06
-0.095
-0.065
-0.05
-0.06
-0.08
-0.11
-0.02
-0.05
-0.065
-0.065
-0.055
-0.06
-0.07
-0.08
-0.075
-0.095
-0.09
-0.12
-0.075
-0.06
-0.04
-0.07
-0.065
-0.035
-0.05
-0.065
-0.075
-0.015
-0.045
-0.07
-0.05
-0.055
-0.03
0.015
0.0
0.01
0.015
0.02
0.015
-0.01
-0.01
-0.005
-0.03
-0.025
-0.055
-0.025
-0.015
0.01
-0.015
-0.085
-0.075
-0.08
-0.07
-0.06
-0.085
-0.105
-0.075
-0.055
-0.075
-0.065
-0.03
-0.06
-0.08
-0.1
-0.09
-0.085
-0.12
-0.105
-0.075
-0.1
-0.105
-0.055
-0.095
-0.09
-0.075
-0.095
-0.085
-0.085
-0.095
-0.11
-0.09
-0.07
-0.1
-0.095
-0.165
-0.215
-0.215
-0.155
-0.125
0.0
0.03
0.185
0.375
0.56
0.67
0.72
0.785
0.735
0.6
0.47
0.445
0.33
0.125
-0.095
-0.23
-0.25
-0.195
-0.165
-0.1
-0.075
-0.09
-0.04
-0.09
-0.06
-0.08
-0.08
-0.085
-0.115
-0.14
-0.175
-0.12
-0.13
-0.08
-0.065
-0.085
-0.075
-0.115
-0.1
-0.12
-0.105
-0.13
-0.115
-0.09
-0.075
-0.085
-0.09
-0.08
-0.09
-0.09
-0.1
-0.125
-0.1
-0.095
-0.105
-0.11
-0.095
-0.06
-0.09
-0.11
-0.125
-0.135
-0.125
-0.09
-0.035
-0.105
-0.1
-0.08
-0.05
-0.09
-0.085
-0.1
-0.05
-0.065
-0.075
-0.055
-0.055
-0.11
-0.07
-0.055
-0.035
-0.05
-0.07
-0.055
-0.04
-0.04
-0.035
-0.07
-0.02
-0.035
-0.04
-0.06
0.0
-0.005
-0.07
-0.005
0.02
0.01
0.015
0.005
-0.01
0.025
0.05
0.02
0.045
0.02
0.075
0.03
0.08
0.095
0.095
0.09
0.11
0.09
0.1
0.135
0.11
0.115
0.105
0.115
0.14
0.13
0.11
0.145
0.125
0.045
0.065
0.065
0.075
0.105
0.11
0.085
0.055
0.04
0.01
0.01
0.025
-0.015
-0.05
-0.035
0.01
-0.015
-0.01
-0.04
-0.07
-0.065
-0.06
-0.075
-0.07
-0.085
-0.055
-0.03
-0.085
-0.09
-0.06
-0.075
-0.085
-0.1
-0.09
-0.085
-0.075
-0.12
-0.07
-0.09
-0.095
-0.105
-0.075
-0.08
-0.12
-0.14
-0.06
-0.035
-0.075
-0.045
-0.12
-0.125
-0.125
-0.14
-0.05
-0.03
-0.055
-0.045
-0.05
-0.04
-0.07
-0.105
-0.105
-0.095
-0.07
-0.12
-0.11
-0.055
-0.045
-0.065
-0.055
-0.07
-0.06
-0.09
-0.085
-0.085
-0.08
-0.075
-0.075
-0.07
-0.065
-0.065
-0.08
-0.095
-0.065
-0.075
-0.09
-0.075
-0.045
-0.1
-0.07
-0.095
-0.04
-0.09
-0.135
-0.07
-0.005
-0.08
-0.09
-0.11
-0.035
-0.045
-0.05
-0.1
-0.09
-0.065
-0.08
-0.065
-0.07
-0.065
-0.08
-0.06
-0.085
-0.09
-0.09
-0.115
-0.05
-0.085
-0.07
-0.05
-0.03
-0.065
-0.08
-0.085
-0.065
-0.065
-0.02
-0.045
-0.095
-0.065
-0.05
-0.045
-0.07
-0.065
-0.105
-0.09
-0.09
-0.08
-0.065
-0.095
-0.09
-0.035
-0.07
-0.135
-0.12
-0.055
-0.055
-0.07
-0.045
-0.045
-0.045
-0.06
-0.03
-0.055
-0.06
-0.105
-0.09
-0.02
-0.045
-0.07
-0.07
-0.03
-0.06
-0.055
-0.02
-0.065
-0.045
-0.02
-0.025
-0.03
-0.015
0.03
-0.01
0.03
0.05
0.03
-0.01
0.035
0.025
0.01
0.0
0.0
-0.045
-0.075
-0.1
-0.06
-0.07
-0.085
-0.06
-0.07
-0.065
-0.05
-0.075
-0.04
-0.065
-0.09
-0.105
-0.08
-0.085
-0.075
-0.06
-0.06
-0.08
-0.13
-0.08
-0.08
-0.11
-0.085
-0.075
-0.09
-0.07
-0.09
-0.055
-0.07
-0.1
-0.085
-0.09
-0.105
-0.135
-0.165
-0.155
-0.205
-0.115
-0.09
-0.03
0.095
0.22
0.395
0.54
0.65
0.73
0.775
0.695
0.525
0.49
0.415
0.27
0.085
-0.125
-0.315
-0.255
-0.175
-0.15
-0.11
-0.095
-0.08
-0.065
-0.08
-0.065
-0.06
-0.08
-0.13
-0.08
-0.105
-0.12
-0.135
-0.095
-0.08
-0.13
-0.07
-0.1
-0.07
-0.09
-0.1
-0.09
-0.105
-0.08
-0.105
-0.11
-0.11
-0.105
-0.135
-0.095
-0.105
-0.08
-0.065
-0.095
-0.08
-0.055
-0.085
-0.09
-0.085
-0.07
-0.095
-0.085
-0.065
-0.14
-0.12
-0.1
-0.065
-0.1
-0.085
-0.075
-0.095
-0.065
-0.055
-0.045
-0.085
-0.1
-0.09
-0.095
-0.045
-0.08
-0.055
-0.03
-0.06
-0.05
-0.055
-0.045
-0.035
-0.06
-0.06
-0.04
-0.04
-0.035
-0.02
0.0
-0.01
-0.04
-0.06
0.04
0.015
0.035
0.005
0.02
0.06
0.065
0.04
0.04
0.045
0.08
0.055
0.09
0.095
0.09
0.09
0.06
0.075
0.11
0.15
0.12
0.135
0.12
0.13
0.145
0.125
0.08
0.11
0.12
0.145
0.085
0.06
0.075
0.085
0.07
0.065
0.08
0.05
-0.015
0.04
-0.01
-0.065
0.035
0.0
-0.02
-0.025
-0.015
-0.04
-0.02
-0.035
-0.08
-0.085
-0.11
-0.16
-0.085
-0.085
-0.12
-0.005
-0.065
-0.05
-0.085
-0.08
-0.085
-0.08
-0.09
-0.095
-0.05
-0.105
-0.11
-0.13
-0.12
-0.095
-0.07
-0.11
-0.1
-0.08
-0.08
-0.125
-0.1
-0.09
-0.085
-0.085
-0.12
-0.115
-0.165
-0.05
-0.075
-0.045
-0.135
-0.1
-0.105
-0.09
-0.04
-0.07
-0.06
-0.075
-0.075
-0.105
-0.1
-0.115
-0.09
-0.125
-0.105
-0.095
-0.11
-0.065
-0.07
-0.075
-0.07
-0.08
-0.12
-0.09
-0.065
-0.115
-0.1
-0.105
-0.09
-0.085
-0.045
-0.085
-0.095
-0.145
-0.11
-0.125
-0.13
-0.035
-0.04
-0.14
-0.075
-0.03
-0.07
-0.1
-0.095
-0.09
-0.12
-0.105
-0.145
-0.1
-0.085
-0.09
-0.115
-0.1
-0.13
-0.13
-0.11
-0.12
-0.135
-0.09
-0.065
-0.11
-0.12
-0.125
-0.08
-0.115
-0.105
-0.07
-0.14
-0.145
-0.11
-0.115
-0.105
-0.105
-0.125
-0.115
-0.105
-0.16
-0.17
-0.145
-0.095
-0.095
-0.075
-0.09
-0.085
-0.11
-0.095
-0.095
-0.115
-0.075
-0.145
-0.135
-0.11
-0.08
-0.12
-0.115
-0.08
-0.055
-0.075
-0.115
-0.12
-0.1
-0.06
-0.1
-0.105
-0.13
-0.08
-0.105
-0.085
-0.11
-0.075
-0.04
-0.05
-0.04
-0.035
-0.065
-0.095
-0.07
-0.09
-0.075
-0.065
-0.1
-0.065
-0.135
-0.105
-0.125
-0.14
-0.15
-0.15
-0.155
-0.175
-0.17
-0.125
-0.155
-0.115
-0.115
-0.115
-0.14
-0.175
-0.175
-0.155
-0.115
-0.155
-0.145
-0.145
-0.135
-0.15
-0.135
-0.155
-0.12
-0.15
-0.155
-0.17
-0.155
-0.195
-0.17
-0.13
-0.165
-0.15
-0.185
-0.19
-0.245
-0.21
-0.2
-0.135
-0.045
0.055
0.27
0.455
0.59
0.655
0.62
0.465
0.37
0.35
0.265
0.125
-0.07
-0.28
-0.45
-0.425
-0.355
-0.26
-0.245
-0.21
-0.125
-0.165
-0.13
-0.175
-0.18
-0.135
-0.19
-0.165
-0.165
-0.255
-0.22
-0.165
-0.205
-0.17
-0.145
-0.21
-0.165
-0.18
-0.18
-0.175
-0.2
-0.185
-0.18
-0.175
-0.165
-0.17
-0.195
-0.165
-0.185
-0.21
-0.19
-0.16
-0.18
-0.16
-0.165
-0.205
-0.17
-0.11
-0.155
-0.185
-0.16
-0.18
-0.16
-0.135
-0.135
-0.145
-0.155
-0.155
-0.15
-0.17
-0.21
-0.21
-0.195
-0.08
-0.13
-0.105
-0.135
-0.18
-0.11
-0.145
-0.14
-0.1
-0.145
-0.135
-0.13
-0.13
-0.14
-0.105
-0.09
-0.125
-0.1
-0.06
-0.095
-0.075
-0.06
-0.065
-0.08
-0.035
-0.075
-0.04
-0.04
-0.03
-0.02
-0.02
-0.025
-0.03
0.0
-0.005
-0.01
0.02
0.05
0.055
0.08
0.055
0.045
0.06
0.055
0.065
0.02
0.05
0.045
0.03
0.03
0.045
0.06
0.035
0.01
-0.03
0.015
-0.025
-0.01
-0.025
-0.055
-0.09
-0.03
-0.075
-0.06
-0.11
-0.085
-0.105
-0.11
-0.16
-0.185
-0.13
-0.105
-0.115
-0.14
-0.155
-0.145
-0.15
-0.2
-0.205
-0.165
-0.16
-0.17
-0.15
-0.18
-0.125
-0.13
-0.22
-0.17
-0.19
-0.21
-0.2
-0.125
-0.155
-0.175
-0.16
-0.185
-0.165
-0.185
-0.185
-0.225
-0.16
-0.205
-0.165
-0.175
-0.145
-0.165
-0.165
-0.185
-0.21
-0.195
-0.18
-0.13
-0.175
-0.155
-0.22
-0.18
-0.13
-0.155
-0.18
-0.14
-0.185
-0.17
-0.185
-0.185
-0.175
-0.15
-0.15
-0.165
-0.19
-0.165
-0.17
-0.18
-0.165
-0.145
-0.195
-0.195
-0.155
-0.15
-0.195
-0.18
-0.145
-0.14
-0.15
-0.175
-0.22
-0.195
-0.125
-0.155
-0.16
-0.18
-0.15
-0.175
-0.19
-0.16
-0.16
-0.195
-0.19
-0.16
-0.205
-0.165
-0.15
-0.175
-0.15
-0.175
-0.16
-0.185
-0.18
-0.205
-0.17
-0.15
-0.155
-0.16
-0.18
-0.185
-0.145
-0.205
-0.17
-0.18
-0.17
-0.145
-0.155
-0.17
-0.185
-0.21
-0.21
-0.18
-0.15
-0.18
-0.175
-0.175
-0.14
-0.185
-0.16
-0.15
-0.18
-0.16
-0.175
-0.15
-0.1
-0.12
-0.115
-0.105
-0.16
-0.115
-0.115
-0.125
-0.125
-0.105
-0.11
-0.095
-0.13
-0.12
-0.195
-0.15
-0.14
-0.185
-0.235
-0.215
-0.215
-0.22
-0.215
-0.19
-0.165
-0.185
-0.185
-0.175
-0.19
-0.21
-0.195
-0.205
-0.235
-0.205
-0.2
-0.205
-0.24
-0.185
-0.195
-0.21
-0.23
-0.255
-0.175
-0.195
-0.19
-0.21
-0.205
-0.24
-0.165
-0.185
-0.225
-0.245
-0.25
-0.315
-0.305
-0.285
-0.21
-0.155
-0.11
0.02
0.165
0.315
0.485
0.605
0.585
0.495
0.385
0.31
0.265
0.15
-0.01
-0.2
-0.415
-0.46
-0.425
-0.325
-0.29
-0.235
-0.22
-0.255
-0.245
-0.23
-0.21
-0.185
-0.205
-0.235
-0.245
-0.215
-0.245
-0.26
-0.225
-0.2
-0.205
-0.215
-0.255
-0.265
-0.245
-0.185
-0.165
-0.23
-0.215
-0.23
-0.24
-0.215
-0.205
-0.19
-0.21
-0.25
-0.245
-0.225
-0.185
-0.18
-0.175
-0.225
-0.205
-0.21
-0.195
-0.215
-0.22
-0.185
-0.225
-0.2
-0.195
-0.21
-0.235
-0.2
-0.22
-0.25
-0.25
-0.215
-0.235
-0.145
-0.2
-0.205
-0.21
-0.22
-0.23
-0.185
-0.11
-0.16
-0.17
-0.18
-0.18
-0.175
-0.16
-0.165
-0.17
-0.215
-0.14
-0.175
-0.145
-0.115
-0.115
-0.13
-0.115
-0.105
-0.105
-0.15
-0.12
-0.09
-0.085
-0.09
-0.105
-0.085
-0.035
-0.03
-0.08
-0.06
-0.005
-0.03
-0.015
0.01
-0.035
-0.015
-0.025
-0.01
0.005
-0.02
-0.04
-0.07
-0.035
-0.035
-0.02
-0.01
-0.065
-0.065
-0.09
-0.105
-0.095
-0.105
-0.13
-0.095
-0.135
-0.155
-0.145
-0.155
-0.2
-0.185
-0.205
-0.2
-0.15
-0.17
-0.2
-0.195
-0.235
-0.245
-0.23
-0.22
-0.245
-0.19
-0.225
-0.25
-0.22
-0.245
-0.27
-0.235
-0.23
-0.24
-0.225
-0.245
-0.255
-0.255
-0.265
-0.29
-0.295
-0.235
-0.225
-0.245
-0.28
-0.235
-0.25
-0.245
-0.25
-0.215
-0.235
-0.23
-0.23
-0.275
-0.275
-0.245
-0.255
-0.245
-0.24
-0.21
-0.23
-0.22
-0.265
-0.245
-0.255
-0.25
-0.225
-0.26
-0.235
-0.23
-0.255
-0.255
-0.21
-0.22
-0.26
-0.28
-0.23
-0.21
-0.225
-0.285
-0.275
-0.26
-0.25
-0.28
-0.275
-0.26
-0.185
-0.19
-0.195
-0.235
-0.26
-0.175
-0.22
-0.225
-0.225
-0.235
-0.225
-0.225
-0.23
-0.23
-0.22
-0.255
-0.23
-0.225
-0.24
-0.24
-0.245
-0.245
-0.24
-0.225
-0.265
-0.29
-0.255
-0.25
-0.25
-0.255
-0.235
-0.225
-0.23
-0.235
-0.275
-0.265
-0.245
-0.24
-0.25
-0.25
-0.27
-0.225
-0.22
-0.245
-0.25
-0.245
-0.255
-0.275
-0.285
-0.23
-0.285
-0.24
-0.225
-0.195
-0.21
-0.205
-0.215
-0.25
-0.28
-0.26
-0.23
-0.245
-0.245
-0.22
-0.235
-0.235
-0.22
-0.23
-0.24
-0.23
-0.24
-0.245
-0.235
-0.21
-0.205
-0.18
-0.195
-0.19
-0.195
-0.19
-0.2
-0.175
-0.19
-0.195
-0.18
-0.14
-0.175
-0.2
-0.225
-0.2
-0.18
-0.22
-0.245
-0.31
-0.2
-0.23
-0.25
-0.28
-0.335
-0.325
-0.34
-0.22
-0.22
-0.22
-0.245
-0.27
-0.27
-0.25
-0.26
-0.265
-0.28
-0.255
-0.26
-0.29
-0.27
-0.255
-0.26
-0.255
-0.27
-0.255
-0.25
-0.27
-0.27
-0.265
-0.275
-0.33
-0.355
-0.35
-0.39
-0.335
-0.3
-0.22
-0.12
0.06
0.18
0.35
0.52
0.54
0.57
0.505
0.375
0.285
0.145
0.13
-0.075
-0.295
-0.475
-0.43
-0.335
-0.305
-0.29
-0.245
-0.255
-0.285
-0.26
-0.28
-0.275
-0.305
-0.31
-0.29
-0.275
-0.275
-0.28
-0.305
-0.29
-0.285
-0.29
-0.29
-0.285
-0.295
-0.28
-0.305
-0.28
-0.275
-0.265
-0.33
-0.275
-0.26
-0.255
-0.245
-0.285
-0.28
-0.3
-0.3
-0.275
-0.3
-0.24
-0.3
-0.275
-0.24
-0.235
-0.285
-0.265
-0.255
-0.27
-0.27
-0.25
-0.245
-0.265
-0.29
-0.285
-0.25
-0.265
-0.28
-0.265
-0.27
-0.245
-0.275
-0.24
-0.225
-0.235
-0.26
-0.23
-0.24
-0.245
-0.23
-0.235
-0.235
-0.26
-0.21
-0.2
-0.215
-0.225
-0.2
-0.195
-0.195
-0.165
-0.21
-0.16
-0.21
-0.165
-0.18
-0.205
-0.125
-0.14
-0.145
-0.125
-0.135
-0.11
-0.1
-0.145
-0.14
-0.11
-0.115
-0.045
-0.07
-0.05
-0.04
-0.06
-0.02
-0.055
-0.05
-0.045
-0.05
-0.065
-0.055
-0.04
-0.075
-0.07
-0.1
-0.1
-0.14
-0.17
-0.115
-0.14
-0.15
-0.145
-0.17
-0.17
-0.2
-0.19
-0.215
-0.215
-0.205
-0.215
-0.225
-0.225
-0.245
-0.245
-0.28
-0.305
-0.23
-0.235
-0.265
-0.255
-0.245
-0.265
-0.275
-0.235
-0.255
-0.225
-0.24
-0.27
-0.27
-0.255
-0.27
-0.245
-0.225
-0.25
-0.265
-0.265
-0.255
-0.28
-0.265
-0.26
-0.25
-0.255
-0.26
-0.265
-0.255
-0.265
-0.265
-0.275
-0.29
-0.235
-0.23
-0.265
-0.275
-0.295
-0.275
-0.245
-0.27
-0.225
-0.25
-0.21
-0.255
-0.275
-0.225
-0.26
-0.275
-0.245
-0.26
-0.24
-0.265
-0.25
-0.23
-0.245
-0.25
-0.265
-0.24
-0.245
-0.26
-0.235
-0.26
-0.25
-0.24
-0.24
-0.25
-0.24
-0.245
-0.265
-0.245
-0.28
-0.29
-0.255
-0.27
-0.255
-0.25
-0.275
-0.205
-0.225
-0.265
-0.27
-0.275
-0.285
-0.275
-0.215
-0.235
-0.25
-0.245
-0.255
-0.235
-0.255
-0.24
-0.235
-0.245
-0.25
-0.235
-0.225
-0.25
-0.24
-0.235
-0.25
-0.245
-0.235
-0.23
-0.255
-0.26
-0.25
-0.24
-0.225
-0.215
-0.25
-0.265
-0.25
-0.24
-0.26
-0.295
-0.28
-0.23
-0.21
-0.235
-0.265
-0.255
-0.225
-0.24
-0.25
-0.225
-0.24
-0.24
-0.255
-0.235
-0.235
-0.225
-0.27
-0.28
-0.245
-0.265
-0.26
-0.22
-0.18
-0.21
-0.22
-0.2
-0.19
-0.19
-0.18
-0.175
-0.175
-0.17
-0.19
-0.185
-0.19
-0.18
-0.19
-0.185
-0.135
-0.13
-0.215
-0.165
-0.205
-0.205
-0.21
-0.24
-0.235
-0.26
-0.255
-0.2
-0.23
-0.28
-0.27
-0.25
-0.255
-0.255
-0.245
-0.24
-0.26
-0.24
-0.26
-0.245
-0.275
-0.25
-0.255
-0.245
-0.28
-0.24
-0.225
-0.26
-0.27
-0.26
-0.29
-0.285
-0.23
-0.225
-0.235
-0.3
-0.315
-0.355
-0.385
-0.3
-0.28
-0.25
-0.18
-0.035
0.15
0.33
0.5
0.61
0.655
0.645
0.51
0.345
0.305
0.245
0.06
-0.15
-0.355
-0.46
-0.38
-0.31
-0.28
-0.26
-0.245
-0.23
-0.24
-0.29
-0.25
-0.24
-0.25
-0.255
-0.25
-0.255
-0.275
-0.255
-0.245
-0.245
-0.275
-0.285
-0.245
-0.25
-0.285
-0.25
-0.245
-0.24
-0.255
-0.265
-0.29
-0.235
-0.245
-0.235
-0.245
-0.235
-0.265
-0.215
-0.245
-0.26
-0.265
-0.235
-0.22
-0.245
-0.25
-0.225
-0.22
-0.22
-0.26
-0.27
-0.265
-0.23
-0.25
-0.22
-0.195
-0.23
-0.235
-0.23
-0.225
-0.255
-0.23
-0.235
-0.255
-0.25
-0.285
-0.245
-0.225
-0.18
-0.225
-0.24
-0.19
-0.195
-0.18
-0.19
-0.21
-0.175
-0.16
-0.18
-0.185
-0.16
-0.17
-0.145
-0.165
-0.135
-0.13
-0.165
-0.105
-0.135
-0.125
-0.105
-0.075
-0.085
-0.095
-0.08
-0.07
-0.08
-0.095
-0.085
-0.02
-0.03
-0.035
-0.015
-0.015
-0.045
-0.045
-0.05
-0.04
-0.035
0.005
-0.02
-0.025
-0.05
-0.055
-0.07
-0.08
-0.08
-0.085
-0.1
-0.1
-0.085
-0.11
-0.145
-0.14
-0.17
-0.155
-0.17
-0.18
-0.165
-0.175
-0.205
-0.22
-0.24
-0.18
-0.215
-0.235
-0.23
-0.225
-0.21
-0.23
-0.215
-0.22
-0.235
-0.245
-0.245
-0.24
-0.245
-0.28
-0.27
-0.295
-0.265
-0.27
-0.225
-0.21
-0.21
-0.225
-0.235
-0.2
-0.225
-0.23
-0.245
-0.27
-0.33
-0.245
-0.225
-0.205
-0.22
-0.265
-0.24
-0.245
-0.22
-0.24
-0.195
-0.215
-0.215
-0.19
-0.225
-0.23
-0.22
-0.23
-0.235
-0.225
-0.245
-0.245
-0.23
-0.22
-0.235
-0.25
-0.225
-0.25
-0.24
-0.245
-0.225
-0.195
-0.22
-0.23
-0.23
-0.245
-0.275
-0.23
-0.24
-0.28
-0.23
-0.19
-0.265
-0.225
-0.24
-0.245
-0.24
-0.255
-0.225
-0.27
-0.255
-0.235
-0.245
-0.24
-0.265
-0.255
-0.205
-0.22
-0.21
-0.23
-0.265
-0.22
-0.235
-0.26
-0.2
-0.215
-0.245
-0.235
-0.235
-0.23
-0.265
-0.225
-0.26
-0.225
-0.2
-0.235
-0.25
-0.25
-0.225
-0.23
-0.235
-0.24
-0.245
-0.205
-0.23
-0.27
-0.255
-0.235
-0.23
-0.23
-0.21
-0.215
-0.24
-0.245
-0.285
-0.235
-0.225
-0.225
-0.195
-0.22
-0.255
-0.22
-0.22
-0.235
-0.21
-0.235
-0.19
-0.205
-0.175
-0.205
-0.21
-0.195
-0.185
-0.2
-0.17
-0.195
-0.19
-0.175
-0.14
-0.13
-0.16
-0.175
-0.18
-0.15
-0.185
-0.205
-0.215
-0.2
-0.225
-0.235
-0.235
-0.23
-0.205
-0.255
-0.245
-0.21
-0.255
-0.28
-0.265
-0.23
-0.25
-0.25
-0.23
-0.235
-0.24
-0.265
-0.245
-0.27
-0.245
-0.26
-0.295
-0.24
-0.265
-0.28
-0.23
-0.25
-0.25
-0.245
-0.25
-0.265
-0.255
-0.255
-0.295
-0.305
-0.335
-0.325
-0.345
-0.265
-0.215
-0.13
0.045
0.2
0.355
0.515
0.61
0.625
0.48
0.415
0.285
0.245
0.08
-0.095
-0.335
-0.475
-0.49
-0.39
-0.33
-0.3
-0.26
-0.25
-0.235
-0.235
-0.26
-0.225
-0.24
-0.2
-0.235
-0.23
-0.24
-0.26
-0.225
-0.265
-0.305
-0.26
-0.21
-0.235
-0.245
-0.23
-0.24
-0.21
-0.215
-0.225
-0.235
-0.205
-0.21
-0.24
-0.245
-0.23
-0.23
-0.21
-0.255
-0.22
-0.24
-0.205
-0.215
-0.205
-0.23
-0.2
-0.225
-0.22
-0.22
-0.235
-0.22
-0.235
-0.21
-0.235
-0.225
-0.275
-0.235
-0.255
-0.245
-0.205
-0.145
-0.19
-0.19
-0.2
-0.185
-0.225
-0.22
-0.215
-0.155
-0.18
-0.22
-0.2
-0.19
-0.22
-0.125
-0.17
-0.16
-0.165
-0.155
-0.15
-0.16
-0.125
-0.145
-0.13
-0.13
-0.145
-0.09
-0.11
-0.095
-0.08
-0.1
-0.085
-0.055
-0.045
-0.06
-0.03
-0.03
-0.015
-0.055
-0.045
-0.03
0.03
0.005
-0.03
-0.055
-0.015
-0.02
-0.045
-0.035
0.0
0.02
-0.035
-0.05
-0.08
-0.045
-0.105
-0.06
-0.03
-0.075
-0.09
-0.155
-0.065
-0.13
-0.145
-0.12
-0.14
-0.165
-0.21
-0.19
-0.185
-0.18
-0.205
-0.19
-0.235
-0.195
-0.205
-0.235
-0.24
-0.25
-0.215
-0.22
-0.23
-0.24
-0.245
-0.22
-0.245
-0.215
-0.23
-0.255
-0.23
-0.25
-0.24
-0.25
-0.25
-0.245
-0.23
-0.23
-0.235
-0.235
-0.265
-0.235
-0.27
-0.315
-0.28
-0.22
-0.22
-0.21
-0.255
-0.23
-0.23
-0.235
-0.215
-0.2
-0.24
-0.275
-0.22
-0.29
-0.235
-0.245
-0.225
-0.24
-0.225
-0.21
-0.205
-0.24
-0.245
-0.22
-0.2
-0.225
-0.22
-0.225
-0.2
-0.225
-0.215
-0.22
-0.225
-0.215
-0.235
-0.24
-0.22
-0.24
-0.255
-0.25
-0.21
-0.215
-0.26
-0.23
-0.245
-0.25
-0.23
-0.21
-0.205
-0.19
-0.225
-0.205
-0.205
-0.225
-0.24
-0.225
-0.24
-0.195
-0.225
-0.22
-0.235
-0.22
-0.24
-0.205
-0.215
-0.22
-0.23
-0.225
-0.21
-0.205
-0.21
-0.215
-0.215
-0.205
-0.195
-0.22
-0.19
-0.205
-0.195
-0.18
-0.17
-0.16
-0.17
-0.175
-0.155
-0.15
-0.17
-0.15
-0.155
-0.13
-0.145
-0.17
-0.16
-0.135
-0.165
-0.215
-0.215
-0.25
-0.22
-0.28
-0.29
-0.23
-0.155
-0.195
-0.235
-0.215
-0.185
-0.18
-0.245
-0.205
-0.235
-0.235
-0.24
-0.22
-0.22
-0.24
-0.22
-0.23
-0.255
-0.255
-0.23
-0.26
-0.235
-0.225
-0.225
-0.23
-0.24
-0.235
-0.205
-0.25
-0.25
-0.24
-0.265
-0.305
-0.325
-0.335
-0.305
-0.265
-0.195
-0.09
0.03
0.215
0.355
0.485
0.555
0.46
0.37
0.25
0.215
0.14
0.0
-0.22
-0.405
-0.53
-0.5
-0.425
-0.365
-0.34
-0.25
-0.215
-0.22
-0.24
-0.205
-0.23
-0.245
-0.235
-0.25
-0.25
-0.235
-0.235
-0.215
-0.235
-0.225
-0.25
-0.24
-0.24
-0.255
-0.255
-0.225
-0.245
-0.23
-0.245
-0.235
-0.235
-0.26
-0.225
-0.225
-0.23
-0.21
-0.225
-0.2
-0.235
-0.22
-0.235
-0.235
-0.225
-0.21
-0.225
-0.23
-0.26
-0.23
-0.2
-0.22
-0.215
-0.205
-0.225
-0.27
-0.16
-0.185
-0.2
-0.165
-0.19
-0.21
-0.22
-0.205
-0.21
-0.18
-0.2
-0.175
-0.185
-0.185
-0.135
-0.175
-0.2
-0.19
-0.19
-0.15
-0.175
-0.135
-0.13
-0.14
-0.155
-0.125
-0.125
-0.125
-0.11
-0.11
-0.105
-0.085
-0.08
-0.07
-0.075
-0.05
-0.085
-0.06
-0.06
-0.05
-0.04
-0.005
0.015
0.0
-0.02
0.005
-0.035
-0.04
-0.04
-0.085
0.015
0.02
0.02
-0.01
-0.04
0.0
-0.02
-0.025
-0.045
-0.065
-0.07
-0.05
-0.055
-0.095
-0.11
-0.145
-0.125
-0.115
-0.11
-0.185
-0.14
-0.16
-0.155
-0.185
-0.165
-0.215
-0.205
-0.185
-0.185
-0.18
-0.19
-0.215
-0.205
-0.21
-0.245
-0.215
-0.215
-0.22
-0.19
-0.2
-0.195
-0.2
-0.205
-0.21
-0.23
-0.21
-0.215
-0.22
-0.245
-0.23
-0.235
-0.215
-0.205
-0.22
-0.255
-0.225
-0.23
-0.18
-0.215
-0.215
-0.215
-0.22
-0.22
-0.215
-0.185
-0.19
-0.215
-0.22
-0.235
-0.23
-0.17
-0.18
-0.21
-0.205
-0.2
-0.195
-0.21
-0.165
-0.195
-0.185
-0.205
-0.185
-0.185
-0.185
-0.205
-0.185
-0.205
-0.205
-0.195
-0.18
-0.18
-0.18
-0.205
-0.2
-0.225
-0.235
-0.195
-0.21
-0.215
-0.2
-0.165
-0.18
-0.205
-0.225
-0.19
-0.21
-0.165
-0.175
-0.19
-0.175
-0.21
-0.21
-0.185
-0.18
-0.205
-0.185
-0.155
-0.2
-0.15
-0.165
-0.19
-0.17
-0.19
-0.185
-0.165
-0.125
-0.12
-0.13
-0.15
-0.13
-0.135
-0.125
-0.14
-0.13
-0.15
-0.14
-0.135
-0.19
-0.21
-0.18
-0.185
-0.195
-0.185
-0.22
-0.185
-0.185
-0.2
-0.2
-0.21
-0.205
-0.18
-0.195
-0.195
-0.235
-0.225
-0.215
-0.23
-0.2
-0.215
-0.2
-0.2
-0.22
-0.225
-0.225
-0.19
-0.19
-0.22
-0.24
-0.215
-0.215
-0.23
-0.225
-0.215
-0.245
-0.225
-0.285
-0.29
-0.325
-0.3
-0.26
-0.19
-0.125
-0.03
0.105
0.28
0.465
0.53
0.59
0.485
0.4
0.3
0.2
0.085
-0.01
-0.23
-0.405
-0.455
-0.455
-0.355
-0.295
-0.255
-0.225
-0.215
-0.215
-0.195
-0.21
-0.22
-0.225
-0.225
-0.26
-0.225
-0.21
-0.21
-0.215
-0.23
-0.235
-0.22
-0.22
-0.23
-0.24
-0.25
-0.205
-0.205
-0.23
-0.245
-0.23
-0.205
-0.23
-0.22
-0.19
-0.195
-0.21
-0.25
-0.225
-0.195
-0.225
-0.18
-0.2
-0.22
-0.185
-0.17
-0.185
-0.195
-0.195
-0.175
-0.185
-0.22
-0.205
-0.18
-0.165
-0.195
-0.195
-0.18
-0.17
-0.18
-0.22
-0.2
-0.18
-0.175
-0.16
-0.175
-0.16
-0.19
-0.19
-0.195
-0.185
-0.155
-0.155
-0.165
-0.15
-0.155
-0.165
-0.17
-0.115
-0.125
-0.095
-0.07
-0.11
-0.085
-0.095
-0.095
-0.095
-0.075
-0.05
-0.055
-0.05
-0.005
-0.025
-0.04
-0.015
0.0
-0.04
-0.03
-0.025
-0.015
-0.015
0.045
0.015
-0.015
0.0
-0.015
-0.01
0.035
0.005
0.01
-0.02
-0.07
-0.07
-0.045
-0.075
-0.07
-0.09
-0.09
-0.045
-0.06
-0.11
-0.085
-0.115
-0.135
-0.145
-0.15
-0.21
-0.2
-0.175
-0.16
-0.16
-0.17
-0.175
-0.185
-0.195
-0.2
-0.18
-0.225
-0.175
-0.185
-0.225
-0.225
-0.21
-0.225
-0.2
-0.18
-0.175
-0.195
-0.2
-0.21
-0.195
-0.23
-0.225
-0.19
-0.225
-0.2
-0.22
-0.22
-0.175
-0.195
-0.185
-0.225
-0.19
-0.235
-0.2
-0.185
-0.19
-0.2
-0.25
-0.205
-0.215
-0.22
-0.16
-0.165
-0.17
-0.2
-0.21
-0.215
-0.195
-0.225
-0.225
-0.195
-0.155
-0.215
-0.2
-0.155
-0.22
-0.23
-0.165
-0.16
-0.195
-0.205
-0.205
-0.19
-0.145
-0.19
-0.185
-0.175
-0.195
-0.175
-0.17
-0.19
-0.23
-0.17
-0.17
-0.19
-0.17
-0.195
-0.185
-0.235
-0.21
-0.16
-0.185
-0.135
-0.175
-0.195
-0.205
-0.17
-0.195
-0.18
-0.19
-0.19
-0.15
-0.19
-0.155
-0.18
-0.16
-0.16
-0.13
-0.12
-0.12
-0.115
-0.135
-0.09
-0.115
-0.135
-0.075
-0.08
-0.115
-0.14
-0.13
-0.12
-0.16
-0.155
-0.15
-0.165
-0.21
-0.2
-0.22
-0.15
-0.16
-0.185
-0.185
-0.15
-0.185
-0.19
-0.19
-0.175
-0.245
-0.24
-0.21
-0.21
-0.145
-0.19
-0.125
-0.155
-0.17
-0.24
-0.26
-0.235
-0.23
-0.155
-0.16
-0.095
-0.16
-0.18
-0.24
-0.205
-0.225
-0.22
-0.215
-0.22
-0.285
-0.275
-0.245
-0.19
-0.075
0.03
0.16
0.32
0.475
0.545
0.59
0.625
0.475
0.385
0.355
0.29
0.09
-0.05
-0.26
-0.345
-0.32
-0.275
-0.205
-0.165
-0.135
-0.185
-0.195
-0.19
-0.22
-0.205
-0.17
-0.17
-0.19
-0.205
-0.22
-0.2
-0.22
-0.215
-0.21
-0.18
-0.21
-0.185
-0.22
-0.215
-0.19
-0.21
-0.185
-0.19
-0.205
-0.185
-0.185
-0.295
-0.205
-0.195
-0.225
-0.145
-0.175
-0.13
-0.165
-0.15
-0.17
-0.22
-0.23
-0.185
-0.215
-0.175
-0.17
-0.185
-0.175
-0.155
-0.165
-0.21
-0.19
-0.165
-0.19
-0.17
-0.125
-0.2
-0.18
-0.18
-0.175
-0.185
-0.2
-0.17
-0.15
-0.165
-0.19
-0.16
-0.165
-0.125
-0.17
-0.175
-0.18
-0.145
-0.185
-0.115
-0.135
-0.16
-0.15
-0.14
-0.115
-0.055
-0.08
-0.03
-0.05
-0.09
-0.075
-0.07
-0.075
-0.035
-0.05
-0.08
-0.01
-0.05
-0.075
-0.02
-0.06
0.01
0.01
0.025
0.045
0.025
-0.03
-0.005
-0.01
-0.025
0.015
0.01
0.01
-0.02
-0.04
-0.035
-0.03
-0.03
-0.08
-0.085
-0.115
-0.14
-0.12
-0.12
-0.155
-0.105
-0.085
-0.085
-0.13
-0.165
-0.23
-0.12
-0.135
-0.165
-0.16
-0.21
-0.175
-0.16
-0.205
-0.135
-0.18
-0.21
-0.16
-0.165
-0.16
-0.19
-0.17
-0.175
-0.21
-0.2
-0.16
-0.18
-0.145
-0.175
-0.22
-0.18
-0.15
-0.17
-0.165
-0.14
-0.16
-0.165
-0.19
-0.18
-0.17
-0.19
-0.2
-0.15
-0.175
-0.17
-0.165
-0.17
-0.15
-0.17
-0.2
-0.22
-0.205
-0.165
-0.17
-0.18
-0.18
-0.195
-0.195
-0.14
-0.145
-0.15
-0.2
-0.19
-0.17
-0.18
-0.215
-0.18
-0.145
-0.165
-0.14
-0.165
-0.18
-0.185
-0.16
-0.195
-0.185
-0.195
-0.185
-0.195
-0.21
-0.13
-0.125
-0.15
-0.145
-0.16
-0.175
-0.18
-0.22
-0.17
-0.11
-0.125
-0.14
-0.125
-0.17
-0.135
-0.16
-0.195
-0.15
-0.19
-0.175
-0.165
-0.11
-0.14
-0.125
-0.12
-0.12
-0.13
-0.16
-0.125
-0.09
-0.11
-0.08
-0.09
-0.06
-0.07
-0.045
-0.125
-0.145
-0.11
-0.075
-0.075
-0.115
-0.13
-0.12
-0.135
-0.13
-0.135
-0.14
-0.15
-0.185
-0.16
-0.17
-0.195
-0.145
-0.12
-0.2
-0.16
-0.165
-0.16
-0.16
-0.205
-0.195
-0.16
-0.185
-0.135
-0.125
-0.155
-0.16
-0.195
-0.155
-0.185
-0.25
-0.17
-0.155
-0.18
-0.15
-0.17
-0.155
-0.21
-0.19
-0.225
-0.28
-0.275
-0.23
-0.145
-0.11
0.015
0.155
0.3
0.505
0.62
0.64
0.62
0.52
0.36
0.315
0.26
0.13
-0.02
-0.235
-0.345
-0.325
-0.305
-0.23
-0.13
-0.165
-0.135
-0.1
-0.16
-0.145
-0.19
-0.215
-0.22
-0.185
-0.15
-0.135
-0.225
-0.2
-0.165
-0.205
-0.16
-0.135
-0.18
-0.15
-0.185
-0.205
-0.175
-0.17
-0.14
-0.155
-0.2
-0.175
-0.185
-0.17
-0.145
-0.15
-0.165
-0.15
-0.175
-0.19
-0.195
-0.185
-0.15
-0.145
-0.135
-0.13
-0.165
-0.145
-0.16
-0.185
-0.2
-0.15
-0.17
-0.195
-0.18
-0.16
-0.14
-0.12
-0.11
-0.135
-0.155
-0.16
-0.125
-0.145
-0.13
-0.12
-0.18
-0.13
-0.125
-0.145
-0.175
-0.14
-0.06
-0.085
-0.105
-0.09
-0.115
-0.155
-0.09
-0.07
-0.07
-0.08
-0.1
-0.075
-0.09
-0.045
-0.03
-0.055
-0.015
-0.02
-0.035
-0.025
-0.015
-0.02
-0.015
0.01
0.01
0.04
0.03
0.03
0.02
0.06
0.075
0.065
0.03
0.035
0.04
0.02
-0.01
-0.04
-0.07
-0.03
0.0
0.0
0.005
-0.025
0.01
-0.04
-0.045
-0.135
-0.115
-0.055
-0.085
-0.105
-0.105
-0.125
-0.135
-0.175
-0.125
-0.15
-0.145
-0.14
-0.15
-0.125
-0.125
-0.095
-0.14
-0.15
-0.175
-0.155
-0.185
-0.175
-0.24
-0.155
-0.14
-0.165
-0.17
-0.115
-0.135
-0.165
-0.18
-0.165
-0.13
-0.16
-0.13
-0.135
-0.215
-0.135
-0.16
-0.165
-0.18
-0.2
-0.185
-0.16
-0.13
-0.16
-0.12
-0.095
-0.135
-0.16
-0.185
-0.215
-0.2
-0.17
-0.155
-0.165
-0.175
-0.155
-0.145
-0.165
-0.12
-0.15
-0.21
-0.16
-0.155
-0.175
-0.13
-0.115
-0.155
-0.185
-0.175
-0.165
-0.2
-0.17
-0.185
-0.19
-0.145
-0.15
-0.15
-0.155
-0.17
-0.16
-0.16
-0.145
-0.12
-0.12
-0.135
-0.13
-0.225
-0.19
-0.155
-0.2
-0.16
-0.115
-0.155
-0.135
-0.13
-0.135
-0.175
-0.165
-0.18
-0.175
-0.155
-0.15
-0.17
-0.19
-0.17
-0.1
-0.12
-0.11
-0.145
-0.145
-0.19
-0.185
-0.13
-0.15
-0.1
-0.11
-0.17
-0.145
-0.11
-0.12
-0.09
-0.04
-0.065
-0.06
-0.1
-0.065
-0.115
-0.13
-0.07
-0.11
-0.08
-0.115
-0.125
-0.14
-0.19
-0.105
-0.17
-0.21
-0.14
-0.165
-0.17
-0.19
-0.175
-0.135
-0.185
-0.145
-0.145
-0.13
-0.17
-0.19
-0.185
-0.195
-0.18
-0.2
-0.18
-0.225
-0.215
-0.145
-0.17
-0.205
-0.21
-0.165
-0.12
-0.175
-0.15
-0.19
-0.14
-0.17
-0.24
-0.26
-0.275
-0.29
-0.225
-0.215
-0.12
-0.01
0.065
0.19
0.4
0.54
0.605
0.645
0.6
0.485
0.37
0.26
0.155
0.045
-0.11
-0.32
-0.355
-0.31
-0.23
-0.27
-0.215
-0.145
-0.185
-0.105
-0.18
-0.19
-0.225
-0.185
-0.205
-0.2
-0.22
-0.19
-0.175
-0.205
-0.185
-0.17
-0.215
-0.19
-0.15
-0.18
-0.23
-0.235
-0.185
-0.175
-0.195
-0.19
-0.175
-0.21
-0.2
-0.205
-0.175
-0.205
-0.21
-0.225
-0.225
-0.135
-0.17
-0.215
-0.245
-0.24
-0.255
-0.2
-0.155
-0.165
-0.175
-0.19
-0.19
-0.165
-0.165
-0.19
-0.145
-0.18
-0.17
-0.15
-0.15
-0.18
-0.185
-0.23
-0.195
-0.135
-0.195
-0.155
-0.12
-0.135
-0.145
-0.085
-0.155
-0.185
-0.15
-0.12
-0.13
-0.115
-0.1
-0.105
-0.08
-0.13
-0.135
-0.135
-0.08
-0.055
-0.05
-0.03
-0.06
-0.11
-0.065
-0.01
0.005
-0.04
-0.015
-0.045
-0.005
-0.035
0.005
0.045
-0.01
0.06
0.005
-0.015
0.03
0.06
0.015
0.04
0.05
0.01
-0.015
0.01
-0.005
-0.035
0.0
0.015
-0.03
-0.055
-0.09
-0.055
-0.06
-0.13
-0.095
-0.12
-0.085
-0.125
-0.165
-0.145
-0.14
-0.15
-0.13
-0.15
-0.17
-0.145
-0.145
-0.115
-0.175
-0.175
-0.175
-0.165
-0.17
-0.205
-0.18
-0.18
-0.23
-0.19
-0.18
-0.13
-0.14
-0.185
-0.175
-0.16
-0.16
-0.17
-0.14
-0.155
-0.19
-0.18
-0.175
-0.18
-0.16
-0.165
-0.165
-0.15
-0.175
-0.11
-0.155
-0.18
-0.175
-0.145
-0.165
-0.17
-0.15
-0.15
-0.2
-0.15
-0.14
-0.15
-0.185
-0.18
-0.18
-0.135
-0.205
-0.2
-0.2
-0.19
-0.225
-0.205
-0.19
-0.19
-0.15
-0.125
-0.125
-0.145
-0.165
-0.15
-0.145
-0.14
-0.11
-0.165
-0.17
-0.195
-0.215
-0.17
-0.11
-0.155
-0.155
-0.13
-0.09
-0.105
-0.15
-0.105
-0.11
-0.16
-0.14
-0.21
-0.115
-0.1
-0.12
-0.165
-0.135
-0.14
-0.145
-0.18
-0.09
-0.07
-0.13
-0.115
-0.135
-0.16
-0.115
-0.135
-0.115
-0.11
-0.11
-0.11
-0.08
-0.11
-0.13
-0.145
-0.16
-0.17
-0.175
-0.13
-0.1
-0.085
-0.1
-0.125
-0.135
-0.13
-0.12
-0.115
-0.1
-0.11
-0.1
-0.125
-0.09
-0.11
-0.12
-0.095
-0.105
-0.095
-0.045
-0.065
-0.035
-0.06
-0.065
-0.075
-0.085
-0.035
-0.06
-0.06
-0.035
-0.04
-0.065
-0.08
-0.13
-0.09
-0.105
-0.105
-0.165
-0.14
-0.15
-0.19
-0.135
-0.115
-0.1
-0.155
-0.11
-0.085
-0.13
-0.115
-0.145
-0.13
-0.115
-0.085
-0.1
-0.115
-0.14
-0.145
-0.1
-0.09
-0.14
-0.18
-0.135
-0.115
-0.14
-0.13
-0.145
-0.195
-0.13
-0.115
-0.175
-0.18
-0.245
-0.215
-0.225
-0.17
-0.135
-0.125
0.04
0.235
0.415
0.57
0.685
0.75
0.765
0.645
0.46
0.38
0.33
0.165
-0.04
-0.265
-0.35
-0.29
-0.225
-0.18
-0.11
-0.125
-0.13
-0.135
-0.14
-0.09
-0.09
-0.145
-0.15
-0.125
-0.185
-0.17
-0.115
-0.12
-0.175
-0.115
-0.125
-0.22
-0.21
-0.105
-0.13
-0.145
-0.16
-0.15
-0.09
-0.14
-0.11
-0.13
-0.095
-0.12
-0.155
-0.185
-0.14
-0.155
-0.105
-0.12
-0.13
-0.115
-0.155
-0.115
-0.16
-0.14
-0.095
-0.135
-0.155
-0.145
-0.11
-0.09
-0.085
-0.09
-0.11
-0.155
-0.095
-0.11
-0.07
-0.09
-0.1
-0.12
-0.1
-0.12
-0.075
-0.06
-0.05
-0.07
-0.075
-0.055
-0.115
-0.085
-0.155
-0.125
-0.05
-0.06
-0.085
-0.065
-0.045
-0.055
-0.035
-0.01
-0.02
0.02
-0.01
-0.03
0.04
0.02
0.035
0.065
0.03
0.04
0.08
0.025
0.03
0.09
0.055
0.07
0.12
0.11
0.105
0.115
0.085
0.11
0.135
0.115
0.1
0.125
0.12
0.085
0.08
0.075
0.05
0.055
0.075
0.02
0.02
-0.005
0.025
0.02
-0.01
-0.055
-0.06
-0.07
-0.105
-0.045
-0.11
-0.055
-0.085
-0.1
-0.085
-0.08
-0.105
-0.095
-0.07
-0.085
-0.07
-0.06
-0.08
-0.11
-0.085
-0.1
-0.11
-0.105
-0.09
-0.1
-0.115
-0.09
-0.08
-0.065
-0.08
-0.11
-0.13
-0.09
-0.12
-0.135
-0.18
-0.14
-0.14
-0.1
-0.075
-0.11
-0.135
-0.12
-0.08
-0.08
-0.14
-0.095
-0.095
-0.075
-0.12
-0.07
-0.12
-0.105
-0.07
-0.085
-0.075
-0.12
-0.11
-0.075
-0.09
-0.11
-0.1
-0.1
-0.1
-0.12
-0.085
-0.1
-0.105
-0.11
-0.11
-0.075
-0.065
-0.12
-0.1
-0.09
-0.055
-0.11
-0.08
-0.08
-0.11
-0.12
-0.09
-0.065
-0.085
-0.09
-0.13
-0.105
-0.115
-0.095
-0.09
-0.14
-0.06
-0.085
-0.1
-0.065
-0.075
-0.1
-0.11
-0.09
-0.135
-0.11
-0.14
-0.135
-0.075
-0.035
-0.095
-0.06
-0.07
-0.08
-0.09
-0.12
-0.145
-0.135
-0.095
-0.1
-0.075
-0.075
-0.08
-0.1
-0.11
-0.09
-0.08
-0.08
-0.115
-0.09
-0.085
-0.07
-0.05
-0.1
-0.105
-0.095
-0.05
-0.1
-0.115
-0.1
-0.04
-0.1
-0.075
-0.13
-0.06
-0.085
-0.085
-0.1
-0.07
-0.06
-0.05
-0.075
-0.06
-0.095
-0.07
-0.1
-0.065
-0.04
-0.01
-0.005
-0.03
0.015
0.045
-0.025
-0.02
0.025
-0.035
-0.04
-0.05
-0.045
-0.05
-0.115
-0.105
-0.13
-0.065
-0.085
-0.1
-0.12
-0.1
-0.07
-0.1
-0.1
-0.08
-0.085
-0.1
-0.1
-0.11
-0.07
-0.095
-0.07
-0.105
-0.1
-0.105
-0.095
-0.15
-0.065
-0.075
-0.085
-0.095
-0.105
-0.095
-0.11
-0.1
-0.09
-0.09
-0.095
-0.12
-0.195
-0.175
-0.22
-0.17
-0.065
-0.06
0.02
0.13
0.355
0.55
0.735
0.795
0.77
0.73
0.51
0.45
0.38
0.25
0.025
-0.17
-0.3
-0.265
-0.155
-0.18
-0.125
-0.09
-0.095
-0.1
-0.14
-0.09
-0.05
-0.11
-0.115
-0.09
-0.08
-0.105
-0.12
-0.125
-0.09
-0.08
-0.12
-0.075
-0.11
-0.1
-0.09
-0.145
-0.135
-0.11
-0.055
-0.1
-0.07
-0.09
-0.065
-0.115
-0.09
-0.105
-0.11
-0.09
-0.09
-0.145
-0.105
-0.125
-0.075
-0.07
-0.08
-0.115
-0.065
-0.1
-0.07
-0.085
-0.115
-0.06
-0.065
-0.06
-0.025
-0.08
-0.085
-0.065
-0.05
-0.06
-0.125
-0.1
-0.075
-0.02
-0.065
-0.05
-0.07
-0.03
-0.035
-0.02
-0.025
-0.07
-0.055
-0.015
-0.005
-0.05
-0.025
0.015
-0.075
-0.045
-0.025
0.02
0.025
0.035
0.05
0.05
0.055
0.035
0.065
0.09
0.09
0.055
0.115
0.105
0.115
0.11
0.08
0.08
0.115
0.135
0.15
0.11
0.13
0.14
0.145
0.18
0.145
0.135
0.125
0.125
0.12
0.135
0.105
0.095
0.08
0.065
0.065
0.08
0.035
0.06
0.05
0.02
0.03
0.055
0.0
-0.03
-0.03
-0.075
-0.115
-0.115
-0.1
0.045
0.0
-0.03
-0.025
-0.04
-0.1
-0.07
-0.025
-0.015
-0.04
-0.045
-0.08
-0.035
-0.075
-0.09
-0.05
-0.06
-0.065
-0.055
-0.03
-0.04
-0.07
-0.035
-0.07
-0.065
-0.085
-0.045
-0.06
-0.075
-0.045
-0.05
-0.065
-0.1
-0.07
-0.035
-0.065
-0.07
-0.075
-0.065
-0.06
-0.08
-0.11
-0.055
-0.06
-0.07
-0.06
-0.1
-0.09
-0.05
-0.015
-0.06
-0.055
-0.05
-0.045
-0.02
-0.03
-0.005
-0.02
-0.11
-0.055
-0.105
-0.04
-0.02
-0.025
0.0
-0.035
-0.06
-0.06
-0.025
-0.045
-0.06
-0.07
-0.065
-0.03
-0.075
-0.095
-0.03
-0.06
-0.08
-0.055
-0.065
-0.06
-0.03
-0.07
-0.09
-0.02
-0.015
-0.025
-0.05
-0.04
-0.03
-0.03
-0.035
-0.055
-0.095
-0.05
-0.035
-0.045
-0.07
-0.05
-0.075
-0.03
-0.05
-0.055
-0.045
-0.055
-0.055
-0.045
-0.025
-0.045
-0.045
-0.05
-0.035
-0.03
-0.02
-0.04
-0.045
-0.04
-0.065
-0.055
-0.07
-0.035
-0.07
0.005
-0.08
-0.06
-0.045
-0.02
-0.075
-0.07
-0.085
-0.005
-0.06
-0.05
0.0
-0.03
0.015
-0.05
-0.035
0.02
0.035
-0.03
0.015
0.08
0.045
0.06
0.035
0.035
0.06
0.035
-0.035
0.06
0.01
0.02
-0.02
-0.025
-0.045
-0.03
-0.075
-0.015
-0.04
-0.04
-0.045
-0.07
-0.01
-0.055
-0.06
-0.07
-0.08
-0.07
-0.06
-0.07
-0.075
-0.08
-0.08
-0.075
-0.05
-0.025
-0.05
-0.05
-0.045
-0.08
-0.075
-0.085
-0.045
-0.07
-0.05
-0.06
-0.035
-0.06
-0.095
-0.13
-0.09
-0.16
-0.175
-0.075
-0.03
0.015
0.11
0.345
0.475
0.625
0.815
0.895
0.835
0.69
0.545
0.505
0.39
0.205
0.03
-0.22
-0.295
-0.25
-0.175
-0.11
-0.065
-0.05
-0.025
-0.03
-0.065
-0.045
-0.08
-0.065
-0.055
-0.095
-0.08
-0.055
-0.07
-0.03
-0.075
-0.06
-0.08
-0.085
-0.09
-0.06
-0.04
-0.09
-0.105
-0.055
-0.03
-0.035
-0.065
-0.045
-0.065
0.005
-0.055
-0.06
-0.055
-0.075
-0.075
-0.105
-0.015
-0.02
-0.055
-0.055
-0.04
-0.05
-0.04
-0.04
0.005
-0.03
-0.045
-0.045
-0.025
-0.01
-0.035
-0.035
-0.025
-0.01
-0.02
-0.045
-0.06
-0.05
0.005
0.02
-0.01
0.01
-0.06
-0.045
-0.01
0.02
-0.015
-0.03
-0.03
-0.015
0.005
0.0
0.065
0.055
0.06
0.035
0.03
0.02
0.08
0.07
0.075
0.1
0.105
0.105
0.125
0.105
0.155
0.125
0.13
0.12
0.155
0.165
0.17
0.15
0.17
0.21
0.175
0.185
0.175
0.14
0.15
0.135
0.14
0.18
0.18
0.14
0.15
0.155
0.155
0.135
0.105
0.12
0.09
0.085
0.095
0.06
0.05
0.095
0.04
0.04
0.0
0.035
0.025
-0.01
-0.005
-0.055
0.005
0.06
-0.03
-0.06
-0.015
0.005
-0.02
0.02
-0.04
-0.02
-0.07
-0.045
-0.025
-0.04
-0.015
-0.06
-0.015
-0.045
-0.025
-0.055
-0.06
0.03
0.01
-0.03
-0.045
-0.06
-0.055
-0.025
-0.035
-0.06
-0.035
-0.045
-0.025
-0.015
-0.035
-0.015
-0.035
-0.055
-0.025
0.0
-0.01
-0.02
-0.03
-0.065
0.01
-0.045
-0.025
-0.035
-0.02
-0.01
-0.045
-0.015
-0.045
-0.015
-0.03
-0.05
-0.025
0.02
0.005
-0.02
0.025
-0.03
-0.03
-0.02
-0.035
0.0
-0.04
-0.02
-0.055
-0.04
-0.07
-0.01
-0.045
-0.01
0.025
0.0
-0.035
-0.015
-0.015
0.005
-0.085
0.005
-0.015
-0.01
-0.015
-0.015
-0.03
-0.015
-0.03
-0.04
-0.015
-0.03
-0.045
-0.03
-0.06
-0.05
0.0
-0.01
0.005
-0.04
-0.05
-0.06
-0.01
-0.005
-0.025
-0.04
-0.045
-0.005
0.01
0.015
0.025
0.015
-0.025
-0.005
-0.01
0.005
0.02
0.01
0.045
-0.005
-0.025
0.025
0.06
0.075
0.03
0.055
0.065
0.045
0.055
0.035
0.035
-0.015
-0.03
0.015
-0.025
0.015
-0.015
-0.01
0.0
-0.02
-0.045
-0.045
-0.035
-0.05
-0.01
-0.05
-0.025
-0.05
-0.075
-0.04
-0.055
-0.08
-0.035
-0.03
-0.04
-0.045
-0.04
-0.05
-0.06
-0.03
-0.05
-0.06
-0.05
-0.03
-0.035
-0.055
-0.04
-0.135
-0.095
-0.02
-0.06
-0.105
-0.13
-0.115
-0.105
-0.065
0.03
0.17
0.3
0.455
0.615
0.72
0.765
0.635
0.545
0.47
0.42
0.295
0.11
-0.1
-0.275
-0.32
-0.325
-0.245
-0.145
-0.095
-0.06
-0.07
-0.04
-0.055
-0.045
-0.055
-0.06
-0.07
-0.065
-0.045
-0.045
-0.07
-0.095
-0.06
-0.12
-0.055
-0.085
-0.095
-0.04
-0.045
-0.075
-0.05
-0.055
-0.085
-0.055
-0.08
-0.045
-0.065
-0.07
-0.055
-0.035
-0.055
-0.105
-0.055
-0.035
-0.05
-0.08
-0.04
-0.03
-0.045
-0.035
-0.045
-0.025
-0.04
-0.035
-0.055
-0.04
-0.03
-0.04
-0.035
-0.12
-0.035
-0.015
-0.05
-0.03
0.02
-0.045
-0.055
-0.035
-0.005
-0.01
-0.045
-0.01
0.005
0.005
-0.03
-0.005
0.0
-0.005
0.02
0.005
0.015
0.005
-0.025
0.05
0.075
0.02
0.07
0.095
0.06
0.05
0.065
0.08
0.09
0.11
0.12
0.13
0.13
0.135
0.165
0.135
0.105
0.145
0.145
0.17
0.145
0.16
0.155
0.165
0.145
0.135
0.145
0.135
0.165
0.135
0.155
0.1
0.125
0.11
0.105
0.09
0.07
0.055
0.065
0.04
0.035
-0.015
0.025
0.02
-0.01
-0.015
-0.005
-0.04
-0.06
-0.065
-0.085
-0.07
-0.065
-0.065
-0.025
0.05
-0.06
-0.1
-0.045
-0.01
-0.05
-0.095
-0.045
-0.055
-0.065
-0.025
-0.04
-0.06
-0.06
-0.055
-0.09
-0.08
-0.075
-0.06
-0.055
-0.05
-0.08
-0.09
-0.065
-0.09
-0.055
-0.075
-0.08
-0.06
-0.085
-0.09
0.0
-0.07
-0.07
-0.075
-0.06
-0.11
-0.055
-0.045
-0.03
-0.06
-0.07
-0.08
-0.08
-0.06
-0.065
-0.035
-0.03
-0.055
-0.04
-0.08
-0.07
-0.045
-0.06
-0.05
-0.045
-0.035
-0.065
-0.055
-0.075
-0.02
-0.065
-0.055
-0.065
-0.06
-0.08
-0.035
-0.035
-0.05
-0.06
-0.04
-0.065
-0.05
-0.065
-0.075
-0.075
-0.05
-0.06
-0.025
-0.03
-0.04
-0.045
-0.055
-0.06
-0.05
-0.06
-0.04
-0.035
-0.05
-0.065
-0.04
-0.04
-0.035
-0.02
-0.005
0.01
-0.02
0.01
0.02
0.03
0.005
-0.015
0.045
0.01
0.025
0.025
0.0
-0.03
-0.05
0.015
-0.065
-0.1
-0.07
-0.065
-0.045
-0.06
-0.035
-0.055
-0.115
-0.035
-0.06
-0.08
-0.05
-0.07
-0.11
-0.11
-0.09
-0.05
-0.045
-0.07
-0.06
-0.065
-0.08
-0.085
-0.065
-0.085
-0.085
-0.1
-0.1
-0.06
-0.08
-0.06
-0.07
-0.085
-0.09
-0.105
-0.14
-0.15
-0.185
-0.15
-0.13
-0.075
0.04
0.175
0.35
0.57
0.705
0.765
0.795
0.68
0.57
0.485
0.365
0.24
0.09
-0.145
-0.26
-0.28
-0.27
-0.17
-0.12
-0.1
-0.075
-0.075
-0.06
-0.065
-0.08
-0.06
-0.1
-0.095
-0.08
-0.055
-0.105
-0.095
-0.095
-0.085
-0.105
-0.17
-0.16
-0.055
-0.055
-0.05
-0.065
-0.065
-0.08
-0.08
-0.05
-0.075
-0.08
-0.085
-0.085
-0.075
-0.085
-0.08
-0.08
-0.095
-0.08
-0.09
-0.09
-0.1
-0.075
-0.085
-0.085
-0.095
-0.065
-0.04
-0.07
-0.065
-0.05
-0.07
-0.08
-0.115
-0.095
-0.055
-0.05
-0.075
-0.055
-0.08
-0.025
-0.03
-0.08
-0.045
-0.05
-0.045
-0.03
0.015
0.005
-0.015
-0.02
-0.04
-0.04
-0.005
0.005
0.01
0.03
0.04
0.015
-0.01
0.035
0.02
0.055
0.05
0.04
0.03
0.07
0.095
0.1
0.085
0.105
0.07
0.1
0.085
0.12
0.115
0.13
0.115
0.115
0.135
0.13
0.135
0.18
0.165
0.175
0.125
0.13
0.13
0.125
0.1
0.085
0.06
0.07
0.065
0.02
0.04
0.06
0.07
0.02
0.045
0.02
0.025
-0.01
-0.005
-0.005
-0.005
-0.045
-0.04
-0.03
-0.04
-0.04
-0.06
-0.07
-0.05
-0.07
-0.065
-0.045
-0.065
-0.065
-0.065
-0.06
-0.08
-0.05
-0.055
-0.05
-0.095
-0.06
-0.06
-0.07
-0.075
-0.075
-0.065
-0.11
-0.065
-0.065
-0.07
-0.075
-0.05
-0.05
-0.075
-0.085
-0.025
-0.055
-0.095
-0.095
-0.065
-0.085
-0.045
-0.05
-0.065
-0.065
-0.06
-0.075
-0.08
-0.07
-0.045
-0.05
-0.03
-0.025
-0.085
-0.1
-0.055
-0.06
-0.05
-0.04
-0.03
-0.05
-0.04
-0.05
-0.03
-0.02
-0.035
-0.075
-0.035
-0.075
-0.045
-0.07
-0.02
-0.06
-0.035
-0.05
-0.04
-0.055
-0.06
-0.075
-0.045
-0.035
-0.025
-0.02
0.01
-0.03
-0.075
-0.06
-0.08
-0.055
-0.035
-0.03
-0.075
-0.08
0.005
0.03
-0.055
-0.08
-0.005
-0.01
-0.01
0.0
0.01
0.005
0.005
0.025
0.06
0.04
0.035
0.03
0.04
0.025
0.01
0.015
0.03
0.03
0.025
-0.015
-0.045
-0.03
-0.015
-0.065
-0.05
-0.055
-0.05
-0.05
-0.08
-0.07
-0.085
-0.09
-0.08
-0.05
-0.095
-0.025
-0.04
-0.07
-0.065
-0.06
-0.08
-0.06
-0.09
-0.05
-0.075
-0.055
-0.065
-0.1
-0.125
-0.055
-0.09
-0.04
-0.07
-0.05
-0.075
-0.105
-0.12
-0.195
-0.18
-0.185
-0.13
-0.075
-0.015
0.115
0.305
0.475
0.61
0.775
0.835
0.83
0.72
0.61
0.53
0.445
0.245
0.045
-0.18
-0.305
-0.255
-0.16
-0.125
-0.135
-0.035
-0.065
-0.06
-0.06
-0.07
-0.065
-0.095
-0.115
-0.11
-0.105
-0.1
-0.135
-0.055
-0.06
-0.08
-0.105
-0.07
-0.07
-0.075
-0.085
-0.105
-0.095
-0.1
-0.07
-0.075
-0.085
-0.085
-0.085
-0.07
-0.1
-0.06
-0.065
-0.07
-0.06
-0.095
-0.08
-0.1
-0.12
-0.045
-0.08
-0.07
-0.07
-0.07
-0.07
-0.05
-0.08
-0.07
-0.105
-0.045
-0.05
-0.055
-0.07
-0.055
-0.045
-0.065
-0.04
-0.035
-0.08
-0.045
-0.04
-0.015
-0.04
-0.04
-0.04
-0.035
-0.04
-0.07
-0.005
-0.015
-0.02
-0.005
0.025
-0.005
0.025
0.04
-0.03
0.03
0.045
0.01
0.045
0.06
0.06
0.06
0.07
0.08
0.08
0.095
0.075
0.095
0.12
0.135
0.11
0.085
0.105
0.13
0.155
0.145
0.145
0.105
0.13
0.14
0.17
0.155
0.135
0.13
0.105
0.105
0.08
0.05
0.08
0.085
0.02
0.015
0.03
0.055
0.04
0.02
0.025
-0.01
-0.035
-0.005
-0.045
-0.035
-0.015
-0.065
-0.045
-0.05
-0.08
-0.065
-0.055
-0.05
-0.04
-0.03
-0.045
-0.135
-0.045
-0.04
-0.075
-0.05
-0.08
-0.06
-0.03
-0.045
-0.05
-0.075
-0.055
-0.05
-0.1
-0.05
-0.065
-0.06
-0.07
-0.065
-0.07
-0.065
-0.07
-0.085
-0.05
-0.05
-0.07
-0.02
-0.045
-0.065
-0.065
-0.06
-0.05
-0.055
-0.11
-0.065
-0.055
-0.055
-0.06
-0.035
-0.05
-0.075
-0.055
-0.07
-0.055
-0.055
-0.035
-0.025
-0.055
-0.04
-0.055
-0.055
-0.085
-0.095
-0.105
-0.055
-0.02
-0.065
-0.01
-0.065
-0.025
-0.04
-0.03
-0.035
-0.055
-0.05
-0.035
-0.055
-0.025
-0.065
-0.06
-0.075
-0.07
-0.025
-0.05
-0.08
-0.06
-0.045
-0.025
-0.03
-0.1
-0.075
0.005
0.005
-0.02
-0.035
-0.02
-0.02
-0.03
-0.025
-0.02
-0.035
-0.045
-0.01
-0.005
0.01
0.01
0.015
0.005
-0.015
0.01
0.07
0.06
0.025
0.03
0.01
0.02
-0.03
-0.025
-0.045
-0.055
-0.045
-0.055
-0.065
-0.09
-0.06
-0.065
-0.08
-0.07
-0.07
-0.075
-0.08
-0.035
-0.03
-0.08
-0.06
-0.05
-0.085
-0.055
-0.085
-0.07
-0.085
-0.085
-0.095
-0.08
-0.085
-0.085
-0.09
-0.1
-0.16
-0.025
-0.025
-0.07
-0.1
-0.145
-0.125
-0.17
-0.185
-0.15
-0.09
-0.025
0.14
0.3
0.465
0.645
0.76
0.84
0.835
0.72
0.53
0.5
0.4
0.185
0.0
-0.21
-0.295
-0.24
-0.15
-0.12
-0.085
-0.075
-0.075
-0.055
-0.07
-0.095
-0.09
-0.09
-0.08
-0.095
-0.09
-0.085
-0.08
-0.09
-0.11
-0.095
-0.09
-0.06
-0.11
-0.075
-0.1
-0.12
-0.105
-0.1
-0.15
-0.08
-0.08
-0.085
-0.07
-0.075
-0.09
-0.095
-0.08
-0.09
-0.075
-0.07
-0.07
-0.07
-0.075
-0.075
-0.07
-0.07
-0.09
-0.07
-0.05
-0.055
-0.085
-0.065
-0.055
-0.06
-0.065
-0.055
-0.06
-0.06
-0.06
-0.065
-0.07
-0.07
-0.055
-0.045
-0.03
-0.035
-0.055
-0.055
-0.035
-0.07
-0.07
-0.05
-0.03
0.01
-0.075
-0.025
-0.03
-0.005
-0.06
0.025
0.05
0.065
0.005
0.045
0.095
0.065
0.07
0.065
0.07
0.055
0.085
0.075
0.09
0.115
0.11
0.12
0.15
0.135
0.14
0.12
0.125
0.14
0.14
0.14
0.13
0.16
0.135
0.125
0.1
0.14
0.1
0.105
0.06
0.09
0.09
0.08
0.045
0.06
0.065
0.055
0.01
-0.005
-0.01
0.01
0.0
-0.005
-0.025
-0.04
-0.04
-0.04
-0.05
-0.05
-0.045
-0.035
-0.03
-0.045
-0.055
-0.07
-0.055
-0.055
-0.065
-0.04
-0.045
-0.07
-0.09
-0.03
-0.035
-0.055
-0.06
-0.13
-0.065
-0.105
-0.055
-0.035
-0.045
-0.03
-0.055
-0.045
-0.055
-0.065
-0.045
-0.07
-0.06
-0.045
-0.07
-0.085
-0.07
-0.05
-0.02
-0.065
-0.06
-0.045
-0.065
-0.035
-0.085
-0.03
-0.045
-0.02
-0.045
-0.085
-0.055
-0.015
-0.045
-0.06
-0.085
-0.075
-0.045
-0.045
-0.045
-0.015
-0.01
-0.05
-0.035
-0.08
-0.045
-0.045
-0.025
-0.06
-0.065
-0.06
-0.01
-0.04
-0.075
-0.055
-0.08
-0.05
-0.07
-0.05
-0.05
-0.05
-0.065
-0.095
-0.025
-0.04
-0.03
-0.065
-0.055
-0.04
-0.055
-0.045
-0.045
-0.085
-0.045
-0.025
-0.04
-0.045
-0.055
-0.03
-0.025
-0.005
-0.015
0.015
0.02
0.015
0.01
0.03
0.03
0.03
0.025
0.035
-0.025
-0.005
0.05
0.035
0.01
-0.005
-0.08
-0.065
-0.02
-0.03
-0.04
-0.02
-0.035
-0.07
-0.07
-0.06
-0.09
-0.08
-0.09
-0.08
-0.115
-0.08
-0.03
-0.07
-0.05
-0.095
-0.045
-0.06
-0.07
-0.075
-0.075
-0.065
-0.065
-0.11
-0.15
-0.04
-0.02
-0.03
-0.06
-0.065
-0.065
-0.07
-0.11
-0.135
-0.155
-0.185
-0.18
-0.14
-0.08
-0.005
0.12
0.285
0.43
0.635
0.77
0.835
0.815
0.705
0.575
0.515
0.395
0.22
-0.015
-0.225
-0.29
-0.255
-0.18
-0.13
-0.075
-0.075
-0.085
-0.085
-0.04
-0.09
-0.09
-0.085
-0.095
-0.07
-0.07
-0.075
-0.085
-0.07
-0.075
-0.1
-0.08
-0.09
-0.075
-0.11
-0.09
-0.07
-0.1
-0.08
-0.075
-0.11
-0.13
-0.09
-0.05
-0.035
-0.075
-0.08
-0.085
-0.065
-0.075
-0.11
-0.075
-0.11
-0.11
-0.065
-0.09
-0.12
-0.04
-0.02
-0.05
-0.015
-0.03
-0.055
-0.05
-0.08
-0.06
-0.065
-0.075
-0.045
-0.04
-0.06
-0.04
-0.065
-0.06
-0.05
-0.08
-0.025
-0.05
-0.035
-0.02
-0.055
-0.03
-0.03
-0.035
-0.01
0.0
-0.005
0.01
0.005
-0.005
0.01
0.05
0.05
0.045
0.06
0.045
0.03
0.03
0.075
0.055
0.08
0.085
0.06
0.09
0.12
0.14
0.165
0.165
0.13
0.15
0.11
0.13
0.15
0.145
0.145
0.15
0.15
0.13
0.14
0.14
0.15
0.12
0.11
0.08
0.05
0.055
0.09
0.075
0.04
0.025
0.055
0.02
-0.015
-0.005
-0.005
-0.04
0.0
-0.015
-0.015
-0.045
-0.055
-0.05
-0.045
-0.065
-0.01
-0.035
-0.055
-0.04
-0.055
-0.065
-0.075
-0.03
-0.055
-0.045
-0.11
-0.045
-0.045
-0.05
-0.07
-0.06
-0.105
-0.085
-0.045
-0.055
-0.07
-0.075
-0.065
-0.015
-0.045
-0.075
-0.08
-0.07
-0.095
-0.05
-0.055
-0.015
-0.045
-0.03
-0.075
-0.085
-0.07
-0.07
-0.075
-0.105
-0.04
-0.035
-0.03
-0.03
-0.03
-0.065
-0.05
-0.04
-0.04
-0.07
-0.075
-0.055
-0.045
-0.03
-0.03
-0.055
-0.035
-0.045
-0.035
-0.07
-0.07
-0.05
-0.1
-0.04
-0.08
-0.015
-0.045
-0.055
-0.045
-0.04
-0.035
-0.045
-0.065
-0.055
-0.03
-0.02
-0.04
-0.055
-0.08
-0.035
-0.05
-0.06
0.0
-0.01
-0.04
-0.04
-0.015
-0.03
-0.04
-0.025
-0.015
-0.055
-0.01
-0.005
-0.025
0.01
0.02
-0.02
0.02
0.03
0.025
0.02
0.025
0.06
0.045
0.04
0.01
0.015
0.015
-0.03
0.005
-0.045
-0.055
-0.045
-0.055
-0.09
-0.09
-0.04
-0.025
-0.055
-0.05
-0.06
-0.07
-0.04
-0.05
-0.065
-0.065
-0.045
-0.09
-0.035
-0.04
-0.07
-0.085
-0.135
-0.075
-0.065
-0.075
-0.08
-0.05
-0.05
-0.06
-0.045
-0.06
-0.11
-0.12
-0.07
-0.08
-0.125
-0.135
-0.12
-0.165
-0.13
-0.065
-0.025
0.06
0.195
0.375
0.54
0.71
0.785
0.79
0.69
0.6
0.5
0.4
0.25
0.06
-0.175
-0.3
-0.335
-0.31
-0.2
-0.165
-0.11
-0.05
-0.055
-0.04
-0.07
-0.065
-0.07
-0.075
-0.085
-0.085
-0.135
-0.1
-0.075
-0.11
-0.095
-0.085
-0.105
-0.04
-0.065
-0.1
-0.09
-0.095
-0.085
-0.07
-0.025
-0.06
-0.055
-0.05
-0.07
-0.08
-0.07
-0.08
-0.085
-0.085
-0.045
-0.075
-0.055
-0.03
-0.035
-0.04
-0.05
-0.045
-0.05
-0.065
-0.04
-0.045
-0.035
-0.04
-0.02
-0.08
-0.04
-0.055
-0.045
-0.05
-0.05
-0.045
-0.04
-0.025
-0.01
-0.02
-0.025
-0.05
-0.03
-0.01
-0.005
-0.05
-0.025
-0.03
0.005
0.005
-0.015
-0.01
0.085
0.005
0.015
-0.005
0.05
0.055
0.045
0.085
0.07
0.035
0.105
0.125
0.095
0.11
0.115
0.115
0.145
0.115
0.125
0.11
0.14
0.15
0.14
0.16
0.16
0.175
0.16
0.18
0.165
0.155
0.13
0.16
0.115
0.095
0.11
0.115
0.09
0.08
0.095
0.06
0.085
0.095
0.07
-0.035
0.03
0.025
-0.01
-0.02
-0.005
0.005
-0.025
-0.01
-0.04
-0.06
-0.055
-0.025
-0.03
-0.07
-0.055
-0.045
-0.1
-0.09
-0.03
-0.04
-0.05
-0.05
-0.045
-0.04
-0.04
-0.04
-0.055
-0.07
-0.065
-0.05
-0.07
-0.08
-0.075
-0.05
-0.075
-0.045
-0.025
-0.075
-0.03
-0.045
-0.035
-0.045
-0.07
-0.04
-0.04
-0.065
-0.08
-0.03
-0.04
-0.055
-0.05
-0.055
-0.02
-0.03
-0.03
-0.03
-0.07
-0.04
-0.055
-0.08
-0.005
-0.035
-0.025
-0.025
-0.05
-0.045
-0.04
-0.06
-0.09
-0.085
-0.015
-0.04
-0.04
-0.05
-0.005
-0.04
-0.025
-0.08
-0.02
0.005
-0.015
-0.025
-0.005
-0.05
-0.01
-0.06
-0.035
-0.03
-0.045
-0.03
-0.02
-0.03
-0.02
-0.005
0.005
-0.02
-0.015
-0.005
-0.01
-0.035
-0.005
0.005
-0.025
0.025
0.03
0.025
0.035
0.01
0.035
0.045
0.01
0.04
0.05
0.01
0.025
0.015
-0.04
-0.02
-0.025
-0.04
-0.065
-0.07
-0.02
-0.07
-0.095
-0.12
-0.03
-0.02
-0.04
-0.1
-0.095
-0.07
-0.025
-0.01
-0.05
-0.05
-0.05
-0.045
-0.035
-0.045
-0.06
-0.02
-0.06
-0.07
-0.045
-0.045
-0.03
-0.1
-0.065
-0.04
-0.05
-0.05
-0.065
-0.095
-0.1
-0.1
-0.16
-0.175
-0.145
-0.11
-0.03
0.05
0.135
0.33
0.49
0.64
0.76
0.77
0.605
0.515
0.455
0.385
0.22
0.05
-0.17
-0.32
-0.35
-0.31
-0.245
-0.125
-0.1
-0.12
-0.09
-0.09
-0.06
-0.025
-0.035
-0.04
-0.065
-0.09
-0.075
-0.09
-0.06
-0.045
-0.08
-0.075
-0.065
-0.07
-0.085
-0.07
-0.045
-0.065
-0.075
-0.07
-0.06
-0.05
-0.05
-0.075
-0.065
-0.05
-0.065
-0.06
-0.1
-0.055
-0.03
-0.045
-0.035
-0.025
-0.05
-0.07
-0.055
-0.03
-0.07
-0.085
-0.045
-0.04
-0.065
-0.035
-0.03
-0.095
0.01
-0.01
-0.045
-0.04
-0.005
-0.095
-0.02
-0.02
-0.005
-0.02
-0.035
-0.025
0.005
-0.01
-0.01
-0.01
-0.03
0.01
0.025
0.035
0.005
0.015
0.035
0.005
0.03
0.035
0.045
0.06
0.07
0.06
0.08
0.1
0.075
0.095
0.085
0.11
0.125
0.11
0.11
0.14
0.12
0.13
0.135
0.14
0.13
0.16
0.105
0.18
0.135
0.12
0.145
0.145
0.135
0.12
0.17
0.13
0.08
0.065
0.06
0.125
0.08
0.07
0.035
0.045
0.05
0.04
0.045
-0.005
-0.005
-0.01
-0.02
-0.025
-0.025
-0.02
-0.03
-0.05
-0.07
-0.005
-0.045
-0.005
-0.04
-0.06
-0.06
-0.07
-0.015
-0.04
-0.04
-0.08
-0.05
-0.07
-0.06
-0.055
-0.1
-0.055
-0.03
-0.045
-0.05
-0.06
-0.085
-0.045
-0.06
-0.08
-0.055
-0.045
-0.015
-0.055
-0.07
-0.08
-0.035
-0.06
-0.03
-0.075
-0.085
-0.04
-0.055
-0.06
-0.035
-0.06
-0.055
-0.04
-0.045
-0.03
-0.01
-0.045
-0.03
-0.055
-0.03
-0.03
-0.035
-0.05
-0.05
-0.04
-0.06
-0.05
-0.04
-0.03
-0.07
-0.04
-0.04
-0.025
-0.035
-0.065
-0.055
-0.04
-0.02
-0.01
-0.01
-0.05
-0.04
0.0
-0.04
-0.035
-0.025
0.01
-0.01
0.005
-0.025
-0.05
-0.055
0.025
0.03
0.02
0.015
0.0
0.06
0.025
0.065
0.025
-0.02
0.02
0.015
0.02
-0.005
0.0
-0.03
-0.01
-0.035
-0.06
-0.065
-0.045
-0.05
-0.08
-0.075
-0.04
-0.035
-0.075
-0.05
-0.09
-0.055
-0.07
-0.035
-0.075
-0.065
-0.065
-0.065
-0.065
-0.05
-0.085
-0.06
-0.055
-0.045
-0.03
-0.085
-0.08
-0.105
-0.09
-0.055
-0.055
-0.045
-0.055
-0.09
-0.095
-0.095
-0.13
-0.155
-0.185
-0.155
-0.13
-0.045
0.075
0.165
0.33
0.505
0.63
0.72
0.71
0.605
0.49
0.44
0.34
0.19
-0.01
-0.22
-0.315
-0.295
-0.21
-0.19
-0.19
-0.105
-0.06
-0.06
-0.065
-0.07
-0.065
-0.09
-0.115
-0.065
-0.1
-0.09
-0.07
-0.085
-0.095
-0.095
-0.085
-0.11
-0.055
-0.07
-0.08
-0.1
-0.115
-0.125
-0.07
-0.07
-0.09
-0.075
-0.11
-0.065
-0.065
-0.055
-0.05
-0.095
-0.065
-0.065
-0.035
-0.075
-0.06
-0.065
-0.085
-0.055
-0.06
-0.05
-0.06
-0.05
-0.055
-0.06
-0.085
-0.09
-0.07
-0.055
-0.065
-0.06
-0.075
0.0
-0.08
-0.045
-0.02
-0.04
-0.025
-0.03
-0.04
-0.055
-0.06
-0.02
-0.02
-0.035
-0.03
-0.015
0.0
-0.005
0.015
0.01
0.02
0.01
-0.015
0.025
0.03
0.04
0.055
0.07
0.055
0.065
0.05
0.065
0.09
0.06
0.075
0.05
0.13
0.115
0.115
0.105
0.1
0.12
0.16
0.145
0.145
0.085
0.135
0.11
0.09
0.115
0.11
0.09
0.065
0.1
0.085
0.07
0.045
0.04
0.055
0.01
0.005
-0.01
-0.005
0.0
-0.015
-0.04
-0.05
-0.03
-0.04
-0.055
-0.03
-0.04
-0.065
-0.055
-0.05
-0.095
-0.055
-0.06
-0.045
-0.095
-0.08
-0.09
-0.06
-0.12
-0.075
-0.14
-0.07
-0.045
-0.02
-0.07
-0.105
-0.06
-0.095
-0.075
-0.1
-0.1
-0.045
-0.075
-0.07
-0.095
-0.08
-0.065
-0.08
-0.065
-0.06
-0.065
-0.1
-0.055
-0.075
-0.08
-0.1
-0.085
-0.08
-0.08
-0.07
-0.075
-0.06
-0.085
-0.07
-0.08
-0.1
-0.045
-0.075
-0.05
-0.055
-0.09
-0.07
-0.055
-0.05
-0.055
-0.06
-0.075
-0.085
-0.1
-0.12
-0.07
0.01
-0.055
-0.065
-0.06
-0.05
-0.055
-0.04
-0.07
-0.04
-0.025
-0.03
-0.065
-0.01
-0.025
-0.04
-0.05
-0.045
-0.065
-0.045
-0.05
-0.03
-0.02
-0.01
0.005
0.0
0.01
0.02
-0.005
0.025
0.015
-0.01
-0.005
-0.025
-0.005
-0.06
-0.04
-0.08
-0.08
-0.05
-0.07
-0.075
-0.095
-0.08
-0.075
-0.115
-0.105
-0.08
-0.095
-0.085
-0.07
-0.07
-0.095
-0.095
-0.095
-0.13
-0.06
-0.075
-0.1
-0.055
-0.065
-0.08
-0.055
-0.075
-0.08
-0.085
-0.085
-0.075
-0.09
-0.12
-0.09
-0.1
-0.1
-0.18
-0.15
-0.225
-0.215
-0.175
-0.1
-0.075
0.055
0.145
0.315
0.48
0.635
0.715
0.735
0.62
0.53
0.435
0.41
0.245
0.085
-0.155
-0.27
-0.32
-0.295
-0.15
-0.14
-0.105
-0.08
-0.095
-0.115
-0.11
-0.095
-0.09
-0.12
-0.08
-0.11
-0.095
-0.085
-0.13
-0.105
-0.105
-0.12
-0.125
-0.11
-0.1
-0.105
-0.09
-0.1
-0.145
-0.105
-0.075
-0.1
-0.08
-0.09
-0.115
-0.1
-0.135
-0.105
-0.065
-0.09
-0.085
-0.1
-0.105
-0.125
-0.105
-0.085
-0.055
-0.075
-0.065
-0.075
-0.13
-0.115
-0.07
-0.085
-0.105
-0.095
-0.08
-0.11
-0.06
-0.07
-0.095
-0.045
-0.07
-0.065
-0.065
-0.07
-0.075
-0.07
-0.08
-0.08
-0.065
-0.03
-0.045
-0.03
-0.05
-0.05
-0.025
-0.025
-0.035
-0.015
-0.005
-0.015
0.0
0.015
-0.01
0.0
0.02
0.04
0.04
0.045
0.06
0.065
0.07
0.085
0.09
0.08
0.085
0.095
0.085
0.115
0.075
0.055
0.105
0.08
0.085
0.125
0.105
0.125
0.13
0.07
0.08
0.07
0.065
0.055
0.06
0.03
-0.015
0.025
0.005
-0.005
-0.045
-0.01
-0.02
-0.015
-0.07
-0.07
-0.04
-0.05
-0.02
-0.055
-0.06
-0.08
-0.08
-0.055
-0.06
-0.075
-0.095
-0.055
-0.06
-0.08
-0.115
-0.105
-0.07
-0.07
-0.075
-0.085
-0.13
-0.085
-0.065
-0.085
-0.11
-0.115
-0.085
-0.1
-0.13
-0.105
-0.1
-0.135
-0.085
-0.065
-0.105
-0.13
-0.06
-0.095
-0.11
-0.08
-0.11
-0.095
-0.15
-0.115
-0.075
-0.075
-0.09
-0.05
-0.05
-0.08
-0.08
-0.09
-0.09
-0.105
-0.145
-0.16
-0.04
-0.05
-0.065
-0.075
-0.06
-0.07
-0.075
-0.07
-0.055
-0.09
-0.085
-0.115
-0.09
-0.07
-0.08
-0.125
-0.08
-0.07
-0.045
-0.09
-0.06
-0.055
-0.04
-0.085
-0.055
-0.08
-0.1
-0.1
-0.075
-0.125
-0.075
-0.07
-0.045
-0.055
-0.06
-0.045
-0.05
-0.035
-0.04
-0.05
-0.06
-0.04
-0.015
-0.03
-0.065
-0.035
-0.01
-0.005
-0.045
-0.01
-0.005
-0.015
-0.015
-0.045
-0.045
0.02
0.005
-0.035
-0.06
-0.055
-0.065
-0.065
-0.085
-0.07
-0.06
-0.11
-0.125
-0.105
-0.125
-0.09
-0.1
-0.13
-0.08
-0.085
-0.05
-0.075
-0.13
-0.055
-0.1
-0.11
-0.105
-0.115
-0.12
-0.08
-0.07
-0.11
-0.085
-0.105
-0.085
-0.125
-0.095
-0.055
-0.095
-0.1
-0.12
-0.145
-0.15
-0.18
-0.22
-0.22
-0.205
-0.105
-0.06
0.07
0.17
0.34
0.545
0.605
0.69
0.73
0.685
0.555
0.49
0.395
0.255
0.11
-0.125
-0.245
-0.29
-0.205
-0.155
-0.14
-0.11
-0.075
-0.11
-0.075
-0.105
-0.13
-0.145
-0.135
-0.13
-0.11
-0.085
-0.11
-0.115
-0.105
-0.12
-0.135
-0.12
-0.12
-0.1
-0.08
-0.125
-0.14
-0.125
-0.115
-0.12
-0.14
-0.09
-0.105
-0.085
-0.115
-0.135
-0.14
-0.085
-0.11
-0.125
-0.1
-0.105
-0.09
-0.115
-0.105
-0.115
-0.09
-0.08
-0.105
-0.08
-0.105
-0.13
-0.12
-0.1
-0.115
-0.085
-0.07
-0.08
-0.06
-0.065
-0.09
-0.1
-0.09
-0.08
-0.105
-0.105
-0.07
-0.09
-0.07
-0.08
-0.05
-0.08
-0.04
-0.055
-0.055
-0.055
-0.04
-0.045
-0.06
-0.03
-0.045
0.005
-0.015
0.005
0.0
0.01
0.01
0.01
0.045
0.045
0.035
0.015
0.085
0.075
0.085
0.085
0.045
0.07
0.14
0.11
0.095
0.09
0.095
0.1
0.11
0.09
0.085
0.15
0.075
0.08
0.08
0.07
0.07
0.045
0.06
0.03
0.005
-0.025
-0.01
-0.04
-0.02
0.0
-0.035
-0.035
-0.04
-0.035
-0.07
-0.075
-0.08
-0.07
-0.1
-0.07
-0.105
-0.1
-0.065
-0.115
-0.105
-0.06
-0.14
-0.07
-0.075
-0.095
-0.115
-0.07
-0.04
-0.06
-0.11
-0.115
-0.115
-0.115
-0.145
-0.095
-0.065
-0.08
-0.115
-0.115
-0.05
-0.095
-0.095
-0.105
-0.13
-0.115
-0.105
-0.135
-0.085
-0.11
-0.07
-0.09
-0.08
-0.105
-0.11
-0.12
-0.1
-0.075
-0.095
-0.1
-0.1
-0.095
-0.12
-0.105
-0.135
-0.115
-0.135
-0.11
-0.095
-0.065
-0.085
-0.1
-0.11
-0.105
-0.065
-0.055
-0.085
-0.08
-0.09
-0.09
-0.135
-0.13
-0.065
-0.11
-0.155
-0.145
-0.085
-0.035
-0.04
-0.065
-0.1
-0.09
-0.08
-0.08
-0.09
-0.07
-0.09
-0.115
-0.09
-0.085
-0.08
-0.1
-0.115
-0.14
-0.11
-0.09
-0.09
-0.09
-0.08
-0.1
-0.145
-0.095
-0.095
-0.04
-0.065
-0.065
-0.075
-0.09
-0.09
-0.085
-0.105
-0.115
-0.095
-0.08
-0.085
-0.095
-0.085
-0.09
-0.09
-0.075
-0.115
-0.105
-0.055
-0.08
-0.05
-0.035
-0.09
-0.055
0.005
-0.045
-0.035
-0.08
-0.01
-0.035
-0.035
-0.025
-0.03
-0.05
-0.03
-0.01
-0.065
-0.085
-0.065
-0.075
-0.145
-0.13
-0.115
-0.09
-0.105
-0.09
-0.085
-0.075
-0.13
-0.115
-0.065
-0.09
-0.09
-0.135
-0.105
-0.105
-0.12
-0.145
-0.135
-0.125
-0.12
-0.125
-0.135
-0.075
-0.09
-0.095
-0.095
-0.11
-0.125
-0.15
-0.125
-0.11
-0.1
