# TIPE ECG 2021 - ECG-ID Database v1.0.0 par Physionet
# [Numéro de la personne, Période d'échantillonnage, Prénom, Age, Sexe, Date de l'enregistrement]
[52, 0.002, Pamela, 23, F, 12.05.2005]
-0.06
-0.05
-0.015
-0.055
-0.035
-0.025
-0.015
-0.035
-0.06
-0.01
-0.075
-0.035
-0.035
-0.045
-0.02
-0.035
-0.025
-0.06
-0.055
-0.035
-0.065
-0.01
-0.015
-0.07
0.0
-0.03
-0.065
-0.035
-0.03
-0.025
-0.025
-0.06
-0.02
-0.025
-0.04
-0.015
-0.035
-0.05
-0.065
-0.055
-0.04
-0.07
-0.065
-0.08
-0.06
-0.04
-0.035
-0.045
-0.02
0.02
-0.005
-0.02
-0.015
-0.03
0.025
-0.035
-0.05
-0.005
0.0
-0.015
-0.015
0.005
0.04
0.0
0.025
0.06
0.045
0.025
0.045
0.06
0.01
0.005
0.035
0.035
-0.015
0.015
0.0
-0.03
-0.035
-0.04
-0.055
-0.075
-0.015
-0.02
-0.07
-0.09
-0.05
-0.04
-0.04
-0.06
-0.04
-0.04
-0.05
-0.045
-0.035
-0.08
-0.06
-0.055
-0.07
-0.1
-0.065
-0.07
-0.06
-0.03
-0.07
-0.07
-0.075
-0.05
-0.085
-0.085
-0.15
-0.15
-0.165
-0.145
-0.06
-0.05
0.045
0.125
0.3
0.45
0.61
0.73
0.81
0.815
0.695
0.555
0.46
0.345
0.15
0.03
-0.185
-0.295
-0.195
-0.135
-0.095
-0.065
-0.06
-0.055
-0.05
-0.09
-0.07
-0.06
-0.035
-0.07
-0.075
-0.09
-0.065
-0.085
-0.09
-0.075
-0.06
-0.065
-0.11
-0.03
-0.05
-0.08
-0.065
-0.08
-0.095
-0.05
-0.035
-0.05
-0.05
-0.03
-0.04
-0.1
-0.06
-0.065
-0.055
-0.08
-0.055
-0.04
-0.02
-0.07
-0.05
-0.05
-0.07
-0.06
-0.025
-0.04
-0.04
-0.065
-0.05
-0.05
-0.045
-0.02
-0.035
-0.03
-0.065
-0.11
-0.055
-0.02
-0.01
-0.02
0.015
0.015
-0.015
-0.015
0.0
-0.02
-0.035
-0.035
-0.045
0.01
0.06
0.04
-0.005
0.01
0.03
0.005
0.03
0.06
0.06
0.06
0.03
0.07
0.035
0.085
0.09
0.12
0.09
0.095
0.08
0.15
0.1
0.11
0.105
0.135
0.11
0.115
0.165
0.155
0.13
0.135
0.155
0.18
0.16
0.095
0.135
0.145
0.125
0.11
0.07
0.095
0.08
0.08
0.085
0.07
0.05
0.06
0.035
0.025
0.035
-0.02
0.005
-0.005
0.02
0.03
-0.015
-0.01
0.005
-0.015
-0.02
0.0
-0.07
-0.055
-0.085
-0.03
-0.035
-0.03
-0.04
-0.07
-0.04
-0.02
-0.005
-0.025
-0.09
0.0
-0.055
-0.04
-0.035
-0.025
-0.025
-0.09
-0.07
-0.025
-0.06
0.005
0.01
-0.055
-0.055
-0.04
-0.035
-0.045
-0.01
-0.075
-0.06
-0.065
-0.07
-0.03
-0.025
-0.015
-0.01
-0.02
-0.015
-0.04
-0.005
-0.025
-0.04
-0.02
-0.025
-0.075
-0.07
-0.08
-0.03
-0.04
-0.055
-0.03
-0.035
-0.03
-0.005
-0.025
-0.015
0.005
-0.015
-0.035
-0.06
-0.025
-0.035
-0.06
-0.04
0.04
-0.055
-0.03
-0.085
-0.03
0.02
-0.005
-0.01
0.0
-0.015
-0.01
-0.025
-0.045
-0.045
-0.065
-0.03
-0.01
0.0
0.0
-0.005
-0.015
-0.03
-0.05
0.015
-0.015
0.01
0.01
0.0
-0.025
-0.015
0.015
0.05
0.03
0.03
0.045
0.08
-0.005
0.015
0.05
0.055
0.09
0.06
0.05
-0.015
-0.025
0.01
-0.03
-0.01
-0.055
-0.02
-0.015
-0.03
-0.015
-0.015
-0.025
-0.03
-0.025
-0.045
-0.035
-0.06
-0.04
-0.02
-0.025
-0.04
-0.015
-0.065
-0.04
-0.05
-0.07
-0.03
-0.05
-0.06
-0.085
-0.085
-0.04
-0.01
0.015
-0.01
-0.03
-0.055
-0.08
-0.115
-0.145
-0.155
-0.135
-0.1
0.0
0.095
0.25
0.435
0.58
0.725
0.835
0.875
0.79
0.685
0.515
0.485
0.265
0.075
-0.19
-0.275
-0.25
-0.2
-0.1
-0.06
-0.08
-0.02
-0.025
-0.035
-0.01
-0.04
-0.07
-0.075
-0.035
-0.075
-0.095
-0.045
-0.03
-0.07
-0.04
-0.06
-0.035
-0.05
-0.065
-0.1
-0.03
-0.035
-0.07
-0.065
-0.065
-0.05
-0.065
-0.055
-0.065
-0.07
0.005
-0.02
-0.03
-0.06
-0.035
0.005
-0.02
-0.03
-0.015
-0.03
-0.06
-0.055
-0.03
-0.005
-0.04
-0.03
-0.06
-0.03
-0.035
0.005
0.03
-0.005
-0.03
-0.025
-0.03
-0.03
-0.03
-0.05
-0.04
0.025
0.055
-0.01
0.035
0.025
0.02
0.02
0.03
-0.005
0.02
0.04
-0.005
0.05
0.08
0.055
0.09
0.09
0.09
0.11
0.085
0.105
0.12
0.08
0.12
0.13
0.16
0.14
0.14
0.145
0.125
0.135
0.14
0.12
0.16
0.17
0.14
0.175
0.175
0.195
0.185
0.205
0.135
0.155
0.165
0.19
0.105
0.16
0.15
0.135
0.09
0.115
0.11
0.06
0.07
0.04
0.035
0.045
0.05
0.06
0.08
0.04
0.035
0.01
0.005
-0.03
0.01
0.0
-0.01
-0.005
0.03
-0.05
-0.035
-0.035
0.005
0.005
-0.025
-0.015
0.01
-0.01
-0.01
-0.01
-0.02
-0.015
-0.01
-0.015
-0.01
-0.015
-0.02
-0.005
-0.005
-0.005
-0.005
-0.02
-0.045
-0.06
0.02
-0.005
-0.05
-0.05
-0.01
-0.04
-0.055
-0.03
-0.015
0.025
0.015
0.015
0.01
0.04
-0.005
-0.01
0.025
-0.01
0.015
0.025
-0.02
-0.01
0.0
-0.04
-0.05
-0.05
-0.025
0.03
0.05
0.04
0.005
0.01
0.015
-0.015
0.005
-0.04
-0.01
-0.02
-0.015
0.02
-0.005
0.015
0.04
-0.01
-0.025
-0.025
-0.005
0.02
0.025
0.02
0.02
0.035
0.07
0.1
0.045
0.045
0.035
0.065
0.02
0.075
0.075
0.055
0.065
0.03
-0.005
0.02
-0.01
0.005
-0.015
0.01
-0.035
-0.025
-0.045
-0.01
-0.015
-0.01
-0.05
-0.05
0.0
-0.03
-0.02
-0.035
-0.03
-0.035
-0.01
-0.065
-0.035
-0.01
-0.03
-0.05
-0.045
-0.03
0.01
-0.015
-0.05
-0.05
-0.045
-0.06
-0.075
-0.03
-0.065
-0.125
-0.15
-0.1
-0.11
-0.01
0.035
0.13
0.275
0.43
0.565
0.745
0.83
0.71
0.565
0.475
0.435
0.28
0.095
-0.115
-0.3
-0.365
-0.315
-0.25
-0.135
-0.12
-0.06
-0.01
-0.03
-0.025
-0.05
-0.05
-0.035
-0.02
-0.05
-0.035
-0.035
-0.05
-0.04
-0.055
-0.06
-0.06
-0.06
-0.05
-0.055
-0.04
-0.05
-0.03
-0.06
-0.02
-0.035
-0.03
-0.025
-0.015
-0.04
-0.085
-0.05
-0.045
-0.04
-0.045
-0.04
-0.055
0.01
-0.01
-0.03
-0.025
-0.055
-0.015
-0.015
-0.035
-0.01
-0.005
0.015
-0.015
-0.015
0.02
-0.025
-0.005
-0.01
-0.03
-0.03
-0.015
-0.02
0.02
0.005
0.035
0.045
0.005
0.0
0.005
-0.005
0.005
0.065
0.065
0.025
0.065
0.055
0.065
0.03
0.075
0.1
0.095
0.085
0.085
0.08
0.11
0.11
0.105
0.12
0.105
0.125
0.115
0.12
0.165
0.14
0.18
0.155
0.135
0.145
0.155
0.16
0.16
0.17
0.19
0.19
0.135
0.13
0.145
0.18
0.17
0.145
0.155
0.145
0.09
0.095
0.105
0.09
0.075
0.07
0.055
0.04
0.02
0.015
-0.005
-0.01
0.06
-0.01
-0.005
0.015
0.01
-0.005
-0.045
0.0
-0.015
-0.05
-0.03
-0.02
-0.015
-0.055
-0.04
-0.005
-0.025
-0.06
-0.065
-0.045
-0.02
-0.03
-0.045
-0.02
-0.035
-0.06
-0.015
-0.065
-0.045
0.005
-0.06
-0.02
-0.02
-0.035
-0.03
-0.02
-0.055
-0.03
-0.025
-0.065
-0.01
-0.025
-0.025
-0.015
-0.03
-0.055
-0.06
-0.02
-0.015
0.005
-0.02
-0.01
-0.045
-0.01
-0.08
0.005
-0.015
-0.015
-0.02
0.0
0.01
-0.01
0.01
-0.02
-0.035
-0.025
-0.02
-0.04
-0.015
0.005
0.02
-0.01
-0.025
-0.01
-0.005
-0.03
-0.02
-0.02
0.0
0.0
0.02
0.015
0.025
0.02
0.03
0.03
0.04
0.035
0.055
0.035
0.035
0.045
0.045
0.04
0.02
0.05
0.015
0.025
-0.01
-0.005
-0.015
-0.015
-0.03
-0.03
-0.04
-0.08
-0.075
-0.015
-0.05
-0.065
-0.045
-0.055
-0.055
-0.01
-0.02
-0.01
-0.02
-0.055
-0.08
-0.085
-0.05
-0.07
-0.03
-0.065
-0.075
-0.045
-0.02
-0.045
-0.055
-0.03
-0.035
-0.055
-0.11
-0.145
-0.16
-0.155
-0.09
-0.065
0.05
0.17
0.28
0.455
0.615
0.735
0.775
0.775
0.66
0.54
0.47
0.37
0.18
-0.075
-0.22
-0.28
-0.21
-0.12
-0.115
-0.065
-0.07
-0.015
-0.065
-0.065
-0.06
-0.075
-0.06
-0.115
-0.05
-0.025
-0.055
-0.015
-0.055
-0.085
-0.055
-0.055
-0.055
-0.055
-0.075
-0.1
-0.11
-0.06
-0.03
-0.04
-0.05
-0.045
-0.05
-0.06
-0.075
-0.06
-0.035
-0.06
-0.055
-0.105
-0.07
-0.04
-0.1
-0.075
-0.06
-0.03
-0.065
-0.06
-0.03
0.005
-0.01
-0.015
-0.055
-0.05
-0.06
-0.045
-0.025
-0.01
-0.015
-0.025
-0.07
-0.025
-0.01
-0.025
-0.03
-0.01
0.01
-0.035
0.0
-0.01
0.02
-0.01
-0.01
-0.005
0.005
-0.02
0.005
0.025
0.04
0.05
0.015
0.075
0.07
0.04
0.05
0.065
0.065
0.07
0.09
0.085
0.075
0.095
0.06
0.075
0.135
0.11
0.135
0.145
0.13
0.135
0.165
0.145
0.1
0.115
0.115
0.12
0.14
0.125
0.115
0.145
0.095
0.09
0.11
0.085
0.08
0.06
0.055
0.06
0.035
0.055
0.065
0.02
-0.005
0.02
-0.005
-0.005
0.005
-0.005
-0.025
-0.045
-0.055
-0.055
-0.01
-0.03
-0.005
-0.035
-0.015
-0.03
-0.015
-0.095
-0.105
-0.085
-0.01
-0.01
-0.015
-0.04
-0.05
-0.035
-0.01
-0.03
-0.085
-0.095
-0.025
-0.03
-0.025
-0.03
-0.025
-0.02
-0.02
0.005
-0.01
-0.055
-0.055
-0.085
-0.055
-0.07
-0.065
-0.015
-0.015
0.0
-0.05
-0.04
-0.025
-0.075
-0.035
-0.025
-0.015
0.0
-0.01
-0.02
-0.01
-0.015
-0.02
-0.05
-0.04
-0.045
-0.035
-0.015
-0.015
0.0
-0.015
-0.025
0.005
-0.02
-0.01
0.0
-0.005
-0.015
-0.005
-0.01
0.015
0.05
0.065
0.0
0.045
0.025
0.03
0.02
0.02
0.02
0.07
0.08
0.075
0.045
-0.015
-0.005
-0.04
-0.045
-0.02
-0.03
-0.045
-0.06
-0.045
-0.085
-0.09
-0.02
-0.035
-0.01
-0.025
-0.015
-0.04
-0.02
-0.045
-0.025
-0.08
-0.025
-0.06
-0.07
-0.065
-0.055
-0.09
-0.07
-0.06
-0.045
-0.03
-0.095
-0.02
-0.03
-0.105
-0.09
-0.12
-0.075
-0.145
-0.15
-0.135
-0.025
0.11
0.195
0.35
0.515
0.655
0.78
0.77
0.66
0.59
0.51
0.42
0.285
0.095
-0.12
-0.295
-0.285
-0.225
-0.155
-0.085
-0.035
-0.065
-0.065
-0.025
-0.045
-0.075
-0.075
-0.04
-0.075
-0.085
-0.045
-0.075
-0.065
-0.085
-0.02
-0.06
-0.065
-0.075
-0.08
-0.05
-0.065
-0.04
-0.04
-0.06
-0.055
-0.08
-0.05
-0.055
-0.06
-0.04
-0.075
-0.07
-0.05
-0.08
-0.08
-0.03
-0.09
-0.035
-0.06
-0.06
-0.03
-0.03
-0.005
-0.04
-0.05
-0.065
-0.03
-0.04
-0.03
-0.035
0.005
-0.005
-0.01
-0.02
-0.05
-0.015
0.005
-0.01
-0.01
-0.01
0.025
-0.01
-0.005
0.015
0.01
0.01
0.02
0.005
0.0
0.01
0.04
0.04
0.04
0.045
0.045
0.005
0.055
0.05
0.065
0.075
0.09
0.115
0.12
0.1
0.11
0.07
0.12
0.155
0.145
0.12
0.125
0.16
0.17
0.18
0.16
0.165
0.15
0.155
0.135
0.155
0.15
0.145
0.15
0.135
0.12
0.1
0.07
0.09
0.075
0.095
0.05
0.075
0.035
0.065
0.035
0.03
0.04
0.015
0.01
0.005
-0.02
0.01
-0.03
-0.03
-0.05
-0.015
-0.02
-0.025
-0.045
-0.035
-0.03
-0.035
-0.04
-0.06
-0.01
-0.015
-0.035
-0.065
-0.01
-0.015
-0.04
-0.04
-0.065
-0.06
-0.065
-0.005
-0.06
-0.01
-0.035
-0.07
-0.025
-0.06
-0.01
-0.03
-0.075
-0.02
-0.03
-0.055
-0.04
-0.025
-0.025
-0.015
-0.015
-0.045
-0.06
-0.01
-0.01
-0.025
-0.04
-0.045
-0.05
-0.03
-0.015
-0.035
0.005
-0.015
0.01
-0.07
-0.05
-0.035
-0.04
-0.015
0.0
0.02
-0.005
0.05
0.0
-0.005
-0.02
-0.015
0.005
-0.03
0.025
0.02
0.08
0.04
0.04
0.045
0.035
0.06
0.07
0.06
0.05
0.045
0.01
0.04
0.025
0.01
0.02
0.01
-0.015
-0.025
-0.05
-0.02
-0.02
-0.04
-0.035
-0.05
-0.05
-0.02
-0.06
-0.055
-0.04
0.01
-0.015
-0.035
-0.03
-0.045
-0.035
-0.04
-0.025
-0.03
-0.05
-0.035
-0.045
-0.03
-0.025
-0.015
-0.055
-0.065
-0.04
-0.055
-0.04
-0.08
-0.08
-0.11
-0.125
-0.15
-0.1
-0.035
0.055
0.175
0.335
0.5
0.645
0.735
0.795
0.775
0.65
0.485
0.455
0.34
0.155
-0.01
-0.205
-0.295
-0.22
-0.12
-0.06
-0.055
-0.035
-0.02
-0.025
-0.01
-0.07
-0.055
-0.12
-0.075
-0.03
-0.01
-0.04
-0.05
-0.05
-0.075
-0.075
-0.075
-0.085
-0.07
-0.11
-0.07
-0.065
-0.015
-0.015
-0.01
-0.045
-0.095
-0.09
-0.09
-0.03
-0.055
-0.025
-0.03
-0.05
-0.04
-0.01
0.0
-0.07
-0.06
-0.03
-0.04
-0.025
0.015
-0.03
-0.09
-0.035
-0.03
-0.035
-0.03
-0.005
0.005
-0.055
-0.02
-0.055
-0.025
-0.03
-0.01
-0.01
0.025
0.01
0.015
-0.03
-0.03
-0.015
0.0
0.025
0.005
0.015
0.005
0.01
0.055
0.065
0.055
0.05
0.065
0.065
0.06
0.03
0.045
0.05
0.065
0.1
0.12
0.11
0.14
0.155
0.13
0.125
0.12
0.125
0.145
0.16
0.195
0.145
0.15
0.14
0.14
0.14
0.19
0.15
0.155
0.165
0.15
0.11
0.135
0.13
0.115
0.07
0.06
0.085
0.065
0.055
0.07
0.07
0.07
0.025
0.0
0.035
0.015
-0.03
0.01
0.01
0.01
0.0
-0.01
0.015
0.01
0.0
-0.04
-0.015
-0.02
-0.02
-0.015
-0.05
-0.075
-0.04
-0.005
0.03
-0.04
-0.04
-0.07
-0.015
-0.005
-0.01
0.005
0.0
-0.02
-0.04
-0.025
-0.045
-0.02
-0.015
-0.03
-0.045
-0.025
-0.015
-0.01
0.0
0.005
-0.03
-0.025
-0.03
-0.015
0.005
0.035
-0.035
-0.01
-0.015
0.005
0.015
-0.01
-0.02
-0.045
-0.085
-0.035
-0.015
-0.02
-0.02
0.0
-0.02
0.02
0.005
-0.03
-0.005
-0.005
0.025
0.02
-0.01
-0.015
0.035
0.045
0.005
0.01
-0.025
-0.015
-0.015
0.075
0.06
0.02
0.075
0.065
0.05
0.105
0.045
0.075
0.06
0.035
0.035
0.035
0.03
0.045
0.035
0.025
0.005
-0.025
-0.015
0.03
-0.005
-0.025
-0.005
-0.06
-0.015
-0.01
-0.035
-0.03
-0.005
-0.06
-0.03
-0.015
0.005
-0.01
-0.025
-0.06
-0.04
-0.075
-0.055
-0.005
-0.05
-0.025
-0.045
-0.045
0.02
-0.045
-0.055
-0.015
-0.025
-0.025
-0.045
-0.065
-0.085
-0.115
-0.175
-0.105
-0.05
0.015
0.105
0.275
0.465
0.625
0.755
0.83
0.82
0.725
0.565
0.465
0.365
0.23
0.02
-0.195
-0.27
-0.235
-0.155
-0.11
-0.06
-0.03
-0.01
-0.03
-0.045
-0.04
-0.06
-0.045
-0.055
-0.02
-0.055
-0.05
-0.065
-0.065
-0.085
-0.08
-0.025
-0.04
-0.025
-0.03
-0.03
-0.045
-0.04
-0.04
-0.07
-0.06
-0.08
-0.02
-0.04
-0.05
-0.04
0.0
-0.03
-0.1
-0.07
-0.025
-0.005
-0.035
-0.015
-0.04
-0.065
-0.02
-0.015
-0.035
-0.045
-0.02
-0.01
-0.055
-0.035
-0.02
-0.035
-0.02
-0.015
-0.02
-0.03
-0.01
0.0
-0.015
-0.01
-0.02
-0.02
0.01
0.02
0.02
0.035
-0.03
-0.005
0.035
0.005
0.01
0.03
0.04
0.045
0.07
0.04
0.06
0.07
0.08
0.08
0.02
0.035
0.06
0.075
0.11
0.105
0.16
0.195
0.15
0.135
0.15
0.155
0.105
0.15
0.175
0.18
0.155
0.165
0.17
0.18
0.145
0.16
0.13
0.14
0.13
0.16
0.14
0.13
0.13
0.1
0.105
0.07
0.025
0.07
0.065
0.065
0.06
0.03
0.045
0.005
0.03
0.03
0.0
0.0
0.015
-0.01
-0.005
0.015
0.0
-0.045
-0.015
-0.015
-0.025
-0.03
-0.02
0.0
-0.02
-0.03
-0.035
-0.04
-0.055
-0.045
-0.05
-0.075
0.0
0.025
0.03
-0.01
-0.01
-0.015
-0.03
-0.045
-0.005
-0.015
0.0
-0.035
-0.02
0.0
0.0
0.005
-0.035
-0.025
0.01
-0.025
-0.075
-0.005
0.025
-0.01
-0.01
0.0
-0.035
-0.02
-0.015
-0.05
0.02
-0.005
-0.05
-0.02
-0.04
0.015
0.005
0.0
0.005
0.025
0.03
-0.05
-0.025
0.0
0.0
-0.02
-0.055
0.005
0.045
0.045
0.025
-0.015
0.005
0.015
0.035
0.035
0.02
-0.01
-0.015
0.06
0.015
0.02
0.03
0.045
0.055
0.05
0.08
0.07
0.05
0.035
0.055
0.04
0.025
0.035
0.1
0.04
0.005
0.01
-0.005
-0.01
0.01
0.005
0.01
-0.045
-0.045
-0.04
0.01
-0.025
0.0
-0.025
-0.015
-0.065
-0.045
0.0
0.015
-0.02
-0.01
-0.03
-0.02
-0.005
-0.025
-0.04
-0.045
-0.005
-0.005
0.005
0.0
-0.01
-0.025
-0.045
-0.06
-0.065
-0.08
-0.12
-0.13
-0.115
-0.06
-0.03
0.06
0.2
0.34
0.54
0.67
0.78
0.8
0.695
0.65
0.51
0.445
0.33
0.105
-0.105
-0.255
-0.29
-0.285
-0.215
-0.135
-0.085
-0.125
-0.025
-0.03
-0.045
-0.02
0.015
-0.05
-0.07
-0.04
-0.04
-0.08
-0.055
-0.015
-0.045
-0.035
-0.015
-0.06
-0.05
-0.035
-0.055
-0.02
-0.025
-0.04
-0.005
-0.02
-0.03
-0.015
-0.03
-0.045
-0.08
-0.015
0.0
-0.015
-0.02
-0.065
-0.01
0.045
-0.03
-0.01
-0.02
-0.01
-0.02
-0.005
-0.035
-0.01
0.01
-0.05
-0.02
-0.02
-0.025
-0.055
0.005
-0.015
-0.015
-0.015
-0.04
-0.01
0.025
0.01
0.025
0.025
0.005
-0.02
0.025
0.05
0.035
0.025
0.065
0.065
0.04
0.04
0.065
0.08
0.09
0.1
0.075
0.06
0.075
0.07
0.095
0.095
0.135
0.13
0.155
0.145
0.155
0.115
0.16
0.14
0.115
0.125
0.16
0.15
0.155
0.165
0.2
0.17
0.17
0.145
0.155
0.16
0.175
0.15
0.16
0.105
0.125
0.12
0.09
0.06
0.095
0.045
0.09
0.07
0.065
0.045
0.035
0.02
0.025
0.02
0.0
-0.015
-0.02
-0.06
-0.04
-0.015
0.015
-0.005
0.0
-0.035
0.0
-0.02
-0.065
-0.03
-0.03
-0.04
-0.02
-0.045
-0.085
-0.035
-0.045
-0.015
-0.015
-0.045
-0.015
-0.05
-0.02
-0.035
-0.02
-0.075
-0.025
-0.03
-0.035
-0.03
-0.025
-0.1
-0.08
-0.065
-0.03
-0.035
-0.045
0.03
-0.035
-0.02
-0.035
-0.01
-0.015
-0.025
-0.05
-0.04
-0.025
-0.015
-0.035
-0.02
-0.04
-0.02
-0.02
-0.04
-0.02
-0.025
-0.02
-0.02
-0.005
-0.01
0.0
-0.055
-0.015
-0.04
-0.03
-0.015
-0.02
-0.035
-0.015
-0.03
-0.035
-0.01
0.035
0.02
0.0
0.01
0.01
0.025
0.025
0.01
0.025
0.01
0.06
0.02
0.055
0.035
0.05
-0.015
0.0
0.04
0.04
-0.04
-0.06
-0.045
-0.04
-0.02
-0.055
-0.05
-0.055
-0.055
-0.07
-0.055
-0.055
-0.05
-0.09
-0.075
-0.05
-0.02
-0.035
-0.045
-0.04
-0.055
-0.03
-0.055
-0.045
-0.065
-0.035
-0.09
-0.125
-0.135
-0.175
-0.135
-0.16
-0.105
-0.005
0.07
0.21
0.43
0.605
0.685
0.735
0.675
0.585
0.425
0.42
0.3
0.155
-0.1
-0.26
-0.33
-0.335
-0.265
-0.215
-0.14
-0.09
-0.08
-0.075
-0.08
-0.065
-0.085
-0.045
-0.09
-0.07
-0.08
-0.095
-0.08
-0.045
-0.1
-0.1
-0.05
-0.08
-0.095
-0.095
-0.075
-0.065
-0.095
-0.045
-0.07
-0.065
-0.065
-0.07
-0.1
-0.11
-0.08
-0.08
-0.025
-0.085
-0.045
-0.04
-0.045
-0.035
-0.045
-0.05
-0.07
-0.06
-0.08
-0.035
-0.03
-0.08
-0.1
-0.05
-0.035
-0.065
-0.05
-0.06
-0.055
-0.03
0.0
-0.015
0.0
-0.02
-0.065
-0.06
-0.06
0.0
-0.055
-0.08
-0.01
-0.025
-0.04
0.0
0.005
0.0
0.03
0.005
0.02
0.05
0.045
0.06
0.015
0.04
0.03
0.05
0.04
0.06
0.08
0.085
0.13
0.105
0.105
0.12
0.12
0.12
0.145
0.135
0.15
0.15
0.13
0.12
0.105
0.1
0.095
0.15
0.14
0.13
0.13
0.115
0.09
0.11
0.105
0.105
0.085
0.045
0.04
0.025
0.03
0.035
0.03
0.01
-0.015
-0.01
-0.03
-0.02
-0.04
-0.015
-0.05
-0.055
-0.055
-0.05
-0.055
-0.05
-0.06
-0.045
-0.045
-0.045
-0.075
-0.085
-0.07
-0.115
-0.055
-0.11
-0.075
-0.055
-0.06
-0.045
-0.025
-0.05
-0.055
-0.035
-0.05
-0.045
-0.055
-0.1
-0.07
-0.06
-0.065
-0.08
-0.045
-0.065
-0.06
-0.07
-0.05
-0.055
-0.09
-0.06
-0.04
-0.07
-0.05
-0.055
-0.09
-0.04
-0.025
-0.08
-0.055
-0.07
-0.08
-0.06
-0.065
-0.05
-0.075
-0.04
-0.04
0.0
-0.045
-0.055
-0.045
-0.065
-0.045
-0.035
-0.055
-0.085
-0.085
-0.065
-0.025
-0.055
-0.035
-0.05
0.0
-0.04
-0.045
-0.04
-0.025
-0.025
-0.05
-0.05
-0.035
-0.04
-0.03
-0.06
-0.045
-0.035
-0.035
-0.04
-0.02
-0.045
0.005
0.04
0.005
0.005
0.0
0.005
0.015
0.01
0.035
-0.005
0.015
-0.005
0.0
-0.04
-0.055
-0.08
-0.075
-0.045
-0.065
-0.055
-0.05
-0.06
-0.075
-0.055
-0.04
-0.06
-0.08
-0.065
-0.05
-0.05
-0.08
-0.085
-0.065
-0.095
-0.095
-0.09
-0.105
-0.055
-0.07
-0.09
-0.09
-0.085
-0.075
-0.065
-0.08
-0.115
-0.095
-0.08
-0.095
-0.12
-0.115
-0.15
-0.21
-0.2
-0.16
-0.13
-0.065
0.025
0.165
0.38
0.525
0.66
0.745
0.765
0.645
0.56
0.505
0.41
0.245
0.005
-0.215
-0.365
-0.29
-0.265
-0.215
-0.095
-0.07
-0.05
-0.05
-0.065
-0.09
-0.08
-0.08
-0.1
-0.115
-0.095
-0.115
-0.09
-0.1
-0.1
-0.055
-0.09
-0.095
-0.12
-0.105
-0.085
-0.085
-0.075
-0.08
-0.085
-0.095
-0.085
-0.085
-0.105
-0.09
-0.095
-0.12
-0.09
-0.09
-0.085
-0.07
-0.095
-0.095
-0.11
-0.085
-0.09
-0.08
-0.085
-0.045
-0.1
-0.085
-0.1
-0.085
-0.055
-0.07
-0.06
-0.06
-0.07
-0.075
-0.025
-0.05
-0.085
-0.1
-0.065
-0.055
-0.065
-0.07
-0.05
-0.04
-0.025
-0.005
-0.02
-0.02
-0.025
-0.03
-0.04
-0.025
-0.02
-0.04
0.0
-0.005
0.03
-0.01
-0.005
0.055
0.005
0.075
0.055
0.06
0.045
0.075
0.075
0.065
0.065
0.09
0.115
0.115
0.085
0.1
0.12
0.1
0.095
0.08
0.1
0.1
0.095
0.095
0.115
0.115
0.1
0.065
0.12
0.085
0.05
0.04
0.02
0.025
0.01
-0.01
-0.04
-0.03
-0.05
-0.015
-0.01
-0.03
-0.035
-0.065
-0.075
-0.08
-0.06
-0.065
-0.03
-0.045
-0.08
-0.075
-0.095
-0.11
-0.075
-0.1
-0.105
-0.075
-0.06
-0.08
-0.1
-0.085
-0.1
-0.095
-0.145
-0.105
-0.105
-0.105
-0.035
-0.055
-0.1
-0.115
-0.08
-0.13
-0.1
-0.1
-0.105
-0.135
-0.105
-0.09
-0.105
-0.135
-0.095
-0.105
-0.085
-0.095
-0.075
-0.1
-0.11
-0.105
-0.09
-0.115
-0.045
-0.095
-0.105
-0.08
-0.07
-0.07
-0.065
-0.075
-0.085
-0.085
-0.09
-0.1
-0.1
-0.13
-0.065
-0.08
-0.08
-0.085
-0.08
-0.1
-0.1
-0.065
-0.045
-0.065
-0.06
-0.09
-0.065
-0.07
-0.07
-0.06
-0.085
-0.1
-0.09
-0.1
-0.055
-0.08
-0.13
-0.095
-0.075
-0.075
-0.07
-0.105
-0.09
-0.09
-0.095
-0.075
-0.065
-0.085
-0.05
-0.07
-0.08
-0.065
-0.045
-0.05
-0.025
-0.025
0.005
-0.025
-0.02
-0.02
-0.015
-0.005
-0.055
-0.07
-0.035
-0.02
-0.015
-0.03
-0.05
-0.09
-0.055
-0.065
-0.1
-0.075
-0.055
-0.09
-0.115
-0.115
-0.105
-0.12
-0.12
-0.12
-0.125
-0.1
-0.08
-0.115
-0.105
-0.105
-0.095
-0.08
-0.085
-0.115
-0.14
-0.1
-0.105
-0.095
-0.115
-0.105
-0.11
-0.1
-0.135
-0.125
-0.155
-0.125
-0.145
-0.195
-0.195
-0.22
-0.21
-0.175
-0.095
0.005
0.14
0.33
0.45
0.625
0.725
0.77
0.725
0.635
0.5
0.44
0.29
0.13
-0.025
-0.24
-0.325
-0.26
-0.205
-0.165
-0.125
-0.135
-0.13
-0.1
-0.115
-0.065
-0.095
-0.115
-0.11
-0.15
-0.115
-0.135
-0.115
-0.14
-0.155
-0.145
-0.13
-0.12
-0.135
-0.15
-0.135
-0.095
-0.12
-0.1
-0.13
-0.15
-0.14
-0.15
-0.115
-0.09
-0.1
-0.1
-0.13
-0.085
-0.1
-0.125
-0.125
-0.11
-0.085
-0.07
-0.095
-0.12
-0.125
-0.135
-0.125
-0.125
-0.115
-0.12
-0.115
-0.115
-0.1
-0.12
-0.095
-0.095
-0.12
-0.15
-0.12
-0.06
-0.1
-0.055
-0.08
-0.085
-0.075
-0.085
-0.085
-0.115
-0.11
-0.085
-0.085
-0.03
-0.065
-0.035
-0.015
-0.01
-0.055
-0.1
-0.04
-0.005
-0.02
0.01
0.03
0.025
0.01
0.01
0.01
0.01
0.005
0.045
0.065
0.07
0.07
0.08
0.075
0.095
0.09
0.085
0.105
0.075
0.085
0.045
0.075
0.075
0.08
0.045
0.035
0.015
0.06
0.015
0.02
0.05
0.01
-0.005
0.005
0.0
-0.03
-0.05
-0.065
-0.09
-0.08
-0.045
-0.05
-0.075
-0.09
-0.105
-0.105
-0.065
-0.075
-0.095
-0.11
-0.075
-0.1
-0.1
-0.14
-0.095
-0.105
-0.145
-0.095
-0.105
-0.145
-0.12
-0.09
-0.12
-0.09
-0.115
-0.12
-0.12
-0.13
-0.115
-0.14
-0.105
-0.135
-0.08
-0.125
-0.115
-0.095
-0.115
-0.115
-0.105
-0.14
-0.16
-0.085
-0.125
-0.115
-0.12
-0.12
-0.105
-0.145
-0.15
-0.11
-0.14
-0.115
-0.1
-0.085
-0.11
-0.1
-0.11
-0.12
-0.115
-0.105
-0.1
-0.1
-0.085
-0.13
-0.13
-0.145
-0.105
-0.08
-0.16
-0.11
-0.125
-0.13
-0.095
-0.1
-0.115
-0.055
-0.07
-0.095
-0.1
-0.075
-0.095
-0.095
-0.1
-0.095
-0.135
-0.095
-0.09
-0.1
-0.09
-0.095
-0.115
-0.095
-0.105
-0.105
-0.09
-0.095
-0.115
-0.075
-0.075
-0.085
-0.11
-0.12
-0.1
-0.06
-0.09
-0.125
-0.12
-0.095
-0.1
-0.145
-0.055
-0.09
-0.09
-0.08
-0.075
-0.1
-0.115
-0.12
-0.105
-0.1
-0.075
-0.07
-0.065
-0.105
-0.095
-0.085
-0.09
-0.08
-0.08
-0.1
-0.09
-0.09
-0.055
-0.04
-0.07
-0.09
-0.07
-0.07
-0.04
-0.04
-0.03
-0.05
-0.05
-0.03
-0.01
-0.02
-0.02
-0.04
-0.045
-0.035
-0.065
-0.045
-0.05
-0.075
-0.055
-0.115
-0.075
-0.115
-0.13
-0.075
-0.105
-0.115
-0.1
-0.145
-0.06
-0.09
-0.11
-0.11
-0.155
-0.06
-0.115
-0.08
-0.115
-0.09
-0.15
-0.105
-0.09
-0.105
-0.145
-0.125
-0.075
-0.1
-0.115
-0.105
-0.09
-0.1
-0.13
-0.135
-0.135
-0.185
-0.215
-0.225
-0.19
-0.175
-0.105
0.01
0.155
0.32
0.48
0.66
0.715
0.82
0.775
0.635
0.495
0.425
0.295
0.135
-0.075
-0.28
-0.265
-0.195
-0.155
-0.11
-0.085
-0.12
-0.1
-0.13
-0.09
-0.11
-0.105
-0.14
-0.1
-0.125
-0.165
-0.15
-0.16
-0.1
-0.105
-0.115
-0.07
-0.125
-0.105
-0.085
-0.11
-0.145
-0.115
-0.11
-0.11
-0.13
-0.135
-0.12
-0.09
-0.1
-0.095
-0.11
-0.12
-0.1
-0.11
-0.115
-0.11
-0.115
-0.11
-0.105
-0.135
-0.145
-0.115
-0.105
-0.1
-0.11
-0.065
-0.09
-0.105
-0.125
-0.075
-0.105
-0.105
-0.1
-0.07
-0.075
-0.095
-0.165
-0.085
-0.065
-0.045
-0.05
-0.085
-0.1
-0.065
-0.065
-0.055
-0.06
-0.05
-0.06
-0.05
-0.07
-0.065
-0.04
0.005
-0.045
-0.005
-0.02
0.005
0.01
0.025
-0.005
0.015
0.025
0.045
0.05
0.045
0.055
0.085
0.07
0.07
0.07
0.09
0.115
0.115
0.115
0.14
0.1
0.12
0.12
0.095
0.075
0.09
0.08
0.075
0.055
0.095
0.09
0.085
0.025
0.025
0.055
0.04
0.03
0.055
-0.03
-0.035
-0.025
-0.045
-0.04
-0.07
-0.04
-0.06
-0.06
-0.05
-0.08
-0.085
-0.08
-0.075
-0.09
-0.09
-0.115
-0.105
-0.105
-0.075
-0.115
-0.09
-0.07
-0.06
-0.07
-0.075
-0.075
-0.09
-0.115
-0.12
-0.1
-0.09
-0.075
-0.11
-0.09
-0.055
-0.095
-0.13
-0.135
-0.095
-0.12
-0.09
-0.085
-0.08
-0.105
-0.105
-0.065
-0.09
-0.105
-0.085
-0.085
-0.06
-0.08
-0.11
-0.11
-0.105
-0.11
-0.09
-0.075
-0.08
-0.065
-0.08
-0.115
-0.085
-0.1
-0.095
-0.125
-0.1
-0.065
-0.07
-0.085
-0.06
-0.115
-0.115
-0.075
-0.07
-0.095
-0.09
-0.06
-0.08
-0.065
-0.06
-0.105
-0.085
-0.105
-0.09
-0.105
-0.09
-0.12
-0.045
-0.1
-0.07
-0.065
-0.12
-0.05
-0.065
-0.08
-0.095
-0.075
-0.075
-0.06
-0.09
-0.1
-0.08
-0.08
-0.095
-0.09
-0.065
-0.045
-0.06
-0.08
-0.12
-0.075
-0.08
-0.075
-0.07
-0.095
-0.09
-0.095
-0.08
-0.07
-0.09
-0.095
-0.07
-0.06
-0.06
-0.06
-0.115
-0.11
-0.07
-0.09
-0.075
-0.1
-0.08
-0.08
-0.11
-0.12
-0.06
-0.055
-0.07
-0.075
-0.075
-0.1
-0.055
-0.075
-0.06
-0.09
-0.085
-0.07
-0.055
-0.1
-0.11
-0.05
-0.07
-0.08
-0.095
-0.065
-0.025
-0.03
-0.075
-0.07
-0.07
-0.02
-0.03
-0.055
-0.055
0.0
-0.01
-0.005
-0.045
0.01
-0.005
-0.01
-0.015
0.01
-0.01
-0.035
-0.055
-0.095
-0.065
-0.1
-0.075
-0.06
-0.085
-0.09
-0.075
-0.08
-0.095
-0.11
-0.08
-0.075
-0.105
-0.06
-0.095
-0.075
-0.085
-0.085
-0.095
-0.07
-0.1
-0.085
-0.07
-0.075
-0.11
-0.13
-0.11
-0.105
-0.065
-0.06
-0.075
-0.075
-0.1
-0.145
-0.145
-0.17
-0.125
-0.19
-0.18
-0.13
-0.05
-0.005
0.12
0.27
0.465
0.59
0.715
0.795
0.62
0.56
0.475
0.455
0.255
0.02
-0.14
-0.285
-0.325
-0.325
-0.21
-0.165
-0.135
-0.08
-0.05
-0.06
-0.09
-0.1
-0.06
-0.105
-0.08
-0.1
-0.08
-0.08
-0.1
-0.13
-0.11
-0.11
-0.16
-0.13
-0.105
-0.09
-0.065
-0.115
-0.09
-0.08
-0.05
-0.07
-0.1
-0.09
-0.085
-0.08
-0.095
-0.1
-0.07
-0.09
-0.07
-0.085
-0.1
-0.05
-0.05
-0.06
-0.06
-0.07
-0.08
-0.1
-0.075
-0.09
-0.085
-0.055
-0.05
-0.075
-0.03
-0.07
-0.095
-0.05
-0.055
-0.05
-0.06
-0.04
-0.02
-0.035
-0.05
-0.04
-0.06
-0.065
-0.085
-0.09
-0.01
-0.02
0.01
-0.02
-0.015
0.005
-0.01
-0.015
-0.005
0.0
0.04
0.025
0.03
0.015
0.02
0.06
0.07
0.07
0.075
0.065
0.08
0.075
0.09
0.085
0.07
0.11
0.11
0.09
0.105
0.08
0.13
0.15
0.14
0.115
0.125
0.125
0.13
0.11
0.085
0.105
0.125
0.095
0.095
0.095
0.08
0.06
0.065
0.035
0.025
0.01
0.005
0.0
-0.025
-0.025
-0.035
-0.06
-0.055
0.0
-0.025
-0.03
-0.065
-0.075
-0.065
-0.065
-0.05
-0.065
-0.065
-0.055
-0.075
-0.055
-0.04
-0.075
-0.075
-0.095
-0.085
-0.045
-0.065
-0.08
-0.07
-0.09
-0.08
-0.075
-0.095
-0.105
-0.07
-0.04
-0.055
-0.08
-0.07
-0.065
-0.07
-0.075
-0.09
-0.095
-0.055
-0.07
-0.11
-0.065
-0.115
-0.125
-0.03
-0.03
-0.065
-0.07
-0.05
-0.075
-0.115
-0.13
-0.06
-0.03
-0.04
-0.075
-0.05
-0.07
-0.08
-0.06
-0.06
-0.04
-0.065
-0.07
-0.085
-0.085
-0.07
-0.045
-0.03
-0.05
-0.065
-0.045
-0.035
-0.075
-0.055
-0.085
-0.095
-0.095
-0.05
-0.065
-0.055
-0.065
-0.03
-0.025
-0.055
-0.095
-0.09
-0.04
-0.06
-0.065
-0.095
-0.05
-0.08
-0.05
-0.045
-0.075
-0.055
-0.085
-0.075
-0.095
-0.08
-0.115
-0.045
-0.035
-0.03
-0.065
-0.06
-0.04
-0.03
-0.06
-0.09
-0.075
-0.07
-0.085
-0.055
-0.065
-0.055
-0.06
-0.01
-0.045
-0.04
-0.045
-0.065
-0.055
-0.04
-0.025
-0.03
-0.015
0.015
-0.01
-0.02
-0.005
-0.025
0.0
-0.02
-0.035
0.0
-0.025
-0.05
-0.05
-0.08
-0.08
-0.07
-0.12
-0.115
-0.035
-0.095
-0.1
-0.105
-0.07
-0.07
-0.105
-0.065
-0.075
-0.05
-0.05
-0.05
-0.105
-0.09
-0.09
-0.1
-0.085
-0.08
-0.09
-0.11
-0.08
-0.085
-0.095
-0.095
-0.06
-0.06
-0.09
-0.12
-0.095
-0.105
-0.155
-0.16
-0.175
-0.185
-0.15
-0.1
0.025
0.095
0.255
0.435
0.55
0.66
0.685
0.625
0.495
0.4
0.39
0.24
0.04
-0.135
-0.32
-0.34
-0.3
-0.245
-0.18
-0.165
-0.12
-0.105
-0.065
-0.085
-0.07
-0.11
-0.09
-0.08
-0.115
-0.135
-0.1
-0.05
-0.06
-0.095
-0.115
-0.11
-0.085
-0.08
-0.115
-0.065
-0.07
-0.06
-0.105
-0.095
-0.065
-0.07
-0.1
-0.07
-0.085
-0.09
-0.085
-0.09
-0.07
-0.08
-0.095
-0.085
-0.08
-0.075
-0.09
-0.07
-0.13
-0.085
-0.13
-0.12
-0.025
-0.055
-0.065
-0.05
-0.045
-0.065
-0.085
-0.06
-0.075
-0.05
-0.055
-0.03
-0.05
-0.085
-0.01
-0.07
-0.08
-0.085
-0.075
-0.015
-0.045
-0.04
-0.05
-0.035
-0.01
0.0
-0.01
0.0
0.01
-0.015
0.025
0.02
0.025
0.03
0.025
0.03
0.05
0.075
0.07
0.085
0.07
0.07
0.085
0.08
0.105
0.105
0.085
0.1
0.1
0.09
0.09
0.085
0.095
0.135
0.125
0.095
0.14
0.12
0.095
0.09
0.095
0.125
0.085
0.045
0.04
0.035
0.02
-0.015
-0.02
-0.01
0.0
0.005
-0.045
-0.07
-0.005
-0.015
-0.035
-0.07
-0.075
-0.01
-0.03
-0.065
-0.065
-0.08
-0.05
-0.065
-0.08
-0.075
-0.075
-0.075
-0.06
-0.1
-0.075
-0.08
-0.075
-0.095
-0.07
-0.065
-0.085
-0.085
-0.07
-0.09
-0.075
-0.06
-0.085
-0.105
-0.075
-0.13
-0.085
-0.065
-0.085
-0.075
-0.115
-0.125
-0.09
-0.08
-0.06
-0.06
-0.075
-0.095
-0.095
-0.07
-0.075
-0.075
-0.065
-0.095
-0.085
-0.08
-0.07
-0.065
-0.08
-0.065
-0.065
-0.05
-0.05
-0.055
-0.06
-0.08
-0.06
-0.055
-0.05
-0.055
-0.08
-0.055
-0.05
-0.065
-0.05
-0.05
-0.065
-0.065
-0.04
-0.06
-0.075
-0.06
-0.065
-0.08
-0.06
-0.06
-0.08
-0.085
-0.055
-0.065
-0.085
-0.095
-0.05
-0.08
-0.1
-0.085
-0.09
-0.04
-0.07
-0.09
-0.07
-0.035
-0.06
-0.06
-0.055
-0.07
-0.065
-0.035
-0.075
-0.06
-0.09
-0.08
-0.055
-0.08
-0.065
-0.1
-0.09
-0.07
-0.075
-0.05
-0.07
-0.065
-0.085
-0.075
-0.07
-0.04
-0.06
-0.075
-0.045
-0.05
-0.05
-0.06
-0.045
-0.045
-0.03
-0.045
-0.04
-0.045
-0.03
-0.015
0.0
-0.02
-0.01
0.01
-0.01
-0.05
-0.01
-0.01
0.0
-0.015
-0.005
-0.025
-0.06
-0.08
-0.1
-0.06
-0.075
-0.06
-0.1
-0.085
-0.075
-0.06
-0.085
-0.095
-0.065
-0.065
-0.065
-0.065
-0.085
-0.08
-0.08
-0.095
-0.09
-0.065
-0.095
-0.095
-0.085
-0.125
-0.095
-0.07
-0.085
-0.075
-0.05
-0.07
-0.08
-0.08
-0.125
-0.14
-0.16
-0.215
-0.185
-0.135
-0.08
0.015
0.125
0.26
0.43
0.595
0.705
0.705
0.675
0.565
0.475
0.445
0.33
0.15
-0.025
-0.215
-0.295
-0.25
-0.19
-0.135
-0.115
-0.085
-0.115
-0.105
-0.06
-0.11
-0.1
-0.09
-0.12
-0.12
-0.135
-0.13
-0.095
-0.11
-0.08
-0.065
-0.08
-0.1
-0.1
-0.1
-0.11
-0.11
-0.07
-0.095
-0.08
-0.085
-0.1
-0.085
-0.09
-0.075
-0.085
-0.105
-0.09
-0.085
-0.13
-0.09
-0.055
-0.095
-0.05
-0.1
-0.08
-0.095
-0.095
-0.095
-0.07
-0.07
-0.095
-0.065
-0.05
-0.08
-0.075
-0.075
-0.07
-0.075
-0.055
-0.08
-0.08
-0.075
-0.07
-0.075
-0.055
-0.05
-0.045
-0.07
-0.04
-0.03
-0.015
-0.02
-0.03
-0.02
-0.025
-0.025
0.005
0.005
-0.005
0.01
-0.02
-0.025
-0.015
0.0
0.025
0.075
0.09
0.035
0.08
0.08
0.055
0.06
0.105
0.09
0.1
0.105
0.12
0.145
0.115
0.13
0.12
0.11
0.11
0.09
0.12
0.11
0.13
0.135
0.115
0.13
0.115
0.09
0.065
0.09
0.06
0.025
0.035
0.01
0.025
0.005
-0.025
-0.015
-0.01
-0.01
-0.03
-0.02
-0.05
-0.025
-0.015
-0.065
-0.025
-0.05
-0.06
-0.095
-0.07
-0.08
-0.035
-0.11
-0.065
-0.055
-0.09
-0.085
-0.07
-0.085
-0.075
-0.085
-0.075
-0.075
-0.1
-0.085
-0.075
-0.075
-0.09
-0.075
-0.095
-0.09
-0.115
-0.07
-0.065
-0.095
-0.075
-0.08
-0.09
-0.08
-0.115
-0.085
-0.09
-0.085
-0.07
-0.075
-0.065
-0.075
-0.085
-0.09
-0.05
-0.07
-0.08
-0.06
-0.075
-0.055
-0.09
-0.085
-0.1
-0.1
-0.065
-0.055
-0.075
-0.08
-0.07
-0.08
-0.095
-0.105
-0.045
-0.05
-0.03
-0.075
-0.065
-0.06
-0.045
-0.05
-0.07
-0.07
-0.06
-0.075
-0.05
-0.05
-0.07
-0.055
-0.05
-0.075
-0.045
-0.06
-0.095
-0.09
-0.04
-0.075
-0.08
-0.065
-0.075
-0.07
-0.055
-0.07
-0.05
-0.075
-0.075
-0.085
-0.065
-0.07
-0.09
-0.07
-0.1
-0.105
-0.05
-0.03
-0.055
-0.075
-0.09
-0.085
-0.065
-0.085
-0.11
-0.07
-0.065
-0.065
-0.07
-0.005
-0.06
-0.03
-0.055
-0.075
-0.095
-0.055
-0.065
-0.05
-0.055
-0.04
-0.055
-0.045
-0.05
-0.075
-0.06
-0.045
-0.055
-0.03
-0.03
-0.015
-0.025
-0.015
-0.015
-0.035
-0.015
-0.015
-0.035
-0.045
0.01
-0.005
0.02
-0.01
-0.04
-0.08
-0.095
-0.11
-0.055
-0.065
-0.105
-0.055
-0.08
-0.055
-0.09
-0.095
-0.095
-0.1
-0.06
-0.05
-0.09
-0.06
-0.1
-0.08
-0.085
-0.075
-0.08
-0.085
-0.12
-0.12
-0.095
-0.08
-0.055
-0.065
-0.075
-0.1
-0.11
-0.115
-0.16
-0.18
-0.17
-0.19
-0.175
-0.095
-0.015
0.095
0.21
0.42
0.545
0.7
0.765
0.81
0.7
0.555
0.5
0.42
0.245
0.06
-0.115
-0.235
-0.23
-0.22
-0.105
-0.085
-0.09
-0.075
-0.05
-0.09
-0.075
-0.09
-0.115
-0.095
-0.09
-0.11
-0.105
-0.12
-0.12
-0.11
-0.09
-0.075
-0.145
-0.055
-0.045
-0.065
-0.1
-0.105
-0.09
-0.09
-0.095
-0.085
-0.09
-0.115
-0.11
-0.085
-0.095
-0.09
-0.08
-0.11
-0.11
-0.125
-0.08
-0.065
-0.09
-0.115
-0.085
-0.06
-0.07
-0.105
-0.1
-0.12
-0.085
-0.06
-0.06
-0.075
-0.085
-0.075
-0.065
-0.045
-0.075
-0.07
-0.055
-0.04
-0.075
-0.065
-0.075
-0.025
-0.075
-0.1
-0.06
-0.03
-0.025
-0.04
-0.03
-0.045
-0.045
-0.015
-0.025
-0.04
-0.025
-0.015
0.015
0.015
0.005
0.01
0.045
0.04
0.045
0.055
0.04
0.03
0.06
0.095
0.11
0.095
0.11
0.075
0.095
0.105
0.1
0.08
0.085
0.13
0.13
0.15
0.13
0.11
0.12
0.085
0.095
0.095
0.09
0.08
0.08
0.085
0.05
0.055
0.03
-0.02
-0.005
0.0
0.01
0.0
-0.025
-0.04
-0.03
-0.03
-0.03
-0.06
-0.055
-0.04
-0.065
-0.055
-0.055
-0.065
-0.065
-0.075
-0.09
-0.08
-0.055
-0.075
-0.075
-0.08
-0.09
-0.12
-0.09
-0.05
-0.095
-0.075
-0.04
-0.075
-0.07
-0.085
-0.06
-0.085
-0.085
-0.085
-0.1
-0.1
-0.105
-0.09
-0.145
-0.065
-0.045
-0.07
-0.095
-0.06
-0.115
-0.08
-0.07
-0.085
-0.08
-0.08
-0.1
-0.055
-0.095
-0.045
-0.06
-0.095
-0.09
-0.055
-0.07
-0.085
-0.075
-0.08
-0.06
-0.08
-0.07
-0.09
-0.045
-0.055
-0.07
-0.075
-0.065
-0.08
-0.065
-0.06
-0.07
-0.04
-0.085
-0.03
-0.055
-0.085
-0.08
-0.065
-0.06
-0.08
-0.1
-0.075
-0.075
-0.085
-0.08
-0.07
-0.055
-0.09
-0.06
-0.06
-0.07
-0.075
-0.095
-0.115
-0.115
-0.095
-0.045
-0.025
-0.05
-0.06
-0.095
-0.06
-0.07
-0.09
-0.09
-0.06
-0.04
-0.08
-0.085
-0.065
-0.04
-0.055
-0.06
-0.075
-0.07
-0.07
-0.07
-0.03
-0.08
-0.05
-0.045
-0.085
-0.105
-0.08
-0.1
-0.07
-0.06
-0.08
-0.07
-0.07
-0.045
-0.06
-0.07
-0.04
-0.03
-0.05
-0.105
-0.065
-0.08
-0.095
-0.12
-0.05
-0.065
-0.075
-0.06
-0.045
-0.03
-0.045
-0.035
-0.04
-0.065
-0.025
-0.01
-0.025
-0.015
-0.005
-0.01
-0.01
0.0
0.005
-0.02
-0.015
-0.01
0.025
0.02
-0.005
-0.03
-0.055
-0.05
-0.07
-0.08
-0.125
-0.085
-0.105
-0.075
-0.1
-0.045
-0.065
-0.08
-0.055
-0.055
-0.075
-0.075
-0.095
-0.075
-0.1
-0.135
-0.115
-0.095
-0.085
-0.085
-0.08
-0.05
-0.09
-0.06
-0.08
-0.09
-0.055
-0.13
-0.115
-0.13
-0.145
-0.185
-0.195
-0.175
-0.11
-0.07
0.015
0.185
0.32
0.49
0.635
0.745
0.83
0.815
0.67
0.53
0.495
0.395
0.225
0.05
-0.195
-0.28
-0.185
-0.15
-0.085
-0.055
-0.075
-0.11
-0.1
-0.125
-0.04
-0.07
-0.07
-0.075
-0.08
-0.135
-0.1
-0.105
-0.075
-0.09
-0.095
-0.085
-0.08
-0.08
-0.105
-0.12
-0.095
-0.11
-0.055
-0.095
-0.07
-0.075
-0.1
-0.115
-0.075
-0.115
-0.07
-0.095
-0.09
-0.09
-0.06
-0.075
-0.1
-0.095
-0.085
-0.09
-0.06
-0.08
-0.045
-0.07
-0.07
-0.075
-0.065
-0.055
-0.06
-0.055
-0.09
-0.1
-0.085
-0.09
-0.045
-0.045
-0.075
-0.065
-0.065
-0.065
-0.06
-0.08
-0.03
-0.03
-0.025
-0.045
-0.015
-0.04
-0.04
-0.025
-0.015
-0.03
-0.035
-0.02
-0.03
0.035
0.035
0.025
0.03
0.0
0.015
0.02
0.015
0.08
0.08
0.135
0.105
0.07
0.105
0.11
0.095
0.105
0.08
0.11
0.135
0.15
0.135
0.13
0.15
0.145
0.135
0.115
0.125
0.135
0.125
0.095
0.125
0.135
0.1
0.075
0.075
0.08
0.045
0.06
0.03
0.01
0.0
-0.02
-0.005
-0.02
-0.02
-0.045
-0.025
-0.005
-0.03
-0.03
-0.045
-0.045
-0.06
-0.075
-0.04
-0.095
-0.125
-0.155
-0.055
-0.05
-0.06
-0.015
-0.05
-0.055
-0.045
-0.08
-0.055
-0.08
-0.06
-0.045
-0.045
-0.055
-0.095
-0.095
-0.11
-0.065
-0.09
-0.06
-0.075
-0.045
-0.025
-0.055
-0.05
-0.055
-0.06
-0.09
-0.07
-0.08
-0.055
-0.06
-0.045
-0.065
-0.075
-0.08
-0.085
-0.065
-0.055
-0.065
-0.06
-0.05
-0.055
-0.07
-0.07
-0.055
-0.06
-0.055
-0.07
-0.055
-0.065
-0.03
-0.055
-0.065
-0.06
-0.105
-0.1
-0.025
-0.01
-0.045
-0.07
-0.08
-0.035
-0.045
-0.04
-0.045
-0.065
-0.055
-0.055
-0.025
-0.06
-0.06
-0.06
-0.035
-0.045
-0.085
-0.065
-0.04
-0.045
-0.035
-0.065
-0.075
-0.025
-0.05
-0.075
-0.04
-0.02
-0.06
-0.055
-0.045
-0.05
-0.055
-0.06
-0.06
-0.085
-0.065
-0.06
-0.045
-0.07
-0.075
-0.04
-0.065
-0.025
-0.035
-0.09
-0.1
-0.09
-0.03
-0.06
-0.055
-0.045
-0.05
-0.055
-0.035
-0.05
-0.05
-0.045
-0.06
-0.08
-0.085
-0.075
-0.055
-0.035
-0.065
-0.045
-0.025
-0.065
-0.055
-0.07
-0.085
-0.075
-0.055
-0.005
-0.04
-0.025
-0.045
-0.055
-0.02
-0.02
-0.02
-0.01
-0.01
-0.035
-0.01
-0.01
0.015
-0.015
-0.045
0.02
0.03
0.005
0.03
0.01
-0.04
-0.005
0.02
-0.03
0.01
-0.04
-0.055
-0.025
-0.055
-0.09
-0.07
-0.075
-0.085
-0.055
-0.04
-0.065
-0.085
-0.075
-0.06
-0.08
-0.06
-0.06
-0.07
-0.06
-0.08
-0.105
-0.04
-0.06
-0.06
-0.055
-0.085
-0.085
-0.1
-0.055
-0.06
-0.075
-0.045
-0.095
-0.17
-0.17
-0.195
-0.135
-0.085
-0.015
0.08
0.235
0.42
0.605
0.71
0.805
0.83
0.67
0.575
0.5
0.45
0.31
0.115
-0.11
-0.275
-0.28
-0.195
-0.155
-0.11
-0.08
-0.11
-0.09
-0.055
-0.04
-0.065
-0.06
-0.105
-0.085
-0.065
-0.065
-0.075
-0.1
-0.045
-0.065
-0.12
-0.11
-0.075
-0.075
-0.085
-0.05
-0.085
-0.07
-0.07
-0.05
-0.045
-0.075
-0.08
-0.055
-0.135
-0.04
-0.06
-0.075
-0.075
-0.035
-0.075
-0.065
-0.05
-0.085
-0.08
-0.035
-0.065
-0.08
-0.035
-0.05
-0.055
-0.1
-0.08
-0.045
-0.045
-0.075
-0.02
-0.045
-0.01
-0.065
-0.025
-0.055
-0.03
-0.025
-0.055
-0.01
-0.055
-0.035
-0.015
-0.025
0.005
-0.01
-0.035
-0.005
0.03
0.025
0.03
0.03
-0.005
0.01
0.04
0.035
0.035
0.055
0.07
0.035
0.05
0.065
0.08
0.11
0.09
0.09
0.12
0.14
0.115
0.115
0.105
0.17
0.165
0.145
0.15
0.165
0.15
0.145
0.175
0.15
0.13
0.195
0.17
0.13
0.15
0.14
0.14
0.13
0.08
0.1
0.05
0.06
0.035
0.09
0.065
0.05
0.04
0.01
0.025
0.0
-0.02
-0.025
-0.01
0.0
-0.005
-0.03
0.0
-0.025
-0.03
-0.04
-0.035
-0.04
-0.045
-0.055
-0.05
-0.055
-0.055
-0.06
-0.035
-0.035
-0.05
-0.06
-0.04
-0.075
-0.025
-0.05
-0.075
-0.08
-0.045
-0.04
-0.045
-0.035
-0.06
-0.06
-0.06
-0.06
-0.075
-0.12
-0.055
-0.005
-0.02
-0.04
-0.04
-0.04
-0.04
-0.025
-0.07
-0.055
-0.07
-0.06
-0.035
-0.01
-0.025
-0.035
-0.06
-0.06
-0.03
0.0
-0.02
-0.07
-0.04
-0.035
-0.095
-0.04
-0.055
-0.04
-0.02
-0.05
-0.045
-0.03
-0.04
-0.06
-0.025
-0.06
-0.045
-0.02
-0.035
-0.035
-0.05
-0.03
-0.05
-0.03
-0.02
-0.035
-0.04
-0.035
-0.045
-0.06
-0.055
-0.03
-0.03
-0.045
-0.04
-0.045
-0.03
-0.015
-0.05
-0.055
-0.08
-0.035
-0.02
-0.065
-0.015
-0.035
-0.035
-0.035
-0.035
-0.04
-0.065
-0.08
-0.04
-0.04
0.0
-0.035
-0.075
-0.07
-0.06
-0.03
-0.025
-0.03
-0.04
-0.025
0.005
-0.03
0.0
0.02
0.025
0.0
0.0
0.04
-0.025
0.0
0.005
0.04
0.055
0.045
0.03
0.0
0.005
0.02
0.0
-0.025
-0.015
0.0
-0.04
-0.05
-0.03
-0.045
-0.05
-0.06
-0.05
-0.06
-0.03
-0.04
-0.03
-0.06
-0.08
-0.04
-0.065
-0.05
-0.05
-0.06
-0.105
-0.055
-0.075
-0.055
-0.06
-0.07
-0.075
-0.085
-0.07
-0.055
-0.04
-0.035
-0.055
-0.055
-0.08
-0.105
-0.17
-0.185
-0.13
-0.075
0.02
0.09
0.235
0.36
0.52
0.685
0.78
0.73
0.625
0.48
0.475
0.38
0.21
0.03
-0.205
-0.36
-0.35
-0.245
-0.18
-0.17
-0.115
-0.08
-0.07
-0.05
-0.055
-0.065
-0.04
-0.07
-0.065
-0.045
-0.06
-0.1
-0.06
-0.07
-0.105
-0.11
-0.04
-0.095
-0.08
-0.065
-0.04
-0.05
-0.07
-0.06
-0.065
-0.055
-0.05
-0.08
-0.05
-0.04
-0.07
-0.075
-0.055
-0.04
-0.065
-0.075
-0.06
-0.04
-0.04
-0.035
-0.03
-0.04
-0.045
-0.07
-0.06
-0.02
-0.055
-0.04
-0.035
-0.055
-0.05
-0.03
-0.015
-0.005
-0.03
-0.045
-0.01
-0.035
-0.02
-0.02
-0.01
-0.02
-0.025
-0.055
-0.005
0.03
0.025
0.02
0.005
0.01
0.03
0.02
0.035
0.03
0.04
0.04
0.075
0.08
0.07
0.09
0.055
0.065
0.08
0.09
0.09
0.12
0.13
0.13
0.145
0.17
0.175
0.12
0.17
0.165
0.16
0.145
0.175
0.16
0.175
0.165
0.175
0.14
0.135
0.11
0.175
0.175
0.135
0.16
0.13
0.13
0.1
0.07
0.065
0.05
0.045
0.01
0.025
0.01
0.05
0.015
-0.005
-0.015
-0.015
-0.035
0.005
0.0
-0.02
-0.025
-0.005
-0.03
-0.03
-0.05
-0.035
-0.03
-0.055
-0.065
-0.045
-0.065
-0.035
-0.06
-0.03
-0.105
-0.09
-0.09
-0.085
-0.015
0.0
-0.03
-0.055
-0.035
-0.045
-0.065
-0.04
-0.04
-0.065
-0.045
-0.06
-0.06
-0.075
-0.07
-0.035
-0.005
-0.01
-0.035
-0.055
-0.04
-0.02
-0.06
-0.045
-0.055
-0.065
-0.055
-0.05
-0.04
-0.025
-0.045
-0.055
-0.06
-0.03
-0.045
-0.06
-0.02
0.0
-0.01
-0.005
-0.035
-0.025
-0.02
-0.035
-0.04
-0.055
-0.055
-0.075
-0.045
-0.03
-0.04
-0.065
-0.065
0.005
-0.015
-0.025
-0.015
-0.035
-0.02
-0.03
-0.03
-0.035
-0.03
-0.02
-0.04
-0.02
-0.015
-0.025
-0.02
-0.055
-0.055
-0.05
-0.09
-0.04
-0.015
-0.035
-0.045
-0.02
-0.01
-0.005
-0.035
-0.025
-0.025
-0.025
-0.03
-0.015
0.005
0.0
-0.06
-0.045
0.02
0.04
0.005
0.015
0.015
0.03
0.055
0.04
0.03
0.035
0.035
0.03
0.03
0.025
-0.02
-0.03
-0.035
-0.05
-0.04
-0.03
-0.04
-0.03
-0.035
-0.03
-0.025
-0.05
-0.05
-0.045
-0.04
-0.04
-0.035
-0.055
-0.055
-0.05
-0.05
-0.06
-0.035
-0.035
-0.03
-0.05
-0.06
-0.07
-0.045
-0.055
-0.055
-0.03
-0.05
-0.07
-0.075
-0.065
-0.125
-0.195
-0.175
-0.185
-0.175
-0.06
-0.005
0.035
0.235
0.415
0.57
0.725
0.825
0.815
0.735
0.6
0.54
0.45
0.275
0.11
-0.11
-0.28
-0.28
-0.24
-0.15
-0.115
-0.065
-0.04
-0.05
-0.045
-0.05
-0.04
-0.05
-0.09
-0.05
-0.09
-0.06
-0.07
-0.065
-0.085
-0.025
-0.05
-0.09
-0.095
-0.08
-0.05
-0.065
-0.075
-0.06
-0.06
-0.06
-0.1
-0.1
-0.085
-0.045
-0.03
-0.07
-0.08
-0.05
-0.045
-0.05
-0.035
-0.05
-0.04
-0.045
-0.06
-0.035
-0.03
-0.03
-0.04
-0.045
-0.045
-0.045
-0.06
-0.06
-0.085
-0.07
0.0
-0.025
-0.03
-0.03
-0.015
-0.03
-0.02
-0.015
-0.03
-0.03
-0.045
-0.02
-0.005
-0.015
-0.035
-0.01
-0.015
-0.05
0.015
0.05
0.035
0.015
0.015
0.05
0.055
0.065
0.035
0.025
0.04
0.065
0.095
0.105
0.06
0.08
0.095
0.155
0.13
0.13
0.16
0.145
0.14
0.155
0.125
0.15
0.15
0.15
0.185
0.19
0.19
0.16
0.145
0.16
0.15
0.16
0.155
0.13
0.1
0.115
0.1
0.065
0.09
0.07
0.055
0.06
0.05
0.04
0.025
0.05
0.0
-0.015
0.0
-0.01
-0.02
-0.035
-0.035
-0.02
-0.01
-0.035
-0.035
-0.09
-0.045
-0.065
-0.09
-0.025
-0.045
-0.015
-0.045
-0.02
-0.04
-0.03
-0.03
-0.05
-0.045
-0.025
-0.03
-0.055
-0.05
-0.07
-0.065
-0.05
-0.05
-0.045
-0.065
-0.02
-0.015
-0.04
-0.04
-0.01
-0.055
-0.055
-0.07
-0.045
-0.025
-0.04
-0.035
-0.025
-0.03
-0.07
-0.06
-0.055
-0.045
-0.01
-0.045
-0.01
-0.02
-0.035
-0.025
-0.045
-0.05
-0.075
-0.12
0.01
0.01
-0.01
-0.035
-0.015
-0.02
-0.01
-0.025
-0.025
-0.03
-0.045
-0.03
-0.03
-0.035
-0.035
-0.03
0.0
-0.015
-0.02
-0.035
0.005
-0.035
-0.045
-0.035
0.0
-0.035
-0.025
-0.03
-0.035
-0.02
-0.035
-0.03
-0.03
-0.045
-0.05
-0.035
-0.035
-0.05
-0.02
-0.065
-0.02
-0.02
-0.045
-0.05
-0.05
-0.02
-0.005
0.005
-0.055
-0.06
-0.065
0.005
-0.02
-0.005
0.0
0.02
-0.005
-0.01
0.0
-0.005
-0.005
0.015
0.02
0.03
0.035
0.03
0.045
0.04
0.04
0.05
0.025
0.05
0.04
0.045
0.025
0.015
0.01
-0.025
-0.05
-0.04
-0.025
-0.035
-0.06
-0.055
-0.04
-0.04
-0.035
-0.035
-0.04
-0.03
-0.045
-0.055
-0.02
-0.05
-0.075
-0.045
-0.09
-0.055
-0.03
-0.025
-0.025
-0.04
-0.035
-0.065
-0.08
-0.085
-0.045
-0.035
-0.04
-0.07
-0.105
-0.13
-0.155
-0.19
-0.125
-0.09
-0.035
0.065
0.265
0.47
0.585
0.715
0.79
0.895
0.81
0.62
0.53
0.505
0.32
0.17
-0.065
-0.23
-0.245
-0.13
-0.12
-0.05
-0.04
-0.045
-0.05
-0.045
-0.045
-0.05
-0.08
-0.055
-0.06
-0.07
-0.115
-0.06
-0.085
-0.09
-0.06
-0.065
-0.04
-0.045
-0.055
-0.09
-0.075
-0.05
-0.11
-0.09
-0.08
-0.025
-0.035
-0.05
-0.07
-0.03
-0.025
-0.06
-0.06
-0.05
-0.055
-0.05
-0.055
-0.055
-0.075
-0.095
-0.04
-0.025
-0.03
-0.015
-0.035
-0.03
-0.02
-0.035
-0.07
-0.045
-0.025
-0.035
-0.035
-0.04
-0.035
-0.04
-0.01
-0.02
-0.035
0.0
-0.02
-0.03
-0.055
-0.02
-0.005
0.015
-0.025
0.025
0.0
0.03
0.025
0.01
0.055
0.0
0.005
0.045
0.06
0.06
0.04
0.08
0.08
0.065
0.075
0.1
0.135
0.085
0.115
0.09
0.16
0.135
0.125
0.155
0.17
0.165
0.185
0.175
0.17
0.175
0.165
0.185
0.17
0.15
0.135
0.135
0.175
0.15
0.16
0.125
0.105
0.115
0.115
0.08
0.065
0.09
0.07
0.055
0.015
0.04
0.03
0.04
-0.02
0.02
0.01
-0.015
-0.025
-0.025
-0.045
-0.055
-0.085
-0.025
-0.015
-0.01
0.0
0.025
-0.025
-0.055
-0.025
-0.035
-0.025
-0.04
-0.065
-0.05
-0.03
-0.025
-0.035
-0.035
0.01
-0.025
0.005
-0.02
-0.035
-0.05
-0.055
-0.045
-0.055
-0.015
-0.05
-0.02
-0.025
-0.065
-0.065
-0.025
-0.02
-0.045
-0.045
-0.03
-0.055
-0.04
-0.02
-0.045
-0.03
-0.02
-0.04
-0.06
-0.03
-0.025
-0.04
-0.03
-0.03
-0.05
-0.015
-0.025
-0.02
-0.03
-0.035
-0.075
-0.045
-0.045
0.03
-0.02
-0.01
-0.055
-0.035
-0.02
-0.005
0.005
-0.045
-0.03
-0.005
-0.015
-0.025
-0.02
-0.015
-0.005
-0.005
-0.06
-0.06
-0.055
0.005
0.015
-0.025
-0.02
-0.03
-0.035
-0.04
-0.035
0.01
-0.015
-0.04
-0.01
-0.005
-0.015
-0.04
-0.035
-0.015
-0.025
-0.07
-0.04
-0.035
-0.04
-0.04
-0.035
-0.005
-0.025
-0.035
0.005
0.0
-0.015
-0.035
-0.02
-0.035
-0.045
-0.025
0.015
0.02
-0.04
0.015
0.005
0.01
0.03
0.035
0.03
0.03
0.005
0.05
0.035
0.02
0.02
0.075
0.06
0.035
0.05
0.065
0.025
0.015
0.02
0.005
-0.035
-0.04
0.01
-0.045
-0.04
-0.04
-0.055
-0.07
-0.02
-0.045
-0.03
-0.05
-0.03
-0.04
-0.045
-0.02
-0.025
-0.065
-0.01
-0.005
-0.025
-0.025
-0.055
-0.055
-0.06
-0.085
-0.025
-0.075
-0.01
-0.06
-0.04
-0.06
-0.075
-0.105
-0.145
-0.165
-0.135
-0.045
-0.015
0.075
0.18
0.32
0.515
0.69
0.785
0.86
0.895
0.755
0.6
0.545
0.445
0.26
0.035
-0.185
-0.24
-0.18
-0.125
-0.065
-0.02
-0.025
-0.045
-0.045
-0.025
-0.04
-0.1
-0.03
-0.035
-0.08
-0.105
-0.055
-0.06
-0.03
-0.105
-0.095
-0.07
-0.035
-0.075
-0.055
-0.005
-0.04
-0.065
-0.05
-0.07
-0.06
-0.025
-0.065
-0.04
-0.055
-0.03
-0.025
-0.02
-0.03
-0.07
-0.025
-0.045
-0.02
-0.06
-0.075
-0.025
-0.025
-0.025
-0.025
-0.025
-0.025
-0.035
-0.055
-0.035
-0.055
-0.06
-0.03
-0.035
-0.035
-0.03
-0.005
-0.01
-0.015
-0.015
0.0
-0.05
-0.02
-0.025
0.0
0.0
-0.02
0.005
0.015
0.02
0.04
0.015
0.02
0.02
0.015
0.09
0.085
0.03
0.01
0.025
0.085
0.085
0.085
0.095
0.1
0.105
0.13
0.105
0.09
0.115
0.085
0.17
0.195
0.16
0.15
0.135
0.165
0.15
0.185
0.18
0.19
0.195
0.18
0.155
0.165
0.16
0.17
0.125
0.135
0.135
0.095
0.095
0.085
0.08
0.11
0.09
0.06
0.05
0.055
0.01
0.02
0.025
0.005
0.03
0.035
-0.02
-0.015
-0.025
-0.03
0.0
-0.005
-0.06
-0.025
0.01
0.005
0.0
0.0
-0.045
-0.095
-0.035
-0.065
-0.075
-0.06
-0.02
0.01
-0.005
0.0
-0.03
-0.025
-0.035
-0.07
-0.025
-0.055
-0.025
0.0
-0.05
-0.015
-0.015
-0.035
-0.02
-0.025
-0.035
-0.02
-0.035
-0.04
-0.035
-0.035
-0.04
-0.015
-0.045
-0.04
-0.035
-0.035
-0.06
-0.02
0.02
-0.02
0.01
-0.005
0.005
-0.02
-0.02
-0.05
-0.015
-0.035
-0.085
-0.005
-0.045
0.025
-0.025
0.02
-0.025
-0.03
-0.005
-0.015
-0.025
-0.025
-0.045
-0.05
0.01
-0.005
0.0
-0.035
-0.015
-0.02
-0.015
-0.025
-0.04
-0.02
-0.025
-0.02
-0.025
-0.005
0.015
0.0
-0.01
-0.01
-0.025
-0.005
-0.04
-0.04
-0.03
-0.03
0.005
-0.005
-0.025
-0.03
-0.005
0.02
-0.035
-0.03
-0.03
-0.045
0.0
-0.015
-0.015
-0.02
-0.005
0.005
-0.045
-0.015
-0.01
0.005
0.0
-0.03
0.0
-0.015
-0.005
-0.01
-0.035
-0.03
-0.045
0.03
0.05
0.02
0.015
0.0
0.0
0.05
0.04
0.045
0.04
0.06
0.085
0.07
0.055
0.07
0.06
0.055
-0.005
-0.02
-0.04
-0.035
0.015
0.005
-0.05
-0.035
-0.04
-0.015
-0.025
-0.025
-0.03
0.005
-0.015
-0.03
-0.07
-0.045
-0.025
-0.05
-0.05
-0.02
-0.055
-0.005
0.005
-0.02
-0.045
-0.055
-0.02
-0.005
-0.06
-0.06
-0.04
-0.04
-0.085
-0.08
-0.06
-0.11
-0.11
-0.105
-0.085
-0.08
-0.01
0.105
0.24
0.39
0.59
0.75
0.81
0.83
0.72
0.57
0.53
0.46
0.3
0.08
-0.15
-0.23
-0.28
-0.19
-0.12
-0.125
-0.07
-0.06
0.0
-0.04
-0.03
-0.02
-0.03
-0.03
-0.04
-0.05
-0.06
-0.08
-0.05
-0.065
-0.045
-0.03
-0.07
-0.065
-0.02
-0.035
-0.035
-0.05
-0.05
-0.07
-0.04
-0.015
-0.055
-0.06
-0.065
-0.055
-0.06
-0.035
-0.025
-0.055
-0.055
-0.065
-0.05
0.0
-0.015
-0.01
-0.03
-0.025
-0.005
-0.02
-0.02
-0.075
-0.02
-0.015
-0.005
-0.02
-0.02
-0.025
-0.05
0.025
-0.03
-0.05
0.005
0.015
0.0
-0.025
0.015
0.01
0.02
0.01
-0.005
0.015
0.04
0.03
0.05
0.055
0.05
0.05
0.03
0.025
0.045
0.05
0.045
0.06
0.1
0.08
0.08
0.075
0.115
0.145
0.145
0.12
0.155
0.18
0.135
0.16
0.155
0.16
0.17
0.125
0.185
0.21
0.18
0.205
0.205
0.19
0.185
0.185
0.175
0.17
0.18
0.17
0.18
0.135
0.14
0.135
0.1
0.095
0.09
0.125
0.095
0.045
0.035
0.04
0.02
0.05
0.025
0.005
-0.01
0.015
0.03
0.015
0.0
-0.025
0.005
-0.01
0.01
-0.05
0.005
-0.015
-0.05
-0.02
-0.025
-0.045
-0.035
-0.005
-0.005
-0.04
-0.04
-0.045
-0.04
-0.035
-0.06
-0.025
-0.045
0.015
-0.015
-0.05
-0.04
-0.06
-0.01
-0.02
-0.005
-0.03
-0.055
0.01
-0.055
-0.055
-0.065
-0.04
-0.1
-0.05
0.005
-0.015
0.0
-0.005
0.0
-0.015
-0.065
-0.07
-0.045
0.025
-0.02
0.005
-0.02
-0.005
-0.015
-0.01
0.0
-0.015
-0.03
-0.015
0.0
0.005
-0.025
-0.005
-0.04
0.0
-0.01
-0.005
-0.035
-0.005
-0.02
-0.005
-0.02
0.0
-0.015
0.0
-0.025
-0.02
-0.01
-0.015
-0.025
-0.04
-0.05
-0.04
-0.02
-0.015
0.015
-0.02
-0.01
-0.03
-0.025
-0.03
-0.015
-0.005
-0.015
-0.015
-0.035
0.005
-0.05
-0.015
-0.025
-0.04
-0.005
-0.03
-0.035
-0.015
-0.03
0.02
-0.01
0.005
0.005
0.005
0.025
0.0
0.005
-0.025
-0.02
0.005
0.03
0.04
0.065
0.07
0.065
0.06
0.045
0.025
0.05
0.045
0.035
0.055
0.02
-0.035
-0.02
-0.02
-0.015
-0.04
-0.02
-0.045
-0.035
-0.025
-0.005
-0.03
-0.025
-0.06
-0.03
-0.015
-0.025
-0.065
-0.04
-0.015
-0.04
-0.065
-0.09
-0.07
-0.035
-0.06
-0.055
-0.055
-0.06
0.005
0.01
-0.025
-0.06
-0.02
-0.04
-0.045
-0.055
-0.1
-0.125
-0.15
-0.15
-0.135
-0.065
0.005
0.115
0.27
0.445
0.565
0.68
0.745
0.76
0.645
0.505
0.47
0.36
0.21
0.015
-0.185
-0.29
-0.315
-0.255
-0.19
-0.15
-0.11
-0.075
-0.05
-0.045
-0.005
-0.035
-0.055
-0.035
-0.075
-0.065
-0.07
-0.045
-0.07
-0.07
-0.065
-0.085
-0.095
-0.04
-0.045
-0.075
-0.08
-0.04
-0.045
-0.07
-0.025
-0.015
-0.055
-0.03
-0.065
-0.055
-0.045
-0.055
-0.055
-0.055
-0.055
-0.03
-0.025
-0.05
-0.06
-0.03
-0.025
-0.02
-0.01
-0.02
-0.03
-0.005
-0.03
-0.055
-0.01
-0.015
-0.035
-0.025
-0.03
-0.04
-0.035
-0.025
-0.04
-0.005
-0.025
-0.025
-0.05
0.025
0.025
0.01
0.06
0.035
0.03
0.025
0.03
0.035
0.025
0.03
0.025
0.045
0.03
0.04
0.06
0.085
0.085
0.08
0.105
0.12
0.11
0.125
0.12
0.11
0.1
0.105
0.155
0.17
0.16
0.155
0.175
0.2
0.175
0.185
0.195
0.19
0.175
0.17
0.185
0.19
0.17
0.115
0.15
0.155
0.135
0.145
0.13
0.1
0.095
0.08
0.08
0.075
0.065
0.04
0.04
0.035
-0.005
-0.01
0.005
-0.005
0.005
-0.015
-0.005
0.0
-0.01
-0.025
-0.025
-0.095
-0.105
-0.07
-0.02
-0.035
-0.035
-0.03
-0.01
-0.035
-0.01
-0.03
-0.015
-0.055
-0.035
-0.045
-0.04
-0.045
-0.07
-0.065
-0.07
-0.055
-0.065
-0.06
-0.035
-0.035
-0.02
-0.06
-0.05
-0.04
-0.08
-0.05
-0.05
-0.06
-0.025
-0.04
-0.04
-0.05
-0.045
-0.055
-0.06
-0.055
-0.045
-0.035
-0.035
-0.045
-0.02
-0.05
-0.005
-0.025
-0.01
-0.035
-0.05
-0.02
-0.02
-0.03
0.005
-0.025
-0.065
-0.035
-0.055
-0.05
-0.02
-0.015
-0.035
-0.035
-0.055
-0.065
-0.04
0.0
-0.015
-0.03
-0.035
-0.025
-0.01
-0.03
-0.06
-0.035
-0.035
-0.03
-0.045
-0.055
-0.065
-0.055
-0.02
-0.05
-0.015
-0.03
-0.065
-0.025
-0.02
-0.03
-0.045
-0.065
-0.015
0.01
-0.065
-0.06
-0.025
-0.055
-0.05
-0.045
-0.03
-0.015
-0.035
-0.045
-0.05
-0.03
-0.04
-0.03
-0.025
-0.03
-0.04
-0.025
-0.015
-0.005
-0.025
-0.02
-0.01
-0.015
-0.02
-0.02
-0.005
0.02
0.035
0.06
0.03
0.04
-0.01
0.045
0.04
0.04
0.04
0.025
0.025
0.03
-0.005
-0.055
-0.065
-0.08
-0.075
-0.07
-0.045
-0.03
-0.04
-0.045
-0.07
-0.05
-0.035
-0.075
-0.035
-0.06
-0.06
-0.05
-0.07
-0.03
-0.075
-0.055
-0.035
-0.055
-0.075
-0.065
-0.055
-0.055
-0.075
-0.085
-0.08
-0.1
-0.06
-0.05
-0.085
-0.085
-0.12
-0.18
-0.15
-0.11
-0.09
-0.06
0.07
0.2
0.345
0.51
0.675
0.8
0.835
0.79
0.645
0.555
0.49
0.38
0.19
-0.005
-0.2
-0.27
-0.215
-0.145
-0.115
-0.075
-0.05
-0.055
-0.065
-0.075
-0.045
-0.055
-0.065
-0.05
-0.06
-0.08
-0.1
-0.085
-0.09
-0.085
-0.045
-0.075
-0.07
-0.08
-0.07
-0.085
-0.07
-0.09
-0.105
-0.07
-0.07
-0.05
-0.06
-0.105
-0.09
-0.065
-0.055
-0.08
-0.065
-0.065
-0.075
-0.075
-0.06
-0.055
-0.08
-0.055
-0.065
-0.06
-0.055
-0.065
-0.075
-0.05
-0.075
-0.08
-0.075
-0.075
-0.055
-0.05
-0.035
-0.03
-0.065
-0.065
-0.03
-0.025
-0.03
0.005
0.015
-0.01
-0.025
-0.01
-0.01
0.005
0.005
0.0
0.005
-0.03
0.005
0.005
-0.005
0.02
0.045
0.035
0.02
0.055
0.015
0.06
0.08
0.06
0.065
0.105
0.105
0.095
0.105
0.07
0.11
0.07
0.16
0.13
0.155
0.155
0.175
0.175
0.17
0.16
0.155
0.15
0.11
0.165
0.15
0.11
0.115
0.155
0.135
0.14
0.1
0.08
0.075
0.08
0.075
0.05
0.055
0.01
0.03
0.01
-0.015
0.0
-0.02
-0.02
0.015
0.0
-0.03
-0.03
-0.045
-0.065
-0.055
-0.03
-0.03
-0.025
-0.035
-0.06
-0.055
-0.075
-0.09
-0.055
-0.035
-0.06
-0.07
-0.025
-0.05
-0.04
-0.03
-0.065
-0.05
-0.095
-0.055
-0.055
-0.02
-0.045
-0.045
-0.055
-0.03
-0.05
-0.07
-0.07
-0.08
-0.055
-0.07
-0.065
-0.06
-0.05
-0.04
-0.04
-0.05
-0.08
-0.075
-0.055
-0.015
-0.015
-0.075
-0.07
-0.095
-0.04
-0.07
-0.08
-0.065
-0.025
-0.025
-0.05
-0.05
-0.04
-0.025
-0.025
-0.05
-0.02
-0.04
-0.015
-0.035
-0.035
-0.03
-0.025
-0.055
-0.025
-0.04
-0.06
-0.035
-0.06
-0.06
-0.025
-0.01
-0.015
-0.055
-0.025
-0.05
-0.05
-0.055
-0.09
-0.05
-0.035
-0.025
-0.02
-0.04
-0.03
-0.07
-0.05
-0.05
-0.075
-0.01
-0.025
-0.035
-0.025
0.0
-0.05
-0.04
-0.075
-0.06
-0.055
0.0
-0.025
-0.06
-0.065
-0.06
-0.075
-0.065
-0.04
-0.075
-0.07
-0.035
-0.01
-0.02
-0.035
-0.035
-0.045
-0.025
-0.015
-0.045
-0.05
-0.05
-0.01
-0.005
-0.015
0.0
-0.025
-0.015
0.015
-0.025
0.005
0.01
0.015
0.015
0.05
0.005
0.02
-0.02
0.01
0.025
0.005
0.035
0.015
0.02
-0.005
-0.015
-0.025
-0.06
-0.025
-0.025
-0.065
-0.05
-0.045
-0.055
-0.075
-0.055
-0.075
-0.065
-0.055
-0.04
-0.075
-0.09
-0.06
-0.06
-0.08
-0.045
-0.035
-0.07
-0.04
-0.05
-0.065
-0.05
-0.025
-0.05
-0.07
-0.08
-0.055
-0.055
-0.09
-0.11
-0.125
-0.14
-0.195
-0.205
-0.075
-0.065
0.065
0.19
0.365
0.55
0.67
0.78
0.85
0.805
0.71
0.56
0.51
0.41
0.205
0.0
-0.165
-0.23
-0.19
-0.16
-0.095
-0.065
-0.065
-0.07
-0.1
-0.045
-0.045
-0.075
-0.055
-0.09
-0.045
-0.085
-0.08
-0.08
-0.075
-0.07
-0.07
-0.085
-0.085
-0.09
-0.08
-0.06
-0.065
-0.075
-0.07
-0.075
-0.05
-0.07
-0.03
-0.03
-0.08
-0.075
-0.075
-0.085
-0.05
-0.075
-0.065
-0.07
-0.06
-0.075
-0.065
-0.085
-0.06
-0.055
-0.02
-0.095
-0.065
-0.055
-0.06
-0.06
-0.04
-0.025
-0.04
-0.05
-0.065
-0.055
-0.045
-0.035
-0.04
-0.015
-0.045
-0.03
-0.02
-0.025
-0.025
-0.02
0.01
-0.03
-0.025
-0.01
0.025
0.0
-0.005
-0.015
-0.025
0.0
0.04
0.08
0.045
0.055
0.075
0.065
0.095
0.05
0.08
0.065
0.08
0.095
0.12
0.11
0.135
0.125
0.125
0.135
0.165
0.13
0.16
0.175
0.16
0.145
0.14
0.135
0.145
0.11
0.155
0.135
0.135
0.145
0.085
0.12
0.145
0.135
0.1
0.08
0.08
0.05
0.04
0.03
0.04
0.025
-0.01
0.0
0.015
-0.01
0.01
-0.02
-0.02
-0.05
-0.02
-0.04
-0.035
-0.06
-0.065
-0.03
0.0
-0.05
-0.055
-0.04
-0.035
-0.04
-0.065
-0.02
-0.045
-0.05
-0.03
-0.055
-0.055
-0.1
-0.05
-0.03
-0.015
-0.02
-0.04
-0.075
-0.045
-0.08
-0.04
-0.045
-0.03
-0.07
-0.055
-0.02
-0.025
-0.015
-0.03
-0.075
-0.045
-0.06
-0.03
-0.055
-0.06
-0.035
-0.08
-0.05
-0.045
-0.015
-0.02
-0.065
-0.05
-0.05
-0.045
-0.065
-0.045
-0.035
-0.015
-0.035
-0.05
-0.025
-0.05
-0.015
-0.04
-0.02
-0.05
-0.025
-0.055
-0.035
-0.035
-0.025
-0.05
-0.03
-0.05
-0.01
-0.03
-0.015
-0.045
-0.07
-0.02
-0.055
-0.03
-0.035
-0.015
-0.03
-0.065
-0.015
-0.05
-0.07
-0.075
-0.08
-0.06
0.04
0.03
-0.04
-0.07
-0.045
-0.055
-0.045
-0.075
-0.035
-0.08
-0.045
-0.02
-0.055
-0.07
-0.045
-0.05
-0.035
-0.04
-0.06
-0.06
-0.07
-0.05
-0.06
-0.035
-0.025
-0.04
-0.045
-0.04
-0.03
-0.05
-0.035
-0.01
-0.03
-0.04
-0.075
-0.03
-0.04
-0.025
-0.025
-0.025
-0.03
-0.005
-0.03
-0.01
-0.01
-0.005
0.035
0.045
0.015
0.035
0.03
0.025
0.01
0.08
0.045
0.02
0.02
0.015
-0.03
0.03
-0.015
0.0
-0.035
-0.04
-0.065
-0.04
-0.03
-0.025
-0.045
-0.04
-0.015
-0.005
-0.03
-0.055
-0.025
-0.05
-0.04
-0.05
-0.045
-0.045
-0.025
-0.03
-0.045
-0.06
-0.055
-0.07
-0.04
-0.06
-0.055
-0.055
-0.02
-0.055
-0.05
-0.07
-0.08
-0.115
-0.14
-0.135
-0.11
-0.085
0.005
0.08
0.23
0.395
0.57
0.71
0.805
0.805
0.695
0.615
0.515
0.455
0.265
0.08
-0.135
-0.31
-0.295
-0.285
-0.17
-0.095
-0.035
-0.045
-0.08
-0.075
0.0
-0.015
-0.05
-0.08
-0.06
-0.085
-0.065
-0.04
-0.04
-0.065
-0.055
-0.045
-0.015
-0.035
-0.055
-0.045
-0.07
-0.065
-0.04
-0.05
-0.09
-0.07
-0.06
-0.01
-0.005
-0.06
-0.06
-0.02
-0.055
-0.07
-0.065
-0.06
-0.045
-0.055
-0.035
-0.08
-0.03
-0.07
-0.045
-0.045
0.005
0.04
-0.005
-0.02
0.005
-0.04
-0.045
-0.03
-0.075
-0.05
-0.005
0.0
-0.01
-0.005
-0.01
0.015
0.005
0.015
-0.01
-0.06
0.03
0.01
-0.01
0.02
0.04
0.03
0.04
0.03
0.03
0.055
0.04
0.065
0.06
0.055
0.08
0.085
0.085
0.085
0.11
0.115
0.115
0.105
0.14
0.125
0.14
0.145
0.165
0.165
0.165
0.165
0.14
0.145
0.155
0.16
0.14
0.18
0.16
0.19
0.175
0.18
0.19
0.13
0.135
0.13
0.14
0.085
0.095
0.11
0.085
0.05
0.05
0.06
0.065
0.005
0.06
0.035
0.015
0.01
-0.025
-0.015
-0.045
0.005
-0.015
-0.005
-0.04
-0.045
-0.015
-0.05
-0.02
-0.04
-0.05
0.015
-0.035
-0.01
-0.045
-0.035
-0.035
-0.05
-0.055
-0.02
-0.04
-0.045
-0.07
-0.045
-0.04
-0.03
-0.03
-0.04
-0.035
-0.045
-0.045
0.0
-0.025
-0.035
-0.055
-0.01
-0.045
-0.055
-0.015
-0.055
-0.04
-0.035
-0.015
-0.035
-0.055
-0.005
-0.06
-0.04
-0.055
-0.045
-0.02
-0.02
-0.045
0.005
0.01
-0.045
-0.08
0.015
-0.02
-0.03
-0.01
-0.005
-0.03
-0.045
-0.02
-0.015
0.005
-0.065
-0.05
-0.01
-0.02
-0.01
-0.025
-0.005
-0.05
-0.05
-0.06
-0.03
-0.03
-0.025
-0.015
-0.015
-0.015
-0.005
-0.005
-0.02
-0.035
-0.025
0.0
-0.04
-0.025
-0.01
-0.02
-0.02
-0.025
0.01
-0.01
-0.015
-0.015
0.02
-0.01
-0.05
-0.04
0.05
0.06
0.05
0.025
0.005
0.01
0.06
0.06
0.06
0.04
0.02
0.045
0.025
0.005
-0.015
-0.035
-0.035
0.005
0.005
-0.05
-0.05
-0.035
-0.03
-0.025
-0.015
-0.05
-0.05
-0.075
-0.08
-0.03
-0.05
-0.055
-0.04
-0.025
-0.015
-0.04
-0.09
-0.055
-0.05
-0.06
-0.02
-0.02
0.0
-0.06
-0.07
-0.06
-0.055
-0.055
-0.07
-0.085
-0.06
-0.08
-0.12
-0.125
-0.14
-0.1
-0.105
-0.015
0.105
0.2
0.39
0.545
0.715
0.73
0.68
0.585
0.46
0.425
0.285
0.145
-0.005
-0.19
-0.3
-0.295
-0.22
-0.145
-0.13
-0.085
-0.055
-0.05
-0.035
-0.095
-0.055
-0.065
-0.065
-0.025
-0.04
-0.07
-0.075
-0.06
-0.08
-0.085
-0.08
-0.06
-0.085
-0.025
-0.04
-0.045
-0.055
-0.07
-0.035
-0.025
-0.06
-0.085
-0.07
-0.07
-0.04
-0.07
-0.04
-0.04
-0.015
-0.02
-0.05
-0.085
-0.06
-0.05
-0.04
0.005
-0.045
-0.055
-0.08
-0.035
-0.03
-0.065
-0.045
-0.025
-0.025
-0.04
-0.04
-0.045
-0.015
-0.05
-0.025
-0.02
0.01
0.015
0.015
0.015
0.03
0.0
0.005
-0.015
-0.01
-0.005
0.02
0.01
0.0
-0.04
-0.015
0.05
0.04
0.075
0.075
0.075
0.06
0.05
0.115
0.11
0.07
0.11
0.11
0.12
0.125
0.115
0.14
0.15
0.125
0.135
0.155
0.16
0.155
0.17
0.145
0.17
0.145
0.145
0.145
0.16
0.16
0.165
0.15
0.13
0.135
0.13
0.11
0.075
0.07
0.055
0.06
0.06
0.04
0.015
0.03
0.02
0.01
-0.03
-0.015
-0.015
-0.005
0.015
-0.005
-0.04
-0.05
-0.025
-0.03
-0.06
-0.035
-0.045
-0.01
-0.025
-0.05
-0.045
-0.075
-0.045
-0.05
-0.065
-0.05
-0.06
-0.045
-0.05
-0.01
-0.02
-0.045
-0.075
-0.055
-0.015
-0.03
-0.055
-0.025
-0.05
-0.055
-0.05
-0.05
-0.04
-0.055
-0.055
-0.04
-0.065
-0.065
-0.055
-0.045
-0.07
-0.025
-0.01
-0.05
-0.055
-0.01
-0.05
-0.06
-0.05
-0.025
-0.05
-0.05
-0.05
-0.025
-0.01
-0.015
-0.045
-0.06
-0.045
-0.05
-0.025
0.015
-0.03
-0.035
-0.025
-0.03
-0.05
-0.035
-0.03
-0.06
-0.045
-0.045
-0.01
-0.05
-0.055
-0.02
-0.025
-0.05
-0.04
-0.015
-0.03
-0.04
-0.05
-0.015
-0.03
-0.025
-0.075
-0.1
-0.025
0.02
-0.015
-0.01
-0.005
-0.05
-0.01
-0.05
-0.05
0.0
0.01
-0.005
-0.005
-0.02
0.0
-0.005
-0.005
-0.015
-0.025
-0.015
0.035
0.02
0.03
0.01
-0.025
0.035
0.06
0.015
0.04
0.05
-0.015
-0.03
0.0
0.0
0.015
-0.035
-0.03
-0.01
-0.025
-0.07
-0.07
-0.12
-0.005
-0.05
-0.075
-0.05
-0.04
-0.025
-0.045
-0.04
-0.065
-0.025
-0.055
-0.05
-0.04
-0.07
-0.075
-0.055
-0.025
-0.015
-0.06
-0.03
-0.055
-0.035
-0.055
-0.08
-0.06
-0.06
-0.1
-0.15
-0.185
-0.195
-0.12
-0.08
0.015
0.12
0.29
0.425
0.555
0.655
0.77
0.75
0.665
0.55
0.51
0.4
0.285
0.09
-0.12
-0.22
-0.205
-0.17
-0.12
-0.04
-0.03
-0.04
-0.04
-0.09
-0.055
-0.045
-0.06
-0.075
-0.05
-0.045
-0.085
-0.11
-0.04
-0.08
-0.085
-0.055
-0.065
-0.05
-0.06
-0.075
-0.075
-0.085
-0.06
-0.03
-0.055
-0.065
-0.04
-0.095
-0.085
-0.055
-0.065
-0.05
-0.065
-0.05
-0.065
-0.04
-0.05
-0.065
-0.04
-0.03
-0.06
-0.05
-0.085
-0.065
-0.06
-0.05
-0.07
-0.035
-0.045
-0.045
-0.02
-0.025
-0.02
-0.03
-0.005
-0.045
-0.055
-0.035
-0.07
-0.065
-0.085
-0.02
0.0
-0.01
0.0
0.01
0.015
0.005
-0.01
-0.015
0.005
-0.015
0.015
0.04
0.04
0.025
0.0
0.035
0.045
0.025
0.045
0.075
0.08
0.095
0.095
0.11
0.095
0.105
0.11
0.145
0.11
0.07
0.075
0.11
0.155
0.155
0.135
0.145
0.17
0.17
0.16
0.14
0.125
0.1
0.11
0.12
0.09
0.11
0.08
0.06
0.065
0.045
0.05
0.055
0.03
0.01
0.015
0.01
0.005
-0.01
-0.02
-0.01
-0.02
-0.02
-0.01
-0.025
-0.03
-0.02
-0.05
-0.055
-0.04
-0.04
-0.05
-0.04
-0.06
-0.06
-0.05
-0.045
-0.025
-0.03
-0.06
-0.015
-0.015
-0.055
-0.04
-0.03
-0.04
-0.07
-0.065
-0.045
-0.06
-0.065
-0.075
-0.075
-0.025
-0.015
-0.06
-0.045
-0.045
-0.03
-0.035
-0.05
-0.065
-0.075
-0.06
-0.055
-0.04
-0.045
-0.06
-0.045
-0.055
-0.04
-0.02
-0.065
-0.06
-0.03
-0.05
-0.04
-0.01
-0.04
-0.045
-0.065
-0.11
-0.01
0.01
-0.01
-0.03
-0.03
-0.05
-0.055
-0.045
-0.035
-0.035
-0.025
0.0
-0.02
-0.045
-0.035
-0.02
-0.025
-0.045
-0.035
-0.055
-0.025
0.025
0.015
-0.01
-0.02
-0.03
-0.05
-0.015
-0.015
-0.055
-0.02
-0.03
-0.01
-0.025
0.0
-0.03
-0.005
-0.01
-0.03
0.01
0.025
0.015
0.03
0.05
0.05
0.02
0.04
0.055
0.065
0.03
0.035
0.01
-0.005
-0.01
-0.015
-0.01
-0.05
-0.035
-0.025
-0.04
-0.055
-0.045
-0.055
-0.05
-0.02
-0.055
-0.04
-0.04
-0.05
-0.05
-0.04
-0.045
-0.055
-0.05
-0.02
-0.03
-0.055
-0.065
-0.025
-0.025
-0.04
-0.045
-0.02
-0.08
-0.045
-0.05
-0.06
-0.065
-0.075
-0.085
-0.095
-0.115
-0.15
-0.155
-0.09
-0.05
0.02
0.145
0.295
0.46
0.59
0.705
0.78
0.785
0.65
0.525
0.465
0.355
0.21
0.04
-0.17
-0.25
-0.19
-0.155
-0.095
-0.045
-0.04
-0.06
-0.055
-0.065
-0.01
-0.055
-0.06
-0.065
-0.085
-0.02
-0.04
-0.06
-0.07
-0.045
-0.06
-0.085
-0.085
-0.085
-0.06
-0.075
-0.09
-0.05
-0.065
-0.055
-0.04
-0.05
-0.045
-0.055
-0.05
-0.055
-0.065
-0.065
-0.095
-0.01
-0.055
-0.05
-0.04
-0.045
-0.03
-0.05
-0.075
-0.05
-0.015
-0.05
-0.05
-0.05
-0.055
-0.045
-0.045
-0.035
-0.02
-0.01
-0.035
-0.055
-0.05
-0.03
-0.01
-0.025
-0.025
-0.01
-0.015
-0.025
0.01
-0.01
-0.025
0.005
-0.01
0.015
0.0
0.005
0.005
0.015
-0.005
0.05
0.025
0.03
0.025
0.065
0.055
0.055
0.045
0.09
0.08
0.04
0.085
0.15
0.1
0.14
0.135
0.115
0.15
0.15
0.15
0.17
0.145
0.105
0.13
0.14
0.15
0.135
0.13
0.155
0.12
0.15
0.165
0.12
0.115
0.07
0.07
0.095
0.07
0.07
0.035
0.015
0.045
0.03
0.02
-0.02
0.01
-0.005
0.0
-0.01
-0.03
-0.01
-0.03
-0.055
-0.035
-0.015
-0.04
-0.035
-0.03
-0.06
0.0
-0.01
-0.04
-0.04
-0.04
-0.05
-0.045
-0.065
-0.025
-0.03
-0.065
-0.02
-0.04
-0.06
-0.025
-0.045
-0.035
-0.075
-0.055
-0.07
-0.045
-0.035
-0.02
-0.045
-0.045
-0.025
-0.05
-0.03
-0.06
-0.055
-0.065
-0.075
-0.02
-0.065
-0.065
-0.03
-0.055
-0.02
0.005
-0.03
-0.05
-0.025
-0.045
-0.04
-0.05
-0.025
-0.08
-0.04
-0.005
-0.03
-0.025
-0.055
-0.01
0.01
-0.01
-0.04
-0.055
-0.055
-0.08
-0.04
0.03
-0.01
-0.025
-0.03
0.0
-0.005
-0.035
-0.005
-0.025
-0.03
-0.035
-0.02
-0.025
-0.04
-0.02
-0.015
-0.015
-0.015
-0.025
-0.02
-0.015
0.02
-0.04
0.0
-0.005
-0.02
0.01
-0.005
0.005
-0.01
0.035
0.015
0.005
0.03
0.025
0.02
0.025
0.035
0.075
0.075
0.045
0.035
0.06
0.055
0.045
0.01
0.005
0.01
-0.005
-0.02
-0.03
-0.015
-0.04
-0.015
-0.035
-0.075
-0.085
-0.055
-0.015
0.02
0.005
-0.035
-0.045
-0.02
-0.055
-0.02
-0.02
-0.06
-0.025
-0.05
-0.055
-0.03
-0.005
-0.02
-0.04
-0.065
-0.055
-0.04
-0.03
-0.04
-0.045
-0.025
-0.065
-0.085
-0.12
-0.15
-0.135
-0.145
-0.065
-0.03
0.065
0.18
0.315
0.525
0.67
0.765
0.81
0.76
0.68
0.56
0.48
0.35
0.235
0.0
-0.17
-0.25
-0.215
-0.115
-0.075
-0.025
-0.045
-0.025
-0.03
-0.025
-0.06
-0.04
-0.035
-0.045
-0.05
-0.065
-0.07
-0.065
-0.08
-0.035
-0.07
-0.06
-0.07
-0.05
-0.04
-0.085
-0.05
-0.055
-0.055
-0.045
-0.045
-0.05
-0.055
-0.02
-0.055
-0.055
-0.075
-0.035
-0.055
-0.065
-0.05
-0.04
-0.03
-0.055
-0.04
-0.05
-0.05
-0.03
-0.015
0.01
-0.065
-0.02
0.0
-0.04
-0.01
-0.045
-0.055
-0.03
-0.005
-0.02
0.02
0.005
-0.01
0.0
0.01
-0.015
0.005
-0.02
-0.03
0.01
0.045
-0.005
-0.03
0.04
0.06
0.02
0.05
0.035
0.02
0.045
0.04
0.05
0.08
0.085
0.07
0.075
0.08
0.08
0.14
0.135
0.13
0.13
0.125
0.16
0.17
0.17
0.155
0.145
0.18
0.2
0.175
0.155
0.165
0.17
0.185
0.18
0.175
0.19
0.18
0.15
0.12
0.135
0.125
0.14
0.115
0.08
0.075
0.075
0.07
0.055
0.065
0.04
0.025
0.015
0.03
0.045
0.025
-0.015
0.01
-0.035
-0.03
-0.015
-0.005
-0.03
-0.015
0.035
0.01
-0.01
-0.045
-0.02
-0.02
-0.025
-0.02
-0.02
-0.025
-0.015
0.005
-0.02
-0.035
-0.04
-0.04
-0.03
-0.005
-0.025
-0.08
-0.04
-0.015
-0.035
-0.015
-0.01
-0.025
-0.035
-0.05
-0.03
-0.02
0.005
-0.005
-0.025
-0.04
-0.04
-0.015
0.0
-0.02
-0.02
-0.04
-0.04
-0.04
-0.01
-0.01
-0.03
-0.04
-0.04
-0.015
-0.04
-0.015
-0.01
-0.04
0.015
-0.005
0.015
-0.015
-0.01
-0.02
-0.02
-0.01
-0.035
-0.035
0.01
0.0
-0.005
-0.025
0.01
-0.03
-0.055
0.01
-0.02
0.0
-0.015
-0.02
-0.02
-0.005
-0.015
-0.005
-0.015
-0.005
-0.015
-0.02
-0.04
-0.02
0.005
-0.015
0.005
-0.01
-0.04
-0.01
-0.055
-0.03
-0.025
-0.03
-0.05
-0.015
-0.005
-0.03
-0.04
-0.015
0.025
0.03
0.005
-0.025
-0.02
-0.01
0.03
0.02
0.06
0.05
0.04
0.06
0.055
0.055
0.035
0.05
0.085
0.055
0.03
0.035
0.025
0.03
0.01
0.03
0.045
0.03
0.015
-0.02
-0.025
-0.02
-0.045
-0.055
-0.04
-0.03
-0.025
0.005
-0.01
-0.04
-0.055
-0.015
-0.015
-0.03
-0.02
-0.045
-0.015
-0.05
-0.045
-0.05
-0.045
-0.04
-0.025
-0.075
-0.05
-0.04
-0.025
-0.09
-0.06
-0.06
0.0
-0.02
-0.095
-0.13
-0.135
-0.17
-0.125
-0.05
0.045
0.18
0.33
0.49
0.655
0.77
0.825
0.87
0.77
0.635
0.525
0.44
0.31
0.13
-0.125
-0.21
-0.165
-0.115
-0.07
-0.045
-0.045
-0.05
-0.055
-0.01
-0.015
-0.025
-0.06
-0.035
-0.04
-0.05
-0.065
-0.09
-0.075
-0.05
-0.045
-0.065
-0.07
-0.095
-0.04
-0.055
-0.065
-0.09
-0.06
-0.01
-0.03
-0.045
0.005
-0.035
-0.04
-0.04
-0.035
-0.035
-0.015
-0.03
-0.01
-0.015
-0.035
-0.06
-0.04
-0.045
-0.05
-0.025
-0.015
-0.05
-0.035
-0.03
-0.02
0.0
-0.02
-0.025
0.0
-0.025
-0.02
-0.035
-0.015
0.015
0.005
0.015
-0.02
-0.015
0.005
0.005
-0.01
0.005
0.015
-0.01
0.04
0.035
0.03
0.05
0.04
0.035
0.035
0.03
0.025
0.04
0.085
0.07
0.08
0.115
0.065
0.085
0.135
0.15
0.14
0.12
0.125
0.08
0.12
0.145
0.15
0.22
0.18
0.19
0.175
0.17
0.165
0.175
0.2
0.185
0.2
0.17
0.165
0.165
0.185
0.14
0.12
0.16
0.125
0.145
0.095
0.105
0.065
0.075
0.06
0.055
0.05
0.035
0.04
0.025
0.01
0.02
0.01
0.01
0.015
0.005
-0.04
-0.01
-0.03
-0.055
0.02
0.005
-0.005
-0.01
-0.02
-0.04
-0.02
0.0
-0.03
-0.035
-0.04
0.005
-0.055
-0.035
0.055
0.015
-0.02
-0.04
-0.04
-0.015
0.01
0.015
0.01
-0.04
-0.015
-0.015
-0.005
-0.005
-0.02
-0.025
-0.01
-0.01
-0.015
0.02
0.0
-0.01
-0.01
0.005
-0.035
-0.035
-0.05
-0.03
-0.01
-0.04
-0.01
-0.005
0.005
-0.015
0.0
-0.015
-0.02
-0.005
-0.04
0.005
0.01
-0.005
-0.04
-0.035
0.02
0.02
0.0
-0.03
0.005
-0.01
0.005
-0.025
-0.025
-0.005
0.015
-0.01
0.005
0.015
-0.01
0.005
-0.005
0.005
-0.025
-0.015
0.015
0.03
-0.005
0.02
0.005
0.005
-0.01
-0.015
0.015
-0.03
-0.04
-0.045
-0.045
-0.02
0.0
-0.01
0.02
0.015
-0.015
-0.01
0.0
-0.015
0.005
-0.015
0.01
-0.005
-0.005
-0.01
-0.015
0.015
0.02
0.01
