# TIPE ECG 2021 - ECG-ID Database v1.0.0 par Physionet
# [Numéro de la personne, Période d'échantillonnage, Prénom, Age, Sexe, Date de l'enregistrement]
[55, 0.002, Clara, 23, F, 12.05.2005]
0.21
0.21
0.23
0.195
0.185
0.18
0.2
0.225
0.215
0.21
0.215
0.22
0.22
0.17
0.18
0.195
0.23
0.2
0.2
0.22
0.21
0.205
0.205
0.205
0.21
0.21
0.205
0.21
0.21
0.2
0.22
0.21
0.19
0.195
0.215
0.21
0.205
0.22
0.19
0.205
0.21
0.225
0.21
0.205
0.215
0.225
0.2
0.195
0.195
0.205
0.205
0.2
0.195
0.205
0.21
0.2
0.215
0.19
0.195
0.2
0.205
0.225
0.19
0.205
0.215
0.205
0.19
0.205
0.195
0.21
0.2
0.195
0.195
0.185
0.19
0.2
0.205
0.19
0.205
0.18
0.185
0.185
0.19
0.21
0.205
0.2
0.18
0.175
0.185
0.18
0.17
0.185
0.185
0.185
0.155
0.175
0.18
0.175
0.165
0.17
0.155
0.175
0.17
0.165
0.17
0.16
0.16
0.17
0.175
0.17
0.175
0.185
0.165
0.16
0.18
0.185
0.175
0.185
0.17
0.165
0.19
0.2
0.195
0.18
0.165
0.19
0.185
0.19
0.21
0.185
0.195
0.185
0.2
0.2
0.195
0.215
0.2
0.2
0.22
0.21
0.215
0.22
0.21
0.21
0.21
0.23
0.19
0.235
0.22
0.21
0.22
0.215
0.22
0.215
0.225
0.22
0.215
0.215
0.195
0.24
0.24
0.215
0.25
0.24
0.225
0.225
0.235
0.255
0.24
0.245
0.27
0.25
0.275
0.285
0.305
0.295
0.3
0.305
0.335
0.295
0.3
0.28
0.29
0.3
0.31
0.305
0.305
0.32
0.325
0.29
0.285
0.28
0.275
0.27
0.25
0.225
0.215
0.195
0.18
0.18
0.225
0.205
0.205
0.205
0.195
0.195
0.19
0.2
0.21
0.205
0.18
0.2
0.195
0.205
0.2
0.185
0.19
0.21
0.19
0.19
0.205
0.205
0.2
0.21
0.195
0.2
0.19
0.18
0.175
0.19
0.18
0.205
0.255
0.295
0.365
0.435
0.525
0.615
0.675
0.72
0.775
0.86
0.925
0.91
0.835
0.64
0.49
0.425
0.33
0.23
0.115
0.07
0.13
0.15
0.195
0.215
0.22
0.24
0.245
0.23
0.205
0.215
0.22
0.215
0.21
0.215
0.235
0.21
0.18
0.2
0.205
0.205
0.185
0.195
0.21
0.185
0.185
0.21
0.18
0.195
0.2
0.19
0.185
0.195
0.2
0.19
0.22
0.22
0.17
0.21
0.2
0.2
0.195
0.195
0.2
0.2
0.19
0.18
0.2
0.205
0.21
0.21
0.2
0.195
0.2
0.205
0.195
0.22
0.22
0.235
0.22
0.19
0.19
0.205
0.2
0.235
0.24
0.215
0.22
0.23
0.235
0.22
0.245
0.24
0.225
0.21
0.24
0.24
0.25
0.245
0.255
0.24
0.255
0.26
0.265
0.265
0.295
0.255
0.25
0.27
0.265
0.265
0.275
0.295
0.275
0.295
0.29
0.285
0.295
0.32
0.32
0.325
0.31
0.32
0.335
0.345
0.335
0.35
0.365
0.35
0.36
0.38
0.355
0.395
0.385
0.38
0.405
0.395
0.39
0.395
0.42
0.415
0.425
0.405
0.415
0.425
0.44
0.43
0.42
0.425
0.435
0.415
0.43
0.42
0.435
0.415
0.405
0.38
0.355
0.39
0.38
0.365
0.38
0.35
0.36
0.34
0.31
0.315
0.325
0.32
0.305
0.305
0.3
0.29
0.285
0.255
0.26
0.255
0.25
0.25
0.245
0.23
0.24
0.235
0.24
0.245
0.225
0.225
0.225
0.215
0.21
0.21
0.21
0.23
0.21
0.215
0.23
0.225
0.22
0.215
0.22
0.215
0.215
0.21
0.195
0.21
0.21
0.215
0.225
0.225
0.215
0.215
0.215
0.21
0.195
0.21
0.215
0.235
0.225
0.24
0.19
0.21
0.2
0.22
0.22
0.235
0.215
0.225
0.225
0.235
0.21
0.23
0.225
0.23
0.235
0.23
0.22
0.215
0.225
0.21
0.22
0.24
0.215
0.225
0.21
0.245
0.23
0.22
0.235
0.235
0.225
0.245
0.235
0.215
0.23
0.23
0.23
0.23
0.23
0.235
0.225
0.265
0.245
0.215
0.225
0.235
0.225
0.24
0.24
0.22
0.225
0.225
0.23
0.205
0.225
0.235
0.23
0.23
0.225
0.245
0.23
0.23
0.235
0.22
0.235
0.235
0.235
0.23
0.23
0.225
0.24
0.225
0.215
0.23
0.22
0.21
0.23
0.235
0.235
0.23
0.22
0.23
0.22
0.21
0.245
0.23
0.245
0.215
0.235
0.215
0.215
0.225
0.2
0.205
0.22
0.205
0.235
0.25
0.235
0.225
0.22
0.23
0.235
0.21
0.235
0.225
0.22
0.22
0.23
0.215
0.235
0.225
0.23
0.23
0.21
0.21
0.24
0.215
0.21
0.21
0.215
0.235
0.22
0.235
0.22
0.255
0.225
0.21
0.22
0.22
0.24
0.235
0.235
0.22
0.24
0.23
0.255
0.275
0.285
0.3
0.3
0.285
0.29
0.3
0.3
0.32
0.315
0.29
0.29
0.29
0.31
0.31
0.305
0.315
0.3
0.275
0.28
0.27
0.275
0.265
0.25
0.21
0.21
0.195
0.195
0.19
0.21
0.215
0.205
0.185
0.205
0.2
0.195
0.21
0.185
0.19
0.19
0.215
0.195
0.185
0.19
0.185
0.195
0.195
0.22
0.18
0.175
0.205
0.215
0.195
0.2
0.175
0.185
0.205
0.21
0.205
0.2
0.24
0.255
0.325
0.38
0.465
0.555
0.64
0.74
0.77
0.815
0.88
0.915
0.885
0.735
0.535
0.435
0.31
0.19
0.1
0.075
0.09
0.11
0.125
0.18
0.185
0.195
0.23
0.225
0.235
0.21
0.23
0.22
0.22
0.225
0.205
0.195
0.21
0.205
0.23
0.22
0.205
0.235
0.205
0.2
0.21
0.205
0.2
0.2
0.225
0.215
0.21
0.205
0.225
0.215
0.2
0.22
0.22
0.23
0.215
0.23
0.215
0.205
0.23
0.22
0.21
0.21
0.22
0.24
0.235
0.24
0.225
0.225
0.23
0.225
0.245
0.235
0.25
0.245
0.23
0.22
0.23
0.255
0.25
0.235
0.235
0.235
0.25
0.245
0.26
0.255
0.255
0.26
0.26
0.255
0.26
0.26
0.26
0.27
0.265
0.275
0.295
0.285
0.285
0.27
0.285
0.28
0.275
0.31
0.305
0.315
0.31
0.315
0.295
0.295
0.315
0.315
0.34
0.31
0.335
0.355
0.355
0.345
0.365
0.37
0.365
0.36
0.4
0.385
0.365
0.385
0.405
0.405
0.425
0.415
0.42
0.425
0.415
0.445
0.43
0.435
0.425
0.47
0.475
0.44
0.445
0.435
0.445
0.47
0.46
0.47
0.455
0.425
0.44
0.44
0.425
0.425
0.415
0.41
0.395
0.385
0.39
0.36
0.365
0.365
0.345
0.33
0.32
0.305
0.315
0.315
0.275
0.27
0.28
0.265
0.27
0.235
0.23
0.26
0.245
0.24
0.22
0.23
0.225
0.22
0.215
0.22
0.225
0.21
0.22
0.23
0.225
0.205
0.18
0.2
0.2
0.215
0.225
0.21
0.22
0.22
0.215
0.19
0.2
0.2
0.21
0.205
0.21
0.195
0.22
0.23
0.195
0.205
0.2
0.205
0.21
0.195
0.215
0.22
0.205
0.205
0.21
0.195
0.225
0.205
0.21
0.21
0.205
0.21
0.215
0.235
0.235
0.235
0.215
0.22
0.185
0.2
0.225
0.21
0.23
0.21
0.205
0.215
0.195
0.23
0.235
0.22
0.225
0.215
0.235
0.205
0.2
0.205
0.195
0.2
0.21
0.225
0.205
0.2
0.2
0.21
0.215
0.195
0.22
0.225
0.21
0.185
0.195
0.215
0.215
0.205
0.195
0.21
0.205
0.2
0.19
0.185
0.205
0.215
0.195
0.185
0.185
0.19
0.225
0.2
0.19
0.18
0.17
0.19
0.185
0.195
0.18
0.17
0.16
0.18
0.19
0.185
0.16
0.2
0.19
0.17
0.18
0.19
0.175
0.2
0.195
0.175
0.18
0.175
0.185
0.16
0.19
0.205
0.195
0.18
0.19
0.175
0.165
0.195
0.15
0.175
0.17
0.2
0.185
0.18
0.175
0.175
0.175
0.175
0.2
0.165
0.165
0.195
0.18
0.185
0.17
0.195
0.185
0.21
0.225
0.215
0.245
0.235
0.245
0.255
0.25
0.255
0.235
0.255
0.255
0.26
0.255
0.255
0.24
0.255
0.26
0.255
0.235
0.215
0.23
0.21
0.195
0.18
0.165
0.165
0.16
0.15
0.145
0.145
0.14
0.155
0.12
0.15
0.14
0.14
0.14
0.145
0.15
0.135
0.145
0.145
0.145
0.14
0.15
0.15
0.16
0.14
0.125
0.15
0.155
0.155
0.16
0.15
0.14
0.14
0.135
0.155
0.145
0.15
0.16
0.24
0.27
0.34
0.4
0.46
0.56
0.64
0.685
0.7
0.74
0.82
0.72
0.575
0.385
0.32
0.21
0.09
0.015
-0.005
0.03
0.045
0.05
0.095
0.105
0.125
0.14
0.145
0.16
0.175
0.15
0.16
0.195
0.155
0.165
0.14
0.16
0.145
0.16
0.155
0.17
0.165
0.14
0.15
0.125
0.15
0.16
0.155
0.14
0.15
0.14
0.165
0.195
0.155
0.165
0.15
0.17
0.165
0.175
0.185
0.165
0.145
0.165
0.155
0.15
0.175
0.165
0.19
0.17
0.175
0.145
0.2
0.165
0.175
0.175
0.165
0.18
0.185
0.175
0.18
0.185
0.17
0.2
0.195
0.175
0.175
0.195
0.195
0.185
0.205
0.205
0.18
0.195
0.2
0.19
0.185
0.195
0.215
0.215
0.22
0.195
0.225
0.215
0.21
0.215
0.215
0.23
0.235
0.235
0.23
0.23
0.24
0.26
0.265
0.235
0.25
0.245
0.305
0.29
0.275
0.285
0.29
0.315
0.3
0.295
0.325
0.31
0.31
0.345
0.345
0.335
0.34
0.35
0.34
0.365
0.37
0.375
0.385
0.38
0.395
0.39
0.37
0.385
0.38
0.365
0.4
0.395
0.39
0.385
0.39
0.39
0.375
0.38
0.355
0.355
0.34
0.34
0.33
0.33
0.3
0.315
0.305
0.29
0.265
0.275
0.255
0.245
0.225
0.235
0.205
0.215
0.22
0.205
0.205
0.185
0.18
0.18
0.2
0.17
0.165
0.145
0.15
0.145
0.165
0.145
0.15
0.13
0.145
0.15
0.125
0.135
0.14
0.125
0.13
0.13
0.155
0.14
0.13
0.135
0.13
0.13
0.13
0.13
0.145
0.13
0.14
0.13
0.14
0.14
0.13
0.15
0.14
0.16
0.125
0.105
0.15
0.165
0.14
0.15
0.14
0.135
0.14
0.16
0.17
0.15
0.145
0.15
0.16
0.16
0.16
0.155
0.16
0.15
0.14
0.155
0.155
0.165
0.17
0.155
0.145
0.17
0.16
0.17
0.15
0.155
0.155
0.18
0.185
0.165
0.175
0.155
0.16
0.165
0.15
0.165
0.17
0.165
0.155
0.165
0.14
0.145
0.16
0.15
0.165
0.15
0.17
0.155
0.155
0.155
0.15
0.13
0.135
0.155
0.155
0.16
0.16
0.14
0.135
0.145
0.14
0.145
0.155
0.145
0.13
0.14
0.14
0.125
0.15
0.15
0.15
0.145
0.13
0.135
0.14
0.14
0.14
0.135
0.155
0.155
0.15
0.145
0.165
0.13
0.12
0.15
0.125
0.13
0.15
0.15
0.13
0.14
0.13
0.115
0.13
0.135
0.13
0.125
0.13
0.125
0.12
0.14
0.13
0.14
0.14
0.135
0.125
0.115
0.135
0.15
0.16
0.155
0.135
0.14
0.15
0.19
0.2
0.19
0.23
0.215
0.195
0.21
0.215
0.205
0.2
0.205
0.2
0.205
0.215
0.21
0.21
0.21
0.195
0.175
0.175
0.185
0.165
0.15
0.14
0.145
0.13
0.13
0.12
0.1
0.135
0.125
0.12
0.125
0.125
0.12
0.125
0.125
0.095
0.11
0.11
0.11
0.115
0.135
0.115
0.12
0.105
0.125
0.14
0.125
0.11
0.125
0.12
0.125
0.13
0.125
0.1
0.11
0.08
0.095
0.12
0.13
0.15
0.205
0.26
0.335
0.41
0.48
0.59
0.63
0.66
0.72
0.785
0.805
0.715
0.54
0.415
0.325
0.225
0.15
0.055
0.015
0.035
0.08
0.105
0.115
0.125
0.13
0.165
0.165
0.18
0.13
0.14
0.135
0.135
0.115
0.105
0.135
0.15
0.135
0.13
0.13
0.13
0.13
0.14
0.125
0.14
0.15
0.125
0.135
0.11
0.145
0.165
0.145
0.145
0.11
0.14
0.13
0.145
0.14
0.145
0.14
0.15
0.15
0.155
0.145
0.15
0.15
0.14
0.16
0.14
0.145
0.15
0.155
0.15
0.145
0.165
0.17
0.16
0.15
0.14
0.16
0.14
0.18
0.165
0.18
0.185
0.16
0.14
0.15
0.17
0.2
0.165
0.185
0.16
0.16
0.165
0.175
0.185
0.19
0.205
0.2
0.215
0.215
0.195
0.205
0.2
0.2
0.195
0.215
0.22
0.205
0.195
0.235
0.225
0.23
0.215
0.24
0.24
0.255
0.27
0.26
0.25
0.26
0.27
0.255
0.27
0.285
0.305
0.295
0.31
0.305
0.305
0.325
0.315
0.315
0.34
0.32
0.34
0.33
0.35
0.35
0.34
0.36
0.35
0.34
0.35
0.365
0.365
0.35
0.33
0.345
0.35
0.36
0.345
0.33
0.315
0.32
0.295
0.305
0.285
0.3
0.295
0.275
0.27
0.245
0.235
0.235
0.235
0.205
0.21
0.22
0.205
0.205
0.17
0.165
0.18
0.18
0.17
0.145
0.18
0.17
0.15
0.15
0.145
0.14
0.145
0.125
0.135
0.135
0.15
0.13
0.125
0.13
0.12
0.14
0.135
0.125
0.125
0.14
0.13
0.12
0.11
0.13
0.125
0.115
0.135
0.115
0.14
0.135
0.115
0.125
0.105
0.15
0.125
0.105
0.125
0.13
0.13
0.12
0.13
0.105
0.125
0.15
0.14
0.115
0.125
0.13
0.16
0.14
0.12
0.135
0.16
0.125
0.135
0.13
0.12
0.13
0.145
0.115
0.12
0.13
0.145
0.13
0.155
0.13
0.13
0.15
0.145
0.135
0.14
0.13
0.155
0.16
0.165
0.115
0.115
0.105
0.135
0.135
0.135
0.13
0.125
0.125
0.115
0.13
0.145
0.13
0.135
0.115
0.135
0.12
0.13
0.14
0.145
0.14
0.13
0.135
0.13
0.14
0.14
0.13
0.13
0.13
0.135
0.135
0.11
0.15
0.135
0.14
0.135
0.115
0.125
0.145
0.14
0.14
0.14
0.145
0.13
0.13
0.145
0.13
0.135
0.135
0.13
0.135
0.13
0.11
0.13
0.135
0.13
0.145
0.14
0.1
0.135
0.155
0.125
0.12
0.125
0.14
0.12
0.13
0.12
0.14
0.145
0.115
0.135
0.155
0.13
0.13
0.14
0.13
0.12
0.125
0.125
0.1
0.13
0.13
0.13
0.145
0.135
0.115
0.135
0.135
0.115
0.145
0.115
0.13
0.13
0.13
0.125
0.125
0.14
0.125
0.135
0.15
0.15
0.16
0.18
0.18
0.18
0.2
0.21
0.2
0.195
0.2
0.2
0.21
0.205
0.2
0.2
0.21
0.22
0.22
0.21
0.205
0.2
0.2
0.18
0.175
0.19
0.17
0.155
0.125
0.105
0.115
0.1
0.115
0.125
0.105
0.105
0.12
0.115
0.105
0.115
0.095
0.105
0.095
0.12
0.115
0.105
0.115
0.11
0.1
0.11
0.105
0.105
0.1
0.115
0.115
0.12
0.125
0.095
0.09
0.1
0.09
0.085
0.095
0.08
0.09
0.095
0.11
0.17
0.21
0.275
0.32
0.41
0.52
0.56
0.645
0.67
0.75
0.84
0.835
0.76
0.62
0.47
0.39
0.275
0.18
0.09
0.05
0.07
0.07
0.11
0.165
0.125
0.145
0.16
0.175
0.125
0.145
0.115
0.115
0.105
0.13
0.11
0.115
0.13
0.12
0.11
0.12
0.1
0.095
0.115
0.13
0.105
0.105
0.1
0.12
0.115
0.105
0.095
0.105
0.13
0.125
0.105
0.125
0.12
0.12
0.12
0.115
0.135
0.12
0.115
0.09
0.14
0.13
0.115
0.12
0.135
0.135
0.115
0.13
0.135
0.135
0.13
0.145
0.15
0.145
0.135
0.12
0.14
0.15
0.15
0.14
0.17
0.155
0.13
0.145
0.15
0.17
0.17
0.155
0.15
0.15
0.155
0.165
0.175
0.185
0.18
0.17
0.16
0.18
0.175
0.19
0.21
0.19
0.2
0.21
0.195
0.22
0.215
0.21
0.215
0.225
0.215
0.23
0.26
0.24
0.245
0.255
0.255
0.285
0.275
0.28
0.295
0.305
0.3
0.305
0.31
0.305
0.295
0.32
0.35
0.335
0.355
0.345
0.365
0.36
0.38
0.385
0.38
0.365
0.38
0.365
0.385
0.385
0.375
0.39
0.39
0.375
0.37
0.36
0.38
0.36
0.355
0.355
0.37
0.35
0.32
0.31
0.315
0.335
0.29
0.28
0.285
0.29
0.28
0.27
0.3
0.23
0.235
0.25
0.225
0.22
0.22
0.215
0.195
0.22
0.2
0.2
0.195
0.175
0.205
0.19
0.195
0.19
0.165
0.19
0.19
0.185
0.18
0.175
0.165
0.16
0.165
0.17
0.19
0.165
0.155
0.175
0.15
0.175
0.175
0.175
0.17
0.16
0.18
0.18
0.185
0.165
0.155
0.16
0.155
0.17
0.155
0.16
0.155
0.16
0.185
0.185
0.145
0.16
0.14
0.14
0.165
0.16
0.175
0.16
0.175
0.17
0.16
0.16
0.135
0.16
0.165
0.15
0.175
0.155
0.185
0.17
0.15
0.175
0.15
0.165
0.175
0.175
0.15
0.16
0.155
0.165
0.15
0.155
0.165
0.18
0.17
0.17
0.17
0.155
0.17
0.18
0.16
0.155
0.165
0.16
0.19
0.15
0.165
0.145
0.165
0.165
0.185
0.17
0.175
0.17
0.165
0.165
0.16
0.165
0.15
0.145
0.175
0.175
0.155
0.175
0.175
0.17
0.185
0.175
0.165
0.155
0.17
0.155
0.145
0.115
0.17
0.17
0.16
0.175
0.18
0.19
0.17
0.165
0.17
0.17
0.165
0.145
0.175
0.16
0.155
0.16
0.16
0.125
0.155
0.17
0.17
0.175
0.175
0.175
0.145
0.165
0.165
0.17
0.155
0.175
0.16
0.16
0.155
0.165
0.155
0.16
0.15
0.15
0.165
0.17
0.15
0.15
0.175
0.16
0.17
0.145
0.115
0.145
0.155
0.185
0.15
0.155
0.15
0.155
0.165
0.15
0.16
0.16
0.165
0.16
0.165
0.145
0.165
0.145
0.165
0.165
0.18
0.145
0.165
0.16
0.165
0.18
0.19
0.18
0.19
0.19
0.2
0.215
0.22
0.24
0.25
0.235
0.26
0.255
0.235
0.23
0.24
0.25
0.25
0.26
0.25
0.265
0.26
0.25
0.24
0.225
0.225
0.22
0.215
0.2
0.19
0.15
0.18
0.165
0.135
0.165
0.16
0.155
0.13
0.175
0.145
0.175
0.165
0.145
0.15
0.175
0.135
0.13
0.16
0.155
0.15
0.165
0.135
0.12
0.135
0.13
0.14
0.135
0.12
0.16
0.115
0.145
0.13
0.125
0.085
0.09
0.1
0.1
0.145
0.19
0.24
0.29
0.32
0.415
0.5
0.585
0.045
0.065
0.085
0.11
0.155
0.165
0.14
0.135
0.115
0.145
0.125
0.125
0.12
0.135
0.11
0.095
0.1
0.1
0.11
0.09
0.09
0.105
0.115
0.085
0.105
0.125
0.125
0.095
0.1
0.105
0.105
0.085
0.115
0.11
0.095
0.11
0.11
0.085
0.115
0.125
0.11
0.115
0.105
0.125
0.12
0.085
0.1
0.13
0.11
0.11
0.1
0.11
0.125
0.115
0.095
0.14
0.11
0.125
0.105
0.135
0.15
0.11
0.12
0.125
0.13
0.12
0.125
0.125
0.125
0.135
0.125
0.13
0.15
0.16
0.155
0.12
0.125
0.11
0.13
0.14
0.155
0.16
0.155
0.145
0.15
0.155
0.16
0.175
0.17
0.16
0.175
0.175
0.18
0.2
0.185
0.175
0.2
0.215
0.19
0.2
0.22
0.225
0.25
0.225
0.25
0.24
0.245
0.26
0.255
0.27
0.275
0.27
0.305
0.315
0.3
0.3
0.32
0.31
0.3
0.315
0.32
0.34
0.335
0.34
0.33
0.33
0.33
0.335
0.345
0.33
0.33
0.315
0.315
0.34
0.33
0.305
0.305
0.295
0.3
0.285
0.26
0.275
0.28
0.255
0.24
0.24
0.25
0.22
0.22
0.215
0.215
0.21
0.2
0.205
0.17
0.175
0.195
0.17
0.17
0.18
0.155
0.175
0.19
0.16
0.14
0.165
0.16
0.155
0.13
0.175
0.18
0.15
0.145
0.165
0.16
0.15
0.155
0.165
0.155
0.15
0.165
0.155
0.155
0.165
0.15
0.135
0.155
0.155
0.165
0.16
0.16
0.155
0.145
0.155
0.14
0.155
0.16
0.16
0.14
0.16
0.17
0.17
0.155
0.14
0.12
0.14
0.165
0.16
0.16
0.155
0.155
0.16
0.175
0.16
0.175
0.17
0.145
0.14
0.145
0.16
0.16
0.17
0.175
0.165
0.17
0.16
0.17
0.17
0.16
0.16
0.165
0.18
0.16
0.155
0.15
0.18
0.17
0.17
0.155
0.175
0.155
0.175
0.165
0.155
0.175
0.17
0.17
0.185
0.16
0.135
0.17
0.17
0.18
0.175
0.195
0.18
0.17
0.17
0.17
0.19
0.17
0.18
0.18
0.175
0.18
0.175
0.18
0.165
0.18
0.165
0.165
0.17
0.18
0.19
0.195
0.19
0.185
0.165
0.175
0.17
0.175
0.17
0.19
0.19
0.165
0.18
0.17
0.16
0.18
0.18
0.19
0.17
0.19
0.175
0.18
0.19
0.17
0.17
0.17
0.18
0.195
0.2
0.175
0.185
0.185
0.19
0.17
0.185
0.175
0.175
0.19
0.185
0.185
0.185
0.195
0.205
0.19
0.185
0.175
0.215
0.195
0.21
0.19
0.225
0.23
0.215
0.215
0.255
0.27
0.27
0.27
0.28
0.26
0.245
0.275
0.26
0.26
0.27
0.27
0.285
0.275
0.265
0.255
0.25
0.24
0.23
0.245
0.24
0.21
0.195
0.185
0.185
0.16
0.18
0.16
0.175
0.185
0.165
0.155
0.165
0.16
0.15
0.165
0.16
0.155
0.15
0.16
0.155
0.165
0.17
0.165
0.16
0.185
0.15
0.16
0.16
0.145
0.175
0.195
0.185
0.18
0.125
0.175
0.135
0.14
0.155
0.19
0.205
0.235
0.305
0.36
0.46
0.545
0.625
0.71
0.74
0.825
0.87
0.925
0.825
0.685
0.525
0.405
0.31
0.215
0.115
0.04
0.095
0.13
0.15
0.19
0.21
0.22
0.2
0.19
0.215
0.18
0.175
0.17
0.19
0.225
0.21
0.19
0.21
0.185
0.175
0.165
0.205
0.195
0.19
0.185
0.185
0.19
0.195
0.2
0.2
0.195
0.205
0.21
0.185
0.195
0.19
0.195
0.18
0.19
0.19
0.19
0.205
0.195
0.2
0.205
0.22
0.18
0.19
0.215
0.2
0.215
0.205
0.21
0.205
0.205
0.2
0.215
0.2
0.2
0.205
0.185
0.205
0.22
0.22
0.215
0.205
0.2
0.215
0.22
0.215
0.22
0.21
0.215
0.22
0.215
0.215
0.24
0.245
0.235
0.22
0.235
0.235
0.24
0.245
0.28
0.25
0.25
0.24
0.24
0.26
0.255
0.27
0.265
0.28
0.3
0.28
0.26
0.26
0.285
0.31
0.325
0.31
0.335
0.325
0.33
0.33
0.345
0.355
0.35
0.365
0.355
0.375
0.35
0.355
0.39
0.39
0.39
0.4
0.39
0.4
0.42
0.425
0.405
0.415
0.425
0.43
0.41
0.43
0.43
0.42
0.415
0.41
0.41
0.4
0.405
0.375
0.38
0.39
0.37
0.34
0.34
0.345
0.31
0.34
0.325
0.32
0.28
0.285
0.28
0.25
0.26
0.265
0.265
0.235
0.205
0.235
0.24
0.235
0.225
0.215
0.205
0.19
0.205
0.225
0.215
0.205
0.185
0.21
0.195
0.195
0.205
0.205
0.18
0.18
0.215
0.215
0.2
0.185
0.195
0.175
0.2
0.215
0.195
0.21
0.215
0.19
0.17
0.175
0.19
0.195
0.17
0.2
0.22
0.185
0.2
0.17
0.17
0.195
0.18
0.175
0.195
0.17
0.205
0.21
0.195
0.19
0.19
0.17
0.175
0.215
0.195
0.2
0.2
0.225
0.195
0.18
0.205
0.185
0.19
0.195
0.195
0.18
0.19
0.205
0.185
0.19
0.2
0.195
0.19
0.2
0.19
0.185
0.175
0.19
0.2
0.19
0.185
0.21
0.21
0.195
0.2
0.19
0.19
0.205
0.19
0.185
0.2
0.17
0.195
0.2
0.2
0.205
0.19
0.185
0.185
0.185
0.185
0.2
0.18
0.195
0.205
0.17
0.19
0.2
0.2
0.185
0.18
0.185
0.175
0.165
0.19
0.165
0.19
0.175
0.18
0.205
0.175
0.195
0.185
0.195
0.2
0.18
0.18
0.19
0.175
0.175
0.17
0.15
0.185
0.19
0.195
0.175
0.185
0.185
0.17
0.17
0.175
0.175
0.185
0.18
0.19
0.18
0.195
0.14
0.16
0.19
0.19
0.19
0.185
0.175
0.155
0.16
0.18
0.175
0.165
0.175
0.18
0.175
0.17
0.16
0.16
0.16
0.16
0.17
0.175
0.17
0.17
0.16
0.17
0.17
0.165
0.155
0.165
0.16
0.185
0.16
0.17
0.17
0.165
0.155
0.155
0.15
0.155
0.175
0.18
0.16
0.165
0.17
0.17
0.175
0.175
0.155
0.15
0.175
0.175
0.17
0.185
0.195
0.205
0.215
0.235
0.24
0.235
0.25
0.235
0.23
0.23
0.25
0.225
0.21
0.215
0.255
0.265
0.25
0.225
0.245
0.25
0.215
0.21
0.195
0.215
0.22
0.18
0.165
0.16
0.13
0.13
0.13
0.14
0.13
0.145
0.14
0.155
0.12
0.14
0.13
0.14
0.13
0.15
0.125
0.14
0.155
0.15
0.125
0.11
0.14
0.14
0.12
0.13
0.155
0.135
0.14
0.165
0.15
0.13
0.135
0.125
0.105
0.09
0.1
0.115
0.15
0.22
0.275
0.305
0.375
0.455
0.555
0.645
0.715
0.74
0.805
0.9
0.865
0.79
0.635
0.47
0.365
0.26
0.185
0.06
0.05
0.075
0.11
0.115
0.17
0.16
0.155
0.18
0.18
0.15
0.14
0.16
0.15
0.145
0.155
0.13
0.15
0.12
0.135
0.145
0.155
0.15
0.14
0.115
0.135
0.145
0.15
0.14
0.145
0.145
0.13
0.16
0.15
0.155
0.145
0.15
0.14
0.155
0.175
0.17
0.14
0.15
0.155
0.165
0.175
0.145
0.165
0.17
0.17
0.155
0.17
0.16
0.17
0.18
0.17
0.185
0.155
0.185
0.16
0.165
0.165
0.165
0.14
0.185
0.16
0.18
0.18
0.17
0.185
0.15
0.18
0.18
0.165
0.185
0.2
0.18
0.18
0.165
0.2
0.185
0.2
0.19
0.195
0.185
0.185
0.185
0.205
0.2
0.205
0.19
0.205
0.215
0.205
0.21
0.235
0.225
0.225
0.225
0.26
0.245
0.25
0.25
0.245
0.24
0.285
0.255
0.265
0.285
0.31
0.29
0.285
0.31
0.325
0.315
0.325
0.315
0.335
0.335
0.34
0.345
0.34
0.355
0.365
0.335
0.35
0.355
0.38
0.365
0.37
0.35
0.355
0.35
0.35
0.35
0.345
0.34
0.34
0.325
0.325
0.295
0.295
0.315
0.285
0.265
0.255
0.275
0.25
0.25
0.25
0.235
0.21
0.215
0.21
0.16
0.19
0.195
0.185
0.18
0.19
0.19
0.18
0.165
0.16
0.17
0.17
0.145
0.155
0.17
0.145
0.145
0.17
0.17
0.15
0.145
0.135
0.135
0.16
0.165
0.15
0.175
0.155
0.15
0.135
0.16
0.17
0.145
0.135
0.16
0.15
0.155
0.16
0.155
0.135
0.125
0.145
0.14
0.15
0.145
0.14
0.155
0.15
0.155
0.13
0.125
0.14
0.145
0.13
0.115
0.15
0.15
0.135
0.14
0.13
0.135
0.14
0.12
0.165
0.16
0.125
0.15
0.13
0.14
0.1
0.15
0.15
0.14
0.13
0.12
0.14
0.155
0.16
0.12
0.12
0.155
0.155
0.14
0.115
0.13
0.12
0.135
0.135
0.13
0.13
0.145
0.15
0.125
0.115
0.135
0.125
0.135
0.135
0.145
0.145
0.125
0.13
0.145
0.135
0.115
0.13
0.165
0.13
0.155
0.13
0.13
0.13
0.115
0.145
0.135
0.13
0.16
0.145
0.165
0.14
0.16
0.135
0.135
0.15
0.145
0.14
0.145
0.135
0.15
0.155
0.15
0.135
0.165
0.155
0.14
0.15
0.155
0.155
0.145
0.16
0.155
0.155
0.16
0.165
0.155
0.14
0.155
0.18
0.14
0.145
0.125
0.145
0.175
0.155
0.145
0.175
0.175
0.16
0.155
0.14
0.155
0.14
0.18
0.165
0.155
0.155
0.16
0.16
0.14
0.165
0.16
0.155
0.145
0.145
0.15
0.135
0.175
0.155
0.15
0.15
0.145
0.165
0.16
0.14
0.145
0.145
0.14
0.16
0.125
0.145
0.135
0.14
0.165
0.15
0.145
0.17
0.15
0.125
0.13
0.14
0.15
0.14
0.155
0.16
0.14
0.15
0.145
0.14
0.165
0.155
0.15
0.16
0.14
0.13
0.165
0.165
0.16
0.16
0.16
0.16
0.165
0.18
0.17
0.16
0.16
0.185
0.195
0.205
0.195
0.18
0.22
0.245
0.235
0.24
0.245
0.255
0.24
0.24
0.225
0.245
0.24
0.22
0.245
0.235
0.25
0.245
0.245
0.23
0.22
0.175
0.185
0.195
0.18
0.17
0.145
0.12
0.11
0.13
0.13
0.13
0.145
0.115
0.13
0.13
0.12
0.11
0.11
0.125
0.12
0.125
0.12
0.12
0.125
0.115
0.105
0.115
0.125
0.125
0.11
0.125
0.13
0.13
0.135
0.13
0.15
0.155
0.1
0.125
0.085
0.1
0.11
0.12
0.14
0.18
0.275
0.32
0.385
0.475
0.535
0.685
0.73
0.76
0.825
0.885
0.9
0.795
0.615
0.455
0.375
0.27
0.18
0.095
0.065
0.115
0.14
0.18
0.19
0.21
0.2
0.19
0.2
0.215
0.21
0.215
0.21
0.175
0.19
0.195
0.205
0.18
0.17
0.175
0.185
0.2
0.19
0.175
0.175
0.2
0.215
0.175
0.175
0.185
0.19
0.205
0.2
0.2
0.185
0.21
0.19
0.2
0.195
0.185
0.195
0.215
0.205
0.21
0.215
0.19
0.195
0.205
0.2
0.22
0.235
0.195
0.17
0.21
0.225
0.21
0.215
0.21
0.2
0.205
0.2
0.21
0.225
0.23
0.21
0.22
0.205
0.205
0.215
0.21
0.22
0.23
0.22
0.24
0.23
0.22
0.24
0.24
0.23
0.23
0.23
0.235
0.24
0.245
0.245
0.24
0.265
0.255
0.26
0.265
0.27
0.275
0.28
0.265
0.28
0.29
0.295
0.29
0.295
0.3
0.295
0.33
0.305
0.305
0.32
0.32
0.34
0.33
0.34
0.345
0.35
0.355
0.385
0.385
0.37
0.365
0.4
0.405
0.395
0.405
0.415
0.435
0.42
0.395
0.42
0.42
0.435
0.43
0.435
0.46
0.455
0.475
0.475
0.47
0.495
0.49
0.5
0.485
0.485
0.485
0.475
0.47
0.485
0.475
0.445
0.44
0.45
0.445
0.44
0.41
0.41
0.425
0.425
0.425
0.375
0.395
0.39
0.39
0.355
0.38
0.37
0.36
0.39
0.38
0.37
0.35
0.35
0.355
0.345
0.365
0.355
0.345
0.355
0.35
0.335
0.34
0.36
0.34
0.335
0.345
0.365
0.37
0.375
0.33
0.355
0.34
0.335
0.33
0.335
0.34
0.335
0.35
0.345
0.325
0.325
0.335
0.35
0.325
0.345
0.355
0.34
0.335
0.35
0.33
0.32
0.335
0.33
0.325
0.35
0.335
0.345
0.34
0.325
0.33
0.325
0.31
0.335
0.31
0.335
0.325
0.325
0.35
0.33
0.305
0.33
0.315
0.325
0.31
0.305
0.325
0.33
0.335
0.34
0.325
0.305
0.31
0.31
0.33
0.32
0.32
0.33
0.305
0.32
0.305
0.31
0.315
0.3
0.32
0.31
0.3
0.32
0.315
0.305
0.29
0.305
0.3
0.275
0.32
0.3
0.305
0.345
0.32
0.305
0.265
0.3
0.295
0.295
0.3
0.305
0.295
0.305
0.325
0.31
0.295
0.295
0.27
0.28
0.29
0.295
0.305
0.295
0.295
0.295
0.305
0.3
0.285
0.285
0.305
0.31
0.3
0.275
0.295
0.285
0.315
0.27
0.26
0.3
0.3
0.295
0.275
0.275
0.285
0.28
0.305
0.285
0.295
0.28
0.295
0.3
0.275
0.28
0.275
0.29
0.28
0.275
0.28
0.27
0.28
0.28
0.29
0.275
0.29
0.27
0.26
0.275
0.28
0.26
0.265
0.285
0.28
0.27
0.265
0.26
0.265
0.27
0.245
0.245
0.255
0.275
0.25
0.275
0.27
0.26
0.26
0.26
0.245
0.26
0.27
0.265
0.265
0.245
0.25
0.255
0.255
0.235
0.225
0.255
0.29
0.28
0.25
0.25
0.26
0.265
0.255
0.26
0.245
0.255
0.26
0.25
0.255
0.275
0.23
0.245
0.255
0.27
0.265
0.275
0.27
0.26
0.27
0.285
0.26
0.275
0.28
0.285
0.31
0.32
0.33
0.31
0.34
0.365
0.36
0.34
0.345
0.325
0.33
0.345
0.355
0.35
0.37
0.37
0.345
0.335
0.365
0.335
0.325
0.32
0.3
0.28
0.285
0.27
0.25
0.245
0.25
0.21
0.235
0.245
0.23
0.235
0.26
0.245
0.215
0.235
0.235
0.225
0.23
0.21
0.235
0.235
0.24
0.235
0.225
0.215
0.22
0.225
0.22
0.21
0.225
0.21
0.235
0.24
0.205
0.225
0.21
0.215
0.17
0.18
0.205
0.235
0.255
0.325
0.385
0.43
0.505
0.605
0.705
0.775
0.81
0.89
0.93
0.98
0.9
0.765
0.59
0.485
0.4
0.3
0.19
0.12
0.165
0.18
0.2
0.245
0.255
0.25
0.275
0.28
0.245
0.26
0.235
0.25
0.24
0.24
0.24
0.215
0.255
0.23
0.24
0.24
0.26
0.235
0.225
0.245
0.24
0.24
0.245
0.255
0.255
0.225
0.225
0.235
0.245
0.235
0.26
0.25
0.225
0.24
0.235
0.26
0.245
0.255
0.235
0.26
0.265
0.255
0.245
0.25
0.25
0.235
0.24
0.27
0.27
0.265
0.255
0.225
0.26
0.255
0.265
0.26
0.26
0.27
0.265
0.27
0.26
0.265
0.26
0.285
0.275
0.285
0.27
0.28
0.26
0.27
0.275
0.28
0.27
0.29
0.285
0.285
0.295
0.29
0.305
0.295
0.285
0.32
0.29
0.31
0.305
0.31
0.305
0.31
0.31
0.315
0.33
0.3
0.315
0.35
0.355
0.335
0.365
0.34
0.375
0.36
0.355
0.38
0.38
0.385
0.4
0.39
0.385
0.385
0.4
0.4
0.41
0.43
0.42
0.455
0.44
0.415
0.465
0.44
0.435
0.455
0.435
0.415
0.455
0.45
0.44
0.44
0.44
0.445
0.44
0.425
0.415
0.425
0.415
0.41
0.395
0.4
0.385
0.395
0.38
0.35
0.355
0.345
0.345
0.33
0.32
0.33
0.305
0.3
0.295
0.275
0.275
0.255
0.265
0.275
0.26
0.25
0.255
0.23
0.24
0.245
0.245
0.23
0.23
0.195
0.21
0.26
0.225
0.225
0.225
0.215
0.235
0.235
0.21
0.205
0.21
0.23
0.205
0.215
0.225
0.21
0.215
0.23
0.225
0.19
0.195
0.21
0.205
0.19
0.22
0.205
0.195
0.22
0.225
0.22
0.225
0.22
0.22
0.23
0.225
0.22
0.2
0.235
0.235
0.235
0.225
0.245
0.23
0.245
0.225
0.225
0.24
0.23
0.23
0.205
0.235
0.215
0.225
0.225
0.225
0.23
0.21
0.215
0.24
0.23
0.24
0.22
0.215
0.24
0.23
0.22
0.21
0.215
0.24
0.245
0.24
0.23
0.21
0.215
0.21
0.215
0.22
0.22
0.22
0.205
0.225
0.21
0.21
0.2
0.21
0.22
0.215
0.21
0.205
0.215
0.23
0.18
0.21
0.205
0.215
0.215
0.2
0.21
0.2
0.2
0.2
0.195
0.185
0.2
0.18
0.2
0.185
0.2
0.195
0.21
0.185
0.18
0.195
0.18
0.18
0.195
0.195
0.19
0.19
0.2
0.19
0.195
0.205
0.195
0.19
0.19
0.185
0.18
0.18
0.185
0.205
0.18
0.175
0.195
0.2
0.19
0.2
0.205
0.185
0.185
0.195
0.195
0.195
0.19
0.18
0.18
0.155
0.225
0.2
0.185
0.2
0.195
0.215
0.2
0.185
0.19
0.175
0.19
0.2
0.205
0.18
0.19
0.195
0.185
0.19
0.19
0.185
0.195
0.205
0.2
0.2
0.21
0.185
0.185
0.19
0.2
0.215
0.19
0.175
0.175
0.2
0.205
0.2
0.195
0.185
0.185
0.21
0.19
0.185
0.19
0.215
0.2
0.185
0.205
0.2
0.19
0.18
0.205
0.2
0.215
0.235
0.22
0.21
0.245
0.255
0.26
0.25
0.26
0.26
0.265
0.28
0.275
0.265
0.295
0.27
0.255
0.265
0.275
0.275
0.285
0.265
0.225
0.225
0.235
0.235
0.225
0.2
0.18
0.175
0.195
0.19
0.14
0.145
0.185
0.195
0.175
0.15
0.165
0.17
0.17
0.155
0.165
0.155
0.15
0.17
0.17
0.145
0.165
0.175
0.195
0.17
0.15
0.17
0.165
0.155
0.155
0.135
0.19
0.17
0.175
0.17
0.175
0.18
0.19
0.24
0.285
0.355
0.435
0.475
0.58
0.665
0.71
0.735
0.785
0.865
0.795
0.635
0.44
0.365
0.25
0.16
0.03
0.005
0.02
0.025
0.095
0.11
0.135
0.125
0.17
0.175
0.155
0.17
0.16
0.195
0.195
0.185
0.185
0.185
0.19
0.17
0.16
0.175
0.175
0.175
0.195
0.17
0.175
0.19
0.185
0.18
0.145
0.185
0.19
0.155
0.175
0.18
0.195
0.165
0.18
0.19
0.195
0.175
0.17
0.19
0.185
0.16
0.165
0.18
0.21
0.2
0.205
0.175
0.185
0.175
0.185
0.21
0.215
0.205
0.195
0.19
0.195
0.19
0.19
0.21
0.195
0.19
0.19
0.205
0.215
0.2
0.2
0.215
0.21
0.205
0.24
0.215
0.215
0.225
0.23
0.225
0.23
0.24
0.25
0.23
0.24
0.225
0.23
0.245
0.275
0.27
0.255
0.26
0.26
0.265
0.295
0.285
0.265
0.265
0.305
0.31
0.3
0.31
0.31
0.31
0.315
0.335
0.34
0.325
0.335
0.355
0.37
0.365
0.355
0.36
0.395
0.39
0.4
0.385
0.385
0.4
0.42
0.415
0.415
0.4
0.415
0.425
0.42
0.415
0.43
0.435
0.42
0.395
0.425
0.435
0.405
0.405
0.42
0.405
0.39
0.375
0.385
0.38
0.355
0.35
0.35
0.32
0.32
0.335
0.315
0.3
0.285
0.265
0.27
0.245
0.255
0.23
0.23
0.235
0.215
0.225
0.205
0.215
0.2
0.205
0.205
0.205
0.2
0.18
0.18
0.195
0.185
0.18
0.175
0.155
0.155
0.175
0.19
0.18
0.18
0.17
0.165
0.145
0.155
0.17
0.17
0.155
0.17
0.195
0.19
0.165
0.14
0.155
0.175
0.18
0.175
0.17
0.165
0.185
0.18
0.185
0.18
0.18
0.15
0.175
0.19
0.19
0.19
0.19
0.195
0.195
0.175
0.19
0.185
0.17
0.2
0.185
0.185
0.195
0.18
0.195
0.205
0.18
0.185
0.185
0.175
0.21
0.185
0.19
0.195
0.185
0.185
0.19
0.195
0.205
0.18
0.2
0.205
0.16
0.185
0.18
0.19
0.17
0.195
0.19
0.185
0.18
0.165
0.185
0.195
0.18
0.185
0.185
0.17
0.19
0.18
0.185
0.18
0.185
0.155
0.17
0.18
0.18
0.17
0.175
0.195
0.18
0.175
0.175
0.17
0.17
0.165
0.18
0.18
0.17
0.185
0.185
0.175
0.17
0.18
0.165
0.16
0.17
0.18
0.175
0.18
0.175
0.17
0.165
0.155
0.195
0.165
0.165
0.165
0.165
0.155
0.17
0.14
0.16
0.175
0.175
0.165
0.165
0.175
0.18
0.17
0.16
0.165
0.165
0.19
0.175
0.17
0.155
0.175
0.17
0.16
0.18
0.17
0.185
0.17
0.165
0.17
0.165
0.15
0.17
0.185
0.16
0.16
0.155
0.155
0.17
0.16
0.14
0.16
0.165
0.175
0.15
0.15
0.165
0.17
0.17
0.17
0.175
0.155
0.15
0.165
0.16
0.145
0.155
0.14
0.155
0.14
0.16
0.16
0.145
0.145
0.145
0.13
0.155
0.145
0.155
0.165
0.16
0.17
0.165
0.21
0.17
0.18
0.185
0.21
0.22
0.235
0.255
0.245
0.24
0.235
0.24
0.24
0.245
0.25
0.26
0.24
0.26
0.255
0.255
0.265
0.27
0.255
0.23
0.21
0.21
0.23
0.205
0.195
0.17
0.165
0.165
0.165
0.135
0.195
0.185
0.17
0.165
0.16
0.19
0.175
0.175
0.16
0.165
0.145
0.17
0.165
0.155
0.175
0.165
0.17
0.185
0.175
0.17
0.155
0.18
0.16
0.165
0.18
0.155
0.15
0.155
0.145
0.16
0.2
0.215
0.245
0.34
0.4
0.49
0.565
0.65
0.715
0.74
0.79
0.865
0.88
0.795
0.6
0.455
0.39
0.29
0.205
0.065
0.07
0.105
0.09
0.15
0.19
0.175
0.195
0.18
0.185
0.2
0.18
0.18
0.16
0.165
0.155
0.16
0.16
0.16
0.165
0.15
0.165
0.175
0.155
0.15
0.17
0.165
0.185
0.16
0.155
0.16
0.185
0.18
0.175
0.165
0.165
0.185
0.16
0.17
0.18
0.175
0.18
0.185
0.18
0.195
0.175
0.165
0.195
0.2
0.19
0.18
0.2
0.195
0.185
0.19
0.205
0.195
0.21
0.22
0.19
0.19
0.2
0.2
0.21
0.22
0.225
0.205
0.225
0.235
0.215
0.23
0.2
0.22
0.22
0.205
0.245
0.245
0.235
0.24
0.24
0.235
0.25
0.245
0.24
0.26
0.26
0.255
0.265
0.265
0.275
0.275
0.29
0.28
0.275
0.315
0.295
0.29
0.285
0.295
0.31
0.31
0.295
0.315
0.315
0.305
0.355
0.355
0.33
0.355
0.345
0.335
0.345
0.37
0.375
0.39
0.39
0.38
0.375
0.395
0.395
0.41
0.41
0.41
0.405
0.395
0.405
0.41
0.44
0.41
0.425
0.41
0.415
0.4
0.41
0.415
0.415
0.415
0.425
0.38
0.385
0.385
0.365
0.365
0.385
0.35
0.36
0.335
0.345
0.325
0.32
0.31
0.31
0.29
0.285
0.275
0.26
0.275
0.275
0.28
0.28
0.245
0.25
0.23
0.245
0.24
0.25
0.22
0.225
0.245
0.21
0.21
0.235
0.23
0.21
0.225
0.205
0.23
0.225
0.22
0.23
0.22
0.22
0.185
0.21
0.22
0.205
0.21
0.23
0.21
0.21
0.21
0.215
0.21
0.215
0.22
0.22
0.225
0.205
0.2
0.21
0.205
0.225
0.22
0.19
0.205
0.225
0.22
0.185
0.205
0.2
0.2
0.22
0.21
0.19
0.2
0.23
0.24
0.215
0.195
0.215
0.21
0.21
0.205
0.215
0.195
0.21
0.205
0.225
0.21
0.21
0.215
0.2
0.19
0.195
0.215
0.195
0.21
0.205
0.195
0.195
0.2
0.185
0.19
0.21
0.195
0.175
0.205
0.195
0.185
0.165
0.19
0.175
0.185
0.195
0.185
0.185
0.185
0.17
0.17
0.205
0.18
0.165
0.16
0.18
0.18
0.17
0.17
0.175
0.18
0.175
0.16
0.16
0.15
0.17
0.16
0.17
0.17
0.17
0.175
0.175
0.15
0.175
0.16
0.16
0.16
0.165
0.155
0.18
0.16
0.14
0.14
0.145
0.16
0.145
0.18
0.18
0.17
0.15
0.15
0.14
0.16
0.155
0.15
0.18
0.175
0.175
0.155
0.17
0.155
0.195
0.18
0.15
0.14
0.145
0.17
0.165
0.15
0.17
0.16
0.17
0.15
0.145
0.16
0.17
0.14
0.16
0.17
0.15
0.14
0.15
0.16
0.16
0.16
0.175
0.145
0.19
0.17
0.155
0.165
0.14
0.155
0.175
0.14
0.17
0.16
0.15
0.16
0.155
0.15
0.15
0.165
0.19
0.165
0.14
0.145
0.185
0.17
0.165
0.13
0.155
0.155
0.155
0.17
0.15
0.14
0.16
0.15
0.16
0.175
0.16
0.16
0.165
0.17
0.165
0.155
0.145
0.165
0.165
0.165
0.185
0.185
0.185
0.2
0.21
0.24
0.24
0.25
0.235
0.23
0.24
0.23
0.25
0.235
0.245
0.23
0.25
0.25
0.24
0.24
0.235
0.23
0.2
0.205
0.23
0.215
0.19
0.195
0.165
0.145
0.12
0.145
0.145
0.13
0.155
0.175
0.14
0.125
0.145
0.14
0.14
0.135
0.145
0.16
0.15
0.145
0.145
0.135
0.145
0.12
0.145
0.14
0.15
0.155
0.155
0.14
0.14
0.135
0.105
0.12
0.13
0.12
0.155
0.14
0.18
0.24
0.305
0.355
0.435
0.51
0.6
0.66
0.71
0.77
0.825
0.845
0.8
0.665
0.485
0.405
0.305
0.225
0.11
0.045
0.05
0.075
0.13
0.175
0.18
0.18
0.18
0.16
0.17
0.165
0.16
0.16
0.155
0.165
0.135
0.145
0.155
0.165
0.135
0.135
0.155
0.175
0.16
0.17
0.145
0.165
0.15
0.135
0.145
0.175
0.17
0.175
0.16
0.17
0.145
0.15
0.125
0.185
0.175
0.165
0.15
0.165
0.19
0.18
0.145
0.17
0.175
0.165
0.165
0.165
0.17
0.185
0.185
0.155
0.17
0.185
0.175
0.185
0.205
0.185
0.165
0.175
0.175
0.19
0.18
0.195
0.19
0.175
0.185
0.215
0.19
0.195
0.22
0.205
0.21
0.205
0.205
0.21
0.2
0.22
0.235
0.22
0.22
0.215
0.21
0.205
0.23
0.235
0.24
0.23
0.23
0.26
0.245
0.255
0.25
0.285
0.26
0.26
0.26
0.28
0.26
0.28
0.29
0.29
0.28
0.31
0.29
0.31
0.32
0.325
0.335
0.33
0.335
0.355
0.355
0.35
0.355
0.35
0.36
0.38
0.375
0.36
0.37
0.38
0.365
0.385
0.36
0.385
0.38
0.38
0.385
0.37
0.395
0.385
0.365
0.38
0.355
0.325
0.355
0.355
0.34
0.335
0.33
0.32
0.29
0.3
0.29
0.27
0.285
0.27
0.25
0.265
0.26
0.235
0.23
0.245
0.23
0.23
0.205
0.21
0.215
0.2
0.2
0.2
0.205
0.2
0.18
0.17
0.195
0.18
0.175
0.195
0.185
0.185
0.205
0.19
0.18
0.18
0.17
0.18
0.18
0.195
0.18
0.16
0.17
0.185
0.175
0.175
0.185
0.185
0.17
0.19
0.215
0.18
0.205
0.175
0.185
0.195
0.205
0.205
0.2
0.19
0.165
0.18
0.195
0.2
0.2
0.195
0.205
0.205
0.195
0.205
0.195
0.19
0.18
0.2
0.19
0.19
0.2
0.185
0.19
0.205
0.2
0.19
0.185
0.2
0.185
0.185
0.19
0.19
0.22
0.195
0.2
0.2
0.19
0.175
0.195
0.2
0.205
0.18
0.21
0.195
0.19
0.165
0.185
0.22
0.215
0.205
0.175
0.19
0.205
0.21
0.2
0.18
0.19
0.175
0.17
0.19
0.2
0.19
0.205
0.195
0.19
0.19
0.185
0.18
0.205
0.225
0.17
0.175
0.215
0.205
0.165
0.17
0.185
0.175
0.185
0.18
0.155
0.16
0.185
0.205
0.18
0.175
0.195
0.195
0.185
0.165
0.19
0.185
0.155
0.18
0.165
0.16
0.19
0.185
0.18
0.18
0.175
0.175
0.175
0.175
0.19
0.185
0.175
0.185
0.165
0.155
0.17
0.16
0.19
0.205
0.175
0.16
0.155
0.16
0.185
0.165
0.155
0.15
0.17
0.17
0.19
0.175
0.17
0.155
0.165
0.175
0.165
0.17
0.185
0.18
0.17
0.175
0.155
0.16
0.17
0.175
0.17
0.165
0.17
0.17
0.14
0.155
0.17
0.18
0.16
0.17
0.165
0.17
0.18
0.165
0.16
0.16
0.155
0.155
0.155
0.16
0.18
0.155
0.175
0.135
0.145
0.145
0.16
0.16
0.155
0.145
0.165
0.17
0.17
0.145
0.15
0.17
0.16
0.16
0.165
0.185
0.165
0.17
0.18
0.165
0.18
0.16
0.175
0.19
0.21
0.2
0.2
0.23
0.25
0.245
0.24
0.26
0.235
0.21
0.23
0.215
0.23
0.255
0.275
0.27
0.255
0.25
0.225
0.24
0.215
0.215
0.195
0.185
0.21
0.16
0.16
0.14
0.145
0.135
0.15
0.145
0.15
0.145
0.145
0.155
0.145
0.14
0.135
0.14
0.145
0.15
0.165
0.17
0.145
0.135
0.145
0.14
0.155
0.175
0.15
0.14
0.145
0.15
0.155
0.15
0.16
0.145
0.12
0.125
0.125
0.14
0.165
0.255
0.33
0.38
0.455
0.55
0.625
0.69
0.735
0.8
0.87
0.875
0.79
0.625
0.46
0.37
0.3
0.205
0.095
0.03
0.065
0.09
0.145
0.16
0.165
0.165
0.17
0.19
0.165
0.165
0.17
0.175
0.175
0.155
0.16
0.18
0.135
0.14
0.155
0.145
0.145
0.165
0.17
0.145
0.16
0.15
0.16
0.145
0.16
0.16
0.165
0.18
0.145
0.15
0.15
0.16
0.17
0.175
0.17
0.17
0.175
0.15
0.165
0.15
0.175
0.17
0.185
0.175
0.18
0.17
0.16
0.18
0.155
0.18
0.18
0.16
0.165
0.195
0.165
0.175
0.185
0.185
0.165
0.19
0.175
0.18
0.175
0.165
0.18
0.185
0.2
0.19
0.195
0.21
0.175
0.205
0.19
0.195
0.195
0.195
0.21
0.205
0.22
0.21
0.2
0.205
0.215
0.205
0.235
0.24
0.255
0.235
0.245
0.255
0.23
0.25
0.245
0.255
0.26
0.25
0.265
0.26
0.275
0.265
0.29
0.295
0.29
0.315
0.305
0.295
0.325
0.33
0.32
0.33
0.32
0.335
0.325
0.355
0.345
0.365
0.35
0.37
0.345
0.35
0.36
0.36
0.36
0.37
0.38
0.35
0.365
0.375
0.37
0.345
0.34
0.325
0.33
0.33
0.33
0.35
0.34
0.315
0.285
0.28
0.285
0.255
0.26
0.265
0.255
0.23
0.23
0.225
0.22
0.22
0.2
0.2
0.215
0.175
0.185
0.19
0.18
0.18
0.165
0.17
0.17
0.16
0.18
0.155
0.185
0.155
0.165
0.15
0.13
0.155
0.155
0.15
0.15
0.16
0.165
0.16
0.145
0.145
0.155
0.155
0.125
0.155
0.165
0.16
0.145
0.15
0.145
0.14
0.125
0.165
0.15
0.155
0.17
0.17
0.145
0.135
0.17
0.155
0.145
0.17
0.15
0.14
0.155
0.17
0.15
0.175
0.165
0.15
0.16
0.135
0.15
0.15
0.165
0.155
0.16
0.17
0.165
0.16
0.16
0.18
0.155
0.19
0.155
0.155
0.15
0.165
0.15
0.16
0.165
0.15
0.155
0.155
0.165
0.155
0.155
0.175
0.165
0.19
0.165
0.16
0.145
0.16
0.165
0.16
0.17
0.155
0.17
0.165
0.18
0.15
0.145
0.15
0.155
0.17
0.155
0.15
0.15
0.155
0.16
0.165
0.135
0.165
0.16
0.155
0.13
0.165
0.175
0.145
0.135
0.135
0.15
0.155
0.16
0.135
0.15
0.155
0.165
0.15
0.145
0.15
0.16
0.16
0.16
0.155
0.16
0.155
0.17
0.12
0.155
0.14
0.16
0.155
0.16
0.155
0.14
0.135
0.15
0.16
0.15
0.15
0.15
0.15
0.15
0.145
0.16
0.135
0.165
0.15
0.15
0.14
0.165
0.15
0.145
0.14
0.14
0.145
0.135
0.13
0.145
0.125
0.135
0.155
0.16
0.165
0.145
0.145
0.15
0.16
0.135
0.125
0.14
0.165
0.13
0.145
0.14
0.175
0.14
0.14
0.15
0.16
0.135
0.145
0.14
0.145
0.16
0.155
0.145
0.15
0.13
0.145
0.135
0.16
0.15
0.16
0.16
0.16
0.155
0.16
0.14
0.145
0.165
0.195
0.19
0.2
0.205
0.21
0.22
0.215
0.2
0.21
0.23
0.225
0.24
0.21
0.245
0.235
0.24
0.215
0.235
0.225
0.205
0.185
0.195
0.195
0.175
0.175
0.16
0.135
0.12
0.115
0.135
0.14
0.14
0.125
0.135
0.135
0.135
0.105
0.15
0.135
0.12
0.12
0.135
0.125
0.125
0.13
0.14
0.135
0.13
0.14
0.125
0.125
0.13
0.145
0.125
0.14
0.12
0.12
0.135
0.155
0.14
0.135
0.135
0.18
0.235
0.275
0.355
0.445
0.495
0.58
0.66
0.69
0.755
0.815
0.795
0.71
0.525
0.355
0.27
0.165
0.08
-0.015
-0.02
0.005
0.055
0.06
0.08
0.11
0.13
0.14
0.125
0.155
0.145
0.135
0.15
0.155
0.16
0.15
0.125
0.135
0.12
0.135
0.135
0.14
0.13
0.155
0.14
0.135
0.135
0.14
0.13
0.15
0.15
0.155
0.14
0.14
0.14
0.14
0.15
0.125
0.14
0.15
0.15
0.16
0.145
0.145
0.17
0.14
0.15
0.16
0.165
0.155
0.145
0.15
0.16
0.155
0.185
0.155
0.13
0.16
0.155
0.17
0.16
0.16
0.155
0.18
0.175
0.17
0.165
0.18
0.17
0.175
0.16
0.19
0.19
0.185
0.18
0.19
0.175
0.205
0.21
0.185
0.17
0.19
0.18
0.205
0.22
0.195
0.2
0.225
0.22
0.23
0.225
0.22
0.24
0.23
0.245
0.255
0.25
0.25
0.245
0.245
0.27
0.28
0.28
0.27
0.28
0.28
0.29
0.305
0.295
0.29
0.33
0.33
0.35
0.33
0.34
0.335
0.34
0.385
0.37
0.38
0.345
0.36
0.37
0.355
0.375
0.385
0.38
0.375
0.39
0.375
0.395
0.365
0.37
0.355
0.35
0.35
0.36
0.34
0.335
0.33
0.32
0.31
0.295
0.315
0.29
0.275
0.245
0.24
0.245
0.245
0.235
0.22
0.205
0.205
0.18
0.18
0.19
0.18
0.19
0.16
0.165
0.14
0.125
0.13
0.12
0.16
0.145
0.165
0.135
0.14
0.135
0.14
0.135
0.135
0.11
0.105
0.125
0.125
0.115
0.14
0.115
0.115
0.105
0.115
0.12
0.11
0.125
0.125
0.13
0.13
0.12
0.115
0.105
0.125
0.13
0.135
0.11
0.15
0.125
0.13
0.135
0.135
0.13
0.125
0.12
0.14
0.12
0.15
0.145
0.125
0.125
0.145
0.13
0.125
0.135
0.12
0.145
0.14
0.135
0.12
0.14
0.13
0.12
0.14
0.135
0.13
0.13
0.145
0.14
0.135
0.14
0.115
0.105
0.135
0.155
0.125
0.12
0.13
0.125
0.125
0.14
0.13
0.12
0.125
0.14
0.135
0.135
0.12
0.14
0.13
0.125
0.13
0.145
0.135
0.12
0.115
0.09
0.135
0.115
0.125
0.125
0.105
0.11
0.115
0.125
0.11
0.125
0.115
0.14
0.125
0.11
0.14
0.12
0.1
0.095
0.11
0.12
0.125
0.125
0.12
0.12
0.11
0.12
0.13
0.085
0.11
0.12
0.1
0.095
0.11
0.095
0.135
0.13
0.1
0.115
0.12
0.12
0.11
0.12
0.11
0.115
0.11
0.11
0.1
0.105
0.105
0.12
0.105
0.125
0.125
0.115
0.09
0.105
0.12
0.11
0.1
0.11
0.115
0.14
0.11
0.115
0.095
0.08
0.13
0.13
0.11
0.11
0.13
0.115
0.09
0.105
0.125
0.12
0.095
0.12
0.1
0.13
0.11
0.115
0.125
0.105
0.125
0.105
0.125
0.105
0.105
0.105
0.095
0.115
0.13
0.105
0.125
0.11
0.11
0.09
0.115
0.125
0.115
0.115
0.095
0.11
0.14
0.125
0.13
0.11
0.115
0.13
0.12
0.135
0.125
0.155
0.135
0.13
0.145
0.165
0.17
0.185
0.195
0.195
0.205
0.205
0.195
0.175
0.19
0.185
0.18
0.175
0.22
0.205
0.23
0.235
0.195
0.17
0.175
0.18
0.155
0.145
0.135
0.12
0.105
0.105
0.11
0.1
0.095
0.105
0.095
0.12
0.09
0.085
0.13
0.1
0.105
0.105
0.105
0.1
0.095
0.105
0.105
0.105
0.085
0.105
0.1
0.11
0.11
0.125
0.105
0.1
0.11
0.115
0.095
0.08
0.065
0.09
0.085
0.125
0.125
0.22
0.29
0.315
0.385
0.52
0.57
0.65
0.68
0.745
0.805
0.835
0.745
0.59
0.44
0.34
0.265
0.17
0.04
0.025
0.04
0.065
0.095
0.1
0.135
0.135
0.145
0.11
0.145
0.145
0.125
0.125
0.115
0.12
0.105
0.115
0.11
0.105
0.11
0.11
0.125
0.1
0.12
0.1
0.13
0.125
0.1
0.11
0.1
0.095
0.12
0.11
0.1
0.12
0.125
0.12
0.12
0.11
0.145
0.135
0.13
0.12
0.13
0.125
0.12
0.135
0.135
0.12
0.115
0.13
0.135
0.13
0.15
0.125
0.135
0.16
0.14
0.135
0.13
0.12
0.125
0.14
0.14
0.16
0.14
0.145
0.17
0.155
0.13
0.135
0.15
0.15
0.145
0.15
0.125
0.155
0.16
0.16
0.15
0.16
0.175
0.19
0.165
0.17
0.16
0.175
0.16
0.18
0.19
0.19
0.18
0.21
0.205
0.2
0.215
0.23
0.195
0.2
0.22
0.22
0.23
0.23
0.255
0.245
0.25
0.26
0.255
0.26
0.25
0.265
0.29
0.27
0.27
0.325
0.315
0.32
0.32
0.305
0.315
0.315
0.32
0.33
0.315
0.32
0.325
0.33
0.345
0.325
0.3
0.315
0.325
0.315
0.33
0.315
0.34
0.315
0.305
0.3
0.275
0.3
0.285
0.27
0.25
0.26
0.24
0.22
0.255
0.215
0.19
0.215
0.225
0.195
0.185
0.185
0.185
0.165
0.165
0.145
0.175
0.155
0.14
0.15
0.135
0.145
0.12
0.15
0.145
0.115
0.125
0.125
0.145
0.12
0.125
0.125
0.1
0.12
0.11
0.095
0.125
0.125
0.125
0.12
0.105
0.12
0.125
0.11
0.1
0.11
0.1
0.11
0.1
0.13
0.14
0.12
0.09
0.12
0.12
0.115
0.1
0.115
0.115
0.13
0.14
0.115
0.135
0.095
0.115
0.125
0.12
0.135
0.115
0.125
0.125
0.13
0.135
0.13
0.12
0.135
0.135
0.11
0.12
0.135
0.13
0.115
0.12
0.125
0.11
0.13
0.14
0.14
0.11
0.105
0.135
0.15
0.11
0.115
0.125
0.12
0.12
0.125
0.135
0.135
0.13
0.15
0.145
0.125
0.1
0.12
0.095
0.125
0.125
0.13
0.13
0.125
0.125
0.125
0.12
0.125
0.135
0.12
0.12
0.13
0.13
0.1
0.13
0.12
0.12
0.13
0.11
0.115
0.115
0.11
0.12
0.12
0.11
0.145
0.1
0.095
0.13
0.12
0.13
0.11
0.135
0.12
0.1
0.12
0.12
0.135
0.12
0.13
0.115
0.095
0.13
0.115
0.1
0.105
0.11
0.085
0.125
0.1
0.14
0.11
0.125
0.115
0.115
0.1
0.1
0.085
0.11
0.135
0.13
0.125
0.1
0.095
0.105
0.11
0.115
0.105
0.12
0.12
0.12
0.105
0.12
0.125
0.12
0.115
0.1
0.11
0.12
0.1
0.125
0.115
0.115
0.11
0.095
0.12
0.125
0.12
0.12
0.135
0.115
0.11
0.115
0.11
0.125
0.11
0.115
0.085
0.12
0.1
0.115
0.15
0.135
0.125
0.105
0.125
0.11
0.095
0.11
0.125
0.12
0.115
0.105
0.125
0.12
0.125
0.095
0.1
0.1
0.14
0.105
0.095
0.115
0.115
0.115
0.115
0.095
0.12
0.125
0.135
0.125
0.14
0.115
0.125
0.115
0.13
0.12
0.12
0.155
0.175
0.175
0.175
0.175
0.2
0.19
0.2
0.195
0.2
0.195
0.195
0.19
0.21
0.195
0.23
0.22
0.18
0.2
0.18
0.195
0.18
0.16
0.165
0.14
0.135
0.145
0.1
0.09
0.105
0.09
0.105
0.095
0.105
0.115
0.125
0.115
0.095
0.09
0.095
0.11
0.1
0.095
0.105
0.09
0.1
0.11
0.095
0.105
0.095
0.105
0.11
0.1
0.115
0.11
0.085
0.08
0.105
0.09
0.085
0.085
0.085
0.115
0.15
0.175
0.23
0.295
0.39
0.465
0.55
0.615
0.645
0.72
0.79
0.83
0.8
0.67
0.485
0.38
0.3
0.195
0.07
-0.005
0.015
0.06
0.06
0.1
0.12
0.14
0.15
0.15
0.145
0.14
0.125
0.11
0.115
0.11
0.105
0.105
0.12
0.11
0.1
0.08
0.105
0.115
0.125
0.105
0.1
0.115
0.11
0.1
0.1
0.115
0.14
0.1
0.1
0.125
0.1
0.085
0.115
0.125
0.135
0.14
0.13
0.13
0.125
0.115
0.11
0.115
0.12
0.12
0.11
0.125
0.115
0.11
0.135
0.13
0.13
0.115
0.14
0.115
0.135
0.14
0.135
0.13
0.14
0.125
0.125
0.155
0.16
0.145
0.135
0.15
0.15
0.14
0.15
0.16
0.15
0.15
0.165
0.16
0.15
0.19
0.155
0.165
0.185
0.17
0.17
0.18
0.18
0.18
0.19
0.175
0.185
0.195
0.205
0.195
0.185
0.205
0.22
0.22
0.24
0.225
0.23
0.225
0.23
0.24
0.23
0.25
0.265
0.28
0.275
0.265
0.275
0.28
0.285
0.305
0.3
0.3
0.3
0.335
0.31
0.32
0.315
0.335
0.335
0.355
0.33
0.33
0.32
0.33
0.32
0.36
0.34
0.33
0.335
0.315
0.32
0.34
0.3
0.295
0.31
0.295
0.295
0.285
0.275
0.26
0.26
0.245
0.235
0.23
0.215
0.23
0.21
0.19
0.18
0.19
0.185
0.195
0.18
0.16
0.175
0.15
0.165
0.15
0.115
0.135
0.155
0.135
0.13
0.135
0.13
0.14
0.125
0.12
0.13
0.145
0.115
0.13
0.105
0.135
0.145
0.11
0.1
0.12
0.135
0.13
0.11
0.125
0.125
0.125
0.12
0.115
0.12
0.105
0.12
0.105
0.125
0.13
0.12
0.115
0.115
0.14
0.12
0.115
0.125
0.105
0.11
0.125
0.135
0.135
0.115
0.11
0.105
0.115
0.155
0.135
0.125
0.12
0.11
0.12
0.13
0.125
0.125
0.135
0.14
0.11
0.115
0.13
0.105
0.115
0.145
0.13
0.135
0.125
0.115
0.095
0.11
0.13
0.125
0.125
0.145
0.12
0.115
0.145
0.115
0.12
0.115
0.12
0.1
0.13
0.135
0.13
0.115
0.115
0.13
0.095
0.1
0.125
0.11
0.125
0.12
0.1
0.105
0.115
0.11
0.135
0.09
0.125
0.105
0.115
0.125
0.125
0.105
0.1
0.105
0.105
0.095
0.13
0.13
0.11
0.115
0.1
0.105
0.11
0.105
0.11
0.115
0.105
0.11
0.11
0.11
0.1
0.1
0.095
0.105
0.11
0.105
0.09
0.11
0.11
0.115
0.12
0.11
0.09
0.11
0.095
0.115
0.115
0.115
0.105
0.09
0.1
0.09
0.105
0.1
0.1
0.11
0.11
0.12
0.095
0.12
0.105
0.09
0.095
0.08
0.11
0.1
0.09
0.095
0.105
0.095
0.105
0.085
0.095
0.12
0.11
0.1
0.11
0.1
0.1
0.095
0.075
0.1
0.125
0.105
0.095
0.1
0.095
0.095
0.09
0.08
0.09
0.1
0.1
0.11
0.085
0.1
0.11
0.105
0.105
0.095
0.105
0.1
0.105
0.1
0.095
0.095
0.09
0.11
0.11
0.11
0.085
0.105
0.095
0.085
0.1
0.13
0.095
0.085
0.09
0.11
0.1
0.1
0.115
0.105
0.11
0.12
0.115
0.13
0.135
0.13
0.15
0.17
0.175
0.175
0.2
0.18
0.19
0.16
0.19
0.185
0.175
0.18
0.185
0.21
0.19
0.2
0.215
0.185
0.19
0.17
0.16
0.14
0.145
0.145
0.125
0.11
0.095
0.085
0.09
0.085
0.09
0.105
0.1
0.085
0.095
0.095
0.11
0.1
0.1
0.095
0.11
0.085
0.1
0.095
0.09
0.125
0.095
0.07
0.1
0.095
0.07
0.095
0.105
0.11
0.08
0.075
0.085
0.08
0.075
0.06
0.09
0.11
0.15
0.225
0.27
0.345
0.42
0.515
0.6
0.63
0.695
0.77
0.82
0.805
0.72
0.535
0.39
0.31
0.215
0.115
-0.005
-0.01
0.02
0.065
0.09
0.12
0.155
0.135
0.125
0.145
0.115
0.14
0.105
0.095
0.12
0.11
0.105
0.095
0.105
0.105
0.1
0.115
0.095
0.09
0.11
0.085
0.105
0.09
0.12
0.11
0.115
0.125
0.105
0.105
0.125
0.1
0.11
0.1
0.095
0.11
0.1
0.12
0.12
0.115
0.105
0.13
0.115
0.13
0.12
0.11
0.125
0.12
0.11
0.125
0.125
0.125
0.14
0.14
0.13
0.12
0.135
0.135
0.125
0.135
0.14
0.165
0.125
0.135
0.155
0.135
0.135
0.145
0.14
0.12
0.155
0.175
0.17
0.18
0.175
0.165
0.155
0.14
0.175
0.185
0.18
0.18
0.19
0.19
0.19
0.19
0.195
0.2
0.205
0.18
0.21
0.22
0.22
0.215
0.2
0.225
0.245
0.255
0.22
0.26
0.25
0.265
0.26
0.27
0.27
0.26
0.305
0.315
0.3
0.3
0.31
0.315
0.34
0.335
0.315
0.33
0.32
0.34
0.35
0.34
0.355
0.345
0.355
0.365
0.355
0.345
0.335
0.345
0.365
0.355
0.345
0.34
0.345
0.36
0.34
0.31
0.33
0.325
0.32
0.3
0.285
0.285
0.275
0.26
0.25
0.255
0.24
0.225
0.205
0.215
0.21
0.225
0.215
0.2
0.19
0.185
0.17
0.175
0.175
0.175
0.17
0.16
0.175
0.16
0.155
0.145
0.165
0.155
0.155
0.13
0.145
0.15
0.155
0.135
0.12
0.13
0.15
0.16
0.15
0.135
0.13
0.14
0.135
0.12
0.145
0.14
0.145
0.155
0.155
0.15
0.15
0.135
0.15
0.15
0.145
0.135
0.125
0.12
0.15
0.155
0.14
0.155
0.145
0.135
0.16
0.145
0.14
0.14
0.145
0.145
0.15
0.155
0.155
0.135
0.155
0.17
0.16
0.14
0.165
0.15
0.155
0.165
0.155
0.145
0.14
0.15
0.155
0.135
0.145
0.175
0.145
0.17
0.15
0.165
0.155
0.145
0.165
0.15
0.17
0.17
0.14
0.16
0.17
0.16
0.16
0.14
0.155
0.155
0.16
0.155
0.145
0.145
0.145
0.14
0.145
0.135
0.145
0.15
0.145
0.14
0.15
0.155
0.155
0.14
0.15
0.16
0.145
0.14
0.165
0.155
0.135
0.16
0.135
0.14
0.165
0.12
0.15
0.145
0.15
0.14
0.15
0.135
0.155
0.15
0.145
0.13
0.14
0.145
0.13
0.15
0.14
0.15
0.15
0.145
0.14
0.135
0.15
0.15
0.145
0.155
0.155
0.16
0.135
0.12
0.115
0.12
0.14
0.15
0.14
0.155
0.155
0.15
0.14
0.13
0.135
0.15
0.145
0.135
0.145
0.16
0.135
0.14
0.14
0.15
0.175
0.125
0.115
0.13
0.15
0.14
0.14
0.13
0.135
0.15
0.135
0.135
0.135
0.145
0.145
0.135
0.135
0.14
0.15
0.15
0.135
0.13
0.13
0.135
0.14
0.13
0.135
0.15
0.14
0.145
0.155
0.13
0.145
0.14
0.165
0.125
0.145
0.16
0.155
0.145
0.155
0.145
0.165
0.175
0.17
0.19
0.2
0.205
0.225
0.21
0.215
0.2
0.205
0.225
0.215
0.245
0.235
0.225
0.215
0.22
0.23
0.205
0.225
0.225
0.195
0.19
0.18
0.17
0.14
0.16
0.15
0.12
0.115
0.125
0.14
0.145
0.13
0.13
0.1
0.11
0.135
0.125
0.15
0.125
0.115
0.115
0.135
0.13
0.105
0.125
0.145
0.105
0.125
0.13
0.12
0.115
0.13
0.125
0.135
0.125
0.105
0.085
0.105
0.125
0.12
0.145
0.16
0.22
0.265
0.335
0.415
0.52
0.605
0.67
0.69
0.75
0.82
0.84
0.765
0.585
0.39
0.32
0.225
0.125
0.0
-0.01
0.01
0.01
0.065
0.105
0.14
0.125
0.12
0.145
0.16
0.16
0.15
0.16
0.135
0.145
0.125
0.14
0.14
0.15
0.14
0.165
0.15
0.13
0.125
0.155
0.15
0.145
0.16
0.13
0.14
0.155
0.155
0.145
0.125
0.145
0.145
0.16
0.15
0.155
0.15
0.16
0.175
0.135
0.135
0.145
0.155
0.165
0.165
0.165
0.16
0.165
0.14
0.15
0.175
0.18
0.17
0.18
0.19
0.175
0.15
0.17
0.165
0.185
0.17
0.155
0.17
0.18
0.21
0.185
0.16
0.195
0.195
0.205
0.175
0.175
0.165
0.18
0.19
0.195
0.19
0.19
0.2
0.2
0.19
0.2
0.22
0.205
0.225
0.235
0.22
0.23
0.225
0.215
0.235
0.245
0.24
0.245
0.265
0.265
0.28
0.26
0.285
0.305
0.31
0.285
0.285
0.29
0.31
0.325
0.325
0.33
0.33
0.33
0.355
0.355
0.35
0.35
0.36
0.365
0.385
0.375
0.365
0.385
0.38
0.385
0.375
0.395
0.39
0.4
0.39
0.405
0.385
0.385
0.39
0.36
0.36
0.375
0.355
0.37
0.345
0.35
0.35
0.33
0.315
0.305
0.28
0.29
0.28
0.265
0.275
0.26
0.25
0.225
0.235
0.21
0.215
0.205
0.205
0.195
0.22
0.19
0.2
0.185
0.18
0.17
0.175
0.18
0.17
0.165
0.175
0.17
0.16
0.155
0.155
0.155
0.16
0.155
0.155
0.185
0.15
0.185
0.135
0.135
0.16
0.15
0.165
0.145
0.155
0.165
0.17
0.165
0.14
0.145
0.14
0.165
0.155
0.17
0.16
0.165
0.17
0.165
0.155
0.165
0.15
0.17
0.16
0.17
0.18
0.17
0.16
0.17
0.18
0.185
0.185
0.185
0.175
0.165
0.185
0.175
0.185
0.19
0.165
0.16
0.165
0.18
0.19
0.195
0.165
0.17
0.185
0.185
0.16
0.165
0.165
0.175
0.165
0.17
0.17
0.16
0.18
0.19
0.18
0.17
0.165
0.165
0.175
0.155
0.175
0.18
0.175
0.17
0.165
0.155
0.185
0.175
0.145
0.165
0.18
0.175
0.17
0.155
0.15
0.145
0.16
0.16
0.16
0.135
0.145
0.15
0.16
0.16
0.155
0.155
0.16
0.145
0.145
0.13
0.135
0.145
0.135
0.165
0.14
0.15
0.15
0.125
0.155
0.155
0.15
0.145
0.155
0.155
0.145
0.165
0.145
0.135
0.125
0.16
0.15
0.135
0.125
0.135
0.125
0.12
0.155
0.145
0.135
0.145
0.135
0.14
0.14
0.135
0.125
0.13
0.145
0.145
0.155
0.15
0.13
0.13
0.13
0.13
0.13
0.135
0.135
0.12
0.14
0.13
0.145
0.135
0.13
0.14
0.13
0.135
0.14
0.145
0.14
0.135
0.13
0.145
0.145
0.145
0.13
0.125
0.125
0.125
0.14
0.14
0.165
0.145
0.13
0.14
0.125
0.14
0.12
0.14
0.16
0.155
0.12
0.13
0.155
0.145
0.165
0.15
0.155
0.185
0.145
0.18
0.195
0.2
0.19
0.225
0.225
0.235
0.225
0.225
0.22
0.225
0.24
0.235
0.24
0.235
0.215
0.215
0.21
0.225
0.225
0.195
0.2
0.19
0.17
0.16
0.145
0.14
0.12
0.13
0.115
0.145
0.145
0.115
0.135
0.13
0.125
0.135
0.12
0.11
0.13
0.125
0.11
0.13
0.13
0.11
0.145
0.145
0.125
0.115
0.13
0.15
0.155
0.14
0.115
0.13
0.125
0.11
0.105
0.12
0.105
0.115
0.145
0.22
0.27
0.32
0.41
0.49
0.565
0.635
0.695
0.75
0.8
0.85
0.82
0.68
0.51
0.385
0.295
0.205
0.09
0.015
0.03
0.08
0.09
0.12
0.14
0.145
0.155
0.16
0.145
0.145
0.155
0.12
0.135
0.14
0.14
0.13
0.125
0.14
0.14
0.13
0.14
0.14
0.12
0.13
0.13
0.115
0.11
0.145
0.135
0.14
0.13
0.135
0.14
0.14
0.125
0.125
0.14
0.145
0.155
0.125
0.155
0.14
0.115
0.14
0.15
0.155
0.145
0.155
0.15
0.145
0.16
0.145
0.155
0.15
0.145
0.155
0.15
0.15
0.165
0.17
0.165
0.14
0.14
0.16
0.205
0.165
0.165
0.16
0.16
0.175
0.175
0.18
0.16
0.185
0.175
0.165
0.17
0.17
0.195
0.19
0.175
0.21
0.17
0.18
0.205
0.19
0.2
0.205
0.21
0.21
0.21
0.225
0.23
0.225
0.23
0.24
0.225
0.27
0.25
0.245
0.25
0.255
0.255
0.265
0.275
0.28
0.26
0.295
0.285
0.295
0.33
0.325
0.33
0.32
0.335
0.335
0.33
0.345
0.335
0.355
0.345
0.37
0.36
0.355
0.355
0.355
0.375
0.36
0.375
0.37
0.365
0.37
0.37
0.33
0.35
0.34
0.355
0.33
0.325
0.32
0.32
0.3
0.3
0.28
0.26
0.265
0.27
0.26
0.245
0.26
0.235
0.22
0.205
0.235
0.21
0.2
0.195
0.185
0.195
0.185
0.19
0.165
0.145
0.16
0.17
0.155
0.17
0.165
0.16
0.13
0.145
0.13
0.135
0.15
0.145
0.145
0.135
0.165
0.155
0.145
0.145
0.13
0.15
0.12
0.13
0.125
0.16
0.165
0.155
0.15
0.14
0.15
0.15
0.135
0.155
0.145
0.16
0.145
0.15
0.155
0.175
0.16
0.16
0.15
0.135
0.15
0.15
0.165
0.165
0.165
0.16
0.155
0.17
0.165
0.16
0.16
0.165
0.185
0.19
0.17
0.175
0.175
0.17
0.185
0.17
0.165
0.17
0.18
0.195
0.2
0.185
0.18
0.165
0.18
0.19
0.175
0.18
0.19
0.18
0.2
0.19
0.175
0.165
0.175
0.185
0.175
0.18
0.18
0.18
0.165
0.165
0.18
0.175
0.185
0.19
0.17
0.18
0.15
0.17
0.185
0.165
0.17
0.185
0.17
0.15
0.18
0.16
0.18
0.16
0.175
0.17
0.185
0.19
0.145
0.155
0.17
0.19
0.16
0.16
0.175
0.19
0.165
0.165
0.16
0.155
0.175
0.16
0.19
0.185
0.21
0.15
0.17
0.17
0.16
0.165
0.175
0.155
0.175
0.185
0.18
0.17
0.165
0.17
0.18
0.17
0.155
0.18
0.19
0.18
0.18
0.175
0.175
0.175
0.175
0.16
0.19
0.175
0.175
0.165
0.17
0.185
0.15
0.185
0.14
0.195
0.21
0.17
0.17
0.18
0.185
0.185
0.185
0.18
0.155
0.175
0.165
0.175
0.18
0.17
0.175
0.165
0.17
0.18
0.165
0.175
0.175
0.17
0.175
0.15
0.185
0.17
0.175
0.17
0.16
0.18
0.165
0.16
0.19
0.18
0.185
0.17
0.165
0.175
0.175
0.18
0.185
0.195
0.18
0.175
0.195
0.18
0.175
0.2
0.2
0.205
0.22
0.21
0.27
0.26
0.265
0.265
0.255
0.265
0.235
0.255
0.275
0.245
0.25
0.26
0.28
0.27
0.265
0.27
0.245
0.24
0.25
0.235
0.24
0.215
0.205
0.2
0.18
0.18
0.185
0.175
0.17
0.15
0.165
0.175
0.165
0.15
0.175
0.19
0.16
0.14
0.15
0.18
0.18
0.2
0.16
0.16
0.16
0.17
0.165
0.155
0.15
0.17
0.16
0.17
0.155
0.145
0.165
0.17
0.145
0.15
0.145
0.17
0.215
0.265
0.33
0.37
0.46
0.555
0.625
0.695
0.74
0.825
0.865
0.915
0.86
0.72
0.53
0.43
0.335
0.23
0.13
0.08
0.105
0.1
0.15
0.18
0.215
0.195
0.205
0.195
0.2
0.175
0.195
0.18
0.2
0.185
0.19
0.185
0.175
0.19
0.2
0.195
0.19
0.175
0.165
0.165
0.165
0.155
0.2
0.175
0.195
0.18
0.2
0.2
0.185
0.18
0.195
0.19
0.195
0.17
0.18
0.19
0.195
0.2
0.21
0.195
0.205
0.165
0.21
0.19
0.235
0.225
0.18
0.21
0.23
0.2
0.21
0.215
0.215
0.18
0.175
0.22
0.235
0.235
0.205
0.215
0.2
0.2
0.21
0.235
0.225
0.22
0.24
0.195
0.25
0.215
0.23
0.22
0.24
0.21
0.23
0.225
0.235
0.235
0.23
0.24
0.245
0.245
0.245
0.23
0.245
0.26
0.26
0.265
0.275
0.265
0.27
0.27
0.29
0.285
0.28
0.285
0.305
0.305
0.31
0.305
0.31
0.305
0.32
0.335
0.33
0.345
0.33
0.35
0.365
0.36
0.365
0.37
0.37
0.395
0.395
0.395
0.39
0.4
0.4
0.4
0.4
0.405
0.405
0.4
0.405
0.425
0.385
0.41
0.42
0.4
0.39
0.38
0.375
0.375
0.37
0.36
0.34
0.36
0.345
0.335
0.325
0.315
0.305
0.315
0.275
0.26
0.265
0.27
0.265
0.245
0.235
0.205
0.235
0.2
0.21
0.22
0.215
0.205
0.195
0.19
0.18
0.17
0.195
0.21
0.19
0.185
0.195
0.165
0.185
0.19
0.175
0.175
0.185
0.185
0.17
0.19
0.175
0.19
0.185
0.16
0.16
0.19
0.175
0.165
0.18
0.175
0.18
0.165
0.16
0.175
0.175
0.185
0.15
0.175
0.175
0.165
0.18
0.18
0.18
0.175
0.19
0.17
0.165
0.195
0.185
0.18
0.18
0.175
0.185
0.17
0.185
0.17
0.18
0.205
0.215
0.19
0.175
0.175
0.18
0.2
0.195
0.185
0.2
0.205
0.185
0.175
0.16
0.175
0.185
0.175
0.18
0.19
0.185
0.195
0.175
0.175
0.205
0.17
0.16
0.16
0.195
0.165
0.185
0.18
0.195
0.17
0.16
0.18
0.185
0.18
0.19
0.17
0.175
0.165
0.18
0.155
0.17
0.165
0.16
0.18
0.175
0.175
0.18
0.185
0.175
0.175
0.155
0.18
0.165
0.165
0.17
0.155
0.155
0.175
0.18
0.15
0.155
0.165
0.185
0.16
0.15
0.145
0.185
0.17
0.175
0.18
0.125
0.17
0.17
0.155
0.16
0.17
0.18
0.165
0.17
0.175
0.145
0.19
0.165
0.16
0.165
0.195
0.165
0.175
0.195
0.185
0.18
0.17
0.165
0.145
0.15
0.185
0.185
0.18
0.19
0.17
0.17
0.155
0.17
0.195
0.185
0.175
0.175
0.205
0.195
0.205
0.175
0.16
0.175
0.18
0.17
0.185
0.2
0.18
0.19
0.195
0.18
0.17
0.195
0.2
0.18
0.19
0.185
0.19
0.195
0.2
0.19
0.185
0.165
0.175
0.185
0.175
0.195
0.185
0.185
0.19
0.175
0.19
0.16
0.15
0.175
0.185
0.175
0.185
0.19
0.195
0.19
0.185
0.185
0.19
0.185
0.19
0.22
0.215
0.235
0.25
0.25
0.27
0.245
0.265
0.265
0.255
0.225
0.255
0.27
0.255
0.255
0.26
0.275
0.265
0.255
0.245
0.22
0.22
0.21
0.22
0.2
0.195
0.18
0.165
0.15
0.14
0.165
0.185
0.17
0.155
0.16
0.155
0.15
0.18
0.165
0.165
0.15
0.175
0.175
0.17
0.16
0.14
0.17
0.17
0.145
0.145
0.175
0.165
0.16
0.145
0.16
0.17
0.185
0.175
0.155
0.16
0.165
0.165
0.18
0.2
0.245
0.31
0.39
0.435
0.545
0.64
0.735
0.735
0.795
0.875
0.88
0.775
0.615
0.455
0.35
0.265
0.14
0.06
0.035
0.045
0.07
0.1
0.12
0.155
0.16
0.175
0.185
0.19
0.195
0.17
0.155
0.165
0.16
0.145
0.185
0.165
0.165
0.175
0.155
0.16
0.155
0.15
0.17
0.165
0.155
0.17
0.185
0.175
0.15
0.16
0.195
0.18
0.165
0.19
0.17
0.17
0.18
0.19
0.16
0.185
0.18
0.165
0.18
0.17
0.185
0.18
0.175
0.175
0.195
0.195
0.19
0.185
0.16
0.21
0.2
0.185
0.19
0.19
0.21
0.215
0.21
0.195
0.18
0.21
0.2
0.195
0.23
0.215
0.205
0.2
0.21
0.235
0.225
0.225
0.23
0.215
0.21
0.22
0.235
0.245
0.235
0.23
0.235
0.215
0.275
0.265
0.235
0.25
0.285
0.28
0.26
0.25
0.24
0.305
0.29
0.255
0.31
0.295
0.29
0.3
0.3
0.295
0.32
0.315
0.345
0.36
0.335
0.36
0.365
0.35
0.375
0.37
0.375
0.39
0.39
0.38
0.385
0.41
0.4
0.41
0.41
0.405
0.415
0.43
0.42
0.415
0.44
0.425
0.41
0.405
0.39
0.415
0.405
0.415
0.41
0.4
0.38
0.39
0.37
0.36
0.34
0.34
0.32
0.31
0.305
0.325
0.31
0.28
0.27
0.26
0.245
0.235
0.25
0.23
0.25
0.235
0.225
0.215
0.205
0.215
0.205
0.18
0.185
0.205
0.19
0.18
0.19
0.2
0.205
0.19
0.17
0.165
0.165
0.155
0.18
0.16
0.16
0.18
0.155
0.17
0.175
0.13
0.15
0.165
0.17
0.175
0.155
0.165
0.14
0.145
0.16
0.17
0.18
0.165
0.155
0.155
0.14
0.16
0.15
0.165
0.19
0.175
0.155
0.15
0.165
0.15
0.135
0.185
0.155
0.155
0.15
0.15
0.155
0.17
0.155
0.165
0.16
0.18
0.155
0.155
0.16
0.155
0.155
0.16
0.165
0.16
0.15
0.15
0.16
0.16
0.165
0.135
0.135
0.175
0.17
0.17
0.165
0.155
0.145
0.145
0.15
0.13
0.145
0.17
0.18
0.135
0.14
0.145
0.14
0.165
0.13
0.14
0.12
0.135
0.13
0.13
0.14
0.13
0.12
0.135
0.14
0.13
0.125
0.155
0.125
0.125
0.145
0.15
0.135
0.13
0.13
0.125
0.125
0.135
0.125
0.12
0.14
0.14
0.15
0.125
0.15
0.135
0.135
0.135
0.115
0.14
0.115
0.13
0.13
0.125
0.13
0.13
0.115
0.13
0.125
0.125
0.125
0.135
0.14
0.115
0.135
0.13
0.135
0.13
0.115
0.14
0.135
0.125
0.125
0.125
0.115
0.13
0.135
0.14
0.13
0.125
0.14
0.135
0.12
0.115
0.135
0.12
0.11
0.135
0.115
0.13
0.115
0.13
0.115
0.13
0.125
0.085
0.085
0.11
0.15
0.115
0.12
0.115
0.12
0.115
0.12
0.09
0.11
0.135
0.125
0.13
0.13
0.13
0.155
0.165
0.145
0.165
0.185
0.19
0.18
0.195
0.195
0.18
0.19
0.185
0.19
0.205
0.195
0.2
0.21
0.2
0.175
0.175
0.195
0.17
0.13
0.155
0.16
0.12
0.11
0.11
0.08
0.095
0.1
0.095
0.115
0.095
0.11
0.095
0.08
0.095
0.105
0.1
0.095
0.09
0.095
0.1
0.11
0.085
0.08
0.105
0.08
0.08
0.11
0.09
0.085
0.095
0.1
0.095
0.09
0.1
0.095
0.105
0.095
0.095
0.115
0.135
0.175
0.235
0.35
0.41
0.47
0.565
0.625
0.63
0.66
0.765
0.745
0.64
0.46
0.325
0.255
0.13
0.06
-0.035
-0.045
-0.015
0.01
0.02
