# TIPE ECG 2021 - ECG-ID Database v1.0.0 par Physionet
# [Numéro de la personne, Période d'échantillonnage, Prénom, Age, Sexe, Date de l'enregistrement]
[56, 0.002, Dolores, 21, F, 12.05.2005]
-0.535
-0.64
-0.67
-0.615
-0.605
-0.665
-0.655
-0.68
-0.71
-0.68
-0.615
-0.59
-0.595
-0.675
-0.595
-0.66
-0.615
-0.635
-0.63
-0.645
-0.595
-0.61
-0.64
-0.65
-0.635
-0.65
-0.615
-0.63
-0.65
-0.655
-0.645
-0.62
-0.665
-0.63
-0.625
-0.655
-0.67
-0.63
-0.62
-0.61
-0.595
-0.63
-0.66
-0.64
-0.62
-0.61
-0.63
-0.63
-0.63
-0.625
-0.58
-0.62
-0.67
-0.6
-0.565
-0.65
-0.635
-0.645
-0.635
-0.63
-0.585
-0.65
-0.68
-0.64
-0.54
-0.68
-0.68
-0.595
-0.62
-0.65
-0.63
-0.625
-0.65
-0.62
-0.605
-0.58
-0.62
-0.57
-0.655
-0.655
-0.65
-0.61
-0.64
-0.57
-0.61
-0.665
-0.61
-0.635
-0.64
-0.615
-0.6
-0.57
-0.56
-0.595
-0.63
-0.655
-0.62
-0.635
-0.625
-0.575
-0.645
-0.62
-0.6
-0.64
-0.63
-0.615
-0.605
-0.66
-0.64
-0.59
-0.61
-0.615
-0.625
-0.635
-0.6
-0.615
-0.62
-0.635
-0.63
-0.555
-0.655
-0.63
-0.62
-0.59
-0.615
-0.65
-0.635
-0.62
-0.62
-0.65
-0.635
-0.56
-0.62
-0.665
-0.595
-0.62
-0.665
-0.64
-0.65
-0.63
-0.62
-0.625
-0.61
-0.605
-0.62
-0.645
-0.61
-0.605
-0.585
-0.65
-0.565
-0.61
-0.635
-0.645
-0.6
-0.62
-0.58
-0.62
-0.595
-0.625
-0.6
-0.575
-0.61
-0.61
-0.595
-0.62
-0.615
-0.63
-0.49
-0.615
-0.62
-0.605
-0.595
-0.535
-0.51
-0.575
-0.54
-0.565
-0.56
-0.6
-0.585
-0.6
-0.59
-0.635
-0.65
-0.625
-0.605
-0.625
-0.605
-0.63
-0.635
-0.675
-0.615
-0.615
-0.625
-0.645
-0.635
-0.65
-0.625
-0.615
-0.645
-0.645
-0.635
-0.61
-0.65
-0.615
-0.6
-0.665
-0.665
-0.63
-0.665
-0.665
-0.715
-0.63
-0.615
-0.58
-0.585
-0.59
-0.66
-0.66
-0.61
-0.665
-0.7
-0.645
-0.675
-0.66
-0.615
-0.61
-0.67
-0.605
-0.61
-0.655
-0.665
-0.63
-0.665
-0.715
-0.73
-0.72
-0.62
-0.53
-0.415
-0.35
-0.22
-0.065
0.05
0.07
0.09
0.18
0.24
0.235
0.23
0.26
0.18
0.17
0.005
-0.125
-0.225
-0.205
-0.26
-0.295
-0.51
-0.585
-0.62
-0.55
-0.53
-0.535
-0.645
-0.61
-0.595
-0.65
-0.64
-0.57
-0.56
-0.645
-0.655
-0.63
-0.62
-0.59
-0.61
-0.615
-0.67
-0.645
-0.575
-0.58
-0.59
-0.595
-0.63
-0.625
-0.61
-0.585
-0.575
-0.58
-0.625
-0.605
-0.615
-0.59
-0.605
-0.625
-0.595
-0.57
-0.595
-0.595
-0.555
-0.62
-0.585
-0.61
-0.665
-0.64
-0.615
-0.6
-0.555
-0.555
-0.585
-0.57
-0.59
-0.62
-0.585
-0.585
-0.585
-0.59
-0.57
-0.58
-0.59
-0.6
-0.59
-0.505
-0.58
-0.6
-0.54
-0.64
-0.565
-0.58
-0.56
-0.575
-0.575
-0.575
-0.535
-0.505
-0.515
-0.535
-0.505
-0.54
-0.52
-0.575
-0.515
-0.54
-0.58
-0.585
-0.53
-0.51
-0.515
-0.52
-0.5
-0.515
-0.485
-0.455
-0.445
-0.425
-0.41
-0.46
-0.465
-0.45
-0.45
-0.425
-0.445
-0.44
-0.42
-0.405
-0.46
-0.465
-0.41
-0.405
-0.385
-0.45
-0.32
-0.355
-0.415
-0.315
-0.33
-0.39
-0.365
-0.39
-0.435
-0.385
-0.425
-0.38
-0.37
-0.41
-0.445
-0.46
-0.38
-0.415
-0.45
-0.395
-0.455
-0.48
-0.515
-0.53
-0.535
-0.47
-0.445
-0.485
-0.49
-0.495
-0.515
-0.555
-0.575
-0.545
-0.505
-0.57
-0.585
-0.51
-0.52
-0.645
-0.57
-0.5
-0.54
-0.525
-0.545
-0.55
-0.55
-0.535
-0.5
-0.53
-0.6
-0.565
-0.54
-0.545
-0.51
-0.58
-0.56
-0.57
-0.52
-0.54
-0.5
-0.52
-0.53
-0.605
-0.56
-0.535
-0.55
-0.58
-0.53
-0.535
-0.55
-0.585
-0.585
-0.56
-0.515
-0.545
-0.565
-0.575
-0.53
-0.52
-0.555
-0.555
-0.55
-0.565
-0.57
-0.57
-0.61
-0.585
-0.6
-0.59
-0.525
-0.55
-0.56
-0.575
-0.52
-0.59
-0.6
-0.605
-0.6
-0.56
-0.565
-0.585
-0.58
-0.62
-0.595
-0.555
-0.53
-0.58
-0.58
-0.61
-0.57
-0.57
-0.565
-0.585
-0.535
-0.585
-0.56
-0.63
-0.555
-0.52
-0.53
-0.575
-0.545
-0.59
-0.61
-0.64
-0.525
-0.61
-0.56
-0.555
-0.575
-0.58
-0.55
-0.545
-0.51
-0.56
-0.515
-0.55
-0.565
-0.57
-0.575
-0.575
-0.61
-0.52
-0.53
-0.515
-0.56
-0.575
-0.545
-0.575
-0.525
-0.565
-0.555
-0.57
-0.575
-0.53
-0.535
-0.52
-0.545
-0.585
-0.565
-0.55
-0.515
-0.565
-0.535
-0.555
-0.57
-0.545
-0.595
-0.575
-0.535
-0.52
-0.555
-0.545
-0.52
-0.55
-0.59
-0.515
-0.505
-0.525
-0.56
-0.495
-0.605
-0.555
-0.52
-0.52
-0.53
-0.555
-0.495
-0.57
-0.62
-0.545
-0.565
-0.62
-0.53
-0.53
-0.57
-0.53
-0.525
-0.585
-0.575
-0.53
-0.535
-0.565
-0.62
-0.545
-0.525
-0.545
-0.485
-0.5
-0.625
-0.57
-0.52
-0.445
-0.475
-0.49
-0.525
-0.56
-0.57
-0.585
-0.545
-0.52
-0.54
-0.53
-0.505
-0.58
-0.575
-0.58
-0.58
-0.6
-0.57
-0.505
-0.52
-0.565
-0.555
-0.55
-0.49
-0.555
-0.54
-0.57
-0.515
-0.54
-0.565
-0.51
-0.51
-0.555
-0.53
-0.52
-0.505
-0.515
-0.575
-0.48
-0.52
-0.525
-0.495
-0.555
-0.545
-0.465
-0.425
-0.48
-0.5
-0.485
-0.505
-0.49
-0.47
-0.485
-0.455
-0.485
-0.47
-0.45
-0.455
-0.505
-0.445
-0.445
-0.475
-0.545
-0.495
-0.485
-0.48
-0.52
-0.535
-0.52
-0.555
-0.55
-0.56
-0.54
-0.525
-0.525
-0.585
-0.52
-0.55
-0.53
-0.515
-0.535
-0.475
-0.47
-0.55
-0.49
-0.555
-0.6
-0.545
-0.47
-0.52
-0.515
-0.555
-0.555
-0.56
-0.515
-0.49
-0.515
-0.51
-0.57
-0.545
-0.535
-0.53
-0.56
-0.51
-0.54
-0.535
-0.62
-0.565
-0.51
-0.59
-0.565
-0.535
-0.5
-0.525
-0.515
-0.545
-0.555
-0.595
-0.57
-0.56
-0.54
-0.45
-0.32
-0.205
-0.12
0.03
0.105
0.195
0.23
0.285
0.39
0.375
0.425
0.41
0.335
0.285
0.105
-0.015
-0.115
-0.11
-0.15
-0.27
-0.42
-0.48
-0.49
-0.555
-0.585
-0.505
-0.515
-0.47
-0.465
-0.525
-0.57
-0.535
-0.515
-0.565
-0.57
-0.57
-0.59
-0.57
-0.57
-0.525
-0.55
-0.545
-0.55
-0.61
-0.56
-0.555
-0.53
-0.61
-0.58
-0.545
-0.555
-0.565
-0.565
-0.54
-0.55
-0.56
-0.56
-0.54
-0.535
-0.55
-0.51
-0.525
-0.555
-0.5
-0.535
-0.545
-0.49
-0.595
-0.57
-0.555
-0.575
-0.54
-0.555
-0.565
-0.58
-0.575
-0.54
-0.555
-0.56
-0.51
-0.515
-0.505
-0.535
-0.54
-0.57
-0.545
-0.455
-0.495
-0.52
-0.565
-0.51
-0.51
-0.515
-0.465
-0.58
-0.54
-0.485
-0.52
-0.45
-0.53
-0.425
-0.43
-0.45
-0.385
-0.475
-0.5
-0.505
-0.495
-0.46
-0.475
-0.435
-0.43
-0.415
-0.445
-0.43
-0.375
-0.37
-0.45
-0.415
-0.405
-0.42
-0.4
-0.38
-0.365
-0.35
-0.355
-0.29
-0.31
-0.31
-0.295
-0.29
-0.33
-0.38
-0.345
-0.325
-0.3
-0.28
-0.28
-0.275
-0.315
-0.295
-0.265
-0.26
-0.27
-0.29
-0.325
-0.295
-0.325
-0.35
-0.335
-0.295
-0.38
-0.395
-0.355
-0.37
-0.335
-0.345
-0.4
-0.41
-0.375
-0.445
-0.44
-0.43
-0.435
-0.43
-0.43
-0.46
-0.445
-0.435
-0.44
-0.48
-0.465
-0.425
-0.47
-0.44
-0.46
-0.445
-0.47
-0.465
-0.465
-0.465
-0.47
-0.485
-0.5
-0.45
-0.535
-0.47
-0.48
-0.5
-0.48
-0.44
-0.485
-0.455
-0.455
-0.44
-0.465
-0.46
-0.47
-0.38
-0.475
-0.505
-0.485
-0.47
-0.45
-0.445
-0.46
-0.45
-0.49
-0.45
-0.425
-0.41
-0.485
-0.46
-0.48
-0.43
-0.455
-0.44
-0.475
-0.49
-0.495
-0.515
-0.425
-0.455
-0.475
-0.46
-0.515
-0.55
-0.415
-0.43
-0.45
-0.435
-0.48
-0.43
-0.485
-0.48
-0.465
-0.48
-0.435
-0.455
-0.49
-0.515
-0.485
-0.46
-0.42
-0.43
-0.44
-0.44
-0.405
-0.435
-0.465
-0.47
-0.455
-0.46
-0.43
-0.435
-0.39
-0.39
-0.44
-0.5
-0.48
-0.47
-0.41
-0.505
-0.435
-0.38
-0.43
-0.43
-0.49
-0.495
-0.43
-0.415
-0.39
-0.445
-0.455
-0.45
-0.445
-0.4
-0.42
-0.435
-0.4
-0.415
-0.425
-0.43
-0.46
-0.365
-0.415
-0.375
-0.385
-0.405
-0.4
-0.4
-0.43
-0.495
-0.425
-0.465
-0.455
-0.42
-0.42
-0.44
-0.45
-0.41
-0.385
-0.415
-0.4
-0.43
-0.45
-0.41
-0.41
-0.435
-0.43
-0.38
-0.435
-0.45
-0.44
-0.455
-0.415
-0.42
-0.415
-0.435
-0.435
-0.44
-0.395
-0.365
-0.41
-0.405
-0.395
-0.455
-0.46
-0.35
-0.445
-0.41
-0.355
-0.43
-0.46
-0.46
-0.44
-0.415
-0.38
-0.405
-0.44
-0.445
-0.4
-0.405
-0.395
-0.38
-0.405
-0.445
-0.39
-0.39
-0.41
-0.425
-0.455
-0.4
-0.4
-0.405
-0.4
-0.385
-0.445
-0.415
-0.38
-0.4
-0.41
-0.5
-0.415
-0.42
-0.4
-0.36
-0.385
-0.39
-0.375
-0.42
-0.385
-0.375
-0.385
-0.385
-0.385
-0.355
-0.39
-0.43
-0.42
-0.365
-0.405
-0.41
-0.4
-0.38
-0.355
-0.375
-0.385
-0.335
-0.34
-0.335
-0.33
-0.36
-0.35
-0.285
-0.31
-0.33
-0.365
-0.34
-0.34
-0.33
-0.37
-0.375
-0.41
-0.375
-0.375
-0.35
-0.405
-0.42
-0.405
-0.36
-0.42
-0.4
-0.385
-0.38
-0.375
-0.405
-0.405
-0.455
-0.43
-0.405
-0.445
-0.415
-0.405
-0.35
-0.375
-0.395
-0.45
-0.445
-0.445
-0.43
-0.41
-0.45
-0.415
-0.37
-0.42
-0.395
-0.365
-0.42
-0.405
-0.385
-0.4
-0.41
-0.38
-0.355
-0.435
-0.44
-0.43
-0.4
-0.43
-0.43
-0.41
-0.4
-0.44
-0.455
-0.475
-0.475
-0.53
-0.465
-0.335
-0.21
-0.105
0.035
0.145
0.255
0.385
0.41
0.41
0.455
0.475
0.465
0.405
0.485
0.325
0.175
0.08
0.02
-0.04
0.005
-0.21
-0.32
-0.42
-0.345
-0.375
-0.39
-0.345
-0.345
-0.335
-0.385
-0.355
-0.345
-0.33
-0.405
-0.395
-0.375
-0.375
-0.405
-0.39
-0.345
-0.395
-0.415
-0.39
-0.35
-0.335
-0.365
-0.4
-0.405
-0.435
-0.405
-0.345
-0.375
-0.325
-0.38
-0.37
-0.37
-0.38
-0.415
-0.37
-0.38
-0.32
-0.405
-0.36
-0.345
-0.39
-0.455
-0.385
-0.38
-0.37
-0.36
-0.415
-0.325
-0.355
-0.305
-0.335
-0.35
-0.37
-0.405
-0.355
-0.37
-0.365
-0.3
-0.31
-0.35
-0.37
-0.285
-0.33
-0.345
-0.34
-0.295
-0.33
-0.34
-0.315
-0.32
-0.38
-0.305
-0.35
-0.335
-0.285
-0.295
-0.35
-0.33
-0.315
-0.33
-0.35
-0.33
-0.25
-0.26
-0.245
-0.3
-0.325
-0.245
-0.26
-0.275
-0.315
-0.2
-0.2
-0.185
-0.23
-0.26
-0.21
-0.235
-0.195
-0.205
-0.185
-0.08
-0.12
-0.19
-0.19
-0.2
-0.17
-0.14
-0.15
-0.16
-0.14
-0.125
-0.14
-0.12
-0.135
-0.14
-0.115
-0.13
-0.12
-0.15
-0.11
-0.15
-0.135
-0.14
-0.205
-0.175
-0.2
-0.225
-0.21
-0.21
-0.21
-0.25
-0.2
-0.24
-0.265
-0.235
-0.295
-0.32
-0.285
-0.285
-0.225
-0.23
-0.32
-0.32
-0.31
-0.365
-0.345
-0.36
-0.34
-0.33
-0.33
-0.33
-0.34
-0.31
-0.305
-0.365
-0.31
-0.33
-0.395
-0.42
-0.37
-0.32
-0.33
-0.28
-0.345
-0.34
-0.33
-0.375
-0.36
-0.34
-0.365
-0.335
-0.335
-0.285
-0.285
-0.325
-0.435
-0.375
-0.34
-0.34
-0.275
-0.34
-0.37
-0.36
-0.36
-0.325
-0.34
-0.38
-0.4
-0.37
-0.345
-0.36
-0.32
-0.315
-0.335
-0.34
-0.38
-0.335
-0.335
-0.335
-0.32
-0.335
-0.395
-0.345
-0.34
-0.29
-0.28
-0.3
-0.38
-0.335
-0.36
-0.39
-0.49
-0.35
-0.28
-0.33
-0.33
-0.3
-0.33
-0.34
-0.345
-0.355
-0.355
-0.305
-0.315
-0.315
-0.345
-0.315
-0.325
-0.23
-0.32
-0.325
-0.345
-0.365
-0.37
-0.34
-0.345
-0.33
-0.305
-0.32
-0.345
-0.33
-0.33
-0.33
-0.315
-0.38
-0.37
-0.345
-0.24
-0.275
-0.315
-0.33
-0.3
-0.3
-0.345
-0.35
-0.345
-0.375
-0.325
-0.295
-0.285
-0.285
-0.335
-0.305
-0.29
-0.305
-0.36
-0.28
-0.31
-0.31
-0.33
-0.295
-0.29
-0.32
-0.235
-0.335
-0.34
-0.265
-0.325
-0.295
-0.315
-0.305
-0.305
-0.29
-0.3
-0.285
-0.315
-0.35
-0.35
-0.315
-0.3
-0.27
-0.325
-0.27
-0.265
-0.28
-0.275
-0.265
-0.265
-0.245
-0.24
-0.27
-0.25
-0.265
-0.295
-0.295
-0.29
-0.29
-0.24
-0.22
-0.245
-0.24
-0.205
-0.23
-0.245
-0.19
-0.25
-0.275
-0.33
-0.215
-0.215
-0.25
-0.28
-0.295
-0.275
-0.255
-0.285
-0.325
-0.395
-0.285
-0.27
-0.29
-0.29
-0.31
-0.32
-0.23
-0.325
-0.28
-0.255
-0.3
-0.315
-0.295
-0.295
-0.305
-0.325
-0.305
-0.29
-0.355
-0.35
-0.32
-0.26
-0.325
-0.335
-0.33
-0.38
-0.35
-0.345
-0.265
-0.305
-0.29
-0.315
-0.295
-0.28
-0.295
-0.22
-0.32
-0.29
-0.335
-0.285
-0.275
-0.355
-0.365
-0.39
-0.295
-0.335
-0.375
-0.445
-0.395
-0.35
-0.265
-0.18
-0.125
0.05
0.09
0.22
0.25
0.43
0.425
0.48
0.495
0.525
0.495
0.555
0.475
0.355
0.195
0.09
0.08
0.095
0.055
-0.105
-0.25
-0.345
-0.325
-0.295
-0.275
-0.295
-0.26
-0.28
-0.24
-0.255
-0.305
-0.265
-0.26
-0.325
-0.33
-0.305
-0.355
-0.33
-0.26
-0.23
-0.295
-0.315
-0.28
-0.275
-0.3
-0.295
-0.27
-0.265
-0.25
-0.29
-0.235
-0.325
-0.285
-0.295
-0.26
-0.27
-0.265
-0.22
-0.3
-0.29
-0.315
-0.295
-0.3
-0.245
-0.225
-0.265
-0.26
-0.26
-0.22
-0.265
-0.275
-0.25
-0.28
-0.28
-0.205
-0.26
-0.315
-0.28
-0.265
-0.265
-0.285
-0.235
-0.215
-0.245
-0.275
-0.235
-0.24
-0.25
-0.255
-0.245
-0.22
-0.205
-0.24
-0.23
-0.21
-0.21
-0.23
-0.165
-0.195
-0.21
-0.205
-0.225
-0.17
-0.13
-0.165
-0.215
-0.25
-0.19
-0.195
-0.195
-0.19
-0.17
-0.18
-0.175
-0.11
-0.15
-0.12
-0.125
-0.14
-0.11
-0.12
-0.09
-0.13
-0.085
-0.07
-0.095
-0.025
0.0
-0.025
-0.065
-0.045
-0.07
-0.035
0.025
-0.075
-0.045
0.03
0.01
0.015
-0.035
-0.04
-0.065
0.005
-0.035
-0.015
-0.015
-0.08
-0.07
-0.055
-0.08
-0.165
-0.155
-0.13
-0.165
-0.145
-0.145
-0.155
-0.175
-0.195
-0.17
-0.205
-0.22
-0.245
-0.22
-0.22
-0.245
-0.21
-0.19
-0.25
-0.175
-0.22
-0.295
-0.27
-0.275
-0.275
-0.255
-0.24
-0.26
-0.26
-0.245
-0.24
-0.23
-0.26
-0.275
-0.225
-0.275
-0.28
-0.26
-0.235
-0.265
-0.255
-0.255
-0.295
-0.31
-0.26
-0.275
-0.275
-0.305
-0.275
-0.3
-0.31
-0.245
-0.3
-0.24
-0.25
-0.31
-0.285
-0.255
-0.27
-0.255
-0.275
-0.32
-0.325
-0.305
-0.275
-0.24
-0.255
-0.225
-0.27
-0.225
-0.31
-0.31
-0.28
-0.28
-0.255
-0.285
-0.265
-0.225
-0.27
-0.295
-0.27
-0.275
-0.275
-0.26
-0.27
-0.245
-0.24
-0.23
-0.3
-0.275
-0.285
-0.275
-0.3
-0.29
-0.265
-0.275
-0.295
-0.225
-0.25
-0.255
-0.245
-0.265
-0.23
-0.25
-0.285
-0.275
-0.29
-0.255
-0.25
-0.23
-0.275
-0.265
-0.24
-0.22
-0.22
-0.275
-0.235
-0.305
-0.285
-0.27
-0.27
-0.325
-0.32
-0.27
-0.215
-0.245
-0.26
-0.255
-0.25
-0.28
-0.265
-0.265
-0.285
-0.265
-0.275
-0.285
-0.24
-0.275
-0.245
-0.205
-0.205
-0.33
-0.285
-0.235
-0.225
-0.275
-0.235
-0.265
-0.245
-0.28
-0.32
-0.285
-0.24
-0.265
-0.27
-0.25
-0.275
-0.24
-0.26
-0.31
-0.215
-0.295
-0.325
-0.275
-0.3
-0.215
-0.31
-0.325
-0.275
-0.245
-0.325
-0.295
-0.255
-0.26
-0.24
-0.24
-0.275
-0.305
-0.265
-0.22
-0.27
-0.25
-0.26
-0.275
-0.24
-0.29
-0.32
-0.285
-0.245
-0.215
-0.24
-0.23
-0.25
-0.21
-0.2
-0.265
-0.26
-0.215
-0.205
-0.21
-0.235
-0.225
-0.23
-0.22
-0.185
-0.265
-0.255
-0.275
-0.245
-0.21
-0.245
-0.24
-0.21
-0.33
-0.35
-0.325
-0.31
-0.29
-0.285
-0.305
-0.305
-0.255
-0.295
-0.26
-0.285
-0.32
-0.29
-0.32
-0.335
-0.31
-0.345
-0.28
-0.245
-0.325
-0.31
-0.27
-0.295
-0.29
-0.32
-0.285
-0.315
-0.28
-0.305
-0.31
-0.295
-0.27
-0.295
-0.27
-0.295
-0.315
-0.37
-0.335
-0.34
-0.285
-0.305
-0.305
-0.345
-0.325
-0.34
-0.3
-0.42
-0.385
-0.29
-0.145
-0.04
0.07
0.19
0.295
0.37
0.435
0.48
0.555
0.565
0.6
0.595
0.635
0.495
0.4
0.205
0.13
0.12
0.09
0.035
-0.115
-0.2
-0.275
-0.31
-0.31
-0.31
-0.23
-0.235
-0.24
-0.3
-0.325
-0.28
-0.255
-0.35
-0.375
-0.315
-0.335
-0.35
-0.32
-0.28
-0.295
-0.275
-0.265
-0.24
-0.35
-0.4
-0.315
-0.3
-0.285
-0.265
-0.31
-0.19
-0.26
-0.365
-0.37
-0.325
-0.355
-0.31
-0.23
-0.27
-0.305
-0.335
-0.285
-0.31
-0.325
-0.255
-0.31
-0.335
-0.32
-0.31
-0.28
-0.275
-0.29
-0.315
-0.24
-0.26
-0.29
-0.345
-0.25
-0.265
-0.285
-0.32
-0.305
-0.335
-0.29
-0.255
-0.3
-0.295
-0.28
-0.285
-0.255
-0.175
-0.2
-0.28
-0.255
-0.22
-0.255
-0.28
-0.255
-0.255
-0.22
-0.24
-0.165
-0.195
-0.215
-0.245
-0.195
-0.255
-0.17
-0.165
-0.195
-0.28
-0.215
-0.175
-0.17
-0.155
-0.17
-0.2
-0.125
-0.135
-0.15
-0.14
-0.15
-0.085
-0.11
-0.12
-0.095
-0.13
-0.11
-0.11
-0.065
-0.055
-0.11
-0.085
-0.125
-0.055
-0.065
-0.06
-0.03
-0.025
-0.03
-0.05
-0.14
-0.09
-0.085
-0.035
-0.085
-0.115
-0.155
-0.075
-0.13
-0.135
-0.11
-0.14
-0.18
-0.175
-0.19
-0.17
-0.175
-0.14
-0.185
-0.22
-0.195
-0.225
-0.255
-0.25
-0.24
-0.215
-0.255
-0.235
-0.245
-0.27
-0.28
-0.28
-0.29
-0.295
-0.305
-0.3
-0.26
-0.265
-0.27
-0.22
-0.25
-0.25
-0.26
-0.31
-0.245
-0.275
-0.285
-0.295
-0.275
-0.255
-0.255
-0.245
-0.25
-0.265
-0.275
-0.27
-0.28
-0.31
-0.27
-0.255
-0.25
-0.235
-0.23
-0.28
-0.26
-0.305
-0.255
-0.27
-0.26
-0.29
-0.285
-0.24
-0.285
-0.275
-0.235
-0.305
-0.225
-0.28
-0.3
-0.235
-0.245
-0.305
-0.325
-0.275
-0.275
-0.25
-0.28
-0.32
-0.23
-0.25
-0.325
-0.24
-0.265
-0.33
-0.33
-0.28
-0.27
-0.32
-0.35
-0.295
-0.305
-0.245
-0.23
-0.235
-0.295
-0.27
-0.255
-0.34
-0.345
-0.315
-0.25
-0.27
-0.27
-0.285
-0.325
-0.275
-0.28
-0.24
-0.245
-0.345
-0.33
-0.305
-0.24
-0.295
-0.26
-0.31
-0.275
-0.26
-0.235
-0.235
-0.305
-0.28
-0.23
-0.255
-0.215
-0.265
-0.29
-0.265
-0.255
-0.28
-0.275
-0.235
-0.29
-0.255
-0.235
-0.28
-0.27
-0.315
-0.23
-0.28
-0.28
-0.27
-0.225
-0.3
-0.28
-0.275
-0.285
-0.24
-0.265
-0.235
-0.33
-0.3
-0.325
-0.27
-0.265
-0.245
-0.29
-0.285
-0.28
-0.24
-0.275
-0.255
-0.22
-0.265
-0.285
-0.345
-0.32
-0.28
-0.295
-0.275
-0.27
-0.285
-0.265
-0.28
-0.265
-0.225
-0.21
-0.285
-0.28
-0.305
-0.27
-0.24
-0.305
-0.26
-0.28
-0.225
-0.23
-0.25
-0.23
-0.23
-0.2
-0.235
-0.255
-0.235
-0.2
-0.2
-0.17
-0.24
-0.22
-0.19
-0.215
-0.175
-0.22
-0.25
-0.195
-0.2
-0.255
-0.225
-0.24
-0.28
-0.28
-0.285
-0.245
-0.225
-0.25
-0.265
-0.26
-0.255
-0.295
-0.285
-0.305
-0.3
-0.285
-0.25
-0.28
-0.265
-0.225
-0.275
-0.28
-0.35
-0.335
-0.25
-0.305
-0.35
-0.3
-0.315
-0.275
-0.27
-0.285
-0.3
-0.27
-0.255
-0.265
-0.28
-0.275
-0.325
-0.325
-0.285
-0.245
-0.275
-0.3
-0.29
-0.28
-0.3
-0.295
-0.285
-0.265
-0.385
-0.27
-0.295
-0.3
-0.36
-0.325
-0.35
-0.38
-0.245
-0.105
-0.005
0.105
0.185
0.34
0.465
0.525
0.565
0.62
0.67
0.615
0.69
0.665
0.59
0.445
0.28
0.1
0.155
0.175
0.03
-0.13
-0.25
-0.285
-0.265
-0.285
-0.275
-0.255
-0.26
-0.25
-0.245
-0.29
-0.31
-0.24
-0.23
-0.33
-0.28
-0.315
-0.29
-0.275
-0.285
-0.315
-0.28
-0.305
-0.3
-0.25
-0.235
-0.225
-0.26
-0.315
-0.325
-0.295
-0.34
-0.285
-0.24
-0.26
-0.255
-0.275
-0.28
-0.3
-0.285
-0.305
-0.275
-0.245
-0.31
-0.29
-0.29
-0.265
-0.275
-0.31
-0.28
-0.275
-0.24
-0.27
-0.245
-0.195
-0.27
-0.245
-0.3
-0.285
-0.34
-0.285
-0.25
-0.245
-0.265
-0.305
-0.25
-0.21
-0.29
-0.28
-0.275
-0.245
-0.23
-0.22
-0.23
-0.215
-0.225
-0.205
-0.2
-0.195
-0.265
-0.265
-0.255
-0.265
-0.225
-0.175
-0.205
-0.2
-0.23
-0.205
-0.235
-0.225
-0.19
-0.15
-0.155
-0.17
-0.17
-0.16
-0.175
-0.19
-0.17
-0.15
-0.155
-0.15
-0.15
-0.17
-0.095
-0.1
-0.065
-0.09
-0.05
-0.09
-0.07
-0.07
-0.105
-0.055
-0.035
0.025
-0.015
-0.015
-0.03
-0.08
-0.055
-0.02
-0.055
-0.07
-0.085
-0.1
-0.08
-0.105
-0.165
-0.07
-0.155
-0.115
-0.145
-0.105
-0.16
-0.13
-0.13
-0.205
-0.205
-0.215
-0.22
-0.185
-0.205
-0.255
-0.22
-0.195
-0.225
-0.24
-0.275
-0.31
-0.245
-0.23
-0.295
-0.27
-0.265
-0.26
-0.245
-0.225
-0.225
-0.255
-0.25
-0.245
-0.24
-0.23
-0.31
-0.295
-0.22
-0.245
-0.27
-0.25
-0.285
-0.28
-0.225
-0.23
-0.275
-0.275
-0.25
-0.27
-0.275
-0.275
-0.265
-0.245
-0.23
-0.215
-0.235
-0.225
-0.24
-0.28
-0.265
-0.305
-0.275
-0.26
-0.25
-0.225
-0.27
-0.32
-0.235
-0.225
-0.285
-0.315
-0.275
-0.24
-0.265
-0.295
-0.295
-0.315
-0.36
-0.27
-0.245
-0.28
-0.27
-0.285
-0.29
-0.24
-0.265
-0.255
-0.25
-0.26
-0.335
-0.305
-0.25
-0.31
-0.28
-0.275
-0.25
-0.25
-0.26
-0.245
-0.25
-0.32
-0.28
-0.26
-0.235
-0.225
-0.23
-0.285
-0.265
-0.29
-0.265
-0.28
-0.255
-0.245
-0.255
-0.215
-0.3
-0.255
-0.245
-0.28
-0.29
-0.295
-0.315
-0.28
-0.245
-0.26
-0.215
-0.275
-0.285
-0.27
-0.22
-0.25
-0.26
-0.235
-0.305
-0.27
-0.26
-0.205
-0.21
-0.295
-0.27
-0.235
-0.19
-0.225
-0.235
-0.26
-0.205
-0.275
-0.22
-0.19
-0.27
-0.245
-0.24
-0.195
-0.2
-0.25
-0.26
-0.255
-0.24
-0.17
-0.22
-0.305
-0.28
-0.25
-0.215
-0.235
-0.22
-0.215
-0.16
-0.23
-0.21
-0.21
-0.195
-0.215
-0.265
-0.195
-0.205
-0.16
-0.22
-0.28
-0.235
-0.175
-0.175
-0.195
-0.17
-0.165
-0.255
-0.21
-0.22
-0.275
-0.19
-0.26
-0.235
-0.2
-0.2
-0.215
-0.22
-0.24
-0.21
-0.23
-0.255
-0.205
-0.21
-0.2
-0.22
-0.215
-0.22
-0.18
-0.195
-0.18
-0.245
-0.26
-0.225
-0.185
-0.235
-0.22
-0.23
-0.21
-0.24
-0.205
-0.21
-0.18
-0.175
-0.145
-0.23
-0.27
-0.185
-0.235
-0.15
-0.18
-0.22
-0.245
-0.215
-0.195
-0.195
-0.165
-0.165
-0.165
-0.165
-0.135
-0.14
-0.22
-0.16
-0.045
-0.135
-0.21
-0.145
-0.145
-0.145
-0.14
-0.115
-0.12
-0.16
-0.165
-0.155
-0.185
-0.185
-0.215
-0.24
-0.225
-0.21
-0.205
-0.195
-0.195
-0.21
-0.24
-0.215
-0.23
-0.205
-0.215
-0.235
-0.205
-0.205
-0.215
-0.19
-0.19
-0.21
-0.24
-0.22
-0.22
-0.225
-0.195
-0.245
-0.265
-0.205
-0.205
-0.205
-0.24
-0.26
-0.21
-0.2
-0.22
-0.215
-0.155
-0.185
-0.185
-0.23
-0.235
-0.215
-0.23
-0.195
-0.185
-0.19
-0.19
-0.225
-0.21
-0.235
-0.25
-0.27
-0.255
-0.19
-0.085
0.045
0.18
0.275
0.37
0.475
0.575
0.63
0.695
0.695
0.78
0.755
0.755
0.685
0.635
0.46
0.355
0.3
0.21
0.225
0.155
-0.015
-0.09
-0.095
-0.09
-0.11
-0.085
-0.09
-0.065
-0.07
-0.05
-0.065
-0.08
-0.12
-0.08
-0.045
-0.14
-0.165
-0.17
-0.155
-0.095
-0.155
-0.1
-0.02
-0.11
-0.09
-0.105
-0.115
-0.12
-0.1
-0.07
-0.095
-0.12
-0.065
-0.12
-0.1
-0.08
-0.07
-0.11
-0.16
-0.11
-0.035
-0.035
-0.09
-0.11
-0.095
-0.08
-0.06
-0.05
-0.035
-0.035
-0.065
-0.085
-0.125
-0.065
-0.07
-0.04
-0.105
-0.09
-0.07
-0.045
-0.09
-0.085
-0.045
-0.08
-0.035
-0.075
-0.045
-0.055
-0.055
-0.035
-0.02
0.005
-0.03
-0.06
0.0
-0.035
-0.035
-0.04
-0.045
-0.015
-0.015
0.035
-0.045
-0.035
-0.03
-0.07
0.03
0.03
-0.005
-0.02
0.005
0.02
0.03
0.055
0.03
0.06
0.055
0.08
0.04
0.095
0.075
0.14
0.13
0.115
0.075
0.035
0.085
0.08
0.135
0.125
0.14
0.145
0.19
0.14
0.155
0.17
0.165
0.195
0.155
0.165
0.16
0.16
0.15
0.15
0.12
0.18
0.155
0.12
0.11
0.115
0.11
0.095
0.065
0.07
0.035
0.08
-0.005
0.025
0.06
-0.01
-0.01
0.015
0.005
-0.01
-0.075
-0.07
-0.065
-0.065
-0.03
-0.005
-0.01
-0.105
-0.075
-0.075
-0.08
-0.07
-0.035
-0.03
-0.12
-0.115
-0.055
-0.055
-0.085
-0.105
-0.115
-0.06
-0.025
-0.03
-0.045
-0.085
-0.065
-0.125
-0.105
-0.06
-0.13
-0.085
-0.1
-0.07
-0.055
-0.05
-0.075
-0.06
-0.08
-0.12
-0.09
-0.13
-0.09
-0.08
-0.11
-0.035
-0.06
-0.06
-0.105
-0.1
-0.13
-0.14
-0.13
-0.075
-0.07
-0.13
-0.1
-0.07
-0.105
-0.11
-0.1
-0.045
-0.085
-0.105
-0.085
-0.11
-0.08
-0.08
-0.12
-0.11
-0.12
-0.105
-0.1
-0.055
-0.1
-0.125
-0.105
-0.11
-0.07
-0.105
-0.13
-0.07
-0.075
-0.095
-0.11
-0.1
-0.08
-0.11
-0.095
-0.125
-0.11
-0.055
-0.065
-0.035
-0.02
-0.06
-0.14
-0.145
-0.105
-0.1
-0.13
-0.17
-0.09
-0.1
-0.115
-0.02
-0.045
-0.065
-0.14
-0.115
-0.07
-0.09
-0.095
-0.115
-0.08
-0.08
-0.095
-0.11
-0.08
-0.065
-0.09
-0.095
-0.12
-0.12
-0.09
-0.05
-0.08
-0.12
-0.08
-0.1
-0.095
-0.075
-0.085
-0.125
-0.1
-0.095
-0.125
-0.105
-0.14
-0.1
-0.11
-0.09
-0.125
-0.16
-0.11
-0.07
-0.085
-0.095
-0.125
-0.1
-0.095
-0.085
-0.08
-0.075
-0.095
-0.065
-0.09
-0.08
-0.1
-0.13
-0.135
-0.125
-0.095
-0.175
-0.085
-0.085
-0.09
-0.13
-0.115
-0.14
-0.11
-0.125
-0.105
-0.095
-0.13
-0.115
-0.13
-0.08
-0.145
-0.05
-0.13
-0.115
-0.105
-0.16
-0.145
-0.11
-0.12
-0.085
-0.09
-0.125
-0.13
-0.095
-0.115
-0.195
-0.11
-0.13
-0.085
-0.08
-0.06
-0.105
-0.145
-0.08
-0.09
-0.07
-0.115
-0.12
-0.075
-0.085
-0.12
-0.09
-0.1
-0.085
-0.05
-0.06
-0.06
-0.03
-0.07
-0.11
-0.115
-0.07
-0.075
-0.08
-0.065
-0.01
-0.05
-0.06
-0.135
-0.06
-0.1
-0.11
-0.105
-0.1
-0.115
-0.11
-0.1
-0.085
-0.11
-0.095
-0.1
-0.105
-0.155
-0.11
-0.16
-0.125
-0.14
-0.18
-0.12
-0.135
-0.105
-0.115
-0.145
-0.14
-0.145
-0.11
-0.16
-0.18
-0.105
-0.18
-0.125
-0.1
-0.215
-0.185
-0.19
-0.16
-0.1
-0.12
-0.165
-0.15
-0.155
-0.155
-0.155
-0.125
-0.15
-0.15
-0.095
-0.13
-0.205
-0.16
-0.11
-0.125
-0.14
-0.135
-0.155
-0.165
-0.16
-0.24
-0.265
-0.235
-0.145
-0.09
0.05
0.13
0.28
0.4
0.435
0.55
0.695
0.63
0.71
0.75
0.685
0.745
0.625
0.505
0.37
0.305
0.295
0.25
0.225
0.09
-0.115
-0.19
-0.225
-0.18
-0.12
-0.035
-0.07
-0.115
-0.195
-0.125
-0.12
-0.135
-0.145
-0.115
-0.125
-0.195
-0.14
-0.195
-0.175
-0.115
-0.175
-0.17
-0.175
-0.18
-0.14
-0.12
-0.18
-0.175
-0.15
-0.19
-0.175
-0.155
-0.15
-0.16
-0.135
-0.155
-0.125
-0.16
-0.17
-0.16
-0.145
-0.145
-0.15
-0.22
-0.175
-0.155
-0.135
-0.165
-0.09
-0.21
-0.14
-0.13
-0.22
-0.16
-0.16
-0.205
-0.2
-0.155
-0.125
-0.145
-0.195
-0.21
-0.155
-0.15
-0.15
-0.135
-0.125
-0.125
-0.125
-0.145
-0.135
-0.115
-0.095
-0.16
-0.085
-0.125
-0.08
-0.08
-0.135
-0.13
-0.135
-0.195
-0.15
-0.115
-0.105
-0.085
-0.065
-0.11
-0.115
-0.13
-0.1
-0.11
-0.105
-0.035
-0.085
-0.12
-0.045
-0.055
-0.045
-0.03
-0.03
-0.005
0.055
0.005
-0.06
-0.045
-0.015
0.015
0.07
0.025
0.005
-0.035
0.08
0.06
0.08
0.095
0.095
0.13
0.075
0.035
0.06
0.025
0.045
0.05
0.105
0.065
0.07
0.04
0.025
-0.045
-0.06
-0.06
-0.025
0.015
0.005
-0.105
-0.105
-0.055
-0.11
-0.095
-0.115
-0.105
-0.145
-0.095
-0.135
-0.15
-0.185
-0.115
-0.13
-0.105
-0.19
-0.17
-0.095
-0.135
-0.16
-0.1
-0.09
-0.155
-0.195
-0.23
-0.245
-0.2
-0.18
-0.155
-0.2
-0.22
-0.21
-0.185
-0.185
-0.165
-0.215
-0.21
-0.14
-0.215
-0.195
-0.115
-0.175
-0.19
-0.19
-0.185
-0.205
-0.21
-0.215
-0.17
-0.22
-0.22
-0.2
-0.175
-0.215
-0.15
-0.185
-0.175
-0.235
-0.225
-0.215
-0.135
-0.165
-0.21
-0.17
-0.12
-0.115
-0.18
-0.185
-0.205
-0.23
-0.285
-0.24
-0.2
-0.165
-0.225
-0.2
-0.165
-0.22
-0.215
-0.205
-0.23
-0.205
-0.215
-0.21
-0.18
-0.245
-0.21
-0.165
-0.22
-0.19
-0.18
-0.145
-0.215
-0.205
-0.175
-0.21
-0.18
-0.175
-0.205
-0.19
-0.22
-0.215
-0.17
-0.18
-0.215
-0.22
-0.23
-0.21
-0.195
-0.185
-0.16
-0.225
-0.205
-0.095
-0.145
-0.185
-0.195
-0.135
-0.21
-0.205
-0.175
-0.14
-0.155
-0.225
-0.24
-0.23
-0.13
-0.16
-0.11
-0.13
-0.17
-0.16
-0.145
-0.165
-0.195
-0.175
-0.165
-0.18
-0.12
-0.145
-0.175
-0.17
-0.17
-0.18
-0.265
-0.205
-0.225
-0.17
-0.215
-0.185
-0.165
-0.145
-0.205
-0.2
-0.16
-0.125
-0.165
-0.205
-0.19
-0.17
-0.175
-0.215
-0.205
-0.175
-0.195
-0.14
-0.23
-0.175
-0.21
-0.165
-0.16
-0.2
-0.175
-0.135
-0.11
-0.16
-0.165
-0.15
-0.22
-0.16
-0.14
-0.19
-0.14
-0.16
-0.175
-0.18
-0.14
-0.175
-0.23
-0.145
-0.13
-0.225
-0.23
-0.15
-0.14
-0.21
-0.18
-0.135
-0.165
-0.165
-0.135
-0.16
-0.24
-0.175
-0.16
-0.125
-0.16
-0.165
-0.16
-0.155
-0.14
-0.13
-0.17
-0.21
-0.155
-0.135
-0.16
-0.22
-0.195
-0.15
-0.15
-0.185
-0.205
-0.205
-0.22
-0.21
-0.215
-0.19
-0.135
-0.18
-0.21
-0.19
-0.165
-0.155
-0.145
-0.14
-0.22
-0.145
-0.13
-0.16
-0.145
-0.11
-0.18
-0.145
-0.19
-0.155
-0.19
-0.2
-0.2
-0.165
-0.11
-0.155
-0.155
-0.145
-0.11
-0.11
-0.115
-0.075
-0.105
-0.1
-0.09
-0.09
-0.055
-0.065
-0.14
-0.05
-0.09
-0.11
-0.09
-0.115
-0.1
-0.075
-0.065
-0.09
-0.11
-0.095
-0.135
-0.14
-0.235
-0.14
-0.19
-0.2
-0.16
-0.07
-0.125
-0.19
-0.205
-0.215
-0.225
-0.19
-0.2
-0.135
-0.155
-0.255
-0.24
-0.18
-0.2
-0.115
-0.105
-0.105
-0.21
-0.19
-0.2
-0.165
-0.205
-0.22
-0.18
-0.22
-0.21
-0.11
-0.235
-0.19
-0.2
-0.155
-0.205
-0.19
-0.225
-0.2
-0.115
-0.14
-0.185
-0.21
-0.21
-0.245
-0.24
-0.205
-0.225
-0.21
-0.255
-0.28
-0.21
-0.11
-0.025
0.12
0.195
0.335
0.435
0.59
0.65
0.665
0.72
0.805
0.82
0.81
0.79
0.82
0.645
0.4
0.325
0.27
0.265
0.19
0.085
-0.085
-0.2
-0.23
-0.19
-0.16
-0.095
-0.11
-0.12
-0.165
-0.125
-0.12
-0.135
-0.2
-0.205
-0.205
-0.23
-0.19
-0.2
-0.235
-0.18
-0.19
-0.205
-0.205
-0.225
-0.185
-0.195
-0.175
-0.215
-0.19
-0.2
-0.18
-0.145
-0.17
-0.165
-0.195
-0.155
-0.17
-0.21
-0.215
-0.225
-0.205
-0.12
-0.115
-0.14
-0.135
-0.18
-0.18
-0.105
-0.085
-0.125
-0.2
-0.29
-0.135
-0.155
-0.14
-0.1
-0.06
-0.14
-0.19
-0.275
-0.25
-0.19
-0.175
-0.14
-0.085
-0.12
-0.17
-0.14
-0.175
-0.19
-0.16
-0.15
-0.155
-0.17
-0.125
-0.19
-0.205
-0.145
-0.085
-0.09
-0.105
-0.12
-0.125
-0.135
-0.11
-0.1
-0.125
-0.095
-0.125
-0.095
-0.08
-0.085
-0.11
-0.105
-0.11
-0.11
-0.06
-0.065
-0.04
-0.055
-0.035
-0.1
-0.095
-0.035
0.025
0.055
0.01
-0.045
-0.015
0.04
0.07
-0.035
0.02
0.03
0.025
0.045
-0.025
-0.015
0.08
0.075
0.03
0.0
0.055
0.04
0.015
0.04
0.005
0.015
0.07
0.025
0.03
0.0
-0.085
0.015
-0.03
-0.075
-0.055
-0.07
-0.095
-0.075
-0.115
-0.11
-0.09
-0.125
-0.21
-0.17
-0.13
-0.14
-0.205
-0.18
-0.175
-0.19
-0.185
-0.19
-0.23
-0.24
-0.145
-0.13
-0.175
-0.19
-0.125
-0.145
-0.145
-0.17
-0.145
-0.2
-0.175
-0.145
-0.14
-0.19
-0.22
-0.21
-0.255
-0.22
-0.245
-0.175
-0.145
-0.18
-0.26
-0.155
-0.155
-0.11
-0.215
-0.245
-0.18
-0.16
-0.245
-0.245
-0.185
-0.21
-0.21
-0.25
-0.205
-0.19
-0.14
-0.165
-0.16
-0.235
-0.205
-0.21
-0.17
-0.18
-0.18
-0.245
-0.19
-0.17
-0.24
-0.245
-0.165
-0.215
-0.23
-0.195
-0.235
-0.175
-0.205
-0.235
-0.235
-0.225
-0.22
-0.245
-0.245
-0.22
-0.195
-0.18
-0.205
-0.245
-0.225
-0.22
-0.235
-0.2
-0.155
-0.215
-0.21
-0.22
-0.22
-0.2
-0.13
-0.195
-0.22
-0.235
-0.185
-0.2
-0.19
-0.21
-0.255
-0.295
-0.295
-0.175
-0.145
-0.125
-0.1
-0.225
-0.215
-0.2
-0.205
-0.185
-0.21
-0.255
-0.22
-0.165
-0.225
-0.225
-0.215
-0.185
-0.205
-0.185
-0.23
-0.26
-0.16
-0.215
-0.185
-0.205
-0.235
-0.23
-0.175
-0.2
-0.185
-0.18
-0.165
-0.125
-0.155
-0.205
-0.14
-0.245
-0.195
-0.255
-0.305
-0.27
-0.125
-0.14
-0.14
-0.17
-0.21
-0.21
-0.21
-0.225
-0.23
-0.205
-0.23
-0.225
-0.205
-0.195
-0.175
-0.215
-0.23
-0.2
-0.23
-0.24
-0.235
-0.215
-0.185
-0.235
-0.225
-0.195
-0.165
-0.205
-0.225
-0.27
-0.215
-0.175
-0.15
-0.23
-0.25
-0.165
-0.14
-0.18
-0.11
-0.175
-0.245
-0.22
-0.205
-0.28
-0.25
-0.23
-0.185
-0.2
-0.2
-0.22
-0.2
-0.195
-0.165
-0.23
-0.225
-0.24
-0.215
-0.25
-0.225
-0.185
-0.23
-0.225
-0.21
-0.205
-0.19
-0.175
-0.235
-0.2
-0.135
-0.145
-0.135
-0.225
-0.19
-0.195
-0.245
-0.245
-0.24
-0.21
-0.13
-0.165
-0.19
-0.205
-0.205
-0.2
-0.225
-0.23
-0.24
-0.26
-0.175
-0.19
-0.225
-0.25
-0.24
-0.195
-0.195
-0.18
-0.21
-0.205
-0.225
-0.18
-0.145
-0.21
-0.175
-0.21
-0.155
-0.19
-0.23
-0.215
-0.225
-0.25
-0.22
-0.2
-0.22
-0.175
-0.13
-0.17
-0.195
-0.19
-0.25
-0.225
-0.125
-0.18
-0.175
-0.2
-0.145
-0.24
-0.17
-0.155
-0.135
-0.215
-0.17
-0.115
-0.135
-0.13
-0.1
-0.145
-0.135
-0.135
-0.145
-0.17
-0.17
-0.155
-0.155
-0.205
-0.21
-0.185
-0.19
-0.15
-0.18
-0.215
-0.255
-0.21
-0.19
-0.175
-0.225
-0.245
-0.195
-0.195
-0.205
-0.215
-0.215
-0.18
-0.25
-0.245
-0.205
-0.225
-0.16
-0.245
-0.21
-0.205
-0.24
-0.21
-0.23
-0.22
-0.21
-0.225
-0.235
-0.21
-0.145
-0.23
-0.24
-0.275
-0.26
-0.2
-0.21
-0.235
-0.23
-0.235
-0.205
-0.17
-0.205
-0.225
-0.25
-0.27
-0.245
-0.305
-0.3
-0.25
-0.16
-0.065
0.075
0.23
0.33
0.45
0.53
0.525
0.64
0.68
0.69
0.725
0.705
0.645
0.6
0.42
0.29
0.22
0.155
0.15
0.085
-0.125
-0.245
-0.245
-0.21
-0.21
-0.19
-0.195
-0.15
-0.185
-0.16
-0.205
-0.215
-0.225
-0.21
-0.18
-0.21
-0.165
-0.235
-0.215
-0.23
-0.25
-0.25
-0.265
-0.24
-0.255
-0.195
-0.235
-0.22
-0.225
-0.235
-0.205
-0.225
-0.3
-0.225
-0.215
-0.2
-0.135
-0.16
-0.195
-0.21
-0.19
-0.205
-0.2
-0.195
-0.21
-0.13
-0.165
-0.26
-0.25
-0.265
-0.195
-0.17
-0.28
-0.24
-0.225
-0.2
-0.21
-0.235
-0.195
-0.235
-0.13
-0.14
-0.165
-0.14
-0.205
-0.15
-0.2
-0.22
-0.19
-0.21
-0.23
-0.16
-0.18
-0.18
-0.155
-0.165
-0.185
-0.21
-0.155
-0.12
-0.15
-0.13
-0.175
-0.165
-0.155
-0.15
-0.125
-0.13
-0.13
-0.085
-0.115
-0.16
-0.145
-0.115
-0.08
-0.11
-0.145
-0.09
-0.075
-0.065
-0.07
-0.075
-0.04
-0.06
-0.09
-0.035
-0.02
-0.05
-0.115
-0.085
0.025
0.005
0.02
0.01
-0.015
0.025
0.0
0.03
0.02
0.01
-0.025
0.025
0.02
0.015
-0.01
-0.02
0.03
0.085
0.015
-0.06
-0.025
-0.055
-0.095
-0.06
-0.07
-0.065
-0.135
-0.14
-0.06
-0.115
-0.085
-0.08
-0.095
-0.135
-0.15
-0.2
-0.105
-0.205
-0.175
-0.175
-0.17
-0.155
-0.19
-0.18
-0.195
-0.205
-0.235
-0.27
-0.22
-0.22
-0.195
-0.19
-0.165
-0.19
-0.18
-0.19
-0.215
-0.22
-0.175
-0.235
-0.22
-0.265
-0.27
-0.23
-0.195
-0.175
-0.095
-0.245
-0.185
-0.19
-0.23
-0.185
-0.225
-0.245
-0.22
-0.195
-0.205
-0.2
-0.195
-0.275
-0.265
-0.23
-0.225
-0.23
-0.235
-0.22
-0.17
-0.195
-0.24
-0.24
-0.24
-0.235
-0.22
-0.21
-0.23
-0.245
-0.21
-0.245
-0.225
-0.225
-0.22
-0.215
-0.21
-0.235
-0.235
-0.255
-0.25
-0.235
-0.215
-0.215
-0.23
-0.22
-0.185
-0.25
-0.225
-0.205
-0.31
-0.255
-0.23
-0.2
-0.245
-0.225
-0.19
-0.19
-0.27
-0.245
-0.235
-0.195
-0.195
-0.235
-0.23
-0.245
-0.255
-0.165
-0.145
-0.21
-0.2
-0.215
-0.225
-0.255
-0.245
-0.2
-0.19
-0.23
-0.215
-0.21
-0.22
-0.25
-0.225
-0.125
-0.285
-0.275
-0.19
-0.215
-0.2
-0.205
-0.255
-0.245
-0.19
-0.22
-0.25
-0.225
-0.24
-0.2
-0.22
-0.21
-0.2
-0.24
-0.28
-0.225
-0.215
-0.235
-0.265
-0.23
-0.245
-0.19
-0.23
-0.14
-0.2
-0.19
-0.19
-0.27
-0.275
-0.215
-0.225
-0.23
-0.26
-0.22
-0.21
-0.18
-0.18
-0.215
-0.245
-0.255
-0.255
-0.28
-0.3
-0.2
-0.225
-0.175
-0.21
-0.285
-0.25
-0.21
-0.23
-0.21
-0.22
-0.225
-0.23
-0.245
-0.2
-0.21
-0.225
-0.255
-0.18
-0.205
-0.205
-0.195
-0.27
-0.25
-0.205
-0.22
-0.27
-0.185
-0.17
-0.25
-0.235
-0.265
-0.235
-0.215
-0.235
-0.17
-0.22
-0.24
-0.255
-0.225
-0.205
-0.21
-0.18
-0.195
-0.15
-0.22
-0.225
-0.225
-0.135
-0.135
-0.2
-0.2
-0.155
-0.165
-0.135
-0.185
-0.245
-0.175
-0.16
-0.18
-0.23
-0.225
-0.25
-0.235
-0.28
-0.24
-0.195
-0.165
-0.225
-0.25
-0.28
-0.24
-0.245
-0.28
-0.255
-0.255
-0.295
-0.25
-0.245
-0.27
-0.255
-0.235
-0.275
-0.225
-0.25
-0.245
-0.26
-0.2
-0.23
-0.19
-0.22
-0.235
-0.225
-0.205
-0.205
-0.25
-0.275
-0.33
-0.245
-0.275
-0.23
-0.285
-0.27
-0.24
-0.19
-0.215
-0.265
-0.22
-0.285
-0.29
-0.285
-0.33
-0.34
-0.295
-0.255
-0.15
-0.01
0.015
0.12
0.295
0.375
0.465
0.515
0.535
0.595
0.59
0.575
0.595
0.595
0.535
0.335
0.295
0.235
0.15
0.14
0.055
-0.13
-0.265
-0.215
-0.215
-0.215
-0.205
-0.16
-0.18
-0.22
-0.21
-0.265
-0.22
-0.19
-0.2
-0.305
-0.295
-0.24
-0.2
-0.215
-0.23
-0.255
-0.29
-0.245
-0.24
-0.235
-0.24
-0.245
-0.26
-0.265
-0.145
-0.25
-0.24
-0.28
-0.255
-0.24
-0.265
-0.285
-0.21
-0.27
-0.25
-0.19
-0.24
-0.235
-0.21
-0.22
-0.245
-0.19
-0.215
-0.185
-0.19
-0.2
-0.32
-0.235
-0.26
-0.125
-0.145
-0.2
-0.23
-0.265
-0.195
-0.22
-0.155
-0.2
-0.225
-0.28
-0.195
-0.215
-0.21
-0.19
-0.195
-0.245
-0.285
-0.23
-0.325
-0.23
-0.065
-0.185
-0.165
-0.195
-0.17
-0.21
-0.21
-0.16
-0.12
-0.175
-0.125
-0.16
-0.185
-0.255
-0.215
-0.135
-0.14
-0.16
-0.165
-0.15
-0.13
-0.125
-0.15
-0.025
-0.07
-0.06
-0.11
-0.075
-0.045
-0.005
0.005
-0.065
-0.035
-0.03
-0.03
-0.05
-0.04
-0.03
-0.015
-0.025
-0.065
0.02
0.015
0.03
-0.01
0.025
0.06
-0.02
0.045
0.04
0.01
0.01
0.025
-0.06
-0.05
-0.005
-0.065
-0.105
-0.04
-0.015
-0.06
-0.095
-0.11
-0.12
-0.115
-0.15
-0.145
-0.155
-0.155
-0.105
-0.185
-0.135
-0.16
-0.215
-0.25
-0.19
-0.16
-0.17
-0.145
-0.145
-0.225
-0.21
-0.13
-0.135
-0.175
-0.2
-0.215
-0.175
-0.2
-0.215
-0.18
-0.165
-0.205
-0.16
-0.23
-0.15
-0.19
-0.16
-0.225
-0.17
-0.13
-0.12
-0.19
-0.19
-0.205
-0.19
-0.235
-0.23
-0.21
-0.17
-0.205
-0.195
-0.175
-0.2
-0.225
-0.17
-0.19
-0.185
-0.21
-0.21
-0.165
-0.175
-0.175
-0.195
-0.215
-0.23
-0.13
-0.18
-0.18
-0.215
-0.21
-0.16
-0.115
-0.19
-0.18
-0.19
-0.24
-0.215
-0.25
-0.15
-0.16
-0.14
-0.215
-0.185
-0.15
-0.17
-0.205
-0.195
-0.23
-0.205
-0.185
-0.31
-0.25
-0.185
-0.18
-0.24
-0.215
-0.19
-0.185
-0.21
-0.17
-0.225
-0.195
-0.18
-0.2
-0.175
-0.2
-0.185
-0.2
-0.27
-0.185
-0.2
-0.22
-0.185
-0.145
-0.175
-0.185
-0.155
-0.155
-0.21
-0.26
-0.235
-0.18
-0.12
-0.135
-0.185
-0.155
-0.18
-0.2
-0.2
-0.12
-0.15
-0.17
-0.245
-0.195
-0.215
-0.18
-0.205
-0.165
-0.205
-0.155
-0.2
-0.15
-0.205
-0.21
-0.21
-0.175
-0.185
-0.165
-0.205
-0.155
-0.185
-0.125
-0.165
-0.155
-0.125
-0.2
-0.195
-0.145
-0.17
-0.2
-0.175
-0.15
-0.13
-0.165
-0.2
-0.13
-0.155
-0.15
-0.12
-0.15
-0.11
-0.095
-0.11
-0.165
-0.155
-0.145
-0.14
-0.155
-0.17
-0.125
-0.085
-0.12
-0.215
-0.18
-0.12
-0.085
-0.085
-0.175
-0.19
-0.11
-0.19
-0.145
-0.125
-0.12
-0.105
-0.11
-0.14
-0.07
-0.145
-0.12
-0.17
-0.095
-0.095
-0.065
-0.115
-0.15
-0.08
-0.145
-0.1
-0.05
-0.095
-0.15
-0.165
-0.16
-0.135
-0.11
-0.1
-0.14
-0.11
-0.09
-0.065
-0.12
-0.1
-0.025
-0.095
-0.095
-0.09
-0.135
-0.04
-0.045
-0.095
-0.09
-0.08
-0.045
-0.035
-0.07
-0.095
-0.07
-0.15
-0.155
-0.17
-0.14
-0.175
-0.13
-0.17
-0.16
-0.165
-0.075
-0.16
-0.155
-0.155
-0.125
-0.07
-0.165
-0.195
-0.145
-0.18
-0.14
-0.155
-0.17
-0.155
-0.18
-0.185
-0.155
-0.19
-0.15
-0.165
-0.2
-0.14
-0.17
-0.17
-0.18
-0.215
-0.235
-0.185
-0.19
-0.155
-0.165
-0.18
-0.22
-0.19
-0.205
-0.19
-0.18
-0.19
-0.22
-0.21
-0.205
-0.245
-0.285
-0.27
-0.265
-0.18
-0.08
0.105
0.15
0.26
0.395
0.5
0.52
0.545
0.65
0.705
0.7
0.68
0.755
0.675
0.56
0.42
0.305
0.26
0.275
0.24
0.075
-0.12
-0.23
-0.215
-0.215
-0.165
-0.21
-0.215
-0.14
-0.175
-0.23
-0.245
-0.195
-0.205
-0.28
-0.23
-0.215
-0.28
-0.285
-0.28
-0.315
-0.255
-0.29
-0.23
-0.32
-0.31
-0.3
-0.31
-0.28
-0.295
-0.32
-0.305
-0.3
-0.31
-0.385
-0.34
-0.345
-0.29
-0.305
-0.37
-0.32
-0.345
-0.285
-0.35
-0.33
-0.39
-0.415
-0.42
-0.43
-0.43
-0.51
-0.435
-0.45
-0.485
-0.445
-0.47
-0.52
-0.515
-0.535
-0.53
-0.555
-0.565
-0.545
-0.55
-0.52
-0.53
-0.535
-0.53
-0.56
-0.63
-0.635
-0.495
-0.565
-0.55
-0.525
-0.52
-0.635
-0.6
-0.645
-0.64
-0.595
-0.59
-0.6
-0.58
-0.61
-0.62
-0.615
-0.575
-0.58
-0.57
-0.595
-0.605
-0.595
-0.6
-0.59
-0.585
-0.57
-0.55
-0.54
-0.595
-0.555
-0.535
-0.555
-0.575
-0.48
-0.59
-0.62
-0.485
-0.38
-0.48
-0.475
-0.46
-0.48
-0.485
-0.465
-0.44
-0.385
-0.475
-0.495
-0.435
-0.455
-0.47
-0.48
-0.445
-0.47
-0.465
-0.535
-0.525
-0.55
-0.535
-0.565
-0.575
-0.62
-0.635
-0.7
-0.715
-0.715
-0.765
-0.755
-0.78
-0.81
-0.89
-0.85
-0.915
-0.89
-0.945
-0.935
-0.955
-0.99
-1.005
-1.035
-1.1
-1.105
-0.995
-1.005
-1.055
-1.1
-1.115
-1.105
-1.21
-1.16
-1.22
-1.235
-1.225
-1.17
-1.245
-1.23
-1.3
-1.295
-1.37
-1.35
-1.38
-1.285
-1.325
-1.33
-1.405
-1.455
-1.425
-1.495
-1.455
-1.44
-1.445
-1.435
-1.55
-1.52
-1.555
-1.485
-1.54
-1.545
-1.6
-1.6
-1.56
-1.605
-1.555
-1.635
-1.665
-1.63
-1.635
-1.635
-1.665
-1.63
-1.63
-1.625
-1.685
-1.695
-1.705
-1.7
-1.73
-1.755
-1.71
-1.665
-1.71
-1.685
-1.74
-1.87
-1.755
-1.79
-1.785
-1.74
-1.75
-1.83
-1.8
-1.775
-1.735
-1.77
-1.86
-1.885
-1.805
-1.795
-1.775
-1.82
-1.825
-1.845
-1.835
-1.84
-1.85
-1.78
-1.82
-1.87
-1.87
-1.87
-1.85
-1.815
-1.805
-1.79
-1.86
-1.815
-1.805
-1.825
-1.815
-1.845
-1.84
-1.82
-1.75
-1.855
-1.815
-1.865
-1.85
-1.82
-1.835
-1.84
-1.85
-1.93
-1.81
-1.795
-1.83
-1.835
-1.79
-1.82
-1.825
-1.795
-1.845
-1.85
-1.855
-1.83
-1.775
-1.755
-1.86
-1.775
-1.715
-1.78
-1.755
-1.755
-1.805
-1.765
-1.8
-1.77
-1.735
-1.735
-1.77
-1.785
-1.775
-1.74
-1.75
-1.73
-1.725
-1.68
-1.795
-1.77
-1.785
-1.75
-1.665
-1.74
-1.695
-1.79
-1.79
-1.7
-1.745
-1.81
-1.79
-1.695
-1.73
-1.715
-1.7
-1.735
-1.71
-1.72
-1.745
-1.69
-1.7
-1.725
-1.69
-1.685
-1.69
-1.7
-1.685
-1.68
-1.705
-1.675
-1.62
-1.645
-1.69
-1.705
-1.685
-1.69
-1.675
-1.685
-1.65
-1.645
-1.65
-1.62
-1.63
-1.625
-1.7
-1.65
-1.605
-1.57
-1.67
-1.715
-1.65
-1.665
-1.66
-1.635
-1.63
-1.67
-1.62
-1.645
-1.62
-1.6
-1.58
-1.595
-1.615
-1.56
-1.57
-1.605
-1.615
-1.57
-1.62
-1.57
-1.565
-1.55
-1.58
-1.605
-1.65
-1.645
-1.635
-1.62
-1.67
-1.67
-1.625
-1.615
-1.62
-1.68
-1.665
-1.665
-1.64
-1.615
-1.66
-1.685
-1.585
-1.655
-1.655
-1.595
-1.655
-1.67
-1.66
-1.67
-1.635
-1.68
-1.715
-1.58
-1.635
-1.7
-1.685
-1.65
-1.615
-1.64
-1.725
-1.685
-1.64
-1.635
-1.655
-1.595
-1.625
-1.655
-1.625
-1.67
-1.655
-1.62
-1.605
-1.625
-1.625
-1.59
-1.66
-1.68
-1.71
-1.72
-1.665
-1.62
-1.52
-1.38
-1.31
-1.115
-0.99
-0.975
-0.875
-0.835
-0.78
-0.735
-0.695
-0.74
-0.685
-0.74
-0.875
-1.025
-1.16
-1.2
-1.23
-1.26
-1.4
-1.52
-1.585
-1.61
-1.635
-1.62
-1.595
-1.585
-1.67
-1.59
-1.565
-1.615
-1.605
-1.575
-1.63
-1.63
-1.63
-1.62
-1.62
-1.63
-1.615
-1.61
-1.61
-1.6
-1.63
-1.595
-1.635
-1.7
-1.645
-1.625
-1.615
-1.65
-1.595
-1.615
-1.635
-1.655
-1.645
-1.58
-1.59
-1.665
-1.63
-1.63
-1.64
-1.65
-1.685
-1.665
-1.73
-1.67
-1.63
-1.615
-1.51
-1.61
-1.62
-1.59
-1.59
-1.555
-1.55
-1.555
-1.545
-1.655
-1.54
-1.55
-1.6
-1.635
-1.61
-1.625
-1.61
-1.6
-1.6
-1.615
-1.63
-1.61
-1.62
-1.625
-1.6
-1.58
-1.565
-1.58
-1.545
-1.57
-1.57
-1.605
-1.595
-1.55
-1.56
-1.57
-1.57
-1.55
-1.52
-1.57
-1.5
-1.53
-1.515
-1.515
-1.5
-1.535
-1.525
-1.58
-1.525
-1.48
-1.49
-1.48
-1.495
-1.505
-1.435
-1.385
-1.405
-1.41
-1.47
-1.455
-1.39
-1.415
-1.445
-1.385
-1.44
-1.4
-1.38
-1.36
-1.395
-1.4
-1.415
-1.38
-1.335
-1.365
-1.355
-1.345
-1.38
-1.385
-1.435
-1.45
-1.465
-1.41
-1.43
-1.465
-1.495
-1.47
-1.425
-1.49
-1.505
-1.505
-1.51
-1.565
-1.54
-1.505
-1.53
-1.56
-1.57
-1.52
-1.535
-1.565
-1.575
-1.59
-1.595
-1.63
-1.635
-1.605
-1.635
-1.58
-1.605
-1.61
-1.58
-1.605
-1.59
-1.58
-1.55
-1.57
-1.625
-1.6
-1.565
-1.54
-1.555
-1.56
-1.555
-1.6
-1.635
-1.605
-1.605
-1.595
-1.575
-1.61
-1.565
-1.525
-1.55
-1.585
-1.58
-1.625
-1.6
-1.635
-1.63
-1.585
-1.59
-1.605
-1.61
-1.68
-1.625
-1.48
-1.555
-1.585
-1.565
-1.555
-1.555
-1.515
-1.48
-1.52
-1.615
-1.64
-1.595
-1.5
-1.495
-1.545
-1.54
-1.56
-1.59
-1.575
-1.55
-1.52
-1.5
-1.485
-1.5
-1.535
-1.475
-1.485
-1.49
-1.49
-1.425
-1.43
-1.495
-1.505
-1.46
-1.49
-1.425
-1.35
-1.445
-1.44
-1.415
-1.345
-1.375
-1.34
-1.375
-1.255
-1.21
-1.35
-1.33
-1.29
-1.4
-1.43
-1.36
-1.33
-1.19
-1.205
-1.255
-1.225
-1.235
-1.265
-1.25
-1.21
-1.21
-1.225
-1.235
-1.19
-1.085
-1.045
-1.045
-1.095
-1.155
-1.13
-1.065
-1.005
-1.04
-1.02
-1.02
-1.0
-0.915
-0.94
-0.84
-0.88
-0.82
-0.86
-0.87
-0.84
-0.805
-0.85
-0.845
-0.81
-0.82
-0.685
-0.73
-0.74
-0.775
-0.805
-0.705
-0.72
-0.655
-0.69
-0.71
-0.69
-0.675
-0.675
-0.63
-0.685
-0.54
-0.57
-0.675
-0.625
-0.66
-0.635
-0.655
-0.635
-0.655
-0.525
-0.595
-0.675
-0.6
-0.57
-0.57
-0.57
-0.57
-0.56
-0.55
-0.555
-0.655
-0.525
-0.53
-0.57
-0.53
-0.545
-0.59
-0.64
-0.475
-0.515
-0.575
-0.58
-0.545
-0.53
-0.525
-0.565
-0.51
-0.535
-0.495
-0.52
-0.5
-0.49
-0.46
-0.44
-0.485
-0.525
-0.515
-0.535
-0.48
-0.55
-0.505
-0.44
-0.455
-0.44
-0.46
-0.475
-0.48
-0.48
-0.45
-0.495
-0.46
-0.435
-0.46
-0.425
-0.425
-0.395
-0.465
-0.375
-0.425
-0.49
-0.485
-0.45
-0.43
-0.43
-0.425
-0.46
-0.43
-0.45
-0.445
-0.43
-0.425
-0.49
-0.44
-0.42
-0.45
-0.535
-0.505
-0.475
-0.44
-0.45
-0.425
-0.415
-0.465
-0.45
-0.47
-0.465
-0.455
-0.46
-0.395
-0.405
-0.435
-0.39
-0.395
-0.445
-0.42
-0.445
-0.445
-0.53
-0.46
-0.42
-0.37
-0.425
-0.445
-0.44
-0.475
-0.45
-0.39
-0.455
-0.385
-0.39
-0.36
-0.4
-0.345
-0.365
-0.435
-0.435
-0.455
-0.485
-0.495
-0.475
-0.47
-0.46
-0.46
-0.415
-0.46
-0.515
-0.475
-0.49
-0.475
-0.445
-0.455
-0.4
-0.465
-0.515
-0.48
-0.495
-0.485
-0.475
-0.485
-0.53
-0.47
-0.56
-0.48
-0.48
-0.495
-0.56
-0.53
-0.445
-0.45
-0.535
-0.465
-0.485
-0.6
-0.555
-0.405
-0.455
-0.52
-0.545
-0.575
-0.49
-0.425
-0.485
-0.55
-0.605
-0.555
-0.475
-0.47
-0.49
-0.61
-0.575
-0.55
-0.61
-0.54
-0.6
-0.54
-0.325
-0.205
-0.135
-0.07
0.09
0.225
0.205
0.24
0.275
0.175
0.19
0.135
0.085
0.11
0.1
-0.135
-0.185
-0.315
-0.33
-0.465
-0.595
-0.605
-0.705
-0.685
-0.605
-0.61
-0.665
-0.72
-0.66
-0.625
-0.575
-0.64
-0.69
-0.685
-0.67
-0.735
-0.77
-0.71
-0.67
-0.695
-0.7
-0.695
-0.71
-0.69
-0.665
-0.635
-0.705
-0.685
-0.64
-0.645
-0.695
-0.715
-0.74
-0.735
-0.64
-0.645
-0.72
-0.705
-0.645
-0.705
-0.63
-0.695
-0.76
-0.7
-0.71
-0.77
-0.68
-0.71
-0.71
-0.72
-0.72
-0.745
-0.755
-0.705
-0.74
-0.615
-0.665
-0.685
-0.72
-0.715
-0.67
-0.735
-0.75
-0.665
-0.66
-0.715
-0.67
-0.74
-0.61
-0.695
-0.735
-0.69
-0.67
-0.715
-0.69
-0.675
-0.68
-0.66
-0.68
-0.69
-0.675
-0.665
-0.69
-0.695
-0.65
-0.78
-0.705
-0.625
-0.69
-0.67
-0.63
-0.62
-0.6
-0.65
-0.665
-0.56
-0.535
-0.615
-0.53
-0.545
-0.51
-0.545
-0.565
-0.53
-0.505
-0.53
-0.56
-0.455
-0.5
-0.535
-0.55
-0.495
-0.485
-0.505
-0.505
-0.415
-0.395
-0.46
-0.445
-0.435
-0.45
-0.33
-0.46
-0.515
-0.54
-0.55
-0.51
-0.455
-0.445
-0.49
-0.545
-0.585
-0.565
-0.615
-0.465
-0.57
-0.575
-0.61
-0.575
-0.61
-0.55
-0.675
-0.66
-0.78
-0.655
-0.55
-0.675
-0.625
-0.635
-0.65
-0.67
-0.755
-0.72
-0.695
-0.7
-0.675
-0.7
-0.755
-0.72
-0.705
-0.735
-0.745
-0.675
-0.74
-0.62
-0.685
-0.7
-0.72
-0.685
-0.71
-0.71
-0.73
-0.69
-0.675
-0.69
-0.705
-0.745
-0.775
-0.72
-0.73
-0.71
-0.765
-0.805
-0.8
-0.67
-0.68
-0.765
-0.715
-0.69
-0.755
-0.745
-0.69
-0.735
-0.785
-0.77
-0.73
-0.735
-0.705
-0.73
-0.75
-0.71
-0.745
-0.735
-0.73
-0.73
-0.71
-0.705
-0.69
-0.765
-0.72
-0.735
-0.815
-0.675
-0.72
-0.795
-0.775
-0.74
-0.74
-0.73
-0.665
-0.715
-0.715
-0.69
-0.725
-0.77
-0.75
-0.715
-0.745
-0.73
-0.695
-0.73
-0.71
-0.76
-0.7
-0.765
-0.735
-0.78
-0.755
-0.765
-0.75
-0.725
-0.78
-0.775
-0.715
-0.75
-0.835
-0.74
-0.7
-0.795
-0.755
-0.705
-0.76
-0.805
-0.79
-0.77
-0.695
-0.755
-0.785
-0.825
-0.705
-0.785
-0.795
-0.765
-0.69
-0.74
-0.72
-0.77
-0.705
-0.8
-0.825
-0.8
-0.735
-0.77
-0.89
-0.58
-0.72
-0.67
-0.825
-0.77
-0.85
-0.71
-0.75
-0.83
-0.64
-0.655
-0.855
-0.8
-0.8
-0.745
-0.69
-0.805
-0.875
-0.795
-0.825
-0.585
-0.735
-0.785
-0.775
-0.815
-0.8
-0.71
-0.88
-0.785
-0.765
-0.81
-0.805
-0.77
-0.695
-0.825
-0.8
-0.655
-0.845
-0.895
-0.9
-0.6
-0.685
-0.765
-0.81
-0.71
-0.745
-0.915
-0.835
-1.035
-0.485
-0.785
-0.96
-0.53
-0.7
-0.68
-0.77
-0.73
-0.73
-0.72
-0.73
-0.745
-0.715
-0.745
-0.765
-0.85
-0.79
-0.7
-0.705
-0.74
-0.705
-0.79
-0.8
-0.83
-0.745
-0.725
-0.785
-0.755
-0.775
-0.815
-0.93
-0.93
-0.725
-0.695
-0.765
-0.78
-0.815
-0.705
-0.715
-0.765
-0.76
-0.795
-0.865
-0.765
-0.9
-0.885
-0.835
-0.725
-0.755
-0.775
-0.93
-0.75
-0.695
-0.88
-0.81
-0.76
-0.74
-0.8
-0.8
-0.785
-0.815
-0.76
-0.765
-0.805
-0.86
-0.745
-0.785
-0.795
-0.79
-0.815
-0.745
-0.775
-0.76
-0.8
-0.855
-0.84
-0.845
-0.895
-0.865
-0.86
-0.855
-0.815
-0.615
-0.575
-0.455
-0.315
-0.275
-0.24
-0.11
-0.065
-0.06
-0.02
-0.035
0.015
-0.02
0.015
-0.1
-0.255
-0.38
-0.455
-0.435
-0.415
-0.57
-0.72
-0.78
-0.76
-0.765
-0.72
-0.74
-0.805
-0.74
-0.765
-0.805
-0.715
-0.78
-0.765
-0.725
-0.76
-0.79
-0.855
-0.79
-0.78
-0.75
-0.75
-0.775
-0.775
-0.73
-0.79
-0.795
-0.79
-0.78
-0.785
-0.785
-0.82
-0.775
-0.745
-0.785
-0.775
-0.785
-0.77
-0.745
-0.79
-0.775
-0.745
-0.815
-0.805
-0.77
-0.75
-0.785
-0.74
-0.79
-0.705
-0.705
-0.7
-0.79
-0.77
-0.745
-0.685
-0.675
-0.715
-0.82
-0.795
-0.705
-0.715
-0.67
-0.69
-0.715
-0.72
-0.775
-0.755
-0.73
-0.685
-0.705
-0.695
-0.655
-0.735
-0.715
-0.745
-0.65
-0.69
-0.72
-0.74
-0.7
-0.71
-0.69
-0.7
-0.67
-0.64
-0.645
-0.63
-0.665
-0.64
-0.67
-0.665
-0.695
-0.635
-0.64
-0.635
-0.61
-0.605
-0.595
-0.595
-0.535
-0.545
-0.615
-0.635
-0.635
-0.47
-0.525
-0.51
-0.575
-0.59
-0.525
-0.525
-0.515
-0.495
-0.505
-0.565
-0.545
-0.49
-0.495
-0.44
-0.51
-0.495
-0.46
-0.475
-0.435
-0.48
-0.445
-0.475
-0.54
-0.565
-0.575
-0.51
-0.625
-0.59
-0.56
-0.515
-0.51
-0.565
-0.665
-0.635
-0.61
-0.64
-0.615
-0.73
-0.755
-0.635
-0.61
-0.66
-0.73
-0.66
-0.69
-0.705
-0.76
-0.675
-0.695
-0.73
-0.75
-0.73
-0.75
-0.695
-0.765
-0.7
-0.725
-0.675
-0.68
-0.73
-0.765
-0.72
-0.745
-0.705
-0.725
-0.745
-0.72
-0.68
-0.735
-0.685
-0.71
-0.74
-0.65
-0.71
-0.705
-0.775
-0.715
-0.74
-0.68
-0.695
-0.735
-0.71
-0.655
-0.69
-0.765
-0.74
-0.69
-0.755
-0.76
-0.74
-0.805
-0.73
-0.56
-0.675
-0.645
-0.705
-0.745
-0.72
-0.625
-0.64
-0.635
-0.73
-0.66
-0.76
-0.74
-0.725
-0.755
-0.725
-0.73
-0.77
-0.73
-0.785
-0.69
-0.705
-0.71
-0.69
-0.675
-0.71
-0.695
-0.705
-0.69
-0.725
-0.725
-0.77
-0.705
-0.72
-0.785
-0.745
-0.72
-0.695
-0.695
-0.775
-0.775
-0.655
-0.66
-0.705
-0.76
-0.77
-0.715
-0.765
-0.755
-0.705
-0.745
-0.775
-0.805
-0.67
-0.685
-0.675
-0.68
-0.645
-0.77
-0.79
-0.6
-0.655
-0.72
-0.735
-0.63
-0.715
-0.695
-0.73
-0.75
-0.735
-0.705
-0.705
-0.705
-0.665
-0.69
-0.67
-0.75
-0.775
-0.58
-0.75
-0.79
-0.855
-0.76
-0.71
-0.5
-0.81
-0.82
-0.695
-0.62
-0.665
-0.65
-0.67
-0.655
-0.73
-0.715
-0.705
-0.735
-0.77
-0.66
-0.7
-0.705
-0.735
-0.74
-0.75
-0.785
-0.785
-0.56
-0.61
-0.675
-0.75
-0.735
-0.72
-0.725
-0.705
-0.725
-0.72
-0.715
-0.725
-0.735
-0.72
-0.695
-0.69
-0.775
-0.725
-0.7
-0.705
-0.75
-0.715
-0.705
-0.725
-0.69
-0.685
-0.76
-0.63
-0.75
-0.67
-0.68
-0.665
-0.675
-0.715
-0.735
-0.69
-0.64
-0.66
-0.7
-0.64
-0.625
-0.59
-0.595
-0.655
-0.66
-0.69
-0.61
-0.66
-0.635
-0.64
-0.625
-0.67
-0.59
-0.705
-0.735
-0.655
-0.81
-0.775
-0.685
-0.705
-0.745
-0.64
-0.77
-0.78
-0.685
-0.74
-0.76
-0.74
-0.855
-0.715
-0.565
-0.785
-0.825
-0.695
-0.65
-0.715
-0.68
-0.755
-0.755
-0.595
-0.66
-0.93
-0.69
-0.7
-0.77
-0.675
-0.68
-0.69
-0.77
-0.725
-0.72
-0.555
-0.83
-0.77
-0.675
-0.715
-0.615
-0.735
-0.705
-0.71
-0.76
-0.8
-0.6
-0.685
-0.735
-0.775
-0.655
-0.74
-0.765
-0.76
-0.675
-0.71
-0.72
-0.525
-0.48
-0.395
-0.305
-0.06
-0.085
0.065
0.13
0.165
0.2
0.245
0.25
0.285
0.185
0.085
-0.105
-0.25
-0.15
-0.26
-0.345
-0.465
-0.525
-0.71
-0.715
-0.685
-0.69
-0.65
-0.66
-0.645
-0.71
-0.63
-0.73
-0.685
-0.675
-0.685
-0.68
-0.705
-0.725
-0.715
-0.725
-0.755
-0.67
-0.73
-0.675
-0.75
-0.71
-0.63
-0.645
-0.655
-0.67
-0.675
-0.685
-0.67
-0.695
-0.7
-0.705
-0.68
-0.66
-0.64
-0.675
-0.675
-0.66
-0.645
-0.72
-0.695
-0.67
-0.69
-0.705
-0.69
-0.725
-0.695
-0.68
-0.67
-0.69
-0.7
-0.65
-0.635
-0.645
-0.64
-0.6
-0.61
-0.705
-0.74
-0.64
-0.635
-0.685
-0.605
-0.62
-0.645
-0.67
-0.685
-0.67
-0.67
-0.64
-0.625
-0.635
-0.625
-0.635
-0.61
-0.61
-0.62
-0.635
-0.565
-0.645
-0.54
-0.635
-0.63
-0.62
-0.6
-0.61
-0.63
-0.575
-0.545
-0.56
-0.61
-0.67
-0.445
-0.525
-0.57
-0.53
-0.485
-0.45
-0.475
-0.5
-0.525
-0.46
-0.47
-0.49
-0.425
-0.445
-0.49
-0.45
-0.39
-0.405
-0.395
-0.44
-0.42
-0.435
-0.44
-0.39
-0.375
-0.43
-0.375
-0.365
-0.375
-0.37
-0.36
-0.37
-0.435
-0.37
-0.4
-0.425
-0.435
-0.375
-0.41
-0.42
-0.49
-0.475
-0.435
-0.505
-0.53
-0.505
-0.39
-0.465
-0.525
-0.535
-0.565
-0.56
-0.57
-0.57
-0.605
-0.535
-0.545
-0.55
-0.555
-0.515
-0.545
-0.515
-0.53
-0.585
-0.575
-0.54
-0.595
-0.56
-0.565
-0.555
-0.57
-0.57
-0.575
-0.545
-0.595
-0.55
-0.52
-0.575
-0.59
-0.59
-0.56
-0.51
-0.535
-0.57
-0.505
-0.61
-0.615
-0.555
-0.57
-0.57
-0.575
-0.5
-0.53
-0.62
-0.515
-0.545
-0.615
-0.605
-0.6
-0.53
-0.575
-0.59
-0.57
-0.63
-0.58
-0.565
-0.475
-0.58
-0.56
-0.525
-0.565
-0.56
-0.55
-0.58
-0.565
-0.54
-0.58
-0.545
-0.57
-0.555
-0.53
-0.47
-0.53
-0.565
-0.68
-0.585
-0.58
-0.57
-0.58
-0.58
-0.555
-0.635
-0.58
-0.63
-0.585
-0.54
-0.58
-0.61
-0.62
-0.52
-0.595
-0.595
-0.585
-0.595
-0.545
-0.565
-0.575
-0.59
-0.515
-0.565
-0.535
-0.565
-0.575
-0.53
-0.47
-0.52
-0.54
-0.53
-0.58
-0.565
-0.57
-0.62
-0.585
-0.56
-0.58
-0.61
-0.58
-0.515
-0.53
-0.57
-0.555
-0.585
-0.61
-0.59
-0.7
-0.605
-0.44
-0.42
-0.56
-0.53
-0.485
-0.465
-0.59
-0.6
-0.54
-0.47
-0.535
-0.58
-0.54
-0.525
-0.515
-0.565
-0.565
-0.49
-0.545
-0.53
-0.55
-0.555
-0.555
-0.52
-0.51
-0.53
-0.52
-0.51
-0.52
-0.595
-0.555
-0.6
-0.55
-0.505
-0.55
-0.535
-0.54
-0.49
-0.6
-0.565
-0.545
-0.575
-0.55
-0.545
-0.565
-0.555
-0.505
-0.52
-0.52
-0.63
-0.585
-0.525
-0.555
-0.49
-0.52
-0.515
-0.565
-0.585
-0.515
-0.475
-0.53
-0.5
-0.535
-0.615
-0.46
-0.485
-0.505
-0.495
-0.54
-0.525
-0.55
-0.515
-0.555
-0.495
-0.51
-0.57
-0.58
-0.57
-0.575
-0.55
-0.535
-0.52
-0.545
-0.565
-0.525
-0.5
-0.545
-0.555
-0.55
-0.54
-0.545
-0.505
-0.54
-0.535
-0.53
-0.54
-0.56
-0.555
-0.555
-0.535
-0.545
-0.505
-0.52
-0.5
-0.54
-0.48
-0.475
-0.49
-0.535
-0.58
-0.525
-0.465
-0.56
-0.57
-0.52
-0.52
-0.51
-0.465
-0.525
-0.545
-0.53
-0.53
-0.555
-0.51
-0.535
-0.51
-0.505
-0.505
-0.535
-0.52
-0.495
-0.51
-0.5
-0.52
-0.53
-0.555
-0.535
-0.535
-0.525
-0.53
-0.525
-0.535
-0.515
-0.48
-0.53
-0.53
-0.515
-0.465
-0.515
-0.55
-0.375
-0.425
-0.5
-0.51
-0.465
-0.435
-0.465
-0.47
-0.475
-0.49
-0.51
-0.49
-0.54
-0.51
-0.525
-0.565
-0.525
-0.525
-0.54
-0.495
-0.48
-0.505
-0.505
-0.49
-0.585
-0.59
-0.585
-0.47
-0.52
-0.53
-0.585
-0.575
-0.53
-0.57
-0.565
-0.57
-0.57
-0.545
-0.565
-0.59
-0.555
-0.55
-0.495
-0.52
-0.59
-0.575
-0.58
-0.6
-0.525
-0.53
-0.525
-0.55
-0.55
-0.54
-0.545
-0.575
-0.56
-0.585
-0.515
-0.545
-0.52
-0.595
-0.535
-0.605
-0.635
-0.615
-0.565
-0.535
-0.48
-0.34
-0.225
-0.105
-0.095
-0.005
0.115
0.19
0.33
0.41
0.37
0.32
0.34
0.31
0.245
0.1
-0.04
-0.11
-0.065
-0.08
-0.165
-0.41
-0.52
-0.61
-0.59
-0.56
-0.53
-0.555
-0.58
-0.61
-0.555
-0.555
-0.565
-0.625
-0.595
-0.595
-0.575
-0.57
-0.575
-0.585
-0.575
-0.58
-0.6
-0.575
-0.605
-0.615
-0.63
-0.625
-0.535
-0.555
-0.525
-0.61
-0.585
-0.62
-0.56
-0.57
-0.555
-0.595
-0.635
-0.62
-0.525
-0.565
-0.51
-0.56
-0.6
-0.565
-0.56
-0.56
-0.59
-0.595
-0.58
-0.615
-0.525
-0.52
-0.58
-0.655
-0.57
-0.61
-0.62
-0.64
-0.57
-0.53
-0.575
-0.55
-0.58
-0.585
-0.51
-0.555
-0.59
-0.61
-0.545
-0.565
-0.56
-0.555
-0.575
-0.57
-0.575
-0.515
-0.525
-0.525
-0.535
-0.51
-0.535
-0.535
-0.505
-0.495
-0.475
-0.505
-0.545
-0.48
-0.47
-0.48
-0.53
-0.53
-0.485
-0.52
-0.54
-0.525
-0.455
-0.475
-0.485
-0.49
-0.48
-0.435
-0.45
-0.475
-0.435
-0.39
-0.37
-0.42
-0.365
-0.375
-0.39
-0.405
-0.485
-0.355
-0.355
-0.325
-0.34
-0.35
-0.335
-0.385
-0.335
-0.36
-0.345
-0.35
-0.355
-0.325
-0.4
-0.39
-0.365
-0.36
-0.345
-0.37
-0.37
-0.39
-0.425
-0.42
-0.475
-0.485
-0.545
-0.475
-0.48
-0.53
-0.445
-0.505
-0.51
-0.485
-0.48
-0.54
-0.57
-0.53
-0.535
-0.525
-0.515
-0.555
-0.55
-0.545
-0.535
-0.54
-0.555
-0.545
-0.56
-0.595
-0.625
-0.61
-0.575
-0.56
-0.56
-0.535
-0.555
-0.575
-0.565
-0.53
-0.595
-0.575
-0.57
-0.545
-0.525
-0.545
-0.58
-0.55
-0.56
-0.56
-0.615
-0.585
-0.58
-0.63
-0.525
-0.545
-0.575
-0.53
-0.575
-0.55
-0.585
-0.57
-0.58
-0.59
-0.645
-0.7
-0.645
-0.535
-0.585
-0.605
-0.52
-0.57
-0.6
-0.51
-0.515
-0.555
-0.545
-0.595
-0.585
-0.515
-0.58
-0.635
-0.65
-0.61
-0.565
-0.57
-0.57
-0.515
-0.54
-0.595
-0.595
-0.635
-0.585
-0.555
-0.53
-0.565
-0.56
-0.545
-0.585
-0.62
-0.535
-0.52
-0.53
-0.56
-0.56
-0.565
-0.585
-0.59
-0.6
-0.575
-0.525
-0.545
-0.565
-0.575
-0.57
-0.595
-0.6
-0.575
-0.575
-0.52
-0.59
-0.57
-0.575
-0.56
-0.555
-0.515
-0.6
-0.565
-0.56
-0.575
-0.585
-0.595
-0.525
-0.58
-0.56
-0.515
-0.575
-0.54
-0.59
-0.555
-0.55
-0.58
-0.545
-0.56
-0.57
-0.565
-0.545
-0.565
-0.53
-0.585
-0.56
-0.605
-0.585
-0.565
-0.555
-0.555
-0.535
-0.525
-0.585
-0.565
-0.56
-0.57
-0.55
-0.545
-0.575
-0.555
-0.56
-0.53
-0.555
-0.55
-0.575
-0.565
-0.57
-0.58
-0.555
-0.555
-0.55
-0.555
-0.56
-0.585
-0.595
-0.55
-0.545
-0.54
-0.6
-0.555
-0.525
-0.58
-0.58
-0.54
-0.585
-0.56
-0.54
-0.565
-0.55
-0.52
-0.53
-0.565
-0.55
-0.55
-0.56
-0.555
-0.535
-0.58
-0.575
-0.565
-0.515
-0.525
-0.5
-0.54
-0.5
-0.505
-0.515
-0.5
-0.5
-0.51
-0.505
-0.495
-0.48
-0.495
-0.475
-0.485
-0.49
-0.51
-0.495
-0.565
-0.475
-0.48
-0.51
-0.5
-0.58
-0.525
-0.54
-0.53
-0.565
-0.52
-0.53
-0.51
-0.555
-0.53
-0.525
-0.555
-0.5
-0.615
-0.43
-0.505
-0.49
-0.505
-0.47
-0.52
-0.545
-0.57
-0.505
-0.46
-0.56
-0.465
-0.495
-0.53
-0.535
-0.47
-0.495
-0.51
-0.51
-0.545
-0.535
-0.475
-0.535
-0.485
-0.52
-0.475
-0.505
-0.495
-0.555
-0.55
-0.53
-0.505
-0.495
-0.525
-0.505
-0.515
-0.52
-0.54
-0.575
-0.575
-0.585
-0.59
-0.555
-0.455
-0.31
-0.21
-0.085
0.0
0.14
0.18
0.24
0.275
0.305
0.285
0.22
0.23
0.2
0.145
-0.03
-0.115
-0.115
-0.155
-0.23
-0.365
-0.52
-0.54
-0.545
-0.515
-0.485
-0.475
-0.495
-0.52
-0.505
-0.51
-0.435
-0.445
-0.49
-0.545
-0.435
-0.505
-0.52
-0.505
-0.51
-0.49
-0.525
-0.53
-0.48
-0.465
-0.5
-0.515
-0.485
-0.465
-0.49
-0.5
-0.45
-0.48
-0.475
-0.49
-0.475
-0.455
-0.47
-0.475
-0.495
-0.51
-0.505
-0.52
-0.5
-0.475
-0.465
-0.47
-0.5
-0.455
-0.47
-0.5
-0.485
-0.465
-0.44
-0.45
-0.45
-0.48
-0.435
-0.45
-0.445
-0.46
-0.49
-0.435
-0.47
-0.495
-0.455
-0.435
-0.44
-0.425
-0.41
-0.415
-0.44
-0.5
-0.41
-0.46
-0.47
-0.47
-0.46
-0.445
-0.43
-0.385
-0.405
-0.455
-0.44
-0.435
-0.415
-0.395
-0.41
-0.395
-0.37
-0.345
-0.305
-0.355
-0.375
-0.37
-0.4
-0.36
-0.315
-0.315
-0.36
-0.305
-0.33
-0.305
-0.285
-0.215
-0.285
-0.31
-0.365
-0.225
-0.21
-0.23
-0.275
-0.19
-0.17
-0.23
-0.195
-0.215
-0.205
-0.195
-0.195
-0.205
-0.18
-0.135
-0.155
-0.19
-0.25
-0.315
-0.18
-0.23
-0.24
-0.295
-0.31
-0.265
-0.315
-0.265
-0.26
-0.295
-0.365
-0.325
-0.35
-0.425
-0.395
-0.4
-0.425
-0.43
-0.4
-0.41
-0.425
-0.41
-0.425
-0.435
-0.47
-0.415
-0.46
-0.46
-0.4
-0.475
-0.465
-0.445
-0.465
-0.47
-0.445
-0.45
-0.5
-0.44
-0.455
-0.41
-0.435
-0.42
-0.43
-0.49
-0.53
-0.45
-0.43
-0.49
-0.47
-0.46
-0.475
-0.49
-0.48
-0.51
-0.515
-0.465
-0.425
-0.46
-0.475
-0.46
-0.45
-0.48
-0.46
-0.47
-0.47
-0.465
-0.475
-0.46
-0.48
-0.47
-0.515
-0.43
-0.46
-0.435
-0.47
-0.475
-0.425
-0.45
-0.405
-0.44
-0.445
-0.49
-0.445
-0.505
-0.47
-0.445
-0.445
-0.41
-0.435
-0.425
-0.4
-0.43
-0.435
-0.46
-0.475
-0.43
-0.46
-0.475
-0.44
-0.475
-0.415
-0.405
-0.43
-0.395
-0.43
-0.465
-0.425
-0.425
-0.405
-0.44
-0.47
-0.4
-0.41
-0.47
-0.45
-0.405
-0.44
-0.415
-0.465
-0.465
-0.41
-0.425
-0.445
-0.46
-0.415
-0.375
-0.37
-0.435
-0.45
-0.44
-0.42
-0.41
-0.39
-0.43
-0.435
-0.405
-0.44
-0.47
-0.43
-0.425
-0.355
-0.425
-0.445
-0.37
-0.38
-0.425
-0.445
-0.415
-0.425
-0.48
-0.475
-0.45
-0.445
-0.455
-0.42
-0.415
-0.435
-0.48
-0.4
-0.425
-0.41
-0.435
-0.39
-0.39
-0.425
-0.395
-0.39
-0.395
-0.385
-0.42
-0.445
-0.46
-0.435
-0.43
-0.4
-0.415
-0.42
-0.45
-0.405
-0.375
-0.38
-0.385
-0.39
-0.36
-0.34
-0.395
-0.44
-0.45
-0.375
-0.415
-0.365
-0.33
-0.345
-0.39
-0.35
-0.325
-0.34
-0.345
-0.38
-0.385
-0.37
-0.315
-0.37
-0.335
-0.36
-0.36
-0.355
-0.355
-0.33
-0.335
-0.37
-0.375
-0.395
-0.365
-0.4
-0.415
-0.39
-0.4
-0.4
-0.375
-0.365
-0.41
-0.375
-0.455
-0.475
-0.455
-0.395
-0.45
-0.425
-0.43
-0.445
-0.435
-0.425
-0.43
-0.425
-0.475
-0.465
-0.41
-0.4
-0.405
-0.415
-0.435
-0.42
-0.425
-0.435
-0.44
-0.475
-0.42
-0.425
-0.41
-0.405
-0.445
-0.44
-0.405
-0.455
-0.515
-0.385
-0.42
-0.425
-0.4
-0.445
-0.44
-0.48
-0.505
-0.49
-0.505
-0.45
-0.35
-0.31
-0.175
-0.07
-0.01
0.1
0.22
0.345
0.38
0.36
0.44
0.45
0.425
0.455
0.355
0.255
0.12
-0.015
-0.055
-0.09
-0.14
-0.255
-0.415
-0.44
-0.45
-0.44
-0.425
-0.465
-0.345
-0.405
-0.385
-0.37
-0.425
-0.385
-0.41
-0.38
-0.39
-0.465
-0.465
-0.445
-0.475
-0.455
-0.385
-0.43
-0.395
-0.43
-0.465
-0.44
-0.445
-0.39
-0.47
-0.495
-0.405
-0.4
-0.455
-0.42
-0.425
-0.405
-0.395
-0.42
-0.44
-0.44
-0.41
-0.445
-0.455
-0.41
-0.39
-0.405
-0.39
-0.42
-0.43
-0.46
-0.425
-0.415
-0.42
-0.425
-0.405
-0.45
-0.365
-0.405
-0.38
-0.37
-0.415
-0.365
-0.415
-0.42
-0.39
-0.4
-0.375
-0.385
-0.4
-0.41
-0.395
-0.395
-0.415
-0.445
-0.43
-0.355
-0.39
-0.37
-0.355
-0.37
-0.33
-0.355
-0.36
-0.35
-0.355
-0.33
-0.39
-0.355
-0.345
-0.34
-0.27
-0.315
-0.32
-0.27
-0.39
-0.32
-0.31
-0.235
-0.32
-0.245
-0.205
-0.28
-0.27
-0.25
-0.26
-0.2
-0.315
-0.245
-0.2
-0.23
-0.18
-0.18
-0.22
-0.17
-0.175
-0.17
-0.175
-0.165
-0.195
-0.17
-0.155
-0.17
-0.165
-0.14
-0.19
-0.145
-0.21
-0.21
-0.17
-0.205
-0.27
-0.215
-0.215
-0.17
-0.23
-0.29
-0.305
-0.315
-0.345
-0.29
-0.335
-0.375
-0.395
-0.36
-0.39
-0.385
-0.365
-0.34
-0.39
-0.44
-0.405
-0.4
-0.415
-0.395
-0.34
-0.4
-0.38
-0.37
-0.385
-0.46
-0.425
-0.405
-0.37
-0.35
-0.385
-0.36
-0.435
-0.44
-0.44
-0.425
-0.415
-0.43
-0.405
-0.4
-0.425
-0.37
-0.39
-0.435
-0.4
-0.41
-0.43
-0.425
-0.355
-0.39
-0.375
-0.43
-0.415
-0.425
-0.385
-0.425
-0.4
-0.38
-0.355
-0.395
-0.42
-0.445
-0.435
-0.395
-0.425
-0.425
-0.405
-0.415
-0.43
-0.405
-0.445
-0.365
-0.47
-0.395
-0.425
-0.37
-0.395
-0.425
-0.435
-0.44
-0.425
-0.39
-0.38
-0.42
-0.44
-0.395
-0.445
-0.4
-0.41
-0.415
-0.42
-0.42
-0.36
-0.4
-0.375
-0.405
-0.415
-0.4
-0.455
-0.42
-0.375
-0.41
-0.44
-0.43
-0.385
-0.425
-0.425
-0.37
-0.4
-0.405
-0.375
-0.345
-0.405
-0.41
-0.42
-0.405
-0.385
-0.345
-0.375
-0.355
-0.365
-0.335
-0.41
-0.43
-0.41
-0.39
-0.355
-0.375
-0.39
-0.375
-0.35
-0.475
-0.425
-0.38
-0.37
-0.355
-0.43
-0.425
-0.455
-0.4
-0.425
-0.45
-0.37
-0.375
-0.375
-0.325
-0.305
-0.365
-0.335
-0.305
-0.285
-0.37
-0.485
-0.415
-0.39
-0.37
-0.41
-0.425
-0.395
-0.49
-0.41
-0.395
-0.355
-0.385
-0.405
-0.42
-0.4
-0.405
-0.375
-0.415
-0.395
-0.415
-0.38
-0.39
-0.355
-0.365
-0.4
-0.43
-0.36
-0.29
-0.355
-0.37
-0.4
-0.405
-0.42
-0.365
-0.415
-0.4
-0.325
-0.37
-0.345
-0.395
-0.385
-0.43
-0.43
-0.44
-0.405
-0.37
-0.39
-0.345
-0.41
-0.45
-0.405
-0.395
-0.395
-0.385
-0.395
-0.415
-0.4
-0.41
-0.355
-0.4
-0.415
-0.4
-0.385
-0.395
-0.375
-0.38
-0.405
-0.41
-0.38
-0.37
-0.375
-0.375
-0.355
-0.36
-0.36
-0.39
-0.47
-0.405
-0.34
-0.35
-0.36
-0.36
-0.345
-0.365
-0.345
-0.39
-0.365
-0.41
-0.38
-0.4
-0.425
-0.43
-0.4
-0.355
-0.39
-0.325
-0.365
-0.365
-0.395
-0.38
-0.39
-0.44
-0.375
-0.38
-0.37
-0.42
-0.405
-0.395
-0.41
-0.355
-0.36
-0.475
-0.38
-0.325
-0.365
-0.375
-0.36
-0.35
-0.38
-0.445
-0.32
-0.395
-0.36
-0.375
-0.35
-0.305
-0.29
-0.27
-0.34
-0.305
-0.35
-0.335
-0.335
-0.35
-0.33
-0.36
-0.35
-0.32
-0.325
-0.305
-0.27
-0.355
-0.395
-0.27
-0.29
-0.26
-0.265
-0.29
-0.325
-0.325
-0.24
-0.275
-0.33
-0.36
-0.405
-0.365
-0.315
-0.32
-0.36
-0.345
-0.35
-0.345
-0.315
-0.405
-0.375
-0.41
-0.4
-0.405
-0.41
-0.41
-0.425
-0.33
-0.365
-0.405
-0.36
-0.415
-0.435
-0.33
-0.34
-0.445
-0.385
-0.405
-0.41
-0.4
-0.395
-0.395
-0.375
-0.36
-0.375
-0.385
-0.345
-0.39
-0.36
-0.355
-0.385
-0.375
-0.385
-0.405
-0.39
-0.38
-0.365
-0.385
-0.485
-0.465
-0.39
-0.39
-0.345
-0.23
-0.095
0.01
0.11
0.235
0.36
0.4
0.41
0.535
0.54
0.525
0.535
0.54
0.52
0.38
0.18
0.145
0.105
0.06
-0.025
-0.145
-0.34
-0.36
-0.38
-0.37
-0.36
-0.305
-0.315
-0.36
-0.345
-0.305
-0.415
-0.395
-0.35
-0.375
-0.37
-0.37
-0.34
-0.34
-0.38
-0.37
-0.375
-0.385
-0.41
-0.32
-0.38
-0.39
-0.385
-0.41
-0.48
-0.375
-0.41
-0.38
-0.405
-0.36
-0.36
-0.33
-0.345
-0.365
-0.335
-0.355
-0.39
-0.395
-0.385
-0.395
-0.41
-0.4
-0.38
-0.37
-0.39
-0.33
-0.27
-0.325
-0.455
-0.34
-0.35
-0.345
-0.365
-0.375
-0.37
-0.315
-0.34
-0.305
-0.335
-0.335
-0.34
-0.385
-0.39
-0.4
-0.33
-0.345
-0.305
-0.275
-0.36
-0.38
-0.33
-0.295
-0.315
-0.36
-0.315
-0.335
-0.345
-0.31
-0.285
-0.265
-0.35
-0.35
-0.29
-0.27
-0.285
-0.295
-0.29
-0.24
-0.32
-0.265
-0.21
-0.225
-0.255
-0.33
-0.27
-0.275
-0.26
-0.25
-0.24
-0.195
-0.2
-0.195
-0.24
-0.16
-0.14
-0.18
-0.195
-0.23
-0.17
-0.115
-0.09
-0.16
-0.175
-0.12
-0.125
-0.14
-0.095
-0.185
-0.155
-0.08
-0.145
-0.095
-0.125
-0.13
-0.165
-0.155
-0.15
-0.16
-0.155
-0.185
-0.165
-0.165
-0.15
-0.19
-0.325
-0.25
-0.25
-0.235
-0.26
-0.28
-0.3
-0.325
-0.285
-0.275
-0.27
-0.295
-0.285
-0.295
-0.305
-0.295
-0.31
-0.305
-0.36
-0.38
-0.3
-0.315
-0.275
-0.28
-0.3
-0.325
-0.365
-0.365
-0.295
-0.31
-0.325
-0.3
-0.39
-0.31
-0.3
-0.325
-0.35
-0.325
-0.265
-0.34
-0.335
-0.33
-0.31
-0.335
-0.365
-0.32
-0.325
-0.305
-0.31
-0.295
-0.275
-0.305
-0.345
-0.33
-0.4
-0.36
-0.315
-0.305
-0.34
-0.365
-0.355
-0.335
-0.34
-0.3
-0.31
-0.325
-0.345
-0.35
-0.36
-0.395
-0.36
-0.33
-0.315
-0.335
-0.375
-0.405
-0.29
-0.35
-0.35
-0.32
-0.3
-0.295
-0.335
-0.37
-0.315
-0.345
-0.365
-0.37
-0.34
-0.365
-0.355
-0.335
-0.295
-0.32
-0.335
-0.385
-0.33
-0.355
-0.345
-0.345
-0.4
-0.385
-0.29
-0.34
-0.325
-0.365
-0.34
-0.365
-0.37
-0.305
-0.38
-0.365
-0.355
-0.29
-0.295
-0.335
-0.355
-0.325
-0.345
-0.36
-0.345
-0.345
-0.285
-0.29
-0.28
-0.33
-0.385
-0.37
-0.33
-0.325
-0.36
-0.29
-0.315
-0.355
-0.265
-0.3
-0.32
-0.365
-0.33
-0.305
-0.36
-0.4
-0.325
-0.315
-0.33
-0.395
-0.32
-0.3
-0.35
-0.34
-0.365
-0.315
-0.3
-0.27
-0.345
-0.305
-0.355
-0.35
-0.29
-0.28
-0.345
-0.335
-0.31
-0.33
-0.26
-0.365
-0.36
-0.285
-0.265
-0.275
-0.29
-0.335
-0.365
-0.335
-0.325
-0.305
-0.325
-0.34
-0.375
-0.37
-0.315
-0.335
-0.36
-0.285
-0.315
-0.33
-0.325
-0.34
-0.285
-0.335
-0.33
-0.33
-0.355
-0.345
-0.355
-0.37
-0.375
-0.335
-0.32
-0.275
-0.295
-0.275
-0.31
-0.35
-0.365
-0.295
-0.365
-0.315
-0.335
-0.345
-0.325
-0.345
-0.33
-0.34
-0.33
-0.355
-0.325
-0.29
-0.23
-0.315
-0.37
-0.325
-0.35
-0.34
-0.34
-0.385
-0.37
-0.33
-0.285
-0.265
-0.35
-0.325
-0.345
-0.4
-0.345
-0.245
-0.32
-0.36
-0.4
-0.325
-0.315
-0.285
-0.27
-0.34
-0.33
-0.31
-0.405
-0.37
-0.32
-0.29
-0.355
-0.285
-0.335
-0.34
-0.335
-0.305
-0.325
-0.295
-0.34
-0.31
-0.265
-0.26
-0.33
-0.345
-0.315
-0.265
-0.32
-0.31
-0.26
-0.285
-0.35
-0.25
-0.265
-0.275
-0.26
-0.245
-0.315
-0.265
-0.235
-0.235
-0.27
-0.265
-0.25
-0.265
-0.255
-0.23
-0.24
-0.245
-0.265
-0.23
-0.29
-0.305
-0.3
-0.23
-0.285
-0.31
-0.34
-0.345
-0.275
-0.305
-0.35
-0.285
-0.305
-0.355
-0.36
-0.3
-0.345
-0.36
-0.325
-0.31
-0.315
-0.36
-0.33
-0.33
-0.31
-0.39
-0.33
-0.32
-0.35
-0.375
-0.34
-0.305
-0.325
-0.32
-0.36
-0.27
-0.35
-0.335
-0.345
-0.345
-0.33
-0.34
-0.355
-0.355
-0.35
-0.355
-0.3
-0.285
-0.32
-0.355
-0.37
-0.42
-0.41
-0.465
-0.41
-0.34
-0.265
-0.105
0.05
0.145
0.27
0.36
0.435
0.475
0.545
0.61
0.57
0.65
0.705
0.65
0.565
0.385
0.18
0.035
0.095
0.05
-0.075
-0.155
-0.305
-0.405
-0.335
-0.28
-0.31
-0.25
-0.31
-0.375
-0.295
-0.31
-0.32
-0.34
-0.355
-0.38
-0.32
-0.295
-0.345
-0.35
-0.34
-0.275
-0.31
-0.32
-0.36
-0.385
-0.34
-0.29
-0.325
-0.355
-0.375
-0.315
-0.345
-0.355
-0.305
-0.345
-0.31
-0.37
-0.29
-0.355
-0.365
-0.305
-0.395
-0.35
-0.325
-0.275
-0.38
-0.335
-0.31
-0.315
-0.335
-0.32
-0.375
-0.32
-0.255
-0.345
-0.325
-0.28
-0.31
-0.32
-0.32
-0.315
-0.305
-0.275
-0.225
-0.27
-0.315
-0.31
-0.34
-0.305
-0.275
-0.26
-0.3
-0.29
-0.365
-0.235
-0.305
-0.345
-0.28
-0.255
-0.26
-0.305
-0.365
-0.26
-0.205
-0.245
-0.295
-0.26
-0.23
-0.25
-0.3
-0.27
-0.21
-0.255
-0.235
-0.205
-0.23
-0.225
-0.205
-0.195
-0.215
-0.205
-0.205
-0.105
-0.155
-0.14
-0.08
-0.16
-0.12
-0.135
-0.16
-0.145
-0.145
-0.11
-0.065
-0.06
-0.05
-0.06
-0.04
-0.055
-0.065
-0.085
-0.065
-0.085
-0.095
-0.05
-0.05
-0.085
-0.075
-0.06
-0.11
-0.08
-0.07
-0.085
-0.105
-0.155
-0.11
-0.165
-0.185
-0.17
-0.215
-0.19
-0.235
-0.265
-0.24
-0.26
-0.195
-0.185
-0.245
-0.245
-0.29
-0.31
-0.31
-0.28
-0.25
-0.32
-0.3
-0.23
-0.26
-0.305
-0.335
-0.3
-0.315
-0.285
-0.305
-0.29
-0.285
-0.28
-0.32
-0.29
-0.285
-0.235
-0.305
-0.29
-0.265
-0.285
-0.3
-0.335
-0.28
-0.28
-0.3
-0.33
-0.33
-0.315
-0.33
-0.37
-0.275
-0.24
-0.275
-0.38
-0.33
-0.255
-0.3
-0.3
-0.31
-0.33
-0.355
-0.28
-0.31
-0.31
-0.32
-0.305
-0.3
-0.31
-0.265
-0.35
-0.355
-0.305
-0.24
-0.265
-0.25
-0.375
-0.355
-0.295
-0.37
-0.285
-0.28
-0.31
-0.29
-0.285
-0.275
-0.35
-0.325
-0.365
-0.31
-0.28
-0.31
-0.31
-0.355
-0.38
-0.34
-0.295
-0.34
-0.345
-0.345
-0.34
-0.295
-0.31
-0.355
-0.305
-0.28
-0.315
-0.325
-0.3
-0.295
-0.295
-0.31
-0.305
-0.295
-0.3
-0.315
-0.315
-0.32
-0.3
-0.295
-0.3
-0.28
-0.29
-0.28
-0.34
-0.275
-0.35
-0.335
-0.305
-0.305
-0.3
-0.265
-0.3
-0.35
-0.26
-0.295
-0.295
-0.295
-0.3
-0.29
-0.265
-0.305
-0.315
-0.36
-0.365
-0.275
-0.3
-0.295
-0.27
-0.315
-0.26
-0.32
-0.32
-0.33
-0.305
-0.315
-0.29
-0.28
-0.32
-0.27
-0.265
-0.3
-0.29
-0.34
-0.34
-0.265
-0.3
-0.33
-0.28
-0.325
-0.315
-0.275
-0.28
-0.345
-0.345
-0.315
-0.34
-0.305
-0.275
-0.285
-0.275
-0.27
-0.3
-0.29
-0.275
-0.36
-0.295
-0.305
-0.32
-0.33
-0.305
-0.275
-0.32
-0.315
-0.29
-0.3
-0.32
-0.305
-0.295
-0.365
-0.28
-0.295
-0.29
-0.32
-0.32
-0.3
-0.315
-0.245
-0.315
-0.38
-0.315
-0.285
-0.315
-0.27
-0.29
-0.34
-0.295
-0.295
-0.315
-0.365
-0.325
-0.35
-0.29
-0.325
-0.355
-0.295
-0.275
-0.335
-0.305
-0.25
-0.28
-0.25
-0.255
-0.315
-0.305
-0.3
-0.3
-0.28
-0.255
-0.25
-0.255
-0.23
-0.215
-0.22
-0.23
-0.3
-0.25
-0.21
-0.31
-0.305
-0.22
-0.205
-0.255
-0.25
-0.2
-0.195
-0.255
-0.27
-0.24
-0.29
-0.235
-0.215
-0.26
-0.38
-0.33
-0.25
-0.31
-0.32
-0.345
-0.295
-0.315
-0.325
-0.3
-0.295
-0.285
-0.335
-0.355
-0.31
-0.335
-0.365
-0.3
-0.385
-0.35
-0.305
-0.38
-0.26
-0.355
-0.365
-0.315
-0.355
-0.35
-0.355
-0.37
-0.33
-0.33
-0.34
-0.34
-0.295
-0.375
-0.36
-0.36
-0.325
-0.33
-0.35
-0.37
-0.35
-0.345
-0.305
-0.335
-0.375
-0.41
-0.405
-0.43
-0.315
-0.225
-0.09
0.015
0.145
0.305
0.37
0.475
0.445
0.605
0.635
0.655
0.635
0.68
0.615
0.53
0.345
0.195
0.115
0.07
-0.01
-0.085
-0.255
-0.31
-0.325
-0.3
-0.35
-0.29
-0.335
-0.31
-0.24
-0.325
-0.295
-0.285
-0.365
-0.31
-0.33
-0.29
-0.32
-0.415
-0.31
-0.295
-0.33
-0.34
-0.29
-0.265
-0.3
-0.34
-0.335
-0.315
-0.375
-0.35
-0.3
-0.35
-0.36
-0.36
-0.345
-0.3
-0.33
-0.315
-0.335
-0.32
-0.34
-0.33
-0.335
-0.325
-0.295
-0.32
-0.355
-0.32
-0.31
-0.29
-0.325
-0.325
-0.29
-0.335
-0.33
-0.36
-0.265
-0.315
-0.36
-0.35
-0.265
-0.36
-0.345
-0.255
-0.33
-0.395
-0.355
-0.285
-0.245
-0.315
-0.305
-0.34
-0.265
-0.305
-0.245
-0.23
-0.235
-0.26
-0.245
-0.28
-0.24
-0.27
-0.29
-0.33
-0.32
-0.325
-0.305
-0.31
-0.295
-0.23
-0.24
-0.22
-0.215
-0.25
-0.225
-0.22
-0.145
-0.12
-0.195
-0.215
-0.175
-0.195
-0.17
-0.13
