# TIPE ECG 2021 - ECG-ID Database v1.0.0 par Physionet
# [N° de la personne, N° de l'enregistrement, Période d'échantillonnage, Prénom, Age, Sexe, Date de l'enregistrement]
[8, 1, 0.002, "Eva", 21, "F", "15.03.2005"]
-1.445
-1.505
-1.46
-1.51
-1.725
-1.64
-1.635
-1.46
-1.47
-1.325
-1.395
-1.385
-1.5
-1.55
-1.63
-1.66
-1.615
-1.58
-1.485
-1.35
-1.345
-1.365
-1.455
-1.54
-1.655
-1.665
-1.59
-1.56
-1.56
-1.4
-1.255
-1.42
-1.54
-1.49
-1.66
-1.61
-1.61
-1.475
-1.43
-1.42
-1.34
-1.46
-1.505
-1.525
-1.65
-1.65
-1.67
-1.53
-1.56
-1.38
-1.3
-1.475
-1.525
-1.55
-1.585
-1.665
-1.55
-1.52
-1.425
-1.36
-1.41
-1.43
-1.54
-1.69
-1.625
-1.61
-1.53
-1.59
-1.435
-1.4
-1.365
-1.41
-1.515
-1.64
-1.835
-1.745
-1.665
-1.525
-1.485
-1.46
-1.565
-1.52
-1.585
-1.67
-1.72
-1.71
-1.67
-1.565
-1.54
-1.475
-1.475
-1.55
-1.655
-1.66
-1.715
-1.685
-1.775
-1.595
-1.555
-1.47
-1.505
-1.6
-1.67
-1.67
-1.67
-1.625
-1.61
-1.365
-1.35
-1.285
-1.375
-1.47
-1.595
-1.555
-1.69
-1.71
-1.74
-1.445
-1.45
-1.52
-1.53
-1.56
-1.62
-1.795
-1.805
-1.715
-1.67
-1.615
-1.525
-1.46
-1.615
-1.615
-1.705
-1.795
-1.735
-1.665
-1.64
-1.665
-1.545
-1.585
-1.485
-1.61
-1.64
-1.795
-1.885
-1.855
-1.76
-1.805
-1.69
-1.65
-1.655
-1.76
-1.75
-1.925
-1.865
-1.76
-1.58
-1.465
-1.165
-1.08
-1.035
-0.915
-0.905
-0.87
-0.875
-0.845
-0.765
-0.7
-0.62
-0.71
-0.89
-1.105
-1.48
-1.61
-1.625
-1.61
-1.555
-1.435
-1.415
-1.44
-1.59
-1.675
-1.68
-1.82
-1.82
-1.74
-1.685
-1.65
-1.6
-1.56
-1.595
-1.67
-1.73
-1.96
-1.9
-1.74
-1.825
-1.705
-1.535
-1.575
-1.595
-1.76
-1.825
-1.895
-1.805
-1.77
-1.675
-1.775
-1.56
-1.53
-1.545
-1.76
-1.78
-1.845
-1.88
-1.94
-1.645
-1.625
-1.585
-1.575
-1.64
-1.81
-1.765
-1.89
-1.84
-1.77
-1.67
-1.62
-1.545
-1.635
-1.645
-1.825
-1.895
-1.885
-1.86
-1.835
-1.785
-1.68
-1.595
-1.685
-1.765
-1.805
-1.675
-1.81
-1.85
-1.7
-1.645
-1.51
-1.42
-1.455
-1.555
-1.555
-1.54
-1.745
-1.73
-1.675
-1.49
-1.41
-1.435
-1.43
-1.425
-1.545
-1.61
-1.54
-1.525
-1.495
-1.32
-1.415
-1.395
-1.24
-1.36
-1.34
-1.475
-1.475
-1.5
-1.48
-1.365
-1.25
-1.265
-1.25
-1.285
-1.475
-1.595
-1.515
-1.385
-1.35
-1.34
-1.125
-1.245
-1.27
-1.205
-1.395
-1.465
-1.585
-1.54
-1.46
-1.4
-1.24
-1.365
-1.41
-1.42
-1.53
-1.63
-1.645
-1.595
-1.5
-1.46
-1.29
-1.345
-1.5
-1.545
-1.61
-1.645
-1.78
-1.59
-1.47
-1.47
-1.415
-1.505
-1.58
-1.43
-1.595
-1.72
-1.715
-1.635
-1.545
-1.46
-1.405
-1.44
-1.49
-1.535
-1.555
-1.68
-1.68
-1.58
-1.575
-1.505
-1.39
-1.43
-1.54
-1.54
-1.575
-1.715
-1.615
-1.62
-1.535
-1.52
-1.32
-1.385
-1.365
-1.53
-1.605
-1.745
-1.69
-1.585
-1.54
-1.47
-1.415
-1.255
-1.425
-1.555
-1.6
-1.62
-1.765
-1.64
-1.5
-1.395
-1.445
-1.5
-1.425
-1.56
-1.59
-1.71
-1.655
-1.63
-1.55
-1.5
-1.285
-1.35
-1.415
-1.55
-1.65
-1.645
-1.595
-1.55
-1.5
-1.485
-1.34
-1.385
-1.435
-1.465
-1.67
-1.71
-1.625
-1.645
-1.575
-1.515
-1.35
-1.39
-1.485
-1.52
-1.63
-1.775
-1.64
-1.52
-1.56
-1.475
-1.33
-1.445
-1.525
-1.495
-1.635
-1.745
-1.605
-1.54
-1.485
-1.52
-1.405
-1.505
-1.505
-1.595
-1.545
-1.555
-1.55
-1.55
-1.54
-1.36
-1.335
-1.43
-1.525
-1.655
-1.645
-1.58
-1.655
-1.555
-1.465
-1.33
-1.415
-1.515
-1.59
-1.57
-1.695
-1.67
-1.63
-1.41
-1.445
-1.385
-1.395
-1.52
-1.535
-1.55
-1.71
-1.69
-1.75
-1.465
-1.415
-1.275
-1.315
-1.28
-1.355
-1.395
-1.575
-1.485
-1.48
-1.45
-1.385
-1.235
-1.32
-1.33
-1.445
-1.44
-1.645
-1.635
-1.555
-1.625
-1.44
-1.37
-1.365
-1.415
-1.52
-1.585
-1.645
-1.645
-1.615
-1.555
-1.645
-1.42
-1.33
-1.42
-1.51
-1.54
-1.615
-1.68
-1.66
-1.62
-1.555
-1.405
-1.385
-1.455
-1.67
-1.615
-1.83
-1.81
-1.685
-1.61
-1.47
-1.465
-1.42
-1.53
-1.4
-1.365
-1.4
-1.25
-1.09
-0.885
-0.725
-0.62
-0.565
-0.455
-0.72
-0.705
-0.675
-0.655
-0.74
-0.74
-1.035
-1.175
-1.17
-1.31
-1.395
-1.44
-1.555
-1.495
-1.55
-1.45
-1.43
-1.385
-1.465
-1.51
-1.61
-1.645
-1.77
-1.58
-1.55
-1.535
-1.295
-1.49
-1.39
-1.52
-1.66
-1.68
-1.695
-1.59
-1.75
-1.61
-1.425
-1.57
-1.41
-1.45
-1.69
-1.68
-1.64
-1.58
-1.445
-1.495
-1.53
-1.495
-1.475
-1.525
-1.595
-1.65
-1.615
-1.63
-1.545
-1.46
-1.485
-1.385
-1.415
-1.48
-1.53
-1.75
-1.68
-1.69
-1.515
-1.455
-1.395
-1.305
-1.46
-1.52
-1.555
-1.58
-1.655
-1.59
-1.515
-1.49
-1.385
-1.365
-1.39
-1.44
-1.485
-1.61
-1.555
-1.57
-1.48
-1.4
-1.345
-1.22
-1.405
-1.44
-1.375
-1.54
-1.475
-1.465
-1.35
-1.405
-1.255
-1.16
-1.265
-1.35
-1.47
-1.505
-1.405
-1.38
-1.3
-1.32
-1.05
-1.18
-1.24
-1.295
-1.28
-1.435
-1.5
-1.375
-1.245
-1.235
-1.045
-1.175
-1.13
-1.255
-1.3
-1.49
-1.39
-1.325
-1.26
-1.22
-1.17
-1.17
-1.24
-1.32
-1.41
-1.58
-1.53
-1.445
-1.36
-1.255
-1.165
-1.19
-1.335
-1.44
-1.565
-1.505
-1.525
-1.615
-1.485
-1.435
-1.375
-1.385
-1.41
-1.48
-1.59
-1.66
-1.705
-1.535
-1.51
-1.305
-1.275
-1.41
-1.495
-1.63
-1.59
-1.625
-1.69
-1.58
-1.44
-1.515
-1.395
-1.34
-1.425
-1.585
-1.78
-1.605
-1.59
-1.665
-1.465
-1.43
-1.335
-1.41
-1.5
-1.525
-1.645
-1.62
-1.575
-1.56
-1.545
-1.47
-1.42
-1.365
-1.55
-1.53
-1.63
-1.685
-1.595
-1.48
-1.465
-1.345
-1.41
-1.53
-1.52
-1.525
-1.625
-1.645
-1.695
-1.645
-1.535
-1.435
-1.415
-1.415
-1.4
-1.435
-1.7
-1.73
-1.54
-1.56
-1.47
-1.45
-1.45
-1.46
-1.53
-1.595
-1.675
-1.735
-1.585
-1.705
-1.42
-1.29
-1.335
-1.33
-1.42
-1.515
-1.72
-1.76
-1.68
-1.585
-1.55
-1.435
-1.39
-1.455
-1.475
-1.615
-1.6
-1.615
-1.7
-1.515
-1.465
-1.38
-1.43
-1.585
-1.61
-1.7
-1.62
-1.645
-1.6
-1.56
-1.49
-1.335
-1.335
-1.465
-1.46
-1.62
-1.72
-1.635
-1.565
-1.485
-1.47
-1.4
-1.425
-1.385
-1.74
-1.51
-1.61
-1.615
-1.55
-1.54
-1.415
-1.34
-1.395
-1.42
-1.59
-1.585
-1.685
-1.655
-1.47
-1.405
-1.405
-1.31
-1.34
-1.375
-1.435
-1.45
-1.445
-1.57
-1.45
-1.465
-1.49
-1.31
-1.355
-1.41
-1.5
-1.53
-1.665
-1.68
-1.55
-1.44
-1.545
-1.42
-1.355
-1.405
-1.555
-1.61
-1.675
-1.71
-1.625
-1.53
-1.465
-1.355
-1.325
-1.555
-1.535
-1.825
-1.58
-1.615
-1.57
-1.49
-1.465
-1.53
-1.465
-1.445
-1.7
-1.775
-1.82
-1.82
-1.585
-1.52
-1.42
-1.365
-1.265
-1.055
-1.03
-1.12
-1.015
-0.87
-0.8
-0.64
-0.645
-0.56
-0.535
-0.63
-0.835
-0.99
-1.295
-1.53
-1.475
-1.38
-1.35
-1.325
-1.33
-1.41
-1.495
-1.615
-1.64
-1.685
-1.45
-1.455
-1.42
-1.305
-1.51
-1.49
-1.645
-1.66
-1.595
-1.74
-1.59
-1.535
-1.41
-1.46
-1.56
-1.67
-1.7
-1.64
-1.63
-1.64
-1.63
-1.495
-1.415
-1.445
-1.285
-1.505
-1.565
-1.62
-1.665
-1.62
-1.575
-1.44
-1.375
-1.415
-1.495
-1.55
-1.605
-1.7
-1.645
-1.655
-1.535
-1.5
-1.32
-1.33
-1.5
-1.51
-1.54
-1.595
-1.665
-1.56
-1.555
-1.455
-1.33
-1.255
-1.43
-1.525
-1.575
-1.61
-1.62
-1.48
-1.545
-1.465
-1.365
-1.365
-1.42
-1.395
-1.385
-1.585
-1.53
-1.485
-1.34
-1.395
-1.33
-1.345
-1.215
-1.31
-1.435
-1.47
-1.38
-1.385
-1.34
-1.24
-1.085
-1.28
-1.335
-1.345
-1.5
-1.495
-1.39
-1.385
-1.26
-1.18
-0.98
-1.155
-1.245
-1.325
-1.39
-1.34
-1.365
-1.29
-1.185
-1.165
-1.135
-1.095
-1.155
-1.305
-1.48
-1.41
-1.465
-1.37
-1.33
-1.27
-1.045
-1.18
-1.19
-1.265
-1.545
-1.435
-1.51
-1.53
-1.385
-1.26
-1.275
-1.395
-1.5
-1.5
-1.725
-1.6
-1.715
-1.5
-1.485
-1.37
-1.3
-1.325
-1.51
-1.585
-1.695
-1.73
-1.72
-1.6
-1.445
-1.41
-1.415
-1.44
-1.435
-1.54
-1.69
-1.71
-1.645
-1.575
-1.43
-1.32
-1.385
-1.47
-1.64
-1.67
-1.71
-1.695
-1.665
-1.52
-1.46
-1.375
-1.355
-1.435
-1.47
-1.48
-1.68
-1.645
-1.645
-1.555
-1.455
-1.32
-1.48
-1.46
-1.51
-1.615
-1.77
-1.71
-1.68
-1.59
-1.485
-1.355
-1.365
-1.445
-1.505
-1.54
-1.595
-1.595
-1.44
-1.41
-1.48
-1.38
-1.535
-1.525
-1.535
-1.65
-1.64
-1.645
-1.72
-1.445
-1.49
-1.37
-1.375
-1.395
-1.47
-1.54
-1.59
-1.64
-1.685
-1.575
-1.45
-1.51
-1.425
-1.485
-1.53
-1.515
-1.66
-1.69
-1.58
-1.49
-1.51
-1.345
-1.405
-1.455
-1.55
-1.535
-1.665
-1.71
-1.65
-1.68
-1.565
-1.42
-1.305
-1.445
-1.5
-1.51
-1.545
-1.63
-1.545
-1.505
-1.445
-1.42
-1.43
-1.395
-1.53
-1.71
-1.725
-1.69
-1.64
-1.565
-1.44
-1.37
-1.395
-1.43
-1.55
-1.665
-1.675
-1.605
-1.56
-1.465
-1.385
-1.28
-1.265
-1.46
-1.475
-1.57
-1.575
-1.495
-1.435
-1.425
-1.305
-1.32
-1.335
-1.485
-1.52
-1.59
-1.545
-1.595
-1.47
-1.39
-1.405
-1.315
-1.43
-1.47
-1.535
-1.695
-1.6
-1.675
-1.62
-1.53
-1.42
-1.37
-1.395
-1.565
-1.52
-1.74
-1.715
-1.59
-1.53
-1.5
-1.48
-1.505
-1.49
-1.55
-1.6
-1.735
-1.795
-1.695
-1.595
-1.595
-1.455
-1.555
-1.565
-1.515
-1.5
-1.48
-1.355
-1.15
-1.05
-0.9
-0.68
-0.625
-0.6
-0.67
-0.665
-0.775
-0.62
-0.64
-0.665
-0.915
-1.045
-1.175
-1.29
-1.37
-1.405
-1.58
-1.54
-1.535
-1.455
-1.45
-1.31
-1.425
-1.48
-1.625
-1.57
-1.685
-1.7
-1.645
-1.59
-1.445
-1.35
-1.505
-1.56
-1.6
-1.685
-1.78
-1.71
-1.74
-1.62
-1.405
-1.385
-1.445
-1.6
-1.585
-1.61
-1.705
-1.725
-1.595
-1.55
-1.515
-1.38
-1.4
-1.49
-1.53
-1.685
-1.735
-1.705
-1.665
-1.495
-1.52
-1.37
-1.485
-1.495
-1.52
-1.62
-1.63
-1.485
-1.55
-1.54
-1.505
-1.42
-1.49
-1.465
-1.59
-1.515
-1.7
-1.7
-1.565
-1.45
-1.365
-1.485
-1.51
-1.35
-1.465
-1.66
-1.555
-1.58
-1.61
-1.4
-1.33
-1.23
-1.345
-1.425
-1.49
-1.59
-1.61
-1.555
-1.385
-1.44
-1.35
-1.245
-1.245
-1.34
-1.485
-1.355
-1.465
-1.4
-1.335
-1.25
-1.175
-1.19
-1.235
-1.36
-1.35
-1.49
-1.42
-1.37
-1.265
-1.245
-1.14
-1.13
-1.1
-1.16
-1.33
-1.545
-1.505
-1.34
-1.385
-1.23
-1.105
-1.19
-1.24
-1.3
-1.36
-1.38
-1.64
-1.445
-1.455
-1.355
-1.245
-1.345
-1.38
-1.46
-1.515
-1.615
-1.545
-1.53
-1.49
-1.47
-1.435
-1.41
-1.505
-1.44
-1.53
-1.67
-1.615
-1.605
-1.46
-1.495
-1.4
-1.415
-1.325
-1.59
-1.625
-1.735
-1.675
-1.58
-1.535
-1.5
-1.445
-1.345
-1.345
-1.525
-1.585
-1.65
-1.735
-1.605
-1.475
-1.465
-1.495
-1.485
-1.48
-1.59
-1.595
-1.68
-1.66
-1.595
-1.515
-1.505
-1.35
-1.49
-1.46
-1.58
-1.52
-1.62
-1.68
-1.525
-1.535
-1.485
-1.375
-1.475
-1.47
-1.6
-1.52
-1.74
-1.675
-1.58
-1.45
-1.51
-1.4
-1.41
-1.545
-1.535
-1.585
-1.7
-1.725
-1.59
-1.56
-1.445
-1.425
-1.495
-1.495
-1.635
-1.7
-1.73
-1.595
-1.62
-1.595
-1.445
-1.365
-1.455
-1.365
-1.58
-1.665
-1.725
-1.715
-1.54
-1.52
-1.415
-1.415
-1.385
-1.575
-1.6
-1.705
-1.69
-1.655
-1.595
-1.46
-1.36
-1.445
-1.455
-1.505
-1.67
-1.68
-1.67
-1.62
-1.575
-1.545
-1.455
-1.435
-1.43
-1.56
-1.65
-1.75
-1.77
-1.61
-1.63
-1.51
-1.405
-1.4
-1.505
-1.585
-1.565
-1.665
-1.635
-1.66
-1.53
-1.52
-1.365
-1.265
-1.465
-1.53
-1.65
-1.675
-1.695
-1.675
-1.53
-1.5
-1.29
-1.36
-1.275
-1.405
-1.405
-1.58
-1.535
-1.51
-1.585
-1.435
-1.315
-1.28
-1.38
-1.5
-1.55
-1.69
-1.595
-1.6
-1.575
-1.555
-1.405
-1.37
-1.455
-1.5
-1.525
-1.76
-1.725
-1.64
-1.53
-1.62
-1.41
-1.39
-1.44
-1.63
-1.665
-1.675
-1.635
-1.64
-1.58
-1.465
-1.51
-1.555
-1.56
-1.605
-1.565
-1.75
-1.855
-1.745
-1.665
-1.61
-1.45
-1.3
-1.32
-1.32
-1.165
-1.215
-1.16
-1.02
-0.775
-0.57
-0.49
-0.535
-0.545
-0.53
-0.47
-0.685
-0.895
-1.185
-1.33
-1.29
-1.325
-1.26
-1.31
-1.525
-1.465
-1.62
-1.63
-1.58
-1.51
-1.485
-1.445
-1.485
-1.49
-1.54
-1.715
-1.825
-1.68
-1.66
-1.5
-1.43
-1.4
-1.42
-1.555
-1.67
-1.755
-1.595
-1.585
-1.62
-1.58
-1.485
-1.445
-1.55
-1.5
-1.57
-1.695
-1.7
-1.725
-1.645
-1.505
-1.49
-1.495
-1.42
-1.56
-1.58
-1.64
-1.615
-1.635
-1.57
-1.555
-1.375
-1.435
-1.455
-1.65
-1.625
-1.615
-1.755
-1.64
-1.545
-1.465
-1.405
-1.355
-1.52
-1.425
-1.62
-1.605
-1.64
-1.62
-1.55
-1.58
-1.4
-1.365
-1.43
-1.45
-1.48
-1.64
-1.63
-1.515
-1.525
-1.465
-1.245
-1.33
-1.25
-1.455
-1.52
-1.555
-1.525
-1.495
-1.41
-1.365
-1.335
-1.29
-1.385
-1.335
-1.345
-1.58
-1.455
-1.365
-1.315
-1.285
-1.165
-1.245
-1.24
-1.26
-1.295
-1.27
-1.36
-1.225
-1.32
-1.25
-1.13
-1.185
-1.35
-1.36
-1.415
-1.545
-1.405
-1.315
-1.29
-1.305
-1.17
-1.15
-1.27
-1.345
-1.375
-1.51
-1.43
-1.515
-1.455
-1.445
-1.29
-1.445
-1.385
-1.615
-1.58
-1.585
-1.61
-1.52
-1.495
-1.47
-1.36
-1.405
-1.445
-1.505
-1.615
-1.705
-1.68
-1.6
-1.46
-1.42
-1.41
-1.345
-1.445
-1.58
-1.39
-1.7
-1.85
-1.63
-1.515
-1.47
-1.38
-1.44
-1.52
-1.58
-1.675
-1.67
-1.685
-1.625
-1.555
-1.425
-1.38
-1.415
-1.545
-1.555
-1.63
-1.58
-1.57
-1.545
-1.49
-1.45
-1.42
-1.395
-1.54
-1.605
-1.735
-1.675
-1.66
-1.6
-1.535
-1.445
-1.425
-1.435
-1.55
-1.495
-1.54
-1.62
-1.62
-1.545
-1.505
-1.38
-1.4
-1.505
-1.52
-1.575
-1.76
-1.725
-1.63
-1.665
-1.525
-1.385
-1.41
-1.445
-1.535
-1.59
-1.685
-1.645
-1.615
-1.585
-1.57
-1.365
-1.41
-1.435
-1.645
-1.555
-1.755
-1.705
-1.69
-1.515
-1.53
-1.33
-1.365
-1.475
-1.615
-1.57
-1.69
-1.675
-1.63
-1.555
-1.51
-1.43
-1.42
-1.46
-1.53
-1.56
-1.72
-1.56
-1.42
-1.485
-1.665
-1.58
-1.485
-1.5
-1.545
-1.625
-1.81
-1.69
-1.625
-1.52
-1.51
-1.38
-1.46
-1.5
-1.535
-1.55
-1.625
-1.62
-1.51
-1.62
-1.49
-1.36
-1.465
-1.57
-1.57
-1.65
-1.7
-1.68
-1.61
-1.5
-1.48
-1.295
-1.295
-1.455
-1.59
-1.585
-1.635
-1.67
-1.58
-1.48
-1.405
-1.305
-1.335
-1.47
-1.475
-1.48
-1.62
-1.49
-1.52
-1.38
-1.39
-1.31
-1.43
-1.375
-1.585
-1.575
-1.615
-1.62
-1.56
-1.485
-1.435
-1.41
-1.37
-1.39
-1.52
-1.71
-1.705
-1.7
-1.69
-1.6
-1.515
-1.395
-1.395
-1.53
-1.61
-1.68
-1.675
-1.71
-1.59
-1.595
-1.445
-1.495
-1.59
-1.83
-1.835
-1.705
-1.65
-1.705
-1.685
-1.495
-1.42
-1.24
-1.22
-1.25
-1.09
-1.17
-0.98
-0.825
-0.69
-0.575
-0.48
-0.51
-0.495
-0.565
-0.69
-0.94
-1.095
-1.385
-1.4
-1.36
-1.255
-1.3
-1.34
-1.39
-1.525
-1.595
-1.605
-1.595
-1.6
-1.48
-1.43
-1.46
-1.455
-1.565
-1.63
-1.785
-1.675
-1.82
-1.72
-1.5
-1.33
-1.365
-1.405
-1.555
-1.595
-1.735
-1.71
-1.67
-1.59
-1.545
-1.5
-1.435
-1.495
-1.545
-1.625
-1.75
-1.76
-1.69
-1.5
-1.55
-1.365
-1.395
-1.285
-1.55
-1.66
-1.71
-1.78
-1.66
-1.535
-1.545
-1.425
-1.415
-1.445
-1.64
-1.615
-1.675
-1.785
-1.655
-1.51
-1.51
-1.28
-1.36
-1.43
-1.505
-1.575
-1.62
-1.625
-1.56
-1.51
-1.53
-1.395
-1.31
-1.495
-1.425
-1.575
-1.605
-1.595
-1.425
-1.4
-1.29
-1.3
-1.305
-1.395
-1.405
-1.535
-1.57
-1.535
-1.45
-1.345
-1.34
-1.23
-1.21
-1.285
-1.41
-1.405
-1.4
-1.415
-1.335
-1.26
-1.27
-1.18
-1.185
-1.245
-1.44
-1.35
-1.45
-1.42
-1.34
-1.315
-1.185
-1.07
-1.195
-1.13
-1.265
-1.4
-1.4
-1.34
-1.39
-1.26
-1.205
-1.205
-1.43
-1.24
-1.33
-1.545
-1.52
-1.545
-1.44
-1.38
-1.305
-1.36
-1.415
-1.44
-1.485
-1.58
-1.6
-1.715
-1.53
-1.525
-1.335
-1.36
-1.395
-1.475
-1.565
-1.715
-1.705
-1.595
-1.57
-1.595
-1.425
-1.42
-1.57
-1.475
-1.545
-1.71
-1.56
-1.505
-1.485
-1.545
-1.365
-1.435
-1.49
-1.48
-1.535
-1.72
-1.66
-1.635
-1.58
-1.515
-1.47
-1.385
-1.43
-1.505
-1.545
-1.695
-1.645
-1.555
-1.475
-1.525
-1.44
-1.44
-1.495
-1.515
-1.625
-1.775
-1.705
-1.615
-1.565
-1.45
-1.355
-1.385
-1.47
-1.64
-1.615
-1.65
-1.64
-1.605
-1.555
-1.485
-1.4
-1.46
-1.555
-1.625
-1.55
-1.655
-1.67
-1.64
-1.52
-1.54
-1.36
-1.45
-1.48
-1.55
-1.675
-1.665
-1.7
-1.59
-1.525
-1.585
-1.36
-1.37
-1.425
-1.61
-1.575
-1.705
-1.72
-1.595
-1.535
-1.385
-1.505
-1.47
-1.455
-1.6
-1.67
-1.655
-1.655
-1.575
-1.59
-1.5
-1.41
-1.475
-1.555
-1.575
-1.57
-1.67
-1.745
-1.585
-1.5
-1.44
-1.465
-1.515
-1.47
-1.56
-1.635
-1.715
-1.645
-1.625
-1.56
-1.44
-1.455
-1.505
-1.545
-1.63
-1.64
-1.595
-1.68
-1.51
-1.53
-1.405
-1.48
-1.48
-1.515
-1.62
-1.605
-1.675
-1.625
-1.535
-1.515
-1.41
-1.445
-1.45
-1.485
-1.47
-1.61
-1.61
-1.565
-1.535
-1.395
-1.27
-1.27
-1.37
-1.445
-1.52
-1.65
-1.53
-1.5
-1.465
-1.4
-1.4
-1.37
-1.46
-1.48
-1.51
-1.73
-1.66
-1.565
-1.49
-1.545
-1.48
-1.395
-1.51
-1.62
-1.59
-1.79
-1.625
-1.63
-1.57
-1.465
-1.425
-1.415
-1.435
-1.53
-1.595
-1.71
-1.68
-1.6
-1.58
-1.67
-1.545
-1.5
-1.52
-1.665
-1.65
-1.785
-1.76
-1.625
-1.46
-1.365
-1.19
-0.98
-0.885
-1.02
-0.905
-0.995
-0.95
-0.76
-0.705
-0.655
-0.535
-0.53
-0.675
-0.945
-1.225
-1.595
-1.64
-1.65
-1.31
-1.315
-1.275
-1.38
-1.31
-1.485
-1.59
-1.67
-1.665
-1.59
-1.475
-1.59
-1.49
-1.505
-1.45
-1.625
-1.6
-1.695
-1.73
-1.62
-1.505
-1.535
-1.445
-1.385
-1.57
-1.65
-1.68
-1.7
-1.585
-1.555
-1.475
-1.425
-1.415
-1.505
-1.515
-1.57
-1.7
-1.695
-1.7
-1.495
-1.55
-1.49
-1.415
-1.445
-1.46
-1.575
-1.605
-1.57
-1.61
-1.6
-1.435
-1.56
-1.38
-1.415
-1.525
-1.59
-1.635
-1.64
-1.675
-1.48
-1.45
-1.355
-1.325
-1.375
-1.445
-1.555
-1.6
-1.56
-1.56
-1.455
-1.395
-1.255
-1.39
-1.365
-1.45
-1.485
-1.555
-1.595
-1.485
-1.49
-1.285
-1.22
-1.31
-1.255
-1.29
-1.435
-1.46
-1.485
-1.515
-1.325
-1.315
-1.27
-1.225
-1.17
-1.295
-1.295
-1.44
-1.375
-1.25
-1.25
-1.275
-1.15
-1.15
-1.125
-1.265
-1.29
-1.34
-1.35
-1.425
-1.215
-1.07
-1.08
-1.205
-1.165
-1.25
-1.385
-1.42
-1.425
-1.365
-1.23
-1.285
-1.17
-1.195
-1.255
-1.4
-1.42
-1.55
-1.555
-1.62
-1.42
-1.325
-1.27
-1.385
-1.465
-1.42
-1.505
-1.705
-1.625
-1.485
-1.39
-1.435
-1.4
-1.43
-1.425
-1.55
-1.595
-1.67
-1.725
-1.59
-1.525
-1.495
-1.445
-1.4
-1.495
-1.525
-1.57
-1.575
-1.665
-1.525
-1.44
-1.435
-1.365
-1.365
-1.495
-1.65
-1.62
-1.63
-1.58
-1.64
-1.555
-1.445
-1.465
-1.39
-1.495
-1.565
-1.605
-1.655
-1.54
-1.57
-1.445
-1.42
-1.415
-1.49
-1.565
-1.585
-1.645
-1.605
-1.6
-1.505
-1.51
-1.405
-1.355
-1.435
-1.535
-1.57
-1.605
-1.64
-1.56
-1.65
-1.4
-1.37
-1.375
-1.465
-1.52
-1.46
-1.595
-1.715
-1.645
-1.585
-1.545
-1.415
-1.395
-1.43
-1.495
-1.57
-1.585
-1.62
-1.575
-1.57
-1.555
-1.435
-1.38
-1.39
-1.415
-1.63
-1.69
-1.715
-1.62
-1.505
-1.47
-1.365
-1.38
-1.46
-1.48
-1.545
-1.75
-1.59
-1.475
-1.45
-1.38
-1.305
-1.38
-1.5
-1.58
-1.605
-1.72
-1.72
-1.61
-1.55
-1.545
-1.39
-1.35
-1.37
-1.535
-1.59
-1.615
-1.61
-1.635
-1.515
-1.5
-1.285
-1.355
-1.43
-1.63
-1.595
-1.68
-1.655
-1.72
-1.56
-1.45
-1.335
-1.375
-1.37
-1.525
-1.465
-1.61
-1.605
-1.495
-1.31
-1.32
-1.29
-1.185
-1.325
-1.39
-1.465
-1.55
-1.605
-1.54
-1.465
-1.41
-1.355
-1.37
-1.425
-1.515
-1.53
-1.645
-1.6
-1.565
-1.5
-1.485
-1.39
-1.465
-1.49
-1.46
-1.515
-1.785
-1.67
-1.55
-1.52
-1.48
-1.42
-1.37
-1.405
-1.49
-1.68
-1.68
-1.695
-1.555
-1.635
-1.48
-1.47
-1.475
-1.605
-1.625
-1.695
-1.74
-1.545
-1.435
-1.245
-1.03
-0.925
-0.885
-0.86
-0.715
-0.885
-0.885
-0.79
-0.72
-0.59
-0.415
-0.55
-0.705
-0.955
-1.49
-1.415
-1.48
-1.495
-1.395
-1.405
-1.39
-1.31
-1.305
-1.485
-1.42
-1.53
-1.65
-1.57
-1.565
-1.485
-1.395
-1.355
-1.43
-1.62
-1.565
-1.69
-1.65
-1.645
-1.515
-1.405
-1.41
-1.44
-1.455
-1.505
-1.595
-1.765
-1.69
-1.58
-1.605
-1.59
-1.475
-1.39
-1.425
-1.46
-1.585
-1.695
-1.675
-1.525
-1.49
-1.455
-1.34
-1.35
-1.43
-1.555
-1.57
-1.71
-1.63
-1.62
-1.56
-1.52
-1.3
-1.355
-1.45
-1.53
-1.525
-1.545
-1.63
-1.54
-1.43
-1.405
-1.295
-1.355
-1.395
-1.48
-1.6
-1.65
-1.585
-1.605
-1.535
-1.38
-1.295
-1.425
-1.36
-1.34
-1.4
-1.575
-1.55
-1.505
-1.425
-1.32
-1.29
-1.335
-1.28
-1.38
-1.425
-1.52
-1.4
-1.33
-1.32
-1.25
-1.165
-1.235
-1.35
-1.205
-1.325
-1.54
-1.37
-1.315
-1.22
-1.13
-1.12
-1.115
-1.135
-1.265
-1.325
-1.36
-1.42
-1.345
-1.22
-1.165
-1.17
-1.115
-1.215
-1.29
-1.295
-1.495
-1.28
-1.405
-1.335
-1.24
-1.21
-1.31
-1.37
-1.33
-1.515
-1.6
-1.63
-1.455
-1.45
-1.415
-1.295
-1.315
-1.425
-1.555
-1.53
-1.525
-1.65
-1.485
-1.405
-1.48
-1.375
-1.395
-1.49
-1.705
-1.57
-1.62
-1.655
-1.61
-1.505
-1.39
-1.395
-1.375
-1.46
-1.515
-1.62
-1.68
-1.58
-1.555
-1.505
-1.435
-1.35
-1.395
-1.565
-1.505
-1.65
-1.625
-1.665
-1.6
-1.505
-1.38
-1.24
-1.29
-1.44
-1.69
-1.595
-1.625
-1.6
-1.575
-1.59
-1.435
-1.34
-1.38
-1.515
-1.595
-1.695
-1.66
-1.565
-1.43
-1.455
-1.39
-1.44
-1.45
-1.51
-1.505
-1.565
-1.695
-1.6
-1.59
-1.46
-1.35
-1.4
-1.465
-1.55
-1.48
-1.65
-1.62
-1.57
-1.5
-1.465
-1.345
-1.285
-1.435
-1.505
-1.62
-1.72
-1.765
-1.66
-1.575
-1.415
-1.295
-1.395
-1.44
-1.46
-1.52
-1.655
-1.615
-1.57
-1.47
-1.535
-1.38
-1.405
-1.505
-1.53
-1.58
-1.655
-1.605
-1.555
-1.5
-1.37
-1.37
-1.36
-1.48
-1.605
-1.58
-1.635
-1.585
-1.54
-1.5
-1.61
-1.39
-1.365
-1.42
-1.475
-1.595
-1.57
-1.625
-1.54
-1.555
-1.51
-1.415
-1.315
-1.4
-1.48
-1.58
-1.635
-1.575
-1.53
-1.465
-1.45
-1.21
-1.345
-1.38
-1.445
-1.415
-1.47
-1.55
-1.35
-1.52
-1.275
-1.315
-1.34
-1.49
-1.525
-1.57
-1.55
-1.54
-1.41
-1.395
-1.455
-1.315
-1.45
-1.42
-1.46
-1.65
-1.725
-1.675
-1.545
-1.56
-1.39
-1.295
-1.415
-1.455
-1.57
-1.655
-1.68
-1.67
-1.56
-1.525
-1.36
-1.32
-1.415
-1.51
-1.57
-1.835
-1.75
-1.675
-1.655
-1.59
-1.505
-1.455
-1.4
-1.42
-1.41
-1.34
-1.1
-1.07
-0.935
-0.76
-0.555
-0.445
-0.5
-0.485
-0.525
-0.605
-0.625
-0.705
-0.795
-1.105
-1.085
-1.295
-1.28
-1.32
-1.35
-1.53
-1.41
-1.395
-1.405
-1.39
-1.31
-1.395
-1.55
-1.495
-1.515
-1.71
-1.72
-1.605
-1.565
-1.49
-1.41
-1.355
-1.465
-1.465
-1.485
-1.605
-1.575
-1.675
-1.595
-1.605
-1.435
-1.46
-1.44
-1.645
-1.575
-1.645
-1.675
-1.505
-1.43
-1.445
-1.365
-1.34
-1.505
-1.545
-1.57
-1.64
-1.64
-1.535
-1.475
-1.54
-1.35
-1.33
-1.365
-1.465
-1.6
-1.705
-1.64
-1.555
-1.5
-1.395
-1.345
-1.285
-1.49
-1.545
-1.435
-1.495
-1.535
-1.52
-1.435
-1.435
-1.35
-1.405
-1.525
-1.465
-1.51
-1.54
-1.42
-1.44
-1.37
-1.41
-1.23
-1.24
-1.235
-1.42
-1.5
-1.53
-1.54
-1.45
-1.37
-1.23
-1.22
-1.26
-1.315
-1.315
-1.355
-1.425
-1.355
-1.25
-1.21
-1.165
-1.13
-1.165
-1.315
-1.265
-1.305
-1.295
-1.405
-1.35
-1.185
-1.03
-1.12
-1.11
-1.135
-1.27
-1.37
-1.355
-1.375
-1.295
-1.25
-1.145
-1.15
-1.235
-1.255
-1.35
-1.425
-1.445
-1.41
-1.365
-1.27
-1.14
-1.195
-1.3
-1.4
-1.415
-1.56
-1.56
-1.535
-1.525
-1.43
-1.295
-1.245
-1.345
-1.505
-1.505
-1.625
-1.595
-1.575
-1.47
-1.455
-1.29
-1.395
-1.45
-1.405
-1.49
-1.71
-1.65
-1.5
-1.51
-1.455
-1.32
-1.365
-1.5
-1.48
-1.585
-1.615
-1.59
-1.5
-1.445
-1.455
-1.37
-1.305
-1.295
-1.52
-1.415
-1.575
-1.645
-1.585
-1.49
-1.44
-1.39
-1.36
-1.495
-1.535
-1.485
-1.64
-1.555
-1.59
-1.53
-1.36
-1.32
-1.3
-1.36
-1.415
-1.515
-1.67
-1.595
-1.55
-1.525
-1.545
-1.28
-1.315
-1.36
-1.43
-1.505
-1.64
-1.725
-1.61
-1.51
-1.385
-1.35
-1.42
-1.43
-1.45
-1.565
-1.65
-1.63
-1.515
-1.415
-1.415
-1.385
-1.4
-1.48
-1.58
-1.615
-1.65
-1.515
-1.55
-1.455
-1.395
-1.35
-1.415
-1.455
-1.47
-1.605
-1.595
-1.555
-1.515
-1.535
-1.395
-1.39
-1.4
-1.38
-1.445
-1.58
-1.64
-1.635
-1.625
-1.445
-1.33
-1.4
-1.36
-1.5
-1.585
-1.715
-1.67
-1.625
-1.415
-1.4
-1.305
-1.375
-1.4
-1.52
-1.52
-1.755
-1.555
-1.56
-1.54
-1.53
-1.405
-1.35
-1.36
-1.465
-1.44
-1.445
-1.495
-1.515
-1.345
-1.255
-1.24
-1.26
-1.23
-1.375
-1.54
-1.62
-1.475
-1.43
-1.395
-1.38
-1.36
-1.365
-1.435
-1.415
-1.55
-1.755
-1.71
-1.605
-1.525
-1.45
-1.305
-1.375
-1.415
-1.595
-1.52
-1.61
-1.595
-1.635
-1.505
-1.47
-1.38
-1.47
-1.37
-1.495
-1.505
-1.58
-1.7
-1.68
-1.61
-1.63
-1.41
-1.455
-1.54
-1.63
-1.5
-1.535
-1.455
-1.365
-1.08
-0.9
-0.8
-0.71
-0.675
-0.6
-0.65
-0.81
-0.735
-0.575
-0.535
-0.475
-0.53
-0.865
-1.11
-1.28
-1.375
-1.52
-1.515
-1.48
-1.44
-1.34
-1.19
-1.38
-1.365
-1.435
-1.585
-1.585
-1.585
-1.59
-1.555
-1.49
-1.46
-1.435
-1.41
-1.575
-1.525
-1.6
-1.67
-1.58
-1.435
-1.46
-1.415
-1.4
-1.46
-1.645
-1.64
-1.68
-1.645
-1.62
-1.555
-1.42
-1.38
-1.36
-1.41
-1.52
-1.54
-1.705
-1.735
-1.565
-1.525
-1.42
-1.31
-1.375
-1.475
-1.52
-1.635
-1.715
-1.545
-1.555
-1.505
-1.325
-1.315
-1.31
-1.56
-1.555
-1.615
-1.575
-1.585
-1.43
-1.455
-1.31
-1.27
-1.39
-1.295
-1.56
-1.615
-1.575
-1.52
-1.535
-1.38
-1.315
-1.295
-1.365
-1.42
-1.38
-1.465
-1.465
-1.55
-1.37
-1.29
-1.19
-1.24
-1.25
-1.305
-1.44
-1.59
-1.415
-1.375
-1.285
-1.285
-1.11
-1.115
-1.1
-1.17
-1.27
-1.365
-1.29
-1.41
-1.28
-1.17
-1.07
-1.105
-1.15
-1.28
-1.25
-1.46
-1.43
-1.27
-1.18
-1.21
-0.99
-1.135
-1.12
-1.2
-1.315
-1.39
-1.425
-1.42
-1.42
-1.235
-1.115
-1.25
-1.305
-1.345
-1.315
-1.47
-1.595
-1.53
-1.425
-1.385
-1.285
-1.225
-1.44
-1.485
-1.505
-1.59
-1.475
-1.54
-1.445
-1.44
-1.31
-1.35
-1.33
-1.435
-1.505
-1.565
-1.585
-1.535
-1.53
-1.445
-1.335
-1.405
-1.42
-1.42
-1.495
-1.58
-1.645
-1.46
-1.44
-1.415
-1.255
-1.29
-1.365
-1.56
-1.59
-1.525
-1.545
-1.53
-1.51
-1.26
-1.305
-1.375
-1.33
-1.5
-1.57
-1.65
-1.515
-1.47
-1.56
-1.385
-1.295
-1.395
-1.29
-1.585
-1.54
-1.605
-1.49
-1.49
-1.415
-1.415
-1.285
-1.35
-1.345
-1.425
-1.655
-1.645
-1.62
-1.535
-1.44
-1.4
-1.325
-1.325
-1.345
-1.455
-1.64
-1.665
-1.53
-1.565
-1.47
-1.28
-1.28
-1.355
-1.34
-1.46
-1.57
-1.655
-1.55
-1.46
-1.42
-1.305
-1.33
-1.43
-1.435
-1.61
-1.725
-1.63
-1.515
-1.4
-1.325
-1.325
-1.31
-1.33
-1.365
-1.5
-1.71
-1.58
-1.495
-1.43
-1.325
-1.4
-1.39
-1.425
-1.445
-1.49
-1.57
-1.625
-1.5
-1.415
-1.455
-1.325
-1.375
-1.415
-1.47
-1.525
-1.54
-1.55
-1.56
-1.44
-1.405
-1.235
-1.33
-1.305
-1.455
-1.485
-1.565
-1.51
-1.485
-1.47
-1.26
-1.225
-1.215
-1.315
-1.355
-1.515
-1.49
-1.4
-1.395
-1.32
-1.29
-1.195
-1.215
-1.235
-1.345
-1.525
-1.54
-1.54
-1.485
-1.445
-1.505
-1.285
-1.27
-1.405
-1.475
-1.495
-1.66
-1.55
-1.56
-1.41
-1.41
-1.235
-1.41
-1.43
-1.52
-1.395
-1.52
-1.605
-1.57
-1.51
-1.45
-1.31
-1.39
-1.435
-1.58
-1.655
-1.75
-1.81
-1.48
-1.445
-1.43
-1.29
-1.275
-1.275
-1.25
-1.095
-1.055
-0.98
-0.785
-0.6
-0.41
-0.36
-0.465
-0.47
-0.465
-0.6
-0.765
-0.875
-1.095
-1.06
-1.22
-1.14
-1.16
-1.235
-1.35
-1.435
-1.495
-1.45
-1.45
-1.435
-1.355
-1.33
-1.425
-1.47
-1.45
-1.625
-1.595
-1.54
-1.56
-1.445
-1.38
-1.315
-1.335
-1.475
-1.56
-1.58
-1.54
-1.545
-1.55
-1.515
-1.325
-1.33
-1.39
-1.505
-1.485
-1.57
-1.545
-1.515
-1.405
-1.44
-1.32
-1.435
-1.335
-1.51
-1.485
-1.6
-1.595
-1.51
-1.47
-1.38
-1.305
-1.35
-1.44
-1.38
-1.455
-1.575
-1.57
-1.53
-1.405
-1.365
-1.25
-1.405
-1.3
-1.37
-1.455
-1.485
-1.5
-1.52
-1.42
-1.385
-1.255
-1.225
-1.245
-1.36
-1.385
-1.495
-1.405
-1.42
-1.36
-1.305
-1.245
-1.17
-1.215
-1.295
-1.42
-1.415
-1.435
-1.34
-1.3
-1.17
-1.1
-1.1
-1.255
-1.195
-1.245
-1.37
-1.425
-1.27
-1.19
-1.14
-1.025
-1.0
-1.175
-1.185
-1.295
-1.3
-1.315
-1.235
-1.095
-1.1
-1.055
-1.04
-1.135
-1.175
-1.16
-1.39
-1.34
-1.25
-1.16
-1.095
-1.01
-0.985
-1.065
-1.155
-1.285
-1.515
-1.365
-1.315
-1.315
-1.28
-1.255
-1.27
-1.185
-1.395
-1.53
-1.47
-1.48
-1.395
-1.37
-1.285
-1.285
-1.2
-1.375
-1.47
-1.505
-1.645
-1.515
-1.465
-1.355
-1.24
-1.255
-1.36
-1.39
-1.41
-1.525
-1.6
-1.485
-1.405
-1.33
-1.265
-1.29
-1.35
-1.33
-1.385
-1.5
-1.525
-1.53
-1.52
-1.4
-1.315
-1.31
-1.385
-1.415
-1.435
-1.53
-1.5
-1.475
-1.455
-1.315
-1.315
-1.33
-1.335
-1.335
-1.48
-1.595
-1.625
-1.45
-1.36
-1.4
-1.195
-1.3
-1.285
-1.38
-1.47
-1.595
-1.525
-1.48
-1.47
-1.435
-1.33
-1.25
-1.265
-1.295
-1.5
-1.6
-1.525
-1.515
-1.455
-1.375
-1.16
-1.29
-1.25
-1.43
-1.585
-1.49
-1.56
-1.46
-1.435
-1.31
-1.365
-1.265
-1.36
-1.395
-1.35
-1.54
-1.665
-1.5
-1.42
-1.48
-1.25
-1.21
-1.31
-1.4
-1.415
-1.525
-1.55
-1.53
-1.425
-1.385
-1.255
-1.295
-1.38
-1.47
-1.45
-1.575
-1.485
-1.47
-1.355
-1.31
-1.215
-1.39
-1.4
-1.36
-1.425
-1.54
-1.545
-1.435
-1.365
-1.315
-1.265
-1.27
-1.385
-1.32
-1.405
-1.475
-1.5
-1.395
-1.265
-1.285
-1.225
-1.235
-1.195
-1.305
-1.34
-1.515
-1.37
-1.38
-1.28
-1.32
-1.215
-1.18
-1.315
-1.355
-1.54
-1.56
-1.52
-1.335
-1.28
-1.225
-1.26
-1.305
-1.41
-1.44
-1.52
-1.535
-1.455
-1.52
-1.435
-1.395
-1.275
-1.33
-1.345
-1.435
-1.5
-1.565
-1.485
-1.455
-1.395
-1.27
-1.375
-1.41
-1.44
-1.565
-1.7
-1.725
-1.615
-1.465
-1.42
-1.155
-1.025
-0.975
-0.95
-0.895
-0.865
-0.83
-0.74
-0.61
-0.57
-0.46
-0.42
-0.44
-0.445
-0.615
-0.95
-1.245
-1.33
-1.28
-1.27
-1.205
-1.22
-1.25
-1.32
-1.36
-1.46
-1.5
-1.485
-1.42
-1.395
-1.23
-1.225
-1.32
-1.415
-1.42
-1.695
-1.595
-1.49
-1.45
-1.395
-1.24
-1.26
-1.28
-1.345
-1.465
-1.555
-1.59
-1.44
-1.45
-1.485
-1.225
-1.295
-1.34
-1.485
-1.5
-1.5
-1.44
-1.465
-1.325
-1.37
-1.24
-1.33
-1.3
-1.345
-1.385
-1.625
-1.5
-1.47
-1.38
-1.335
-1.235
-1.28
-1.41
-1.4
-1.41
-1.58
-1.44
-1.375
-1.31
-1.275
-1.165
-1.11
-1.175
-1.32
-1.47
-1.47
-1.415
-1.52
-1.38
-1.275
-1.085
-1.175
-1.275
-1.325
-1.385
-1.43
-1.335
-1.39
-1.29
-1.085
-1.135
-1.145
-1.135
-1.28
-1.335
-1.43
-1.335
-1.22
-1.13
-1.075
-1.025
-1.07
-1.085
-1.165
-1.285
-1.275
-1.19
-1.285
-1.085
-1.01
-1.03
-1.015
-1.085
-1.145
-1.21
-1.195
-1.13
-1.145
-1.035
-0.985
-0.875
-0.975
-1.18
-1.13
-1.305
-1.4
-1.345
-1.12
-1.085
-1.025
-1.015
-1.05
-1.11
-1.165
-1.36
-1.36
-1.365
-1.39
-1.26
-1.1
-1.18
-1.235
-1.325
-1.3
-1.495
-1.49
-1.47
-1.31
-1.315
-1.18
-1.27
-1.3
-1.3
-1.405
-1.59
-1.47
-1.395
-1.36
-1.395
-1.315
-1.2
-1.275
-1.325
-1.405
-1.475
-1.485
-1.48
-1.37
-1.34
-1.275
-1.245
-1.39
-1.37
-1.425
-1.715
-1.565
-1.35
-1.34
-1.32
-1.21
-1.18
-1.225
-1.415
-1.435
-1.5
-1.46
-1.44
-1.41
-1.345
-1.285
-1.225
-1.355
-1.33
-1.395
-1.515
-1.51
-1.38
-1.3
-1.27
-1.155
-1.155
-1.25
-1.4
-1.41
-1.465
-1.515
-1.49
-1.37
-1.29
-1.2
-1.345
-1.245
-1.31
-1.355
-1.41
-1.415
-1.475
-1.355
-1.36
-1.25
-1.22
-1.45
-1.375
-1.405
-1.49
-1.44
-1.535
-1.29
-1.25
-1.235
-1.155
-1.315
-1.34
-1.43
-1.59
-1.56
-1.43
-1.3
-1.205
-1.23
-1.235
-1.275
-1.445
-1.41
-1.525
-1.485
-1.33
-1.255
-1.21
-1.165
-1.2
-1.275
-1.455
-1.48
-1.58
-1.545
-1.405
-1.385
-1.2
-1.255
-1.365
-1.305
-1.3
-1.45
-1.47
-1.41
-1.335
-1.25
-1.26
-1.26
-1.22
-1.245
-1.385
-1.425
-1.39
-1.365
-1.315
-1.3
-1.15
-1.075
-1.19
-1.105
-1.22
-1.405
-1.39
-1.41
-1.33
-1.275
-1.18
-1.115
-1.3
-1.345
-1.33
-1.525
-1.555
-1.54
-1.375
-1.275
-1.16
-1.155
-1.085
-1.39
-1.385
-1.47
-1.55
-1.485
-1.47
-1.36
-1.22
-1.295
-1.305
-1.325
-1.475
-1.495
-1.45
-1.5
-1.335
-1.45
-1.34
-1.33
-1.29
-1.38
-1.435
-1.485
-1.31
-1.1
-0.88
-0.74
-0.62
-0.545
-0.54
-0.49
-0.5
-0.635
-0.585
-0.415
-0.4
-0.45
-0.62
-0.935
-1.095
-1.21
-1.275
-1.375
-1.345
-1.32
-1.24
-1.205
-1.165
-1.14
-1.21
-1.255
-1.455
-1.545
-1.54
-1.43
-1.32
-1.38
-1.17
-1.21
-1.25
-1.41
-1.38
-1.495
-1.49
-1.445
-1.27
-1.315
-1.23
-1.215
-1.28
-1.41
-1.445
-1.55
-1.565
-1.505
-1.335
-1.295
-1.2
-1.155
-1.29
-1.42
-1.435
-1.565
-1.49
-1.455
-1.295
-1.25
-1.15
-1.175
-1.26
-1.33
-1.48
-1.495
-1.47
-1.45
-1.31
-1.285
-1.24
-1.23
-1.245
-1.31
-1.365
-1.42
-1.44
-1.27
-1.245
-1.14
-1.15
-1.255
-1.265
-1.27
-1.395
-1.41
-1.4
-1.265
-1.255
-1.095
-1.175
-1.26
-1.26
-1.37
-1.385
-1.3
-1.36
-1.26
-1.21
-1.205
-1.19
-1.265
-1.27
-1.325
-1.4
-1.38
-1.355
-1.285
-1.235
-1.08
-1.165
-1.18
-1.27
-1.285
-1.37
-1.345
-1.4
-1.285
-1.28
-1.18
-1.075
-1.205
-1.27
-1.31
-1.435
-1.43
-1.48
-1.405
-1.395
-1.19
-1.165
-1.23
-1.385
-1.375
-1.58
-1.51
-1.475
-1.445
-1.465
-1.345
-1.335
-1.435
-1.46
-1.62
-1.635
-1.49
-1.55
-1.5
-1.405
-1.3
-1.365
-1.41
-1.445
-1.465
-1.75
-1.655
-1.55
-1.45
-1.45
-1.295
-1.34
-1.455
-1.495
-1.525
-1.66
-1.495
-1.585
-1.545
-1.41
-1.315
-1.24
-1.35
-1.505
-1.535
-1.59
-1.51
-1.435
-1.555
-1.38
-1.26
-1.255
-1.37
-1.39
-1.445
-1.585
-1.625
-1.535
-1.455
-1.375
-1.28
-1.33
-1.385
-1.48
-1.455
-1.505
-1.47
-1.46
-1.505
-1.38
-1.21
-1.31
-1.4
-1.445
-1.475
-1.56
-1.505
-1.49
-1.465
-1.385
-1.165
-1.225
-1.295
-1.39
-1.5
-1.525
-1.675
-1.435
-1.385
-1.375
-1.24
-1.24
-1.285
-1.395
-1.385
-1.5
-1.535
-1.395
-1.39
-1.355
-1.255
-1.32
-1.375
-1.42
-1.505
-1.48
-1.44
-1.46
-1.28
-1.21
-1.235
-1.265
-1.35
-1.38
-1.475
-1.45
-1.375
-1.435
-1.355
-1.27
-1.255
-1.335
-1.385
-1.355
-1.47
-1.44
-1.555
-1.435
-1.25
-1.2
-1.255
-1.21
-1.32
-1.4
-1.52
-1.5
-1.44
-1.315
-1.265
-1.23
-1.29
-1.315
-1.32
-1.38
-1.425
-1.435
-1.325
-1.26
-1.23
-1.125
-1.06
-1.22
-1.19
-1.195
-1.415
-1.365
-1.24
-1.28
-1.19
-1.085
-1.105
-1.155
-1.355
-1.385
-1.42
-1.45
-1.46
-1.43
-1.245
-1.075
-1.125
-1.19
-1.285
-1.36
-1.555
-1.55
-1.425
-1.335
-1.225
-1.195
-1.155
-1.19
-1.32
-1.395
-1.475
-1.46
-1.38
-1.275
-1.36
-1.235
-1.225
-1.38
-1.47
-1.455
-1.565
-1.52
-1.5
-1.38
-1.305
-1.08
-1.065
-1.01
-0.905
-0.835
-0.805
-0.735
-0.575
-0.415
-0.31
-0.18
-0.31
-0.245
-0.295
-0.435
-0.75
-0.915
-1.105
-1.205
-1.105
-1.04
-1.005
-1.08
-1.2
-1.15
-1.325
-1.355
-1.29
-1.26
-1.265
-1.22
-1.22
-1.365
-1.38
-1.47
-1.4
-1.415
-1.425
-1.26
-1.1
-1.3
-1.22
-1.31
-1.355
-1.415
-1.4
-1.405
-1.345
-1.31
-1.15
-1.12
-1.29
-1.305
-1.41
-1.485
-1.465
-1.445
-1.42
-1.25
-1.185
-1.09
-1.06
-1.25
-1.34
-1.51
-1.47
-1.43
-1.325
-1.265
-1.18
-1.19
-1.21
-1.295
-1.28
-1.4
-1.41
-1.375
-1.31
-1.255
-1.065
-1.15
-1.24
-1.2
-1.26
-1.26
-1.26
-1.375
-1.25
-1.23
-1.095
-1.185
-1.22
-1.235
-1.215
-1.32
-1.265
-1.24
-1.2
-1.235
-0.905
-1.02
-1.115
-1.165
-1.145
-1.31
-1.25
-1.175
-1.14
-1.105
-0.985
-0.935
-1.025
-1.06
-1.08
-1.29
-1.26
-1.15
-1.105
-1.015
-0.88
-0.88
-0.95
-0.945
-1.02
-1.185
-1.1
-0.995
-1.06
-0.915
-0.82
-0.96
-0.96
-1.09
-1.1
-1.125
-1.135
-1.145
-0.995
-0.98
-0.92
-1.04
-1.07
-1.165
-1.265
-1.25
-1.195
-1.18
-1.12
-1.135
-1.055
-1.125
-1.165
-1.16
-1.325
-1.37
-1.32
-1.3
-1.175
-1.115
-1.17
-1.225
-1.21
-1.27
-1.335
-1.395
-1.375
-1.365
-1.25
-1.205
-1.1
-1.185
-1.2
-1.25
-1.24
-1.375
-1.29
-1.425
-1.255
-1.15
-1.065
-1.185
-1.16
-1.305
-1.36
-1.365
-1.295
-1.305
-1.23
-1.28
-1.065
-1.125
-1.245
-1.33
-1.36
-1.385
-1.32
-1.25
-1.17
-1.16
-1.15
-1.215
-1.235
-1.32
-1.355
-1.365
-1.31
-1.275
-1.335
-1.16
-1.095
-1.11
-1.155
-1.29
-1.355
-1.4
-1.295
-1.4
-1.28
-1.155
-1.1
-1.15
-1.24
-1.34
-1.43
-1.345
-1.32
-1.235
-1.29
-1.14
-1.115
-1.1
-1.18
-1.245
-1.455
-1.385
-1.325
-1.255
-1.295
-1.15
-1.09
-1.13
-1.25
-1.315
-1.35
-1.375
-1.38
-1.41
-1.195
-1.085
-1.11
-1.135
-1.235
-1.31
-1.415
-1.335
-1.3
-1.28
-1.215
-1.09
-1.165
-1.215
-1.215
-1.275
-1.4
-1.365
-1.375
-1.26
-1.16
-1.075
-1.22
-1.18
-1.265
-1.27
-1.37
-1.29
-1.39
-1.29
-1.175
-1.14
-1.155
-1.245
-1.105
-1.235
-1.295
-1.37
-1.365
-1.195
-1.085
-1.13
-1.085
-1.12
-1.13
-1.345
-1.305
-1.38
-1.055
-1.1
-1.11
-0.915
-0.875
-1.08
-1.165
-1.23
-1.43
-1.36
-1.345
-1.195
-1.135
-1.03
-1.24
-1.185
-1.295
-1.325
-1.395
-1.37
-1.255
-1.185
-1.175
-1.195
-1.12
-1.18
-1.29
-1.395
-1.345
-1.4
-1.33
-1.21
-1.175
-1.11
-1.08
-1.22
-1.35
-1.48
-1.49
-1.55
-1.41
-1.4
-1.245
-1.145
-1.16
-1.095
-1.185
-1.2
-1.055
-0.895
-0.795
-0.575
-0.27
-0.235
-0.22
-0.355
-0.385
-0.48
-0.3
-0.27
-0.485
-0.57
-0.75
-0.88
-0.995
-1.12
-1.13
-1.225
-1.285
-1.16
-1.235
-1.24
-1.025
-1.04
-1.09
-1.295
-1.36
-1.47
-1.39
-1.385
-1.255
-1.28
-1.15
-1.225
-1.265
-1.23
-1.255
-1.38
-1.405
-1.28
-1.35
-1.245
-1.17
-1.17
-1.085
-1.25
-1.195
-1.32
-1.455
-1.355
-1.41
-1.245
-1.005
-1.1
-1.185
-1.12
-1.27
-1.43
-1.405
-1.305
-1.325
-1.23
-1.295
-1.055
-1.115
-1.22
-1.245
-1.375
-1.385
-1.28
-1.28
-1.155
-1.11
-1.17
-1.24
-1.17
-1.245
-1.345
-1.29
-1.32
-1.275
-1.11
-0.965
-1.065
-1.1
-1.07
-1.22
-1.275
-1.29
-1.245
-1.2
-1.075
-1.095
-1.04
-1.175
-1.27
-1.225
-1.43
-1.31
-1.315
-1.18
-1.245
-1.06
-1.15
-1.15
-1.105
-1.25
-1.315
-1.3
-1.185
-1.205
-1.19
-1.085
-1.12
-1.15
-1.165
-1.3
-1.235
-1.175
-1.19
-1.145
-1.0
-0.92
-0.965
-0.99
-1.075
-1.18
-1.28
-1.23
-1.23
-1.035
-1.085
-0.975
-0.955
-1.125
-1.115
-1.215
-1.37
-1.235
-1.18
-1.215
-1.065
-1.035
-0.99
-1.14
-1.23
-1.25
-1.335
-1.23
-1.295
-1.225
-1.135
-1.13
-1.185
-1.32
-1.225
-1.355
-1.355
-1.33
-1.215
-1.265
-1.13
-1.06
-1.2
-1.29
-1.285
-1.455
-1.39
-1.335
-1.24
-1.335
-1.07
-1.08
-1.12
-1.25
-1.265
-1.38
-1.32
-1.245
-1.33
-1.225
-1.165
-1.15
-1.23
-1.135
-1.26
-1.54
-1.355
-1.3
-1.2
-1.255
-1.085
-1.095
-1.14
-1.15
-1.3
-1.37
-1.355
-1.295
-1.19
-1.21
-1.105
-1.085
-1.185
-1.255
-1.33
-1.415
-1.35
-1.39
-1.165
-1.1
-1.045
-1.12
-1.155
-1.26
-1.27
-1.405
-1.355
-1.305
-1.23
-1.295
-1.08
-1.16
-1.16
-1.175
-1.28
-1.46
-1.415
-1.33
-1.27
-1.185
-1.03
-1.075
-1.165
-1.185
-1.275
-1.4
-1.355
-1.26
-1.19
-1.14
-1.23
-1.115
-1.09
-1.22
-1.26
-1.355
-1.325
-1.265
-1.25
-1.205
-1.085
-1.155
-1.185
-1.29
-1.285
-1.35
-1.355
-1.295
-1.21
-1.12
-1.055
-1.11
-1.215
-1.275
-1.305
-1.31
-1.275
-1.27
-1.19
-1.255
-1.075
-1.185
-1.15
-1.335
-1.33
-1.34
-1.22
-1.28
-1.135
-1.15
-1.03
-1.045
-1.19
-1.235
-1.3
-1.245
-1.235
-1.165
-1.155
-1.06
-1.005
-1.065
-1.065
-1.075
-1.2
-1.21
-1.225
-1.125
-1.005
-1.03
-0.97
-1.075
-1.115
-1.15
-1.35
-1.33
-1.25
-1.275
-1.19
-1.135
-1.02
-1.08
-1.17
-1.33
-1.445
-1.28
-1.24
-1.215
-1.15
-1.245
-1.18
-1.19
-1.205
-1.2
-1.37
-1.34
-1.28
-1.23
-1.24
-1.135
-1.155
-1.17
-1.32
-1.3
-1.52
-1.46
-1.405
-1.335
-1.2
-0.965
-0.87
-0.76
-0.695
-0.655
-0.63
-0.575
-0.45
-0.325
-0.215
-0.09
-0.045
-0.105
-0.365
-0.43
-0.855
-1.11
-1.185
-1.04
-0.975
-0.92
-0.975
-0.975
-1.05
-1.15
-1.345
-1.31
-1.325
-1.215
-1.205
-1.185
-1.07
-1.24
-1.25
-1.255
-1.455
-1.36
-1.335
-1.21
-1.21
-1.095
-1.12
-1.235
-1.31
-1.215
-1.435
-1.42
-1.275
-1.145
-1.125
-1.055
-1.06
-1.19
-1.195
-1.245
-1.46
-1.345
-1.36
-1.31
-1.24
-1.13
-1.01
-1.19
-1.33
-1.265
-1.31
-1.33
-1.175
-1.19
-1.215
-1.035
-1.075
-1.26
-1.18
-1.28
-1.315
-1.3
-1.335
-1.095
-1.13
-1.095
-1.155
-1.07
-1.135
-1.335
-1.335
-1.235
-1.245
-1.24
-1.125
-1.09
-1.09
-1.155
-1.055
-1.14
-1.21
-1.175
-1.14
-1.205
-1.02
-1.005
-0.995
-1.045
-1.15
-1.23
-1.23
-1.165
-1.085
-1.0
-0.82
-0.925
-0.86
-1.045
-1.02
-1.105
-1.085
-1.13
-1.03
-0.935
-0.815
-0.905
-0.86
-0.97
-1.005
-1.15
-0.985
-1.085
-1.02
-0.915
-0.895
-0.95
-0.93
-0.875
-0.99
-1.09
-0.945
-1.02
-1.03
-0.985
-0.87
-0.93
-1.015
-1.005
-1.12
-1.215
-1.22
-1.14
-1.16
-1.115
-1.04
-1.095
-1.135
-1.06
-1.235
-1.325
-1.255
-1.305
-1.18
-1.115
-1.08
-1.07
-1.105
-1.25
-1.245
-1.325
-1.355
-1.355
-1.25
-1.23
-1.095
-1.045
-1.115
-1.23
-1.395
-1.285
-1.315
-1.315
-1.195
-1.2
-1.1
-1.05
-1.13
-1.28
-1.27
-1.42
-1.5
-1.285
-1.115
-1.225
-1.125
-1.095
-1.095
-1.18
-1.235
-1.35
-1.37
-1.3
-1.25
-1.18
-1.065
-1.23
-1.215
-1.205
-1.195
-1.265
-1.23
-1.215
-1.195
-1.285
-1.095
-1.11
-1.24
-1.36
-1.355
-1.345
-1.375
-1.32
-1.235
-1.09
-1.165
-1.075
-1.18
-1.12
-1.34
-1.345
-1.41
-1.285
-1.165
-1.155
-1.14
-1.115
-1.2
-1.26
-1.33
-1.39
-1.42
-1.29
-1.17
-1.13
-1.13
-1.03
-1.215
-1.315
-1.33
-1.3
-1.305
-1.335
-1.195
-1.15
-1.17
-1.21
-1.175
-1.235
-1.34
-1.48
-1.36
-1.225
-1.215
-1.085
-1.07
-1.13
-1.245
-1.195
-1.315
-1.305
-1.35
-1.36
-1.165
-1.135
-1.2
-1.115
-1.225
-1.33
-1.42
-1.4
-1.385
-1.29
-1.14
-1.035
-1.135
-1.155
-1.235
-1.245
-1.445
-1.355
-1.26
-1.19
-1.13
-1.02
-1.165
-1.11
-1.205
-1.21
-1.45
-1.155
-1.27
-1.06
-1.03
-0.935
-0.965
-1.015
-1.14
-1.19
-1.22
-1.285
-1.165
-1.21
-1.17
-1.075
-1.115
-1.205
-1.175
-1.33
-1.5
-1.395
-1.405
-1.24
-1.195
-1.115
-1.16
-1.165
-1.25
-1.275
-1.44
-1.385
-1.33
-1.15
-1.12
-1.085
-1.125
-1.185
-1.325
-1.36
-1.415
-1.4
-1.415
-1.39
-1.355
-1.215
-1.275
-1.27
-1.25
-1.32
-1.3
-1.09
-1.005
-0.79
-0.605
-0.465
-0.37
-0.495
-0.475
-0.395
-0.53
-0.465
-0.305
-0.24
-0.305
-0.475
-0.81
-0.99
-1.135
-1.24
-1.295
-1.275
-1.16
-1.17
-1.11
-0.975
-1.03
-1.115
-1.26
-1.26
-1.32
-1.32
-1.3
-1.29
-1.175
-1.12
-1.195
-1.22
-1.28
-1.35
-1.355
-1.295
-1.26
-1.35
-1.08
-1.05
-1.1
-1.25
-1.25
-1.425
-1.39
-1.35
-1.255
-1.29
-1.17
-1.095
-1.135
-1.245
-1.21
-1.355
-1.325
-1.25
-1.295
-1.26
-1.075
-1.025
-1.12
-1.18
-1.265
-1.34
-1.42
-1.285
-1.205
-1.165
-1.095
-1.04
-1.11
-1.145
-1.13
-1.265
-1.3
-1.26
-1.21
-1.145
-1.02
-1.035
-1.0
-1.13
-1.185
-1.265
-1.21
-1.33
-1.245
-1.07
-1.025
-1.045
-0.975
-1.12
-1.16
-1.185
-1.23
-1.15
-1.12
-0.97
-0.88
-0.965
-1.01
-0.975
-1.015
-1.235
-1.15
-1.26
-1.03
-0.87
-0.845
-0.86
-0.845
-0.95
-0.96
-1.065
-1.03
-1.0
-0.925
-0.935
-0.925
-0.895
-0.865
-0.88
-0.935
-1.1
-1.06
-1.065
-0.99
-0.86
-0.845
-0.935
-0.94
-0.965
-1.005
-1.09
-1.135
-1.19
-1.025
-1.08
-0.925
-0.92
-0.97
-1.035
-1.225
-1.345
-1.28
-1.2
-1.085
-1.085
-0.98
-1.02
-1.135
-1.17
-1.275
-1.35
-1.265
-1.295
-1.305
-1.165
-1.09
-1.105
-1.165
-1.26
-1.285
-1.36
-1.32
-1.3
-1.155
-1.215
-1.14
-1.12
-1.21
-1.16
-1.3
-1.445
-1.335
-1.235
-1.21
-1.16
-1.02
-1.16
-1.15
-1.285
-1.39
-1.305
-1.28
-1.195
-1.045
-1.145
-1.235
-1.265
-1.22
-1.27
-1.345
-1.27
-1.4
-1.215
-1.17
-1.14
-1.115
-1.165
-1.215
-1.28
-1.31
-1.405
-1.325
-1.245
-1.185
-1.075
-1.19
-1.095
-1.1
-1.17
-1.385
-1.34
-1.355
-1.385
-1.235
-1.15
-1.08
-1.135
-1.23
-1.27
-1.28
-1.3
-1.355
-1.26
-1.245
-1.125
-1.02
-1.26
-1.225
-1.15
-1.325
-1.325
-1.29
-1.26
-1.19
-1.02
-1.06
-1.25
-1.2
-1.275
-1.48
-1.36
-1.35
-1.305
-1.21
-1.06
-1.1
-1.155
-1.235
-1.29
-1.46
-1.345
-1.315
-1.16
-1.22
-1.125
-1.09
-1.135
-1.175
-1.27
-1.415
-1.32
-1.36
-1.265
-1.275
-1.1
-1.21
-1.18
-1.265
-1.26
-1.305
-1.38
-1.325
-1.13
-1.115
-0.985
-1.11
-1.145
-1.14
-1.15
-1.27
-1.265
-1.29
-1.14
-0.96
-0.89
-1.055
-1.08
-1.145
-1.16
-1.35
-1.345
-1.185
-1.255
-1.215
-1.15
-1.125
-1.245
-1.28
-1.355
-1.39
-1.375
-1.19
-1.235
-1.145
-1.085
-1.135
-1.165
-1.34
-1.33
-1.365
-1.35
-1.33
-1.21
-1.205
-1.095
-1.175
-1.235
-1.285
-1.375
-1.39
-1.63
-1.49
-1.35
-1.295
-1.195
-1.12
-1.27
-1.12
-1.185
-1.175
-0.995
-0.8
-0.665
-0.54
-0.4
-0.355
-0.41
-0.455
-0.46
-0.46
-0.42
-0.365
-0.435
-0.72
-0.9
-0.995
-1.08
-1.26
-1.255
-1.28
-1.28
-1.205
-1.06
-1.025
-1.05
-1.06
-1.19
-1.175
-1.44
-1.45
-1.375
-1.315
-1.285
-1.13
-1.145
-1.21
-1.285
-1.2
-1.36
-1.46
-1.365
-1.245
-1.295
-1.14
-1.12
-1.245
-1.365
-1.26
-1.36
-1.45
-1.355
-1.43
-1.25
-1.01
-1.055
-1.18
-1.225
-1.32
-1.385
-1.415
-1.305
-1.27
-1.145
-1.02
-1.145
-1.145
-1.27
-1.28
-1.395
-1.33
-1.25
-1.165
-1.135
-1.12
-1.115
-1.22
-1.24
-1.175
-1.25
-1.315
-1.23
-1.18
-1.27
-1.065
-1.195
-1.095
-1.17
-1.21
-1.28
-1.325
-1.175
-1.06
-1.135
-0.995
-1.065
-1.05
-1.135
-1.215
-1.34
-1.165
-1.11
-1.145
-0.98
-0.955
-0.95
-0.925
-1.06
-1.085
-1.215
-1.155
-1.12
-0.995
-1.0
-0.88
-0.925
-0.93
-0.83
-1.075
-1.17
-1.085
-0.955
-0.985
-0.99
-0.905
-0.96
-0.99
-1.015
-1.06
-1.125
-1.035
-0.955
-0.88
-0.915
-0.865
-0.91
-1.01
-1.125
-1.19
-1.025
-1.165
-1.14
-1.04
-1.035
-0.915
-0.995
-0.975
-1.115
-1.35
-1.38
-1.295
-1.245
-1.205
-1.085
-1.07
-1.075
-1.07
-1.235
-1.385
-1.29
-1.445
-1.3
-1.15
-1.11
-1.135
-1.215
-1.265
-1.31
-1.29
-1.355
-1.365
-1.21
-1.195
-1.065
-1.06
-1.14
-1.16
-1.295
-1.405
-1.38
-1.33
-1.225
-1.22
-1.035
-1.055
-1.19
-1.2
-1.295
-1.405
-1.39
-1.32
-1.245
-1.12
-1.135
-1.065
-1.095
-1.13
-1.175
-1.43
-1.32
-1.31
-1.315
-1.215
-1.08
-1.175
-1.145
-1.235
-1.31
-1.375
-1.32
-1.21
-1.28
-1.15
-1.06
-1.045
-1.07
-1.1
-1.285
-1.33
-1.405
-1.395
-1.305
-1.19
-1.09
-1.17
-1.11
-1.14
-1.28
-1.335
-1.26
-1.265
-1.195
-1.22
-0.97
-1.1
-1.165
-1.295
-1.27
-1.285
-1.395
-1.25
-1.13
-1.155
-1.09
-1.06
-1.145
-1.185
-1.28
-1.4
-1.405
-1.395
-1.285
-1.15
-1.03
-1.045
-1.105
-1.195
-1.135
-1.265
-1.405
-1.325
-1.265
-1.145
-1.105
-1.08
-1.135
-1.265
-1.275
-1.34
-1.375
-1.225
-1.23
-1.185
-1.085
-1.115
-1.075
-1.15
-1.25
-1.265
-1.21
-1.16
-1.085
-0.915
-0.95
-0.925
-1.095
-1.13
-1.21
-1.315
-1.135
-1.215
-1.12
-1.08
-1.055
-0.985
-1.125
-1.225
-1.315
-1.365
-1.35
-1.41
-1.295
-1.11
-1.1
-1.095
-1.17
-1.21
-1.295
-1.355
-1.25
-1.295
-1.245
-1.11
-1.0
-1.12
-1.29
-1.25
-1.37
-1.4
-1.395
-1.395
-1.345
-1.23
-1.07
-1.25
-1.31
-1.285
-1.385
-1.18
-1.245
-0.95
-0.81
-0.49
-0.495
-0.485
-0.485
-0.455
-0.575
-0.415
-0.485
-0.25
-0.165
-0.2
-0.315
-0.615
-0.945
-0.965
-1.185
-1.18
-1.17
-1.125
-1.135
-0.935
-0.99
-1.02
-1.11
-1.21
-1.42
-1.345
-1.26
-1.32
-1.235
-1.085
-1.06
-1.115
-1.31
-1.27
-1.405
-1.33
-1.335
-1.195
-1.15
-1.06
-1.09
-1.18
-1.265
-1.33
-1.455
-1.435
-1.375
-1.365
-1.19
-1.16
-1.165
-1.14
-1.205
-1.28
-1.265
-1.28
-1.315
-1.275
-1.33
-1.0
-1.04
-1.23
-1.255
-1.3
-1.325
-1.31
-1.335
-1.175
-1.14
-1.03
-1.085
-1.135
-1.215
-1.195
-1.345
-1.345
-1.22
-1.09
-1.095
-1.055
-1.02
-1.125
-1.25
-1.375
-1.41
-1.245
-1.205
-1.145
-1.06
-0.93
-1.055
-1.07
-1.16
-1.26
-1.27
-1.235
-1.19
-1.225
-1.05
-0.925
-0.855
-0.98
-1.11
-1.215
-1.175
-1.09
-1.105
-1.03
-0.875
-0.785
-0.855
-1.055
-1.025
-1.01
-1.13
-1.18
-1.09
-0.96
-0.815
-0.78
-0.885
-0.86
-0.91
-1.12
-1.195
-1.13
-0.945
-0.955
-0.865
-0.86
-0.87
-0.97
-1.105
-1.16
-1.07
-1.15
-1.08
-0.94
-0.93
-0.935
-0.92
-1.04
-1.22
-1.28
-1.32
-1.255
-1.24
-1.155
-1.04
-1.075
-1.145
-1.015
-1.145
-1.345
-1.35
-1.34
-1.29
-1.26
-1.09
-1.09
-1.035
-1.215
-1.33
-1.34
-1.315
-1.4
-1.315
-1.165
-1.02
-1.085
-1.13
-1.21
-1.27
-1.475
-1.43
-1.285
-1.175
-1.28
-1.155
-1.075
-1.04
-1.175
-1.17
-1.31
-1.29
-1.295
-1.265
-1.21
-1.085
-1.11
-1.195
-1.24
-1.27
-1.365
-1.33
-1.37
-1.225
-1.13
-1.025
-0.995
-1.175
-1.2
-1.255
-1.46
-1.375
-1.285
-1.235
-1.15
-1.11
-1.135
-1.22
-1.315
-1.285
-1.395
-1.37
-1.43
-1.275
-1.165
-1.05
-0.99
-1.1
-1.175
-1.275
-1.405
-1.37
-1.25
-1.235
-1.18
-1.085
-1.095
-1.24
-1.205
-1.27
-1.335
-1.3
-1.255
-1.11
-1.19
-1.08
-1.17
-1.24
-1.25
-1.3
-1.49
-1.37
-1.225
-1.215
-1.255
-1.08
-1.105
-1.205
-1.17
-1.375
-1.265
-1.335
-1.27
-1.33
-1.215
-1.095
-1.035
-1.12
-1.215
-1.35
-1.375
-1.35
-1.275
-1.295
-1.08
-0.95
-1.15
-1.1
-1.23
-1.405
-1.24
-1.32
-1.065
-1.005
-1.1
-0.98
-0.93
-1.05
-1.105
-1.24
-1.29
-1.255
-1.265
-1.12
-0.955
-1.18
-1.2
-1.14
-1.175
-1.345
-1.38
-1.275
-1.285
-1.22
-1.085
-1.08
-1.2
-1.225
-1.23
-1.355
-1.26
-1.37
-1.3
-1.285
-1.135
-1.065
-1.08
-1.21
-1.275
-1.405
-1.375
-1.34
-1.205
-1.225
-1.285
-1.135
-1.255
-1.3
-1.37
-1.535
-1.455
-1.41
-1.355
-1.055
-0.92
-0.81
-0.655
-0.645
-0.675
-0.705
-0.605
-0.4
-0.315
-0.255
-0.05
-0.07
-0.225
-0.375
-0.56
-1.095
-1.15
-1.13
-0.98
-1.005
-0.91
-0.99
-1.13
-1.225
-1.205
-1.425
-1.33
-1.34
-1.25
-1.15
-1.035
-1.08
-1.175
-1.245
-1.355
-1.455
-1.475
-1.29
-1.255
-1.32
-1.17
-1.06
-1.165
-1.345
-1.24
-1.4
-1.425
-1.29
-1.25
-1.27
-1.125
-1.185
-1.24
-1.3
-1.255
-1.385
-1.42
-1.3
-1.245
-1.23
-1.085
-1.125
-1.235
-1.26
-1.255
-1.305
-1.275
-1.305
-1.225
-1.065
-1.045
-1.22
-1.225
-1.38
-1.275
-1.425
-1.385
-1.24
-1.2
-1.09
-1.055
-1.115
-1.06
-1.145
-1.15
-1.185
-1.3
-1.305
-1.285
-1.145
-1.06
-1.12
-1.13
-1.195
-1.305
-1.295
-1.265
-1.295
-1.06
-0.925
-1.015
-0.925
-1.065
-1.165
-1.225
-1.16
-1.165
-1.105
-0.99
-0.895
-0.895
-0.935
-1.0
-1.065
-1.15
-1.05
-1.11
-1.04
-0.955
-0.84
-0.82
-0.89
-1.0
-1.07
-1.105
-1.06
-1.01
-0.99
-0.905
-0.93
-0.785
-0.81
-1.02
-1.1
-1.215
-1.07
-1.07
-1.095
-1.025
-0.86
-0.945
-1.0
-0.92
-1.085
-1.315
-1.275
-1.14
-1.17
-1.155
-1.025
-1.13
-1.12
-1.08
-1.26
-1.375
-1.415
-1.31
-1.25
-1.2
-1.025
-1.07
-1.155
-1.185
-1.19
-1.435
-1.355
-1.205
-1.195
-1.285
-1.11
-1.09
-1.185
-1.285
-1.225
-1.34
-1.345
-1.27
-1.26
-1.205
-1.05
-1.105
-1.165
-1.305
-1.265
-1.33
-1.315
-1.305
-1.28
-1.205
-1.165
-1.1
-1.11
-1.245
-1.31
-1.36
-1.34
-1.255
-1.185
-1.125
-1.025
-1.13
-1.225
-1.26
-1.35
-1.385
-1.38
-1.44
-1.23
-1.185
-1.01
-1.1
-1.22
-1.28
-1.34
-1.365
-1.275
-1.285
-1.225
-1.2
-1.185
-1.18
-1.165
-1.225
-1.365
-1.245
-1.35
-1.285
-1.145
-1.08
-1.07
-1.155
-1.305
-1.31
-1.41
-1.33
-1.365
-1.335
-1.18
-1.095
-1.025
-1.17
-1.215
-1.18
-1.415
-1.405
-1.36
-1.2
-1.105
-1.135
-1.135
-1.235
-1.2
-1.25
-1.38
-1.455
-1.46
-1.28
-1.26
-1.075
-1.035
-1.09
-1.175
-1.305
-1.325
-1.365
-1.325
-1.285
-1.215
-1.015
-1.045
-1.165
-1.3
-1.31
-1.415
-1.395
-1.415
-1.235
-1.26
-1.065
-1.115
-1.045
-1.185
-1.18
-1.24
-1.235
-1.12
-1.11
-1.05
-0.93
-0.98
-1.0
-1.045
-1.095
-1.39
-1.35
-1.305
-1.23
-1.19
-1.09
-1.13
-1.125
-1.305
-1.295
-1.405
-1.295
-1.27
-1.27
-1.215
-1.08
-1.07
-1.235
-1.305
-1.235
-1.49
-1.485
-1.345
-1.25
-1.18
-1.04
-1.22
-1.245
-1.29
-1.325
-1.42
-1.435
-1.38
-1.29
-1.32
-1.185
-1.14
-1.23
-1.165
-1.255
-1.275
-1.12
-0.98
-0.65
-0.635
-0.5
-0.41
-0.28
-0.435
-0.385
-0.435
-0.365
-0.28
-0.185
-0.355
-0.59
-0.825
-1.055
-1.115
-1.165
-1.255
-1.22
-1.135
-1.175
-1.08
-1.08
-1.03
-1.29
-1.285
-1.38
-1.44
-1.36
-1.29
-1.205
-1.11
-1.145
-1.07
-1.175
-1.29
-1.495
-1.35
-1.45
-1.345
-1.325
-1.265
-1.105
-1.08
-1.105
-1.26
-1.43
-1.395
-1.49
-1.33
-1.175
-1.1
-1.08
-1.14
-1.2
-1.225
-1.375
-1.4
-1.4
-1.335
-1.095
-1.185
-1.07
-1.06
-1.18
-1.31
-1.37
-1.33
-1.31
-1.25
-1.15
-1.075
-1.1
-1.115
-1.115
-1.225
-1.35
-1.3
-1.365
-1.18
-1.19
-1.005
-1.055
-1.135
-1.15
-1.115
-1.305
-1.3
-1.17
-1.23
-1.095
-0.95
-1.005
-1.07
-1.0
-1.265
-1.33
-1.285
-1.2
-1.075
-1.045
-0.93
-0.89
-0.96
-1.0
-1.12
-1.14
-1.235
-1.16
-1.04
-1.0
-0.85
-0.855
-0.9
-0.945
-0.995
-1.075
-1.055
-1.005
-1.01
-1.13
-0.83
-0.845
-0.895
-0.935
-0.985
-1.025
-1.085
-1.055
-0.9
-0.945
-0.745
-0.905
-0.875
-1.05
-1.045
-1.125
-1.135
-1.13
-1.045
-0.98
-0.905
-1.07
-1.085
-1.075
-1.14
-1.275
-1.265
-1.22
-1.18
-1.155
-1.065
-1.025
-1.13
-1.165
-1.25
-1.315
-1.41
-1.29
-1.19
-1.16
-1.1
-1.065
-1.135
-1.16
-1.25
-1.28
-1.31
-1.215
-1.21
-1.15
-1.09
-1.045
-1.21
-1.24
-1.37
-1.33
-1.29
-1.245
-1.165
-1.115
-0.99
-1.05
-1.22
-1.245
-1.26
-1.285
-1.375
-1.3
-1.145
-1.11
-1.01
-1.085
-1.22
-1.225
-1.36
-1.39
-1.34
-1.15
-1.155
-1.055
-1.105
-0.96
-1.04
-1.3
-1.38
-1.425
-1.36
-1.255
-1.22
-1.105
-1.075
-1.065
-1.255
-1.25
-1.305
-1.24
-1.31
-1.26
-1.13
-1.08
-0.995
-1.035
-1.255
-1.23
-1.375
-1.35
-1.4
-1.22
-1.225
-1.09
-1.09
-1.11
-1.18
-1.235
-1.295
-1.275
-1.365
-1.255
-1.18
-1.065
-1.025
-1.175
-1.225
-1.17
-1.215
-1.235
-1.345
-1.155
-1.265
-1.11
-1.115
-1.14
-1.145
-1.245
-1.405
-1.31
-1.34
-1.2
-1.135
-1.145
-1.12
-1.19
-1.165
-1.17
-1.28
-1.345
-1.285
-1.315
-1.185
-1.02
-1.11
-1.105
-1.215
-1.31
-1.395
-1.255
-1.195
-1.175
-1.325
-0.98
-1.135
-1.13
-1.145
-1.04
-1.24
-1.23
-1.275
-1.165
-1.13
-0.98
-0.99
-1.04
-1.165
-1.13
-1.2
-1.16
-1.19
-1.065
-1.045
-0.905
-0.915
-1.06
-1.115
-1.26
-1.355
-1.305
-1.28
-1.105
-1.115
-1.095
-0.985
-1.065
-1.16
-1.435
-1.345
-1.36
-1.29
-1.28
-1.025
-1.06
-1.135
-1.19
-1.255
-1.2
-1.335
-1.305
-1.26
-1.155
-1.08
-1.095
-1.11
-1.095
-1.325
-1.52
-1.485
-1.445
-1.4
-1.275
-1.22
-1.08
-0.98
-1.05
-0.955
-0.93
-0.85
-0.705
-0.625
-0.435
-0.2
-0.15
-0.165
-0.28
-0.35
-0.365
-0.34
-0.45
-0.635
-0.9
-0.965
-1.005
-0.985
-1.055
-1.095
-1.22
-1.185
-1.165
-1.16
-1.11
-1.035
-1.12
-1.06
-1.125
-1.16
-1.325
-1.375
-1.36
-1.25
-1.29
-1.125
-1.085
-1.09
-1.23
-1.27
-1.305
-1.385
-1.35
-1.26
-1.22
-1.06
-1.095
-1.195
-1.21
-1.22
-1.315
-1.31
-1.25
-1.15
-1.175
-1.045
-1.085
-1.09
-1.205
-1.21
-1.31
-1.385
-1.3
-1.195
-1.195
-1.005
-1.075
-1.085
-1.235
-1.24
-1.28
-1.355
-1.21
-1.105
-1.245
-1.0
-0.955
-1.215
-1.24
-1.14
-1.285
-1.26
-1.145
-1.18
-1.105
-0.985
-1.07
-1.1
-1.055
-1.11
-1.245
-1.205
-1.17
-1.195
-1.015
-0.985
-1.005
-1.015
-1.075
-1.16
-1.165
-1.18
-1.045
-1.015
-0.92
-0.785
-0.825
-0.9
-0.925
-0.99
-1.095
-1.065
-1.01
-0.985
-0.9
-0.8
-0.925
-0.87
-0.975
-1.055
-1.07
-1.03
-1.05
-0.96
-0.805
-0.66
-0.83
-0.83
-0.985
-1.05
-0.925
-1.005
-0.935
-0.925
-0.955
-0.925
-0.865
-1.015
-0.96
-1.06
-1.18
-1.0
-1.105
-1.07
-0.955
-0.94
-0.965
-1.105
-1.03
-1.195
-1.21
-1.265
-1.255
-1.105
-1.01
-1.01
-1.01
-1.085
-1.18
-1.4
-1.265
-1.28
-1.12
-1.1
-1.065
-1.035
-1.07
-1.175
-1.155
-1.34
-1.335
-1.32
-1.175
-1.165
-1.05
-1.12
-1.095
-1.195
-1.22
-1.26
-1.34
-1.28
-1.19
-1.09
-0.98
-1.05
-1.105
-1.175
-1.115
-1.33
-1.27
-1.28
-1.125
-1.095
-1.005
-1.015
-1.14
-1.14
-1.13
-1.345
-1.245
-1.26
-1.135
-1.215
-1.12
-1.04
-1.065
-1.185
-1.225
-1.285
-1.195
-1.195
-1.18
-1.14
-1.09
-1.04
-1.09
-1.135
-1.235
-1.375
-1.275
-1.22
-1.18
-1.135
-1.04
-1.02
-1.065
-1.16
-1.28
-1.335
-1.21
-1.22
-1.19
-1.145
-1.01
-0.965
-1.115
-1.175
-1.22
-1.29
-1.21
-1.255
-1.16
-1.01
-1.055
-1.07
-1.115
-1.065
-1.295
-1.255
-1.145
-1.265
-1.235
-1.14
-1.08
-0.97
-1.07
-1.185
-1.305
-1.325
-1.31
-1.315
-1.185
-1.14
-0.965
-1.025
-1.095
-1.195
-1.18
-1.27
-1.265
-1.235
-1.145
-0.97
-0.975
-1.0
-1.14
-1.215
-1.225
-1.295
-1.13
-1.065
-0.99
-0.93
-0.845
-0.99
-1.105
-1.13
-1.12
-1.215
-1.12
-1.185
-1.09
-0.92
-0.99
-0.96
-1.025
-1.085
-1.33
-1.385
-1.25
-1.145
-1.215
-1.065
-1.045
-1.1
-1.125
-1.24
-1.29
-1.29
-1.27
-1.235
-1.1
-0.95
-1.01
-1.065
-1.135
-1.14
-1.2
-1.405
-1.33
-1.26
-1.165
-1.145
-1.105
-1.19
-1.275
-1.35
-1.35
-1.21
-1.23
-1.105
-0.98
-0.755
-0.585
-0.575
-0.6
-0.51
-0.605
-0.41
-0.325
-0.395
-0.305
-0.03
0.01
-0.26
-0.545
-0.885
-1.125
-1.155
-1.15
-1.06
-1.06
-0.935
-1.01
-0.98
-1.12
-1.105
-1.23
-1.215
-1.225
-1.17
-1.03
-0.975
-1.07
-1.135
-1.18
-1.235
-1.405
-1.29
-1.35
-1.16
-1.12
-1.1
-1.065
-1.08
-1.195
-1.185
-1.225
-1.265
-1.245
-1.07
-1.17
-1.11
-1.04
-1.11
-1.18
-1.235
-1.35
-1.23
-1.225
-1.175
-1.045
-0.92
-0.94
-1.08
-1.16
-1.2
-1.25
-1.23
-1.16
-1.12
-1.125
-0.97
-0.94
-1.19
-1.22
-1.235
-1.26
-1.175
-1.175
-1.17
-0.97
-0.99
-0.95
-1.0
-1.185
-1.2
-1.15
-1.185
-1.12
-1.075
-0.925
-0.895
-0.94
-1.045
-1.07
-1.165
-1.21
-1.13
-1.12
-0.975
-0.83
-0.87
-0.84
-1.0
-0.995
-1.0
-1.085
-1.07
-0.935
-0.93
-0.83
-0.81
-0.805
-0.895
-0.975
-0.985
-1.0
-1.085
-0.95
-0.815
-0.815
-0.75
-0.715
-0.82
-0.92
-1.005
-0.955
-1.03
-0.905
-0.885
-0.765
-0.71
-0.81
-0.85
-0.945
-1.145
-1.09
-0.89
-0.825
-0.9
-0.8
-0.875
-0.905
-0.975
-0.97
-1.215
-1.135
-1.115
-1.115
-1.015
-0.845
-1.055
-1.03
-0.95
-1.07
-1.175
-1.22
-1.245
-1.145
-1.115
-1.02
-1.02
-1.115
-1.09
-1.14
-1.225
-1.18
-1.22
-1.185
-1.165
-1.035
-0.97
-1.03
-1.12
-1.185
-1.28
-1.33
-1.17
-1.03
-1.065
-1.06
-0.985
-1.06
-1.18
-1.255
-1.27
-1.295
-1.135
-1.075
-1.135
-0.97
-0.98
-1.05
-1.1
-1.32
-1.275
-1.265
-1.11
-1.02
-1.105
-0.93
-0.95
-1.075
-1.19
-1.215
-1.23
-1.27
-1.13
-1.12
-1.035
-0.97
-1.065
-1.06
-1.1
-1.165
-1.26
-1.155
-1.215
-1.045
-1.12
-0.955
-0.975
-1.085
-1.15
-1.17
-1.28
-1.19
-1.21
-1.19
-1.01
-0.995
-0.975
-1.03
-1.275
-1.18
-1.18
-1.14
-1.165
-1.045
-1.105
-0.995
-0.985
-0.995
-1.11
-1.375
-1.275
-1.29
-1.18
-1.1
-1.035
-1.025
-1.07
-1.085
-1.2
-1.09
-1.305
-1.225
-1.22
-1.06
-0.895
-0.95
-1.09
-1.08
-1.125
-1.285
-1.19
-1.235
-1.14
-1.105
-0.965
-0.93
-1.02
-1.025
-1.16
-1.27
-1.265
-1.2
-1.145
-1.11
-0.97
-1.005
-0.985
-0.97
-1.065
-1.205
-1.135
-0.99
-1.065
-0.975
-0.845
-0.895
-1.02
-1.055
-1.05
-1.235
-1.235
-1.225
-1.07
-1.085
-1.05
-1.065
-1.015
-1.14
-1.265
-1.285
-1.315
-1.295
-1.205
-1.225
-1.025
-1.14
-1.085
-1.09
-1.215
-1.345
-1.35
-1.37
-1.27
-1.02
-1.06
-1.02
-1.065
-1.16
-1.245
-1.375
-1.47
-1.41
-1.225
-1.27
-1.07
-1.155
-1.1
-1.055
-1.075
-1.11
-0.925
-0.795
-0.505
-0.54
-0.35
-0.185
-0.16
-0.285
-0.3
-0.385
-0.19
-0.22
-0.42
-0.47
-0.5
-0.855
-0.85
-0.975
-1.13
-1.09
-1.17
-1.15
-1.015
-0.975
-0.96
-1.045
-1.05
-1.13
-1.16
-1.24
-1.315
-1.21
-1.06
-1.125
-1.05
-1.07
-1.05
-1.18
-1.25
-1.23
-1.2
-1.245
-1.21
-1.075
-1.025
-1.085
-1.16
-1.15
-1.18
-1.24
-1.245
-1.32
-1.14
-1.035
-1.115
-1.005
-1.125
-1.125
-1.18
-1.235
-1.16
-1.13
-1.2
-1.06
-0.96
-0.99
-1.12
-1.16
-1.215
-1.275
-1.235
-1.13
-1.015
-1.045
-0.9
-0.975
-1.04
-1.145
-1.225
-1.21
-1.305
-1.1
-1.05
-1.045
-0.945
-1.035
-0.915
-1.115
-1.105
-1.175
-1.175
-1.01
-1.015
-0.925
-0.895
-0.845
-0.96
-0.975
-1.195
-1.05
-1.03
-1.03
-0.975
-0.83
-0.87
-0.785
-0.995
-1.085
-0.935
-0.95
-0.91
-0.875
-0.775
-0.65
-0.745
-0.78
-0.915
-0.9
-1.005
-1.025
-0.97
-0.895
-0.805
-0.76
-0.75
-0.73
-0.755
-0.845
-0.93
-0.995
-0.885
-0.81
-0.81
-0.725
-0.785
-0.81
-0.905
-0.995
-1.135
-0.99
-1.05
-0.995
-0.86
-0.775
-0.785
-0.89
-0.975
-1.02
-1.195
-1.225
-1.1
-1.09
-1.06
-0.96
-0.85
-0.89
-1.065
-1.165
-1.295
-1.185
-1.03
-1.1
-1.015
-1.1
-0.945
-1.0
-1.03
-1.185
-1.22
-1.175
-1.22
-0.975
-1.005
-0.945
-0.89
-1.055
-1.115
-1.075
-1.285
-1.13
-1.11
-1.045
-0.96
-0.875
-0.885
-1.07
-1.08
-1.19
-1.235
-1.135
-1.145
-1.18
-0.935
-0.82
-0.96
-0.99
-1.125
-1.185
-1.17
-1.155
-1.185
-1.04
-1.025
-0.955
-0.92
-1.005
-1.115
-1.095
-1.15
-1.125
-1.18
-1.105
-0.965
-0.95
-1.04
-0.98
-1.06
-1.23
-1.165
-1.13
-1.085
-1.005
-0.895
-0.855
-0.905
-1.04
-1.13
-1.245
-1.145
-1.16
-1.14
-1.155
-0.985
-0.82
-0.915
-0.97
-1.13
-1.2
-1.15
-1.175
-1.125
-0.98
-0.915
-0.88
-1.135
-1.105
-0.995
-1.14
-1.135
-1.1
-1.155
-1.01
-0.93
-0.96
-1.025
-1.055
-1.04
-1.195
-1.18
-1.175
-1.145
-1.03
-0.86
-0.99
-1.005
-1.085
-1.095
-1.185
-1.215
-1.105
-0.995
-1.005
-0.89
-0.915
-0.905
-1.095
-1.155
-1.105
-1.14
-1.13
-1.1
-1.005
-0.905
-0.94
-0.94
-1.045
-1.145
-1.195
-1.15
-1.11
-0.975
-0.81
-0.635
-0.83
-0.855
-0.865
-0.98
-1.18
-1.08
-1.075
-0.915
-0.925
-0.845
-0.835
-0.945
-0.945
-1.045
-1.145
-1.21
-1.115
-1.02
-1.035
-0.95
-0.88
-0.895
-1.095
-1.095
-1.15
-1.175
-1.13
-1.05
-0.975
-0.93
-0.95
-0.985
-1.07
-1.205
-1.245
-1.25
-1.11
-1.075
-0.92
-0.84
-0.955
-0.96
-1.16
-1.175
-1.325
-1.34
-1.22
-1.19
-0.96
-0.7
-0.775
-0.62
-0.575
-0.74
-0.515
-0.43
-0.34
-0.12
-0.05
-0.065
0.055
0.065
-0.025
-0.23
-0.535
-0.855
-0.86
-0.89
-0.875
-0.775
-0.82
-0.755
-0.94
-1.14
-1.145
-1.19
-1.135
-0.985
-0.88
-0.905
-0.89
-0.99
-1.125
-1.195
-1.275
-1.21
-1.13
-1.05
-0.97
-0.91
-0.905
-1.115
-1.155
-1.175
-1.175
-1.12
-1.1
-0.97
-0.98
-0.895
-1.015
-1.01
-1.085
-1.285
-1.155
-1.115
-1.05
-0.995
-0.92
-0.91
-0.92
-1.045
-1.06
-1.255
-1.16
-1.205
-1.155
-1.015
-0.82
-0.885
-0.99
-0.995
-1.08
-1.26
-1.135
-0.98
-1.02
-0.955
-0.97
-0.925
-0.95
-0.995
-1.125
-1.185
-1.08
-1.14
-0.99
-0.94
-0.805
-0.795
-0.92
-1.065
-1.155
-1.02
-0.97
-1.095
-0.965
-0.815
-0.73
-0.74
-0.845
-0.83
-0.99
-1.12
-1.05
-0.965
-0.87
-0.855
-0.75
-0.69
-0.735
-0.875
-1.06
-0.935
-0.87
-0.79
-0.685
-0.71
-0.795
-0.66
-0.76
-0.805
-0.845
-0.83
-0.88
-0.88
-0.88
-0.705
-0.645
-0.735
-0.78
-0.815
-0.785
-0.86
-0.84
-0.8
-0.8
-0.635
-0.675
-0.83
-0.765
-0.815
-1.005
-1.08
-1.09
-0.975
-0.875
-0.76
-0.775
-0.95
-0.925
-0.915
-1.1
-1.14
-1.07
-1.02
-0.975
-0.955
-0.855
-0.87
-0.975
-1.045
-1.03
-1.235
-1.145
-1.1
-1.045
-0.88
-0.905
-0.88
-0.94
-1.065
-1.225
-1.09
-1.11
-1.1
-0.955
-0.88
-0.795
-0.895
-1.01
-1.09
-1.165
-1.135
-1.095
-1.04
-0.965
-0.855
-0.905
-0.91
-0.955
-1.025
-1.175
-1.125
-1.1
-1.135
-1.025
-0.795
-0.78
-0.985
-1.005
-1.035
-1.145
-1.18
-1.135
-1.08
-0.995
-0.81
-0.96
-0.93
-0.945
-1.045
-1.195
-1.12
-1.105
-1.11
-1.045
-0.885
-0.92
-0.96
-1.045
-1.065
-1.17
-1.15
-1.065
-0.975
-1.005
-0.805
-0.875
-0.865
-0.94
-1.02
-1.205
-1.19
-1.115
-1.045
-1.01
-0.815
-0.825
-0.905
-1.12
-1.045
-1.15
-1.11
-1.035
-1.025
-1.015
-0.9
-0.88
-0.965
-0.955
-1.065
-1.2
-1.17
-1.01
-1.01
-0.985
-0.81
-0.875
-0.915
-1.015
-1.085
-1.23
-1.13
-1.135
-1.025
-0.895
-0.815
-0.85
-0.925
-1.04
-1.025
-1.17
-1.1
-1.12
-0.99
-0.945
-0.92
-0.815
-1.02
-1.045
-0.985
-1.15
-1.205
-1.075
-0.965
-0.895
-0.895
-0.955
-0.975
-1.08
-1.08
-1.09
-1.125
-1.05
-0.93
-0.89
-0.84
-0.855
-0.82
-0.99
-0.925
-0.93
-0.86
-1.0
-0.885
-0.805
-0.735
-0.775
-0.875
-0.98
-1.06
-0.98
-1.085
-0.985
-0.855
-0.965
-0.82
-0.81
-1.025
-0.99
-1.105
-1.28
-1.075
-0.935
-0.98
-0.895
-0.805
-0.95
-1.085
-1.025
-1.165
-1.105
-1.185
-1.2
-0.985
-0.91
-0.815
-0.93
-1.03
-1.055
-1.13
-1.24
-1.175
-1.17
-1.055
-0.95
-0.93
-1.005
-0.98
-0.865
-0.83
-0.715
-0.595
-0.48
-0.13
0.01
0.015
0.065
-0.06
-0.115
-0.235
-0.145
-0.19
-0.275
-0.63
-0.6
-0.695
-0.765
-0.875
-0.91
-0.965
-1.005
-1.04
-1.0
-0.98
-0.825
-0.875
-0.915
-0.995
-1.035
-1.095
-1.15
-1.12
-1.06
-1.055
-0.875
-0.875
-0.955
-1.055
-1.11
-1.225
-1.13
-1.035
-0.95
-0.945
-0.885
-0.905
-0.965
-1.05
-1.075
-1.18
-1.19
-1.095
-1.04
-0.985
-0.845
-0.87
-0.955
-1.07
-1.02
-1.075
-1.125
-1.05
-0.875
-0.89
-0.895
-0.895
-0.98
-0.97
-1.085
-1.115
-1.115
-1.08
-1.015
-0.92
-0.805
-0.845
-0.865
-0.94
-1.04
-1.125
-1.055
-0.985
-0.945
-0.845
-0.79
-0.88
-0.92
-0.985
-0.98
-1.08
-1.085
-0.99
-0.87
-0.785
-0.735
-0.82
-0.86
-0.895
-0.89
-0.94
-0.97
-0.94
-0.82
-0.675
-0.715
-0.655
-0.75
-0.885
-0.92
-0.9
-0.885
-0.8
-0.795
-0.63
-0.585
-0.6
-0.775
-0.805
-0.81
-0.95
-0.84
-0.835
-0.565
-0.64
-0.555
-0.59
-0.675
-0.785
-0.94
-0.945
-0.745
-0.705
-0.63
-0.555
-0.655
-0.615
-0.755
-0.78
-1.005
-1.01
-0.84
-0.87
-0.84
-0.73
-0.69
-0.75
-0.885
-0.995
-1.065
-1.01
-1.03
-0.965
-0.865
-0.845
-0.77
-0.86
-1.03
-0.97
-1.125
-1.11
-1.08
-1.06
-0.925
-0.7
-0.84
-0.825
-0.89
-1.055
-1.125
-1.095
-1.095
-1.0
-1.005
-0.76
-0.855
-0.82
-0.94
-1.02
-1.225
-1.125
-1.08
-0.935
-0.93
-0.81
-0.87
-0.9
-1.005
-0.865
-1.11
-1.15
-1.065
-0.96
-0.93
-0.865
-0.81
-0.825
-1.015
-1.05
-1.16
-1.065
-0.995
-1.02
-0.94
-0.8
-0.89
-0.835
-0.96
-1.02
-1.045
-1.15
-1.13
-0.94
-0.98
-0.88
-0.8
-0.94
-0.945
-1.06
-1.125
-1.095
-1.015
-1.005
-0.845
-0.8
-0.84
-0.845
-1.0
-1.025
-1.1
-1.06
-1.09
-0.98
-0.965
-0.755
-0.78
-0.875
-0.92
-0.945
-1.085
-1.17
-1.125
-1.025
-0.865
-0.84
-0.85
-0.95
-0.985
-1.055
-1.085
-0.995
-0.975
-0.93
-0.855
-0.875
-0.94
-0.935
-0.93
-1.135
-1.085
-1.135
-1.02
-0.86
-0.885
-0.84
-0.94
-0.895
-1.015
-1.12
-1.055
-1.06
-0.925
-0.915
-0.875
-0.875
-0.865
-0.975
-1.03
-1.115
-1.065
-1.06
-1.0
-0.87
-0.865
-0.84
-0.775
-0.965
-1.035
-1.165
-1.075
-1.05
-0.93
-0.87
-0.805
-0.905
-0.915
-0.875
-1.065
-1.04
-1.025
-1.0
-0.9
-0.945
-0.805
-0.74
-0.805
-0.825
-0.855
-0.985
-0.985
-0.995
-0.815
-0.805
-0.675
-0.705
-0.75
-0.85
-0.905
-1.05
-1.065
-1.06
-0.92
-0.995
-0.78
-0.83
-0.835
-1.005
-1.03
-1.055
-1.025
-0.985
-0.965
-0.92
-0.82
-0.84
-0.925
-0.92
-0.965
-1.135
-1.15
-1.02
-0.945
-0.985
-0.865
-0.82
-0.98
-0.955
-0.985
-1.045
-1.13
-1.135
-1.025
-1.185
-1.005
-0.94
-0.955
-0.945
-0.83
-0.865
-0.635
-0.57
-0.4
-0.275
-0.055
-0.08
0.04
-0.06
-0.065
-0.125
-0.14
-0.165
-0.155
-0.51
-0.555
-0.675
-0.76
-0.845
-0.96
-1.03
-0.975
-0.975
-0.975
-0.82
-0.79
-0.815
-0.885
-0.92
-1.16
-1.02
-1.04
-0.985
-0.84
-0.855
-0.83
-0.965
-1.005
-1.085
-1.24
-1.265
-1.13
-1.005
-0.84
-0.91
-0.86
-0.845
-0.95
-1.045
-1.085
-1.12
-1.075
-0.98
-0.985
-0.935
-0.925
-0.97
-0.955
-0.99
-1.02
-1.13
-1.1
-1.0
-0.94
-0.815
-0.865
-0.9
-0.955
-0.975
-1.02
-1.24
-1.02
-0.955
-0.835
-0.69
-0.765
-0.83
-0.825
-0.965
-1.135
-1.095
-1.105
-1.005
-0.895
-0.79
-0.77
-0.805
-0.91
-0.93
-1.005
-1.085
-1.04
-0.85
-0.84
-0.745
-0.785
-0.725
-0.8
-0.86
-1.1
-0.865
-0.875
-0.8
-0.805
-0.74
-0.72
-0.78
-0.75
-0.67
-1.045
-0.8
-0.82
-0.8
-0.735
-0.495
-0.575
-0.615
-0.705
-0.78
-0.805
-0.825
-0.795
-0.69
-0.665
-0.55
-0.56
-0.69
-0.66
-0.735
-0.885
-0.81
-0.78
-0.785
-0.69
-0.545
-0.565
-0.645
-0.72
-0.83
-0.895
-0.95
-0.825
-0.88
-0.85
-0.685
-0.685
-0.745
-0.875
-0.97
-0.965
-0.975
-0.985
-0.845
-0.83
-0.865
-0.82
-0.845
-0.885
-0.92
-1.075
-1.01
-0.95
-0.915
-0.885
-0.925
-0.88
-0.88
-0.985
-1.045
-1.12
-1.09
-1.0
-0.885
-0.845
-0.825
-0.805
-0.94
-0.965
-1.06
-1.075
-1.06
-0.96
-0.955
-0.9
-0.8
-0.845
-0.96
-1.03
-1.02
-1.085
-1.07
-0.905
-0.945
-0.775
-0.72
-0.81
-0.97
-0.92
-1.145
-1.085
-1.05
-1.005
-0.87
-0.81
-0.795
-0.78
-0.97
-0.94
-1.09
-1.115
-1.11
-0.95
-0.995
-0.845
-0.845
-0.785
-0.88
-0.93
-1.125
-1.095
-1.03
-0.925
-0.875
-0.725
-0.795
-0.795
-1.06
-1.07
-1.14
-1.125
-1.045
-0.985
-0.88
-0.75
-0.825
-0.82
-0.89
-1.015
-1.05
-0.975
-1.05
-1.015
-0.96
-0.76
-0.95
-0.795
-0.925
-1.0
-1.105
-1.115
-1.145
-0.99
-0.94
-0.77
-0.82
-0.825
-0.885
-1.065
-1.13
-1.09
-0.95
-0.915
-0.925
-0.81
-0.765
-0.855
-0.95
-1.02
-1.1
-1.105
-1.05
-0.92
-0.895
-0.81
-0.79
-0.89
-0.95
-1.035
-1.18
-1.08
-1.03
-0.9
-0.95
-0.875
-0.79
-0.9
-0.945
-0.985
-1.01
-1.07
-1.115
-1.015
-0.925
-0.805
-0.895
-0.775
-0.855
-1.03
-1.015
-1.04
-0.965
-0.83
-0.85
-0.78
-0.705
-0.76
-0.845
-0.905
-0.98
-0.925
-0.9
-0.845
-0.86
-0.7
-0.705
-0.785
-0.94
-0.98
-1.105
-1.15
-1.05
-0.88
-0.87
-0.76
-0.83
-0.91
-0.94
-1.105
-1.035
-1.065
-0.975
-0.92
-0.78
-0.96
-0.855
-0.92
-1.01
-1.075
-1.055
-1.07
-1.01
-0.975
-0.915
-0.865
-0.88
-0.93
-1.1
-1.16
-1.21
-1.11
-1.085
-0.975
-0.865
-0.67
-0.6
-0.57
-0.49
-0.665
-0.405
-0.35
-0.235
-0.205
-0.09
-0.09
0.105
0.065
-0.12
-0.335
-0.68
-0.91
-0.9
-0.83
-0.66
-0.7
-0.76
-0.835
-0.95
-1.015
-0.92
-1.12
-0.975
-0.915
-0.805
-0.86
-0.89
-0.93
-0.99
-1.08
-1.115
-1.025
-0.905
-0.975
-0.955
-0.83
-0.935
-0.88
-0.95
-1.135
-1.135
-1.025
-0.955
-0.915
-0.845
-0.935
-0.85
-0.89
-0.985
-1.145
-1.01
-1.0
-1.045
-0.83
-0.845
-0.855
-0.945
-1.045
-0.94
-1.015
-1.05
-1.055
-0.965
-0.915
-0.805
-0.825
-0.9
-0.94
-0.985
-1.075
-1.05
-0.95
-0.96
-0.855
-0.74
-0.9
-0.76
-0.83
-0.9
-1.015
-1.005
-0.985
-0.92
-0.875
-0.67
-0.765
-0.785
-0.92
-0.95
-1.015
-0.895
-0.88
-0.84
-0.68
-0.745
-0.84
-0.785
-0.8
-0.805
-0.87
-0.93
-0.855
-0.675
-0.64
-0.635
-0.605
-0.605
-0.745
-0.745
-0.84
-0.935
-0.79
-0.585
-0.58
-0.57
-0.595
-0.615
-0.655
-0.78
-0.835
-0.765
-0.645
-0.63
-0.62
-0.53
-0.535
-0.545
-0.68
-0.745
-0.835
-0.845
-0.775
-0.78
-0.665
-0.67
-0.58
-0.71
-0.795
-0.785
-0.9
-0.82
-0.885
-0.77
-0.73
-0.745
-0.76
-0.795
-0.905
-1.0
-1.01
-1.035
-0.955
-0.91
-0.77
-0.635
-0.85
-0.86
-0.87
-0.995
-1.135
-1.025
-0.945
-0.9
-0.78
-0.74
-0.815
-0.91
-1.015
-1.145
-1.05
-1.04
-0.94
-0.935
-0.77
-0.815
-0.85
-0.915
-1.02
-1.07
-1.045
-1.055
-0.89
-0.945
-0.835
-0.895
-0.79
-0.91
-0.95
-1.055
-1.035
-0.97
-0.935
-0.79
-0.925
-0.845
-0.84
-0.92
-0.94
-1.095
-0.93
-0.96
-0.96
-0.97
-0.82
-0.805
-0.865
-0.94
-0.89
-0.985
-1.015
-1.025
-0.915
-0.79
-0.765
-0.805
-0.89
-0.98
-0.955
-1.005
-1.09
-0.97
-0.84
-0.855
-0.835
-0.815
-0.82
-0.94
-0.96
-1.11
-1.025
-0.92
-0.855
-0.795
-0.76
-0.795
-0.875
-0.955
-0.955
-1.08
-1.09
-1.1
-0.935
-0.845
-0.745
-0.73
-0.805
-0.935
-0.935
-1.1
-1.06
-0.94
-0.98
-0.905
-0.775
-0.785
-0.945
-0.955
-0.98
-1.11
-1.1
-1.0
-0.85
-0.805
-0.84
-0.84
-0.81
-0.995
-1.065
-1.09
-1.0
-0.92
-0.835
-0.885
-0.865
-0.845
-0.91
-0.965
-0.965
-1.04
-0.99
-0.93
-0.85
-0.735
-0.66
-0.78
-0.82
-0.845
-0.875
-0.845
-0.89
-0.83
-0.85
-0.72
-0.785
-0.73
-0.83
-0.845
-0.98
-0.995
-0.985
-0.905
-0.855
-0.775
-0.795
-0.77
-0.835
-0.94
-1.1
-0.935
-0.965
-0.975
-0.975
-0.765
-0.855
-0.815
-1.0
-0.96
-0.955
-0.98
-1.055
-1.005
-0.85
-0.805
-0.745
-0.935
-1.02
-1.05
-1.115
-1.165
-1.09
-1.02
-0.92
-0.835
-0.795
-0.735
-0.735
-0.62
-0.695
-0.6
-0.47
-0.23
-0.04
0.07
0.085
0.08
-0.005
0.02
-0.105
-0.14
-0.24
-0.48
-0.585
-0.575
-0.715
-0.715
-0.785
-0.8
-0.915
-0.91
-1.045
-0.86
-0.78
-0.655
-0.785
-0.76
-0.985
-1.02
-1.075
-1.12
-1.08
-0.87
-0.9
-0.78
-0.84
-0.895
-0.895
-0.9
-1.015
-1.06
-1.01
-0.96
-0.865
-0.765
-0.8
-0.835
-0.915
-0.96
-1.095
-1.12
-0.93
-0.93
-0.885
-0.73
-0.775
-0.9
-0.94
-0.905
-1.055
-0.99
-0.985
-0.94
-0.88
-0.735
-0.725
-0.835
-0.97
-0.95
-1.015
-0.975
-0.87
-0.97
-0.765
-0.745
-0.695
-0.86
-0.875
-0.96
-1.06
-0.92
-0.88
-0.895
-0.765
-0.585
-0.805
-0.735
-0.78
-0.96
-0.915
-0.945
-0.83
-0.73
-0.68
-0.67
-0.635
-0.83
-0.84
-0.865
-0.905
-0.86
-0.78
-0.705
-0.645
-0.61
-0.555
-0.68
-0.725
-0.835
-0.885
-0.78
-0.705
-0.68
-0.46
-0.485
-0.555
-0.57
-0.7
-0.83
-0.75
-0.775
-0.72
-0.575
-0.51
-0.485
-0.52
-0.55
-0.625
-0.8
-0.735
-0.665
-0.635
-0.64
-0.47
-0.625
-0.58
-0.59
-0.77
-0.78
-0.88
-0.855
-0.76
-0.745
-0.62
-0.73
-0.71
-0.865
-0.82
-1.045
-0.955
-1.07
-0.885
-0.705
-0.63
-0.745
-0.72
-0.885
-0.84
-1.1
-0.96
-0.95
-0.915
-0.82
-0.68
-0.785
-0.795
-0.87
-0.92
-0.97
-1.02
-0.935
-0.84
-0.78
-0.835
-0.765
-0.775
-0.855
-0.88
-1.04
-1.04
-0.965
-0.935
-0.895
-0.735
-0.63
-0.77
-0.89
-0.87
-1.12
-1.045
-0.97
-0.88
-0.83
-0.715
-0.75
-0.795
-0.83
-0.925
-0.985
-1.045
-0.975
-1.02
-0.885
-0.66
-0.69
-0.8
-0.825
-0.87
-1.015
-1.01
-0.89
-0.835
-0.86
-0.725
-0.68
-0.83
-0.95
-0.915
-1.0
-1.025
-0.975
-0.87
-0.745
-0.615
-0.61
-0.775
-0.86
-1.025
-1.085
-1.065
-0.885
-0.925
-0.825
-0.76
-0.68
-0.84
-0.97
-0.945
-1.005
-1.06
-0.955
-0.74
-0.745
-0.765
-0.775
-0.86
-0.96
-0.95
-0.945
-0.955
-0.97
