# TIPE ECG 2021 - ECG-ID Database v1.0.0 par Physionet
# [Numéro de la personne, Période d'échantillonnage, Prénom, Age, Sexe, Date de l'enregistrement]
[57, 0.002, James, 36, H, 12.05.2005]
0.28
0.265
0.255
0.265
0.27
0.265
0.27
0.315
0.31
0.295
0.29
0.29
0.285
0.285
0.29
0.315
0.305
0.26
0.245
0.27
0.295
0.285
0.275
0.295
0.285
0.265
0.285
0.275
0.285
0.31
0.29
0.315
0.325
0.355
0.325
0.325
0.32
0.305
0.29
0.295
0.26
0.24
0.24
0.25
0.27
0.275
0.25
0.215
0.22
0.25
0.245
0.215
0.25
0.235
0.25
0.245
0.23
0.24
0.24
0.225
0.225
0.265
0.225
0.17
0.17
0.215
0.21
0.165
0.195
0.215
0.21
0.205
0.18
0.195
0.15
0.18
0.145
0.14
0.12
0.155
0.16
0.225
0.28
0.33
0.435
0.555
0.635
0.725
0.82
0.86
0.87
0.855
0.755
0.67
0.515
0.355
0.265
0.225
0.225
0.215
0.26
0.18
0.175
0.17
0.19
0.215
0.19
0.165
0.155
0.16
0.12
0.13
0.2
0.16
0.05
0.15
0.195
0.155
0.175
0.11
0.12
0.155
0.2
0.195
-0.015
0.015
0.1
0.14
0.16
0.165
0.17
0.17
0.185
0.21
0.2
0.24
0.26
0.23
0.225
0.205
0.18
0.215
0.205
0.25
0.22
0.23
0.24
0.22
0.285
0.215
0.265
0.195
0.225
0.215
0.235
0.22
0.22
0.255
0.24
0.265
0.25
0.25
0.265
0.29
0.305
0.265
0.29
0.295
0.3
0.285
0.345
0.355
0.35
0.33
0.325
0.295
0.29
0.34
0.33
0.31
0.365
0.355
0.34
0.36
0.34
0.34
0.335
0.31
0.32
0.33
0.295
0.3
0.36
0.315
0.29
0.315
0.325
0.31
0.34
0.33
0.315
0.285
0.29
0.28
0.295
0.3
0.3
0.295
0.285
0.26
0.23
0.23
0.245
0.255
0.24
0.23
0.2
0.26
0.2
0.175
0.205
0.185
0.195
0.25
0.23
0.26
0.235
0.205
0.225
0.185
0.195
0.18
0.185
0.19
0.18
0.155
0.15
0.155
0.16
0.125
0.185
0.165
0.205
0.205
0.17
0.17
0.135
0.215
0.19
0.195
0.215
0.22
0.195
0.185
0.23
0.225
0.205
0.185
0.175
0.215
0.21
0.215
0.22
0.195
0.205
0.22
0.22
0.205
0.22
0.245
0.18
0.16
0.18
0.195
0.22
0.195
0.205
0.21
0.185
0.17
0.19
0.2
0.2
0.215
0.195
0.195
0.21
0.225
0.17
0.175
0.2
0.225
0.22
0.2
0.2
0.22
0.28
0.25
0.21
0.115
0.21
0.225
0.215
0.24
0.23
0.255
0.25
0.28
0.27
0.305
0.265
0.37
0.36
0.25
0.23
0.23
0.295
0.235
0.23
0.315
0.275
0.24
0.24
0.24
0.235
0.195
0.205
0.23
0.235
0.25
0.275
0.22
0.23
0.205
0.2
0.22
0.185
0.205
0.185
0.175
0.165
0.165
0.21
0.26
0.16
0.105
0.205
0.185
0.225
0.265
0.23
0.18
0.185
0.175
0.135
0.145
0.175
0.215
0.27
0.3
0.36
0.47
0.565
0.635
0.7
0.805
0.985
1.0
0.94
0.835
0.72
0.575
0.43
0.265
0.12
0.11
0.2
0.16
0.18
0.23
0.19
0.23
0.165
0.155
0.175
0.285
0.215
0.26
0.27
0.205
0.185
0.18
0.22
0.25
0.235
0.21
0.225
0.23
0.245
0.215
0.25
0.245
0.275
0.275
0.26
0.22
0.25
0.25
0.195
0.195
0.22
0.22
0.225
0.265
0.255
0.285
0.3
0.225
0.24
0.2
0.215
0.26
0.25
0.22
0.175
0.205
0.17
0.215
0.235
0.265
0.285
0.255
0.205
0.16
0.23
0.24
0.29
0.275
0.265
0.27
0.255
0.275
0.26
0.3
0.295
0.265
0.23
0.26
0.265
0.315
0.3
0.265
0.295
0.315
0.295
0.27
0.28
0.275
0.32
0.295
0.31
0.38
0.425
0.36
0.265
0.315
0.275
0.25
0.345
0.345
0.315
0.3
0.255
0.29
0.3
0.285
0.265
0.255
0.255
0.305
0.275
0.255
0.255
0.26
0.215
0.21
0.24
0.26
0.23
0.215
0.215
0.205
0.215
0.19
0.12
0.175
0.175
0.205
0.18
0.15
0.15
0.14
0.08
0.145
0.185
0.155
0.1
0.13
0.1
0.11
0.165
0.11
0.075
0.105
0.095
0.07
0.12
0.06
0.125
0.085
0.085
0.075
0.1
0.11
0.075
0.04
0.085
0.12
0.105
0.15
0.15
0.02
0.09
0.045
0.1
0.04
0.08
0.06
0.085
0.065
0.07
0.065
0.1
0.095
0.05
0.05
0.085
0.025
0.045
0.05
0.05
0.04
0.035
0.06
0.095
0.055
0.055
0.07
0.02
0.0
0.05
0.045
-0.02
0.0
0.0
0.02
0.055
0.07
0.025
0.09
0.02
-0.02
0.005
0.01
-0.005
0.055
0.055
0.015
-0.01
-0.03
-0.005
0.01
0.06
0.055
0.0
-0.045
-0.025
0.005
-0.035
0.035
0.07
0.055
0.06
0.04
-0.01
0.065
0.07
0.06
0.015
0.015
0.065
0.05
0.02
0.065
0.01
0.015
0.03
-0.05
0.005
0.025
0.015
-0.04
-0.03
-0.045
-0.01
-0.005
-0.03
0.005
-0.05
0.0
-0.08
-0.08
0.0
-0.04
-0.05
-0.085
-0.055
-0.055
-0.08
-0.04
-0.04
-0.04
-0.05
-0.035
-0.055
-0.035
-0.045
-0.04
-0.07
-0.09
-0.12
-0.105
-0.065
-0.095
-0.03
0.065
0.13
0.24
0.305
0.41
0.515
0.64
0.71
0.79
0.685
0.66
0.585
0.52
0.295
0.165
0.115
0.065
0.055
0.055
-0.11
-0.045
0.0
-0.04
-0.065
-0.075
-0.015
-0.035
-0.045
-0.075
-0.075
-0.1
-0.035
-0.055
-0.07
-0.03
-0.025
-0.055
-0.03
-0.055
-0.06
-0.115
-0.005
-0.03
-0.08
-0.075
-0.06
-0.07
0.02
0.035
-0.055
-0.025
-0.03
-0.045
-0.03
-0.02
0.03
-0.005
-0.02
-0.01
-0.07
0.0
-0.03
-0.05
-0.02
-0.01
-0.025
-0.035
-0.04
-0.01
0.0
0.0
0.0
0.01
0.035
0.015
0.025
-0.015
-0.005
0.055
0.02
0.025
0.01
0.02
0.015
0.02
0.03
0.01
0.015
0.05
0.08
0.065
0.065
0.08
0.05
0.07
0.06
0.075
0.105
0.1
0.09
0.13
0.11
0.1
0.1
0.095
0.075
0.11
0.07
0.125
0.09
0.02
0.055
0.1
0.105
-0.025
0.015
0.04
0.06
0.05
0.06
0.09
0.045
0.04
0.015
0.04
0.055
0.065
0.03
0.055
0.03
-0.025
0.015
0.03
0.005
0.02
0.03
0.045
-0.015
-0.03
-0.005
0.005
-0.025
-0.02
0.0
-0.025
-0.02
0.005
0.06
-0.02
-0.09
-0.06
-0.035
-0.055
-0.07
-0.08
-0.06
-0.05
-0.03
-0.005
-0.035
-0.12
-0.13
-0.02
0.005
-0.005
-0.015
-0.04
-0.025
-0.04
-0.08
-0.035
-0.055
-0.03
-0.015
-0.1
0.015
0.0
-0.035
-0.025
-0.01
-0.025
-0.03
-0.015
-0.025
-0.015
-0.055
0.0
0.01
-0.085
-0.06
-0.035
-0.015
-0.075
-0.025
0.01
-0.01
-0.04
-0.05
-0.08
-0.005
-0.04
-0.045
-0.005
0.02
0.06
-0.055
-0.115
-0.08
-0.055
-0.02
-0.035
0.0
-0.035
-0.05
-0.07
-0.045
-0.07
-0.075
-0.06
-0.025
-0.035
-0.07
-0.075
-0.025
-0.02
-0.06
-0.055
-0.065
-0.015
-0.02
-0.05
-0.09
-0.06
-0.075
-0.04
-0.04
-0.025
-0.065
-0.05
-0.04
-0.035
-0.02
-0.065
-0.085
-0.1
-0.035
-0.05
-0.07
-0.085
-0.04
-0.01
-0.08
-0.08
-0.04
-0.065
-0.06
-0.04
-0.085
-0.075
-0.05
-0.085
-0.085
-0.015
0.01
0.035
-0.01
0.0
-0.03
-0.005
-0.015
0.01
0.025
-0.045
0.015
-0.025
0.05
0.05
0.02
-0.045
-0.005
-0.015
-0.065
0.005
0.015
-0.045
-0.07
-0.095
-0.07
-0.045
-0.025
-0.075
-0.085
-0.065
-0.11
-0.115
-0.05
-0.005
0.0
-0.075
-0.095
-0.09
-0.1
-0.09
-0.09
-0.05
-0.075
-0.055
-0.02
-0.045
-0.105
-0.1
-0.095
-0.105
-0.11
-0.07
-0.085
-0.11
-0.11
-0.085
-0.135
-0.08
-0.075
-0.04
0.07
0.15
0.25
0.375
0.48
0.55
0.695
0.715
0.825
0.845
0.765
0.61
0.48
0.31
0.145
0.09
0.035
-0.005
-0.07
-0.02
-0.02
-0.055
-0.05
-0.065
-0.045
-0.05
-0.05
-0.085
-0.11
-0.075
-0.075
-0.045
-0.07
-0.075
-0.075
-0.03
-0.065
-0.105
-0.085
-0.055
-0.045
-0.055
-0.065
-0.07
-0.045
-0.04
-0.03
-0.075
-0.05
-0.045
-0.065
-0.045
-0.06
-0.065
-0.085
-0.1
-0.045
0.005
-0.025
0.025
-0.035
-0.07
-0.03
-0.015
-0.035
-0.025
-0.075
-0.095
-0.02
0.0
-0.005
-0.005
-0.02
-0.04
-0.015
0.0
0.01
-0.005
0.0
0.0
-0.005
0.0
0.03
0.025
0.02
0.03
0.03
0.01
0.03
0.0
0.02
0.015
0.05
0.05
0.015
0.055
0.075
0.045
0.045
0.055
0.055
0.055
0.09
0.08
0.08
0.07
-0.01
0.03
0.11
0.065
0.01
0.025
0.05
0.035
0.025
0.06
0.065
0.07
0.045
0.04
0.025
0.035
0.01
0.015
0.045
-0.005
-0.005
-0.025
0.0
0.04
0.065
-0.04
-0.055
0.0
-0.02
-0.02
-0.015
-0.025
-0.035
-0.03
-0.005
-0.035
-0.12
-0.07
-0.055
-0.05
-0.07
-0.095
-0.145
-0.05
-0.06
-0.055
-0.055
-0.07
-0.075
-0.085
-0.08
-0.09
-0.065
-0.095
-0.115
-0.08
-0.08
-0.07
-0.05
-0.07
-0.055
-0.065
-0.065
-0.11
-0.085
-0.09
-0.095
-0.125
-0.045
-0.06
-0.08
-0.12
-0.085
-0.08
-0.11
-0.055
-0.085
-0.065
-0.05
-0.05
-0.045
-0.025
-0.055
-0.08
-0.045
-0.055
-0.075
-0.09
-0.07
-0.085
-0.095
-0.04
-0.06
-0.08
-0.08
-0.075
-0.07
-0.055
-0.08
-0.08
-0.1
-0.08
-0.06
-0.165
-0.105
-0.09
-0.125
-0.09
-0.075
-0.095
-0.08
-0.055
-0.08
-0.105
-0.09
-0.055
-0.075
-0.07
-0.07
-0.065
-0.07
-0.11
-0.12
-0.08
-0.095
-0.05
-0.095
-0.145
-0.115
-0.07
-0.09
-0.1
-0.115
-0.11
-0.115
-0.09
-0.105
-0.045
-0.03
-0.1
-0.135
-0.12
-0.12
-0.135
-0.13
-0.13
-0.11
-0.105
-0.085
-0.1
-0.105
-0.115
-0.105
-0.135
-0.165
-0.14
-0.105
-0.12
-0.145
-0.075
-0.09
-0.125
-0.115
-0.1
-0.075
-0.125
-0.145
-0.14
-0.065
-0.11
-0.175
-0.1
-0.17
-0.195
-0.17
-0.13
-0.12
-0.15
-0.145
-0.14
-0.13
-0.12
-0.1
-0.155
-0.145
-0.105
-0.15
-0.15
-0.15
-0.14
-0.15
-0.145
-0.13
-0.105
-0.115
-0.135
-0.15
-0.115
-0.145
-0.15
-0.145
-0.13
-0.13
-0.16
-0.155
-0.165
-0.175
-0.15
-0.13
-0.085
-0.055
-0.19
-0.195
-0.16
-0.16
-0.13
-0.1
-0.115
-0.175
-0.17
-0.08
-0.05
-0.125
-0.135
-0.12
-0.135
-0.12
-0.07
-0.065
-0.09
-0.015
-0.035
-0.045
-0.065
-0.06
-0.04
-0.035
-0.04
-0.07
-0.115
-0.055
-0.07
-0.1
-0.1
-0.095
-0.06
-0.085
-0.16
-0.155
-0.13
-0.13
-0.16
-0.13
-0.16
-0.095
-0.12
-0.105
-0.12
-0.15
-0.16
-0.11
-0.125
-0.17
-0.155
-0.105
-0.155
-0.135
-0.145
-0.105
-0.095
-0.1
-0.13
-0.19
-0.16
-0.12
-0.09
-0.105
-0.195
-0.215
-0.15
-0.105
-0.08
-0.08
0.02
0.2
0.255
0.355
0.49
0.56
0.655
0.71
0.77
0.73
0.6
0.49
0.36
0.135
-0.005
-0.02
-0.01
-0.07
-0.1
-0.1
-0.025
-0.075
-0.12
-0.13
-0.09
-0.07
-0.11
-0.115
-0.125
-0.085
-0.08
-0.135
-0.17
-0.115
-0.09
-0.095
-0.105
-0.07
-0.09
-0.125
-0.105
-0.07
-0.085
-0.08
-0.105
-0.11
-0.095
-0.12
-0.06
-0.1
-0.11
-0.11
-0.115
-0.105
-0.095
-0.06
-0.045
-0.08
-0.105
-0.115
-0.1
-0.085
-0.135
-0.04
-0.035
-0.06
-0.105
-0.075
-0.07
-0.07
-0.02
-0.04
0.0
-0.01
-0.08
-0.125
-0.07
-0.055
-0.085
-0.025
-0.04
-0.015
-0.005
-0.01
-0.005
0.04
-0.075
-0.02
-0.025
-0.035
0.005
0.04
-0.03
-0.015
0.0
0.04
-0.005
0.035
-0.005
0.05
0.055
0.05
-0.005
0.04
0.025
0.04
0.045
-0.015
0.005
0.085
0.01
0.005
0.045
0.055
0.06
0.03
0.05
0.03
0.035
0.01
-0.045
-0.015
-0.01
0.025
0.075
0.06
-0.015
-0.02
-0.01
-0.015
0.01
-0.01
-0.05
-0.075
-0.035
-0.035
-0.045
-0.07
-0.07
-0.035
-0.03
-0.05
-0.11
-0.055
-0.075
-0.085
-0.105
-0.13
-0.075
-0.08
-0.08
-0.095
-0.095
-0.095
-0.1
-0.11
-0.12
-0.07
-0.07
-0.11
-0.035
-0.055
-0.135
-0.135
-0.08
-0.105
-0.085
-0.1
-0.11
-0.095
-0.095
-0.11
-0.08
-0.08
-0.075
-0.08
-0.095
-0.08
-0.075
-0.07
-0.1
-0.075
-0.06
-0.075
-0.08
-0.095
-0.1
-0.08
-0.09
-0.06
-0.085
-0.09
-0.07
-0.09
-0.12
-0.055
-0.065
-0.045
-0.025
-0.045
-0.13
-0.095
-0.095
-0.1
-0.1
-0.075
-0.06
-0.035
-0.075
-0.115
-0.02
-0.075
-0.06
-0.095
-0.075
-0.07
-0.08
-0.12
-0.07
-0.065
-0.055
-0.065
-0.08
-0.1
-0.095
-0.08
-0.08
-0.08
-0.09
-0.07
-0.04
-0.08
-0.07
-0.09
-0.105
-0.09
-0.11
-0.105
-0.085
-0.075
-0.075
-0.065
-0.075
-0.115
-0.12
-0.135
-0.045
-0.06
-0.07
-0.05
-0.1
-0.12
-0.14
-0.095
-0.065
-0.085
-0.125
-0.105
-0.07
-0.07
-0.11
-0.08
-0.11
-0.065
-0.08
-0.09
-0.05
-0.13
-0.145
-0.1
-0.115
-0.105
-0.115
-0.15
-0.105
-0.05
-0.075
-0.115
-0.1
-0.095
-0.11
-0.13
-0.105
-0.08
-0.105
-0.18
-0.18
-0.105
-0.11
-0.095
-0.125
-0.09
-0.09
-0.11
-0.16
-0.09
-0.08
-0.11
-0.035
-0.09
-0.14
-0.13
-0.09
-0.105
-0.11
-0.105
-0.125
-0.115
-0.105
-0.105
-0.055
-0.07
-0.09
-0.13
-0.105
-0.08
-0.095
-0.12
-0.095
-0.135
-0.115
-0.085
-0.115
-0.145
-0.115
-0.135
-0.105
-0.06
-0.085
-0.07
-0.105
-0.14
-0.15
-0.12
-0.09
-0.095
-0.075
-0.085
-0.16
-0.115
-0.095
-0.07
-0.075
-0.135
-0.145
-0.085
-0.075
-0.05
-0.055
-0.12
-0.18
-0.15
-0.105
-0.045
-0.065
-0.06
-0.05
-0.035
-0.04
-0.08
-0.045
-0.03
-0.025
-0.055
-0.065
-0.015
0.04
-0.01
-0.025
-0.02
0.0
-0.035
-0.075
-0.02
-0.11
-0.12
-0.015
-0.025
-0.12
-0.12
-0.1
-0.095
-0.095
-0.115
-0.075
-0.08
-0.095
-0.06
-0.05
-0.065
-0.06
-0.04
-0.09
-0.065
-0.06
-0.075
-0.07
-0.06
-0.07
-0.045
-0.035
-0.085
-0.09
-0.045
-0.04
-0.075
-0.045
-0.05
-0.105
-0.1
-0.105
-0.175
-0.12
-0.04
0.05
0.135
0.205
0.265
0.35
0.45
0.545
0.65
0.735
0.855
0.82
0.655
0.555
0.35
0.13
0.07
-0.015
-0.025
-0.065
-0.065
-0.05
-0.045
0.015
-0.01
-0.07
-0.09
-0.03
-0.09
-0.07
-0.07
-0.085
-0.055
-0.055
-0.09
-0.11
-0.075
-0.04
-0.03
-0.075
-0.08
-0.09
-0.095
-0.04
-0.09
-0.09
-0.08
-0.075
-0.085
-0.085
-0.105
-0.06
-0.075
-0.07
-0.09
-0.105
-0.135
-0.06
-0.03
-0.065
-0.075
-0.09
-0.085
-0.075
-0.05
-0.06
-0.065
-0.065
-0.07
-0.07
-0.08
-0.065
-0.055
-0.01
-0.035
-0.01
-0.005
-0.075
-0.05
-0.035
-0.02
-0.055
-0.03
-0.02
0.035
-0.015
-0.015
0.025
0.025
-0.015
0.035
0.025
0.035
0.1
0.11
0.035
0.045
0.07
0.065
0.075
0.085
0.155
0.075
0.06
0.055
0.11
0.14
0.05
0.095
0.085
0.15
0.11
0.12
0.105
0.12
0.095
0.06
0.125
0.105
0.065
0.075
0.055
0.065
0.075
0.03
0.02
0.085
0.08
0.025
0.005
0.005
0.005
0.01
-0.01
0.085
0.045
0.0
-0.005
-0.01
0.01
-0.015
-0.03
-0.025
-0.025
-0.055
-0.035
-0.05
-0.05
-0.08
-0.075
-0.06
-0.065
-0.105
-0.075
-0.07
-0.075
-0.035
-0.04
-0.04
-0.075
-0.075
-0.06
-0.075
-0.09
-0.06
-0.08
-0.05
-0.06
-0.02
-0.04
-0.075
-0.075
-0.07
-0.075
-0.055
-0.03
-0.055
-0.04
-0.05
-0.06
-0.045
-0.08
-0.07
-0.03
-0.03
0.03
-0.045
-0.11
-0.04
-0.015
-0.01
-0.06
-0.095
-0.05
-0.015
0.0
-0.085
-0.11
-0.08
-0.055
-0.045
-0.055
-0.04
0.0
-0.03
-0.015
-0.11
-0.065
-0.03
-0.07
-0.11
-0.04
0.0
0.04
-0.04
-0.13
-0.045
-0.07
-0.055
-0.08
-0.055
-0.025
-0.005
-0.055
-0.045
-0.095
-0.08
-0.075
-0.03
-0.055
-0.05
-0.12
-0.07
-0.045
-0.02
-0.045
-0.045
-0.07
-0.085
0.01
-0.04
-0.05
-0.03
-0.04
-0.025
-0.055
-0.025
-0.015
-0.03
-0.04
-0.05
-0.04
-0.035
-0.035
-0.02
-0.08
-0.07
-0.065
-0.05
0.045
-0.015
-0.02
0.005
-0.025
-0.015
-0.01
0.0
0.03
0.075
0.07
0.07
0.07
0.03
0.07
0.015
-0.045
-0.01
0.02
0.045
0.07
0.075
-0.01
0.01
0.12
0.085
0.06
-0.085
0.055
0.165
0.135
0.12
0.005
0.07
0.045
0.035
0.115
0.075
0.065
-0.01
0.075
0.05
0.05
0.215
0.075
-0.03
0.055
0.06
0.095
0.06
-0.045
0.165
0.14
0.08
0.075
0.115
0.195
0.13
0.05
0.095
0.12
0.1
0.03
0.045
0.145
0.12
0.11
0.075
0.165
0.175
0.11
0.015
0.085
0.09
0.095
0.125
0.11
0.17
0.11
0.025
0.185
0.18
0.15
0.175
0.145
0.12
0.04
0.145
0.18
0.2
0.18
0.175
0.145
0.06
0.18
0.11
0.05
0.13
0.07
0.025
0.025
0.005
-0.015
0.05
0.09
0.07
0.02
-0.04
-0.025
0.05
0.06
0.025
-0.025
0.09
0.055
0.015
0.05
0.055
0.02
0.04
0.06
0.03
0.03
0.12
0.085
0.035
-0.05
0.045
0.015
0.035
0.02
-0.01
0.025
0.055
0.05
0.205
0.31
0.28
0.395
0.525
0.615
0.775
0.88
0.785
0.955
0.895
0.83
0.69
0.555
0.31
0.185
0.16
0.185
0.12
0.08
0.075
0.1
0.085
0.11
0.1
0.045
0.025
0.055
0.15
0.1
0.05
0.035
0.215
0.02
-0.03
0.105
0.115
0.1
0.115
0.15
0.17
0.135
0.135
0.1
0.135
0.105
0.105
0.15
0.11
0.1
0.185
0.195
0.155
0.195
0.125
0.075
0.155
0.155
0.135
0.17
0.235
0.105
0.085
0.145
0.185
0.15
0.2
0.255
0.275
0.26
0.165
0.13
0.165
0.275
0.26
0.24
0.195
0.17
0.19
0.115
0.195
0.275
0.215
0.205
0.2
0.205
0.24
0.245
0.205
0.265
0.22
0.24
0.26
0.32
0.175
0.13
0.245
0.28
0.245
0.275
0.405
0.465
0.345
0.22
0.265
0.255
0.28
0.245
0.215
0.365
0.325
0.29
0.305
0.28
0.3
0.295
0.36
0.315
0.215
0.185
0.19
0.255
0.225
0.22
0.275
0.27
0.345
0.32
0.24
0.235
0.345
0.3
0.22
0.29
0.29
0.23
0.21
0.26
0.255
0.21
0.305
0.3
0.285
0.305
0.36
0.34
0.39
0.435
0.425
0.385
0.475
0.535
0.475
0.525
0.56
0.565
0.515
0.59
0.61
0.67
0.655
0.67
0.74
0.77
0.795
0.835
0.785
0.855
0.85
0.855
0.91
0.905
0.875
0.905
0.935
0.89
0.92
0.95
1.04
0.98
1.05
1.06
0.985
1.035
1.005
1.065
1.07
1.02
1.09
1.01
1.08
1.115
1.055
1.085
1.025
1.02
1.02
0.99
0.985
1.045
0.97
1.045
1.045
1.035
1.085
1.02
0.98
0.985
1.035
1.035
0.995
0.945
0.985
1.005
0.955
0.96
1.025
0.995
0.945
0.88
0.895
0.875
0.88
0.935
0.95
0.85
0.86
0.885
0.89
0.89
0.88
0.9
0.925
0.965
0.955
0.89
0.835
0.81
0.87
0.89
0.93
0.93
0.855
0.89
0.785
0.78
0.835
0.825
0.835
0.825
0.895
0.89
0.805
0.82
0.815
0.825
0.835
0.855
0.845
0.845
0.8
0.88
0.84
0.795
0.805
0.82
0.875
0.875
0.81
0.775
0.81
0.82
0.825
0.82
0.83
0.785
0.84
0.865
0.815
0.885
0.805
0.82
0.805
0.835
0.78
0.78
0.835
0.795
0.755
0.81
0.755
0.76
0.825
0.815
0.8
0.82
0.83
0.85
0.735
0.775
0.805
0.875
0.815
0.865
0.825
0.815
0.815
0.845
0.93
0.865
0.86
0.88
0.915
0.91
0.845
0.88
0.84
0.855
0.865
0.85
0.885
0.845
0.825
0.845
0.815
0.84
0.945
0.885
0.78
0.79
0.835
0.84
0.79
0.825
0.765
0.755
0.74
0.765
0.72
0.7
0.73
0.75
0.725
0.69
0.77
0.8
0.765
0.675
0.695
0.72
0.745
0.755
0.725
0.705
0.715
0.695
0.76
0.725
0.665
0.68
0.68
0.72
0.67
0.705
0.695
0.66
0.63
0.62
0.665
0.68
0.765
0.855
0.945
0.92
1.075
1.19
1.245
1.36
1.47
1.51
1.53
1.45
1.33
1.215
1.05
0.885
0.765
0.725
0.725
0.7
0.67
0.7
0.695
0.67
0.65
0.68
0.68
0.675
0.65
0.635
0.61
0.61
0.635
0.61
0.58
0.635
0.64
0.6
0.66
0.62
0.63
0.63
0.595
0.64
0.59
0.575
0.625
0.65
0.55
0.57
0.58
0.595
0.59
0.61
0.605
0.585
0.64
0.63
0.6
0.62
0.6
0.575
0.565
0.565
0.565
0.595
0.61
0.58
0.605
0.635
0.655
0.53
0.58
0.56
0.55
0.56
0.56
0.555
0.575
0.6
0.595
0.62
0.555
0.565
0.61
0.625
0.605
0.555
0.63
0.63
0.57
0.58
0.635
0.66
0.64
0.635
0.68
0.63
0.665
0.645
0.67
0.69
0.69
0.67
0.665
0.69
0.685
0.72
0.715
0.675
0.645
0.65
0.665
0.66
0.65
0.625
0.615
0.6
0.625
0.655
0.63
0.655
0.63
0.65
0.63
0.48
0.53
0.535
0.555
0.54
0.56
0.55
0.52
0.525
0.51
0.52
0.485
0.445
0.495
0.5
0.5
0.53
0.465
0.39
0.47
0.535
0.385
0.405
0.375
0.36
0.41
0.42
0.41
0.455
0.44
0.395
0.4
0.34
0.35
0.37
0.405
0.38
0.395
0.43
0.39
0.405
0.39
0.41
0.44
0.38
0.35
0.355
0.4
0.415
0.405
0.41
0.425
0.415
0.4
0.405
0.33
0.44
0.43
0.42
0.425
0.445
0.435
0.445
0.38
0.335
0.375
0.4
0.41
0.39
0.415
0.42
0.405
0.425
0.41
0.385
0.42
0.445
0.435
0.405
0.38
0.38
0.38
0.405
0.415
0.39
0.4
0.375
0.345
0.425
0.39
0.38
0.415
0.445
0.435
0.41
0.395
0.41
0.42
0.375
0.33
0.39
0.395
0.405
0.465
0.405
0.345
0.37
0.385
0.395
0.43
0.385
0.365
0.31
0.35
0.38
0.38
0.415
0.395
0.385
0.38
0.31
0.375
0.425
0.33
0.345
0.36
0.385
0.37
0.33
0.315
0.37
0.39
0.365
0.34
0.32
0.35
0.39
0.36
0.34
0.375
0.38
0.38
0.31
0.255
0.34
0.35
0.34
0.32
0.37
0.33
0.365
0.38
0.345
0.32
0.285
0.315
0.31
0.305
0.3
0.35
0.35
0.285
0.265
0.28
0.32
0.34
0.28
0.28
0.295
0.28
0.285
0.285
0.29
0.27
0.305
0.32
0.26
0.245
0.315
0.31
0.325
0.345
0.315
0.28
0.33
0.36
0.35
0.355
0.385
0.295
0.335
0.395
0.33
0.315
0.34
0.31
0.335
0.315
0.325
0.36
0.37
0.3
0.225
0.325
0.355
0.34
0.305
0.29
0.27
0.315
0.28
0.23
0.22
0.25
0.25
0.255
0.245
0.255
0.265
0.235
0.215
0.255
0.225
0.2
0.215
0.215
0.21
0.205
0.205
0.215
0.205
0.235
0.215
0.245
0.285
0.185
0.215
0.215
0.215
0.145
0.175
0.17
0.24
0.295
0.365
0.48
0.55
0.585
0.685
0.83
0.94
1.02
1.115
1.095
1.04
0.885
0.78
0.56
0.405
0.355
0.33
0.29
0.265
0.245
0.255
0.25
0.305
0.295
0.215
0.195
0.26
0.235
0.225
0.245
0.22
0.265
0.29
0.295
0.3
0.29
0.285
0.28
0.335
0.3
0.275
0.3
0.3
0.305
0.315
0.3
0.275
0.32
0.35
0.31
0.32
0.295
0.3
0.335
0.28
0.325
0.305
0.3
0.315
0.315
0.305
0.31
0.315
0.385
0.35
0.255
0.35
0.395
0.335
0.33
0.345
0.37
0.38
0.38
0.36
0.35
0.38
0.38
0.4
0.385
0.365
0.36
0.395
0.41
0.405
0.435
0.395
0.395
0.41
0.45
0.435
0.42
0.395
0.44
0.395
0.45
0.495
0.41
0.45
0.46
0.445
0.445
0.5
0.46
0.465
0.42
0.45
0.45
0.46
0.525
0.46
0.425
0.435
0.47
0.485
0.475
0.5
0.51
0.505
0.43
0.455
0.455
0.475
0.435
0.425
0.44
0.445
0.44
0.46
0.42
0.44
0.405
0.365
0.38
0.365
0.355
0.43
0.405
0.355
0.4
0.385
0.39
0.325
0.34
0.375
0.27
0.31
0.35
0.295
0.3
0.325
0.33
0.34
0.33
0.315
0.305
0.325
0.31
0.335
0.305
0.295
0.285
0.275
0.3
0.285
0.235
0.25
0.26
0.31
0.315
0.275
0.29
0.31
0.3
0.3
0.33
0.305
0.255
0.265
0.275
0.275
0.305
0.31
0.35
0.23
0.29
0.285
0.265
0.285
0.31
0.295
0.32
0.305
0.295
0.3
0.285
0.325
0.325
0.29
0.31
0.33
0.315
0.295
0.325
0.28
0.26
0.29
0.275
0.24
0.285
0.275
0.28
0.285
0.26
0.235
0.265
0.32
0.275
0.28
0.255
0.255
0.165
0.23
0.215
0.275
0.275
0.185
0.24
0.21
0.22
0.225
0.225
0.27
0.23
0.22
0.22
0.235
0.3
0.28
0.24
0.215
0.18
0.23
0.275
0.235
0.255
0.24
0.235
0.195
0.205
0.17
0.225
0.225
0.285
0.245
0.205
0.235
0.25
0.275
0.265
0.205
0.15
0.185
0.265
0.23
0.205
0.225
0.23
0.28
0.25
0.21
0.205
0.21
0.215
0.26
0.29
0.28
0.235
0.29
0.25
0.235
0.235
0.265
0.27
0.235
0.245
0.28
0.255
0.245
0.31
0.315
0.335
0.35
0.325
0.36
0.3
0.355
0.3
0.285
0.28
0.32
0.355
0.355
0.31
0.305
0.22
0.27
0.285
0.23
0.24
0.23
0.25
0.205
0.215
0.21
0.235
0.255
0.25
0.2
0.225
0.245
0.2
0.195
0.24
0.215
0.21
0.24
0.185
0.19
0.235
0.225
0.21
0.2
0.205
0.235
0.2
0.165
0.165
0.195
0.18
0.17
0.18
0.205
0.285
0.28
0.385
0.48
0.54
0.645
0.74
0.82
0.94
1.01
1.01
0.94
0.805
0.685
0.545
0.315
0.23
0.235
0.23
0.2
0.215
0.23
0.2
0.14
0.21
0.255
0.245
0.2
0.21
0.2
0.21
0.165
0.18
0.19
0.22
0.22
0.23
0.19
0.19
0.19
0.17
0.165
0.205
0.185
0.225
0.19
0.195
0.235
0.215
0.18
0.215
0.215
0.175
0.155
0.2
0.17
0.185
0.195
0.195
0.185
0.155
0.175
0.18
0.215
0.205
0.155
0.165
0.13
0.11
0.12
0.16
0.13
0.165
0.17
0.17
0.19
0.16
0.135
0.18
0.155
0.175
0.175
0.225
0.23
0.155
0.19
0.16
0.15
0.205
0.23
0.225
0.175
0.23
0.23
0.225
0.24
0.235
0.245
0.23
0.235
0.26
0.275
0.22
0.215
0.325
0.26
0.255
0.265
0.305
0.285
0.27
0.235
0.31
0.28
0.23
0.255
0.245
0.235
0.26
0.195
0.25
0.29
0.225
0.215
0.22
0.22
0.23
0.155
0.205
0.225
0.235
0.175
0.09
0.15
0.21
0.19
0.16
0.2
0.17
0.15
0.14
0.12
0.145
0.14
0.15
0.1
0.125
0.13
0.14
0.11
0.09
0.135
0.135
0.11
0.125
0.12
0.085
0.145
0.1
0.115
0.12
0.145
0.13
0.065
0.095
0.11
0.095
0.095
0.135
0.175
0.13
0.14
0.17
0.13
0.135
0.135
0.13
0.14
0.16
0.135
0.175
0.165
0.135
0.12
0.15
0.165
0.12
0.16
0.195
0.16
0.145
0.155
0.15
0.21
0.195
0.175
0.185
0.2
0.16
0.115
0.115
0.21
0.14
0.17
0.2
0.155
0.155
0.2
0.17
0.24
0.2
0.195
0.21
0.155
0.155
0.23
0.21
0.2
0.2
0.23
0.185
0.21
0.21
0.215
0.21
0.175
0.235
0.215
0.18
0.225
0.24
0.2
0.165
0.22
0.24
0.225
0.265
0.195
0.225
0.295
0.285
0.26
0.265
0.23
0.27
0.27
0.25
0.26
0.28
0.295
0.28
0.29
0.275
0.28
0.3
0.32
0.24
0.265
0.295
0.325
0.315
0.325
0.315
0.29
0.28
0.315
0.35
0.305
0.29
0.34
0.385
0.37
0.375
0.28
0.335
0.38
0.415
0.41
0.405
0.405
0.4
0.4
0.41
0.42
0.37
0.365
0.395
0.385
0.37
0.37
0.365
0.31
0.34
0.385
0.37
0.24
0.295
0.31
0.325
0.345
0.305
0.31
0.295
0.325
0.265
0.315
0.37
0.35
0.385
0.285
0.325
0.35
0.335
0.325
0.325
0.285
0.29
0.305
0.29
0.265
0.26
0.28
0.295
0.33
0.35
0.48
0.54
0.63
0.705
0.815
0.895
1.02
1.115
1.215
1.145
1.095
1.055
0.89
0.705
0.54
0.43
0.4
0.395
0.355
0.4
0.25
0.315
0.335
0.305
0.3
0.32
0.285
0.325
0.335
0.315
0.325
0.305
0.295
0.335
0.385
0.35
0.31
0.325
0.33
0.355
0.32
0.31
0.35
0.3
0.35
0.37
0.355
0.335
0.305
0.345
0.37
0.35
0.325
0.37
0.335
0.34
0.355
0.37
0.345
0.325
0.335
0.385
0.305
0.36
0.38
0.355
0.4
0.385
0.36
0.33
0.41
0.39
0.36
0.37
0.4
0.39
0.425
0.45
0.415
0.385
0.395
0.425
0.42
0.445
0.44
0.38
0.445
0.46
0.46
0.45
0.445
0.455
0.43
0.455
0.47
0.435
0.475
0.5
0.525
0.515
0.41
0.425
0.465
0.5
0.48
0.53
0.52
0.48
0.485
0.54
0.51
0.47
0.475
0.46
0.485
0.46
0.55
0.485
0.39
0.415
0.47
0.465
0.455
0.47
0.46
0.39
0.395
0.41
0.4
0.48
0.46
0.41
0.375
0.405
0.43
0.39
0.4
0.38
0.375
0.365
0.38
0.39
0.37
0.365
0.26
0.295
0.32
0.355
0.295
0.285
0.325
0.305
0.295
0.31
0.32
0.32
0.345
0.31
0.215
0.24
0.245
0.29
0.275
0.33
0.345
0.285
0.265
0.26
0.265
0.295
0.315
0.265
0.255
0.255
0.23
0.25
0.335
0.3
0.295
0.27
0.305
0.3
0.26
0.265
0.335
0.265
0.205
0.26
0.245
0.245
0.245
0.195
0.19
0.245
0.26
0.27
0.255
0.24
0.245
0.255
0.255
0.205
0.235
0.24
0.235
0.23
0.22
0.185
0.215
0.21
0.2
0.195
0.165
0.23
0.235
0.19
0.195
0.2
0.205
0.18
0.21
0.22
0.2
0.19
0.19
0.18
0.185
0.175
0.21
0.225
0.24
0.1
0.16
0.15
0.165
0.155
0.23
0.215
0.155
0.17
0.205
0.19
0.17
0.185
0.21
0.185
0.185
0.22
0.225
0.185
0.21
0.24
0.25
0.21
0.195
0.26
0.26
0.265
0.215
0.205
0.255
0.245
0.315
0.335
0.195
0.21
0.24
0.215
0.205
0.23
0.185
0.175
0.185
0.14
0.17
0.14
0.14
0.18
0.225
0.2
0.175
0.195
0.175
0.165
0.14
0.145
0.175
0.105
0.185
0.215
0.15
0.19
0.135
0.185
0.195
0.195
0.195
0.195
0.21
0.18
0.155
0.09
0.18
0.2
0.16
0.1
0.115
0.12
0.19
0.305
0.385
0.375
0.44
0.62
0.72
0.785
0.955
0.94
1.03
1.005
0.925
0.83
0.635
0.495
0.35
0.26
0.22
0.23
0.235
0.215
0.215
0.155
0.2
0.22
0.17
0.15
0.155
0.155
0.205
0.175
0.185
0.13
0.17
0.17
0.15
0.155
0.13
0.185
0.2
0.165
0.17
0.17
0.16
0.135
0.14
0.185
0.155
0.155
0.165
0.155
0.11
0.15
0.18
0.21
0.17
0.18
0.175
0.185
0.185
0.205
0.155
0.15
0.165
0.16
0.225
0.2
0.23
0.17
0.19
0.25
0.26
0.215
0.195
0.16
0.18
0.155
0.18
0.255
0.28
0.165
0.205
0.205
0.245
0.235
0.165
0.25
0.17
0.2
0.205
0.225
0.225
0.265
0.28
0.285
0.275
0.26
0.215
0.265
0.27
0.29
0.26
0.29
0.295
0.25
0.26
0.285
0.3
0.28
0.33
0.325
0.275
0.295
0.235
0.21
0.295
0.29
0.33
0.35
0.165
0.2
0.24
0.22
0.205
0.18
0.195
0.205
0.2
0.215
0.2
0.22
0.215
0.22
0.175
0.115
0.13
0.195
0.115
0.115
0.09
0.095
0.13
0.12
0.115
0.115
0.075
0.1
0.11
0.07
0.085
0.095
0.08
0.1
0.09
0.04
0.065
0.075
0.04
0.065
0.045
0.09
0.055
0.045
0.035
0.035
0.04
0.01
0.105
0.05
0.005
0.08
0.125
0.095
-0.01
0.02
0.05
0.09
0.095
0.045
0.025
0.095
0.065
0.02
0.055
0.06
0.06
0.075
0.03
0.02
0.05
0.02
0.025
0.05
0.005
0.015
0.05
0.055
0.025
0.045
0.075
0.035
-0.02
-0.01
0.02
0.08
0.065
0.05
0.005
-0.005
0.01
0.03
0.055
0.01
0.0
0.035
0.045
0.04
0.005
0.025
0.025
0.04
0.045
-0.005
0.005
0.015
0.025
0.005
0.05
0.065
0.07
0.01
-0.01
-0.005
0.015
0.025
0.035
0.025
0.035
0.03
0.09
0.095
0.025
0.045
0.035
0.05
0.1
0.075
0.06
0.055
0.11
0.1
0.105
0.115
0.1
0.095
0.12
0.085
0.08
0.075
0.105
0.08
0.055
0.055
0.025
0.045
0.075
0.11
-0.055
-0.05
0.045
0.005
0.055
0.01
-0.02
-0.005
-0.01
0.025
0.02
-0.025
0.015
-0.005
-0.04
-0.045
-0.025
-0.005
-0.005
-0.015
-0.03
0.03
0.0
-0.05
-0.03
-0.015
-0.03
-0.055
-0.035
-0.11
-0.085
-0.095
-0.075
0.02
0.135
0.23
0.275
0.41
0.51
0.6
0.73
0.8
0.855
0.775
0.735
0.595
0.465
0.25
0.115
0.085
0.035
0.05
0.055
0.06
0.055
0.005
0.025
-0.04
0.0
-0.035
-0.06
-0.055
-0.015
-0.03
-0.065
-0.025
-0.015
0.0
-0.075
-0.05
-0.035
-0.045
-0.03
-0.005
-0.065
-0.04
-0.015
0.005
0.005
-0.06
-0.03
0.065
0.01
-0.015
0.005
0.01
0.01
-0.01
0.015
-0.03
-0.05
0.005
0.005
0.015
0.04
0.025
-0.01
0.035
0.025
0.01
-0.02
0.01
0.035
0.005
0.03
0.015
0.005
0.015
0.06
-0.015
0.005
0.04
0.01
0.075
0.075
0.0
0.035
0.03
0.035
0.04
0.025
0.02
0.05
0.085
0.06
0.075
0.065
0.11
0.115
0.105
0.105
0.105
0.105
0.135
0.11
0.055
0.075
0.125
0.12
0.145
0.075
0.06
0.11
0.085
0.1
0.18
0.13
0.105
0.065
0.11
0.115
0.055
0.11
0.095
0.095
0.13
0.075
0.04
0.11
0.12
0.115
0.05
0.085
0.085
0.06
0.07
0.09
0.065
0.055
0.025
0.005
0.015
0.07
0.035
-0.01
0.025
0.025
0.04
0.005
-0.02
0.01
0.015
0.02
-0.03
-0.13
-0.025
0.025
-0.01
-0.035
-0.07
-0.08
-0.05
-0.025
0.0
-0.01
0.005
0.0
-0.05
-0.06
0.0
0.025
-0.045
0.015
-0.015
-0.045
0.005
0.025
0.0
-0.065
0.0
0.015
-0.045
-0.01
0.005
-0.01
-0.005
0.015
-0.05
0.045
0.01
-0.015
-0.095
-0.015
-0.025
0.015
-0.01
0.0
-0.05
-0.015
-0.04
-0.015
-0.01
0.0
-0.005
-0.025
0.0
-0.01
0.005
-0.005
-0.015
-0.01
-0.06
-0.005
0.045
0.025
-0.015
-0.06
-0.02
0.005
0.015
-0.015
-0.08
-0.04
-0.04
0.005
0.01
-0.025
-0.01
-0.075
-0.05
0.005
-0.02
-0.015
0.02
0.01
-0.01
-0.015
-0.015
-0.025
0.05
0.03
0.01
0.05
0.02
0.0
0.055
0.07
0.05
0.095
0.08
0.05
0.055
0.075
0.085
0.07
0.01
0.03
-0.005
0.015
0.035
-0.03
-0.02
0.0
-0.07
-0.025
-0.04
-0.03
-0.045
-0.04
0.01
-0.01
-0.075
-0.05
-0.04
-0.005
-0.075
-0.07
0.065
-0.025
-0.1
-0.09
-0.06
-0.075
-0.015
-0.045
-0.06
-0.06
-0.075
-0.015
-0.06
-0.11
-0.08
-0.18
-0.1
-0.075
-0.075
0.04
0.11
0.15
0.275
0.335
0.44
0.555
0.69
0.835
0.89
0.84
0.7
0.595
0.485
0.27
0.155
0.085
-0.035
-0.005
0.025
0.01
-0.03
0.015
-0.01
-0.01
0.01
-0.02
-0.065
-0.095
-0.08
-0.08
-0.055
-0.035
-0.035
-0.07
-0.06
-0.055
-0.035
-0.05
-0.065
-0.035
-0.03
-0.075
-0.075
-0.045
-0.015
-0.03
-0.06
-0.1
-0.075
-0.06
-0.02
0.005
-0.015
-0.03
-0.03
-0.02
-0.015
-0.02
-0.025
-0.01
-0.02
0.01
0.015
0.02
-0.075
-0.095
-0.005
-0.02
-0.02
-0.01
-0.04
-0.02
-0.02
0.02
0.005
0.025
0.04
0.035
0.025
0.03
0.045
0.01
0.03
0.045
0.025
0.025
0.02
0.07
0.07
0.075
0.08
0.04
0.085
0.11
0.085
0.09
0.07
0.085
0.115
0.13
0.12
0.11
0.12
0.07
0.09
0.055
0.1
0.16
0.11
0.11
0.095
0.135
0.125
0.065
0.07
0.095
0.075
0.07
0.08
0.115
0.1
0.115
0.035
0.065
0.105
0.07
0.02
0.07
0.075
0.05
0.04
0.045
0.03
0.005
0.04
0.035
0.03
0.025
0.01
-0.005
-0.04
-0.01
-0.015
-0.03
-0.02
-0.02
0.015
-0.035
-0.07
-0.065
-0.035
-0.005
-0.06
-0.03
-0.015
0.015
-0.085
-0.08
-0.09
-0.085
-0.045
-0.05
-0.04
-0.025
-0.045
-0.035
-0.03
0.01
-0.045
-0.03
-0.06
-0.055
-0.025
-0.06
-0.055
-0.055
-0.045
-0.045
-0.07
-0.065
-0.04
-0.03
-0.07
-0.06
-0.045
-0.045
-0.035
-0.05
-0.07
-0.03
-0.025
-0.08
-0.08
-0.05
-0.06
-0.085
-0.025
-0.025
-0.11
-0.07
-0.06
-0.055
-0.04
-0.085
-0.065
-0.025
-0.085
-0.03
-0.045
-0.095
-0.05
-0.045
-0.1
-0.115
-0.025
-0.06
-0.085
-0.04
-0.045
-0.06
-0.115
-0.06
-0.045
-0.06
-0.1
-0.06
-0.01
-0.02
-0.125
-0.11
-0.08
-0.045
-0.005
0.005
-0.005
-0.075
-0.06
-0.015
-0.015
0.0
0.0
-0.005
0.005
-0.005
-0.005
0.035
0.015
-0.015
-0.005
-0.04
-0.05
-0.05
-0.045
-0.035
-0.055
-0.05
-0.075
-0.085
-0.08
-0.09
-0.145
-0.105
-0.1
-0.06
-0.085
-0.105
-0.09
-0.105
-0.115
-0.11
-0.11
-0.115
-0.095
-0.185
-0.09
-0.1
-0.145
-0.095
-0.11
-0.165
-0.17
-0.13
-0.14
-0.11
-0.16
-0.21
-0.185
-0.135
-0.17
-0.11
-0.07
0.115
0.26
0.355
0.43
0.555
0.69
0.76
0.785
0.715
0.645
0.475
0.31
0.135
0.05
0.0
-0.03
-0.05
-0.055
-0.01
-0.075
-0.08
-0.085
-0.075
-0.08
-0.085
-0.095
-0.085
-0.055
-0.05
-0.07
-0.08
-0.095
-0.055
-0.065
-0.09
-0.085
-0.065
-0.095
-0.1
-0.075
-0.03
-0.015
-0.055
-0.06
-0.02
-0.015
-0.065
-0.05
-0.035
-0.1
-0.11
-0.06
-0.045
-0.03
-0.06
-0.075
-0.035
-0.03
-0.03
-0.025
-0.02
-0.035
-0.03
-0.03
-0.005
-0.01
-0.06
-0.05
-0.06
0.0
0.01
0.0
0.005
0.035
0.03
0.0
-0.01
0.01
0.01
0.005
0.025
0.065
0.025
0.03
0.055
0.06
0.035
0.015
0.085
0.07
0.095
0.02
0.035
0.095
0.045
0.07
0.09
0.085
0.065
0.09
0.06
0.085
0.08
0.08
0.055
0.075
0.095
0.085
0.07
0.105
0.105
0.08
0.065
0.03
0.02
0.03
0.105
0.1
-0.035
0.01
0.005
-0.015
0.02
-0.015
0.02
0.045
0.03
0.045
0.05
0.0
-0.035
-0.01
0.015
-0.03
0.01
0.01
-0.01
-0.035
-0.025
-0.045
-0.075
-0.08
-0.075
-0.03
-0.015
-0.05
-0.055
-0.135
-0.005
-0.02
-0.06
-0.03
-0.01
-0.025
-0.045
-0.015
-0.015
0.025
0.04
-0.015
0.04
0.075
0.075
0.085
0.015
0.01
0.04
-0.04
-0.035
-0.075
0.01
-0.02
0.01
-0.035
0.01
0.08
0.0
-0.01
0.075
-0.065
-0.065
-0.015
-0.065
-0.04
-0.075
-0.08
-0.04
-0.08
-0.14
-0.115
-0.115
-0.075
-0.105
-0.12
-0.085
-0.07
-0.08
-0.075
-0.03
-0.045
-0.08
-0.13
-0.1
-0.08
-0.105
-0.055
-0.045
-0.09
-0.14
-0.155
-0.07
-0.07
-0.04
-0.05
-0.095
-0.12
-0.11
-0.115
-0.065
-0.07
-0.065
-0.065
-0.06
-0.075
-0.055
-0.07
-0.11
-0.095
-0.125
-0.07
-0.055
-0.06
-0.06
-0.105
-0.06
-0.065
-0.095
-0.075
-0.03
-0.05
-0.05
-0.065
-0.085
-0.11
-0.04
-0.06
-0.095
-0.135
-0.095
-0.04
-0.12
-0.165
-0.15
-0.12
-0.14
-0.115
-0.195
-0.155
-0.13
-0.115
-0.145
-0.125
-0.165
-0.17
-0.17
-0.13
-0.155
-0.15
-0.17
-0.175
-0.115
-0.075
-0.09
-0.15
-0.14
-0.18
-0.18
-0.17
-0.16
-0.175
-0.175
-0.23
-0.27
-0.25
-0.255
-0.205
-0.115
-0.025
0.02
0.105
0.235
0.31
0.46
0.535
0.64
0.715
0.64
0.565
0.425
0.22
0.01
-0.045
-0.065
-0.16
-0.14
-0.11
-0.205
-0.18
-0.185
-0.205
-0.155
-0.185
-0.225
-0.245
-0.22
-0.15
-0.205
-0.19
-0.2
-0.195
-0.19
-0.19
-0.155
-0.19
-0.17
-0.185
-0.175
-0.21
-0.155
-0.155
-0.15
-0.225
-0.18
-0.195
-0.19
-0.155
-0.16
-0.16
-0.185
-0.165
-0.155
-0.15
-0.165
-0.15
-0.13
-0.115
-0.105
-0.105
-0.17
-0.075
-0.07
-0.215
-0.14
-0.105
-0.1
-0.13
-0.115
-0.1
-0.135
-0.085
-0.1
-0.095
-0.05
-0.07
-0.075
-0.075
-0.08
-0.085
-0.075
-0.06
-0.035
-0.03
-0.035
-0.05
-0.06
-0.01
0.015
0.035
-0.05
-0.005
-0.02
-0.005
0.0
0.02
-0.035
-0.01
0.055
0.0
-0.005
0.03
0.035
-0.005
0.03
0.025
0.005
0.03
-0.03
-0.005
0.0
0.005
-0.025
-0.055
-0.03
0.015
0.01
-0.065
-0.065
-0.02
-0.005
-0.02
-0.01
-0.065
-0.05
-0.04
-0.045
-0.065
-0.055
-0.075
-0.075
-0.11
-0.1
-0.11
-0.09
-0.125
-0.22
-0.18
-0.16
-0.21
-0.175
-0.105
-0.12
-0.185
-0.17
-0.155
-0.165
-0.165
-0.14
-0.125
-0.13
-0.17
-0.155
-0.17
-0.195
-0.22
-0.185
-0.17
-0.185
-0.17
-0.175
-0.175
-0.21
-0.145
-0.19
-0.15
-0.155
-0.165
-0.16
-0.19
-0.14
-0.145
-0.15
-0.155
-0.21
-0.185
-0.165
-0.17
-0.185
-0.205
-0.22
-0.175
-0.15
-0.105
-0.11
-0.14
-0.18
-0.16
-0.155
-0.15
-0.155
-0.185
-0.185
-0.15
-0.175
-0.155
-0.155
-0.15
-0.145
-0.03
-0.19
-0.225
-0.195
-0.155
-0.135
-0.15
-0.16
-0.185
-0.145
-0.215
-0.21
-0.165
-0.145
-0.15
-0.19
-0.17
-0.15
-0.17
-0.145
-0.15
-0.165
-0.15
-0.175
-0.205
-0.17
-0.145
-0.155
-0.18
-0.16
-0.095
-0.135
-0.145
-0.12
-0.145
-0.135
-0.09
-0.175
-0.14
-0.095
-0.125
-0.13
-0.135
-0.125
-0.14
-0.18
-0.17
-0.19
-0.165
-0.18
-0.185
-0.18
-0.175
-0.185
-0.215
-0.215
-0.21
-0.2
-0.22
-0.205
-0.225
-0.25
-0.195
-0.17
-0.195
-0.245
-0.285
-0.205
-0.215
-0.225
-0.205
-0.2
-0.26
-0.255
-0.205
-0.205
-0.255
-0.25
-0.31
-0.275
-0.265
-0.26
-0.275
-0.285
-0.28
-0.355
-0.255
-0.2
-0.11
-0.025
0.03
0.17
0.225
0.355
0.485
0.575
0.535
0.515
0.435
0.245
0.1
-0.005
-0.105
-0.23
-0.21
-0.18
-0.18
-0.21
-0.195
-0.22
-0.24
-0.215
-0.21
-0.19
-0.165
-0.23
-0.265
-0.23
-0.215
-0.215
-0.24
-0.235
-0.25
-0.24
-0.185
-0.215
-0.26
-0.225
-0.175
-0.23
-0.215
-0.21
-0.24
-0.22
-0.225
-0.24
-0.205
-0.215
-0.2
-0.2
-0.21
-0.23
-0.22
-0.205
-0.17
-0.18
-0.23
-0.25
-0.225
-0.21
-0.175
-0.205
-0.19
-0.175
-0.195
-0.235
-0.19
-0.145
-0.21
-0.205
-0.16
-0.175
-0.18
-0.175
-0.17
-0.16
-0.205
-0.185
-0.15
-0.145
-0.23
-0.16
-0.17
-0.18
-0.135
-0.14
-0.185
-0.14
-0.125
-0.11
-0.105
-0.125
-0.11
-0.11
-0.115
-0.15
-0.165
-0.14
-0.11
-0.08
-0.125
-0.11
-0.13
-0.105
-0.095
-0.165
-0.15
-0.12
-0.08
-0.12
-0.115
-0.125
-0.12
-0.13
-0.15
-0.155
-0.1
-0.14
-0.125
-0.145
-0.135
-0.18
-0.165
-0.145
-0.165
-0.18
-0.18
-0.14
-0.18
-0.17
-0.215
-0.21
-0.18
-0.2
-0.195
-0.235
-0.22
-0.195
-0.235
-0.23
-0.24
-0.215
-0.215
-0.23
-0.245
-0.24
-0.22
-0.22
-0.22
-0.24
-0.275
-0.255
-0.28
-0.27
-0.22
-0.25
-0.265
-0.235
-0.245
-0.255
-0.21
-0.175
-0.24
-0.29
-0.3
-0.245
-0.165
-0.235
-0.265
-0.24
-0.27
-0.26
-0.285
-0.225
-0.225
-0.24
-0.215
-0.265
-0.225
-0.235
-0.23
-0.215
-0.24
-0.255
-0.235
-0.225
-0.23
-0.26
-0.24
-0.24
-0.25
-0.215
-0.25
-0.23
-0.215
-0.21
-0.225
-0.23
-0.24
-0.25
-0.255
-0.225
-0.23
-0.225
-0.21
-0.22
-0.305
-0.235
-0.22
-0.215
-0.22
-0.245
-0.25
-0.235
-0.215
-0.225
-0.235
-0.245
-0.22
-0.2
-0.195
-0.21
-0.29
-0.26
-0.275
-0.265
-0.205
-0.215
-0.195
-0.22
-0.22
-0.2
-0.21
-0.185
-0.2
-0.205
-0.19
-0.19
-0.17
-0.14
-0.13
-0.155
-0.155
-0.185
-0.15
-0.16
-0.185
-0.215
-0.2
-0.205
-0.245
-0.245
-0.215
-0.27
-0.25
-0.195
-0.205
-0.315
-0.255
-0.21
-0.23
-0.225
-0.24
-0.255
-0.3
-0.25
-0.19
-0.225
-0.27
-0.265
-0.255
-0.235
-0.23
-0.24
-0.245
-0.26
-0.25
-0.285
-0.24
-0.265
-0.27
-0.29
-0.3
-0.305
-0.295
-0.275
-0.255
-0.185
-0.145
-0.035
0.065
0.125
0.23
0.325
0.47
0.56
0.55
0.5
0.375
0.3
0.155
-0.055
-0.155
-0.155
-0.18
-0.165
-0.175
-0.185
-0.28
-0.24
-0.235
-0.2
-0.225
-0.22
-0.275
-0.305
-0.3
-0.285
-0.25
-0.215
-0.24
-0.245
-0.2
-0.245
-0.24
-0.26
-0.255
-0.24
-0.25
-0.275
-0.245
-0.26
-0.245
-0.23
-0.245
-0.215
-0.215
-0.24
-0.255
-0.22
-0.21
-0.23
-0.27
-0.24
-0.17
-0.17
-0.24
-0.265
-0.235
-0.21
-0.205
-0.17
-0.205
-0.23
-0.26
-0.22
-0.17
-0.2
-0.22
-0.2
-0.19
-0.175
-0.165
-0.19
-0.17
-0.175
-0.18
-0.125
-0.14
-0.18
-0.145
-0.135
-0.17
-0.165
-0.105
-0.095
-0.11
-0.09
-0.115
-0.15
-0.075
-0.075
-0.07
-0.09
-0.115
-0.065
-0.055
-0.095
-0.085
-0.1
-0.09
-0.065
-0.055
-0.065
-0.105
-0.085
-0.085
-0.045
-0.06
-0.075
-0.095
-0.09
-0.075
-0.11
-0.12
-0.11
-0.08
-0.1
-0.11
-0.105
-0.08
-0.1
-0.14
-0.135
-0.13
-0.13
-0.145
-0.135
-0.155
-0.155
-0.105
-0.11
-0.15
-0.135
-0.175
-0.185
-0.14
-0.15
-0.17
-0.19
-0.145
-0.16
-0.205
-0.185
-0.17
-0.22
-0.215
-0.235
-0.235
-0.245
-0.175
-0.19
-0.175
-0.175
-0.205
-0.19
-0.2
-0.21
-0.175
-0.205
-0.24
-0.205
-0.225
-0.18
-0.2
-0.205
-0.2
-0.195
-0.205
-0.205
-0.175
-0.215
-0.2
-0.175
-0.2
-0.18
-0.2
-0.14
-0.195
-0.215
-0.21
-0.19
-0.21
-0.195
-0.175
-0.18
-0.185
-0.205
-0.15
-0.155
-0.145
-0.19
-0.21
-0.185
-0.17
-0.205
-0.185
-0.155
-0.15
-0.18
-0.195
-0.16
-0.195
-0.2
-0.17
-0.18
-0.175
-0.2
-0.145
-0.12
-0.155
-0.185
-0.22
-0.18
-0.18
-0.15
-0.15
-0.165
-0.19
-0.16
-0.19
-0.155
-0.13
-0.195
-0.14
-0.145
-0.24
-0.2
-0.205
-0.205
-0.16
-0.225
-0.17
-0.15
-0.19
-0.195
-0.17
-0.16
-0.15
-0.145
-0.19
-0.17
-0.115
-0.14
-0.155
-0.125
-0.12
-0.095
-0.07
-0.095
-0.075
-0.115
-0.15
-0.11
-0.135
-0.19
-0.135
-0.145
-0.215
-0.13
-0.19
-0.21
-0.17
-0.2
-0.23
-0.28
-0.21
-0.16
-0.14
-0.16
-0.295
-0.275
-0.24
-0.19
-0.21
-0.215
-0.225
-0.23
-0.225
-0.205
-0.235
-0.23
-0.245
-0.26
-0.22
-0.2
-0.215
-0.25
-0.265
-0.255
-0.26
-0.265
-0.31
-0.295
-0.3
-0.26
-0.205
-0.135
-0.07
0.045
0.13
0.23
0.31
0.34
0.48
0.58
0.605
0.595
0.485
0.27
0.12
0.0
-0.095
-0.115
-0.165
-0.19
-0.185
-0.18
-0.225
-0.165
-0.13
-0.17
-0.25
-0.255
-0.22
-0.18
-0.195
-0.235
-0.215
-0.235
-0.195
-0.225
-0.275
-0.175
-0.195
-0.19
-0.2
-0.215
-0.2
-0.215
-0.18
-0.21
-0.2
-0.175
-0.205
-0.215
-0.195
-0.185
-0.19
-0.17
-0.16
-0.25
-0.24
-0.23
-0.175
-0.175
-0.15
-0.255
-0.185
-0.225
-0.18
-0.155
-0.14
-0.155
-0.215
-0.195
-0.16
-0.135
-0.165
-0.18
-0.185
-0.115
-0.145
-0.14
-0.175
-0.16
-0.17
-0.07
-0.115
-0.195
-0.14
-0.075
-0.07
-0.08
-0.14
-0.105
-0.085
-0.1
-0.105
-0.12
-0.09
-0.085
-0.045
-0.07
-0.095
-0.06
-0.09
-0.105
-0.055
-0.04
-0.06
-0.015
0.005
-0.105
-0.09
-0.085
-0.1
-0.085
-0.055
-0.065
-0.035
-0.055
-0.125
-0.095
-0.125
-0.095
-0.06
-0.06
-0.08
-0.08
-0.105
-0.125
-0.115
-0.135
-0.095
-0.09
-0.14
-0.135
-0.135
-0.135
-0.125
-0.14
-0.15
-0.13
-0.14
-0.145
-0.16
-0.22
-0.19
-0.15
-0.16
-0.21
-0.18
-0.19
-0.16
-0.195
-0.195
-0.19
-0.215
-0.19
-0.185
-0.19
-0.255
-0.215
-0.175
-0.11
-0.115
-0.255
-0.265
-0.215
-0.22
-0.255
-0.19
-0.17
-0.23
-0.18
-0.17
-0.18
-0.21
-0.2
-0.155
-0.22
-0.185
-0.165
-0.175
-0.195
-0.19
-0.155
-0.155
-0.22
-0.215
-0.165
-0.185
-0.19
-0.175
-0.2
-0.165
-0.19
-0.185
-0.185
-0.16
-0.185
-0.215
-0.2
-0.22
-0.22
-0.19
-0.14
-0.185
-0.185
-0.18
-0.24
-0.2
-0.15
-0.19
-0.195
-0.19
-0.19
-0.18
-0.18
-0.155
-0.255
-0.225
-0.19
-0.19
-0.17
-0.195
-0.195
-0.185
-0.195
-0.185
-0.195
-0.2
-0.22
-0.2
-0.18
-0.215
-0.21
-0.16
-0.27
-0.27
-0.18
-0.155
-0.185
-0.195
-0.25
-0.22
-0.235
-0.155
-0.15
-0.225
-0.21
-0.19
-0.18
-0.2
-0.23
-0.18
-0.155
-0.19
-0.145
-0.145
-0.16
-0.19
-0.165
-0.15
-0.14
-0.125
-0.14
-0.11
-0.105
-0.145
-0.13
-0.165
-0.14
-0.145
-0.155
-0.16
-0.18
-0.19
-0.2
-0.21
-0.185
-0.205
-0.235
-0.205
-0.215
-0.2
-0.215
-0.23
-0.215
-0.185
-0.19
-0.235
-0.23
-0.2
-0.215
-0.25
-0.27
-0.235
-0.215
-0.205
-0.205
-0.24
-0.25
-0.23
-0.175
-0.215
-0.225
-0.255
-0.225
-0.255
-0.3
-0.295
-0.265
-0.26
-0.17
-0.13
-0.005
0.05
0.175
0.28
0.38
0.5
0.595
0.715
0.615
0.535
0.46
0.395
0.145
-0.06
-0.115
-0.14
-0.16
-0.12
-0.165
-0.18
-0.175
-0.205
-0.185
-0.215
-0.185
-0.2
-0.235
-0.21
-0.22
-0.21
-0.2
-0.23
-0.2
-0.215
-0.23
-0.245
-0.2
-0.22
-0.235
-0.21
-0.235
-0.2
-0.19
-0.2
-0.19
-0.195
-0.235
-0.2
-0.14
-0.125
-0.22
-0.27
-0.22
-0.195
-0.21
-0.22
-0.19
-0.195
-0.19
-0.19
-0.205
-0.165
-0.19
-0.175
-0.18
-0.175
-0.175
-0.145
-0.155
-0.16
-0.145
-0.155
-0.19
-0.135
-0.145
-0.18
-0.145
-0.12
-0.145
-0.185
-0.145
-0.115
-0.12
-0.15
-0.125
-0.085
-0.115
-0.105
-0.135
-0.13
-0.1
-0.09
-0.12
-0.11
-0.085
-0.095
-0.09
-0.045
-0.07
-0.045
-0.03
-0.07
-0.12
-0.075
-0.105
-0.075
-0.06
-0.06
-0.085
-0.045
-0.055
-0.105
-0.1
-0.115
-0.145
-0.1
-0.1
-0.055
-0.085
-0.1
-0.13
-0.09
-0.075
-0.1
-0.15
-0.125
-0.135
-0.14
-0.115
-0.065
-0.14
-0.13
-0.105
-0.14
-0.17
-0.175
-0.155
-0.16
-0.135
-0.165
-0.14
-0.15
-0.19
-0.21
-0.145
-0.14
-0.16
-0.195
-0.185
-0.195
-0.195
-0.185
-0.13
-0.275
-0.255
-0.185
-0.22
-0.175
-0.2
-0.185
-0.2
-0.22
-0.215
-0.19
-0.175
-0.185
-0.2
-0.195
-0.2
-0.18
-0.2
-0.185
-0.17
-0.21
-0.185
-0.15
-0.19
-0.165
-0.165
-0.175
-0.155
-0.16
-0.205
-0.16
-0.16
-0.23
-0.175
-0.165
-0.17
-0.18
-0.16
-0.125
-0.2
-0.24
-0.16
-0.185
-0.2
-0.19
-0.19
-0.17
-0.185
-0.19
-0.205
-0.16
-0.17
-0.16
-0.16
-0.17
-0.205
-0.205
-0.155
-0.145
-0.215
-0.24
-0.19
-0.205
-0.205
-0.17
-0.15
-0.18
-0.205
-0.21
-0.195
-0.185
-0.225
-0.195
-0.15
-0.145
-0.18
-0.22
-0.195
-0.18
-0.185
-0.175
-0.205
-0.26
-0.24
-0.175
-0.19
-0.17
-0.18
-0.165
-0.15
-0.225
-0.21
-0.22
-0.2
-0.165
-0.21
-0.21
-0.205
-0.205
-0.225
-0.205
-0.175
-0.205
-0.225
-0.21
-0.2
-0.165
-0.2
-0.195
-0.175
-0.205
-0.22
-0.22
-0.205
-0.17
-0.195
-0.25
-0.15
-0.155
-0.16
-0.175
-0.185
-0.155
-0.16
-0.155
-0.155
-0.135
-0.115
-0.125
-0.13
-0.08
-0.11
-0.1
-0.095
-0.115
-0.125
-0.09
-0.16
-0.24
-0.185
-0.195
-0.185
-0.235
-0.165
-0.16
-0.17
-0.205
-0.185
-0.195
-0.195
-0.21
-0.19
-0.21
-0.2
-0.155
-0.21
-0.185
-0.175
-0.165
-0.165
-0.175
-0.2
-0.2
-0.19
-0.23
-0.25
-0.195
-0.195
-0.185
-0.205
-0.195
-0.24
-0.255
-0.225
-0.21
-0.185
-0.135
-0.035
0.075
0.14
0.22
0.295
0.435
0.545
0.645
0.68
0.62
0.535
0.43
0.275
0.11
0.01
-0.14
-0.13
-0.14
-0.185
-0.17
-0.165
-0.185
-0.205
-0.17
-0.17
-0.17
-0.21
-0.205
-0.175
-0.175
-0.19
-0.165
-0.165
-0.165
-0.135
-0.145
-0.175
-0.195
-0.175
-0.145
-0.08
-0.125
-0.23
-0.205
-0.17
-0.14
-0.155
-0.14
-0.125
-0.145
-0.11
-0.18
-0.135
-0.115
-0.13
-0.11
-0.1
-0.145
-0.185
-0.13
-0.13
-0.11
-0.11
-0.085
-0.115
-0.135
-0.13
-0.11
-0.11
-0.085
-0.11
-0.08
-0.075
-0.095
-0.08
-0.07
-0.1
-0.095
-0.115
-0.11
-0.08
-0.085
-0.07
-0.1
-0.07
-0.045
-0.05
-0.04
-0.065
-0.06
-0.065
-0.03
-0.06
-0.06
-0.065
-0.01
0.02
-0.065
0.01
-0.04
-0.01
-0.02
-0.02
-0.015
-0.005
-0.035
-0.03
0.0
0.0
0.045
0.045
-0.075
-0.075
0.005
0.015
0.005
-0.02
-0.055
-0.055
-0.03
-0.045
-0.045
-0.02
0.035
0.0
-0.08
-0.08
-0.06
-0.06
-0.06
-0.065
-0.095
-0.12
-0.115
-0.085
-0.1
-0.095
-0.09
-0.09
-0.09
-0.1
-0.15
-0.14
-0.18
-0.14
-0.145
-0.13
-0.12
-0.15
-0.14
-0.155
-0.16
-0.15
-0.185
-0.17
-0.12
-0.14
-0.19
-0.185
-0.185
-0.205
-0.17
-0.125
-0.17
-0.17
-0.165
-0.13
-0.16
-0.17
-0.17
-0.12
-0.145
-0.145
-0.155
-0.15
-0.205
-0.15
-0.15
-0.155
-0.145
-0.135
-0.155
-0.17
-0.175
-0.12
-0.145
-0.115
-0.17
-0.13
-0.145
-0.16
-0.175
-0.145
-0.165
-0.155
-0.15
-0.085
-0.135
-0.155
-0.16
-0.14
-0.125
-0.13
-0.135
-0.16
-0.14
-0.135
-0.15
-0.13
-0.12
-0.155
-0.2
-0.18
-0.18
-0.16
-0.14
-0.165
-0.15
-0.13
-0.125
-0.135
-0.16
-0.165
-0.185
-0.205
-0.185
-0.145
-0.16
-0.16
-0.13
-0.165
-0.205
-0.145
-0.135
-0.17
-0.17
-0.125
-0.12
-0.175
-0.19
-0.175
-0.135
-0.105
-0.18
-0.16
-0.17
-0.17
-0.18
-0.195
-0.17
-0.165
-0.13
-0.155
-0.175
-0.18
-0.175
-0.175
-0.12
-0.115
-0.14
-0.19
-0.2
-0.15
-0.135
-0.155
-0.15
-0.15
-0.18
-0.16
-0.095
-0.12
-0.135
-0.13
-0.13
-0.11
-0.095
-0.09
-0.11
-0.06
-0.065
-0.065
-0.07
-0.065
-0.075
-0.105
-0.15
-0.13
-0.085
-0.14
-0.13
-0.095
-0.105
-0.25
-0.195
-0.205
-0.18
-0.14
-0.185
-0.16
-0.195
-0.165
-0.17
-0.17
-0.1
-0.18
-0.195
-0.155
-0.195
-0.2
-0.205
-0.175
-0.17
-0.145
-0.13
-0.25
-0.205
-0.145
-0.175
-0.185
-0.205
-0.22
-0.165
-0.205
-0.235
-0.225
-0.195
-0.195
-0.185
-0.115
-0.035
0.03
0.105
0.23
0.295
0.365
0.49
0.55
0.58
0.525
0.41
0.32
0.165
-0.025
-0.135
-0.23
-0.21
-0.195
-0.185
-0.2
-0.21
-0.17
-0.145
-0.22
-0.225
-0.235
-0.23
-0.235
-0.18
-0.15
-0.165
-0.19
-0.195
-0.16
-0.16
-0.205
-0.225
-0.16
-0.21
-0.155
-0.095
-0.115
-0.23
-0.22
-0.225
-0.175
-0.13
-0.155
-0.185
-0.195
-0.195
-0.17
-0.145
-0.125
-0.115
-0.15
-0.135
-0.175
-0.15
-0.095
-0.14
-0.13
-0.13
-0.07
-0.1
-0.12
-0.12
-0.125
-0.13
-0.145
-0.13
-0.09
-0.095
-0.11
-0.12
-0.07
-0.055
-0.155
-0.1
-0.095
-0.075
-0.07
-0.085
-0.055
-0.085
-0.1
-0.055
-0.085
-0.1
-0.04
-0.01
-0.03
-0.04
-0.035
-0.04
-0.035
-0.045
-0.02
-0.02
-0.02
0.01
-0.02
-0.03
0.005
0.0
0.015
0.06
-0.005
-0.025
-0.02
0.015
0.02
-0.03
-0.015
-0.035
-0.005
0.01
-0.04
-0.035
-0.04
-0.025
-0.025
-0.065
-0.09
-0.065
-0.025
-0.045
0.04
-0.1
-0.07
-0.155
-0.08
-0.045
-0.12
-0.11
-0.1
-0.11
-0.125
-0.115
-0.095
-0.135
-0.105
-0.13
-0.105
-0.095
-0.125
-0.095
-0.145
-0.14
-0.125
-0.16
-0.125
-0.12
-0.135
-0.17
-0.17
-0.13
-0.12
-0.135
-0.145
-0.165
-0.135
-0.11
-0.1
-0.205
-0.145
-0.125
-0.155
-0.2
-0.2
-0.16
-0.145
-0.17
-0.13
-0.125
-0.115
-0.12
-0.155
-0.135
-0.13
-0.135
-0.145
-0.15
-0.175
-0.18
-0.22
-0.155
-0.16
-0.13
-0.125
-0.12
-0.115
-0.14
-0.13
-0.15
-0.15
-0.125
-0.135
-0.18
-0.225
-0.2
-0.155
-0.16
-0.14
-0.185
-0.14
-0.145
-0.155
-0.185
-0.135
-0.14
-0.125
-0.13
-0.18
-0.17
-0.17
-0.175
-0.195
-0.16
-0.185
-0.155
-0.17
-0.16
-0.17
-0.165
-0.19
-0.15
-0.19
-0.18
-0.17
-0.17
-0.165
-0.19
-0.205
-0.18
-0.155
-0.205
-0.185
-0.225
-0.165
-0.145
-0.185
-0.23
-0.19
-0.175
-0.175
-0.185
-0.2
-0.205
-0.145
-0.18
-0.12
-0.15
-0.18
-0.235
-0.2
-0.15
-0.21
-0.225
-0.2
-0.19
-0.19
-0.175
-0.15
-0.11
-0.145
-0.215
-0.2
-0.145
-0.14
-0.155
-0.115
-0.115
-0.12
-0.12
-0.15
-0.115
-0.145
-0.12
-0.14
-0.16
-0.185
-0.135
-0.14
-0.165
-0.15
-0.17
-0.16
-0.16
-0.175
-0.185
-0.165
-0.19
-0.16
-0.205
-0.215
-0.2
-0.145
-0.155
-0.155
-0.25
-0.215
-0.165
-0.18
-0.215
-0.205
-0.165
-0.165
-0.195
-0.195
-0.22
-0.205
-0.21
-0.19
-0.17
-0.16
-0.235
-0.225
-0.18
-0.23
-0.23
-0.185
-0.185
-0.07
0.025
0.115
0.18
0.27
0.355
0.47
0.555
0.645
0.635
0.6
0.44
0.42
0.26
0.065
-0.035
-0.12
-0.125
-0.16
-0.145
-0.13
-0.185
-0.17
-0.155
-0.18
-0.145
-0.19
-0.195
-0.205
-0.225
-0.115
-0.115
-0.185
-0.24
-0.245
-0.185
-0.195
-0.18
-0.155
-0.195
-0.165
-0.13
-0.135
-0.235
-0.225
-0.185
-0.165
-0.19
-0.175
-0.19
-0.165
-0.145
-0.17
-0.165
-0.18
-0.155
-0.18
-0.16
-0.155
-0.175
-0.175
-0.14
-0.175
-0.13
-0.165
-0.135
-0.15
-0.15
-0.115
-0.14
-0.165
-0.175
-0.16
-0.115
-0.145
-0.145
-0.1
-0.095
-0.145
-0.12
-0.095
-0.065
-0.075
-0.095
-0.12
-0.125
-0.12
-0.095
-0.06
-0.03
-0.115
-0.09
-0.145
-0.12
-0.085
-0.065
-0.075
-0.04
-0.08
-0.08
-0.055
0.015
-0.035
-0.075
-0.05
-0.035
-0.065
-0.055
-0.045
-0.025
-0.045
-0.04
-0.055
-0.04
-0.075
-0.055
-0.065
-0.065
-0.04
-0.045
-0.05
-0.03
-0.08
-0.08
-0.065
-0.04
-0.025
-0.115
-0.08
-0.1
-0.12
-0.135
-0.105
-0.09
-0.095
-0.085
-0.095
-0.125
-0.125
-0.105
-0.095
-0.085
-0.13
-0.145
-0.155
-0.155
-0.145
-0.115
-0.13
-0.12
-0.115
-0.13
-0.185
-0.16
-0.15
-0.155
-0.18
-0.15
-0.135
-0.16
-0.16
-0.16
-0.145
-0.13
-0.15
-0.18
-0.165
-0.155
-0.14
-0.145
-0.13
-0.145
-0.17
-0.125
-0.165
-0.22
-0.135
-0.16
-0.155
-0.14
-0.19
-0.24
-0.225
-0.14
-0.11
-0.165
-0.155
-0.145
-0.125
-0.16
-0.195
-0.14
-0.125
-0.15
-0.165
-0.15
-0.12
-0.17
-0.195
-0.145
-0.14
-0.095
-0.18
-0.23
-0.21
-0.19
-0.155
-0.135
-0.175
-0.175
-0.15
-0.19
-0.18
-0.185
-0.16
-0.14
-0.145
-0.15
-0.15
-0.205
-0.185
-0.14
-0.16
-0.145
-0.145
-0.125
-0.16
-0.135
-0.125
-0.135
-0.105
-0.11
-0.195
-0.14
-0.165
-0.18
-0.155
-0.17
-0.18
-0.145
-0.13
-0.16
-0.13
-0.175
-0.17
-0.135
-0.16
-0.185
-0.13
-0.14
-0.135
-0.16
-0.17
-0.165
-0.18
-0.18
-0.165
-0.155
-0.185
-0.155
-0.145
-0.2
-0.215
-0.2
-0.145
-0.145
-0.165
-0.165
-0.145
-0.2
-0.175
-0.14
-0.14
-0.165
-0.15
-0.14
-0.145
-0.125
-0.135
-0.115
-0.105
-0.115
-0.13
-0.115
-0.085
-0.095
-0.1
-0.075
-0.125
-0.115
-0.13
-0.15
-0.14
-0.145
-0.16
-0.185
-0.15
-0.16
-0.18
-0.175
-0.205
-0.2
-0.155
-0.19
-0.215
-0.22
-0.135
-0.17
-0.185
-0.18
-0.22
-0.205
-0.185
-0.19
-0.195
-0.16
-0.195
-0.22
-0.185
-0.225
-0.185
-0.205
-0.22
-0.19
-0.225
-0.215
-0.2
-0.21
-0.255
-0.23
-0.2
-0.175
-0.27
-0.16
-0.065
0.02
0.095
0.19
0.285
0.39
0.505
0.6
0.595
0.585
0.52
0.435
0.44
0.205
-0.025
-0.09
-0.115
-0.115
-0.19
-0.18
-0.175
-0.17
-0.175
-0.18
-0.18
-0.165
-0.195
-0.215
-0.19
-0.18
-0.17
-0.15
-0.235
-0.24
-0.195
-0.155
-0.145
-0.175
-0.2
-0.195
-0.185
-0.175
-0.15
-0.2
-0.23
-0.255
-0.18
-0.17
-0.19
-0.175
-0.135
-0.155
-0.155
-0.16
-0.155
-0.175
-0.205
-0.16
-0.135
-0.175
-0.135
-0.15
-0.16
-0.17
-0.2
-0.195
-0.16
-0.16
-0.16
-0.16
-0.14
-0.145
-0.145
-0.145
-0.115
-0.08
-0.13
-0.12
-0.18
-0.175
-0.14
-0.1
-0.12
-0.125
-0.155
-0.135
-0.09
-0.08
-0.09
-0.095
-0.105
-0.105
-0.115
-0.1
-0.1
-0.07
-0.095
-0.07
-0.065
-0.095
-0.05
-0.04
-0.05
-0.05
-0.055
-0.085
-0.04
-0.045
-0.045
-0.04
-0.045
-0.06
-0.055
-0.06
-0.055
-0.06
-0.1
-0.125
-0.055
-0.07
-0.12
-0.09
-0.09
-0.105
-0.07
-0.09
-0.08
-0.09
-0.095
-0.12
-0.16
-0.105
-0.105
-0.135
-0.15
-0.13
-0.145
-0.15
-0.135
-0.11
-0.14
-0.17
-0.19
-0.185
-0.17
-0.175
-0.155
-0.165
-0.23
-0.165
-0.17
-0.145
-0.19
-0.205
-0.19
-0.21
-0.195
-0.215
-0.19
-0.205
-0.205
-0.18
-0.195
-0.2
-0.21
-0.17
-0.17
-0.18
-0.175
-0.225
-0.155
-0.145
-0.19
-0.22
-0.165
-0.195
-0.18
-0.17
-0.195
-0.195
-0.185
-0.23
-0.195
-0.155
-0.195
-0.16
-0.18
-0.165
-0.155
-0.155
-0.205
-0.175
-0.17
-0.19
-0.165
-0.17
-0.2
-0.185
-0.17
-0.21
-0.15
-0.15
-0.185
-0.165
-0.215
-0.195
-0.19
-0.18
-0.165
-0.19
-0.19
-0.19
-0.195
-0.18
-0.195
-0.19
-0.18
-0.165
-0.18
-0.155
-0.18
-0.17
-0.17
-0.195
-0.205
-0.205
-0.18
-0.2
-0.175
-0.185
-0.225
-0.225
-0.175
-0.195
-0.18
-0.21
-0.205
-0.18
-0.135
-0.17
-0.24
-0.23
-0.22
-0.195
-0.18
-0.17
-0.175
-0.16
-0.2
-0.235
-0.21
-0.19
-0.16
-0.165
-0.155
-0.19
-0.225
-0.225
-0.145
-0.155
-0.205
-0.165
-0.18
-0.175
-0.195
-0.185
-0.17
-0.2
-0.22
-0.22
-0.195
-0.185
-0.175
-0.195
-0.175
-0.195
-0.17
-0.155
-0.24
-0.215
-0.185
-0.21
-0.21
-0.17
-0.17
-0.19
-0.17
-0.185
-0.175
-0.165
-0.24
-0.15
-0.18
-0.135
-0.16
-0.13
-0.135
-0.09
-0.09
-0.09
-0.11
-0.125
-0.195
-0.145
-0.18
-0.155
-0.2
-0.185
-0.135
-0.155
-0.2
-0.195
-0.205
-0.19
-0.21
-0.2
-0.215
-0.215
-0.21
-0.2
-0.21
-0.235
-0.205
-0.225
-0.235
-0.22
-0.185
-0.215
-0.21
-0.21
-0.17
-0.215
-0.265
-0.27
-0.27
-0.205
-0.25
-0.255
-0.23
-0.25
-0.265
-0.21
-0.21
-0.295
-0.3
-0.19
-0.13
-0.015
0.05
0.14
0.3
0.405
0.45
0.545
0.64
0.66
0.635
0.48
0.38
0.235
0.04
-0.075
-0.125
-0.145
-0.2
-0.26
-0.22
-0.17
-0.145
-0.155
-0.145
-0.205
-0.205
-0.215
-0.23
-0.235
-0.205
-0.22
-0.215
-0.21
-0.195
-0.195
-0.215
-0.195
-0.21
-0.22
-0.24
-0.21
-0.185
-0.165
-0.21
-0.265
-0.185
-0.175
-0.18
-0.275
-0.185
-0.205
-0.18
-0.165
-0.205
-0.185
-0.175
-0.18
-0.19
-0.14
-0.17
-0.17
-0.19
-0.15
-0.17
-0.18
-0.155
-0.17
-0.14
-0.145
-0.15
-0.16
-0.165
-0.145
-0.135
-0.12
-0.12
-0.1
-0.14
-0.15
-0.145
-0.12
-0.115
-0.1
-0.12
-0.16
-0.09
-0.035
-0.09
-0.12
-0.12
-0.08
-0.065
-0.08
-0.075
-0.075
-0.09
-0.04
-0.06
-0.055
-0.05
-0.055
-0.055
-0.055
-0.03
-0.03
-0.045
-0.045
-0.035
-0.035
-0.04
-0.04
-0.05
-0.06
-0.025
-0.025
-0.08
-0.105
-0.04
-0.06
-0.065
-0.075
-0.085
-0.075
-0.08
-0.055
-0.07
-0.07
-0.055
-0.14
-0.14
-0.095
-0.12
-0.175
-0.17
-0.085
-0.115
-0.135
-0.15
-0.145
-0.115
-0.155
-0.16
-0.165
-0.15
-0.15
-0.15
-0.175
-0.2
-0.175
-0.18
-0.17
-0.18
-0.215
-0.2
-0.2
-0.165
-0.19
-0.215
-0.18
-0.185
-0.175
-0.18
-0.155
-0.205
-0.21
-0.185
-0.205
-0.165
-0.2
-0.185
-0.18
-0.165
-0.305
-0.205
-0.17
-0.155
-0.165
-0.175
-0.165
-0.18
-0.215
-0.185
-0.15
-0.165
-0.175
-0.185
-0.17
-0.18
-0.195
-0.19
-0.175
-0.16
-0.22
-0.15
-0.125
-0.19
-0.2
-0.175
-0.215
-0.17
-0.175
-0.195
-0.2
-0.165
-0.2
-0.235
-0.215
-0.205
-0.2
-0.18
-0.16
-0.175
-0.19
-0.145
-0.175
-0.25
-0.24
-0.145
-0.155
-0.19
-0.225
-0.26
-0.2
-0.195
-0.175
-0.17
-0.225
-0.2
-0.19
-0.19
-0.22
-0.2
-0.2
-0.175
-0.175
-0.195
-0.2
-0.2
-0.205
-0.205
-0.205
-0.23
-0.18
-0.18
-0.165
-0.22
-0.225
-0.21
-0.205
-0.205
-0.2
-0.21
-0.205
-0.22
-0.245
-0.22
-0.19
-0.18
-0.16
-0.195
-0.225
-0.21
-0.215
-0.215
-0.23
-0.22
-0.23
-0.215
-0.225
-0.23
-0.19
-0.17
-0.225
-0.235
-0.235
-0.21
-0.235
-0.21
-0.165
-0.2
-0.235
-0.215
-0.2
-0.205
-0.21
-0.185
-0.145
-0.17
-0.185
-0.145
-0.135
-0.14
-0.14
-0.09
-0.08
-0.14
-0.14
-0.145
-0.165
-0.16
-0.175
-0.175
-0.16
-0.19
-0.17
-0.21
-0.215
-0.22
-0.255
-0.25
-0.195
-0.16
-0.2
-0.21
-0.16
-0.22
-0.255
-0.175
-0.17
-0.24
-0.265
-0.22
-0.225
-0.23
-0.2
-0.26
-0.25
-0.25
-0.225
-0.245
-0.245
-0.26
-0.265
-0.22
-0.25
-0.24
-0.255
-0.25
-0.26
-0.24
-0.195
-0.135
-0.025
0.11
0.185
0.255
0.38
0.47
0.64
0.665
0.68
0.575
0.505
0.39
0.165
-0.01
-0.105
-0.12
-0.17
-0.205
-0.175
-0.18
-0.22
-0.2
-0.195
-0.135
-0.125
-0.305
-0.295
-0.215
-0.19
-0.24
-0.21
-0.185
-0.24
-0.22
-0.21
-0.17
-0.225
-0.245
-0.215
-0.225
-0.205
-0.225
-0.225
-0.22
-0.225
-0.195
-0.24
-0.18
-0.155
-0.225
-0.18
-0.155
-0.205
-0.18
-0.19
-0.2
-0.235
-0.19
-0.165
-0.155
-0.21
-0.17
-0.15
-0.155
-0.175
-0.175
-0.2
-0.205
-0.13
-0.145
-0.135
-0.19
-0.145
-0.155
-0.135
-0.095
-0.105
-0.125
-0.155
-0.13
-0.105
-0.11
-0.095
-0.135
-0.115
-0.11
-0.185
-0.085
-0.095
-0.135
-0.035
-0.075
-0.13
-0.085
-0.045
-0.07
-0.04
-0.075
-0.04
-0.03
-0.02
0.01
0.005
-0.02
0.005
0.01
0.01
0.01
0.05
0.025
-0.01
0.01
0.01
-0.01
-0.02
0.025
0.02
0.02
0.0
-0.015
-0.025
-0.01
0.005
0.0
-0.01
-0.015
-0.03
-0.025
-0.045
-0.03
-0.065
-0.075
-0.065
-0.095
-0.065
-0.055
-0.055
-0.09
-0.12
-0.085
-0.09
-0.075
-0.095
-0.095
-0.055
-0.09
-0.11
-0.13
-0.13
-0.17
-0.15
-0.15
-0.115
-0.115
-0.125
-0.17
-0.145
-0.165
-0.125
-0.12
-0.165
-0.165
-0.145
-0.145
-0.15
-0.17
-0.13
-0.14
-0.1
-0.16
-0.19
-0.14
-0.105
-0.155
-0.115
-0.145
-0.18
-0.155
-0.12
-0.16
-0.135
-0.13
-0.175
-0.135
-0.17
-0.175
-0.16
-0.19
-0.135
-0.125
-0.13
-0.19
-0.17
-0.115
-0.115
-0.125
-0.165
-0.14
-0.13
-0.12
-0.155
-0.23
-0.195
-0.12
-0.16
-0.195
-0.105
-0.13
-0.16
-0.145
-0.145
-0.19
-0.2
-0.175
-0.185
-0.16
-0.155
-0.16
-0.17
-0.135
-0.175
-0.165
-0.16
-0.165
-0.18
-0.2
-0.185
-0.21
-0.225
-0.17
-0.13
-0.16
-0.25
-0.215
-0.19
-0.21
-0.185
-0.165
-0.235
-0.2
-0.16
-0.185
-0.21
-0.22
-0.15
-0.17
-0.2
-0.195
-0.13
-0.145
-0.22
-0.26
-0.235
-0.165
-0.2
-0.15
-0.17
-0.205
-0.155
-0.17
-0.155
-0.155
-0.165
-0.2
-0.195
-0.14
-0.135
-0.17
-0.175
-0.16
-0.195
-0.17
-0.175
-0.165
-0.125
-0.11
-0.095
-0.105
-0.11
-0.07
-0.125
-0.11
-0.115
-0.14
-0.105
-0.16
-0.18
-0.205
-0.18
-0.155
-0.18
-0.195
-0.215
-0.23
-0.145
-0.16
-0.205
-0.225
-0.16
-0.18
-0.25
-0.215
-0.235
-0.21
-0.255
-0.245
-0.165
-0.205
-0.18
-0.235
-0.225
-0.205
-0.23
-0.175
-0.21
-0.19
-0.235
-0.215
-0.215
-0.2
-0.21
-0.225
-0.24
-0.285
-0.28
-0.26
-0.245
-0.115
-0.045
-0.01
0.115
0.185
0.305
0.43
0.505
0.645
0.67
0.67
0.605
0.47
0.23
0.015
-0.095
-0.18
-0.15
-0.14
-0.195
-0.2
-0.19
-0.215
-0.22
-0.19
-0.195
-0.175
-0.205
-0.23
-0.22
-0.23
-0.225
-0.21
-0.235
-0.205
-0.2
-0.215
-0.15
-0.19
-0.21
-0.165
-0.215
-0.185
-0.22
-0.225
-0.175
-0.18
-0.18
-0.185
-0.22
-0.22
-0.225
-0.16
-0.185
-0.18
-0.155
-0.17
-0.19
-0.17
-0.14
-0.185
-0.175
-0.13
-0.19
-0.155
-0.125
-0.16
-0.185
-0.155
-0.15
-0.14
-0.125
-0.2
-0.125
-0.1
-0.125
-0.15
-0.15
-0.15
-0.165
-0.13
-0.09
-0.055
-0.1
-0.13
-0.085
-0.07
-0.08
-0.105
-0.06
-0.07
-0.07
-0.04
-0.06
-0.06
-0.03
-0.09
-0.055
-0.03
-0.03
-0.04
-0.09
-0.01
0.0
-0.035
-0.045
-0.06
-0.04
0.005
-0.03
0.005
-0.035
-0.05
-0.035
0.045
-0.025
-0.01
-0.03
-0.035
-0.035
-0.1
-0.005
-0.035
-0.08
-0.035
-0.05
-0.04
-0.08
-0.06
-0.08
-0.025
-0.055
-0.055
-0.085
-0.085
-0.085
-0.14
-0.105
-0.06
-0.095
-0.1
-0.13
-0.07
-0.19
-0.17
-0.155
-0.13
-0.18
-0.13
-0.115
-0.11
-0.21
-0.235
-0.115
-0.145
-0.18
-0.16
-0.2
-0.165
-0.165
-0.22
-0.165
-0.155
-0.19
-0.205
-0.17
-0.175
-0.135
-0.175
-0.155
-0.175
-0.15
-0.165
-0.15
-0.125
-0.135
-0.205
-0.17
-0.16
-0.19
-0.16
-0.145
-0.13
-0.17
-0.185
-0.145
-0.165
-0.135
-0.145
-0.135
-0.17
-0.185
-0.14
-0.16
-0.15
-0.165
-0.185
-0.19
-0.175
-0.15
-0.15
-0.13
-0.175
-0.155
-0.105
-0.17
-0.17
-0.175
-0.14
-0.17
-0.18
-0.155
-0.175
-0.15
-0.175
-0.195
-0.19
-0.165
-0.17
-0.165
-0.12
-0.16
-0.19
-0.205
-0.17
-0.16
-0.165
-0.125
-0.175
-0.21
-0.21
-0.15
-0.165
-0.195
-0.185
-0.15
-0.155
-0.185
-0.17
-0.18
-0.145
-0.14
-0.155
-0.23
-0.16
-0.155
-0.16
-0.17
-0.22
-0.175
-0.155
-0.16
-0.225
-0.15
-0.14
-0.165
-0.165
-0.18
-0.22
-0.16
-0.11
-0.1
-0.125
-0.11
-0.075
-0.075
-0.02
-0.08
-0.14
-0.125
-0.09
-0.145
-0.08
-0.14
-0.195
-0.175
-0.16
-0.15
-0.145
-0.175
-0.195
-0.18
-0.21
-0.215
-0.19
-0.225
-0.19
-0.195
-0.18
-0.155
-0.2
-0.225
-0.19
-0.22
-0.18
-0.2
-0.22
-0.16
-0.185
-0.18
-0.225
-0.19
-0.21
-0.225
-0.25
-0.22
-0.21
-0.24
-0.3
-0.235
-0.27
-0.255
-0.24
-0.17
-0.19
-0.07
-0.005
0.09
0.23
0.345
0.435
0.545
0.645
0.655
0.625
0.505
0.32
0.3
0.07
-0.085
-0.095
-0.165
-0.215
-0.195
-0.205
-0.21
-0.19
-0.26
-0.22
-0.235
-0.28
-0.265
-0.215
-0.35
-0.255
-0.24
-0.235
-0.265
-0.22
-0.24
-0.215
-0.26
-0.25
-0.27
-0.21
-0.245
-0.22
-0.22
-0.225
-0.18
-0.19
-0.21
-0.19
-0.165
-0.185
-0.25
-0.235
-0.195
-0.165
-0.215
-0.22
-0.23
-0.22
-0.22
-0.18
-0.19
-0.15
-0.13
-0.17
-0.15
-0.155
-0.14
-0.155
-0.155
-0.205
-0.175
-0.14
-0.105
-0.13
-0.165
-0.095
-0.09
-0.085
-0.18
-0.16
-0.11
-0.07
-0.065
-0.075
-0.105
-0.14
-0.145
-0.095
-0.04
0.01
-0.065
-0.045
-0.035
-0.08
-0.04
-0.015
-0.04
-0.035
-0.035
-0.02
-0.005
-0.005
-0.035
-0.015
-0.06
0.02
0.04
-0.025
0.005
-0.02
-0.015
-0.03
-0.01
-0.005
-0.03
-0.02
-0.04
-0.04
-0.055
-0.045
-0.035
-0.045
-0.05
-0.055
-0.05
-0.04
-0.05
-0.06
-0.07
-0.105
-0.085
-0.06
-0.075
-0.11
-0.08
-0.12
-0.08
-0.105
-0.15
-0.075
-0.14
-0.09
-0.05
-0.14
-0.185
-0.185
-0.15
-0.14
-0.135
-0.12
-0.145
-0.135
-0.115
-0.15
-0.115
-0.175
-0.17
-0.15
-0.14
-0.17
-0.19
-0.185
-0.125
-0.135
-0.15
-0.155
-0.12
-0.14
-0.125
-0.085
-0.125
-0.185
-0.115
-0.13
-0.095
-0.15
-0.105
-0.125
-0.19
-0.14
-0.13
-0.14
-0.145
-0.14
-0.1
-0.075
-0.075
-0.195
-0.205
-0.12
-0.06
-0.15
-0.16
-0.145
-0.145
-0.17
-0.16
-0.135
-0.115
-0.18
-0.14
-0.1
-0.13
-0.1
-0.165
-0.155
-0.17
-0.125
-0.17
-0.13
-0.16
-0.185
-0.17
-0.135
-0.155
-0.14
-0.155
-0.15
-0.145
-0.13
-0.145
-0.165
-0.13
-0.16
-0.165
-0.19
-0.185
-0.105
-0.11
-0.14
-0.2
-0.16
-0.17
-0.185
-0.175
-0.145
-0.15
-0.14
-0.17
-0.155
-0.13
-0.155
-0.125
-0.16
-0.135
-0.115
-0.11
-0.125
-0.095
-0.125
-0.08
-0.075
-0.01
-0.025
-0.175
-0.145
-0.045
-0.08
-0.08
-0.135
-0.13
-0.115
-0.15
-0.115
-0.14
-0.145
-0.11
-0.14
-0.155
-0.145
-0.185
-0.165
-0.14
-0.15
-0.115
-0.19
-0.175
-0.18
-0.155
-0.145
-0.14
-0.185
-0.15
-0.135
-0.145
-0.145
-0.24
-0.2
-0.13
-0.16
-0.13
-0.155
-0.155
-0.155
-0.175
-0.17
-0.195
-0.19
-0.225
-0.26
-0.225
-0.15
-0.15
-0.06
0.04
0.1
0.205
0.28
0.37
0.485
0.605
0.685
0.58
0.49
0.415
0.195
0.06
-0.15
-0.2
-0.165
-0.18
-0.195
-0.185
-0.16
-0.15
-0.15
-0.15
-0.15
-0.135
-0.15
-0.165
-0.16
-0.15
-0.155
-0.195
-0.15
-0.14
-0.13
-0.14
-0.155
-0.1
-0.125
-0.125
-0.14
-0.18
-0.12
-0.1
-0.14
-0.14
-0.155
-0.14
-0.16
-0.095
-0.16
-0.1
-0.075
-0.14
-0.135
-0.095
-0.09
-0.11
-0.095
-0.105
-0.17
-0.08
-0.08
-0.11
-0.105
-0.1
-0.065
-0.075
-0.04
-0.075
-0.085
-0.02
-0.04
-0.035
-0.12
-0.09
-0.055
-0.05
-0.04
-0.02
-0.045
-0.005
-0.025
-0.035
-0.03
-0.03
-0.03
0.04
0.035
-0.035
0.005
0.005
0.015
0.01
0.02
0.04
0.075
0.075
0.06
0.07
0.045
0.06
0.08
0.045
0.01
0.045
0.045
0.06
0.07
0.08
0.055
0.035
0.02
0.05
0.04
0.035
0.065
0.065
0.05
0.045
0.01
0.015
-0.015
0.02
0.005
0.03
0.0
0.04
0.045
0.035
-0.01
-0.01
-0.045
-0.04
-0.04
-0.045
-0.03
-0.03
-0.1
-0.085
-0.06
-0.08
-0.075
-0.065
-0.08
-0.115
-0.085
-0.075
-0.08
-0.085
-0.09
-0.085
-0.09
-0.155
-0.125
-0.08
-0.08
-0.105
-0.11
-0.105
-0.11
-0.065
-0.085
-0.1
-0.1
-0.095
-0.085
-0.11
-0.1
-0.075
-0.125
-0.115
-0.09
-0.1
-0.09
-0.115
-0.1
-0.09
-0.115
-0.115
-0.18
-0.05
-0.105
-0.105
-0.115
-0.095
-0.175
-0.135
-0.12
-0.09
-0.085
-0.11
-0.11
-0.105
-0.115
-0.135
-0.145
-0.135
-0.15
-0.13
-0.085
-0.09
-0.135
-0.12
-0.115
-0.125
-0.14
-0.13
-0.105
-0.12
-0.14
-0.14
-0.115
-0.16
-0.13
-0.09
-0.145
-0.145
-0.125
-0.11
-0.135
-0.085
-0.08
-0.17
-0.14
-0.12
-0.085
-0.06
-0.11
-0.085
-0.07
-0.055
-0.095
-0.12
-0.09
-0.09
-0.08
-0.04
-0.07
-0.045
-0.07
-0.085
-0.055
-0.09
-0.105
-0.085
-0.135
-0.13
-0.14
-0.15
-0.165
-0.105
-0.165
-0.145
-0.13
-0.17
-0.11
-0.11
-0.105
-0.13
-0.155
-0.13
-0.14
-0.16
-0.14
-0.155
-0.13
-0.15
-0.135
-0.16
-0.2
-0.175
-0.15
-0.145
-0.2
-0.145
-0.155
-0.11
-0.175
-0.15
-0.2
-0.24
-0.195
-0.22
-0.17
-0.11
-0.04
-0.04
0.1
0.18
0.26
0.395
0.465
0.54
0.565
0.46
0.38
0.25
0.045
-0.09
-0.18
-0.175
-0.195
-0.165
-0.125
-0.22
-0.18
-0.165
-0.13
-0.155
-0.17
-0.09
-0.15
-0.125
-0.125
-0.105
-0.13
-0.125
-0.11
-0.09
-0.08
-0.08
-0.155
-0.1
-0.085
-0.09
-0.085
-0.1
-0.085
-0.06
-0.065
-0.075
-0.035
-0.1
-0.09
-0.03
-0.035
-0.085
-0.11
-0.09
-0.095
-0.06
-0.08
-0.085
-0.095
-0.065
-0.05
-0.06
-0.06
-0.065
-0.015
-0.04
-0.065
-0.05
-0.025
-0.035
-0.075
-0.095
-0.02
-0.02
-0.005
-0.02
-0.03
-0.005
0.01
0.015
-0.01
-0.015
-0.025
-0.015
0.0
0.015
-0.03
0.005
0.02
0.045
0.005
-0.015
0.06
0.075
0.09
0.08
0.03
-0.06
0.045
0.015
0.045
0.02
0.06
0.055
0.07
0.045
0.035
0.065
0.05
0.055
0.06
0.065
0.06
0.06
0.085
0.065
0.045
0.04
0.035
0.045
0.005
-0.015
0.065
0.035
0.0
-0.005
-0.01
0.045
0.01
-0.03
-0.035
-0.04
-0.05
-0.05
-0.075
-0.075
-0.04
0.005
-0.02
-0.065
-0.08
-0.075
-0.105
-0.1
-0.1
-0.1
-0.085
-0.07
-0.095
-0.13
-0.09
-0.1
-0.07
-0.05
-0.115
-0.18
-0.105
-0.08
-0.13
-0.085
-0.08
-0.13
-0.105
-0.075
-0.08
-0.13
-0.14
-0.135
-0.095
-0.075
-0.09
-0.095
-0.12
-0.17
-0.08
-0.07
-0.09
-0.08
-0.05
-0.1
-0.1
-0.08
-0.065
-0.115
-0.12
-0.08
-0.09
-0.085
-0.095
-0.085
-0.075
-0.055
-0.07
-0.135
-0.11
-0.125
-0.09
-0.09
-0.105
-0.105
-0.115
-0.135
-0.1
-0.095
-0.145
-0.135
-0.025
-0.055
-0.07
-0.125
-0.09
-0.105
-0.115
-0.08
-0.085
-0.09
-0.105
-0.13
-0.11
-0.065
-0.07
-0.07
-0.065
-0.145
-0.075
-0.055
-0.035
-0.08
-0.055
-0.045
-0.07
-0.045
-0.055
-0.035
-0.07
-0.05
-0.08
-0.095
-0.115
-0.08
-0.095
-0.115
-0.1
-0.12
-0.155
-0.09
-0.05
-0.13
-0.09
-0.12
-0.155
-0.17
-0.14
-0.115
-0.135
-0.13
-0.09
-0.14
-0.175
-0.145
-0.115
-0.14
-0.16
-0.145
-0.155
-0.15
-0.12
-0.12
-0.135
-0.17
-0.155
-0.215
-0.175
-0.14
-0.22
-0.26
-0.165
-0.11
-0.08
0.015
0.12
0.175
0.27
0.375
0.485
0.585
0.52
0.56
0.5
0.39
0.33
0.145
0.015
-0.075
-0.095
-0.13
-0.14
-0.085
-0.15
-0.13
-0.135
-0.125
-0.115
-0.09
-0.11
-0.155
-0.17
-0.115
-0.115
-0.13
-0.13
-0.09
-0.12
-0.11
-0.145
-0.135
-0.15
-0.115
-0.12
-0.07
-0.08
-0.115
-0.135
-0.14
-0.13
-0.115
-0.075
-0.105
-0.15
-0.075
-0.035
-0.05
-0.14
-0.13
-0.15
-0.13
-0.1
-0.105
-0.12
-0.12
-0.08
-0.11
-0.14
-0.075
-0.085
-0.055
-0.035
-0.045
-0.07
-0.09
-0.06
-0.105
-0.075
-0.06
-0.07
-0.07
-0.05
-0.075
-0.045
-0.035
-0.015
-0.05
-0.035
-0.035
-0.045
-0.015
-0.01
-0.015
-0.055
-0.015
-0.015
-0.02
-0.055
0.03
0.01
-0.025
0.005
0.025
-0.01
0.0
0.02
0.0
0.005
0.015
-0.03
-0.01
-0.005
-0.025
0.005
0.01
-0.03
0.015
0.015
0.005
-0.015
-0.035
-0.025
-0.04
-0.01
-0.025
-0.035
-0.06
-0.025
0.01
-0.045
-0.075
-0.02
-0.045
-0.055
-0.07
-0.085
-0.08
-0.07
-0.075
-0.09
-0.06
-0.065
-0.165
-0.11
-0.135
-0.075
-0.075
-0.13
-0.115
-0.1
-0.13
-0.09
-0.09
-0.18
-0.145
-0.11
-0.115
-0.12
-0.125
-0.095
-0.09
-0.145
-0.155
-0.11
-0.11
-0.19
-0.125
-0.15
-0.11
-0.1
-0.155
-0.13
-0.125
-0.1
-0.09
-0.115
-0.12
-0.16
-0.145
-0.11
-0.115
-0.115
-0.13
-0.135
-0.135
-0.105
-0.125
-0.1
-0.085
-0.09
-0.095
-0.06
-0.055
-0.15
-0.115
-0.12
-0.145
-0.115
-0.08
-0.115
-0.15
-0.1
-0.105
-0.16
-0.135
-0.09
-0.07
-0.08
-0.06
-0.125
-0.095
-0.085
-0.12
-0.125
-0.14
-0.115
-0.08
-0.065
-0.09
-0.11
-0.145
-0.075
-0.07
-0.075
-0.085
-0.01
-0.055
-0.09
-0.08
-0.06
-0.04
-0.03
-0.1
-0.065
-0.04
-0.025
-0.03
-0.075
-0.07
-0.045
-0.075
-0.14
-0.115
-0.06
-0.085
-0.125
-0.135
-0.12
-0.125
-0.155
