# TIPE ECG 2021 - ECG-ID Database v1.0.0 par Physionet
# [N° de la personne, N° de l'enregistrement, Période d'échantillonnage, Prénom, Age, Sexe, Date de l'enregistrement]
[8, 2, 0.002, "Eva", 21, "F", "15.03.2005"]
-0.51
-0.5
-0.705
-0.72
-0.75
-0.72
-0.69
-0.555
-0.54
-0.44
-0.44
-0.595
-0.71
-0.74
-0.69
-0.715
-0.625
-0.57
-0.46
-0.425
-0.445
-0.575
-0.575
-0.545
-0.59
-0.675
-0.515
-0.535
-0.38
-0.36
-0.35
-0.46
-0.545
-0.705
-0.625
-0.605
-0.465
-0.415
-0.3
-0.29
-0.285
-0.5
-0.46
-0.505
-0.59
-0.48
-0.415
-0.475
-0.29
-0.28
-0.34
-0.39
-0.39
-0.39
-0.485
-0.485
-0.36
-0.345
-0.195
-0.195
-0.275
-0.425
-0.34
-0.535
-0.565
-0.49
-0.435
-0.36
-0.325
-0.295
-0.425
-0.51
-0.55
-0.65
-0.7
-0.66
-0.57
-0.61
-0.465
-0.54
-0.55
-0.605
-0.625
-0.66
-0.685
-0.675
-0.655
-0.57
-0.565
-0.5
-0.54
-0.62
-0.515
-0.805
-0.815
-0.67
-0.66
-0.61
-0.465
-0.5
-0.58
-0.605
-0.605
-0.77
-0.705
-0.68
-0.61
-0.555
-0.555
-0.52
-0.59
-0.61
-0.655
-0.755
-0.77
-0.68
-0.615
-0.52
-0.505
-0.5
-0.66
-0.795
-0.68
-0.845
-0.695
-0.54
-0.49
-0.48
-0.475
-0.48
-0.625
-0.695
-0.675
-0.8
-0.745
-0.73
-0.615
-0.545
-0.46
-0.51
-0.61
-0.64
-0.7
-0.825
-0.82
-0.68
-0.59
-0.565
-0.555
-0.525
-0.58
-0.66
-0.76
-0.77
-0.72
-0.71
-0.48
-0.485
-0.605
-0.55
-0.585
-0.63
-0.755
-0.785
-0.71
-0.66
-0.585
-0.52
-0.595
-0.49
-0.58
-0.6
-0.71
-0.835
-0.715
-0.645
-0.52
-0.53
-0.485
-0.545
-0.62
-0.67
-0.715
-0.735
-0.695
-0.685
-0.565
-0.505
-0.49
-0.61
-0.61
-0.665
-0.83
-0.78
-0.715
-0.665
-0.7
-0.53
-0.57
-0.47
-0.52
-0.635
-0.845
-0.745
-0.755
-0.565
-0.58
-0.48
-0.52
-0.45
-0.56
-0.645
-0.775
-0.785
-0.595
-0.645
-0.6
-0.515
-0.525
-0.575
-0.595
-0.585
-0.69
-0.61
-0.555
-0.505
-0.41
-0.335
-0.44
-0.455
-0.585
-0.495
-0.66
-0.68
-0.61
-0.545
-0.59
-0.44
-0.645
-0.43
-0.53
-0.635
-0.775
-0.735
-0.73
-0.63
-0.535
-0.51
-0.485
-0.58
-0.55
-0.675
-0.775
-0.83
-0.63
-0.66
-0.6
-0.53
-0.505
-0.58
-0.645
-0.75
-0.705
-0.715
-0.745
-0.685
-0.62
-0.61
-0.57
-0.69
-0.75
-0.775
-0.83
-0.72
-0.575
-0.445
-0.24
0.02
0.06
-0.015
0.035
0.12
-0.07
0.025
0.145
0.375
0.435
0.305
0.225
-0.01
-0.395
-0.575
-0.625
-0.67
-0.54
-0.52
-0.42
-0.37
-0.335
-0.52
-0.555
-0.705
-0.685
-0.76
-0.735
-0.64
-0.53
-0.44
-0.535
-0.525
-0.645
-0.785
-0.78
-0.805
-0.705
-0.685
-0.575
-0.48
-0.505
-0.68
-0.725
-0.765
-0.8
-0.665
-0.655
-0.585
-0.425
-0.57
-0.645
-0.6
-0.64
-0.805
-0.75
-0.77
-0.625
-0.51
-0.46
-0.53
-0.5
-0.68
-0.675
-0.735
-0.7
-0.685
-0.63
-0.625
-0.425
-0.5
-0.435
-0.595
-0.695
-0.765
-0.73
-0.645
-0.625
-0.535
-0.46
-0.47
-0.455
-0.515
-0.64
-0.725
-0.68
-0.625
-0.635
-0.51
-0.365
-0.365
-0.425
-0.515
-0.505
-0.645
-0.755
-0.735
-0.41
-0.435
-0.365
-0.3
-0.465
-0.395
-0.4
-0.465
-0.54
-0.55
-0.42
-0.28
-0.285
-0.21
-0.355
-0.445
-0.415
-0.485
-0.495
-0.375
-0.295
-0.24
-0.14
-0.25
-0.265
-0.425
-0.4
-0.5
-0.545
-0.36
-0.32
-0.29
-0.285
-0.295
-0.235
-0.39
-0.335
-0.455
-0.525
-0.52
-0.415
-0.305
-0.315
-0.25
-0.55
-0.395
-0.53
-0.64
-0.63
-0.625
-0.6
-0.475
-0.355
-0.345
-0.515
-0.67
-0.59
-0.68
-0.76
-0.505
-0.525
-0.44
-0.45
-0.475
-0.525
-0.625
-0.695
-0.79
-0.775
-0.66
-0.535
-0.545
-0.36
-0.49
-0.605
-0.68
-0.68
-0.72
-0.72
-0.7
-0.595
-0.485
-0.49
-0.44
-0.61
-0.595
-0.735
-0.68
-0.685
-0.65
-0.65
-0.475
-0.56
-0.53
-0.525
-0.635
-0.715
-0.79
-0.665
-0.685
-0.615
-0.445
-0.39
-0.445
-0.57
-0.605
-0.685
-0.76
-0.76
-0.505
-0.53
-0.45
-0.465
-0.445
-0.6
-0.65
-0.79
-0.66
-0.59
-0.565
-0.615
-0.46
-0.44
-0.565
-0.64
-0.62
-0.755
-0.755
-0.66
-0.53
-0.565
-0.44
-0.495
-0.575
-0.515
-0.55
-0.755
-0.77
-0.645
-0.57
-0.665
-0.45
-0.445
-0.515
-0.545
-0.64
-0.73
-0.75
-0.735
-0.565
-0.57
-0.425
-0.42
-0.445
-0.53
-0.535
-0.68
-0.82
-0.7
-0.62
-0.555
-0.51
-0.475
-0.51
-0.565
-0.635
-0.75
-0.705
-0.705
-0.605
-0.505
-0.44
-0.39
-0.52
-0.57
-0.625
-0.715
-0.71
-0.655
-0.805
-0.37
-0.43
-0.475
-0.385
-0.555
-0.525
-0.69
-0.5
-0.585
-0.485
-0.36
-0.4
-0.445
-0.395
-0.515
-0.54
-0.645
-0.64
-0.615
-0.53
-0.45
-0.41
-0.44
-0.51
-0.605
-0.725
-0.735
-0.73
-0.7
-0.56
-0.545
-0.46
-0.51
-0.525
-0.66
-0.68
-0.695
-0.72
-0.7
-0.56
-0.575
-0.52
-0.55
-0.535
-0.585
-0.765
-0.725
-0.705
-0.69
-0.71
-0.665
-0.665
-0.545
-0.62
-0.735
-0.535
-0.555
-0.46
-0.235
-0.02
0.12
0.2
0.3
0.195
0.21
0.095
0.245
0.275
0.3
0.245
0.105
-0.125
-0.29
-0.465
-0.495
-0.685
-0.68
-0.53
-0.455
-0.44
-0.385
-0.49
-0.395
-0.605
-0.715
-0.78
-0.765
-0.725
-0.655
-0.615
-0.41
-0.44
-0.685
-0.64
-0.605
-0.815
-0.745
-0.735
-0.615
-0.535
-0.535
-0.355
-0.505
-0.675
-0.665
-0.835
-0.8
-0.805
-0.66
-0.58
-0.465
-0.495
-0.59
-0.635
-0.615
-0.72
-0.73
-0.665
-0.62
-0.615
-0.45
-0.52
-0.46
-0.54
-0.62
-0.63
-0.74
-0.64
-0.715
-0.655
-0.44
-0.465
-0.525
-0.58
-0.8
-0.775
-0.745
-0.655
-0.525
-0.535
-0.44
-0.36
-0.43
-0.47
-0.62
-0.67
-0.71
-0.535
-0.455
-0.345
-0.26
-0.365
-0.43
-0.485
-0.61
-0.785
-0.75
-0.61
-0.465
-0.43
-0.315
-0.325
-0.41
-0.425
-0.47
-0.53
-0.515
-0.34
-0.275
-0.205
-0.28
-0.255
-0.435
-0.515
-0.515
-0.55
-0.455
-0.465
-0.455
-0.21
-0.23
-0.235
-0.245
-0.37
-0.445
-0.46
-0.435
-0.4
-0.305
-0.24
-0.215
-0.255
-0.3
-0.385
-0.475
-0.45
-0.565
-0.55
-0.41
-0.345
-0.44
-0.36
-0.39
-0.72
-0.69
-0.63
-0.615
-0.595
-0.59
-0.415
-0.415
-0.47
-0.505
-0.61
-0.74
-0.675
-0.69
-0.605
-0.62
-0.495
-0.515
-0.49
-0.53
-0.62
-0.76
-0.755
-0.64
-0.66
-0.64
-0.44
-0.44
-0.47
-0.63
-0.635
-0.745
-0.78
-0.62
-0.615
-0.57
-0.575
-0.505
-0.43
-0.6
-0.725
-0.825
-0.69
-0.71
-0.63
-0.575
-0.375
-0.52
-0.49
-0.595
-0.615
-0.77
-0.75
-0.63
-0.595
-0.65
-0.47
-0.48
-0.525
-0.655
-0.64
-0.71
-0.71
-0.64
-0.64
-0.685
-0.48
-0.525
-0.52
-0.725
-0.685
-0.69
-0.68
-0.565
-0.645
-0.5
-0.41
-0.485
-0.58
-0.555
-0.64
-0.86
-0.73
-0.65
-0.555
-0.51
-0.45
-0.505
-0.52
-0.54
-0.66
-0.75
-0.775
-0.685
-0.615
-0.69
-0.515
-0.525
-0.51
-0.505
-0.67
-0.665
-0.645
-0.695
-0.665
-0.635
-0.575
-0.51
-0.58
-0.605
-0.68
-0.725
-0.75
-0.59
-0.55
-0.515
-0.49
-0.46
-0.6
-0.615
-0.555
-0.775
-0.715
-0.66
-0.63
-0.505
-0.43
-0.33
-0.525
-0.58
-0.6
-0.61
-0.57
-0.51
-0.425
-0.345
-0.27
-0.33
-0.49
-0.565
-0.64
-0.685
-0.74
-0.715
-0.58
-0.475
-0.435
-0.49
-0.68
-0.785
-0.75
-0.755
-0.73
-0.58
-0.58
-0.525
-0.495
-0.555
-0.475
-0.795
-0.775
-0.705
-0.615
-0.65
-0.615
-0.575
-0.395
-0.575
-0.615
-0.67
-0.78
-0.775
-0.795
-0.735
-0.645
-0.585
-0.6
-0.665
-0.615
-0.585
-0.665
-0.48
-0.265
-0.16
0.005
0.23
0.335
0.375
0.39
0.15
0.165
0.27
0.35
0.315
0.075
-0.165
-0.36
-0.305
-0.5
-0.485
-0.61
-0.6
-0.58
-0.52
-0.465
-0.375
-0.495
-0.48
-0.605
-0.775
-0.74
-0.675
-0.665
-0.67
-0.565
-0.475
-0.525
-0.585
-0.665
-0.7
-0.85
-0.815
-0.75
-0.62
-0.59
-0.42
-0.505
-0.53
-0.645
-0.68
-0.73
-0.775
-0.66
-0.655
-0.78
-0.54
-0.39
-0.56
-0.655
-0.635
-0.67
-0.7
-0.665
-0.65
-0.695
-0.435
-0.505
-0.735
-0.53
-0.63
-0.935
-0.73
-0.685
-0.6
-0.56
-0.435
-0.455
-0.49
-0.625
-0.615
-0.715
-0.71
-0.695
-0.62
-0.46
-0.375
-0.405
-0.405
-0.575
-0.67
-0.67
-0.675
-0.63
-0.51
-0.415
-0.455
-0.43
-0.465
-0.545
-0.595
-0.71
-0.62
-0.575
-0.53
-0.33
-0.27
-0.27
-0.31
-0.49
-0.645
-0.52
-0.45
-0.495
-0.43
-0.305
-0.275
-0.2
-0.355
-0.53
-0.54
-0.44
-0.445
-0.39
-0.305
-0.235
-0.22
-0.3
-0.275
-0.385
-0.49
-0.56
-0.41
-0.42
-0.255
-0.215
-0.3
-0.29
-0.44
-0.46
-0.535
-0.575
-0.535
-0.475
-0.44
-0.3
-0.37
-0.42
-0.42
-0.495
-0.77
-0.7
-0.49
-0.56
-0.56
-0.435
-0.46
-0.575
-0.655
-0.685
-0.78
-0.69
-0.64
-0.55
-0.57
-0.49
-0.44
-0.47
-0.65
-0.575
-0.77
-0.615
-0.69
-0.6
-0.6
-0.48
-0.52
-0.535
-0.605
-0.65
-0.715
-0.775
-0.655
-0.57
-0.53
-0.44
-0.455
-0.505
-0.51
-0.575
-0.66
-0.8
-0.73
-0.56
-0.605
-0.455
-0.505
-0.52
-0.635
-0.66
-0.73
-0.68
-0.62
-0.67
-0.56
-0.425
-0.42
-0.57
-0.62
-0.605
-0.745
-0.75
-0.665
-0.585
-0.545
-0.515
-0.585
-0.54
-0.65
-0.66
-0.795
-0.775
-0.66
-0.62
-0.455
-0.415
-0.415
-0.4
-0.645
-0.74
-0.66
-0.7
-0.62
-0.55
-0.56
-0.42
-0.54
-0.6
-0.63
-0.705
-0.69
-0.72
-0.615
-0.545
-0.46
-0.435
-0.525
-0.535
-0.65
-0.645
-0.705
-0.68
-0.665
-0.655
-0.59
-0.465
-0.48
-0.5
-0.625
-0.765
-0.795
-0.71
-0.59
-0.555
-0.485
-0.45
-0.525
-0.535
-0.58
-0.665
-0.675
-0.775
-0.655
-0.54
-0.4
-0.385
-0.465
-0.47
-0.505
-0.675
-0.58
-0.68
-0.46
-0.36
-0.335
-0.38
-0.315
-0.415
-0.49
-0.595
-0.575
-0.505
-0.595
-0.605
-0.52
-0.44
-0.5
-0.51
-0.655
-0.765
-0.685
-0.715
-0.585
-0.535
-0.46
-0.465
-0.44
-0.53
-0.645
-0.77
-0.67
-0.655
-0.655
-0.625
-0.43
-0.415
-0.565
-0.595
-0.64
-0.74
-0.725
-0.65
-0.635
-0.675
-0.695
-0.56
-0.615
-0.705
-0.685
-0.715
-0.705
-0.49
-0.345
-0.175
0.09
0.21
0.165
0.155
0.21
0.21
0.265
0.325
0.425
0.42
0.515
0.35
-0.07
-0.395
-0.46
-0.6
-0.53
-0.47
-0.545
-0.425
-0.37
-0.37
-0.43
-0.545
-0.625
-0.705
-0.665
-0.61
-0.565
-0.61
-0.475
-0.4
-0.545
-0.65
-0.695
-0.755
-0.715
-0.65
-0.5
-0.595
-0.525
-0.495
-0.495
-0.54
-0.81
-0.73
-0.695
-0.69
-0.545
-0.535
-0.52
-0.45
-0.545
-0.65
-0.725
-0.815
-0.68
-0.63
-0.545
-0.54
-0.51
-0.495
-0.49
-0.585
-0.635
-0.665
-0.575
-0.525
-0.555
-0.475
-0.5
-0.525
-0.5
-0.585
-0.655
-0.655
-0.62
-0.44
-0.58
-0.47
-0.52
-0.46
-0.42
-0.64
-0.71
-0.67
-0.675
-0.55
-0.485
-0.37
-0.385
-0.32
-0.43
-0.505
-0.58
-0.665
-0.59
-0.46
-0.525
-0.27
-0.33
-0.285
-0.42
-0.46
-0.555
-0.48
-0.475
-0.39
-0.315
-0.225
-0.18
-0.29
-0.39
-0.29
-0.45
-0.61
-0.45
-0.33
-0.315
-0.275
-0.235
-0.21
-0.315
-0.305
-0.465
-0.43
-0.43
-0.27
-0.22
-0.315
-0.255
-0.235
-0.27
-0.41
-0.44
-0.52
-0.435
-0.405
-0.38
-0.24
-0.34
-0.38
-0.43
-0.52
-0.59
-0.575
-0.53
-0.485
-0.45
-0.335
-0.445
-0.46
-0.66
-0.575
-0.685
-0.82
-0.625
-0.585
-0.405
-0.36
-0.445
-0.415
-0.63
-0.69
-0.8
-0.805
-0.72
-0.47
-0.485
-0.445
-0.375
-0.44
-0.645
-0.575
-0.64
-0.66
-0.63
-0.54
-0.53
-0.465
-0.465
-0.515
-0.62
-0.605
-0.765
-0.76
-0.59
-0.48
-0.49
-0.395
-0.36
-0.565
-0.625
-0.745
-0.76
-0.835
-0.62
-0.44
-0.46
-0.465
-0.44
-0.5
-0.605
-0.595
-0.745
-0.78
-0.695
-0.5
-0.43
-0.455
-0.435
-0.615
-0.57
-0.65
-0.805
-0.625
-0.64
-0.62
-0.51
-0.46
-0.54
-0.535
-0.5
-0.62
-0.72
-0.755
-0.655
-0.455
-0.455
-0.41
-0.58
-0.575
-0.535
-0.66
-0.675
-0.74
-0.675
-0.53
-0.45
-0.515
-0.51
-0.51
-0.635
-0.765
-0.755
-0.695
-0.545
-0.525
-0.45
-0.35
-0.44
-0.64
-0.555
-0.675
-0.7
-0.635
-0.625
-0.59
-0.455
-0.41
-0.465
-0.525
-0.685
-0.665
-0.66
-0.645
-0.67
-0.59
-0.435
-0.47
-0.515
-0.525
-0.58
-0.72
-0.675
-0.695
-0.645
-0.62
-0.355
-0.39
-0.41
-0.5
-0.5
-0.615
-0.525
-0.535
-0.435
-0.395
-0.395
-0.29
-0.43
-0.53
-0.54
-0.59
-0.595
-0.505
-0.465
-0.58
-0.43
-0.465
-0.475
-0.565
-0.5
-0.63
-0.74
-0.77
-0.695
-0.525
-0.39
-0.505
-0.5
-0.485
-0.72
-0.745
-0.675
-0.615
-0.565
-0.41
-0.46
-0.495
-0.565
-0.705
-0.735
-0.8
-0.86
-0.775
-0.65
-0.665
-0.545
-0.52
-0.605
-0.53
-0.505
-0.555
-0.42
-0.19
0.06
0.18
0.285
0.395
0.27
0.305
0.27
0.225
0.245
0.385
0.28
0.15
-0.15
-0.205
-0.37
-0.4
-0.545
-0.565
-0.5
-0.51
-0.395
-0.455
-0.365
-0.42
-0.53
-0.655
-0.735
-0.745
-0.745
-0.63
-0.605
-0.41
-0.51
-0.635
-0.55
-0.62
-0.69
-0.7
-0.835
-0.675
-0.595
-0.545
-0.475
-0.455
-0.58
-0.625
-0.605
-0.67
-0.725
-0.73
-0.55
-0.485
-0.47
-0.52
-0.665
-0.685
-0.645
-0.655
-0.62
-0.52
-0.585
-0.665
-0.39
-0.48
-0.695
-0.6
-0.635
-0.685
-0.67
-0.585
-0.585
-0.475
-0.41
-0.405
-0.605
-0.515
-0.665
-0.635
-0.66
-0.535
-0.625
-0.39
-0.45
-0.375
-0.42
-0.56
-0.725
-0.72
-0.61
-0.485
-0.505
-0.265
-0.295
-0.485
-0.48
-0.48
-0.625
-0.55
-0.595
-0.525
-0.42
-0.24
-0.265
-0.365
-0.455
-0.515
-0.535
-0.49
-0.415
-0.37
-0.19
-0.2
-0.215
-0.28
-0.245
-0.39
-0.52
-0.46
-0.4
-0.345
-0.285
-0.17
-0.23
-0.275
-0.32
-0.35
-0.425
-0.445
-0.365
-0.225
-0.285
-0.23
-0.185
-0.295
-0.315
-0.335
-0.425
-0.59
-0.405
-0.4
-0.335
-0.315
-0.4
-0.405
-0.5
-0.505
-0.71
-0.67
-0.615
-0.49
-0.425
-0.355
-0.44
-0.4
-0.605
-0.62
-0.665
-0.69
-0.445
-0.485
-0.465
-0.325
-0.415
-0.535
-0.65
-0.725
-0.7
-0.78
-0.535
-0.455
-0.335
-0.44
-0.52
-0.435
-0.575
-0.79
-0.655
-0.69
-0.59
-0.47
-0.43
-0.35
-0.395
-0.505
-0.495
-0.64
-0.675
-0.605
-0.655
-0.565
-0.42
-0.515
-0.45
-0.49
-0.495
-0.68
-0.75
-0.575
-0.48
-0.465
-0.375
-0.35
-0.485
-0.5
-0.57
-0.68
-0.74
-0.64
-0.555
-0.545
-0.47
-0.36
-0.41
-0.415
-0.5
-0.685
-0.64
-0.595
-0.54
-0.61
-0.425
-0.38
-0.385
-0.58
-0.61
-0.555
-0.57
-0.735
-0.465
-0.5
-0.435
-0.47
-0.45
-0.565
-0.555
-0.65
-0.715
-0.665
-0.505
-0.45
-0.395
-0.335
-0.485
-0.535
-0.675
-0.745
-0.65
-0.775
-0.555
-0.545
-0.31
-0.28
-0.47
-0.625
-0.64
-0.695
-0.62
-0.555
-0.5
-0.4
-0.465
-0.385
-0.385
-0.49
-0.615
-0.755
-0.755
-0.59
-0.47
-0.54
-0.44
-0.42
-0.455
-0.45
-0.525
-0.775
-0.695
-0.57
-0.44
-0.425
-0.365
-0.39
-0.4
-0.505
-0.545
-0.485
-0.585
-0.495
-0.48
-0.38
-0.325
-0.28
-0.385
-0.43
-0.485
-0.6
-0.59
-0.575
-0.475
-0.4
-0.44
-0.4
-0.43
-0.585
-0.68
-0.71
-0.52
-0.605
-0.56
-0.43
-0.405
-0.39
-0.445
-0.645
-0.6
-0.79
-0.645
-0.675
-0.47
-0.5
-0.375
-0.335
-0.47
-0.555
-0.685
-0.785
-0.71
-0.735
-0.655
-0.595
-0.55
-0.525
-0.5
-0.49
-0.705
-0.465
-0.305
-0.11
0.05
0.205
0.315
0.39
0.44
0.345
0.165
0.33
0.405
0.405
0.345
0.305
-0.005
-0.155
-0.255
-0.42
-0.545
-0.485
-0.645
-0.455
-0.375
-0.29
-0.375
-0.46
-0.62
-0.665
-0.695
-0.69
-0.59
-0.57
-0.485
-0.36
-0.445
-0.51
-0.48
-0.645
-0.705
-0.685
-0.635
-0.555
-0.53
-0.36
-0.545
-0.53
-0.555
-0.64
-0.77
-0.805
-0.615
-0.515
-0.4
-0.49
-0.32
-0.41
-0.495
-0.485
-0.83
-0.66
-0.665
-0.595
-0.51
-0.44
-0.49
-0.525
-0.505
-0.575
-0.77
-0.71
-0.525
-0.455
-0.505
-0.42
-0.465
-0.43
-0.465
-0.58
-0.7
-0.66
-0.54
-0.5
-0.475
-0.35
-0.4
-0.47
-0.55
-0.675
-0.79
-0.935
-0.675
-0.495
-0.45
-0.34
-0.365
-0.425
-0.4
-0.455
-0.515
-0.59
-0.51
-0.435
-0.4
-0.335
-0.325
-0.475
-0.4
-0.47
-0.495
-0.5
-0.4
-0.305
-0.285
-0.315
-0.33
-0.21
-0.255
-0.33
-0.39
-0.44
-0.37
-0.275
-0.135
-0.215
-0.27
-0.25
-0.28
-0.45
-0.455
-0.395
-0.39
-0.405
-0.24
-0.055
-0.225
-0.23
-0.275
-0.47
-0.52
-0.495
-0.445
-0.215
-0.3
-0.15
-0.305
-0.425
-0.515
-0.535
-0.56
-0.52
-0.51
-0.47
-0.295
-0.47
-0.34
-0.455
-0.575
-0.675
-0.6
-0.605
-0.65
-0.415
-0.495
-0.46
-0.55
-0.435
-0.51
-0.655
-0.565
-0.65
-0.505
-0.485
-0.44
-0.425
-0.465
-0.485
-0.625
-0.61
-0.64
-0.57
-0.46
-0.51
-0.475
-0.395
-0.395
-0.42
-0.61
-0.725
-0.625
-0.63
-0.495
-0.455
-0.42
-0.38
-0.44
-0.555
-0.6
-0.655
-0.645
-0.55
-0.5
-0.475
-0.525
-0.435
-0.39
-0.56
-0.62
-0.775
-0.6
-0.49
-0.655
-0.46
-0.335
-0.4
-0.5
-0.555
-0.635
-0.705
-0.745
-0.565
-0.43
-0.455
-0.37
-0.31
-0.46
-0.545
-0.595
-0.73
-0.68
-0.705
-0.59
-0.575
-0.36
-0.43
-0.41
-0.6
-0.685
-0.665
-0.63
-0.545
-0.455
-0.515
-0.42
-0.445
-0.465
-0.56
-0.565
-0.63
-0.65
-0.63
-0.665
-0.515
-0.48
-0.445
-0.395
-0.615
-0.535
-0.74
-0.605
-0.585
-0.555
-0.28
-0.46
-0.385
-0.465
-0.615
-0.59
-0.695
-0.7
-0.565
-0.43
-0.47
-0.355
-0.355
-0.45
-0.43
-0.58
-0.62
-0.49
-0.505
-0.405
-0.245
-0.295
-0.265
-0.46
-0.37
-0.435
-0.605
-0.605
-0.47
-0.575
-0.415
-0.345
-0.525
-0.4
-0.48
-0.64
-0.725
-0.73
-0.575
-0.435
-0.39
-0.435
-0.47
-0.535
-0.53
-0.7
-0.73
-0.67
-0.57
-0.565
-0.41
-0.42
-0.49
-0.53
-0.645
-0.765
-0.715
-0.795
-0.575
-0.5
-0.51
-0.51
-0.52
-0.585
-0.61
-0.805
-0.72
-0.505
-0.285
-0.2
-0.1
0.005
-0.01
0.13
0.145
0.155
0.2
0.275
0.37
0.455
0.615
0.49
0.235
-0.14
-0.355
-0.6
-0.635
-0.485
-0.41
-0.32
-0.265
-0.27
-0.34
-0.505
-0.58
-0.64
-0.655
-0.525
-0.61
-0.5
-0.32
-0.42
-0.405
-0.68
-0.645
-0.64
-0.635
-0.61
-0.58
-0.58
-0.355
-0.345
-0.445
-0.57
-0.605
-0.67
-0.63
-0.545
-0.455
-0.53
-0.47
-0.445
-0.515
-0.465
-0.64
-0.78
-0.725
-0.66
-0.595
-0.405
-0.29
-0.36
-0.57
-0.515
-0.605
-0.69
-0.785
-0.635
-0.42
-0.36
-0.345
-0.48
-0.405
-0.465
-0.64
-0.59
-0.51
-0.62
-0.475
-0.415
-0.32
-0.345
-0.42
-0.485
-0.56
-0.59
-0.45
-0.39
-0.435
-0.37
-0.375
-0.295
-0.4
-0.5
-0.525
-0.595
-0.49
-0.47
-0.375
-0.25
-0.205
-0.245
-0.31
-0.365
-0.4
-0.415
-0.375
-0.325
-0.39
-0.23
-0.205
-0.25
-0.31
-0.345
-0.49
-0.32
-0.295
-0.24
-0.26
-0.13
-0.15
-0.13
-0.265
-0.195
-0.255
-0.365
-0.5
-0.23
-0.225
-0.255
-0.055
-0.115
-0.28
-0.32
-0.34
-0.445
-0.325
-0.31
-0.28
-0.27
-0.18
-0.245
-0.29
-0.42
-0.63
-0.675
-0.555
-0.335
-0.305
-0.275
-0.365
-0.375
-0.565
-0.525
-0.55
-0.63
-0.56
-0.425
-0.43
-0.3
-0.405
-0.435
-0.56
-0.5
-0.68
-0.64
-0.675
-0.64
-0.455
-0.24
-0.35
-0.37
-0.52
-0.36
-0.7
-0.66
-0.525
-0.48
-0.565
-0.41
-0.35
-0.505
-0.495
-0.495
-0.665
-0.67
-0.525
-0.575
-0.455
-0.36
-0.4
-0.455
-0.59
-0.55
-0.68
-0.625
-0.625
-0.535
-0.49
-0.36
-0.48
-0.435
-0.525
-0.55
-0.695
-0.62
-0.505
-0.49
-0.435
-0.385
-0.405
-0.48
-0.565
-0.505
-0.7
-0.635
-0.64
-0.555
-0.41
-0.325
-0.43
-0.4
-0.395
-0.485
-0.695
-0.645
-0.535
-0.625
-0.55
-0.36
-0.37
-0.475
-0.525
-0.6
-0.655
-0.605
-0.53
-0.475
-0.48
-0.345
-0.32
-0.415
-0.605
-0.65
-0.73
-0.625
-0.535
-0.425
-0.36
-0.335
-0.355
-0.47
-0.585
-0.575
-0.57
-0.58
-0.545
-0.405
-0.335
-0.26
-0.23
-0.415
-0.45
-0.625
-0.455
-0.47
-0.405
-0.33
-0.195
-0.24
-0.25
-0.34
-0.44
-0.565
-0.58
-0.435
-0.51
-0.44
-0.34
-0.26
-0.3
-0.405
-0.505
-0.68
-0.705
-0.59
-0.41
-0.53
-0.36
-0.37
-0.445
-0.49
-0.615
-0.735
-0.61
-0.56
-0.495
-0.445
-0.31
-0.305
-0.35
-0.51
-0.525
-0.63
-0.67
-0.625
-0.52
-0.465
-0.4
-0.36
-0.48
-0.56
-0.69
-0.765
-0.69
-0.51
-0.345
-0.17
0.115
0.22
0.3
0.255
0.33
0.21
0.2
0.33
0.45
0.59
0.5
0.46
0.165
-0.16
-0.35
-0.56
-0.535
-0.575
-0.43
-0.265
-0.145
-0.28
-0.305
-0.415
-0.55
-0.64
-0.61
-0.5
-0.435
-0.38
-0.33
-0.45
-0.435
-0.49
-0.53
-0.655
-0.645
-0.575
-0.525
-0.5
-0.28
-0.385
-0.44
-0.54
-0.545
-0.53
-0.54
-0.505
-0.485
-0.44
-0.37
-0.435
-0.595
-0.515
-0.465
-0.535
-0.72
-0.645
-0.465
-0.35
-0.335
-0.335
-0.37
-0.425
-0.575
-0.565
-0.6
-0.465
-0.425
-0.35
-0.335
-0.405
-0.395
-0.535
-0.685
-0.49
-0.575
-0.525
-0.43
-0.39
-0.315
-0.28
-0.39
-0.405
-0.51
-0.505
-0.52
-0.385
-0.315
-0.34
-0.345
-0.37
-0.24
-0.44
-0.405
-0.455
-0.455
-0.445
-0.275
-0.21
-0.185
-0.23
-0.335
-0.4
-0.455
-0.44
-0.33
-0.195
-0.13
-0.205
-0.15
-0.14
-0.255
-0.315
-0.385
-0.415
-0.255
-0.245
-0.17
-0.14
-0.04
-0.05
-0.165
-0.25
-0.475
-0.29
-0.305
-0.29
-0.19
-0.05
-0.135
-0.12
-0.24
-0.26
-0.395
-0.33
-0.41
-0.295
-0.335
-0.11
-0.095
-0.375
-0.405
-0.375
-0.545
-0.525
-0.385
-0.335
-0.375
-0.265
-0.375
-0.385
-0.47
-0.475
-0.55
-0.65
-0.555
-0.41
-0.405
-0.2
-0.38
-0.315
-0.445
-0.415
-0.475
-0.595
-0.56
-0.52
-0.44
-0.36
-0.38
-0.42
-0.64
-0.545
-0.65
-0.59
-0.475
-0.51
-0.35
-0.355
-0.28
-0.3
-0.43
-0.545
-0.645
-0.61
-0.51
-0.4
-0.445
-0.32
-0.43
-0.46
-0.415
-0.57
-0.565
-0.545
-0.505
-0.465
-0.43
-0.34
-0.46
-0.36
-0.455
-0.495
-0.715
-0.5
-0.45
-0.45
-0.355
-0.27
-0.34
-0.41
-0.45
-0.48
-0.575
-0.61
-0.545
-0.42
-0.365
-0.395
-0.42
-0.415
-0.47
-0.67
-0.535
-0.455
-0.48
-0.34
-0.25
-0.305
-0.365
-0.465
-0.56
-0.565
-0.675
-0.62
-0.515
-0.44
-0.42
-0.26
-0.355
-0.375
-0.45
-0.445
-0.575
-0.495
-0.535
-0.45
-0.295
-0.22
-0.41
-0.4
-0.42
-0.53
-0.48
-0.55
-0.395
-0.24
-0.16
-0.235
-0.3
-0.32
-0.3
-0.485
-0.455
-0.59
-0.42
-0.455
-0.29
-0.27
-0.395
-0.445
-0.47
-0.635
-0.605
-0.525
-0.44
-0.45
-0.295
-0.295
-0.405
-0.49
-0.565
-0.58
-0.625
-0.58
-0.565
-0.465
-0.325
-0.405
-0.365
-0.405
-0.455
-0.615
-0.58
-0.57
-0.49
-0.475
-0.44
-0.43
-0.475
-0.68
-0.635
-0.665
-0.635
-0.45
-0.305
-0.14
0.235
0.13
0.28
0.305
0.23
0.255
0.34
0.37
0.53
0.68
0.73
0.495
0.21
-0.225
-0.3
-0.495
-0.545
-0.375
-0.265
-0.28
-0.195
-0.24
-0.4
-0.425
-0.545
-0.605
-0.535
-0.515
-0.43
-0.375
-0.385
-0.365
-0.405
-0.52
-0.525
-0.53
-0.605
-0.55
-0.34
-0.515
-0.365
-0.36
-0.445
-0.62
-0.565
-0.555
-0.625
-0.55
-0.525
-0.365
-0.265
-0.415
-0.4
-0.445
-0.545
-0.565
-0.515
-0.455
-0.5
-0.37
-0.34
-0.43
-0.445
-0.465
-0.58
-0.63
-0.57
-0.53
-0.3
-0.27
-0.26
-0.425
-0.415
-0.425
-0.53
-0.56
-0.535
-0.405
-0.445
-0.255
-0.28
-0.31
-0.36
-0.41
-0.485
-0.49
-0.575
-0.445
-0.415
-0.33
-0.32
-0.275
-0.42
-0.445
-0.52
-0.51
-0.41
-0.31
-0.24
-0.195
-0.155
-0.205
-0.255
-0.34
-0.375
-0.35
-0.415
-0.24
-0.235
-0.11
-0.175
-0.175
-0.235
-0.24
-0.41
-0.325
-0.275
-0.11
-0.21
-0.075
-0.03
-0.215
-0.12
-0.16
-0.34
-0.28
-0.17
-0.205
-0.215
-0.05
-0.095
-0.155
-0.22
-0.23
-0.38
-0.46
-0.405
-0.255
-0.28
-0.145
-0.125
-0.265
-0.335
-0.465
-0.535
-0.46
-0.45
-0.31
-0.455
-0.255
-0.405
-0.255
-0.41
-0.36
-0.575
-0.495
-0.5
-0.41
-0.36
-0.27
-0.36
-0.425
-0.49
-0.44
-0.595
-0.525
-0.46
-0.485
-0.35
-0.275
-0.33
-0.33
-0.515
-0.57
-0.505
-0.575
-0.465
-0.48
-0.44
-0.355
-0.3
-0.47
-0.46
-0.395
-0.545
-0.555
-0.505
-0.455
-0.25
-0.3
-0.405
-0.305
-0.41
-0.54
-0.54
-0.515
-0.495
-0.385
-0.35
-0.43
-0.325
-0.35
-0.37
-0.48
-0.61
-0.54
-0.51
-0.31
-0.31
-0.315
-0.33
-0.38
-0.485
-0.5
-0.525
-0.51
-0.415
-0.36
-0.345
-0.34
-0.405
-0.335
-0.37
-0.55
-0.425
-0.515
-0.565
-0.38
-0.305
-0.285
-0.41
-0.41
-0.46
-0.49
-0.53
-0.485
-0.405
-0.335
-0.295
-0.31
-0.375
-0.395
-0.445
-0.55
-0.525
-0.46
-0.42
-0.355
-0.35
-0.315
-0.33
-0.34
-0.395
-0.385
-0.405
-0.505
-0.36
-0.205
-0.14
-0.09
-0.255
-0.27
-0.375
-0.425
-0.38
-0.46
-0.42
-0.345
-0.21
-0.24
-0.27
-0.315
-0.315
-0.495
-0.51
-0.56
-0.435
-0.52
-0.36
-0.265
-0.325
-0.38
-0.395
-0.6
-0.485
-0.445
-0.495
-0.405
-0.275
-0.23
-0.415
-0.46
-0.46
-0.665
-0.485
-0.52
-0.45
-0.435
-0.28
-0.385
-0.465
-0.515
-0.605
-0.66
-0.6
-0.57
-0.515
-0.365
-0.105
0.0
0.04
0.095
0.13
0.14
0.275
0.38
0.585
0.645
0.555
0.66
0.69
0.54
0.29
0.025
-0.26
-0.28
-0.245
-0.29
-0.105
-0.09
-0.215
-0.31
-0.45
-0.57
-0.51
-0.43
-0.425
-0.33
-0.255
-0.3
-0.4
-0.495
-0.48
-0.525
-0.535
-0.495
-0.43
-0.41
-0.355
-0.43
-0.35
-0.44
-0.59
-0.54
-0.52
-0.645
-0.405
-0.335
-0.445
-0.37
-0.425
-0.405
-0.505
-0.54
-0.51
-0.48
-0.42
-0.375
-0.47
-0.295
-0.32
-0.43
-0.54
-0.525
-0.475
-0.465
-0.44
-0.355
-0.325
-0.27
-0.395
-0.52
-0.53
-0.685
-0.455
-0.445
-0.355
-0.33
-0.155
-0.265
-0.36
-0.405
-0.51
-0.465
-0.52
-0.39
-0.34
-0.26
-0.225
-0.375
-0.385
-0.505
-0.39
-0.49
-0.535
-0.285
-0.295
-0.225
-0.285
-0.2
-0.24
-0.315
-0.39
-0.42
-0.375
-0.28
-0.18
-0.075
-0.12
-0.135
-0.295
-0.32
-0.465
-0.32
-0.24
-0.31
-0.185
-0.015
-0.09
0.01
-0.115
-0.165
-0.47
-0.295
-0.27
-0.2
-0.16
-0.03
0.035
-0.085
-0.135
-0.26
-0.265
-0.34
-0.315
-0.325
-0.37
-0.145
-0.11
-0.23
-0.275
-0.345
-0.45
-0.505
-0.32
-0.315
-0.285
-0.21
-0.27
-0.29
-0.445
-0.45
-0.525
-0.51
-0.405
-0.345
-0.415
-0.33
-0.26
-0.42
-0.435
-0.43
-0.57
-0.48
-0.475
-0.445
-0.285
-0.255
-0.335
-0.33
-0.385
-0.455
-0.55
-0.555
-0.615
-0.375
-0.33
-0.245
-0.305
-0.405
-0.44
-0.465
-0.54
-0.59
-0.505
-0.42
-0.345
-0.275
-0.37
-0.405
-0.46
-0.485
-0.44
-0.5
-0.51
-0.4
-0.44
-0.435
-0.26
-0.38
-0.53
-0.46
-0.46
-0.505
-0.47
-0.315
-0.345
-0.355
-0.375
-0.36
-0.415
-0.455
-0.61
-0.62
-0.51
-0.37
-0.355
-0.255
-0.43
-0.315
-0.44
-0.555
-0.53
-0.545
-0.52
-0.435
-0.325
-0.22
-0.28
-0.425
-0.39
-0.55
-0.695
-0.665
-0.495
-0.43
-0.27
-0.325
-0.265
-0.48
-0.5
-0.52
-0.505
-0.475
-0.525
-0.345
-0.3
-0.365
-0.305
-0.375
-0.455
-0.585
-0.715
-0.445
-0.315
-0.28
-0.245
-0.28
-0.215
-0.34
-0.425
-0.565
-0.415
-0.52
-0.43
-0.26
-0.22
-0.175
-0.275
-0.325
-0.335
-0.515
-0.43
-0.395
-0.335
-0.35
-0.305
-0.285
-0.345
-0.475
-0.42
-0.585
-0.52
-0.455
-0.49
-0.39
-0.33
-0.375
-0.5
-0.505
-0.48
-0.67
-0.455
-0.465
-0.44
-0.45
-0.31
-0.34
-0.38
-0.515
-0.5
-0.54
-0.5
-0.555
-0.495
-0.445
-0.34
-0.365
-0.54
-0.5
-0.565
-0.74
-0.7
-0.58
-0.32
-0.165
-0.015
0.095
0.065
0.21
0.23
0.335
0.355
0.33
0.445
0.62
0.705
0.72
0.54
0.225
-0.2
-0.35
-0.355
-0.415
-0.27
-0.245
-0.165
-0.245
-0.365
-0.44
-0.48
-0.69
-0.615
-0.475
-0.335
-0.315
-0.28
-0.32
-0.345
-0.43
-0.535
-0.615
-0.555
-0.705
-0.525
-0.375
-0.39
-0.445
-0.455
-0.515
-0.625
-0.66
-0.595
-0.51
-0.415
-0.46
-0.405
-0.385
-0.42
-0.46
-0.585
-0.615
-0.625
-0.525
-0.44
-0.415
-0.485
-0.305
-0.405
-0.455
-0.65
-0.555
-0.56
-0.525
-0.415
-0.325
-0.405
-0.345
-0.465
-0.485
-0.55
-0.545
-0.68
-0.395
-0.32
-0.305
-0.38
-0.275
-0.375
-0.505
-0.65
-0.58
-0.46
-0.43
-0.385
-0.185
-0.235
-0.38
-0.42
-0.55
-0.515
-0.525
-0.415
-0.345
-0.335
-0.275
-0.295
-0.265
-0.24
-0.4
-0.525
-0.455
-0.38
-0.29
-0.295
-0.175
-0.155
-0.23
-0.25
-0.28
-0.415
-0.315
-0.42
-0.29
-0.26
-0.085
-0.075
-0.13
-0.25
-0.24
-0.455
-0.36
-0.23
-0.265
-0.165
-0.075
-0.125
-0.155
-0.24
-0.345
-0.315
-0.38
-0.31
-0.31
-0.26
-0.125
-0.22
-0.265
-0.36
-0.495
-0.575
-0.475
-0.485
-0.455
-0.32
-0.255
-0.35
-0.355
-0.46
-0.475
-0.635
-0.575
-0.515
-0.44
-0.465
-0.325
-0.43
-0.37
-0.45
-0.54
-0.62
-0.56
-0.475
-0.365
-0.31
-0.305
-0.405
-0.4
-0.545
-0.565
-0.64
-0.565
-0.465
-0.385
-0.355
-0.375
-0.39
-0.395
-0.455
-0.61
-0.615
-0.56
-0.495
-0.465
-0.415
-0.4
-0.355
-0.42
-0.455
-0.585
-0.57
-0.545
-0.555
-0.455
-0.265
-0.4
-0.35
-0.525
-0.54
-0.66
-0.585
-0.58
-0.57
-0.5
-0.36
-0.295
-0.385
-0.545
-0.53
-0.565
-0.66
-0.585
-0.475
-0.45
-0.365
-0.275
-0.4
-0.5
-0.55
-0.61
-0.675
-0.56
-0.505
-0.375
-0.29
-0.325
-0.36
-0.5
-0.56
-0.655
-0.62
-0.6
-0.555
-0.54
-0.41
-0.345
-0.45
-0.43
-0.52
-0.545
-0.62
-0.505
-0.55
-0.405
-0.425
-0.38
-0.425
-0.46
-0.54
-0.555
-0.59
-0.595
-0.455
-0.485
-0.405
-0.24
-0.42
-0.52
-0.465
-0.62
-0.565
-0.575
-0.515
-0.445
-0.35
-0.335
-0.41
-0.59
-0.44
-0.545
-0.52
-0.405
-0.365
-0.41
-0.28
-0.275
-0.205
-0.32
-0.345
-0.54
-0.48
-0.5
-0.45
-0.44
-0.315
-0.31
-0.395
-0.445
-0.55
-0.635
-0.74
-0.565
-0.52
-0.52
-0.36
-0.33
-0.43
-0.515
-0.52
-0.655
-0.62
-0.65
-0.465
-0.475
-0.36
-0.315
-0.485
-0.56
-0.625
-0.6
-0.63
-0.475
-0.56
-0.45
-0.49
-0.505
-0.58
-0.655
-0.61
-0.67
-0.605
-0.585
-0.395
-0.38
-0.195
-0.075
0.095
0.055
0.01
0.16
0.225
0.34
0.385
0.505
0.585
0.715
0.42
0.3
-0.22
-0.365
-0.445
-0.425
-0.305
-0.285
-0.295
-0.21
-0.375
-0.395
-0.505
-0.615
-0.635
-0.52
-0.545
-0.415
-0.45
-0.435
-0.415
-0.58
-0.625
-0.62
-0.695
-0.66
-0.495
-0.475
-0.33
-0.36
-0.45
-0.49
-0.665
-0.64
-0.56
-0.555
-0.51
-0.43
-0.37
-0.535
-0.55
-0.61
-0.61
-0.53
-0.68
-0.605
-0.44
-0.36
-0.46
-0.415
-0.49
-0.515
-0.67
-0.555
-0.735
-0.525
-0.515
-0.405
-0.385
-0.405
-0.495
-0.46
-0.56
-0.625
-0.49
-0.455
-0.415
-0.33
-0.295
-0.32
-0.525
-0.545
-0.56
-0.675
-0.55
-0.45
-0.385
-0.435
-0.285
-0.33
-0.335
-0.515
-0.6
-0.525
-0.48
-0.405
-0.4
-0.255
-0.165
-0.265
-0.26
-0.395
-0.625
-0.49
-0.385
-0.31
-0.35
-0.22
-0.14
-0.305
-0.27
-0.245
-0.42
-0.39
-0.51
-0.22
-0.225
-0.085
-0.135
-0.075
-0.265
-0.3
-0.535
-0.285
-0.315
-0.28
-0.265
-0.22
-0.045
-0.185
-0.34
-0.375
-0.325
-0.345
-0.4
-0.315
-0.2
-0.18
-0.21
-0.38
-0.355
-0.3
-0.44
-0.41
-0.495
-0.33
-0.27
-0.32
-0.38
-0.45
-0.68
-0.595
-0.655
-0.59
-0.505
-0.435
-0.32
-0.21
-0.365
-0.5
-0.41
-0.53
-0.655
-0.595
-0.51
-0.57
-0.315
-0.31
-0.41
-0.415
-0.47
-0.635
-0.625
-0.595
-0.495
-0.595
-0.595
-0.42
-0.39
-0.41
-0.495
-0.61
-0.63
-0.575
-0.49
-0.48
-0.36
-0.36
-0.395
-0.45
-0.46
-0.65
-0.645
-0.665
-0.43
-0.43
-0.37
-0.395
-0.49
-0.4
-0.475
-0.68
-0.62
-0.56
-0.445
-0.485
-0.375
-0.35
-0.475
-0.47
-0.55
-0.62
-0.585
-0.48
-0.555
-0.535
-0.285
-0.44
-0.385
-0.565
-0.565
-0.72
-0.675
-0.535
-0.575
-0.485
-0.33
-0.4
-0.4
-0.505
-0.59
-0.69
-0.7
-0.605
-0.425
-0.405
-0.275
-0.45
-0.38
-0.455
-0.415
-0.71
-0.6
-0.575
-0.485
-0.36
-0.34
-0.265
-0.38
-0.445
-0.55
-0.66
-0.6
-0.585
-0.51
-0.475
-0.3
-0.44
-0.42
-0.5
-0.6
-0.635
-0.605
-0.58
-0.455
-0.415
-0.365
-0.41
-0.38
-0.535
-0.595
-0.66
-0.51
-0.6
-0.545
-0.36
-0.315
-0.395
-0.315
-0.455
-0.465
-0.49
-0.445
-0.43
-0.26
-0.265
-0.34
-0.29
-0.24
-0.34
-0.345
-0.505
-0.575
-0.565
-0.43
-0.45
-0.4
-0.4
-0.455
-0.535
-0.635
-0.6
-0.59
-0.51
-0.355
-0.41
-0.325
-0.395
-0.405
-0.575
-0.66
-0.655
-0.565
-0.595
-0.5
-0.465
-0.41
-0.425
-0.435
-0.535
-0.69
-0.645
-0.62
-0.585
-0.685
-0.425
-0.485
-0.515
-0.595
-0.64
-0.67
-0.52
-0.495
-0.165
0.05
0.21
0.32
0.38
0.285
0.21
0.23
0.265
0.345
0.54
0.46
0.52
0.28
-0.01
-0.26
-0.45
-0.44
-0.525
-0.4
-0.35
-0.32
-0.275
-0.27
-0.32
-0.52
-0.51
-0.655
-0.79
-0.675
-0.615
-0.475
-0.355
-0.405
-0.42
-0.575
-0.52
-0.65
-0.605
-0.625
-0.5
-0.46
-0.405
-0.43
-0.475
-0.61
-0.545
-0.66
-0.665
-0.595
-0.565
-0.53
-0.38
-0.375
-0.495
-0.47
-0.495
-0.615
-0.645
-0.65
-0.62
-0.385
-0.33
-0.37
-0.465
-0.515
-0.545
-0.595
-0.635
-0.655
-0.455
-0.45
-0.295
-0.3
-0.425
-0.58
-0.47
-0.555
-0.61
-0.5
-0.49
-0.57
-0.295
-0.315
-0.43
-0.375
-0.44
-0.635
-0.61
-0.49
-0.43
-0.4
-0.265
-0.25
-0.395
-0.435
-0.5
-0.51
-0.47
-0.435
-0.435
-0.27
-0.19
-0.11
-0.34
-0.38
-0.455
-0.5
-0.365
-0.3
-0.265
-0.225
-0.16
-0.145
-0.295
-0.315
-0.36
-0.36
-0.425
-0.25
-0.15
-0.16
-0.1
-0.085
-0.21
-0.265
-0.285
-0.33
-0.31
-0.17
-0.185
-0.13
-0.105
-0.13
-0.235
-0.25
-0.355
-0.42
-0.405
-0.375
-0.27
-0.215
-0.245
-0.31
-0.415
-0.425
-0.485
-0.535
-0.42
-0.395
-0.34
-0.315
-0.225
-0.345
-0.29
-0.38
-0.545
-0.64
-0.465
-0.49
-0.39
-0.355
-0.355
-0.365
-0.44
-0.54
-0.54
-0.485
-0.55
-0.59
-0.365
-0.385
-0.265
-0.34
-0.475
-0.52
-0.595
-0.535
-0.685
-0.51
-0.465
-0.415
-0.31
-0.375
-0.425
-0.475
-0.63
-0.62
-0.635
-0.415
-0.44
-0.335
-0.31
-0.455
-0.49
-0.53
-0.49
-0.64
-0.49
-0.325
-0.515
-0.325
-0.29
-0.435
-0.45
-0.41
-0.675
-0.68
-0.54
-0.355
-0.4
-0.38
-0.335
-0.38
-0.365
-0.58
-0.475
-0.585
-0.5
-0.46
-0.43
-0.27
-0.32
-0.37
-0.56
-0.525
-0.585
-0.59
-0.625
-0.51
-0.34
-0.3
-0.275
-0.34
-0.57
-0.56
-0.66
-0.565
-0.555
-0.42
-0.41
-0.385
-0.405
-0.36
-0.425
-0.49
-0.54
-0.505
-0.535
-0.525
-0.34
-0.335
-0.38
-0.39
-0.49
-0.515
-0.635
-0.57
-0.525
-0.4
-0.33
-0.235
-0.365
-0.425
-0.49
-0.53
-0.54
-0.58
-0.53
-0.46
-0.305
-0.235
-0.305
-0.375
-0.385
-0.535
-0.435
-0.65
-0.39
-0.3
-0.255
-0.275
-0.11
-0.28
-0.385
-0.43
-0.5
-0.575
-0.545
-0.43
-0.32
-0.29
-0.375
-0.38
-0.43
-0.455
-0.565
-0.65
-0.585
-0.4
-0.38
-0.35
-0.435
-0.43
-0.535
-0.62
-0.61
-0.53
-0.505
-0.505
-0.365
-0.41
-0.335
-0.44
-0.53
-0.575
-0.63
-0.675
-0.69
-0.6
-0.43
-0.455
-0.53
-0.57
-0.515
-0.53
-0.47
-0.16
-0.05
-0.045
0.275
0.385
0.34
0.33
0.25
0.225
0.245
0.385
0.44
0.34
0.25
-0.125
-0.35
-0.27
-0.395
-0.55
-0.665
-0.515
-0.395
-0.36
-0.17
-0.315
-0.325
-0.395
-0.465
-0.66
-0.615
-0.595
-0.465
-0.555
-0.4
-0.385
-0.47
-0.485
-0.6
-0.665
-0.565
-0.565
-0.505
-0.445
-0.45
-0.425
-0.46
-0.495
-0.565
-0.53
-0.56
-0.53
-0.45
-0.4
-0.34
-0.36
-0.425
-0.505
-0.595
-0.645
-0.58
-0.565
-0.495
-0.395
-0.285
-0.285
-0.405
-0.435
-0.505
-0.68
-0.605
-0.465
-0.515
-0.455
-0.375
-0.42
-0.41
-0.45
-0.52
-0.615
-0.565
-0.475
-0.29
-0.38
-0.295
-0.255
-0.36
-0.53
-0.535
-0.485
-0.59
-0.47
-0.37
-0.36
-0.22
-0.27
-0.275
-0.365
-0.495
-0.475
-0.41
-0.335
-0.345
-0.34
-0.145
-0.24
-0.195
-0.29
-0.4
-0.385
-0.37
-0.4
-0.33
-0.215
-0.05
-0.16
-0.165
-0.33
-0.325
-0.36
-0.37
-0.185
-0.225
-0.08
-0.02
-0.04
-0.255
-0.31
-0.375
-0.545
-0.185
-0.27
-0.32
-0.045
-0.035
-0.185
-0.23
-0.355
-0.42
-0.425
-0.38
-0.335
-0.285
-0.155
-0.37
-0.31
-0.365
-0.42
-0.56
-0.53
-0.52
-0.485
-0.325
-0.245
-0.32
-0.38
-0.465
-0.55
-0.66
-0.685
-0.505
-0.455
-0.46
-0.405
-0.435
-0.36
-0.435
-0.56
-0.635
-0.585
-0.455
-0.475
-0.43
-0.38
-0.33
-0.49
-0.495
-0.66
-0.635
-0.63
-0.475
-0.45
-0.615
-0.24
-0.41
-0.46
-0.625
-0.485
-0.625
-0.605
-0.575
-0.455
-0.39
-0.35
-0.345
-0.305
-0.505
-0.555
-0.605
-0.605
-0.55
-0.52
-0.47
-0.435
-0.395
-0.56
-0.545
-0.62
-0.57
-0.55
-0.545
-0.525
-0.34
-0.325
-0.335
-0.385
-0.5
-0.6
-0.595
-0.57
-0.485
-0.52
-0.425
-0.355
-0.39
-0.48
-0.535
-0.49
-0.67
-0.495
-0.495
-0.49
-0.47
-0.295
-0.47
-0.43
-0.405
-0.53
-0.625
-0.62
-0.52
-0.435
-0.45
-0.36
-0.41
-0.415
-0.45
-0.565
-0.53
-0.6
-0.595
-0.52
-0.345
-0.35
-0.4
-0.455
-0.52
-0.66
-0.685
-0.555
-0.515
-0.41
-0.345
-0.465
-0.35
-0.445
-0.495
-0.52
-0.535
-0.56
-0.37
-0.34
-0.225
-0.25
-0.225
-0.375
-0.45
-0.48
-0.51
-0.48
-0.44
-0.43
-0.32
-0.365
-0.335
-0.445
-0.47
-0.63
-0.655
-0.625
-0.515
-0.455
-0.44
-0.355
-0.44
-0.435
-0.445
-0.7
-0.71
-0.58
-0.56
-0.55
-0.41
-0.365
-0.415
-0.5
-0.585
-0.73
-0.605
-0.58
-0.46
-0.595
-0.565
-0.405
-0.53
-0.605
-0.65
-0.875
-0.7
-0.58
-0.465
-0.255
-0.06
0.05
0.06
0.22
0.235
0.155
0.17
0.245
0.34
0.42
0.54
0.595
0.33
0.11
-0.255
-0.515
-0.52
-0.4
-0.435
-0.31
-0.22
-0.35
-0.44
-0.515
-0.54
-0.73
-0.665
-0.545
-0.455
-0.555
-0.39
-0.39
-0.49
-0.52
-0.61
-0.73
-0.745
-0.65
-0.55
-0.445
-0.465
-0.405
-0.59
-0.535
-0.57
-0.75
-0.625
-0.59
-0.545
-0.56
-0.485
-0.49
-0.545
-0.63
-0.715
-0.76
-0.75
-0.565
-0.345
-0.47
-0.4
-0.48
-0.605
-0.655
-0.64
-0.66
-0.585
-0.525
-0.425
-0.43
-0.44
-0.465
-0.55
-0.525
-0.595
-0.645
-0.62
-0.545
-0.42
-0.36
-0.33
-0.53
-0.465
-0.515
-0.64
-0.6
-0.595
-0.69
-0.52
-0.395
-0.38
-0.41
-0.395
-0.475
-0.595
-0.605
-0.52
-0.455
-0.39
-0.235
-0.36
-0.305
-0.42
-0.395
-0.495
-0.495
-0.535
-0.385
-0.27
-0.26
-0.215
-0.27
-0.305
-0.28
-0.355
-0.36
-0.48
-0.395
-0.38
-0.205
-0.18
-0.175
-0.28
-0.32
-0.385
-0.33
-0.415
-0.415
-0.3
-0.27
-0.145
-0.15
-0.235
-0.305
-0.515
-0.505
-0.43
-0.48
-0.335
-0.155
-0.225
-0.265
-0.4
-0.505
-0.61
-0.535
-0.52
-0.565
-0.44
-0.29
-0.345
-0.45
-0.55
-0.59
-0.68
-0.57
-0.695
-0.46
-0.42
-0.33
-0.395
-0.5
-0.42
-0.485
-0.705
-0.73
-0.59
-0.43
-0.475
-0.43
-0.345
-0.475
-0.605
-0.6
-0.675
-0.71
-0.62
-0.48
-0.52
-0.465
-0.46
-0.485
-0.44
-0.475
-0.645
-0.65
-0.62
-0.545
-0.545
-0.38
-0.4
-0.455
-0.56
-0.59
-0.6
-0.7
-0.58
-0.53
-0.49
-0.39
-0.42
-0.445
-0.585
-0.625
-0.73
-0.61
-0.535
-0.595
-0.455
-0.4
-0.395
-0.475
-0.48
-0.605
-0.65
-0.645
-0.595
-0.495
-0.445
-0.43
-0.445
-0.53
-0.51
-0.605
-0.7
-0.6
-0.565
-0.48
-0.445
-0.455
-0.405
-0.47
-0.49
-0.66
-0.67
-0.565
-0.585
-0.455
-0.375
-0.3
-0.4
-0.47
-0.495
-0.695
-0.77
-0.64
-0.64
-0.53
-0.485
-0.495
-0.33
-0.52
-0.57
-0.525
-0.6
-0.61
-0.485
-0.445
-0.3
-0.325
-0.25
-0.485
-0.555
-0.515
-0.62
-0.485
-0.46
-0.44
-0.21
-0.26
-0.215
-0.375
-0.49
-0.47
-0.525
-0.56
-0.575
-0.525
-0.33
-0.395
-0.41
-0.48
-0.51
-0.675
-0.805
-0.49
-0.485
-0.46
-0.405
-0.395
-0.49
-0.575
-0.59
-0.645
-0.625
-0.63
-0.535
-0.55
-0.43
-0.385
-0.46
-0.565
-0.635
-0.72
-0.725
-0.63
-0.62
-0.545
-0.505
-0.39
-0.58
-0.66
-0.65
-0.785
-0.67
-0.45
-0.335
-0.2
0.125
0.095
0.215
0.355
0.35
0.28
0.345
0.29
0.47
0.565
0.625
0.415
0.12
-0.215
-0.38
-0.46
-0.51
-0.525
-0.285
-0.35
-0.25
-0.3
-0.36
-0.57
-0.56
-0.69
-0.605
-0.585
-0.495
-0.42
-0.405
-0.37
-0.58
-0.565
-0.605
-0.825
-0.615
-0.6
-0.585
-0.485
-0.35
-0.4
-0.44
-0.525
-0.57
-0.655
-0.64
-0.605
-0.45
-0.47
-0.365
-0.365
-0.46
-0.615
-0.65
-0.68
-0.59
-0.49
-0.43
-0.375
-0.39
-0.445
-0.595
-0.55
-0.595
-0.685
-0.63
-0.525
-0.395
-0.37
-0.355
-0.36
-0.375
-0.47
-0.7
-0.68
-0.585
-0.495
-0.455
-0.29
-0.365
-0.45
-0.505
-0.46
-0.63
-0.615
-0.525
-0.41
-0.385
-0.185
-0.235
-0.3
-0.3
-0.47
-0.545
-0.495
-0.45
-0.48
-0.4
-0.23
-0.16
-0.255
-0.335
-0.37
-0.54
-0.45
-0.405
-0.26
-0.245
-0.07
-0.13
-0.195
-0.32
-0.3
-0.445
-0.36
-0.28
-0.3
-0.325
-0.195
-0.08
-0.15
-0.185
-0.265
-0.38
-0.34
-0.245
-0.22
-0.215
-0.115
-0.11
-0.145
-0.275
-0.275
-0.38
-0.475
-0.33
-0.265
-0.335
-0.3
-0.26
-0.195
-0.335
-0.475
-0.465
-0.555
-0.455
-0.35
-0.44
-0.245
-0.3
-0.335
-0.505
-0.48
-0.55
-0.585
-0.485
-0.47
-0.46
-0.245
-0.37
-0.415
-0.495
-0.55
-0.675
-0.53
-0.515
-0.47
-0.435
-0.235
-0.345
-0.345
-0.405
-0.49
-0.63
-0.615
-0.495
-0.42
-0.38
-0.415
-0.41
-0.48
-0.48
-0.445
-0.45
-0.595
-0.58
-0.51
-0.515
-0.305
-0.35
-0.415
-0.545
-0.575
-0.525
-0.55
-0.615
-0.495
-0.305
-0.325
-0.385
-0.395
-0.42
-0.47
-0.57
-0.56
-0.59
-0.415
-0.4
-0.37
-0.285
-0.43
-0.515
-0.53
-0.525
-0.565
-0.515
-0.43
-0.445
-0.315
-0.37
-0.4
-0.495
-0.51
-0.58
-0.545
-0.415
-0.385
-0.32
-0.31
-0.375
-0.475
-0.455
-0.63
-0.68
-0.66
-0.53
-0.395
-0.36
-0.39
-0.32
-0.395
-0.485
-0.555
-0.55
-0.555
-0.495
-0.375
-0.22
-0.485
-0.26
-0.395
-0.515
-0.58
-0.525
-0.515
-0.49
-0.37
-0.335
-0.3
-0.29
-0.43
-0.33
-0.485
-0.5
-0.425
-0.385
-0.31
-0.12
-0.17
-0.235
-0.39
-0.34
-0.52
-0.49
-0.405
-0.43
-0.455
-0.235
-0.27
-0.375
-0.465
-0.495
-0.63
-0.585
-0.475
-0.405
-0.535
-0.365
-0.335
-0.515
-0.485
-0.475
-0.585
-0.555
-0.62
-0.475
-0.45
-0.325
-0.32
-0.435
-0.44
-0.585
-0.65
-0.605
-0.595
-0.5
-0.56
-0.41
-0.395
-0.555
-0.575
-0.57
-0.685
-0.57
-0.435
-0.305
-0.13
0.195
0.24
0.29
0.405
0.245
0.27
0.22
0.395
0.495
0.59
0.675
0.51
0.23
-0.105
-0.325
-0.44
-0.425
-0.395
-0.365
-0.265
-0.225
-0.185
-0.46
-0.44
-0.49
-0.62
-0.575
-0.585
-0.495
-0.405
-0.32
-0.445
-0.47
-0.475
-0.66
-0.745
-0.57
-0.52
-0.44
-0.4
-0.32
-0.435
-0.43
-0.515
-0.58
-0.57
-0.605
-0.51
-0.495
-0.415
-0.36
-0.485
-0.465
-0.53
-0.585
-0.63
-0.61
-0.565
-0.455
-0.505
-0.335
-0.38
-0.46
-0.54
-0.625
-0.675
-0.49
-0.55
-0.45
-0.265
-0.285
-0.36
-0.49
-0.605
-0.6
-0.6
-0.515
-0.5
-0.39
-0.31
-0.35
-0.36
-0.4
-0.43
-0.5
-0.68
-0.625
-0.37
-0.34
-0.175
-0.245
-0.29
-0.395
-0.395
-0.58
-0.58
-0.47
-0.39
-0.32
-0.31
-0.285
-0.305
-0.35
-0.375
-0.49
-0.44
-0.24
-0.225
-0.26
-0.12
-0.235
-0.28
-0.24
-0.33
-0.43
-0.41
-0.375
-0.245
-0.2
-0.155
-0.115
-0.175
-0.24
-0.205
-0.415
-0.335
-0.31
-0.18
-0.235
-0.145
-0.11
-0.245
-0.19
-0.195
-0.48
-0.545
-0.3
-0.325
-0.315
-0.175
-0.295
-0.305
-0.39
-0.41
-0.505
-0.42
-0.425
-0.32
-0.22
-0.285
-0.34
-0.365
-0.555
-0.575
-0.635
-0.585
-0.475
-0.5
-0.495
-0.31
-0.3
-0.365
-0.505
-0.5
-0.605
-0.585
-0.58
-0.47
-0.46
-0.385
-0.345
-0.38
-0.465
-0.565
-0.7
-0.63
-0.605
-0.47
-0.37
-0.255
-0.42
-0.425
-0.52
-0.565
-0.49
-0.46
-0.525
-0.45
-0.45
-0.38
-0.405
-0.405
-0.495
-0.61
-0.605
-0.675
-0.535
-0.465
-0.365
-0.205
-0.385
-0.43
-0.495
-0.575
-0.61
-0.615
-0.48
-0.465
-0.46
-0.405
-0.355
-0.39
-0.55
-0.51
-0.63
-0.525
-0.63
-0.5
-0.41
-0.45
-0.355
-0.405
-0.5
-0.525
-0.66
-0.625
-0.485
-0.475
-0.415
-0.33
-0.44
-0.435
-0.505
-0.7
-0.595
-0.575
-0.495
-0.33
-0.37
-0.305
-0.375
-0.46
-0.535
-0.67
-0.635
-0.62
-0.57
-0.43
-0.34
-0.34
-0.375
-0.435
-0.45
-0.56
-0.66
-0.615
-0.415
-0.445
-0.375
-0.315
-0.305
-0.4
-0.48
-0.565
-0.49
-0.515
-0.415
-0.415
-0.215
-0.115
-0.265
-0.4
-0.41
-0.49
-0.49
-0.505
-0.435
-0.345
-0.27
-0.26
-0.455
-0.61
-0.705
-0.715
-0.7
-0.575
-0.595
-0.415
-0.295
-0.305
-0.605
-0.585
-0.67
-0.61
-0.625
-0.505
-0.45
-0.43
-0.395
-0.4
-0.485
-0.555
-0.645
-0.725
-0.75
-0.64
-0.63
-0.595
-0.525
-0.49
-0.505
-0.6
-0.565
-0.71
-0.56
-0.315
-0.18
0.135
0.245
0.365
0.325
0.265
0.45
0.29
0.18
0.4
0.495
0.53
0.36
0.09
-0.215
-0.42
-0.46
-0.5
-0.505
-0.44
-0.41
-0.45
-0.235
-0.32
-0.34
-0.52
-0.68
-0.66
-0.675
-0.575
-0.545
-0.41
-0.375
-0.495
-0.535
-0.59
-0.665
-0.715
-0.725
-0.5
-0.5
-0.49
-0.31
-0.355
-0.5
-0.54
-0.545
-0.625
-0.655
-0.645
-0.465
-0.435
-0.46
-0.47
-0.565
-0.575
-0.69
-0.71
-0.64
-0.56
-0.525
-0.465
-0.44
-0.465
-0.5
-0.625
-0.69
-0.635
-0.625
-0.615
-0.48
-0.425
-0.41
-0.32
-0.52
-0.59
-0.755
-0.655
-0.55
-0.59
-0.575
-0.23
-0.36
-0.41
-0.45
-0.465
-0.555
-0.54
-0.485
-0.43
-0.54
-0.29
-0.395
-0.46
-0.425
-0.465
-0.57
-0.51
-0.485
-0.43
-0.345
-0.3
-0.28
-0.34
-0.38
-0.46
-0.49
-0.395
-0.445
-0.375
-0.365
-0.23
-0.195
-0.29
-0.24
-0.36
-0.54
-0.455
-0.485
-0.465
-0.23
-0.105
-0.145
-0.27
-0.38
-0.31
-0.425
-0.525
-0.325
-0.395
-0.32
-0.21
-0.24
-0.325
-0.38
-0.355
-0.68
-0.51
-0.56
-0.41
-0.34
-0.23
-0.33
-0.415
-0.535
-0.515
-0.675
-0.66
-0.585
-0.505
-0.55
-0.47
-0.485
-0.45
-0.615
-0.61
-0.77
-0.66
-0.625
-0.655
-0.55
-0.48
-0.47
-0.51
-0.49
-0.645
-0.67
-0.7
-0.7
-0.52
-0.555
-0.48
-0.495
-0.53
-0.67
-0.7
-0.715
-0.675
-0.625
-0.565
-0.47
-0.495
-0.545
-0.56
-0.695
-0.65
-0.71
-0.72
-0.74
-0.625
-0.505
-0.52
-0.515
-0.525
-0.66
-0.78
-0.755
-0.715
-0.63
-0.535
-0.42
-0.39
-0.56
-0.595
-0.665
-0.79
-0.66
-0.75
-0.595
-0.605
-0.41
-0.425
-0.48
-0.595
-0.66
-0.765
-0.675
-0.7
-0.595
-0.475
-0.47
-0.39
-0.495
-0.5
-0.7
-0.81
-0.765
-0.735
-0.63
-0.54
-0.415
-0.515
-0.465
-0.66
-0.525
-0.61
-0.795
-0.69
-0.62
-0.555
-0.47
-0.58
-0.49
-0.515
-0.625
-0.85
-0.735
-0.66
-0.625
-0.485
-0.47
-0.5
-0.475
-0.525
-0.585
-0.715
-0.75
-0.675
-0.595
-0.495
-0.215
-0.33
-0.505
-0.475
-0.5
-0.62
-0.555
-0.515
-0.445
-0.435
-0.4
-0.43
-0.585
-0.52
-0.555
-0.635
-0.64
-0.64
-0.49
-0.57
-0.43
-0.53
-0.55
-0.615
-0.745
-0.685
-0.755
-0.65
-0.625
-0.505
-0.475
-0.61
-0.595
-0.475
-0.555
-0.68
-0.76
-0.655
-0.645
-0.565
-0.565
-0.495
-0.585
-0.625
-0.715
-0.81
-0.75
-0.75
-0.7
-0.595
-0.52
-0.58
-0.535
-0.565
-0.415
-0.385
-0.27
-0.08
0.055
0.27
0.3
0.385
0.245
0.2
0.3
0.155
0.195
0.065
-0.13
-0.285
-0.295
-0.43
-0.5
-0.485
-0.555
-0.69
-0.555
-0.545
-0.45
-0.445
-0.52
-0.39
-0.53
-0.64
-0.695
-0.685
-0.645
-0.74
-0.695
-0.555
-0.485
-0.465
-0.51
-0.63
-0.735
-0.73
-0.67
-0.625
-0.51
-0.53
-0.455
-0.495
-0.65
-0.685
-0.855
-0.755
-0.65
-0.625
-0.55
-0.575
-0.425
-0.485
-0.64
-0.645
-0.525
-0.7
-0.635
-0.58
-0.595
-0.345
-0.525
-0.52
-0.625
-0.61
-0.66
-0.65
-0.59
-0.505
-0.51
-0.42
-0.41
-0.47
-0.565
-0.555
-0.705
-0.75
-0.66
-0.53
-0.455
-0.42
-0.405
-0.36
-0.37
-0.62
-0.705
-0.62
-0.635
-0.355
-0.405
-0.325
-0.385
-0.37
-0.415
-0.505
-0.605
-0.555
-0.52
-0.4
-0.415
-0.175
-0.19
-0.44
-0.425
-0.455
-0.415
-0.51
-0.455
-0.335
-0.31
-0.18
-0.245
-0.345
-0.3
-0.325
-0.47
-0.495
-0.35
-0.32
-0.315
-0.21
-0.21
-0.2
-0.335
-0.275
-0.415
-0.605
-0.365
-0.345
-0.215
-0.155
-0.215
-0.32
-0.475
-0.495
-0.52
-0.52
-0.435
-0.36
-0.315
-0.415
-0.42
-0.53
-0.505
-0.61
-0.68
-0.71
-0.59
-0.5
-0.52
-0.32
-0.45
-0.5
-0.6
-0.6
-0.695
-0.66
-0.605
-0.55
-0.435
-0.5
-0.445
-0.48
-0.555
-0.69
-0.665
-0.585
-0.62
-0.56
-0.485
-0.405
-0.49
-0.475
-0.745
-0.655
-0.69
-0.64
-0.59
-0.445
-0.485
-0.41
-0.425
-0.57
-0.615
-0.7
-0.7
-0.685
-0.635
-0.56
-0.52
-0.485
-0.49
-0.505
-0.555
-0.56
-0.545
-0.605
-0.6
-0.425
-0.41
-0.465
-0.51
-0.555
-0.635
-0.745
-0.645
-0.635
-0.56
-0.53
-0.415
-0.345
-0.365
-0.555
-0.61
-0.565
-0.725
-0.78
-0.51
-0.485
-0.44
-0.4
-0.48
-0.48
-0.585
-0.635
-0.6
-0.57
-0.685
-0.63
-0.615
-0.39
-0.49
-0.55
-0.53
-0.66
-0.69
-0.695
-0.54
-0.42
-0.385
-0.405
-0.395
-0.445
-0.54
-0.655
-0.64
-0.64
-0.535
-0.45
-0.4
-0.44
-0.53
-0.555
-0.62
-0.665
-0.565
-0.495
-0.395
-0.38
-0.255
-0.35
-0.29
-0.41
-0.56
-0.61
-0.535
-0.5
-0.475
-0.36
-0.335
-0.335
-0.365
-0.415
-0.545
-0.735
-0.71
-0.775
-0.645
-0.53
-0.35
-0.4
-0.42
-0.55
-0.655
-0.63
-0.695
-0.585
-0.45
-0.49
-0.38
-0.48
-0.67
-0.62
-0.65
-0.68
-0.655
-0.555
-0.555
-0.56
-0.455
-0.4
-0.545
-0.595
-0.705
-0.74
-0.735
-0.72
-0.565
-0.35
-0.185
-0.045
-0.01
0.045
0.025
0.11
0.21
0.225
0.425
0.46
0.695
0.69
0.475
0.22
-0.175
-0.42
-0.43
-0.44
-0.39
-0.3
-0.305
-0.325
-0.355
-0.5
-0.495
-0.66
-0.665
-0.495
-0.52
-0.42
-0.42
-0.44
-0.66
-0.62
-0.715
-0.6
-0.58
-0.58
-0.54
-0.5
-0.495
-0.39
-0.6
-0.5
-0.62
-0.675
-0.67
-0.58
-0.56
-0.41
-0.36
-0.41
-0.425
-0.52
-0.665
-0.71
-0.61
-0.555
-0.495
-0.46
-0.37
-0.385
-0.485
-0.56
-0.68
-0.695
-0.71
-0.525
-0.485
-0.37
-0.36
-0.43
-0.5
-0.525
-0.68
-0.695
-0.55
-0.57
-0.51
-0.45
-0.325
-0.345
-0.48
-0.5
-0.59
-0.645
-0.51
-0.525
-0.435
-0.29
-0.405
-0.415
-0.57
-0.45
-0.42
-0.505
-0.49
-0.34
-0.3
-0.22
-0.28
-0.32
-0.35
-0.47
-0.535
-0.475
-0.405
-0.345
-0.28
-0.255
-0.245
-0.25
-0.355
-0.425
-0.41
-0.43
-0.38
-0.3
-0.285
-0.175
-0.225
-0.155
-0.31
-0.305
-0.34
-0.34
-0.375
-0.285
-0.17
-0.135
-0.25
-0.21
-0.25
-0.35
-0.395
-0.42
-0.435
-0.325
-0.34
-0.21
-0.225
-0.37
-0.27
-0.44
-0.51
-0.53
-0.505
-0.44
-0.295
-0.3
-0.34
-0.435
-0.6
-0.575
-0.56
-0.515
-0.56
-0.415
-0.42
-0.38
-0.375
-0.515
-0.5
-0.68
-0.66
-0.58
-0.545
-0.445
-0.38
-0.35
-0.5
-0.375
-0.45
-0.545
-0.65
-0.545
-0.485
-0.45
-0.415
-0.355
-0.425
-0.475
-0.56
-0.655
-0.63
-0.545
-0.455
-0.47
-0.36
-0.345
-0.385
-0.445
-0.5
-0.655
-0.685
-0.65
-0.485
-0.445
-0.425
-0.32
-0.41
-0.47
-0.535
-0.665
-0.555
-0.6
-0.515
-0.44
-0.345
-0.325
-0.435
-0.495
-0.47
-0.565
-0.65
-0.59
-0.47
-0.525
-0.36
-0.28
-0.38
-0.46
-0.51
-0.625
-0.56
-0.615
-0.35
-0.44
-0.33
-0.37
-0.49
-0.59
-0.495
-0.61
-0.64
-0.635
-0.535
-0.315
-0.455
-0.32
-0.31
-0.41
-0.575
-0.595
-0.6
-0.555
-0.46
-0.375
-0.345
-0.36
-0.39
-0.505
-0.495
-0.51
-0.565
-0.36
-0.485
-0.44
-0.275
-0.305
-0.305
-0.42
-0.39
-0.505
-0.43
-0.425
-0.32
-0.32
-0.235
-0.215
-0.265
-0.35
-0.45
-0.495
-0.6
-0.445
-0.495
-0.305
-0.265
-0.295
-0.405
-0.485
-0.535
-0.555
-0.515
-0.56
-0.465
-0.405
-0.33
-0.285
-0.425
-0.475
-0.52
-0.57
-0.605
-0.46
-0.335
-0.31
-0.185
-0.355
-0.48
-0.475
-0.575
-0.66
-0.62
-0.655
-0.62
-0.5
-0.345
-0.385
-0.505
-0.58
-0.58
-0.575
-0.325
-0.14
0.115
0.155
0.39
0.53
0.475
0.39
0.425
0.355
0.58
0.57
0.62
0.585
0.25
-0.01
-0.325
-0.205
-0.41
-0.45
-0.425
-0.28
-0.235
-0.215
-0.235
-0.225
-0.375
-0.4
-0.595
-0.57
-0.535
-0.455
-0.58
-0.345
-0.3
-0.24
-0.45
-0.45
-0.575
-0.635
-0.595
-0.53
-0.585
-0.31
-0.465
-0.35
-0.465
-0.485
-0.46
-0.54
-0.545
-0.43
-0.415
-0.305
-0.32
-0.355
-0.47
-0.455
-0.625
-0.675
-0.635
-0.5
-0.335
-0.205
-0.18
-0.32
-0.335
-0.4
-0.61
-0.605
-0.46
-0.36
-0.405
-0.325
-0.215
-0.345
-0.335
-0.505
-0.58
-0.47
-0.51
-0.385
-0.34
-0.205
-0.155
-0.19
-0.345
-0.4
-0.625
-0.52
-0.38
-0.34
-0.26
-0.075
-0.1
-0.06
-0.305
-0.55
-0.62
-0.435
-0.405
-0.28
-0.205
-0.14
-0.185
-0.19
-0.275
-0.255
-0.37
-0.37
-0.33
-0.405
-0.19
-0.075
-0.03
-0.18
-0.13
-0.255
-0.27
-0.23
-0.165
-0.32
-0.205
-0.08
-0.075
-0.145
-0.255
-0.135
-0.25
-0.285
-0.205
-0.18
-0.145
-0.14
-0.055
-0.245
-0.175
-0.19
-0.45
-0.33
-0.405
-0.355
-0.24
-0.215
-0.305
-0.42
-0.375
-0.505
-0.56
-0.49
-0.4
-0.35
-0.215
-0.185
-0.31
-0.455
-0.43
-0.585
-0.585
-0.435
-0.395
-0.365
-0.37
-0.33
-0.24
-0.45
-0.495
-0.6
-0.635
-0.6
-0.485
-0.36
-0.28
-0.335
-0.335
-0.33
-0.49
-0.53
-0.625
-0.62
-0.555
-0.455
-0.23
-0.14
-0.235
-0.405
-0.505
-0.67
-0.545
-0.61
-0.475
-0.405
-0.255
-0.265
-0.355
-0.49
-0.545
-0.655
-0.565
-0.505
-0.41
-0.385
-0.23
-0.385
-0.45
-0.57
-0.545
-0.635
-0.58
-0.475
-0.445
-0.42
-0.37
-0.32
-0.455
-0.4
-0.455
-0.575
-0.555
-0.54
-0.465
-0.435
-0.285
-0.33
-0.33
-0.465
-0.615
-0.61
-0.555
-0.585
-0.49
-0.325
-0.18
-0.31
-0.345
-0.52
-0.505
-0.52
-0.49
-0.605
-0.525
-0.425
-0.36
-0.31
-0.43
-0.515
-0.48
-0.685
-0.595
-0.73
-0.43
-0.375
-0.33
-0.25
-0.32
-0.52
-0.515
-0.71
-0.595
-0.55
-0.57
-0.44
-0.315
-0.275
-0.28
-0.375
-0.395
-0.65
-0.62
-0.45
-0.385
-0.3
-0.27
-0.26
-0.26
-0.35
-0.405
-0.52
-0.385
-0.345
-0.25
-0.22
-0.275
-0.22
-0.455
-0.58
-0.675
-0.64
-0.525
-0.585
-0.4
-0.2
-0.29
-0.48
-0.56
-0.665
-0.705
-0.6
-0.56
-0.47
-0.495
-0.43
-0.38
-0.405
-0.38
-0.445
-0.695
-0.58
-0.635
-0.565
-0.38
-0.41
-0.44
-0.395
-0.525
-0.63
-0.73
-0.665
-0.695
-0.69
-0.475
-0.41
-0.205
-0.175
-0.16
-0.005
-0.05
-0.025
0.17
0.335
0.38
0.56
0.54
0.58
0.535
0.385
0.145
-0.035
-0.315
-0.485
-0.48
-0.31
-0.405
-0.455
-0.33
-0.265
-0.485
-0.48
-0.48
-0.405
-0.47
-0.37
-0.33
-0.375
-0.45
-0.54
-0.67
-0.575
-0.6
-0.585
-0.42
-0.39
-0.39
-0.385
-0.46
-0.58
-0.665
-0.625
-0.61
-0.56
-0.59
-0.39
-0.335
-0.535
-0.545
-0.48
-0.64
-0.53
-0.53
-0.535
-0.48
-0.325
-0.435
-0.365
-0.44
-0.555
-0.675
-0.645
-0.52
-0.43
-0.565
-0.375
-0.35
-0.38
-0.525
-0.57
-0.68
-0.545
-0.535
-0.405
-0.395
-0.26
-0.385
-0.35
-0.48
-0.49
-0.59
-0.6
-0.58
-0.365
-0.495
-0.25
-0.305
-0.365
-0.41
-0.495
-0.535
-0.56
-0.44
-0.435
-0.315
-0.21
-0.215
-0.325
-0.445
-0.245
-0.35
-0.43
-0.355
-0.345
-0.325
-0.12
-0.02
-0.18
-0.215
-0.29
-0.47
-0.345
-0.295
-0.27
-0.175
-0.09
-0.18
-0.21
-0.28
-0.33
-0.38
-0.385
-0.31
-0.155
-0.085
-0.095
-0.18
-0.175
-0.315
-0.34
-0.4
-0.37
-0.295
-0.195
-0.195
-0.125
-0.215
-0.365
-0.35
-0.41
-0.405
-0.455
-0.36
-0.375
-0.325
-0.265
-0.29
-0.27
-0.47
-0.59
-0.59
-0.575
-0.475
-0.475
-0.36
-0.275
-0.345
-0.455
-0.415
-0.47
-0.565
-0.535
-0.44
-0.405
-0.335
-0.35
-0.425
-0.47
-0.585
-0.6
-0.61
-0.545
-0.485
-0.435
-0.35
-0.32
-0.38
-0.46
-0.48
-0.64
-0.6
-0.58
-0.44
-0.36
-0.345
-0.28
-0.465
-0.54
-0.465
-0.675
-0.56
-0.495
-0.485
-0.465
-0.385
-0.335
-0.37
-0.5
-0.42
-0.575
-0.71
-0.65
-0.585
-0.395
-0.36
-0.36
-0.35
-0.55
-0.505
-0.685
-0.62
-0.545
-0.5
-0.525
-0.34
-0.195
-0.33
-0.445
-0.475
-0.59
-0.495
-0.515
-0.515
-0.52
-0.36
-0.37
-0.4
-0.475
-0.44
-0.63
-0.585
-0.54
-0.51
-0.505
-0.34
-0.385
-0.4
-0.565
-0.59
-0.63
-0.625
-0.495
-0.5
-0.435
-0.265
-0.395
-0.47
-0.435
-0.595
-0.625
-0.505
-0.485
-0.495
-0.415
-0.32
-0.33
-0.525
-0.58
-0.49
-0.67
-0.535
-0.525
-0.51
-0.415
-0.285
-0.4
-0.475
-0.515
-0.655
-0.525
-0.585
-0.545
-0.365
-0.345
-0.25
-0.215
-0.295
-0.36
-0.47
-0.52
-0.425
-0.45
-0.355
-0.29
-0.295
-0.195
-0.245
-0.515
-0.58
-0.535
-0.59
-0.375
-0.445
-0.35
-0.35
-0.455
-0.45
-0.52
-0.585
-0.69
-0.63
-0.53
-0.48
-0.405
-0.435
-0.415
-0.425
-0.565
-0.585
-0.585
-0.545
-0.505
-0.465
-0.4
-0.375
-0.4
-0.52
-0.555
-0.66
-0.66
-0.7
-0.615
-0.54
-0.435
-0.515
-0.535
-0.51
-0.405
-0.47
-0.345
-0.165
-0.105
0.335
0.475
0.495
0.67
0.52
0.315
0.23
0.39
0.345
0.215
0.145
-0.03
-0.19
-0.275
-0.295
-0.36
-0.42
-0.5
-0.43
-0.43
-0.485
-0.38
-0.34
-0.395
-0.54
-0.475
-0.84
-0.505
-0.62
-0.47
-0.485
-0.3
-0.37
-0.455
-0.49
-0.56
-0.64
-0.62
-0.575
-0.525
-0.52
-0.49
-0.375
-0.43
-0.57
-0.615
-0.575
-0.685
-0.58
-0.47
-0.37
-0.245
-0.37
-0.525
-0.57
-0.545
-0.725
-0.65
-0.61
-0.445
-0.495
-0.355
-0.485
-0.47
-0.45
-0.51
-0.625
-0.6
-0.515
-0.475
-0.4
-0.3
-0.205
-0.315
-0.54
-0.6
-0.64
-0.575
-0.535
-0.54
-0.38
-0.36
-0.295
-0.47
-0.47
-0.535
-0.555
-0.495
-0.37
-0.455
-0.2
-0.195
-0.28
-0.355
-0.475
-0.515
-0.485
-0.415
-0.335
-0.41
-0.27
-0.165
-0.3
-0.335
-0.425
-0.42
-0.405
-0.39
-0.495
-0.265
-0.075
-0.105
-0.2
-0.205
-0.235
-0.3
-0.345
-0.455
-0.305
-0.23
-0.1
-0.115
-0.15
-0.14
-0.295
-0.44
-0.345
-0.325
-0.295
-0.195
-0.105
-0.07
-0.195
-0.16
-0.29
-0.515
-0.495
-0.54
-0.445
-0.4
-0.195
-0.275
-0.305
-0.485
-0.365
-0.455
-0.565
-0.47
-0.48
-0.34
-0.295
-0.305
-0.33
-0.525
-0.6
-0.715
-0.555
-0.66
-0.49
-0.4
-0.35
-0.37
-0.37
-0.435
-0.425
-0.61
-0.61
-0.51
-0.475
-0.56
-0.3
-0.375
-0.505
-0.495
-0.455
-0.62
-0.63
-0.545
-0.52
-0.49
-0.46
-0.35
-0.375
-0.395
-0.49
-0.615
-0.71
-0.615
-0.49
-0.41
-0.37
-0.395
-0.405
-0.43
-0.515
-0.59
-0.5
-0.605
-0.515
-0.465
-0.36
-0.38
-0.425
-0.42
-0.625
-0.69
-0.575
-0.58
-0.475
-0.455
-0.335
-0.345
-0.475
-0.505
-0.575
-0.655
-0.64
-0.55
-0.44
-0.39
-0.35
-0.38
-0.5
-0.61
-0.555
-0.575
-0.7
-0.43
-0.48
-0.405
-0.28
-0.32
-0.465
-0.605
-0.65
-0.68
-0.595
-0.61
-0.43
-0.42
-0.37
-0.185
-0.36
-0.5
-0.65
-0.705
-0.665
-0.65
-0.405
-0.34
-0.34
-0.415
-0.45
-0.575
-0.69
-0.59
-0.68
-0.575
-0.485
-0.425
-0.38
-0.37
-0.445
-0.5
-0.565
-0.66
-0.665
-0.53
-0.4
-0.325
-0.34
-0.385
-0.41
-0.48
-0.64
-0.58
-0.605
-0.57
-0.435
-0.285
-0.26
-0.22
-0.165
-0.37
-0.515
-0.605
-0.47
-0.36
-0.42
-0.38
-0.285
-0.36
-0.51
-0.49
-0.685
-0.635
-0.57
-0.535
-0.465
-0.41
-0.415
-0.35
-0.62
-0.57
-0.655
-0.665
-0.62
-0.57
-0.47
-0.325
-0.35
-0.385
-0.465
-0.525
-0.7
-0.65
-0.605
-0.5
-0.52
-0.42
-0.515
-0.645
-0.645
-0.695
-0.885
-0.605
-0.66
-0.59
-0.385
-0.14
0.005
0.125
0.095
0.1
0.15
0.195
0.2
0.195
0.42
0.59
0.635
0.5
0.22
-0.05
-0.45
-0.445
-0.445
-0.305
-0.375
-0.22
-0.3
-0.38
-0.53
-0.505
-0.62
-0.57
-0.47
-0.455
-0.39
-0.3
-0.39
-0.45
-0.49
-0.605
-0.725
-0.72
-0.62
-0.535
-0.61
-0.37
-0.38
-0.425
-0.535
-0.68
-0.68
-0.695
-0.505
-0.495
-0.42
-0.405
-0.365
-0.405
-0.47
-0.625
-0.655
-0.615
-0.545
-0.465
-0.535
-0.37
-0.415
-0.5
-0.5
-0.58
-0.615
-0.555
-0.515
-0.44
-0.37
-0.35
-0.48
-0.495
-0.63
-0.61
-0.605
-0.56
-0.415
-0.38
-0.37
-0.45
-0.305
-0.45
-0.475
-0.56
-0.585
-0.49
-0.475
-0.45
-0.32
-0.385
-0.31
-0.43
-0.495
-0.45
-0.565
-0.445
-0.4
-0.355
-0.415
-0.175
-0.245
-0.34
-0.405
-0.475
-0.515
-0.435
-0.295
-0.22
-0.155
-0.17
-0.2
-0.265
-0.225
-0.585
-0.425
-0.425
-0.315
-0.21
-0.075
-0.18
-0.165
-0.245
-0.245
-0.435
-0.42
-0.275
-0.34
-0.21
-0.075
-0.185
-0.135
-0.24
-0.27
-0.47
-0.39
-0.395
-0.305
-0.27
-0.25
-0.255
-0.285
-0.295
-0.45
-0.6
-0.56
-0.45
-0.375
-0.39
-0.35
-0.33
-0.38
-0.485
-0.59
-0.68
-0.605
-0.555
-0.52
-0.475
-0.47
-0.56
-0.505
-0.515
-0.5
-0.59
-0.63
-0.56
-0.6
-0.42
-0.365
-0.435
-0.41
-0.46
-0.525
-0.715
-0.725
-0.625
-0.56
-0.505
-0.42
-0.48
-0.48
-0.575
-0.645
-0.595
-0.72
-0.63
-0.535
-0.48
-0.435
-0.405
-0.44
-0.495
-0.6
-0.67
-0.685
-0.63
-0.43
-0.52
-0.465
-0.41
-0.5
-0.575
-0.595
-0.63
-0.655
-0.53
-0.545
-0.435
-0.435
-0.4
-0.47
-0.5
-0.705
-0.66
-0.675
-0.525
-0.505
-0.405
-0.375
-0.415
-0.51
-0.605
-0.66
-0.7
-0.595
-0.575
-0.475
-0.445
-0.32
-0.47
-0.555
-0.585
-0.665
-0.685
-0.625
-0.545
-0.5
-0.445
-0.365
-0.395
-0.52
-0.445
-0.725
-0.71
-0.745
-0.535
-0.415
-0.445
-0.415
-0.565
-0.56
-0.435
-0.675
-0.635
-0.62
-0.51
-0.56
-0.38
-0.425
-0.425
-0.57
-0.585
-0.7
-0.585
-0.69
-0.485
-0.495
-0.425
-0.445
-0.5
-0.575
-0.575
-0.815
-0.625
-0.585
-0.395
-0.435
-0.345
-0.335
-0.305
-0.365
-0.425
-0.44
-0.425
-0.43
-0.54
-0.455
-0.38
-0.4
-0.47
-0.475
-0.515
-0.705
-0.555
-0.605
-0.61
-0.55
-0.345
-0.415
-0.5
-0.605
-0.615
-0.72
-0.725
-0.705
-0.63
-0.5
-0.36
-0.465
-0.505
-0.645
-0.61
-0.735
-0.715
-0.515
-0.5
-0.485
-0.39
-0.455
-0.56
-0.695
-0.74
-0.76
-0.765
-0.805
-0.685
-0.525
-0.385
-0.28
-0.15
-0.09
-0.09
-0.135
0.065
0.22
0.23
0.38
0.485
0.38
0.51
0.37
0.21
-0.065
-0.335
-0.45
-0.34
-0.445
-0.33
-0.315
-0.35
-0.455
-0.56
-0.58
-0.57
-0.705
-0.53
-0.39
-0.35
-0.575
-0.53
-0.745
-0.7
-0.835
-0.69
-0.585
-0.545
-0.45
-0.48
-0.475
-0.615
-0.595
-0.68
-0.615
-0.775
-0.66
-0.64
-0.455
-0.41
-0.51
-0.57
-0.565
-0.755
-0.745
-0.655
-0.62
-0.53
-0.485
-0.49
-0.515
-0.585
-0.525
-0.755
-0.755
-0.61
-0.625
-0.545
-0.4
-0.44
-0.41
-0.475
-0.53
-0.685
-0.715
-0.645
-0.65
-0.55
-0.445
-0.395
-0.345
-0.515
-0.595
-0.73
-0.615
-0.6
-0.47
-0.44
-0.38
-0.385
-0.52
-0.495
-0.58
-0.66
-0.61
-0.585
-0.535
-0.38
-0.285
-0.27
-0.215
-0.395
-0.48
-0.65
-0.62
-0.48
-0.425
-0.4
-0.22
-0.205
-0.285
-0.36
-0.31
-0.54
-0.49
-0.46
-0.345
-0.335
-0.1
-0.18
-0.23
-0.27
-0.215
-0.465
-0.61
-0.425
-0.31
-0.335
-0.18
-0.175
-0.255
-0.315
-0.365
-0.57
-0.465
-0.445
-0.315
-0.27
-0.275
-0.3
-0.31
-0.39
-0.525
-0.56
-0.545
-0.48
-0.46
-0.4
-0.33
-0.365
-0.455
-0.53
-0.67
-0.73
-0.655
-0.59
-0.445
-0.54
-0.335
-0.32
-0.465
-0.55
-0.69
-0.8
-0.715
-0.56
-0.585
-0.535
-0.445
-0.415
-0.565
-0.51
-0.585
-0.725
-0.7
-0.67
-0.49
-0.495
-0.45
-0.42
-0.445
-0.57
-0.7
-0.7
-0.685
-0.555
-0.555
-0.48
-0.475
-0.49
-0.47
-0.6
-0.695
-0.735
-0.695
-0.605
-0.535
-0.435
-0.365
-0.455
-0.48
-0.56
-0.625
-0.555
-0.67
-0.6
-0.675
-0.43
-0.455
-0.38
-0.5
-0.63
-0.74
-0.565
-0.67
-0.63
-0.52
-0.375
-0.495
-0.5
-0.515
-0.62
-0.75
-0.615
-0.6
-0.485
-0.515
-0.35
-0.385
-0.445
-0.52
-0.715
-0.68
-0.775
-0.645
-0.515
-0.445
-0.35
-0.385
-0.505
-0.505
-0.58
-0.795
-0.73
-0.57
-0.7
-0.595
-0.32
-0.315
-0.475
-0.545
-0.515
-0.67
-0.61
-0.65
-0.555
-0.435
-0.385
-0.45
-0.61
-0.52
-0.615
-0.635
-0.695
-0.665
-0.585
-0.51
-0.345
-0.54
-0.435
-0.455
-0.5
-0.695
-0.635
-0.555
-0.495
-0.47
-0.43
-0.385
-0.34
-0.37
-0.49
-0.475
-0.51
-0.46
-0.325
-0.435
-0.285
-0.285
-0.345
-0.44
-0.585
-0.665
-0.62
-0.68
-0.59
-0.4
-0.4
-0.445
-0.42
-0.575
-0.59
-0.66
-0.7
-0.625
-0.525
-0.43
-0.36
-0.395
-0.515
-0.67
-0.635
-0.655
-0.66
-0.65
-0.505
-0.5
-0.415
-0.46
-0.515
-0.65
-0.795
-0.755
-0.785
-0.72
-0.69
-0.46
-0.47
-0.36
-0.36
-0.325
-0.21
-0.12
-0.06
0.165
0.205
0.48
0.595
0.435
0.38
0.53
0.435
0.26
0.12
-0.12
-0.18
-0.155
-0.29
-0.34
-0.255
-0.375
-0.49
-0.52
-0.51
-0.53
-0.475
-0.38
-0.345
-0.48
-0.47
-0.665
-0.71
-0.665
-0.675
-0.62
-0.525
-0.5
-0.37
-0.42
-0.4
-0.545
-0.725
-0.705
-0.62
-0.57
-0.565
-0.445
-0.435
-0.35
-0.525
-0.635
-0.66
-0.675
-0.615
-0.5
-0.435
-0.475
-0.43
-0.52
-0.615
-0.65
-0.605
-0.605
-0.555
-0.53
-0.395
-0.335
-0.365
-0.41
-0.55
-0.525
-0.76
-0.7
-0.505
-0.46
-0.51
-0.225
-0.37
-0.425
-0.57
-0.525
-0.625
-0.525
-0.525
-0.485
-0.475
-0.315
-0.445
-0.425
-0.42
-0.525
-0.685
-0.57
-0.475
-0.345
-0.385
-0.255
-0.255
-0.315
-0.405
-0.38
-0.505
-0.4
-0.455
-0.335
-0.275
-0.215
-0.11
-0.21
-0.32
-0.37
-0.445
-0.49
-0.375
-0.245
-0.235
-0.09
-0.11
-0.175
-0.32
-0.325
-0.44
-0.27
-0.345
-0.16
-0.185
-0.1
-0.24
-0.215
-0.32
-0.28
-0.47
-0.365
-0.235
-0.245
-0.195
-0.135
-0.2
-0.305
-0.355
-0.35
-0.44
-0.445
-0.305
-0.3
-0.155
-0.175
-0.25
-0.385
-0.5
-0.6
-0.625
-0.535
-0.465
-0.47
-0.43
-0.315
-0.315
-0.305
-0.425
-0.595
-0.575
-0.45
-0.575
-0.495
-0.38
-0.295
-0.41
-0.41
-0.44
-0.52
-0.625
-0.495
-0.54
-0.435
-0.345
-0.28
-0.31
-0.45
-0.405
-0.65
-0.625
-0.46
-0.47
-0.405
-0.365
-0.315
-0.3
-0.385
-0.59
-0.56
-0.58
-0.49
-0.46
-0.47
-0.3
-0.25
-0.38
-0.525
-0.54
-0.66
-0.65
-0.585
-0.475
-0.385
-0.275
-0.48
-0.315
-0.38
-0.54
-0.505
-0.58
-0.525
-0.475
-0.415
-0.26
-0.225
-0.305
-0.43
-0.5
-0.68
-0.605
-0.495
-0.425
-0.46
-0.35
-0.33
-0.36
-0.46
-0.43
-0.7
-0.615
-0.525
-0.515
-0.495
-0.325
-0.24
-0.375
-0.415
-0.44
-0.53
-0.595
-0.565
-0.425
-0.48
-0.41
-0.355
-0.38
-0.425
-0.495
-0.625
-0.56
-0.495
-0.375
-0.405
-0.305
-0.285
-0.39
-0.445
-0.455
-0.535
-0.65
-0.51
-0.535
-0.435
-0.35
-0.285
-0.355
-0.575
-0.44
-0.52
-0.525
-0.555
-0.46
-0.47
-0.3
-0.265
-0.455
-0.53
-0.47
-0.51
-0.485
-0.33
-0.285
-0.18
-0.1
-0.17
-0.26
-0.385
-0.42
-0.47
-0.47
-0.4
-0.405
-0.295
-0.29
-0.29
-0.36
-0.395
-0.51
-0.545
-0.695
-0.495
-0.43
-0.34
-0.3
-0.37
-0.47
-0.555
-0.52
-0.615
-0.645
-0.44
-0.345
-0.355
-0.355
-0.385
-0.415
-0.515
-0.585
-0.61
-0.575
-0.545
-0.48
-0.4
-0.365
-0.46
-0.515
-0.57
-0.63
-0.585
-0.515
-0.335
-0.28
-0.025
0.235
0.245
0.265
0.28
0.27
0.295
0.375
0.53
0.67
0.8
0.75
0.395
0.045
-0.165
-0.42
-0.47
-0.47
-0.245
-0.215
-0.1
-0.19
-0.325
-0.375
-0.42
-0.57
-0.585
-0.535
-0.635
-0.445
-0.34
-0.405
-0.34
-0.43
-0.485
-0.605
-0.64
-0.575
-0.5
-0.51
-0.34
-0.405
-0.39
-0.445
-0.575
-0.57
-0.58
-0.595
-0.425
-0.43
-0.245
-0.245
-0.475
-0.41
-0.56
-0.57
-0.58
-0.515
-0.485
-0.505
-0.32
-0.305
-0.35
-0.425
-0.51
-0.63
-0.555
-0.525
-0.56
-0.39
-0.32
-0.305
-0.36
-0.455
-0.505
-0.62
-0.495
-0.465
-0.235
-0.385
-0.28
-0.4
-0.335
-0.425
-0.59
-0.62
-0.495
-0.435
-0.39
-0.36
-0.16
-0.19
-0.255
-0.305
-0.37
-0.515
-0.485
-0.39
-0.355
-0.2
-0.135
-0.235
-0.245
-0.3
-0.39
-0.48
-0.405
-0.32
-0.2
-0.135
-0.11
-0.145
-0.125
-0.295
-0.315
-0.355
-0.305
-0.265
-0.215
-0.125
-0.09
-0.065
-0.195
-0.185
-0.315
-0.295
-0.315
-0.345
-0.17
-0.025
-0.01
-0.17
-0.22
-0.27
-0.34
-0.315
-0.235
-0.255
-0.255
-0.12
-0.19
-0.2
-0.265
-0.42
-0.485
-0.435
-0.455
-0.355
-0.305
-0.29
-0.285
-0.36
-0.27
-0.275
-0.53
-0.53
-0.57
-0.455
-0.415
-0.365
-0.295
-0.33
-0.43
-0.465
-0.585
-0.48
-0.58
-0.49
-0.37
-0.245
-0.285
-0.295
-0.355
-0.565
-0.565
-0.55
-0.57
-0.555
-0.475
-0.285
-0.33
-0.365
-0.39
-0.475
-0.63
-0.545
-0.48
-0.455
-0.405
-0.35
-0.22
-0.345
-0.405
-0.595
-0.59
-0.6
-0.5
-0.425
-0.45
-0.28
-0.285
-0.335
-0.465
-0.46
-0.58
-0.63
-0.62
-0.5
-0.345
-0.29
-0.3
-0.35
-0.43
-0.56
-0.505
-0.545
-0.495
-0.475
-0.425
-0.27
-0.32
-0.48
-0.49
-0.625
-0.605
-0.53
-0.565
-0.42
-0.435
-0.415
-0.36
-0.33
-0.47
-0.435
-0.54
-0.59
-0.525
-0.475
-0.35
-0.23
-0.33
-0.335
-0.54
-0.59
-0.64
-0.58
-0.56
-0.485
-0.44
-0.29
-0.33
-0.37
-0.51
-0.485
-0.56
-0.595
-0.505
-0.435
-0.385
-0.39
-0.39
-0.385
-0.485
-0.475
-0.585
-0.55
-0.435
-0.39
-0.41
-0.455
-0.37
-0.375
-0.495
-0.595
-0.59
-0.565
-0.495
-0.48
-0.35
-0.265
-0.31
-0.39
-0.385
-0.47
-0.495
-0.435
-0.31
-0.345
-0.135
-0.185
-0.26
-0.3
-0.415
-0.65
-0.485
-0.445
-0.485
-0.42
-0.305
-0.295
-0.33
-0.33
-0.47
-0.63
-0.62
-0.515
-0.49
-0.5
-0.37
-0.345
-0.46
-0.51
-0.495
-0.77
-0.605
-0.585
-0.505
-0.43
-0.26
-0.385
-0.365
-0.5
-0.45
-0.695
-0.655
-0.635
-0.67
-0.67
-0.47
-0.47
-0.5
-0.535
-0.565
-0.68
-0.535
-0.325
-0.125
0.1
0.285
0.325
0.27
0.435
0.48
0.13
0.36
0.505
0.455
0.555
0.495
0.13
-0.17
-0.32
-0.46
-0.535
-0.515
-0.44
-0.285
-0.28
-0.275
-0.335
-0.41
-0.455
-0.48
-0.645
-0.625
-0.51
-0.5
-0.38
-0.43
-0.43
-0.49
-0.56
-0.56
-0.7
-0.685
-0.58
-0.605
-0.425
-0.435
-0.41
-0.53
-0.585
-0.5
-0.575
-0.535
-0.545
-0.42
-0.55
-0.35
-0.34
-0.395
-0.555
-0.69
-0.65
-0.66
-0.605
-0.56
-0.495
-0.265
-0.465
-0.47
-0.445
-0.57
-0.59
-0.59
-0.5
-0.365
-0.365
-0.27
-0.295
-0.485
-0.48
-0.6
-0.685
-0.625
-0.55
-0.39
-0.4
-0.34
-0.33
-0.4
-0.45
-0.485
-0.61
-0.595
-0.4
-0.41
-0.27
-0.315
-0.195
-0.355
-0.45
-0.44
-0.62
-0.53
-0.385
-0.395
-0.25
-0.2
-0.36
-0.245
-0.33
-0.435
-0.435
-0.415
-0.34
-0.265
-0.14
-0.175
-0.21
-0.235
-0.305
-0.34
-0.4
-0.435
-0.265
-0.18
-0.115
-0.04
-0.2
-0.195
-0.265
-0.325
-0.225
-0.32
-0.23
-0.19
-0.135
-0.225
-0.27
-0.27
-0.31
-0.455
-0.46
-0.4
-0.275
-0.315
-0.2
-0.16
-0.2
-0.385
-0.515
-0.57
-0.54
-0.51
-0.505
-0.47
-0.325
-0.34
-0.37
-0.55
-0.54
-0.5
-0.49
-0.625
-0.495
-0.495
-0.33
-0.445
-0.405
-0.465
-0.575
-0.58
-0.65
-0.575
-0.44
-0.42
-0.365
-0.33
-0.45
-0.455
-0.51
-0.685
-0.6
-0.625
-0.495
-0.42
-0.385
-0.41
-0.49
-0.475
-0.575
-0.61
-0.7
-0.655
-0.47
-0.475
-0.345
-0.34
-0.37
-0.52
-0.495
-0.495
-0.585
-0.525
-0.485
-0.46
-0.34
-0.39
-0.465
-0.63
-0.61
-0.62
-0.545
-0.565
-0.415
-0.385
-0.405
-0.425
-0.46
-0.48
-0.53
-0.61
-0.63
-0.535
-0.46
-0.37
-0.35
-0.325
-0.44
-0.565
-0.585
-0.535
-0.64
-0.58
-0.44
-0.385
-0.435
-0.355
-0.535
-0.505
-0.535
-0.58
-0.58
-0.525
-0.58
-0.41
-0.305
-0.46
-0.42
-0.435
-0.68
-0.685
-0.61
-0.515
-0.465
-0.36
-0.29
-0.385
-0.455
-0.54
-0.64
-0.595
-0.64
-0.645
-0.475
-0.34
-0.445
-0.35
-0.515
-0.59
-0.63
-0.565
-0.56
-0.385
-0.47
-0.44
-0.435
-0.385
-0.475
-0.54
-0.675
-0.63
-0.61
-0.53
-0.385
-0.225
-0.265
-0.38
-0.255
-0.33
-0.54
-0.47
-0.49
-0.46
-0.395
-0.325
-0.385
-0.335
-0.465
-0.56
-0.59
-0.58
-0.55
-0.485
-0.44
-0.4
-0.45
-0.475
-0.46
-0.565
-0.645
-0.635
-0.63
-0.51
-0.48
-0.35
-0.305
-0.455
-0.535
-0.555
-0.665
-0.66
-0.685
-0.475
-0.48
-0.38
-0.445
-0.575
-0.55
-0.555
-0.85
-0.68
-0.66
-0.565
-0.465
-0.39
-0.325
-0.18
-0.17
-0.015
-0.11
0.025
0.23
0.32
0.405
0.545
0.56
0.51
0.43
0.33
0.06
-0.29
-0.42
-0.325
-0.34
-0.25
-0.27
-0.275
-0.39
-0.455
-0.555
-0.53
-0.51
-0.465
-0.535
-0.345
-0.33
-0.415
-0.55
-0.545
-0.68
-0.62
-0.635
-0.43
-0.44
-0.395
-0.405
-0.46
-0.505
-0.625
-0.665
-0.65
-0.625
-0.425
-0.32
-0.405
-0.36
-0.49
-0.575
-0.58
-0.6
-0.62
-0.67
-0.475
-0.405
-0.32
-0.38
-0.485
-0.46
-0.555
-0.65
-0.67
-0.56
-0.385
-0.415
-0.38
-0.405
-0.415
-0.52
-0.575
-0.64
-0.5
-0.47
-0.355
-0.335
-0.315
-0.415
-0.4
-0.45
-0.65
-0.585
-0.525
-0.445
-0.42
-0.325
-0.305
-0.305
-0.36
-0.31
-0.535
-0.57
-0.42
-0.44
-0.4
-0.335
-0.255
-0.25
-0.205
-0.42
-0.53
-0.465
-0.42
-0.39
-0.2
-0.125
-0.22
-0.2
-0.26
-0.3
-0.425
-0.36
-0.345
-0.225
-0.16
-0.13
-0.135
-0.185
-0.255
-0.26
-0.345
-0.435
-0.34
-0.25
-0.195
-0.07
-0.115
-0.21
-0.185
-0.145
-0.39
-0.365
-0.305
-0.275
-0.265
-0.055
-0.125
-0.3
-0.33
-0.42
-0.585
-0.445
-0.51
-0.465
-0.305
-0.22
-0.265
-0.395
-0.43
-0.41
-0.625
-0.595
-0.505
-0.495
-0.38
-0.295
-0.315
-0.435
-0.545
-0.56
-0.565
-0.575
-0.535
-0.51
-0.315
-0.345
-0.38
-0.4
-0.45
-0.555
-0.71
-0.595
-0.465
-0.52
-0.46
-0.4
-0.395
-0.39
-0.46
-0.48
-0.665
-0.595
-0.555
-0.445
-0.445
-0.31
-0.495
-0.445
-0.51
-0.61
-0.595
-0.59
-0.52
-0.445
-0.35
-0.375
-0.375
-0.4
-0.49
-0.505
-0.61
-0.55
-0.495
-0.585
-0.33
-0.325
-0.36
-0.39
-0.5
-0.595
-0.615
-0.64
-0.52
-0.435
-0.42
-0.27
-0.32
-0.41
-0.515
-0.635
-0.585
-0.515
-0.55
-0.44
-0.395
-0.315
-0.345
-0.5
-0.63
-0.635
-0.525
-0.505
-0.54
-0.415
-0.4
-0.365
-0.3
-0.43
-0.49
-0.545
-0.52
-0.54
-0.45
-0.46
-0.34
-0.395
-0.445
-0.425
-0.565
-0.75
-0.615
-0.49
-0.485
-0.47
-0.39
-0.305
-0.395
-0.5
-0.58
-0.53
-0.54
-0.485
-0.43
-0.475
-0.395
-0.4
-0.435
-0.485
-0.455
-0.61
-0.585
-0.505
-0.47
-0.315
-0.225
-0.275
-0.335
-0.29
-0.405
-0.59
-0.37
-0.485
-0.37
-0.31
-0.115
-0.23
-0.33
-0.48
-0.54
-0.585
-0.6
-0.525
-0.465
-0.43
-0.325
-0.415
-0.305
-0.545
-0.59
-0.61
-0.59
-0.61
-0.455
-0.435
-0.33
-0.335
-0.425
-0.49
-0.505
-0.6
-0.715
-0.515
-0.51
-0.355
-0.335
-0.295
-0.535
-0.585
-0.6
-0.785
-0.735
-0.695
-0.555
-0.575
-0.41
-0.28
-0.315
-0.435
-0.11
-0.01
0.0
0.145
0.415
0.405
0.56
0.565
0.515
0.5
0.475
0.215
0.115
-0.005
-0.23
-0.285
-0.115
-0.185
-0.28
-0.315
-0.475
-0.54
-0.395
-0.395
-0.47
-0.41
-0.31
-0.45
-0.52
-0.51
-0.53
-0.635
-0.595
-0.53
-0.465
-0.45
-0.39
-0.395
-0.47
-0.505
-0.62
-0.72
-0.445
-0.71
-0.515
-0.49
-0.41
-0.36
-0.445
-0.46
-0.63
-0.51
-0.535
-0.585
-0.415
-0.365
-0.295
-0.415
-0.485
-0.58
-0.625
-0.67
-0.63
-0.525
-0.5
-0.35
-0.345
-0.35
-0.455
-0.48
-0.515
-0.515
-0.49
-0.465
-0.5
-0.405
-0.415
-0.37
-0.43
-0.51
-0.665
-0.61
-0.555
-0.465
-0.305
-0.41
-0.25
-0.275
-0.305
-0.39
-0.585
-0.65
-0.455
-0.4
-0.39
-0.22
-0.24
-0.285
-0.405
-0.32
-0.455
-0.44
-0.405
-0.305
-0.27
-0.175
-0.295
-0.255
-0.18
-0.26
-0.435
-0.43
-0.365
-0.23
-0.255
-0.15
-0.135
-0.215
-0.13
-0.325
-0.42
-0.41
-0.285
-0.15
-0.185
-0.115
-0.135
-0.14
-0.31
-0.215
-0.4
-0.35
-0.31
-0.3
-0.32
-0.09
-0.105
-0.23
-0.48
-0.38
-0.42
-0.345
-0.325
-0.325
-0.335
-0.27
-0.255
-0.33
-0.485
-0.425
-0.58
-0.485
-0.52
-0.44
-0.385
-0.31
-0.355
-0.36
-0.47
-0.555
-0.595
-0.59
-0.49
-0.47
-0.365
-0.33
-0.315
-0.435
-0.435
-0.425
-0.56
-0.715
-0.55
-0.43
-0.385
-0.33
-0.355
-0.47
-0.475
-0.595
-0.6
-0.53
-0.48
-0.43
-0.315
-0.32
-0.27
-0.475
-0.525
-0.595
-0.63
-0.52
-0.485
-0.47
-0.42
-0.31
-0.255
-0.405
-0.485
-0.6
-0.58
-0.545
-0.515
-0.515
-0.31
-0.23
-0.3
-0.4
-0.49
-0.635
-0.57
-0.515
-0.44
-0.495
-0.4
-0.355
-0.29
-0.46
-0.515
-0.555
-0.585
-0.535
-0.48
-0.385
-0.36
-0.38
-0.38
-0.49
-0.57
-0.5
-0.58
-0.65
-0.53
-0.39
-0.305
-0.315
-0.255
-0.42
-0.485
-0.63
-0.58
-0.54
-0.5
-0.47
-0.285
-0.285
-0.44
-0.475
-0.505
-0.555
-0.52
-0.53
-0.525
-0.44
-0.32
-0.26
-0.36
-0.415
-0.47
-0.56
-0.575
-0.61
-0.455
-0.41
-0.39
-0.325
-0.31
-0.445
-0.47
-0.495
-0.495
-0.495
-0.405
-0.39
-0.36
-0.435
-0.255
-0.455
-0.4
-0.55
-0.395
-0.35
-0.28
-0.225
-0.135
-0.135
-0.295
-0.415
-0.41
-0.515
-0.435
-0.385
