# TIPE ECG 2021 - ECG-ID Database v1.0.0 par Physionet
# [Numéro de la personne, Période d'échantillonnage, Prénom, Age, Sexe, Date de l'enregistrement]
[59, 0.002, Jackie, 45, H, 12.05.2005]
-1.45
-1.5
-1.505
-1.48
-1.42
-1.445
-1.445
-1.495
-1.51
-1.435
-1.465
-1.535
-1.45
-1.46
-1.585
-1.565
-1.54
-1.365
-1.45
-1.46
-1.405
-1.415
-1.475
-1.5
-1.53
-1.485
-1.51
-1.505
-1.52
-1.53
-1.525
-1.465
-1.42
-1.305
-1.24
-1.245
-1.115
-1.065
-1.06
-1.085
-1.185
-1.27
-1.18
-1.225
-1.315
-1.525
-1.605
-1.58
-1.68
-1.74
-1.78
-1.825
-1.65
-1.785
-1.725
-1.785
-1.79
-1.695
-1.55
-1.61
-1.56
-1.56
-1.64
-1.51
-1.46
-1.51
-1.525
-1.56
-1.555
-1.575
-1.54
-1.52
-1.55
-1.53
-1.54
-1.475
-1.505
-1.51
-1.525
-1.51
-1.515
-1.5
-1.485
-1.505
-1.55
-1.48
-1.59
-1.62
-1.5
-1.485
-1.47
-1.515
-1.515
-1.495
-1.47
-1.515
-1.535
-1.54
-1.57
-1.515
-1.5
-1.475
-1.515
-1.395
-1.405
-1.505
-1.44
-1.485
-1.47
-1.455
-1.44
-1.475
-1.48
-1.405
-1.375
-1.37
-1.31
-1.46
-1.43
-1.28
-1.34
-1.335
-1.285
-1.39
-1.35
-1.315
-1.33
-1.37
-1.325
-1.315
-1.25
-1.3
-1.3
-1.3
-1.31
-1.3
-1.325
-1.29
-1.335
-1.43
-1.36
-1.22
-1.29
-1.37
-1.385
-1.38
-1.38
-1.365
-1.42
-1.425
-1.435
-1.445
-1.53
-1.475
-1.51
-1.505
-1.545
-1.575
-1.55
-1.51
-1.55
-1.605
-1.645
-1.62
-1.585
-1.62
-1.6
-1.565
-1.58
-1.615
-1.64
-1.625
-1.55
-1.59
-1.645
-1.66
-1.74
-1.585
-1.505
-1.705
-1.5
-1.62
-1.615
-1.585
-1.62
-1.59
-1.61
-1.62
-1.65
-1.655
-1.66
-1.625
-1.685
-1.65
-1.65
-1.655
-1.66
-1.645
-1.65
-1.67
-1.67
-1.67
-1.665
-1.655
-1.675
-1.72
-1.67
-1.665
-1.69
-1.7
-1.69
-1.72
-1.65
-1.57
-1.695
-1.68
-1.635
-1.68
-1.645
-1.65
-1.635
-1.68
-1.72
-1.715
-1.745
-1.735
-1.67
-1.68
-1.71
-1.71
-1.69
-1.69
-1.745
-1.71
-1.71
-1.675
-1.74
-1.72
-1.705
-1.785
-1.785
-1.725
-1.7
-1.715
-1.65
-1.66
-1.72
-1.72
-1.67
-1.74
-1.795
-1.715
-1.705
-1.75
-1.735
-1.775
-1.78
-1.735
-1.675
-1.74
-1.725
-1.715
-1.81
-1.76
-1.71
-1.745
-1.715
-1.78
-1.79
-1.78
-1.745
-1.725
-1.815
-1.885
-1.71
-1.745
-1.71
-1.695
-1.755
-1.72
-1.725
-1.695
-1.705
-1.73
-1.79
-1.75
-1.74
-1.755
-1.77
-1.84
-1.71
-1.685
-1.6
-1.625
-1.7
-1.685
-1.685
-1.67
-1.665
-1.72
-1.6
-1.67
-1.68
-1.62
-1.66
-1.65
-1.66
-1.735
-1.775
-1.8
-1.725
-1.74
-1.77
-1.815
-1.895
-1.8
-1.875
-1.785
-1.75
-1.78
-1.805
-1.82
-1.81
-1.88
-1.75
-1.79
-1.825
-1.84
-1.945
-1.88
-1.82
-1.995
-1.85
-1.78
-1.835
-1.805
-1.84
-1.84
-1.815
-1.85
-1.865
-1.87
-1.935
-1.905
-1.875
-1.815
-1.685
-1.6
-1.535
-1.485
-1.445
-1.42
-1.5
-1.53
-1.59
-1.615
-1.73
-1.77
-1.94
-1.915
-1.93
-2.095
-2.145
-2.165
-2.295
-2.165
-2.11
-2.11
-2.12
-2.1
-2.03
-2.04
-2.02
-2.03
-1.965
-1.955
-1.945
-1.945
-1.955
-1.94
-1.89
-1.935
-1.905
-1.94
-1.905
-1.94
-1.915
-1.89
-1.875
-1.92
-1.965
-1.945
-1.965
-1.945
-1.835
-1.87
-1.915
-1.925
-1.915
-1.915
-1.9
-1.91
-1.895
-1.93
-1.98
-1.92
-1.84
-1.885
-1.93
-1.835
-1.855
-1.815
-1.885
-1.855
-1.86
-1.97
-1.865
-1.81
-1.78
-1.805
-1.815
-1.785
-1.8
-1.785
-1.855
-1.895
-1.82
-1.785
-1.745
-1.72
-1.73
-1.755
-1.745
-1.8
-1.74
-1.65
-1.67
-1.67
-1.685
-1.655
-1.625
-1.62
-1.73
-1.68
-1.675
-1.63
-1.605
-1.605
-1.615
-1.635
-1.61
-1.575
-1.635
-1.61
-1.595
-1.635
-1.61
-1.65
-1.625
-1.655
-1.62
-1.665
-1.71
-1.725
-1.7
-1.725
-1.7
-1.745
-1.735
-1.71
-1.79
-1.73
-1.815
-1.98
-1.97
-1.82
-1.815
-1.855
-1.825
-1.83
-1.835
-1.895
-1.905
-1.895
-1.865
-1.82
-1.9
-1.89
-1.9
-1.965
-1.94
-1.94
-1.94
-2.005
-1.99
-1.855
-1.935
-2.01
-1.935
-1.935
-1.94
-1.91
-1.95
-2.005
-1.965
-2.015
-1.97
-2.01
-1.975
-2.075
-2.15
-1.875
-1.975
-1.96
-1.85
-1.88
-1.97
-1.95
-1.94
-1.965
-2.01
-2.01
-1.99
-2.005
-2.005
-1.985
-1.99
-2.0
-2.085
-2.07
-1.965
-2.005
-2.03
-2.04
-2.04
-1.97
-1.945
-1.95
-1.945
-2.04
-2.075
-1.935
-2.015
-2.05
-2.075
-2.08
-2.07
-2.015
-2.115
-2.15
-1.88
-1.94
-1.995
-1.985
-2.01
-2.045
-2.07
-1.915
-2.02
-2.025
-1.975
-1.975
-1.975
-1.995
-1.96
-1.99
-2.015
-2.075
-2.005
-1.945
-2.0
-1.955
-1.9
-1.965
-1.955
-1.905
-1.97
-1.955
-1.895
-1.915
-1.89
-1.915
-1.905
-1.89
-1.915
-1.995
-1.975
-2.04
-2.06
-2.06
-2.005
-2.0
-1.975
-2.115
-2.125
-2.13
-2.06
-2.085
-2.19
-2.125
-2.08
-2.07
-2.08
-2.11
-2.125
-2.115
-2.16
-2.14
-2.14
-2.02
-1.96
-2.12
-2.115
-2.13
-2.14
-2.075
-2.14
-2.09
-2.08
-2.09
-2.14
-2.205
-2.185
-2.15
-2.07
-1.955
-1.865
-1.805
-1.8
-1.685
-1.635
-1.665
-1.675
-1.725
-1.8
-1.825
-1.89
-1.995
-2.195
-2.285
-2.295
-2.38
-2.4
-2.435
-2.46
-2.47
-2.415
-2.335
-2.36
-2.41
-2.305
-2.325
-2.245
-2.22
-2.205
-2.215
-2.19
-2.14
-2.18
-2.135
-2.21
-2.265
-2.255
-2.245
-2.185
-2.13
-2.245
-2.23
-2.06
-2.085
-2.125
-2.195
-2.14
-2.17
-2.13
-2.11
-2.16
-2.125
-2.105
-2.11
-2.13
-2.17
-2.2
-2.185
-2.175
-2.16
-2.12
-2.115
-2.085
-2.13
-2.115
-2.155
-2.135
-2.11
-2.12
-2.105
-2.15
-2.025
-2.075
-2.06
-2.09
-1.95
-1.93
-1.955
-2.015
-2.025
-2.025
-2.005
-1.99
-1.955
-2.0
-1.935
-1.95
-1.935
-1.945
-1.925
-1.815
-1.87
-1.965
-1.935
-1.915
-1.87
-1.835
-1.85
-1.81
-1.82
-1.875
-1.865
-1.83
-1.855
-1.865
-1.91
-1.83
-1.86
-1.91
-1.89
-1.885
-1.91
-1.865
-1.9
-1.95
-2.0
-1.955
-1.975
-1.9
-1.975
-1.965
-2.025
-2.045
-2.075
-1.99
-2.11
-2.125
-2.035
-2.095
-2.125
-2.105
-2.1
-2.135
-2.1
-2.14
-2.095
-2.16
-2.165
-2.115
-2.135
-2.175
-2.155
-2.145
-2.29
-2.135
-2.11
-2.135
-2.16
-2.19
-2.185
-2.185
-2.195
-2.185
-2.21
-2.19
-2.21
-2.195
-2.2
-2.255
-2.18
-2.175
-2.175
-2.195
-2.175
-2.15
-2.185
-2.25
-2.18
-2.205
-2.19
-2.17
-2.195
-2.165
-2.17
-2.26
-2.35
-2.265
-2.12
-2.195
-2.245
-2.26
-2.17
-2.185
-2.18
-2.22
-2.22
-2.2
-2.175
-2.235
-2.23
-2.25
-2.22
-2.26
-2.205
-2.21
-2.24
-2.2
-2.235
-2.205
-2.205
-2.22
-2.2
-2.27
-2.28
-2.195
-2.075
-2.16
-2.14
-2.235
-2.235
-2.17
-2.17
-2.235
-2.215
-2.165
-2.22
-2.155
-2.17
-2.13
-2.105
-2.17
-2.135
-2.215
-2.16
-2.2
-2.275
-2.305
-2.3
-2.23
-2.22
-2.21
-2.09
-2.215
-2.23
-2.175
-2.265
-2.24
-2.26
-2.27
-2.235
-2.22
-2.27
-2.31
-2.29
-2.29
-2.275
-2.315
-2.235
-2.2
-2.275
-2.285
-2.29
-2.285
-2.235
-2.345
-2.24
-2.17
-2.245
-2.28
-2.285
-2.22
-2.24
-2.215
-2.255
-2.285
-2.29
-2.245
-2.285
-2.295
-2.285
-2.21
-2.275
-2.195
-2.155
-2.055
-1.98
-1.955
-1.895
-1.885
-1.945
-1.965
-1.965
-2.025
-2.13
-2.15
-2.305
-2.425
-2.435
-2.5
-2.515
-2.55
-2.42
-2.445
-2.455
-2.505
-2.52
-2.565
-2.52
-2.465
-2.455
-2.38
-2.36
-2.375
-2.46
-2.39
-2.24
-2.3
-2.355
-2.345
-2.265
-2.31
-2.24
-2.25
-2.32
-2.265
-2.225
-2.25
-2.275
-2.285
-2.315
-2.305
-2.265
-2.295
-2.22
-2.3
-2.245
-2.3
-2.29
-2.23
-2.17
-2.24
-2.245
-2.19
-2.245
-2.27
-2.25
-2.23
-2.21
-2.26
-2.19
-2.28
-2.285
-2.155
-2.255
-2.29
-2.17
-2.18
-2.25
-2.085
-2.12
-2.12
-2.105
-2.12
-2.145
-2.15
-2.105
-2.095
-2.075
-2.06
-2.08
-2.12
-2.065
-2.035
-1.965
-2.1
-2.125
-2.04
-2.04
-2.07
-2.04
-2.02
-1.99
-2.055
-2.055
-2.1
-2.105
-2.07
-2.05
-1.995
-2.01
-2.005
-1.99
-2.005
-2.06
-2.095
-2.105
-2.07
-1.985
-2.055
-2.05
-2.12
-2.095
-2.075
-2.11
-2.125
-2.115
-2.17
-2.17
-2.205
-2.16
-2.105
-2.23
-2.255
-2.32
-2.2
-2.255
-2.21
-2.24
-2.255
-2.23
-2.23
-2.24
-2.27
-2.235
-2.255
-2.28
-2.365
-2.245
-2.255
-2.275
-2.27
-2.22
-2.28
-2.26
-2.205
-2.255
-2.175
-2.22
-2.2
-2.315
-2.3
-2.235
-2.21
-2.25
-2.21
-2.26
-2.245
-2.235
-2.27
-2.28
-2.205
-2.25
-2.31
-2.285
-2.285
-2.275
-2.28
-2.25
-2.26
-2.27
-2.245
-2.2
-2.175
-2.255
-2.225
-2.3
-2.315
-2.24
-2.275
-2.295
-2.305
-2.285
-2.325
-2.36
-2.27
-2.24
-2.165
-2.225
-2.18
-2.23
-2.235
-2.215
-2.17
-2.135
-2.21
-2.265
-2.33
-2.265
-2.155
-2.21
-2.285
-2.175
-2.225
-2.225
-2.175
-2.125
-2.14
-2.165
-2.14
-2.215
-2.18
-2.12
-2.18
-2.215
-2.235
-2.2
-2.21
-2.34
-2.335
-2.31
-2.175
-2.22
-2.215
-2.26
-2.265
-2.29
-2.27
-2.3
-2.33
-2.315
-2.315
-2.335
-2.33
-2.27
-2.31
-2.295
-2.285
-2.305
-2.3
-2.345
-2.24
-2.23
-2.385
-2.29
-2.285
-2.315
-2.32
-2.32
-2.27
-2.27
-2.285
-2.315
-2.315
-2.315
-2.265
-2.305
-2.255
-2.13
-2.075
-2.03
-1.98
-1.99
-1.99
-2.06
-2.105
-2.05
-2.12
-2.13
-2.22
-2.375
-2.455
-2.48
-2.51
-2.54
-2.535
-2.495
-2.535
-2.5
-2.575
-2.61
-2.56
-2.465
-2.48
-2.475
-2.415
-2.335
-2.315
-2.33
-2.375
-2.37
-2.25
-2.255
-2.34
-2.365
-2.345
-2.36
-2.365
-2.235
-2.31
-2.32
-2.275
-2.29
-2.29
-2.33
-2.315
-2.4
-2.315
-2.3
-2.29
-2.27
-2.28
-2.32
-2.25
-2.295
-2.295
-2.305
-2.355
-2.235
-2.225
-2.305
-2.255
-2.325
-2.23
-2.285
-2.3
-2.32
-2.22
-2.205
-2.16
-2.185
-2.26
-2.25
-2.185
-2.23
-2.185
-2.13
-2.165
-2.145
-2.105
-2.205
-2.19
-2.13
-2.06
-2.11
-2.12
-2.09
-2.1
-2.11
-2.12
-2.075
-2.055
-2.06
-2.03
-2.025
-2.025
-2.055
-2.05
-2.045
-2.005
-1.98
-2.065
-2.11
-2.085
-2.045
-2.06
-2.11
-2.12
-2.045
-2.135
-2.135
-2.07
-2.04
-2.085
-2.14
-2.16
-2.085
-2.14
-2.16
-2.185
-2.14
-2.205
-2.19
-2.275
-2.295
-2.245
-2.295
-2.275
-2.195
-2.225
-2.26
-2.275
-2.34
-2.345
-2.255
-2.295
-2.32
-2.34
-2.42
-2.305
-2.37
-2.325
-2.23
-2.285
-2.32
-2.31
-2.315
-2.28
-2.285
-2.38
-2.385
-2.29
-2.335
-2.375
-2.35
-2.37
-2.365
-2.295
-2.305
-2.35
-2.35
-2.31
-2.35
-2.32
-2.36
-2.38
-2.32
-2.315
-2.35
-2.265
-2.295
-2.34
-2.33
-2.355
-2.38
-2.395
-2.3
-2.29
-2.265
-2.365
-2.405
-2.4
-2.375
-2.34
-2.345
-2.405
-2.375
-2.39
-2.345
-2.36
-2.355
-2.375
-2.335
-2.39
-2.385
-2.32
-2.315
-2.32
-2.305
-2.33
-2.355
-2.36
-2.36
-2.345
-2.39
-2.385
-2.37
-2.375
-2.3
-2.295
-2.325
-2.315
-2.32
-2.31
-2.29
-2.26
-2.225
-2.26
-2.295
-2.32
-2.29
-2.27
-2.325
-2.345
-2.32
-2.255
-2.3
-2.29
-2.35
-2.32
-2.42
-2.395
-2.39
-2.365
-2.41
-2.35
-2.35
-2.45
-2.405
-2.365
-2.34
-2.43
-2.4
-2.46
-2.47
-2.405
-2.39
-2.445
-2.47
-2.405
-2.415
-2.48
-2.41
-2.38
-2.46
-2.455
-2.42
-2.395
-2.37
-2.42
-2.38
-2.42
-2.45
-2.46
-2.44
-2.52
-2.445
-2.39
-2.265
-2.155
-2.11
-2.055
-2.125
-2.055
-2.12
-2.12
-2.175
-2.195
-2.315
-2.335
-2.35
-2.475
-2.585
-2.575
-2.665
-2.645
-2.69
-2.69
-2.665
-2.635
-2.625
-2.71
-2.625
-2.615
-2.385
-2.55
-2.6
-2.485
-2.435
-2.44
-2.445
-2.42
-2.42
-2.49
-2.48
-2.49
-2.465
-2.43
-2.505
-2.415
-2.425
-2.43
-2.42
-2.385
-2.465
-2.45
-2.48
-2.38
-2.35
-2.47
-2.445
-2.41
-2.43
-2.42
-2.345
-2.375
-2.41
-2.53
-2.435
-2.305
-2.355
-2.35
-2.37
-2.35
-2.375
-2.395
-2.435
-2.365
-2.365
-2.435
-2.32
-2.265
-2.265
-2.41
-2.33
-2.35
-2.325
-2.285
-2.325
-2.335
-2.26
-2.28
-2.245
-2.225
-2.27
-2.245
-2.245
-2.3
-2.17
-2.1
-2.145
-2.165
-2.135
-2.175
-2.125
-2.095
-2.16
-2.13
-2.105
-2.135
-2.19
-2.2
-2.17
-2.185
-2.185
-2.145
-2.14
-2.135
-2.1
-2.135
-2.215
-2.25
-2.2
-2.24
-2.27
-2.26
-2.31
-2.335
-2.285
-2.23
-2.275
-2.305
-2.305
-2.35
-2.365
-2.38
-2.425
-2.45
-2.35
-2.335
-2.27
-2.445
-2.465
-2.345
-2.445
-2.425
-2.37
-2.41
-2.395
-2.45
-2.485
-2.44
-2.485
-2.455
-2.475
-2.495
-2.45
-2.49
-2.48
-2.385
-2.335
-2.39
-2.425
-2.415
-2.405
-2.425
-2.455
-2.535
-2.505
-2.36
-2.425
-2.43
-2.42
-2.445
-2.51
-2.51
-2.365
-2.425
-2.475
-2.4
-2.49
-2.53
-2.43
-2.455
-2.465
-2.455
-2.46
-2.415
-2.41
-2.455
-2.54
-2.565
-2.4
-2.39
-2.41
-2.485
-2.52
-2.435
-2.44
-2.475
-2.535
-2.465
-2.4
-2.465
-2.525
-2.51
-2.505
-2.475
-2.46
-2.52
-2.495
-2.455
-2.42
-2.455
-2.44
-2.445
-2.48
-2.48
-2.445
-2.475
-2.515
-2.49
-2.485
-2.62
-2.565
-2.51
-2.55
-2.43
-2.385
-2.42
-2.48
-2.47
-2.45
-2.45
-2.425
-2.455
-2.5
-2.47
-2.5
-2.43
-2.5
-2.535
-2.55
-2.315
-2.335
-2.365
-2.43
-2.42
-2.375
-2.335
-2.365
-2.405
-2.38
-2.51
-2.465
-2.485
-2.41
-2.315
-2.38
-2.375
-2.43
-2.48
-2.47
-2.495
-2.5
-2.485
-2.565
-2.6
-2.455
-2.51
-2.555
-2.555
-2.485
-2.44
-2.58
-2.545
-2.57
-2.525
-2.555
-2.52
-2.51
-2.515
-2.535
-2.565
-2.54
-2.57
-2.63
-2.525
-2.52
-2.515
-2.48
-2.54
-2.515
-2.58
-2.695
-2.55
-2.545
-2.48
-2.49
-2.365
-2.24
-2.21
-2.17
-2.145
-2.13
-2.165
-2.105
-2.135
-2.23
-2.4
-2.44
-2.54
-2.605
-2.7
-2.7
-2.74
-2.775
-2.775
-2.81
-2.8
-2.8
-2.78
-2.655
-2.755
-2.785
-2.63
-2.61
-2.575
-2.595
-2.56
-2.525
-2.58
-2.68
-2.685
-2.595
-2.56
-2.52
-2.515
-2.595
-2.525
-2.585
-2.53
-2.525
-2.575
-2.465
-2.48
-2.515
-2.55
-2.595
-2.515
-2.51
-2.52
-2.53
-2.56
-2.53
-2.48
-2.565
-2.525
-2.485
-2.47
-2.565
-2.56
-2.61
-2.445
-2.52
-2.43
-2.535
-2.57
-2.41
-2.44
-2.465
-2.425
-2.49
-2.49
-2.36
-2.43
-2.43
-2.415
-2.475
-2.415
-2.4
-2.455
-2.41
-2.375
-2.395
-2.32
-2.28
-2.245
-2.26
-2.27
-2.32
-2.31
-2.335
-2.29
-2.235
-2.275
-2.265
-2.205
-2.305
-2.325
-2.27
-2.205
-2.24
-2.215
-2.275
-2.195
-2.265
-2.275
-2.285
-2.27
-2.185
-2.2
-2.26
-2.29
-2.455
-2.36
-2.295
-2.27
-2.33
-2.35
-2.31
-2.39
-2.395
-2.43
-2.4
-2.415
-2.47
-2.48
-2.525
-2.49
-2.5
-2.52
-2.475
-2.465
-2.47
-2.515
-2.48
-2.5
-2.515
-2.515
-2.54
-2.585
-2.585
-2.535
-2.59
-2.49
-2.5
-2.61
-2.61
-2.455
-2.455
-2.5
-2.535
-2.555
-2.565
-2.55
-2.62
-2.485
-2.49
-2.585
-2.545
-2.545
-2.495
-2.525
-2.495
-2.525
-2.525
-2.475
-2.575
-2.58
-2.53
-2.53
-2.56
-2.575
-2.555
-2.67
-2.725
-2.51
-2.48
-2.51
-2.55
-2.605
-2.55
-2.535
-2.515
-2.545
-2.57
-2.495
-2.585
-2.625
-2.48
-2.685
-2.475
-2.52
-2.545
-2.495
-2.5
-2.61
-2.625
-2.65
-2.61
-2.505
-2.6
-2.605
-2.57
-2.595
-2.615
-2.555
-2.6
-2.61
-2.585
-2.605
-2.62
-2.565
-2.555
-2.495
-2.47
-2.555
-2.645
-2.7
-2.645
-2.48
-2.565
-2.665
-2.6
-2.605
-2.585
-2.59
-2.58
-2.545
-2.565
-2.61
-2.595
-2.585
-2.54
-2.545
-2.515
-2.54
-2.535
-2.515
-2.63
-2.575
-2.62
-2.445
-2.455
-2.57
-2.45
-2.47
-2.47
-2.54
-2.47
-2.455
-2.46
-2.48
-2.455
-2.525
-2.58
-2.475
-2.495
-2.555
-2.465
-2.52
-2.585
-2.555
-2.62
-2.635
-2.66
-2.64
-2.615
-2.61
-2.56
-2.595
-2.555
-2.605
-2.64
-2.625
-2.625
-2.635
-2.675
-2.69
-2.705
-2.665
-2.58
-2.56
-2.625
-2.64
-2.62
-2.64
-2.61
-2.64
-2.7
-2.66
-2.63
-2.63
-2.73
-2.705
-2.635
-2.67
-2.605
-2.495
-2.31
-2.295
-2.26
-2.185
-2.155
-2.205
-2.245
-2.3
-2.35
-2.405
-2.525
-2.615
-2.77
-2.835
-2.89
-2.835
-2.855
-2.89
-2.955
-2.975
-2.94
-2.89
-2.92
-2.91
-2.835
-2.84
-2.74
-2.7
-2.71
-2.73
-2.745
-2.635
-2.63
-2.69
-2.645
-2.685
-2.685
-2.725
-2.69
-2.675
-2.66
-2.655
-2.675
-2.705
-2.715
-2.725
-2.68
-2.675
-2.73
-2.645
-2.615
-2.625
-2.655
-2.625
-2.63
-2.645
-2.7
-2.665
-2.595
-2.54
-2.61
-2.63
-2.6
-2.7
-2.63
-2.585
-2.63
-2.6
-2.575
-2.59
-2.675
-2.545
-2.605
-2.69
-2.535
-2.515
-2.535
-2.5
-2.495
-2.545
-2.535
-2.505
-2.445
-2.515
-2.505
-2.44
-2.43
-2.375
-2.425
-2.425
-2.385
-2.4
-2.415
-2.36
-2.355
-2.455
-2.41
-2.355
-2.32
-2.305
-2.3
-2.32
-2.34
-2.38
-2.29
-2.325
-2.33
-2.365
-2.38
-2.395
-2.48
-2.425
-2.325
-2.34
-2.355
-2.39
-2.38
-2.38
-2.385
-2.4
-2.445
-2.43
-2.51
-2.545
-2.54
-2.53
-2.53
-2.605
-2.6
-2.635
-2.605
-2.61
-2.69
-2.585
-2.63
-2.595
-2.705
-2.67
-2.63
-2.7
-2.72
-2.62
-2.675
-2.665
-2.6
-2.55
-2.6
-2.62
-2.705
-2.63
-2.63
-2.655
-2.65
-2.695
-2.65
-2.685
-2.68
-2.66
-2.68
-2.675
-2.65
-2.62
-2.61
-2.71
-2.72
-2.695
-2.615
-2.655
-2.66
-2.705
-2.725
-2.64
-2.685
-2.625
-2.68
-2.78
-2.755
-2.635
-2.71
-2.71
-2.62
-2.68
-2.74
-2.66
-2.685
-2.66
-2.64
-2.66
-2.65
-2.665
-2.705
-2.705
-2.69
-2.645
-2.65
-2.675
-2.68
-2.675
-2.755
-2.785
-2.7
-2.695
-2.67
-2.705
-2.66
-2.6
-2.675
-2.79
-2.735
-2.705
-2.685
-2.74
-2.735
-2.63
-2.765
-2.685
-2.645
-2.7
-2.695
-2.745
-2.65
-2.6
-2.68
-2.67
-2.68
-2.7
-2.675
-2.66
-2.695
-2.655
-2.715
-2.68
-2.63
-2.65
-2.725
-2.73
-2.665
-2.675
-2.63
-2.67
-2.615
-2.54
-2.61
-2.555
-2.49
-2.585
-2.58
-2.595
-2.625
-2.625
-2.61
-2.535
-2.58
-2.645
-2.655
-2.66
-2.74
-2.74
-2.675
-2.655
-2.645
-2.675
-2.665
-2.72
-2.745
-2.735
-2.71
-2.74
-2.695
-2.7
-2.75
-2.77
-2.72
-2.74
-2.725
-2.73
-2.765
-2.745
-2.6
-2.775
-2.825
-2.75
-2.745
-2.805
-2.755
-2.685
-2.635
-2.645
-2.525
-2.485
-2.425
-2.325
-2.29
-2.285
-2.31
-2.365
-2.36
-2.435
-2.495
-2.6
-2.655
-2.885
-2.96
-2.93
-2.935
-2.97
-3.035
-3.06
-3.01
-3.0
-3.0
-2.98
-2.98
-2.875
-2.81
-2.78
-2.8
-2.8
-2.77
-2.72
-2.795
-2.72
-2.715
-2.815
-2.775
-2.755
-2.7
-2.675
-2.69
-2.755
-2.82
-2.725
-2.74
-2.775
-2.815
-2.735
-2.705
-2.735
-2.725
-2.715
-2.715
-2.695
-2.715
-2.64
-2.675
-2.78
-2.775
-2.68
-2.575
-2.665
-2.705
-2.665
-2.675
-2.68
-2.715
-2.685
-2.645
-2.66
-2.59
-2.6
-2.585
-2.69
-2.64
-2.615
-2.595
-2.575
-2.645
-2.595
-2.545
-2.575
-2.525
-2.5
-2.51
-2.61
-2.475
-2.455
-2.44
-2.455
-2.525
-2.445
-2.41
-2.445
-2.425
-2.445
-2.42
-2.42
-2.37
-2.33
-2.36
-2.43
-2.385
-2.43
-2.395
-2.445
-2.35
-2.355
-2.41
-2.41
-2.37
-2.35
-2.385
-2.445
-2.595
-2.52
-2.435
-2.455
-2.455
-2.47
-2.53
-2.525
-2.525
-2.58
-2.555
-2.565
-2.59
-2.565
-2.655
-2.655
-2.62
-2.67
-2.565
-2.605
-2.675
-2.66
-2.63
-2.68
-2.705
-2.64
-2.675
-2.695
-2.635
-2.645
-2.635
-2.725
-2.685
-2.665
-2.67
-2.76
-2.715
-2.62
-2.595
-2.675
-2.68
-2.675
-2.66
-2.625
-2.655
-2.685
-2.66
-2.66
-2.705
-2.71
-2.64
-2.64
-2.635
-2.64
-2.67
-2.67
-2.695
-2.695
-2.675
-2.625
-2.635
-2.645
-2.67
-2.725
-2.705
-2.685
-2.6
-2.695
-2.66
-2.61
-2.69
-2.72
-2.64
-2.585
-2.655
-2.71
-2.65
-2.665
-2.7
-2.675
-2.64
-2.685
-2.64
-2.645
-2.68
-2.64
-2.715
-2.745
-2.655
-2.65
-2.66
-2.71
-2.705
-2.65
-2.7
-2.685
-2.61
-2.68
-2.65
-2.58
-2.6
-2.7
-2.595
-2.675
-2.655
-2.52
-2.65
-2.685
-2.67
-2.67
-2.675
-2.62
-2.58
-2.605
-2.605
-2.56
-2.565
-2.56
-2.635
-2.58
-2.565
-2.58
-2.545
-2.585
-2.605
-2.59
-2.61
-2.565
-2.58
-2.56
-2.635
-2.665
-2.68
-2.665
-2.61
-2.655
-2.625
-2.665
-2.645
-2.665
-2.7
-2.635
-2.73
-2.71
-2.665
-2.66
-2.66
-2.655
-2.665
-2.68
-2.7
-2.7
-2.675
-2.71
-2.635
-2.645
-2.635
-2.75
-2.805
-2.6
-2.6
-2.695
-2.7
-2.695
-2.66
-2.64
-2.585
-2.62
-2.57
-2.435
-2.42
-2.305
-2.285
-2.3
-2.325
-2.35
-2.38
-2.425
-2.49
-2.705
-2.61
-2.675
-2.805
-2.885
-2.825
-2.85
-2.87
-2.935
-2.95
-2.925
-2.895
-2.855
-2.835
-2.795
-2.77
-2.755
-2.775
-2.76
-2.685
-2.65
-2.565
-2.65
-2.705
-2.68
-2.655
-2.675
-2.715
-2.7
-2.675
-2.635
-2.65
-2.67
-2.64
-2.615
-2.635
-2.77
-2.64
-2.62
-2.67
-2.685
-2.565
-2.615
-2.595
-2.575
-2.59
-2.68
-2.635
-2.605
-2.65
-2.63
-2.59
-2.595
-2.595
-2.61
-2.6
-2.59
-2.54
-2.535
-2.54
-2.57
-2.62
-2.53
-2.51
-2.505
-2.575
-2.525
-2.565
-2.53
-2.505
-2.49
-2.49
-2.51
-2.45
-2.43
-2.48
-2.46
-2.4
-2.37
-2.4
-2.38
-2.395
-2.48
-2.405
-2.315
-2.41
-2.335
-2.3
-2.34
-2.36
-2.345
-2.32
-2.385
-2.405
-2.33
-2.34
-2.27
-2.33
-2.345
-2.41
-2.365
-2.37
-2.405
-2.29
-2.325
-2.355
-2.43
-2.5
-2.505
-2.59
-2.625
-2.435
-2.41
-2.48
-2.465
-2.465
-2.5
-2.605
-2.565
-2.61
-2.61
-2.65
-2.51
-2.585
-2.58
-2.53
-2.56
-2.625
-2.58
-2.62
-2.525
-2.53
-2.615
-2.605
-2.595
-2.655
-2.635
-2.61
-2.615
-2.635
-2.655
-2.67
-2.665
-2.585
-2.645
-2.64
-2.65
-2.65
-2.625
-2.69
-2.68
-2.62
-2.515
-2.51
-2.64
-2.695
-2.66
-2.585
-2.565
-2.565
-2.585
-2.595
-2.56
-2.565
-2.57
-2.61
-2.615
-2.575
-2.58
-2.635
-2.6
-2.615
-2.565
-2.595
-2.65
-2.63
-2.595
-2.625
-2.64
-2.63
-2.615
-2.67
-2.6
-2.61
-2.605
-2.62
-2.67
-2.645
-2.625
-2.585
-2.58
-2.58
-2.57
-2.67
-2.62
-2.66
-2.52
-2.54
-2.65
-2.605
-2.6
-2.595
-2.525
-2.56
-2.555
-2.575
-2.565
-2.54
-2.565
-2.55
-2.565
-2.5
-2.51
-2.53
-2.555
-2.56
-2.53
-2.54
-2.51
-2.5
-2.555
-2.645
-2.59
-2.62
-2.6
-2.575
-2.55
-2.59
-2.575
-2.59
-2.64
-2.665
-2.645
-2.63
-2.585
-2.635
-2.62
-2.61
-2.715
-2.715
-2.685
-2.605
-2.62
-2.635
-2.635
-2.69
-2.655
-2.65
-2.605
-2.61
-2.635
-2.62
-2.615
-2.585
-2.65
-2.69
-2.665
-2.69
-2.79
-2.76
-2.625
-2.61
-2.645
-2.57
-2.51
-2.405
-2.38
-2.325
-2.26
-2.305
-2.395
-2.485
-2.37
-2.37
-2.555
-2.65
-2.665
-2.795
-2.825
-2.81
-2.835
-2.845
-2.9
-2.945
-2.9
-3.02
-2.89
-2.815
-2.81
-2.76
-2.76
-2.765
-2.735
-2.67
-2.64
-2.665
-2.71
-2.65
-2.68
-2.675
-2.635
-2.67
-2.64
-2.66
-2.67
-2.655
-2.66
-2.63
-2.605
-2.62
-2.645
-2.64
-2.65
-2.655
-2.6
-2.57
-2.59
-2.58
-2.545
-2.64
-2.595
-2.645
-2.605
-2.59
-2.575
-2.565
-2.63
-2.56
-2.515
-2.53
-2.63
-2.65
-2.535
-2.515
-2.59
-2.54
-2.495
-2.575
-2.505
-2.495
-2.51
-2.5
-2.455
-2.475
-2.575
-2.45
-2.445
-2.445
-2.435
-2.4
-2.395
-2.42
-2.39
-2.365
-2.37
-2.37
-2.35
-2.36
-2.315
-2.37
-2.355
-2.38
-2.355
-2.305
-2.325
-2.355
-2.33
-2.27
-2.295
-2.32
-2.335
-2.31
-2.385
-2.34
-2.34
-2.395
-2.335
-2.425
-2.33
-2.29
-2.32
-2.38
-2.4
-2.555
-2.45
-2.415
-2.43
-2.49
-2.475
-2.465
-2.535
-2.54
-2.495
-2.52
-2.56
-2.495
-2.59
-2.535
-2.49
-2.55
-2.525
-2.6
-2.66
-2.595
-2.625
-2.585
-2.615
-2.58
-2.565
-2.53
-2.585
-2.575
-2.53
-2.605
-2.59
-2.58
-2.66
-2.65
-2.63
-2.505
-2.525
-2.61
-2.56
-2.57
-2.595
-2.6
-2.585
-2.58
-2.545
-2.525
-2.575
-2.585
-2.595
-2.585
-2.6
-2.6
-2.575
-2.57
-2.53
-2.555
-2.595
-2.635
-2.575
-2.555
-2.64
-2.66
-2.555
-2.575
-2.68
-2.61
-2.615
-2.585
-2.585
-2.63
-2.53
-2.515
-2.605
-2.605
-2.58
-2.54
-2.565
-2.535
-2.605
-2.555
-2.705
-2.71
-2.605
-2.615
-2.515
-2.56
-2.625
-2.625
-2.59
-2.59
-2.575
-2.56
-2.595
-2.575
-2.595
-2.62
-2.615
-2.57
-2.625
-2.595
-2.555
-2.545
-2.62
-2.635
-2.655
-2.61
-2.55
-2.525
-2.55
-2.51
-2.595
-2.595
-2.585
-2.605
-2.585
-2.62
-2.595
-2.52
-2.47
-2.49
-2.49
-2.485
-2.47
-2.55
-2.485
-2.5
-2.44
-2.51
-2.49
-2.51
-2.585
-2.505
-2.525
-2.54
-2.565
-2.56
-2.62
-2.58
-2.445
-2.555
-2.57
-2.555
-2.545
-2.6
-2.66
-2.645
-2.545
-2.505
-2.545
-2.655
-2.605
-2.625
-2.63
-2.555
-2.59
-2.635
-2.575
-2.55
-2.555
-2.595
-2.61
-2.58
-2.65
-2.59
-2.58
-2.58
-2.61
-2.7
-2.555
-2.615
-2.64
-2.575
-2.585
-2.55
-2.4
-2.375
-2.25
-2.26
-2.255
-2.22
-2.235
-2.265
-2.34
-2.335
-2.405
-2.515
-2.565
-2.645
-2.765
-2.745
-2.81
-2.805
-2.895
-2.815
-2.805
-2.88
-2.865
-2.785
-2.715
-2.69
-2.73
-2.655
-2.635
-2.655
-2.56
-2.585
-2.62
-2.62
-2.55
-2.63
-2.575
-2.525
-2.555
-2.54
-2.58
-2.65
-2.575
-2.55
-2.605
-2.575
-2.58
-2.52
-2.57
-2.555
-2.465
-2.495
-2.53
-2.51
-2.535
-2.54
-2.5
-2.53
-2.58
-2.54
-2.555
-2.545
-2.51
-2.545
-2.525
-2.495
-2.465
-2.485
-2.495
-2.56
-2.48
-2.475
-2.435
-2.36
-2.405
-2.495
-2.42
-2.42
-2.38
-2.38
-2.42
-2.395
-2.35
-2.315
-2.35
-2.36
-2.32
-2.275
-2.305
-2.255
-2.345
-2.265
-2.255
-2.34
-2.155
-2.225
-2.23
-2.24
-2.29
-2.185
-2.165
-2.235
-2.235
-2.26
-2.245
-2.19
-2.11
-2.16
-2.2
-2.265
-2.195
-2.175
-2.19
-2.19
-2.215
-2.26
-2.27
-2.29
-2.26
-2.27
-2.37
-2.325
-2.33
-2.33
-2.315
-2.38
-2.365
-2.32
-2.48
-2.455
-2.335
-2.38
-2.43
-2.435
-2.42
-2.43
-2.455
-2.425
-2.375
-2.465
-2.43
-2.41
-2.43
-2.43
-2.465
-2.47
-2.475
-2.485
-2.53
-2.44
-2.455
-2.43
-2.39
-2.43
-2.51
-2.45
-2.465
-2.405
-2.39
-2.44
-2.44
-2.41
-2.545
-2.545
-2.485
-2.455
-2.47
-2.355
-2.365
-2.45
-2.41
-2.39
-2.43
-2.415
-2.395
-2.425
-2.465
-2.47
-2.41
-2.405
-2.435
-2.45
-2.435
-2.475
-2.435
-2.485
-2.415
-2.385
-2.39
-2.36
-2.39
-2.415
-2.435
-2.44
-2.535
-2.455
-2.56
-2.55
-2.45
-2.455
-2.43
-2.445
-2.415
-2.345
-2.41
-2.415
-2.34
-2.435
-2.54
-2.45
-2.42
-2.38
-2.4
-2.47
-2.405
-2.4
-2.455
-2.425
-2.405
-2.43
-2.415
-2.455
-2.435
-2.38
-2.42
-2.425
-2.48
-2.48
-2.415
-2.46
-2.405
-2.435
-2.455
-2.385
-2.395
-2.415
-2.45
-2.385
-2.31
-2.34
-2.35
-2.345
-2.4
-2.37
-2.415
-2.39
-2.355
-2.225
-2.265
-2.355
-2.345
-2.315
-2.355
-2.35
-2.315
-2.335
-2.285
-2.245
-2.295
-2.32
-2.355
-2.295
-2.31
-2.37
-2.45
-2.395
-2.345
-2.41
-2.345
-2.425
-2.375
-2.4
-2.3
-2.36
-2.485
-2.385
-2.375
-2.395
-2.45
-2.44
-2.415
-2.425
-2.38
-2.39
-2.375
-2.45
-2.51
-2.46
-2.415
-2.43
-2.325
-2.31
-2.385
-2.405
-2.395
-2.41
-2.41
-2.475
-2.465
-2.445
-2.46
-2.36
-2.295
-2.205
-2.165
-2.06
-1.96
-1.93
-1.945
-2.065
-2.14
-2.13
-2.205
-2.21
-2.265
-2.39
-2.485
-2.55
-2.585
-2.65
-2.59
-2.685
-2.695
-2.68
-2.665
-2.61
-2.56
-2.57
-2.54
-2.49
-2.475
-2.49
-2.475
-2.56
-2.45
-2.36
-2.485
-2.425
-2.365
-2.33
-2.37
-2.35
-2.44
-2.47
-2.38
-2.4
-2.41
-2.485
-2.365
-2.295
-2.36
-2.33
-2.37
-2.37
-2.375
-2.375
-2.4
-2.39
-2.305
-2.315
-2.315
-2.355
-2.335
-2.345
-2.355
-2.365
-2.37
-2.35
-2.305
-2.305
-2.315
-2.34
-2.355
-2.3
-2.275
-2.34
-2.3
-2.27
-2.285
-2.315
-2.2
-2.195
-2.205
-2.135
-2.2
-2.295
-2.25
-2.25
-2.175
-2.135
-2.11
-2.08
-2.035
-2.115
-2.115
-2.14
-2.14
-2.165
-2.185
-2.055
-2.015
-2.055
-2.055
-2.075
-2.055
-2.025
-2.025
-1.985
-1.98
-2.045
-2.09
-2.0
-2.095
-2.14
-2.055
-2.08
-2.035
-2.065
-2.085
-2.075
-2.075
-2.185
-2.035
-2.145
-2.18
-2.2
-2.19
-2.195
-2.195
-2.13
-2.14
-2.265
-2.225
-2.2
-2.245
-2.26
-2.24
-2.35
-2.295
-2.215
-2.265
-2.27
-2.255
-2.235
-2.325
-2.29
-2.35
-2.33
-2.365
-2.285
-2.27
-2.28
-2.275
-2.3
-2.285
-2.265
-2.32
-2.295
-2.335
-2.335
-2.31
-2.3
-2.345
-2.315
-2.23
-2.26
-2.375
-2.355
-2.335
-2.29
-2.33
-2.395
-2.22
-2.205
-2.37
-2.32
-2.34
-2.305
-2.285
-2.3
-2.29
-2.315
-2.32
-2.305
-2.295
-2.28
-2.25
-2.24
-2.27
-2.3
-2.325
-2.295
-2.35
-2.32
-2.345
-2.29
-2.265
-2.3
-2.35
-2.285
-2.345
-2.28
-2.38
-2.345
-2.27
-2.405
-2.385
-2.26
-2.27
-2.225
-2.255
-2.3
-2.32
-2.31
-2.35
-2.355
-2.315
-2.275
-2.245
-2.245
-2.3
-2.3
-2.325
-2.315
-2.29
-2.325
-2.3
-2.25
-2.195
-2.265
-2.28
-2.32
-2.265
-2.275
-2.26
-2.325
-2.305
-2.23
-2.23
-2.18
-2.23
-2.2
-2.34
-2.23
-2.215
-2.215
-2.17
-2.18
-2.18
-2.145
-2.17
-2.205
-2.175
-2.175
-2.215
-2.215
-2.26
-2.275
-2.3
-2.29
-2.3
-2.355
-2.33
-2.295
-2.345
-2.415
-2.325
-2.245
-2.315
-2.255
-2.3
-2.305
-2.27
-2.395
-2.385
-2.28
-2.37
-2.375
-2.285
-2.32
-2.33
-2.27
-2.26
-2.515
-2.33
-2.32
-2.305
-2.26
-2.325
-2.32
-2.34
-2.365
-2.295
-2.305
-2.29
-2.145
-2.02
-1.955
-1.89
-1.89
-1.91
-1.965
-1.915
-1.96
-2.045
-2.135
-2.16
-2.28
-2.365
-2.455
-2.525
-2.555
-2.575
-2.56
-2.625
-2.58
-2.57
-2.675
-2.455
-2.45
-2.38
-2.41
-2.37
-2.335
-2.32
-2.27
-2.28
-2.31
-2.295
-2.255
-2.27
-2.33
-2.32
-2.34
-2.28
-2.295
-2.305
-2.29
-2.295
-2.265
-2.29
-2.3
-2.32
-2.25
-2.245
-2.345
-2.295
-2.3
-2.26
-2.265
-2.29
-2.25
-2.21
-2.23
-2.29
-2.39
-2.265
-2.155
-2.21
-2.195
-2.205
-2.2
-2.22
-2.225
-2.17
-2.155
-2.195
-2.22
-2.155
-2.17
-2.12
-2.11
-2.225
-2.135
-2.09
-2.08
-2.07
-2.115
-2.09
-2.105
-2.07
-2.13
-2.08
-2.045
-2.035
-2.01
-1.965
-1.94
-1.95
-1.92
-1.945
-1.965
-1.92
-1.975
-1.955
-1.955
-1.95
-1.99
-1.95
-1.89
-1.95
-1.86
-1.875
-1.94
-1.885
-1.865
-1.925
-1.905
-1.935
-1.925
-1.94
-1.97
-1.955
-1.995
-1.995
-1.94
-2.045
-2.11
-2.105
-2.01
-2.075
-2.13
-2.11
-2.15
-2.175
-2.12
-2.11
-2.175
-2.125
-2.09
-2.13
-2.185
-2.215
-2.15
-2.175
-2.09
-2.175
-2.215
-2.145
-2.175
-2.135
-2.21
-2.22
-2.18
-2.15
-2.215
-2.155
-2.195
-2.15
-2.205
-2.185
-2.16
-2.195
-2.19
-2.17
-2.145
-2.21
-2.23
-2.195
-2.17
-2.275
-2.28
-2.185
-2.105
-2.25
-2.285
-2.09
-2.1
-2.2
-2.235
-2.175
-2.13
-2.13
-2.15
-2.19
-2.2
-2.21
-2.14
-2.095
-2.21
-2.23
-2.23
-2.2
-2.165
-2.16
-2.185
-2.195
-2.18
-2.205
-2.18
-2.17
-2.215
-2.22
-2.18
-2.15
-2.13
-2.135
-2.225
-2.21
-2.17
-2.18
-2.15
-2.175
-2.185
-2.225
-2.185
-2.11
-2.16
-2.205
-2.19
-2.19
-2.12
-2.195
-2.205
-2.17
-2.215
-2.17
-2.105
-2.11
-2.08
-2.165
-2.17
-2.155
-2.075
-2.11
-2.09
-2.075
-2.025
-2.05
-2.025
-2.035
-2.065
-2.03
-2.065
-2.085
-2.18
-2.105
-2.015
-2.105
-2.08
-2.215
-2.175
-2.095
-2.17
-2.12
-2.1
-2.1
-2.175
-2.17
-2.205
-2.145
-2.145
-2.135
-2.16
-2.2
-2.175
-2.19
-2.15
-2.23
-2.175
-2.155
-2.12
-2.145
-2.125
-2.14
-2.215
-2.22
-2.145
-2.125
-2.145
-2.15
-2.275
-2.15
-2.13
-2.135
-2.175
-2.155
-2.145
-2.145
-2.18
-2.025
-1.875
-1.855
-1.815
-1.755
-1.8
-1.84
-1.825
-1.86
-1.865
-1.94
-2.03
-2.14
-2.23
-2.275
-2.34
-2.345
-2.335
-2.405
-2.4
-2.365
-2.405
-2.315
-2.36
-2.36
-2.265
-2.255
-2.165
-2.18
-2.185
-2.14
-2.08
-2.035
-2.15
-2.21
-2.145
-2.055
-2.135
-2.13
-2.15
-2.15
-2.09
-2.07
-2.085
-2.08
-2.05
-2.0
-2.045
-2.05
-2.135
-2.13
-2.04
-2.095
-2.0
-2.02
-2.07
-2.07
-2.075
-2.06
-2.025
-2.03
-2.045
-2.055
-2.095
-2.085
-1.995
-2.0
-1.985
-2.015
-1.995
-1.99
-2.01
-2.07
-2.02
-1.965
-1.9
-1.95
-1.91
-1.95
-1.96
-1.925
-1.94
-1.93
-1.935
-1.94
-1.895
-1.77
-1.84
-1.81
-1.85
-1.805
-1.815
-1.815
-1.79
-1.765
-1.785
-1.815
-1.775
-1.78
-1.78
-1.805
-1.77
-1.825
-1.8
-1.645
-1.73
-1.72
-1.725
-1.75
-1.775
-1.765
-1.735
-1.785
-1.765
-1.805
-1.76
-1.76
-1.83
-1.875
-1.775
-1.81
-1.85
-1.9
-1.86
-1.965
-1.865
-1.8
-1.84
-1.885
-1.985
-1.93
-1.94
-1.87
-1.95
-2.03
-1.995
-1.975
-1.905
-1.9
-1.965
-1.95
-1.965
-1.985
-1.98
-1.975
-1.965
-1.965
-1.975
-1.975
-1.97
-1.97
-2.0
-1.99
-1.965
-1.97
-1.935
-1.96
-2.015
-2.02
-1.985
-1.96
-2.03
-1.915
-1.875
-2.03
-1.945
-1.93
-2.055
-1.95
-1.875
-1.96
-1.955
-1.945
-1.93
-1.94
-1.96
-2.01
-1.965
-1.96
-2.195
-1.975
-1.885
-1.88
-1.925
-1.98
-1.95
-1.975
-2.0
-2.0
-1.93
-1.95
-1.975
-1.96
-1.965
-1.955
-1.965
-1.97
-2.065
-1.99
-1.93
-2.01
-2.09
-1.89
-1.92
-1.965
-1.97
-1.915
-1.905
-1.965
-1.975
-2.0
-1.96
-1.89
-1.925
-1.96
-1.96
-1.865
-1.87
-1.89
-1.88
-1.875
-1.915
-1.945
-1.97
-1.95
-1.96
-1.87
-1.915
-1.87
-1.91
-1.95
-1.89
-1.88
-1.9
-1.915
-1.955
-2.035
-1.94
-1.9
-1.985
-2.025
-2.035
-1.995
-2.045
-2.01
-1.98
-1.94
-1.935
-1.97
-2.0
-1.985
-1.975
-1.9
-1.965
-2.025
-1.955
-1.965
-2.065
-1.995
-2.07
-1.95
-1.94
-1.975
-2.01
-1.965
-1.925
-1.98
-2.045
-1.99
-1.99
-1.99
-2.0
-1.95
-1.93
-1.805
-1.76
-1.75
-1.715
-1.665
-1.715
-1.745
-1.715
-1.715
-1.755
-1.77
-1.79
-1.945
-2.12
-2.085
-2.115
-2.24
-2.27
-2.205
-2.235
-2.23
-2.205
-2.17
-2.14
-2.125
-2.09
-2.055
-2.04
-2.045
-1.955
-1.975
-1.995
-1.965
-2.025
-1.975
-2.015
-2.02
-1.96
-1.995
-1.975
-2.02
-2.02
-1.92
-2.005
-2.04
-1.975
-1.82
-1.91
-1.89
-1.92
-1.915
-1.925
-1.94
-1.945
-1.875
-1.935
-2.005
-1.85
-1.79
-1.875
-1.945
-1.985
-1.98
-1.93
-1.885
-1.875
-1.915
-1.835
-1.87
-1.85
-1.88
-1.905
-1.865
-1.86
-1.85
-1.83
-1.83
-1.8
-1.83
-1.91
-1.785
-1.7
-1.75
-1.805
-1.795
-1.76
-1.845
-1.825
-1.72
-1.59
-1.69
-1.655
-1.675
-1.7
-1.67
-1.65
-1.655
-1.655
-1.685
-1.665
-1.71
-1.69
-1.645
-1.645
-1.68
-1.675
-1.665
-1.725
-1.67
-1.585
-1.645
-1.665
-1.71
-1.76
-1.705
-1.74
-1.68
-1.74
-1.745
-1.7
-1.795
-1.88
-1.77
-1.705
-1.78
-1.815
-1.815
-1.76
-1.85
-1.875
-1.85
-1.815
-1.825
-1.845
-1.9
-1.85
-1.905
-1.955
-2.015
-1.925
-1.865
-1.93
-1.865
-1.805
-1.85
-1.92
-1.93
-1.965
-1.955
-1.885
-1.92
-1.92
-1.89
-1.89
-1.915
-1.905
-1.88
-1.875
-1.885
-1.87
-1.87
-1.855
-1.9
-1.94
-1.905
-1.905
-1.835
-1.81
-1.88
-1.895
-1.925
-1.865
-1.865
-1.87
-1.96
-1.985
-1.965
-1.845
-1.855
-1.855
-1.85
-1.94
-1.99
-1.98
-1.76
-1.775
-1.915
-1.885
-1.815
-1.825
-1.96
-1.885
-1.86
-1.86
-1.845
-1.925
-1.95
-1.885
-1.88
-1.87
-1.925
-1.91
-1.92
-1.87
-1.86
-1.87
-1.88
-1.885
-1.885
-1.895
-1.9
-1.88
-1.855
-1.96
-1.95
-1.84
-1.855
-1.925
-1.895
-1.825
-1.84
-1.91
-1.87
-1.84
-1.89
-1.76
-1.77
-1.84
-1.865
-1.825
-1.75
-1.77
-1.81
-1.785
-1.75
-1.9
-1.8
-1.72
-1.765
-1.72
-1.825
-1.84
-1.79
-1.82
-1.84
-1.91
-1.9
-1.885
-1.89
-1.885
-1.935
-2.02
-2.015
-1.855
-1.805
-1.805
-1.875
-1.885
-1.835
-1.905
-1.905
-1.92
-1.825
-1.83
-1.85
-1.94
-1.885
-1.885
-1.845
-1.785
-1.93
-1.895
-1.88
-1.83
-1.83
-1.88
-1.85
-1.925
-1.89
-1.95
-1.99
-1.98
-1.895
-1.855
-1.8
-1.7
-1.67
-1.62
-1.535
-1.515
-1.65
-1.635
-1.54
-1.595
-1.64
-1.745
-1.865
-1.97
-2.04
-2.015
-2.055
-2.055
-2.11
-2.125
-2.09
-2.09
-2.095
-2.08
-2.03
-1.985
-1.97
-1.985
-2.01
-1.92
-1.885
-1.87
-1.88
-2.09
-2.015
-1.91
-1.8
-1.815
-1.855
-1.92
-1.825
-1.845
-1.83
-1.845
-1.85
-1.845
-1.88
-1.93
-1.82
-1.94
-1.85
-1.8
-1.765
-1.815
-1.835
-1.805
-1.785
-1.835
-1.875
-1.83
-1.83
-1.81
-1.795
-1.82
-1.83
-1.81
-1.81
-1.845
-1.785
-1.86
-1.83
-1.785
-1.815
-1.86
-1.725
-1.69
-1.76
-1.745
-1.71
-1.66
-1.705
-1.665
-1.715
-1.67
-1.64
-1.66
-1.615
-1.72
-1.62
-1.6
-1.6
-1.66
-1.635
-1.61
-1.68
-1.59
-1.565
-1.57
-1.595
-1.6
-1.64
-1.59
-1.525
-1.51
-1.49
-1.495
-1.6
-1.52
-1.55
-1.585
-1.56
-1.6
-1.61
-1.55
-1.57
-1.59
-1.54
-1.615
-1.56
-1.6
-1.64
-1.625
-1.655
-1.65
-1.695
-1.65
-1.68
-1.655
-1.735
-1.74
-1.715
-1.79
-1.695
-1.735
-1.75
-1.755
-1.715
-1.785
-1.78
-1.76
-1.79
-1.82
-1.845
-1.89
-1.835
-1.695
-1.77
-1.875
-1.795
-1.725
-1.76
-1.79
-1.85
-1.725
-1.745
-1.8
-1.775
-1.775
-1.775
-1.785
-1.79
-1.795
-1.83
-1.76
-1.75
-1.75
-1.795
-1.78
-1.745
-1.77
-1.77
-1.78
-1.785
-1.79
-1.82
-1.77
-1.735
-1.79
-1.915
-1.835
-1.73
-1.76
-1.745
-1.705
-1.715
-1.945
-1.88
-1.805
-1.755
-1.77
-1.83
-1.77
-1.69
-1.745
-1.825
-1.815
-1.785
-1.79
-1.78
-1.79
-1.77
-1.78
-1.755
-1.77
-1.79
-1.785
-1.765
-1.78
-1.805
-1.81
-1.77
-1.785
-1.79
-1.775
-1.835
-1.79
-1.835
-1.81
-1.78
-1.81
-1.87
-1.78
-1.8
-1.815
-1.735
-1.855
-2.0
-1.775
-1.71
-1.71
-1.745
-1.76
-1.765
-1.715
-1.7
-1.825
-1.835
-1.76
-1.8
-1.755
-1.75
-1.74
-1.78
-1.77
-1.745
-1.76
-1.76
-1.75
-1.74
-1.81
-1.77
-1.865
-1.81
-1.65
-1.64
-1.725
-1.725
-1.615
-1.705
-1.67
-1.66
-1.65
-1.675
-1.68
-1.685
-1.71
-1.695
-1.655
-1.72
-1.805
-1.825
-1.675
-1.71
-1.71
-1.815
-1.79
-1.725
-1.775
-1.87
-1.82
-1.725
-1.845
-1.86
-1.74
-1.745
-1.75
-1.775
-1.81
-1.89
-1.795
-1.785
-1.685
-1.77
-1.825
-1.85
-1.78
-1.775
-1.83
-1.765
-1.785
-1.785
-1.76
-1.845
-1.82
-1.81
-1.79
-1.77
-1.745
-1.7
-1.605
-1.53
-1.485
-1.39
-1.395
-1.435
-1.47
-1.61
-1.43
-1.465
-1.575
-1.655
-1.755
-1.82
-1.94
-1.97
-1.99
-2.005
-2.055
-2.055
-2.035
-2.11
-2.045
-1.965
-2.005
-1.855
-1.83
-1.87
-1.815
-1.825
-1.805
-1.795
-1.82
-1.815
-1.76
-1.765
-1.815
-1.84
-1.845
-1.73
-1.71
-1.845
-1.84
-1.785
-1.87
-1.875
-1.76
-1.825
-1.77
-1.75
-1.725
-1.8
-1.77
-1.785
-1.705
-1.73
-1.785
-1.81
-1.775
-1.735
-1.715
-1.805
-1.77
-1.745
-1.7
-1.695
-1.69
-1.69
-1.735
-1.765
-1.8
-1.71
-1.695
-1.695
-1.66
-1.745
-1.75
-1.64
-1.67
-1.645
-1.66
-1.655
-1.615
-1.68
-1.61
-1.555
-1.585
-1.595
-1.565
-1.55
-1.56
-1.5
-1.53
-1.52
-1.52
-1.5
-1.475
-1.485
-1.555
-1.5
-1.45
-1.47
-1.455
-1.405
-1.5
-1.46
-1.425
-1.44
-1.55
-1.455
-1.45
-1.48
-1.445
-1.385
-1.415
-1.43
-1.53
-1.49
-1.49
-1.505
-1.53
-1.56
-1.58
-1.565
-1.525
-1.64
-1.655
-1.575
-1.64
-1.655
-1.595
-1.595
-1.685
-1.74
-1.71
-1.645
-1.64
-1.64
-1.7
-1.645
-1.63
-1.675
-1.76
-1.695
-1.73
-1.765
-1.72
-1.72
-1.66
-1.68
-1.655
-1.72
-1.72
-1.705
-1.71
-1.675
-1.615
-1.65
-1.71
-1.75
-1.7
-1.695
-1.725
-1.67
-1.755
-1.705
-1.74
-1.67
-1.69
-1.655
-1.665
-1.69
-1.585
-1.675
-1.79
-1.685
-1.625
-1.725
-1.68
-1.67
-1.68
-1.71
-1.64
-1.73
-1.68
-1.685
-1.65
-1.685
-1.785
-1.695
-1.65
-1.66
-1.7
-1.685
-1.695
-1.68
-1.715
-1.67
-1.715
-1.645
-1.625
-1.69
-1.83
-1.785
-1.66
-1.715
-1.755
-1.655
-1.66
-1.705
-1.68
-1.815
-1.74
-1.725
-1.64
-1.635
-1.73
-1.685
-1.685
-1.66
-1.675
-1.67
-1.66
-1.7
-1.71
-1.74
-1.715
-1.735
-1.695
-1.675
-1.79
-1.72
-1.765
-1.75
-1.755
-1.665
-1.74
-1.725
-1.64
-1.675
-1.65
-1.71
-1.72
-1.76
-1.7
-1.615
-1.665
-1.675
-1.69
-1.61
-1.65
-1.625
-1.62
-1.595
-1.66
-1.685
-1.645
-1.59
-1.59
-1.615
-1.69
-1.56
-1.495
-1.585
-1.645
-1.585
-1.6
-1.62
-1.61
-1.605
-1.52
-1.55
-1.615
-1.645
-1.705
-1.67
-1.69
-1.77
-1.65
-1.675
-1.835
-1.72
-1.705
-1.74
-1.69
-1.625
-1.705
-1.685
-1.665
-1.675
-1.685
-1.69
-1.7
-1.76
-1.735
-1.695
-1.655
-1.73
-1.76
-1.66
-1.735
-1.74
-1.745
-1.7
-1.705
-1.745
-1.795
-1.79
-1.8
-1.715
-1.69
-1.615
-1.465
-1.41
-1.35
-1.21
-1.26
-1.465
-1.225
-1.26
-1.355
-1.39
-1.495
-1.605
-1.765
-1.84
-1.88
-1.955
-1.99
-2.0
-2.095
-2.0
-1.89
-1.94
-2.0
-1.88
-1.92
-1.8
-1.8
-1.765
-1.74
-1.72
-1.735
-1.715
-1.735
-1.66
-1.7
-1.74
-1.705
-1.73
-1.775
-1.73
-1.745
-1.715
-1.785
-1.71
-1.7
-1.795
-1.82
-1.695
-1.7
-1.7
-1.65
-1.7
-1.705
-1.62
-1.665
-1.715
-1.82
-1.78
-1.73
-1.67
-1.695
-1.66
-1.64
-1.585
-1.68
-1.685
-1.585
-1.605
-1.6
-1.58
-1.565
-1.6
-1.665
-1.715
-1.6
-1.655
-1.625
-1.615
-1.56
-1.56
-1.565
-1.52
-1.59
-1.52
-1.46
-1.51
-1.545
-1.485
-1.5
-1.47
-1.485
-1.46
-1.445
-1.5
-1.47
-1.47
-1.435
-1.36
-1.4
-1.43
-1.35
-1.295
-1.395
-1.415
-1.38
-1.395
-1.43
-1.34
-1.325
-1.34
-1.285
-1.41
-1.42
-1.36
-1.385
-1.405
-1.435
-1.42
-1.43
-1.41
-1.46
-1.46
-1.49
-1.49
-1.52
-1.575
-1.485
-1.545
-1.575
-1.6
-1.55
-1.61
-1.645
-1.635
-1.585
-1.585
-1.61
-1.525
-1.575
-1.58
-1.635
-1.665
-1.62
-1.62
-1.61
-1.58
-1.575
-1.66
-1.645
-1.685
-1.68
-1.795
-1.635
-1.61
-1.605
-1.59
-1.56
-1.64
-1.68
-1.63
-1.645
-1.575
-1.59
-1.65
-1.655
-1.68
-1.6
-1.63
-1.62
-1.59
-1.635
-1.665
-1.615
-1.655
-1.69
-1.675
-1.705
-1.645
-1.605
-1.625
-1.63
-1.63
-1.585
-1.66
-1.685
-1.655
-1.65
-1.65
-1.665
-1.64
-1.635
-1.65
-1.605
-1.605
-1.63
-1.635
-1.6
-1.68
-1.61
-1.625
-1.675
-1.73
-1.67
-1.685
-1.655
-1.675
-1.655
-1.66
-1.66
-1.63
-1.67
-1.63
-1.66
-1.625
-1.67
-1.68
-1.69
-1.69
-1.63
-1.62
-1.64
-1.71
-1.665
-1.665
-1.7
-1.655
-1.62
-1.625
-1.67
-1.71
-1.685
-1.605
-1.645
-1.645
-1.59
-1.68
-1.62
-1.61
-1.63
-1.63
-1.61
-1.66
-1.595
-1.555
-1.58
-1.555
-1.54
-1.52
-1.605
-1.615
-1.625
-1.555
-1.605
-1.645
-1.615
-1.645
-1.63
-1.625
-1.66
-1.74
-1.605
-1.645
-1.725
-1.615
-1.6
-1.7
-1.755
-1.675
-1.64
-1.65
-1.71
-1.71
-1.645
-1.72
-1.755
-1.715
-1.705
-1.675
-1.64
-1.635
-1.64
-1.69
-1.715
-1.68
-1.65
-1.645
-1.62
-1.685
-1.685
-1.685
-1.71
-1.72
-1.69
-1.66
-1.6
-1.475
-1.375
-1.435
-1.36
-1.355
-1.4
-1.435
-1.4
-1.405
-1.415
-1.6
-1.605
-1.645
-1.81
-1.8
-1.82
-1.9
-1.925
-1.89
-1.86
-1.93
-1.955
-1.885
-1.905
-1.735
-1.765
-1.745
-1.78
-1.745
-1.675
-1.685
-1.68
-1.66
-1.65
-1.7
-1.705
-1.74
-1.725
-1.66
-1.6
-1.78
-1.705
-1.595
-1.595
-1.605
-1.605
-1.615
-1.65
-1.65
-1.685
-1.615
-1.66
-1.66
-1.58
-1.585
-1.635
-1.6
-1.62
-1.625
-1.64
-1.66
-1.61
-1.59
-1.52
-1.615
-1.56
-1.65
-1.645
-1.68
-1.655
-1.505
-1.49
-1.51
-1.54
-1.515
-1.545
-1.525
-1.545
-1.58
-1.585
-1.535
-1.495
-1.515
-1.55
-1.495
-1.48
-1.435
-1.45
-1.455
-1.41
-1.39
-1.465
-1.425
-1.395
-1.49
-1.495
-1.33
-1.285
-1.24
-1.365
-1.4
-1.37
-1.325
-1.34
-1.395
-1.34
-1.31
-1.42
-1.36
-1.36
-1.415
-1.345
-1.3
-1.39
-1.4
-1.315
-1.345
-1.485
-1.55
-1.485
-1.425
-1.405
-1.425
-1.465
-1.495
-1.47
-1.47
-1.525
-1.565
-1.54
-1.565
-1.525
-1.51
-1.625
-1.48
-1.51
-1.575
-1.545
-1.545
-1.57
-1.625
-1.58
-1.56
-1.635
-1.6
-1.58
-1.565
-1.65
-1.67
-1.66
-1.615
-1.65
-1.66
-1.555
-1.605
-1.57
-1.53
-1.585
-1.57
-1.63
-1.59
-1.58
-1.59
-1.55
-1.62
-1.6
-1.545
-1.51
-1.55
-1.57
-1.58
-1.595
-1.56
-1.565
-1.59
-1.545
-1.625
-1.71
-1.61
-1.58
-1.61
-1.53
-1.545
-1.595
-1.595
-1.52
-1.58
-1.59
-1.64
-1.545
-1.595
-1.625
-1.59
-1.545
-1.615
-1.58
-1.57
-1.685
-1.57
-1.565
-1.565
-1.635
-1.575
-1.635
-1.565
-1.505
-1.59
-1.59
-1.66
-1.54
-1.565
-1.57
-1.59
-1.64
-1.615
-1.57
-1.585
-1.57
-1.515
-1.61
-1.645
-1.62
-1.635
-1.555
-1.54
-1.545
-1.555
-1.55
-1.515
-1.49
-1.46
-1.535
-1.515
-1.525
-1.51
-1.51
-1.525
-1.495
-1.485
-1.535
-1.52
-1.435
-1.44
-1.445
-1.585
-1.67
-1.605
-1.595
-1.625
-1.54
-1.545
-1.58
-1.605
-1.615
-1.645
-1.6
-1.565
-1.55
-1.585
-1.575
-1.605
-1.575
-1.595
-1.565
-1.605
-1.58
-1.6
-1.56
-1.595
-1.595
-1.615
-1.565
-1.53
-1.55
-1.615
-1.535
-1.625
-1.615
-1.66
-1.63
-1.615
-1.615
-1.63
-1.66
-1.62
-1.475
-1.38
-1.39
-1.325
-1.19
-1.285
-1.255
-1.27
-1.25
-1.29
-1.335
-1.375
-1.445
-1.6
-1.7
-1.74
-1.78
-1.765
-1.845
-1.805
-1.81
-1.83
-1.83
-1.875
-1.805
-1.695
-1.625
-1.655
-1.66
-1.595
-1.64
-1.66
-1.605
-1.585
-1.58
-1.6
-1.535
-1.52
-1.61
-1.59
-1.665
-1.53
-1.59
-1.53
-1.66
-1.675
-1.455
-1.49
-1.535
-1.51
-1.535
-1.54
-1.545
-1.515
-1.495
-1.545
-1.505
-1.525
-1.535
-1.55
-1.53
-1.565
-1.565
-1.49
-1.485
-1.545
-1.545
-1.41
-1.495
-1.55
-1.48
-1.445
-1.48
-1.455
-1.39
-1.44
-1.48
-1.43
-1.37
-1.44
-1.48
-1.48
-1.355
-1.475
-1.365
-1.315
-1.35
-1.33
-1.335
-1.325
-1.31
-1.28
-1.285
-1.295
-1.255
-1.195
-1.225
-1.25
-1.27
-1.25
-1.31
-1.29
-1.21
-1.26
-1.26
-1.285
-1.215
-1.185
-1.23
-1.18
-1.225
-1.305
-1.305
-1.22
-1.245
-1.225
-1.245
-1.325
-1.26
-1.24
-1.31
-1.36
-1.42
-1.365
-1.305
-1.36
-1.295
-1.32
-1.395
-1.455
-1.39
-1.415
-1.44
-1.475
-1.47
-1.385
-1.44
-1.555
-1.58
-1.44
-1.435
-1.425
-1.455
-1.44
-1.445
-1.46
-1.435
-1.47
-1.47
-1.49
-1.465
-1.42
-1.48
-1.535
-1.525
-1.42
-1.455
-1.485
-1.48
-1.555
-1.565
-1.43
-1.45
-1.455
-1.44
-1.455
-1.475
-1.46
-1.435
-1.485
-1.5
-1.515
-1.53
-1.455
-1.43
-1.42
-1.43
-1.46
-1.555
-1.42
-1.485
-1.52
-1.48
-1.43
-1.46
-1.455
-1.45
-1.435
-1.415
-1.48
-1.445
-1.45
-1.465
-1.455
-1.52
-1.54
-1.51
-1.425
-1.54
-1.515
-1.46
-1.455
-1.415
-1.45
-1.54
-1.445
-1.505
-1.485
-1.48
-1.45
-1.51
-1.425
-1.4
-1.485
-1.45
-1.45
-1.49
-1.525
-1.525
-1.43
-1.445
-1.495
-1.465
-1.44
-1.445
-1.48
-1.5
-1.465
-1.475
-1.465
-1.445
-1.46
-1.515
-1.57
-1.52
-1.46
-1.49
-1.44
-1.445
-1.435
-1.48
-1.44
-1.425
-1.47
-1.435
-1.445
-1.485
-1.48
-1.495
-1.475
-1.49
-1.42
-1.495
-1.5
-1.49
-1.44
-1.395
-1.49
-1.44
-1.47
-1.47
-1.445
-1.425
-1.45
-1.475
-1.455
-1.48
-1.485
-1.4
-1.39
-1.55
-1.49
-1.38
-1.315
-1.415
-1.385
-1.435
-1.41
-1.395
-1.405
-1.37
-1.39
-1.38
-1.4
-1.34
-1.41
-1.375
-1.395
-1.295
-1.375
-1.37
-1.355
-1.34
-1.345
-1.335
-1.34
-1.33
-1.41
-1.41
-1.405
-1.395
-1.435
-1.44
-1.455
-1.47
-1.505
-1.51
-1.455
-1.41
-1.42
-1.47
-1.44
-1.45
-1.445
-1.43
-1.39
-1.45
-1.48
-1.385
-1.415
-1.58
-1.51
-1.46
-1.38
-1.445
-1.405
-1.375
-1.39
-1.42
-1.5
-1.495
-1.485
-1.45
-1.415
-1.42
-1.345
-1.255
-1.205
-1.185
-1.185
-1.085
-1.075
-1.18
-1.08
-1.085
-1.205
-1.31
-1.37
-1.465
-1.565
-1.605
-1.635
-1.66
-1.69
-1.595
-1.69
-1.625
-1.685
-1.63
-1.59
-1.535
-1.545
-1.555
-1.515
-1.47
-1.45
-1.43
-1.435
-1.455
-1.485
-1.455
-1.38
-1.405
-1.465
-1.42
-1.425
-1.455
-1.42
-1.415
-1.415
-1.455
-1.465
-1.395
-1.38
-1.355
-1.39
-1.415
-1.4
-1.445
-1.435
-1.385
-1.465
-1.415
-1.365
-1.415
-1.44
-1.38
-1.425
-1.39
-1.375
-1.355
-1.325
-1.265
-1.285
-1.425
-1.345
-1.355
-1.355
-1.33
-1.31
-1.32
-1.345
-1.335
-1.29
-1.325
-1.25
-1.235
-1.325
-1.305
-1.275
-1.255
-1.245
-1.255
-1.175
-1.2
-1.235
-1.215
-1.175
-1.175
-1.155
-1.17
-1.14
-1.125
-1.095
-1.14
-1.275
-1.19
-1.125
-1.15
-1.135
-1.125
-1.055
-1.025
-1.115
-1.045
-1.125
-1.145
-1.135
-1.115
-1.12
-1.16
-1.125
-1.085
-1.075
-1.105
-1.205
-1.205
-1.145
-1.165
-1.185
-1.195
-1.245
-1.29
-1.31
-1.25
-1.21
-1.225
-1.28
-1.345
-1.27
-1.265
-1.245
-1.3
-1.275
-1.345
-1.295
-1.255
-1.375
-1.425
-1.34
-1.355
-1.275
-1.345
-1.28
-1.3
-1.315
-1.355
-1.315
-1.355
-1.315
-1.31
-1.295
-1.39
-1.365
-1.33
-1.31
-1.31
-1.34
-1.295
-1.325
-1.305
-1.315
-1.3
-1.37
-1.37
-1.395
-1.36
-1.375
-1.34
-1.3
-1.32
-1.33
-1.36
-1.355
-1.37
-1.345
-1.265
-1.315
-1.375
-1.355
-1.355
-1.3
-1.31
-1.305
-1.345
-1.33
-1.275
-1.34
-1.385
-1.35
-1.27
-1.24
-1.3
-1.325
-1.315
-1.365
-1.345
-1.36
-1.35
-1.32
-1.325
-1.3
-1.315
-1.285
-1.35
-1.335
-1.345
-1.365
-1.34
-1.345
-1.36
-1.365
-1.355
-1.36
-1.325
-1.3
-1.36
-1.385
-1.375
-1.305
-1.325
-1.305
-1.35
-1.33
-1.355
-1.325
-1.29
-1.37
-1.285
-1.255
-1.36
-1.29
-1.34
-1.355
-1.285
-1.31
-1.37
-1.33
-1.415
-1.395
-1.32
-1.26
-1.275
-1.305
-1.28
-1.36
-1.365
-1.315
-1.25
-1.31
-1.34
-1.315
-1.31
-1.38
-1.285
-1.28
-1.255
-1.325
-1.285
-1.305
-1.345
-1.31
-1.28
-1.29
-1.295
-1.335
-1.32
-1.265
-1.245
-1.33
-1.35
-1.39
-1.305
-1.27
-1.38
-1.265
-1.295
-1.245
-1.27
-1.275
-1.265
-1.295
-1.31
-1.4
-1.3
-1.35
-1.34
-1.235
-1.195
-1.26
-1.255
-1.18
-1.175
-1.23
-1.22
-1.22
-1.255
-1.25
-1.235
-1.265
-1.27
-1.26
-1.155
-1.225
-1.27
-1.185
-1.13
-1.155
-1.125
-1.105
-1.11
-1.16
-1.19
-1.15
-1.245
-1.265
-1.2
-1.235
-1.19
-1.16
-1.215
-1.265
-1.225
-1.245
-1.21
-1.25
-1.245
-1.285
-1.315
-1.27
-1.23
-1.28
-1.22
-1.22
-1.265
-1.32
-1.25
-1.225
-1.275
-1.26
-1.24
-1.215
-1.22
-1.24
-1.295
-1.23
-1.225
-1.24
-1.265
-1.27
-1.275
-1.3
-1.335
-1.21
-1.18
-1.14
-1.095
-0.965
-0.965
-0.865
-0.86
-0.935
-0.985
-1.16
-1.04
-0.935
-1.025
-1.1
-1.285
-1.3
-1.37
-1.35
-1.415
-1.455
-1.475
-1.49
-1.48
-1.47
-1.44
-1.425
-1.405
-1.41
-1.325
-1.31
-1.29
-1.275
-1.225
-1.325
-1.235
-1.265
-1.24
-1.235
-1.24
-1.265
-1.26
-1.2
-1.25
-1.21
-1.185
-1.2
-1.23
-1.235
-1.215
-1.26
-1.21
-1.2
-1.165
-1.235
-1.205
-1.16
-1.19
-1.195
-1.2
-1.165
-1.165
-1.155
-1.15
-1.185
-1.185
-1.155
-1.195
-1.085
-1.165
-1.085
-1.12
-1.17
-1.175
-1.115
-1.1
-1.14
-1.105
-1.125
-1.105
-1.115
-1.05
-1.06
-1.045
-1.075
-1.095
-1.05
-1.035
-1.025
-1.035
-1.03
-0.975
-1.0
-1.025
-0.96
-0.95
-0.995
-0.995
-0.8
-0.88
-0.92
-0.86
-0.87
-0.9
-0.89
-0.865
-0.87
-0.86
-0.815
-0.825
-0.885
-0.895
-0.865
-0.835
-0.87
-0.855
-0.87
-0.845
-0.9
-0.895
-0.925
-0.85
-0.88
-0.91
-0.935
-0.94
-1.06
-0.935
-0.975
-0.985
-0.975
-1.02
-1.025
-1.015
-0.96
-0.945
-1.045
-1.01
-1.085
-1.035
-1.03
-1.14
-1.015
-1.06
-1.12
-1.145
-1.085
-1.035
-1.04
-1.135
-1.02
-1.11
-1.11
-1.08
-1.085
-1.105
-1.045
-1.13
-1.05
-1.07
-1.095
-1.085
-1.095
-1.055
-1.075
-1.085
-1.07
-1.09
-1.08
-1.08
-1.075
-1.09
-1.11
-1.09
-1.11
-1.09
-1.07
-1.06
-1.045
-1.075
-1.09
-1.2
-1.14
-1.08
-1.095
-1.05
-1.07
-1.05
-1.045
-1.055
-1.11
-1.075
-1.11
-1.1
-1.125
-1.05
-1.02
-1.05
-1.09
-1.105
-1.085
-1.075
-1.085
-1.04
-1.055
-1.125
-1.09
-1.02
-1.005
-1.08
-1.06
-1.13
-1.11
-1.05
-1.05
-1.055
-1.06
-1.065
-1.065
-1.11
-1.085
-1.045
-1.045
-1.055
-1.12
-1.125
-1.135
-1.15
-1.04
-1.02
-1.07
-1.075
-1.055
-1.115
-1.06
-1.07
-1.135
-1.145
-1.05
-0.98
-1.11
-0.93
-1.035
-1.025
-1.015
-0.995
-0.96
-1.025
-1.03
-1.04
-1.005
-1.035
-0.98
-0.965
-0.975
-0.97
-0.975
-1.005
-0.955
-0.96
-0.935
-1.075
-0.965
-0.91
-0.9
-0.92
-0.97
-1.01
-1.01
-1.055
-1.095
-1.045
-1.06
-1.075
-1.08
-1.095
-1.04
-1.015
-1.04
-1.075
-1.05
-1.125
-1.095
-1.06
-1.055
-0.98
-1.045
-1.115
-1.09
-1.11
-1.125
-1.02
-1.01
-0.995
-1.045
-1.075
-1.06
-1.06
-1.03
-1.04
-1.035
-1.075
-1.085
-1.04
-0.985
-0.98
-0.95
-0.895
-0.79
-0.765
-0.685
-0.615
-0.705
-0.68
-0.75
-0.79
-0.815
-0.89
-0.97
-1.105
-1.09
-1.205
-1.26
-1.29
-1.28
-1.345
-1.365
-1.315
-1.245
-1.31
-1.31
-1.205
-1.145
-1.135
-1.095
-1.115
-1.055
-1.085
-1.13
-1.09
-1.06
-1.075
-0.965
-0.99
-0.98
-1.09
-0.98
-0.975
-1.03
-1.085
-1.06
-1.08
-1.035
-1.03
-1.03
-1.035
-1.05
-1.01
-1.06
-1.04
-1.01
-1.01
-1.035
-1.01
-1.0
-1.025
-1.005
-0.97
-1.03
-1.08
-1.09
-1.06
-1.0
-1.035
-0.955
-0.91
-0.99
-1.01
-0.91
-0.905
-0.94
-0.94
-0.935
-0.865
-0.9
-0.91
-0.92
-0.935
-0.875
-0.82
-0.85
-0.895
-0.89
-0.88
-0.82
-0.825
-0.775
-0.78
-0.76
-0.78
-0.795
-0.76
-0.81
-0.745
-0.75
-0.725
-0.68
-0.695
-0.755
-0.695
-0.68
-0.725
-0.78
-0.665
-0.645
-0.66
-0.64
-0.655
-0.72
-0.69
-0.7
-0.735
-0.805
-0.74
-0.68
-0.625
-0.7
-0.77
-0.815
-0.79
-0.86
-0.77
-0.84
-0.885
-0.86
-0.885
-0.89
-0.88
-0.92
-0.89
-0.965
-1.02
-0.935
-0.885
-0.955
-0.935
-0.91
-0.92
-0.97
-0.96
-0.925
-0.945
-0.945
-0.98
-0.955
-0.95
-0.96
-1.02
-1.005
-1.035
-0.995
-1.0
-0.98
-0.96
-0.92
-0.925
-0.96
-1.02
-0.97
-0.975
-0.965
-1.015
-0.98
-0.985
-0.91
-0.925
-1.015
-0.97
-0.935
-1.015
-1.02
-0.935
-0.925
-0.975
-1.005
-1.025
-1.005
-0.93
-0.97
-1.025
-0.965
-0.96
-0.925
-0.965
-0.955
-0.93
-0.945
-0.935
-0.98
-1.01
-1.005
-0.93
-0.9
-1.03
-0.925
-0.925
-1.025
-0.935
-0.985
-1.03
-0.95
-0.91
-0.975
-1.04
-0.935
-0.945
-0.925
-0.95
-1.0
-0.97
-0.905
-0.88
-1.03
-1.105
-1.045
-1.055
-1.0
-1.025
-0.93
-0.935
-0.99
-1.015
-0.915
-0.935
-0.965
-0.97
-0.9
-0.945
-0.96
-0.895
-0.97
-0.94
-0.96
-0.895
-0.88
-1.01
-0.985
-0.925
-0.93
-0.875
-0.885
-0.93
-0.87
-0.855
-0.825
-0.84
-0.87
-0.885
-0.84
-0.845
-0.835
-0.79
-0.86
-0.89
-0.835
-0.825
-0.88
-0.93
-0.865
-0.88
-0.905
-0.875
-0.955
-0.975
-0.87
-0.905
-0.925
-0.98
-0.965
-0.98
-0.96
-1.02
-1.01
-0.89
-0.96
-0.995
-0.97
-0.97
-0.98
-0.975
-0.98
-1.005
-0.925
-0.94
-0.945
-1.04
-1.01
-0.99
-0.95
-0.945
-1.025
-1.01
-1.1
-1.055
-1.065
-1.0
-0.995
-0.925
-0.8
-0.7
-0.675
-0.565
-0.495
-0.48
-0.56
-0.57
-0.595
-0.675
-0.675
-0.805
-0.885
-0.945
-1.05
-1.12
-1.15
-1.205
-1.235
-1.21
-1.295
-1.275
-1.275
-1.255
-1.255
-1.15
-1.105
-1.085
-1.09
-1.035
-1.055
-1.035
-1.015
-1.03
-1.0
-0.95
-1.01
-1.025
-1.01
-0.98
-1.0
-0.94
-1.015
-0.965
-0.985
-0.99
-0.995
-0.925
-0.93
-0.985
-1.02
-0.93
-0.97
-0.985
-0.96
-0.925
-0.915
-0.945
-0.92
-0.98
-0.94
-0.9
-0.905
-0.925
-0.955
-0.965
-0.95
-0.905
-0.93
-0.93
-0.905
-0.92
-0.845
-0.825
-0.91
-1.005
-0.965
-0.93
-0.895
-0.845
-0.765
-0.845
-0.765
-0.74
-0.795
-0.8
-0.77
-0.795
-0.77
-0.75
-0.715
-0.74
-0.73
-0.645
-0.7
-0.65
-0.68
-0.635
-0.655
-0.675
-0.66
-0.655
-0.66
-0.61
-0.65
-0.64
-0.63
-0.635
-0.695
-0.655
-0.605
-0.62
-0.685
-0.795
-0.725
-0.62
-0.64
-0.775
-0.66
-0.58
-0.665
-0.775
-0.72
-0.72
-0.715
-0.745
-0.765
-0.815
-0.81
-0.91
-0.865
-0.875
-0.82
-0.83
-0.895
-0.79
-0.845
-0.895
-0.915
-0.855
-0.935
-0.925
-0.925
-0.91
-0.915
-0.955
-0.9
-0.92
-0.93
-0.98
-0.97
-0.965
-0.9
-0.935
-1.01
-1.08
-0.975
-0.995
-0.855
-0.895
-0.935
-0.915
-0.945
-0.855
-0.865
-0.905
-0.94
-0.925
-0.885
-0.895
-0.95
-0.92
-0.9
-0.915
-0.96
-0.94
-0.935
-0.935
-0.9
-0.935
-0.93
-0.93
-0.88
-0.92
-0.91
-0.92
-0.905
-0.93
-0.95
-0.925
-0.93
-0.945
-0.93
-0.88
-0.93
-0.92
-0.88
-1.005
-1.005
-0.945
-0.91
-0.895
-1.005
-0.88
-0.9
-0.915
-0.875
-0.96
-0.945
-0.945
-0.91
-0.93
-0.985
-0.995
-0.985
-0.88
-0.915
-0.915
-0.9
-0.87
-0.885
-0.845
-0.895
-0.88
-0.865
-0.9
-0.89
-0.865
-0.885
-0.885
-0.865
-0.855
-0.795
-0.88
-0.85
-0.825
-0.81
-0.805
-0.815
-0.815
-0.775
-0.84
-0.8
-0.84
-0.845
-0.85
-0.865
-0.855
-0.89
-0.975
-0.89
-0.92
-0.88
-0.9
-0.89
-0.875
-0.835
-0.85
-0.895
-1.0
-0.96
-0.945
-0.93
-0.925
-0.905
-0.915
-0.92
-0.925
-0.9
-0.935
-0.925
-0.905
-0.97
-0.94
-0.92
-0.95
-0.925
-0.92
-0.955
-0.935
-0.88
-0.97
-0.955
-0.98
-0.975
-1.015
-0.94
-0.895
-0.875
-0.905
-0.77
-0.7
-0.555
-0.59
-0.545
-0.6
-0.695
-0.68
-0.7
-0.765
-0.825
-0.88
-1.0
-1.135
-1.135
-1.175
-1.13
-1.125
-1.115
-1.125
-1.19
-1.18
-1.165
-1.09
-1.06
-1.055
-1.035
-1.01
-1.02
-0.985
-0.95
-0.98
-0.915
-0.91
-0.935
-0.95
-0.965
-0.89
-0.935
-0.93
-0.945
-0.875
-0.85
-0.87
-0.975
-0.885
-0.85
-0.88
-0.79
-0.82
-0.845
-0.92
-0.88
-0.895
-0.9
-0.97
-0.935
-0.825
-0.795
-0.82
-0.855
-0.835
-0.825
-0.805
-0.795
-0.795
-0.825
-0.835
-0.835
-0.82
-0.825
-0.815
-0.765
-0.78
-0.82
-0.81
-0.84
-0.735
-0.77
-0.81
-0.77
-0.78
-0.695
-0.645
-0.77
-0.66
-0.645
-0.68
-0.67
-0.66
-0.665
-0.595
-0.61
-0.61
-0.555
-0.57
-0.56
-0.605
-0.645
-0.61
-0.545
-0.505
-0.56
-0.585
-0.54
-0.465
-0.51
-0.52
-0.585
-0.57
-0.53
-0.5
-0.575
-0.575
-0.535
-0.505
-0.535
-0.56
-0.605
-0.605
-0.625
-0.665
-0.655
-0.6
-0.685
-0.72
-0.675
-0.65
-0.735
-0.71
-0.675
-0.73
-0.69
-0.695
-0.71
-0.75
-0.76
-0.8
-0.855
-0.765
-0.81
-0.775
-0.755
-0.74
-0.735
-0.79
-0.775
-0.77
-0.795
-0.815
-0.735
-0.76
-0.765
-0.75
-0.85
-0.925
-0.765
-0.73
-0.795
-0.755
-0.73
-0.76
-0.76
-0.735
-0.755
-0.78
-0.785
-0.795
-0.785
-0.8
-0.8
-0.765
-0.76
-0.78
-0.82
-0.765
-0.75
-0.785
-0.805
-0.845
-0.76
-0.76
-0.81
-0.775
-0.82
-0.735
-0.725
-0.725
-0.73
-0.755
-0.8
-0.825
-0.775
-0.795
-0.84
-0.8
-0.79
-0.79
-0.77
-0.755
-0.695
-0.755
-0.715
-0.79
-0.775
-0.795
-0.725
-0.765
-0.85
-0.875
-0.72
-0.77
-0.77
-0.785
-0.8
-0.8
-0.76
-0.755
-0.76
-0.69
-0.69
-0.71
-0.765
-0.78
-0.68
-0.755
-0.795
-0.71
-0.69
-0.685
-0.675
-0.69
-0.695
-0.695
-0.7
-0.7
-0.735
-0.725
-0.74
-0.81
-0.825
-0.805
-0.83
-0.75
-0.8
-0.745
-0.775
-0.93
-0.83
-0.75
-0.75
-0.79
-0.79
-0.725
-0.88
-0.82
-0.8
-0.73
-0.81
-0.865
-0.86
-0.82
-0.79
-0.815
-0.845
-0.85
-0.845
-0.845
-0.87
-0.93
-0.805
-0.82
-0.79
-0.785
-0.8
-0.835
-0.94
-0.895
-0.785
-0.72
-0.54
-0.57
-0.505
-0.41
-0.43
-0.535
-0.545
-0.525
-0.54
-0.615
-0.68
-0.785
-0.875
-0.94
-0.995
-0.99
-1.035
-1.05
-1.08
-1.06
-1.08
-1.075
-1.07
-1.04
-1.0
-0.955
-0.935
-0.915
-1.01
-0.865
-0.85
-0.835
-0.81
-0.865
-0.865
-0.82
-0.8
-0.9
-0.855
-0.795
-0.825
-0.735
-0.735
-0.87
-0.78
-0.795
-0.84
-0.775
-0.83
-0.785
-0.74
-0.785
-0.775
-0.825
-0.705
-0.77
-0.835
-0.81
-0.775
-0.815
-0.765
-0.785
-0.78
-0.77
-0.75
-0.745
-0.74
-0.7
-0.735
-0.735
-0.71
-0.71
-0.71
-0.72
-0.735
-0.755
-0.745
-0.735
-0.69
-0.715
-0.615
-0.695
-0.635
-0.67
-0.67
-0.635
-0.63
-0.59
-0.565
-0.605
-0.555
-0.615
-0.6
-0.495
-0.525
-0.49
-0.5
-0.475
-0.52
-0.5
-0.49
-0.465
-0.515
-0.5
-0.55
-0.485
-0.48
-0.43
-0.465
-0.49
-0.52
-0.5
-0.52
-0.555
-0.51
-0.49
-0.55
-0.685
-0.535
-0.52
-0.55
-0.615
-0.555
-0.58
-0.6
-0.625
-0.66
-0.625
-0.65
-0.635
-0.685
-0.68
-0.77
-0.745
-0.75
-0.715
-0.725
-0.715
-0.665
-0.73
-0.74
-0.685
-0.72
-0.775
-0.755
-0.785
-0.72
-0.73
-0.9
-0.77
-0.725
-0.685
-0.765
-0.76
-0.795
-0.79
-0.78
-0.77
-0.725
-0.73
-0.735
-0.775
-0.745
-0.74
-0.775
-0.77
-0.775
-0.775
-0.735
-0.74
-0.725
-0.69
-0.71
-0.76
-0.795
-0.73
-0.76
-0.715
-0.88
-0.93
-0.765
-0.705
-0.685
-0.785
-0.635
-0.67
-0.75
-0.845
-0.7
-0.675
-0.735
-0.785
-0.74
-0.765
-0.775
-0.77
-0.72
-0.705
-0.695
-0.74
-0.805
-0.755
-0.755
-0.76
-0.755
-0.745
-0.77
-0.76
-0.795
-0.77
-0.84
-0.79
-0.73
-0.725
-0.775
-0.81
-0.76
-0.695
-0.745
-0.715
-0.705
-0.755
-0.805
-0.67
-0.73
-0.755
-0.81
-0.84
-0.765
-0.75
-0.79
-0.7
-0.7
-0.73
-0.67
-0.735
-0.76
-0.7
-0.715
-0.725
-0.72
-0.72
-0.75
-0.74
-0.705
-0.78
-0.795
-0.74
-0.615
-0.695
-0.675
-0.74
-0.675
-0.585
-0.625
-0.63
-0.65
-0.645
-0.655
-0.63
-0.585
-0.73
-0.665
-0.67
-0.605
-0.665
-0.68
-0.755
-0.785
-0.795
-0.745
-0.71
-0.75
-0.695
-0.765
-0.77
-0.76
-0.8
-0.775
-0.71
-0.695
-0.82
-0.775
-0.77
-0.74
-0.79
-0.785
-0.725
-0.73
-0.765
-0.74
-0.75
-0.775
-0.83
-0.865
-0.74
-0.715
-0.78
-0.76
-0.74
-0.755
-0.78
-0.725
-0.665
-0.58
-0.535
-0.415
-0.39
-0.39
-0.44
-0.365
-0.42
-0.47
-0.495
-0.61
-0.67
-0.745
-0.805
-0.91
-1.01
-0.98
-1.015
-1.025
-1.045
-1.095
-0.93
-0.95
-0.915
-0.975
-1.0
-0.85
-0.71
-0.79
-0.8
-0.89
-0.81
-0.78
-0.745
-0.7
-0.78
-0.79
-0.74
-0.75
-0.765
-0.765
-0.775
-0.76
-0.765
-0.745
-0.705
-0.705
-0.705
-0.745
-0.74
-0.74
-0.78
-0.735
-0.7
-0.74
-0.705
-0.725
-0.725
-0.715
-0.645
-0.73
-0.73
-0.74
-0.705
-0.82
-0.64
-0.635
-0.685
-0.695
-0.745
-0.685
-0.725
-0.645
-0.68
-0.61
-0.56
-0.595
-0.625
-0.625
-0.59
-0.59
-0.545
-0.63
-0.6
-0.58
-0.62
-0.555
-0.645
-0.53
-0.51
-0.5
-0.505
-0.51
-0.54
-0.5
-0.485
-0.44
-0.505
-0.55
-0.405
-0.34
-0.5
-0.44
-0.395
-0.425
-0.37
-0.41
-0.43
-0.445
-0.4
-0.37
-0.4
-0.46
-0.425
-0.385
-0.45
-0.515
-0.465
-0.475
-0.505
-0.495
-0.49
-0.53
-0.56
-0.62
-0.52
-0.475
-0.535
-0.52
-0.59
-0.655
-0.625
-0.625
-0.665
-0.75
-0.56
-0.64
-0.64
-0.745
-0.66
-0.635
-0.615
-0.825
-0.645
-0.685
-0.68
-0.67
-0.735
-0.7
-0.715
-0.715
-0.685
-0.68
-0.685
-0.68
-0.645
-0.675
-0.725
-0.705
-0.71
-0.71
-0.73
-0.715
-0.71
-0.74
-0.76
-0.725
-0.7
-0.665
-0.69
-0.68
-0.665
-0.705
-0.675
-0.65
-0.68
-0.695
-0.66
-0.685
-0.705
-0.7
-0.76
-0.79
-0.68
-0.61
-0.7
-0.69
-0.595
-0.71
-0.685
-0.745
-0.63
-0.615
-0.715
-0.695
-0.7
-0.68
-0.685
-0.72
-0.765
-0.725
-0.695
-0.615
-0.605
-0.68
-0.67
-0.68
-0.71
-0.79
-0.71
-0.685
-0.69
-0.675
-0.68
-0.68
-0.67
-0.68
-0.7
-0.67
-0.815
-0.71
-0.68
-0.745
-0.705
-0.615
-0.64
-0.67
-0.72
-0.715
-0.735
-0.685
-0.73
-0.79
-0.64
-0.63
-0.655
-0.73
-0.685
-0.7
-0.69
-0.7
-0.725
-0.75
-0.67
-0.7
-0.655
-0.685
-0.68
-0.68
-0.655
-0.625
-0.65
-0.635
-0.69
-0.725
-0.62
-0.64
-0.565
-0.61
-0.74
-0.57
-0.695
-0.65
-0.62
-0.545
-0.56
-0.575
-0.595
-0.575
-0.645
-0.625
-0.585
-0.7
-0.6
-0.565
-0.605
-0.63
-0.77
-0.655
-0.685
-0.705
-0.63
-0.62
-0.675
-0.695
-0.745
-0.71
-0.72
-0.705
-0.67
-0.73
-0.745
-0.71
-0.71
-0.645
-0.68
-0.72
-0.73
-0.765
-0.745
-0.71
-0.69
-0.735
-0.765
-0.765
-0.825
-0.82
-0.73
-0.67
-0.755
-0.715
-0.71
-0.68
-0.64
-0.605
-0.47
-0.37
-0.315
-0.31
-0.275
-0.415
-0.365
-0.32
-0.385
-0.555
-0.62
-0.665
-0.715
-0.795
-0.865
-0.95
-0.955
-0.965
-1.01
-1.0
-0.99
-0.97
-0.925
-0.875
-0.885
-0.85
-0.81
-0.84
-0.915
-0.83
-0.745
-0.765
-0.72
-0.73
-0.745
-0.765
-0.755
-0.755
-0.705
-0.675
-0.685
-0.71
-0.705
-0.66
-0.72
-0.805
-0.745
-0.725
-0.67
-0.67
-0.72
-0.73
-0.695
-0.7
-0.71
-0.735
-0.71
-0.725
-0.78
-0.745
-0.62
-0.615
-0.735
-0.74
-0.645
-0.675
-0.695
-0.665
-0.665
-0.655
-0.68
-0.65
-0.61
-0.63
-0.675
-0.73
-0.625
-0.64
-0.575
-0.575
-0.58
-0.58
-0.57
-0.545
-0.55
-0.535
-0.55
-0.5
-0.555
-0.51
-0.505
-0.54
-0.5
-0.485
-0.465
-0.42
-0.395
-0.38
-0.375
-0.4
-0.43
-0.415
-0.48
-0.47
-0.445
-0.38
-0.415
-0.42
-0.32
-0.37
-0.35
-0.365
-0.425
-0.41
-0.44
-0.44
-0.41
-0.355
-0.4
-0.46
-0.46
-0.47
-0.49
-0.565
-0.545
-0.525
-0.53
-0.49
-0.545
-0.56
-0.63
-0.63
-0.565
-0.605
-0.56
-0.63
-0.65
-0.585
-0.585
-0.725
-0.73
-0.625
-0.65
-0.725
-0.7
-0.65
-0.62
-0.665
-0.635
-0.66
-0.68
-0.785
-0.745
-0.685
-0.68
-0.68
-0.64
-0.68
-0.695
-0.665
-0.695
-0.68
-0.665
-0.7
-0.735
-0.64
-0.65
-0.685
-0.68
-0.67
-0.61
-0.67
-0.75
-0.605
-0.605
-0.655
-0.76
-0.725
-0.73
-0.685
-0.735
-0.68
-0.685
-0.71
-0.64
-0.635
-0.685
-0.7
-0.65
-0.68
-0.66
-0.675
-0.735
-0.73
-0.635
-0.675
-0.685
-0.72
-0.66
-0.69
-0.69
-0.655
-0.655
-0.795
-0.84
-0.685
-0.685
-0.715
-0.65
-0.655
-0.695
-0.695
-0.66
-0.645
-0.645
-0.755
-0.765
-0.655
-0.67
-0.775
-0.72
-0.605
-0.695
-0.735
-0.7
-0.66
-0.73
-0.74
-0.71
-0.71
-0.685
-0.745
-0.71
-0.69
-0.675
-0.685
-0.69
-0.665
-0.695
-0.77
-0.785
-0.765
-0.665
-0.72
-0.71
-0.675
-0.68
-0.715
-0.665
-0.66
-0.74
-0.73
-0.72
-0.715
-0.76
-0.7
-0.705
-0.77
-0.71
-0.6
-0.765
-0.755
-0.655
-0.64
-0.74
-0.79
-0.71
-0.68
-0.68
-0.67
-0.7
-0.74
-0.735
-0.685
-0.68
-0.795
-0.73
-0.745
-0.705
-0.71
-0.755
-0.665
-0.74
-0.715
-0.695
-0.735
-0.745
-0.73
-0.71
-0.71
-0.745
-0.735
-0.72
-0.715
-0.73
-0.71
-0.695
-0.68
-0.735
-0.71
-0.725
-0.74
-0.725
-0.655
-0.62
-0.685
-0.81
-0.77
-0.71
-0.71
-0.71
-0.775
-0.725
-0.755
-0.74
-0.665
-0.715
-0.685
-0.665
-0.675
-0.695
-0.715
-0.68
-0.705
-0.695
-0.77
-0.725
-0.755
-0.72
-0.75
-0.71
-0.695
-0.71
-0.735
-0.72
-0.705
-0.73
-0.735
-0.72
-0.715
-0.7
-0.655
-0.705
-0.77
-0.705
-0.685
-0.67
-0.74
-0.765
-0.765
-0.74
-0.77
-0.825
-0.725
-0.625
-0.71
-0.685
-0.665
-0.74
-0.7
-0.69
-0.785
-0.74
-0.75
-0.685
-0.71
-0.705
-0.73
-0.7
-0.7
-0.735
-0.705
-0.74
-0.71
-0.76
-0.745
-0.695
-0.73
-0.76
-0.695
-0.675
-0.76
-0.78
-0.74
-0.685
-0.735
-0.73
-0.69
-0.75
-0.785
-0.74
-0.685
-0.7
-0.68
-0.75
-0.665
-0.68
-0.69
-0.725
-0.75
-0.76
-0.725
-0.71
-0.66
-0.76
-0.75
-0.72
-0.705
-0.735
-0.72
-0.725
-0.82
-0.815
-0.745
-0.65
-0.695
-0.77
-0.77
-0.73
-0.795
-0.715
-0.68
-0.7
-0.645
-0.675
-0.675
-0.71
-0.675
-0.655
-0.685
-0.665
-0.655
-0.645
-0.595
-0.615
-0.61
-0.65
-0.6
-0.55
-0.59
-0.57
-0.66
-0.61
-0.625
-0.6
-0.615
-0.63
-0.675
-0.645
-0.585
-0.695
-0.635
-0.655
-0.685
-0.65
-0.69
-0.59
-0.61
-0.6
-0.66
-0.75
-0.74
-0.7
-0.72
-0.765
-0.77
-0.725
-0.76
-0.835
-0.725
-0.7
-0.72
-0.735
-0.71
-0.735
-0.735
-0.69
-0.735
-0.785
-0.735
-0.77
-0.785
-0.815
-0.71
-0.615
-0.555
-0.48
-0.35
-0.345
-0.25
-0.29
-0.405
-0.29
-0.44
-0.335
-0.36
-0.595
-0.7
-0.815
-0.92
-0.96
-1.01
-0.98
-0.935
-1.015
-1.005
-0.97
-0.965
-1.005
-0.995
-0.91
-0.895
-0.82
-0.79
-0.765
-0.735
-0.72
-0.775
-0.745
-0.725
-0.72
-0.755
-0.785
-0.725
-0.74
-0.74
-0.75
-0.785
-0.685
-0.715
-0.79
-0.775
-0.76
-0.725
-0.725
-0.705
-0.695
-0.67
-0.695
-0.74
-0.735
-0.71
-0.775
-0.74
-0.78
-0.785
-0.64
-0.61
-0.775
-0.69
-0.665
-0.695
-0.69
-0.64
-0.69
-0.645
-0.64
-0.645
-0.705
-0.695
-0.67
-0.66
-0.635
-0.655
-0.59
-0.615
-0.64
-0.625
-0.675
-0.645
-0.625
-0.63
-0.58
-0.58
-0.565
-0.56
-0.495
-0.51
-0.545
-0.475
-0.48
-0.515
-0.6
-0.625
-0.5
-0.445
-0.435
-0.45
-0.445
-0.465
-0.44
-0.36
-0.4
-0.49
-0.45
-0.435
-0.43
-0.45
-0.395
-0.355
-0.4
-0.49
-0.525
-0.465
-0.445
-0.41
-0.46
-0.45
-0.43
-0.49
-0.505
-0.45
-0.415
-0.49
-0.58
-0.595
-0.51
-0.485
-0.585
-0.545
-0.545
-0.54
-0.53
-0.65
-0.58
-0.595
-0.65
-0.61
-0.64
-0.6
-0.605
-0.62
-0.67
-0.71
-0.655
-0.62
-0.63
-0.68
-0.715
-0.69
-0.63
-0.65
-0.69
-0.685
-0.67
-0.695
-0.64
-0.785
-0.675
-0.6
-0.65
-0.675
-0.69
-0.675
-0.64
-0.69
-0.71
-0.73
-0.705
-0.705
-0.685
-0.64
-0.73
-0.685
-0.68
-0.605
-0.635
-0.615
-0.725
-0.78
-0.67
-0.68
-0.64
-0.68
-0.685
-0.665
-0.755
-0.655
-0.645
-0.705
-0.67
-0.69
-0.675
-0.67
-0.66
-0.64
-0.68
-0.675
-0.665
-0.685
-0.705
-0.665
-0.69
-0.71
-0.655
-0.635
-0.64
-0.72
-0.73
-0.66
-0.625
-0.66
-0.65
-0.63
-0.65
-0.675
-0.65
-0.66
-0.675
-0.72
-0.715
-0.715
-0.65
-0.66
-0.69
-0.7
-0.71
-0.65
-0.635
-0.665
-0.655
-0.69
-0.68
-0.645
-0.625
-0.645
-0.675
-0.62
-0.665
-0.645
-0.625
-0.71
-0.655
-0.68
-0.66
-0.7
-0.735
-0.7
-0.635
-0.62
-0.64
-0.66
-0.66
-0.645
-0.595
-0.685
-0.69
-0.79
-0.675
-0.66
-0.635
-0.635
-0.695
-0.665
-0.675
-0.655
-0.66
-0.68
-0.67
-0.62
-0.645
-0.68
-0.7
-0.685
-0.685
-0.655
-0.76
-0.73
-0.615
-0.615
-0.665
-0.655
-0.655
-0.64
-0.61
-0.585
-0.625
-0.64
-0.645
-0.72
-0.725
-0.68
-0.65
-0.69
-0.68
-0.61
-0.635
-0.63
-0.675
-0.765
-0.67
-0.72
-0.665
-0.595
-0.585
-0.63
-0.63
-0.675
-0.68
-0.64
-0.645
-0.665
-0.61
-0.59
-0.62
-0.64
-0.67
-0.705
-0.645
-0.605
-0.625
-0.625
-0.59
-0.565
-0.69
-0.65
-0.65
-0.64
-0.625
-0.59
-0.58
-0.59
-0.605
-0.565
-0.605
-0.59
-0.58
-0.645
-0.54
-0.55
-0.52
-0.52
-0.555
-0.615
-0.51
-0.51
-0.48
-0.5
-0.505
-0.505
-0.51
-0.53
-0.57
-0.545
-0.56
-0.555
-0.62
-0.595
-0.61
-0.59
-0.61
-0.595
-0.61
-0.65
-0.575
-0.58
-0.67
-0.635
-0.645
-0.6
-0.66
-0.675
-0.64
-0.605
-0.625
-0.615
-0.635
-0.58
-0.67
-0.685
-0.63
-0.62
-0.615
-0.69
-0.565
-0.62
-0.63
-0.63
-0.615
-0.68
-0.655
-0.55
-0.505
-0.43
-0.345
-0.24
-0.23
-0.285
-0.355
-0.33
-0.36
-0.405
-0.58
-0.6
-0.655
-0.655
-0.74
-0.865
-0.825
-0.84
-0.825
-0.87
-0.92
-0.935
-0.895
-0.83
-0.83
-0.835
-0.755
-0.77
-0.73
-0.72
-0.705
-0.605
-0.715
-0.62
-0.61
-0.595
-0.56
-0.54
-0.625
-0.705
-0.61
-0.595
-0.645
-0.585
-0.605
-0.61
-0.66
-0.625
-0.605
-0.57
-0.64
-0.59
-0.575
-0.595
-0.58
-0.59
-0.605
-0.59
-0.595
-0.56
-0.57
-0.555
-0.59
-0.55
-0.56
-0.535
-0.595
-0.645
-0.56
-0.57
-0.545
-0.51
-0.535
-0.52
-0.58
-0.55
-0.505
-0.475
-0.465
-0.51
-0.53
-0.495
-0.465
-0.495
-0.46
-0.46
-0.415
-0.47
-0.455
-0.36
-0.37
-0.38
-0.455
-0.42
-0.335
-0.3
-0.39
-0.355
-0.345
-0.36
-0.34
-0.3
-0.305
-0.38
-0.295
-0.295
-0.29
-0.315
-0.345
-0.39
-0.33
-0.285
-0.265
-0.295
-0.28
-0.28
-0.265
-0.32
-0.225
-0.265
-0.335
-0.29
-0.38
-0.38
-0.315
-0.395
-0.475
-0.4
-0.385
-0.395
-0.3
-0.395
-0.4
-0.445
-0.435
-0.44
-0.5
-0.49
-0.495
-0.52
-0.495
-0.465
-0.47
-0.495
-0.52
-0.545
-0.56
-0.595
-0.59
-0.57
-0.57
-0.55
-0.58
-0.615
-0.55
-0.565
-0.52
-0.54
-0.58
-0.62
-0.57
-0.535
-0.535
-0.565
-0.53
-0.585
-0.57
-0.575
-0.595
-0.625
-0.51
-0.495
-0.62
-0.66
-0.565
-0.52
-0.6
-0.535
-0.51
-0.54
-0.56
-0.555
-0.53
-0.52
-0.56
-0.54
-0.565
-0.575
-0.575
-0.62
-0.58
-0.64
-0.59
-0.575
-0.565
-0.605
-0.535
-0.605
-0.575
-0.545
-0.45
-0.555
-0.595
-0.625
-0.615
-0.59
-0.65
-0.585
-0.57
-0.58
-0.52
-0.54
-0.54
-0.555
-0.57
-0.625
-0.595
-0.585
-0.55
-0.545
-0.6
-0.655
-0.645
-0.61
-0.65
-0.565
-0.54
-0.63
-0.69
-0.575
-0.65
-0.62
-0.6
-0.595
-0.64
-0.63
-0.605
-0.59
-0.63
-0.58
-0.455
-0.63
-0.63
-0.555
-0.57
-0.595
-0.615
-0.59
-0.61
-0.595
-0.585
-0.585
-0.585
-0.62
-0.655
-0.615
-0.625
-0.635
-0.57
-0.545
-0.585
-0.6
-0.63
-0.545
-0.53
-0.58
-0.585
-0.53
-0.575
-0.64
-0.555
-0.545
-0.615
-0.62
-0.565
-0.545
-0.45
-0.51
-0.45
-0.495
-0.5
-0.47
-0.495
-0.5
-0.545
-0.5
-0.5
-0.52
-0.535
-0.49
-0.49
-0.515
-0.59
-0.58
-0.62
-0.645
-0.585
-0.585
-0.545
-0.595
-0.615
-0.64
-0.62
-0.565
-0.605
-0.645
-0.65
-0.645
-0.61
-0.625
-0.635
-0.685
-0.6
-0.555
-0.63
-0.63
-0.63
-0.625
-0.615
-0.59
-0.595
-0.675
-0.65
-0.65
-0.65
-0.63
-0.65
-0.665
-0.625
-0.565
-0.515
-0.485
-0.355
-0.29
-0.255
-0.29
-0.335
-0.31
-0.34
-0.35
-0.435
-0.505
-0.67
-0.695
-0.755
-0.905
-0.835
-0.875
-0.835
-0.805
-0.835
-0.86
-0.875
-1.0
-0.855
-0.76
-0.765
-0.695
-0.705
-0.68
-0.665
-0.67
-0.65
-0.63
-0.625
-0.695
-0.64
-0.66
-0.665
-0.585
-0.6
-0.63
-0.58
-0.585
-0.61
-0.6
-0.635
-0.6
-0.565
-0.6
-0.65
-0.585
-0.56
-0.615
-0.7
-0.665
-0.575
-0.605
-0.51
-0.56
-0.55
-0.605
-0.655
-0.67
-0.555
-0.53
-0.535
-0.555
-0.545
-0.585
-0.625
-0.505
-0.45
-0.53
-0.525
-0.555
-0.575
-0.495
-0.43
-0.51
-0.515
-0.475
-0.475
-0.475
-0.54
-0.505
-0.49
-0.58
-0.475
-0.4
-0.295
-0.32
-0.305
-0.335
-0.385
-0.325
-0.295
-0.34
-0.425
-0.325
-0.31
-0.31
-0.29
-0.295
-0.305
-0.34
-0.315
-0.255
-0.18
-0.21
-0.25
-0.255
-0.24
-0.28
-0.26
-0.27
-0.265
-0.28
-0.38
-0.355
-0.27
-0.34
-0.32
-0.43
-0.36
-0.305
-0.335
-0.335
-0.39
-0.435
-0.415
-0.415
-0.385
-0.42
-0.46
-0.495
-0.515
-0.59
-0.5
-0.435
-0.455
-0.5
-0.54
-0.53
-0.565
-0.515
-0.535
-0.53
-0.55
-0.555
-0.57
-0.555
-0.56
-0.52
-0.63
-0.71
-0.62
-0.49
-0.545
-0.565
-0.565
-0.48
-0.55
-0.555
-0.515
-0.52
-0.54
-0.565
-0.54
-0.585
-0.57
-0.55
-0.55
-0.56
-0.725
-0.585
-0.51
-0.515
-0.505
-0.495
-0.565
-0.555
-0.545
-0.565
-0.56
-0.525
-0.6
-0.575
-0.595
-0.605
-0.51
-0.605
-0.595
-0.485
-0.515
-0.59
-0.565
-0.53
-0.54
-0.475
-0.52
-0.62
-0.61
-0.55
-0.475
-0.53
-0.6
-0.55
-0.53
-0.525
-0.515
-0.575
-0.605
-0.57
-0.555
-0.575
-0.61
-0.575
-0.56
-0.555
-0.54
-0.56
-0.575
-0.615
-0.59
-0.535
-0.535
-0.545
-0.63
-0.625
-0.555
-0.505
-0.535
-0.51
-0.56
-0.56
-0.57
-0.56
-0.57
-0.55
-0.595
-0.585
-0.525
-0.54
-0.58
-0.56
-0.56
-0.505
-0.57
-0.565
-0.57
-0.595
-0.55
-0.57
-0.555
-0.495
-0.58
-0.54
-0.56
-0.52
-0.505
-0.54
-0.525
-0.495
-0.55
-0.52
-0.535
-0.46
-0.51
-0.47
-0.45
-0.395
-0.445
-0.425
-0.405
-0.4
-0.425
-0.495
-0.495
-0.45
-0.425
-0.475
-0.445
-0.475
-0.495
-0.56
-0.49
-0.54
-0.54
-0.52
-0.535
-0.535
-0.555
-0.64
-0.61
-0.485
-0.58
-0.65
-0.505
-0.585
-0.61
-0.575
-0.58
-0.535
-0.535
-0.58
-0.55
-0.515
-0.525
-0.625
-0.55
-0.54
-0.62
-0.59
-0.565
-0.53
-0.57
-0.6
-0.58
-0.575
-0.645
-0.555
-0.55
-0.44
-0.505
-0.44
-0.3
-0.18
-0.14
-0.145
-0.2
-0.2
-0.22
-0.28
-0.33
-0.41
-0.545
-0.73
-0.75
-0.755
-0.76
-0.82
-0.825
-0.815
-0.85
-0.82
-0.77
-0.785
-0.755
-0.685
-0.725
-0.7
-0.61
-0.6
-0.615
-0.56
-0.535
-0.635
-0.58
-0.675
-0.58
-0.63
-0.63
-0.545
-0.55
-0.595
-0.55
-0.49
-0.565
-0.565
-0.565
-0.535
-0.55
-0.54
-0.59
-0.58
-0.495
-0.54
-0.57
-0.555
-0.57
-0.57
-0.525
-0.565
-0.545
-0.62
-0.5
-0.53
-0.505
-0.48
-0.49
-0.545
-0.51
-0.5
-0.52
-0.56
-0.5
-0.495
-0.47
-0.585
-0.425
-0.445
-0.485
-0.5
-0.48
-0.46
-0.36
-0.385
-0.395
-0.44
-0.385
-0.39
-0.43
-0.405
-0.345
-0.36
-0.36
-0.34
-0.35
-0.27
-0.235
-0.275
-0.295
-0.27
-0.255
-0.24
-0.255
-0.23
-0.215
-0.2
-0.22
-0.24
-0.23
-0.25
-0.24
-0.165
-0.33
-0.22
-0.195
-0.25
-0.245
-0.24
-0.205
-0.27
-0.245
-0.22
-0.305
-0.25
-0.215
-0.32
-0.3
-0.32
-0.37
-0.38
-0.345
-0.345
-0.34
-0.405
-0.45
-0.45
-0.475
-0.47
-0.425
-0.465
-0.495
-0.525
-0.46
-0.48
-0.52
-0.515
-0.48
-0.525
-0.545
-0.485
-0.61
-0.54
-0.515
-0.49
-0.505
-0.475
-0.485
-0.455
-0.46
-0.485
-0.515
-0.505
-0.49
-0.505
-0.56
-0.495
-0.51
-0.5
-0.465
-0.575
-0.515
