# TIPE ECG 2021 - ECG-ID Database v1.0.0 par Physionet
# [N° de la personne, N° de l'enregistrement, Période d'échantillonnage, Prénom, Age, Sexe, Date de l'enregistrement]
[9, 2, 0.002, "Clara", 23, "F", "15.03.2005"]
0.035
-0.01
-0.065
-0.015
0.1
0.25
0.175
0.225
0.165
0.15
-0.06
-0.1
-0.075
0.015
0.115
0.22
0.235
0.28
0.205
0.21
0.005
-0.075
-0.115
-0.08
0.06
0.23
0.395
0.37
0.29
0.245
0.08
-0.06
0.06
0.09
0.175
0.235
0.335
0.295
0.23
0.175
0.065
-0.03
-0.035
0.035
0.16
0.29
0.35
0.415
0.285
0.125
0.03
0.065
0.015
0.165
0.2
0.255
0.3
0.27
0.25
0.42
0.28
0.125
-0.02
0.18
0.315
0.48
0.58
0.38
0.345
0.265
0.1
0.085
0.175
0.205
0.355
0.475
0.53
0.5
0.575
0.41
0.31
0.295
0.355
0.38
0.59
0.65
0.75
0.79
0.615
0.4
0.39
0.46
0.605
0.685
0.775
0.655
0.58
0.64
0.62
0.5
0.49
0.505
0.54
0.48
0.66
0.73
0.875
0.81
0.695
0.45
0.475
0.395
0.475
0.555
0.695
0.685
0.64
0.545
0.505
0.395
0.42
0.2
0.17
0.215
0.335
0.4
0.535
0.36
0.305
0.22
0.17
0.175
0.145
0.165
0.305
0.395
0.335
0.295
0.34
0.25
0.11
0.005
0.08
0.17
0.27
0.385
0.405
0.235
0.21
0.055
0.005
0.045
0.08
0.105
0.235
0.345
0.375
0.315
0.32
0.26
0.12
0.105
0.175
0.115
0.23
0.22
0.31
0.305
0.11
-0.02
0.035
-0.01
0.06
0.185
0.235
0.345
0.495
0.37
0.185
0.04
-0.05
-0.03
0.175
0.12
0.325
0.335
0.305
0.2
0.175
0.135
0.025
-0.045
0.015
0.1
0.33
0.35
0.395
0.26
0.21
0.11
-0.015
0.015
0.05
0.125
0.29
0.43
0.27
0.305
0.175
0.14
0.135
0.07
-0.005
0.17
0.245
0.275
0.355
0.335
0.12
-0.005
-0.015
-0.07
-0.01
0.095
0.33
0.375
0.29
0.275
0.135
0.015
-0.2
0.04
0.25
0.08
0.17
0.25
0.505
0.27
0.22
-0.105
-0.125
0.205
0.03
0.175
0.445
0.31
0.445
0.2
0.11
0.12
0.06
0.08
-0.025
0.14
0.34
0.38
0.315
0.24
0.09
0.015
0.015
0.055
0.16
0.275
0.4
0.38
0.36
0.17
0.025
0.06
0.07
0.195
0.135
0.245
0.35
0.39
0.28
0.19
0.045
-0.03
0.035
-0.01
0.09
0.315
0.37
0.26
0.255
0.29
0.155
-0.035
0.045
0.145
0.165
0.32
0.415
0.43
0.4
0.335
0.12
-0.02
0.095
0.155
0.19
0.41
0.48
0.525
0.635
0.425
0.16
0.005
0.03
0.06
0.295
0.41
0.4
0.38
0.465
0.335
0.215
0.14
0.115
0.145
0.24
0.435
0.52
0.375
0.295
0.205
0.055
-0.025
-0.015
0.045
0.13
0.275
0.335
0.385
0.285
0.235
0.13
-0.01
0.115
0.11
0.175
0.33
0.445
0.335
0.175
0.11
0.005
-0.055
-0.065
0.04
0.14
0.285
0.405
0.455
0.335
0.185
0.065
0.02
0.06
-0.055
0.19
0.355
0.375
0.32
0.25
0.2
0.085
0.0
-0.04
0.105
0.215
0.33
0.36
0.37
0.345
0.135
0.165
0.19
0.245
0.325
0.5
0.6
0.695
0.865
0.91
0.68
0.595
0.49
0.53
0.295
0.49
0.28
0.315
0.32
0.125
-0.135
-0.285
-0.29
-0.23
-0.125
-0.04
0.11
0.18
0.245
0.2
-0.035
-0.19
-0.13
0.035
0.15
0.245
0.32
0.305
0.32
0.295
0.2
0.05
0.035
0.045
0.145
0.375
0.49
0.335
0.23
0.285
0.205
0.08
0.04
0.1
0.175
0.355
0.455
0.415
0.365
0.28
0.175
0.14
0.165
0.135
0.165
0.35
0.485
0.435
0.4
0.45
0.275
0.2
0.135
0.175
0.19
0.265
0.47
0.46
0.4
0.36
0.205
0.145
0.095
0.185
0.245
0.575
0.535
0.58
0.48
0.41
0.255
0.12
0.075
0.23
0.265
0.38
0.455
0.515
0.555
0.38
0.285
0.37
0.265
0.4
0.45
0.575
0.695
0.56
0.565
0.575
0.475
0.48
0.44
0.405
0.43
0.65
0.715
0.82
0.805
0.545
0.525
0.51
0.645
0.475
0.67
0.85
0.955
0.98
0.81
0.725
0.64
0.605
0.595
0.695
0.815
0.82
0.93
0.89
0.825
0.7
0.69
0.575
0.55
0.52
0.695
0.825
0.875
0.87
0.74
0.545
0.525
0.365
0.27
0.41
0.525
0.61
0.625
0.615
0.48
0.385
0.25
0.335
0.2
0.345
0.41
0.52
0.49
0.525
0.445
0.355
0.265
0.145
0.125
0.215
0.495
0.46
0.425
0.41
0.425
0.245
0.095
0.16
0.075
0.15
0.32
0.41
0.5
0.45
0.335
0.205
0.145
0.2
0.25
0.365
0.43
0.465
0.47
0.465
0.41
0.355
0.18
0.115
0.125
0.21
0.29
0.45
0.47
0.445
0.345
0.25
0.19
0.14
0.15
0.26
0.58
0.535
0.435
0.415
0.36
0.34
0.21
0.055
0.185
0.295
0.41
0.52
0.51
0.425
0.375
0.23
0.16
0.13
0.195
0.26
0.47
0.335
0.435
0.42
0.31
0.2
0.23
0.19
0.155
0.295
0.285
0.3
0.36
0.405
0.26
0.21
0.14
0.115
0.115
0.22
0.34
0.5
0.505
0.525
0.32
0.175
0.175
0.105
0.14
0.21
0.295
0.38
0.47
0.395
0.335
0.185
0.02
0.06
0.105
0.31
0.475
0.415
0.495
0.47
0.275
0.125
0.095
0.12
0.22
0.235
0.435
0.43
0.435
0.345
0.25
0.115
0.195
0.04
-0.01
0.295
0.45
0.47
0.475
0.38
0.205
0.21
0.085
0.125
0.125
0.29
0.465
0.425
0.46
0.465
0.405
0.215
0.155
0.1
0.18
0.27
0.39
0.405
0.34
0.33
0.18
0.11
0.1
0.08
0.17
0.55
0.62
0.455
0.425
0.435
0.29
0.24
0.195
0.24
0.295
0.31
0.455
0.44
0.395
0.395
0.345
0.295
0.29
0.205
0.3
0.4
0.375
0.455
0.395
0.365
0.185
0.145
0.185
0.205
0.18
0.225
0.42
0.385
0.38
0.315
0.41
0.175
0.04
0.08
0.16
0.315
0.37
0.425
0.345
0.37
0.14
0.16
0.105
0.16
0.215
0.35
0.445
0.52
0.385
0.375
0.2
0.14
0.055
0.105
0.235
0.25
0.36
0.395
0.34
0.28
0.165
0.065
0.05
0.155
0.23
0.37
0.395
0.37
0.615
0.37
0.13
0.095
0.12
0.325
0.41
0.555
0.64
0.76
0.865
0.825
0.77
0.655
0.615
0.71
0.505
0.485
0.47
0.345
0.275
0.16
-0.055
-0.21
-0.2
-0.115
0.035
0.135
0.2
0.215
0.225
0.11
0.12
0.06
-0.145
0.06
0.245
0.32
0.48
0.405
0.4
0.25
0.155
0.115
0.115
0.19
0.285
0.33
0.45
0.465
0.305
0.3
0.34
0.245
0.345
0.27
0.29
0.36
0.405
0.39
0.34
0.19
0.155
0.055
0.125
0.16
0.345
0.505
0.445
0.435
0.345
0.275
0.265
0.155
0.125
0.2
0.33
0.365
0.555
0.445
0.465
0.285
0.125
0.12
0.17
0.33
0.435
0.45
0.6
0.535
0.48
0.465
0.245
0.11
0.175
0.285
0.425
0.515
0.56
0.525
0.42
0.29
0.26
0.295
0.35
0.395
0.52
0.655
0.625
0.595
0.54
0.36
0.38
0.305
0.39
0.5
0.71
0.685
0.81
0.735
0.725
0.55
0.51
0.585
0.555
0.65
0.78
0.775
0.925
0.865
0.81
0.63
0.535
0.705
0.615
0.68
0.79
0.9
0.95
0.85
0.74
0.705
0.635
0.6
0.67
0.655
0.675
0.865
0.76
0.77
0.655
0.525
0.375
0.385
0.48
0.495
0.57
0.595
0.6
0.555
0.565
0.47
0.455
0.355
0.35
0.19
0.275
0.52
0.465
0.485
0.33
0.205
0.17
0.245
0.26
0.35
0.43
0.505
0.45
0.44
0.4
0.285
-0.01
0.075
0.16
0.32
0.385
0.48
0.525
0.37
0.265
0.195
0.175
0.2
0.155
0.445
0.45
0.395
0.4
0.435
0.335
0.16
0.16
0.125
0.185
0.355
0.45
0.615
0.425
0.32
0.145
0.28
0.165
0.125
0.255
0.285
0.475
0.525
0.47
0.41
0.34
0.265
0.1
0.18
0.155
0.35
0.455
0.405
0.47
0.4
0.25
0.205
0.125
0.175
0.315
0.44
0.435
0.465
0.315
0.345
0.23
0.235
0.125
0.14
0.195
0.345
0.44
0.445
0.355
0.335
0.36
0.16
0.11
0.175
0.26
0.335
0.375
0.405
0.405
0.36
0.25
0.17
0.02
0.175
0.19
0.255
0.37
0.46
0.48
0.395
0.205
0.15
0.075
0.24
0.18
0.335
0.35
0.34
0.35
0.415
0.245
0.145
-0.005
0.17
0.245
0.315
0.36
0.485
0.5
0.305
0.075
0.03
0.005
0.045
0.265
0.43
0.36
0.355
0.39
0.32
0.15
0.08
0.155
0.19
0.23
0.28
0.39
0.45
0.475
0.34
0.055
-0.045
0.095
0.155
0.265
0.31
0.425
0.395
0.315
0.23
0.17
0.18
0.125
0.08
0.225
0.415
0.43
0.395
0.415
0.24
0.105
-0.01
0.015
0.11
0.215
0.295
0.46
0.42
0.395
0.245
0.17
0.09
0.015
0.17
0.255
0.26
0.495
0.51
0.35
0.195
0.095
-0.035
-0.01
0.285
0.315
0.37
0.55
0.43
0.395
0.23
0.095
0.1
0.155
0.15
0.22
0.34
0.415
0.505
0.465
0.255
0.09
0.165
0.165
0.17
0.35
0.37
0.48
0.455
0.365
0.225
0.135
0.135
0.18
0.245
0.275
0.43
0.49
0.435
0.34
0.165
0.095
0.16
0.05
0.065
0.25
0.33
0.395
0.26
0.365
0.17
0.04
0.055
0.145
0.125
0.405
0.375
0.265
0.32
0.26
0.09
0.07
0.11
0.11
0.15
0.34
0.33
0.32
0.32
0.28
0.165
0.02
0.005
0.05
0.15
0.295
0.36
0.315
0.23
0.23
0.22
0.07
0.065
0.135
0.25
0.24
0.26
0.325
0.375
0.26
0.065
0.1
0.075
0.175
0.265
0.44
0.635
0.725
0.71
0.81
0.75
0.59
0.565
0.62
0.555
0.505
0.425
0.44
0.305
0.095
-0.045
-0.125
-0.15
-0.135
-0.1
0.075
0.215
0.21
0.04
-0.01
-0.065
-0.07
-0.005
0.07
0.16
0.27
0.31
0.335
0.305
0.24
0.195
0.08
-0.04
0.205
0.145
0.275
0.27
0.455
0.345
0.25
0.045
0.02
0.215
0.17
0.155
0.365
0.43
0.355
0.355
0.28
0.04
0.02
-0.01
0.11
0.275
0.405
0.355
0.34
0.43
0.2
0.085
0.05
0.085
0.13
0.265
0.3
0.4
0.435
0.425
0.315
0.075
0.11
0.13
0.055
0.24
0.47
0.505
0.51
0.48
0.255
0.2
0.09
0.125
0.305
0.42
0.415
0.515
0.375
0.285
0.32
0.19
0.1
0.145
0.36
0.44
0.55
0.62
0.63
0.55
0.39
0.315
0.275
0.24
0.41
0.515
0.645
0.755
0.635
0.545
0.505
0.465
0.345
0.405
0.53
0.61
0.655
0.68
0.76
0.715
0.605
0.515
0.59
0.565
0.56
0.78
0.89
0.86
0.805
0.815
0.69
0.56
0.5
0.49
0.53
0.765
0.76
0.7
0.64
0.53
0.475
0.42
0.35
0.345
0.425
0.555
0.695
0.65
0.485
0.34
0.295
0.21
0.24
0.18
0.365
0.355
0.43
0.475
0.4
0.27
0.135
0.085
0.08
0.175
0.27
0.425
0.455
0.45
0.37
0.325
0.095
0.04
0.01
0.075
0.24
0.395
0.48
0.37
0.37
0.155
0.04
0.085
0.065
0.165
0.285
0.335
0.365
0.425
0.325
0.32
0.125
0.015
0.165
0.11
0.185
0.33
0.48
0.37
0.27
0.195
0.07
0.075
0.07
0.13
0.25
0.4
0.4
0.365
0.26
0.25
0.145
-0.07
0.02
0.165
0.25
0.385
0.33
0.375
0.345
0.135
0.115
0.14
0.02
0.12
0.28
0.35
0.42
0.475
0.31
0.205
0.05
0.02
0.105
0.21
0.24
0.32
0.395
0.32
0.245
0.125
0.07
0.09
0.135
0.11
0.28
0.39
0.385
0.325
0.285
0.155
0.085
0.025
0.07
0.155
0.295
0.395
0.365
0.305
0.24
0.035
0.045
0.075
0.05
0.15
0.34
0.35
0.48
0.37
0.4
0.055
0.06
-0.04
0.09
0.18
0.24
0.305
0.38
0.32
0.305
0.115
0.09
0.05
0.05
0.17
0.265
0.345
0.315
0.265
0.245
0.18
0.145
0.06
0.13
0.14
0.305
0.325
0.33
0.26
0.21
0.065
0.06
0.06
0.03
0.03
0.42
0.515
0.495
0.16
0.22
0.245
0.055
-0.04
0.12
0.18
0.245
0.365
0.415
0.255
0.24
0.115
0.12
0.035
0.03
0.195
0.38
0.405
0.31
0.27
0.205
0.07
0.085
0.075
0.095
0.235
0.285
0.33
0.395
0.36
0.26
0.12
0.005
0.035
0.185
0.255
0.3
0.315
0.425
0.255
0.195
0.065
-0.01
0.025
0.18
0.165
0.28
0.44
0.34
0.26
0.16
0.15
0.05
0.22
0.23
0.28
0.295
0.29
0.31
0.29
0.25
0.075
0.025
0.16
0.155
0.245
0.305
0.355
0.375
0.305
0.21
0.075
0.005
0.0
0.055
0.285
0.27
0.355
0.395
0.27
0.16
0.095
0.055
0.035
0.215
0.405
0.355
0.275
0.295
0.26
0.13
0.09
0.025
0.045
0.105
0.275
0.385
0.515
0.32
0.335
0.245
0.015
-0.045
0.06
0.13
0.22
0.385
0.35
0.415
0.3
0.14
0.015
-0.02
0.025
0.13
0.28
0.35
0.495
0.445
0.275
0.12
-0.045
-0.015
0.135
0.13
0.31
0.39
0.305
0.305
0.395
0.15
0.055
0.155
0.145
0.12
0.36
0.35
0.295
0.335
0.355
0.175
0.03
0.085
0.215
0.385
0.375
0.28
0.46
0.32
0.395
0.095
0.07
0.135
0.17
0.245
0.3
0.42
0.42
0.4
0.375
0.255
0.18
0.11
0.13
0.305
0.315
0.345
0.425
0.305
0.31
0.115
0.02
-0.045
-0.03
0.3
0.36
0.59
0.295
0.37
0.23
0.025
0.06
-0.015
0.02
0.18
0.345
0.375
0.38
0.4
0.225
0.02
-0.03
0.045
0.045
0.17
0.305
0.37
0.37
0.35
0.155
0.085
0.025
-0.025
0.03
0.265
0.35
0.305
0.35
0.28
0.195
0.08
0.015
0.02
0.035
0.175
0.375
0.495
0.46
0.19
0.09
0.03
0.09
0.265
0.25
0.465
0.49
0.76
0.725
0.83
0.805
0.66
0.53
0.375
0.33
0.45
0.45
0.375
0.32
0.23
0.1
-0.085
-0.2
-0.13
-0.08
0.06
0.055
0.07
0.115
0.07
0.05
0.025
-0.04
0.085
0.12
0.235
0.405
0.4
0.335
0.25
0.065
0.0
0.045
0.165
0.11
0.26
0.44
0.345
0.23
0.285
0.13
0.05
0.01
-0.045
0.18
0.295
0.5
0.4
0.355
0.285
0.195
0.05
0.05
0.135
0.205
0.27
0.35
0.47
0.405
0.25
0.08
0.025
0.18
0.095
0.135
0.265
0.43
0.385
0.36
0.285
0.135
0.165
0.13
0.155
0.145
0.395
0.485
0.545
0.385
0.23
0.1
0.05
0.095
0.22
0.365
0.355
0.485
0.515
0.49
0.245
0.23
0.195
0.22
0.195
0.305
0.435
0.51
0.615
0.505
0.455
0.35
0.265
0.32
0.46
0.595
0.595
0.7
0.705
0.62
0.46
0.34
0.355
0.395
0.495
0.645
0.705
0.765
0.805
0.735
0.58
0.645
0.475
0.61
0.69
0.665
0.755
0.78
0.8
0.81
0.72
0.525
0.49
0.5
0.57
0.61
0.72
0.895
0.98
0.73
0.61
0.515
0.335
0.385
0.495
0.63
0.535
0.515
0.47
0.46
0.39
0.375
0.23
0.22
0.355
0.505
0.535
0.535
0.41
0.37
0.285
0.17
0.14
0.12
0.165
0.28
0.36
0.44
0.495
0.3
0.265
0.16
0.105
0.105
0.345
0.49
0.31
0.34
0.395
0.345
0.145
0.12
0.08
0.115
0.115
0.25
0.49
0.47
0.48
0.355
0.215
0.13
0.03
0.115
0.2
0.425
0.45
0.415
0.33
0.28
0.195
0.19
0.09
0.12
0.26
0.415
0.465
0.495
0.34
0.26
0.055
0.055
0.085
0.165
0.245
0.355
0.395
0.435
0.42
0.31
0.215
0.125
0.08
0.18
0.15
0.29
0.36
0.495
0.385
0.315
0.095
0.135
0.08
0.135
0.355
0.46
0.49
0.345
0.275
0.285
0.17
0.075
0.135
0.165
0.2
0.335
0.48
0.575
0.445
0.17
0.19
0.115
0.015
0.175
0.25
0.375
0.41
0.39
0.33
0.215
0.135
0.075
0.04
0.175
0.24
0.37
0.455
0.39
0.405
0.34
0.145
-0.025
0.195
0.25
0.18
0.33
0.49
0.415
0.31
0.165
0.07
0.115
0.115
0.08
0.305
0.415
0.475
0.3
0.285
0.16
0.1
0.105
0.07
0.2
0.38
0.405
0.4
0.435
0.33
0.195
0.17
0.115
0.09
0.1
0.31
0.38
0.455
0.41
0.34
0.16
0.07
-0.005
0.075
0.14
0.25
0.41
0.535
0.41
0.375
0.185
0.025
0.0
0.17
0.135
0.275
0.46
0.45
0.365
0.395
0.265
0.18
0.03
0.13
0.215
0.24
0.345
0.41
0.38
0.32
0.135
0.045
0.08
0.11
0.275
0.33
0.39
0.42
0.35
0.28
0.335
0.195
0.055
0.09
0.185
0.32
0.37
0.455
0.395
0.23
0.145
0.065
0.055
0.095
0.195
0.385
0.36
0.435
0.5
0.38
0.165
0.085
0.055
0.21
0.23
0.245
0.405
0.385
0.32
0.19
0.165
0.135
0.095
0.145
0.26
0.365
0.38
0.38
0.405
0.395
0.075
0.03
0.095
0.1
0.18
0.335
0.45
0.495
0.28
0.135
0.315
0.2
0.125
0.085
0.185
0.38
0.425
0.315
0.35
0.27
0.095
0.1
0.12
0.185
0.235
0.355
0.475
0.52
0.375
0.255
0.075
0.095
0.08
0.06
0.285
0.39
0.39
0.4
0.335
0.235
0.085
0.035
0.13
0.155
0.37
0.34
0.39
0.345
0.26
0.165
0.12
0.095
0.09
0.125
0.215
0.405
0.55
0.465
0.38
0.24
0.095
0.07
0.145
0.155
0.325
0.35
0.44
0.43
0.375
0.18
0.03
0.08
0.095
0.155
0.27
0.435
0.35
0.455
0.325
0.31
0.19
-0.035
0.165
0.22
0.335
0.35
0.395
0.505
0.43
0.195
0.175
0.18
0.325
0.34
0.4
0.455
0.53
0.475
0.345
0.195
0.205
0.145
0.185
0.27
0.36
0.38
0.405
0.36
0.39
0.275
0.03
0.035
0.06
0.095
0.315
0.47
0.44
0.395
0.34
0.135
0.06
0.02
0.115
0.125
0.35
0.38
0.38
0.335
0.22
0.105
0.085
0.145
0.135
0.28
0.315
0.41
0.415
0.32
0.21
0.06
0.075
0.115
0.065
0.21
0.455
0.43
0.34
0.365
0.26
0.125
0.06
0.135
0.225
0.225
0.35
0.32
0.365
0.45
0.27
0.16
0.165
0.23
0.295
0.42
0.75
0.795
0.88
0.905
0.755
0.61
0.52
0.385
0.36
0.385
0.41
0.47
0.315
0.21
0.125
0.015
-0.065
-0.17
-0.085
0.055
0.195
0.24
0.115
0.16
0.06
0.0
0.055
0.03
0.15
0.29
0.4
0.465
0.38
0.215
0.16
0.145
0.105
0.135
0.245
0.34
0.4
0.475
0.435
0.285
0.205
0.125
0.09
0.085
0.185
0.215
0.415
0.555
0.45
0.355
0.275
0.08
0.075
0.155
0.21
0.37
0.435
0.515
0.35
0.31
0.245
0.135
0.14
0.175
0.145
0.42
0.52
0.51
0.47
0.405
0.355
0.115
0.105
0.125
0.255
0.445
0.46
0.63
0.49
0.275
0.19
0.435
0.245
0.21
0.325
0.41
0.445
0.455
0.54
0.385
0.33
0.17
0.195
0.33
0.365
0.595
0.685
0.6
0.595
0.53
0.43
0.405
0.355
0.365
0.48
0.585
0.735
0.805
0.775
0.54
0.455
0.545
0.5
0.495
0.605
0.74
0.85
0.82
0.81
0.82
0.625
0.595
0.685
0.69
0.7
0.74
0.935
0.95
0.83
0.73
0.69
0.565
0.58
0.66
0.705
0.765
0.85
0.965
0.82
0.595
0.55
0.475
0.56
0.535
0.515
0.57
0.705
0.67
0.6
0.47
0.365
0.255
0.21
0.24
0.37
0.515
0.62
0.58
0.485
0.385
0.275
0.12
0.16
0.27
0.365
0.375
0.43
0.515
0.49
0.4
0.28
0.215
0.095
0.15
0.335
0.345
0.53
0.545
0.36
0.205
0.265
0.185
0.09
0.2
0.35
0.47
0.42
0.33
0.4
0.305
0.2
0.125
0.15
0.11
0.35
0.395
0.435
0.48
0.515
0.32
0.19
0.17
0.185
0.23
0.31
0.43
0.48
0.45
0.345
0.28
0.155
0.12
0.14
0.185
0.385
0.43
0.48
0.375
0.575
0.225
0.105
0.135
0.205
0.29
0.355
0.435
0.545
0.405
0.36
0.19
0.165
0.19
0.215
0.31
0.445
0.435
0.345
0.435
0.4
0.235
0.175
0.135
0.145
0.215
0.34
0.455
0.455
0.36
0.35
0.27
0.22
0.16
0.145
0.24
0.375
0.41
0.485
0.425
0.385
0.135
0.085
0.07
0.14
0.27
0.39
0.475
0.555
0.465
0.28
0.21
0.035
0.075
0.095
0.255
0.32
0.41
0.42
0.37
0.29
0.235
0.055
0.16
0.165
0.22
0.28
0.34
0.525
0.45
0.31
0.2
0.145
0.23
0.245
0.235
0.355
0.415
0.415
0.385
0.32
0.125
0.03
0.11
0.16
0.28
0.34
0.42
0.425
0.415
0.225
0.095
0.06
0.095
0.17
0.305
0.395
0.46
0.375
0.295
0.28
0.155
0.1
0.05
0.175
0.31
0.42
0.48
0.49
0.51
0.205
0.095
0.135
0.115
0.045
0.275
0.3
0.35
0.355
0.34
0.235
0.26
0.1
0.085
0.13
0.25
0.285
0.35
0.475
0.445
0.27
0.11
0.095
0.175
0.27
0.215
0.31
0.395
0.4
0.255
0.175
0.12
0.075
0.085
0.185
0.305
0.405
0.43
0.43
0.255
0.19
0.02
0.075
0.05
0.205
0.325
0.46
0.435
0.39
0.335
0.245
0.17
0.055
0.15
0.195
0.315
0.43
0.485
0.29
0.31
0.155
0.04
0.065
0.04
0.18
0.345
0.415
0.415
0.26
0.25
0.165
0.12
0.095
0.085
0.36
0.33
0.37
0.48
0.385
0.315
0.2
0.125
0.065
0.215
0.24
0.315
0.42
0.385
0.345
0.26
0.085
0.14
0.09
0.16
0.25
0.27
0.38
0.48
0.475
0.215
0.135
0.115
0.06
0.125
0.295
0.32
0.46
0.51
0.37
0.255
0.245
0.185
0.195
0.14
0.355
0.435
0.425
0.49
0.405
0.33
0.24
0.14
0.135
0.25
0.435
0.425
0.43
0.545
0.44
0.235
0.14
0.01
-0.01
0.195
0.285
0.42
0.435
0.425
0.26
0.14
0.09
0.11
0.18
0.15
0.33
0.36
0.375
0.4
0.325
0.23
0.145
0.01
-0.01
0.13
0.23
0.425
0.445
0.365
0.3
0.285
0.055
0.065
0.04
0.16
0.185
0.355
0.4
0.35
0.325
0.225
0.125
0.07
0.09
0.115
0.275
0.295
0.415
0.45
0.41
0.22
0.195
0.075
-0.02
0.2
0.37
0.655
0.695
0.7
0.585
0.59
0.48
0.565
0.715
0.63
0.775
0.755
0.665
0.605
0.33
0.095
0.06
-0.01
-0.01
0.05
0.105
0.06
0.21
0.105
0.07
0.055
-0.145
-0.12
0.015
0.065
0.34
0.32
0.4
0.35
0.4
0.205
0.065
0.06
0.135
0.205
0.3
0.355
0.41
0.28
0.29
0.19
0.15
0.12
0.235
0.195
0.33
0.44
0.41
0.385
0.31
0.205
0.095
0.125
0.145
0.29
0.44
0.33
0.475
0.38
0.315
0.185
0.125
0.18
0.27
0.315
0.405
0.48
0.45
0.415
0.335
0.255
0.11
0.17
0.305
0.27
0.385
0.395
0.435
0.575
0.43
0.23
0.18
0.135
0.245
0.32
0.445
0.54
0.505
0.47
0.35
0.275
0.24
0.25
0.3
0.45
0.59
0.625
0.615
0.535
0.395
0.25
0.28
0.315
0.36
0.55
0.69
0.765
0.74
0.715
0.54
0.45
0.51
0.5
0.54
0.695
0.73
0.83
0.795
0.76
0.675
0.535
0.465
0.545
0.715
0.85
0.925
0.94
1.01
0.89
0.74
0.64
0.55
0.54
0.66
0.725
0.81
0.875
0.925
0.77
0.66
0.645
0.455
0.47
0.535
0.675
0.755
0.69
0.595
0.655
0.49
0.3
0.305
0.28
0.355
0.41
0.62
0.53
0.485
0.46
0.23
0.17
0.205
0.28
0.34
0.42
0.465
0.51
0.46
0.375
0.28
0.125
0.09
0.22
0.26
0.335
0.47
0.45
0.405
0.335
0.215
0.205
0.095
0.22
0.305
0.34
0.57
0.475
0.39
0.255
0.225
0.13
0.08
0.135
0.365
0.48
0.44
0.49
0.395
0.325
0.26
0.115
0.01
0.23
0.28
0.395
0.44
0.45
0.415
0.275
0.265
0.225
0.185
0.18
0.29
0.42
0.4
0.465
0.43
0.305
0.225
0.185
0.12
0.12
0.3
0.45
0.45
0.435
0.42
0.33
0.17
0.155
0.36
0.205
0.345
0.365
0.325
0.38
0.275
0.28
0.225
0.095
0.125
0.185
0.29
0.37
0.41
0.39
0.345
0.35
0.185
0.135
0.165
0.25
0.215
0.315
0.36
0.405
0.36
0.255
0.16
0.09
0.065
0.175
0.275
0.4
0.495
0.38
0.35
0.21
0.075
0.005
0.13
0.265
0.235
0.42
0.52
0.415
0.405
0.26
0.06
0.135
0.11
0.21
0.3
0.41
0.375
0.37
0.305
0.245
0.165
0.05
0.09
0.135
0.375
0.355
0.525
0.395
0.29
0.19
0.01
0.125
0.2
0.19
0.265
0.38
0.435
0.39
0.3
0.12
0.035
0.075
0.145
0.13
0.26
0.42
0.42
0.375
0.355
0.185
0.1
0.1
0.11
0.2
0.345
0.33
0.405
0.335
0.32
0.245
0.125
0.105
0.165
0.265
0.355
0.44
0.365
0.34
0.31
0.335
0.155
0.04
0.085
0.17
0.32
0.455
0.4
0.345
0.345
0.255
0.15
0.11
0.115
0.235
0.355
0.435
0.54
0.39
0.165
0.04
0.065
0.065
0.185
0.22
0.29
0.46
0.465
0.34
0.29
0.105
0.06
0.07
0.145
0.29
0.42
0.355
0.385
0.415
0.335
0.18
0.14
0.145
0.145
0.305
0.48
0.43
0.365
0.325
0.185
0.205
-0.015
0.265
0.2
0.175
0.335
0.44
0.41
0.385
0.29
0.17
0.095
0.14
0.13
0.26
0.38
0.395
0.355
0.37
0.25
0.11
0.09
0.06
0.1
0.315
0.375
0.385
0.365
0.38
0.27
0.185
0.1
0.17
0.215
0.305
0.405
0.515
0.4
0.43
0.38
0.125
0.06
0.2
0.325
0.39
0.375
0.365
0.425
0.37
0.265
0.19
0.205
0.155
0.26
0.39
0.5
0.61
0.465
0.36
0.215
0.15
0.07
0.115
0.08
0.335
0.395
0.405
0.41
0.335
0.155
0.145
0.055
0.115
0.225
0.33
0.415
0.43
0.23
0.355
0.165
0.055
0.035
0.14
0.225
0.335
0.355
0.46
0.315
0.28
0.155
0.16
0.05
0.12
0.21
0.36
0.34
0.32
0.285
0.27
0.11
0.09
0.045
0.145
0.175
0.31
0.46
0.395
0.325
0.375
0.115
0.075
-0.03
0.125
0.22
0.59
0.645
0.56
0.66
0.57
0.53
0.53
0.56
0.665
0.69
0.7
0.695
0.58
0.49
0.33
0.2
-0.03
-0.05
-0.01
0.03
0.105
0.125
0.15
0.125
0.07
-0.04
-0.07
-0.065
0.005
0.145
0.27
0.345
0.315
0.315
0.175
0.12
0.005
0.06
0.13
0.3
0.38
0.35
0.46
0.35
0.125
0.29
0.15
0.08
0.04
0.2
0.28
0.395
0.32
0.36
0.2
0.18
0.175
0.145
0.12
0.295
0.355
0.39
0.4
0.35
0.24
0.11
0.015
0.125
0.18
0.3
0.34
0.42
0.45
0.38
0.24
0.125
0.035
0.09
0.18
0.335
0.445
0.435
0.465
0.395
0.295
0.235
0.17
0.15
0.265
0.35
0.47
0.535
0.45
0.4
0.23
0.21
0.185
0.215
0.295
0.43
0.475
0.47
0.515
0.525
0.295
0.23
0.265
0.265
0.34
0.58
0.61
0.7
0.62
0.565
0.425
0.325
0.345
0.395
0.515
0.62
0.685
0.825
0.825
0.645
0.525
0.48
0.47
0.51
0.62
0.805
0.815
0.86
0.84
0.755
0.655
0.52
0.555
0.545
0.6
0.685
0.84
0.99
0.845
0.685
0.42
0.47
0.34
0.415
0.585
0.625
0.66
0.67
0.555
0.5
0.41
0.295
0.175
0.285
0.35
0.45
0.51
0.56
0.495
0.37
0.22
0.2
0.165
0.155
0.255
0.305
0.405
0.465
0.415
0.32
0.15
0.095
0.135
0.175
0.36
0.355
0.34
0.465
0.345
0.22
0.06
0.155
0.135
0.115
0.255
0.435
0.37
0.37
0.37
0.215
0.06
0.08
0.14
0.095
0.205
0.51
0.565
0.345
0.245
0.255
0.135
0.0
0.125
0.19
0.33
0.435
0.455
0.41
0.315
0.12
0.12
0.05
0.055
0.135
0.27
0.49
0.465
0.36
0.405
0.15
0.09
0.105
0.095
0.135
0.24
0.36
0.45
0.345
0.245
0.235
0.145
0.18
0.055
0.145
0.37
0.305
0.365
0.35
0.365
0.33
0.185
0.095
0.01
0.125
0.295
0.365
0.265
0.455
0.26
0.14
0.11
0.005
0.055
0.125
0.305
0.395
0.465
0.37
0.325
0.155
-0.025
-0.04
0.045
0.175
0.355
0.38
0.42
0.31
0.29
0.1
0.045
0.035
0.125
0.195
0.32
0.44
0.475
0.385
0.215
0.13
0.08
0.085
0.02
0.21
0.28
0.275
0.41
0.38
0.29
0.125
0.005
0.04
0.065
0.145
0.33
0.315
0.385
0.33
0.12
0.105
0.125
0.055
-0.015
0.135
0.29
0.375
0.34
0.31
0.235
0.18
0.095
0.07
0.205
0.215
0.205
0.335
0.405
0.26
0.25
0.055
-0.01
0.035
0.095
0.215
0.44
0.515
0.415
0.34
0.13
-0.005
0.005
0.055
0.14
0.155
0.33
0.4
0.325
0.32
0.195
0.11
0.07
0.01
0.04
0.23
0.35
0.37
0.295
0.325
0.21
0.075
0.045
0.08
0.12
0.32
0.325
0.38
0.365
0.315
0.15
0.005
-0.03
0.0
0.165
0.335
0.425
0.355
0.385
0.235
0.18
0.005
-0.125
0.18
0.07
0.205
0.3
0.34
0.365
0.29
0.18
0.005
0.035
0.115
0.125
0.295
0.245
0.375
0.37
0.29
0.23
0.09
0.02
-0.03
0.14
0.29
0.3
0.375
0.295
0.29
0.125
0.055
0.035
0.09
0.14
0.27
0.355
0.32
0.425
0.235
0.195
0.055
0.025
0.08
0.225
0.295
0.255
0.265
0.335
0.325
0.13
-0.015
0.01
0.05
0.18
0.305
0.33
0.405
0.42
0.335
0.21
0.02
0.1
0.115
0.145
0.34
0.51
0.425
0.405
0.29
0.195
0.16
0.01
0.12
0.2
0.34
0.39
0.33
0.275
0.305
0.275
0.115
0.06
0.08
0.145
0.36
0.395
0.315
0.235
0.235
0.105
0.02
0.075
0.125
0.19
0.3
0.28
0.38
0.32
0.215
0.07
0.03
0.04
0.125
0.255
0.23
0.295
0.395
0.305
0.155
0.065
0.02
-0.01
0.035
0.025
0.25
0.375
0.33
0.275
0.15
0.195
0.06
0.045
0.16
0.275
0.29
0.355
0.365
0.265
0.27
0.13
0.155
0.225
0.34
0.515
0.745
0.68
0.835
0.895
0.67
0.53
0.415
0.37
0.3
0.32
0.375
0.37
0.24
0.135
0.015
-0.2
-0.27
-0.12
-0.12
-0.065
0.06
0.15
0.23
0.225
0.04
-0.035
-0.01
0.045
0.045
0.295
0.33
0.32
0.34
0.345
0.135
0.095
-0.005
0.03
0.08
0.23
0.33
0.38
0.37
0.4
0.135
-0.02
0.1
0.115
0.13
0.305
0.37
0.345
0.38
0.31
0.105
-0.025
0.075
0.115
0.21
0.365
0.35
0.42
0.365
0.295
0.13
0.02
0.06
0.115
0.14
0.25
0.35
0.39
0.345
0.355
0.18
0.05
-0.02
0.15
0.19
0.35
0.37
0.355
0.375
0.27
0.215
0.095
0.095
0.13
0.295
0.395
0.54
0.55
0.515
0.23
0.215
0.115
0.165
0.235
0.395
0.435
0.54
0.69
0.465
0.365
0.18
0.205
0.29
0.31
0.365
0.61
0.71
0.715
0.67
0.5
0.375
0.305
0.365
0.455
0.53
0.645
0.775
0.695
0.695
0.565
0.495
0.515
0.46
0.61
0.69
0.645
0.82
0.81
0.72
0.66
0.52
0.425
0.45
0.6
0.62
0.665
0.865
0.845
0.635
0.465
0.4
0.31
0.405
0.44
0.38
0.59
0.61
0.535
0.45
0.285
0.185
0.205
0.255
0.265
0.365
0.335
0.365
0.425
0.315
0.175
0.05
-0.045
0.11
0.175
0.21
0.38
0.35
0.41
0.205
0.145
0.04
-0.015
0.03
0.125
0.25
0.255
0.225
0.285
0.36
0.165
0.145
0.0
0.08
0.115
0.21
0.34
0.38
0.36
0.3
0.2
-0.055
0.03
0.015
0.075
0.18
0.345
0.39
0.4
0.265
0.07
-0.095
-0.055
0.125
0.16
0.34
0.35
0.34
0.21
0.255
0.05
-0.06
-0.05
0.095
0.13
0.33
0.27
0.365
0.355
0.165
0.115
0.11
-0.06
0.045
0.18
0.34
0.3
0.26
0.18
0.225
0.045
0.04
-0.01
0.02
0.255
0.3
0.29
0.26
0.35
0.145
0.15
-0.04
0.045
0.01
0.1
0.17
0.365
0.265
0.265
0.13
-0.01
-0.06
-0.055
0.02
0.125
0.28
0.335
0.28
0.23
0.09
-0.065
-0.12
-0.075
0.015
0.195
0.21
0.265
0.36
0.22
0.095
-0.01
-0.015
-0.085
0.0
0.105
0.13
0.245
0.405
0.185
-0.03
-0.055
-0.07
0.04
0.03
0.2
0.3
0.36
0.24
0.165
0.02
-0.115
-0.085
-0.035
0.045
0.11
0.19
0.22
0.225
0.17
0.055
-0.065
-0.095
-0.115
-0.04
0.115
0.23
0.23
0.215
0.225
-0.03
-0.17
-0.12
-0.025
0.025
0.155
0.21
0.17
0.17
0.225
0.005
0.03
-0.07
-0.075
-0.04
0.065
0.18
0.295
0.33
0.24
0.04
0.0
-0.18
-0.12
-0.025
0.16
0.155
0.155
0.195
0.13
-0.015
-0.1
-0.055
-0.075
0.025
0.135
0.135
0.205
0.07
0.07
-0.005
-0.065
-0.145
-0.095
0.025
0.05
0.325
0.285
0.16
0.11
-0.04
-0.09
-0.19
-0.095
0.015
0.305
0.23
0.26
0.14
0.045
0.04
-0.07
-0.195
-0.06
0.01
0.16
0.18
0.315
0.245
0.19
-0.03
-0.115
-0.17
-0.105
0.055
0.165
0.18
0.265
0.205
-0.025
-0.08
-0.095
-0.15
-0.01
0.15
0.125
0.135
0.155
0.05
-0.03
-0.035
-0.055
-0.07
0.01
0.145
0.235
0.245
0.365
0.215
0.09
0.0
-0.08
-0.095
-0.035
0.155
0.245
0.27
0.23
0.17
0.185
0.11
0.005
-0.145
-0.04
0.175
0.22
0.31
0.21
0.09
0.04
-0.09
-0.15
-0.115
-0.06
-0.015
0.2
0.205
0.19
0.085
-0.095
-0.04
-0.16
-0.055
-0.125
0.01
0.195
0.255
0.225
0.175
0.055
-0.075
-0.24
-0.18
-0.05
0.07
0.105
0.19
0.24
0.105
0.005
-0.235
-0.185
-0.14
-0.12
0.1
0.15
0.17
0.17
0.105
-0.005
-0.13
-0.195
-0.185
-0.095
0.115
0.145
0.16
0.09
0.085
0.065
0.005
-0.06
0.025
0.095
0.275
0.39
0.545
0.575
0.615
0.515
0.395
0.315
0.25
0.185
0.21
0.26
0.215
0.05
-0.075
-0.205
-0.375
-0.29
-0.265
-0.27
-0.11
-0.07
0.02
-0.005
-0.04
-0.105
-0.315
-0.33
-0.205
-0.085
0.07
0.29
0.16
0.06
0.03
-0.11
-0.045
-0.1
-0.075
-0.095
0.12
0.165
0.265
0.13
0.1
0.0
-0.12
-0.175
-0.17
-0.09
0.125
0.195
0.23
0.18
0.155
-0.04
-0.155
-0.18
-0.12
-0.03
0.17
0.195
0.195
0.115
0.045
-0.09
-0.08
-0.105
-0.07
0.1
0.185
0.205
0.24
0.195
0.115
-0.03
-0.17
-0.1
-0.035
0.1
0.255
0.24
0.205
0.165
0.03
-0.005
-0.005
-0.09
0.025
0.145
0.285
0.31
0.34
0.225
0.085
0.02
0.0
0.03
0.105
0.155
0.255
0.35
0.41
0.3
0.235
0.145
0.06
0.165
0.155
0.315
0.455
0.415
0.44
0.425
0.41
0.32
0.18
0.23
0.415
0.495
0.51
0.6
0.56
0.485
0.395
0.275
0.335
0.37
0.39
0.64
0.625
0.755
0.695
0.615
0.52
0.46
0.29
0.32
0.415
0.7
0.6
0.53
0.58
0.565
0.375
0.175
0.18
0.345
0.29
0.475
0.4
0.4
0.405
0.41
0.185
0.105
0.015
0.06
0.1
0.075
0.285
0.52
0.32
0.165
0.05
-0.05
-0.085
-0.035
0.07
0.17
0.24
0.27
0.2
0.145
-0.005
-0.075
-0.17
-0.035
-0.045
0.14
0.28
0.285
0.155
0.09
0.08
-0.025
-0.23
-0.115
0.06
0.17
0.25
0.335
0.285
0.14
-0.25
-0.13
-0.05
-0.065
0.025
0.135
0.24
0.26
0.2
0.105
-0.01
-0.075
-0.16
-0.05
0.08
0.23
0.275
0.325
0.12
-0.005
-0.05
-0.11
-0.015
-0.005
0.13
0.15
0.18
0.24
0.195
0.065
-0.13
-0.075
-0.06
-0.03
0.065
0.14
0.235
0.305
0.22
-0.02
-0.045
-0.06
-0.05
-0.05
0.02
0.14
0.24
0.27
0.2
0.075
-0.08
-0.085
-0.16
-0.09
0.06
0.175
0.195
0.14
0.125
0.075
-0.075
-0.145
-0.14
-0.015
0.135
0.23
0.27
0.24
0.115
-0.045
-0.095
-0.16
-0.15
-0.105
0.01
0.24
0.275
0.195
0.235
0.09
-0.12
-0.14
-0.105
-0.065
-0.005
0.155
0.17
0.13
0.125
-0.11
-0.145
-0.09
-0.065
-0.125
0.045
0.145
0.17
0.215
0.17
-0.08
-0.22
-0.17
-0.105
-0.055
0.115
0.245
0.28
0.105
0.13
-0.01
-0.12
-0.225
-0.14
-0.06
0.12
0.13
0.19
0.115
0.055
-0.12
-0.115
-0.105
-0.12
-0.02
0.17
0.185
0.245
0.17
0.05
-0.135
-0.04
-0.125
-0.1
-0.035
0.12
0.22
0.13
0.14
0.08
-0.055
-0.07
-0.065
-0.125
-0.025
0.19
0.275
0.2
0.14
-0.065
-0.165
-0.145
-0.115
-0.105
-0.085
0.13
0.23
0.275
0.16
0.095
-0.04
-0.17
-0.175
-0.11
0.08
0.165
0.2
0.175
0.165
0.095
-0.045
-0.12
-0.085
-0.045
0.06
0.22
0.325
0.3
0.26
0.07
-0.015
-0.015
-0.065
-0.09
0.03
0.16
0.245
0.245
0.22
0.14
-0.075
0.055
-0.07
-0.175
0.075
0.235
0.18
0.11
0.195
0.045
-0.165
-0.16
-0.075
-0.075
0.065
0.125
0.16
0.125
0.125
0.115
-0.05
-0.185
-0.125
-0.06
0.025
0.075
0.15
0.13
0.105
-0.035
-0.06
-0.06
-0.07
-0.09
-0.03
0.025
0.195
0.15
0.09
-0.07
-0.15
-0.05
-0.2
-0.07
0.035
0.12
0.17
0.12
0.035
-0.04
-0.085
-0.135
-0.135
-0.015
0.095
0.195
0.27
0.35
0.345
0.305
0.215
0.345
0.385
0.52
0.675
0.61
0.74
0.465
0.265
0.04
-0.175
-0.28
-0.27
-0.25
-0.11
0.0
-0.015
-0.125
-0.14
-0.25
-0.495
-0.475
-0.35
-0.205
0.005
0.115
0.14
0.14
0.08
-0.095
-0.155
-0.165
-0.085
-0.025
0.235
0.105
0.215
0.07
-0.025
-0.08
-0.075
-0.01
-0.07
-0.03
0.06
0.16
0.25
0.12
0.11
-0.065
-0.16
-0.1
-0.035
0.045
0.105
0.23
0.18
0.125
0.075
-0.055
-0.075
-0.105
-0.095
0.025
0.235
0.305
0.3
0.13
0.04
-0.055
-0.17
-0.075
-0.015
0.05
0.09
0.265
0.255
0.19
0.0
-0.055
-0.065
0.045
-0.055
0.1
0.235
0.24
0.255
0.24
0.095
0.0
-0.075
-0.075
0.035
0.23
0.275
0.385
0.32
0.37
0.255
0.08
0.035
0.005
0.095
0.25
0.34
0.395
0.51
0.475
0.33
0.23
0.14
0.14
0.185
0.4
0.485
0.6
0.645
0.495
0.34
0.28
0.295
0.32
0.5
0.585
0.625
0.675
0.655
0.675
0.43
0.38
0.225
0.36
0.405
0.6
0.645
0.66
0.63
0.485
0.35
0.25
0.265
0.295
0.31
0.505
0.485
0.535
0.41
0.4
0.21
0.095
0.05
0.195
0.165
0.21
0.435
0.42
0.25
0.155
0.06
-0.115
-0.105
-0.035
0.03
0.135
0.175
0.27
0.245
0.19
0.01
-0.145
-0.07
-0.11
-0.025
0.17
0.265
0.3
0.15
0.07
-0.07
-0.11
-0.135
-0.04
0.04
0.135
0.25
0.26
0.15
0.065
0.01
-0.105
-0.18
-0.065
0.145
0.205
0.235
0.18
0.2
0.02
-0.025
-0.09
-0.16
-0.09
0.175
0.17
0.265
0.19
0.07
-0.015
0.005
-0.1
-0.09
-0.025
0.105
0.2
0.205
0.265
0.085
0.085
0.055
-0.085
-0.14
-0.065
0.08
0.225
0.24
0.2
0.13
0.04
0.08
-0.065
-0.16
-0.055
0.08
0.22
0.19
0.185
0.185
0.075
-0.06
-0.16
-0.205
-0.145
0.11
0.195
0.265
0.18
0.125
0.04
-0.155
-0.18
-0.125
-0.03
0.095
0.185
0.245
0.19
0.15
-0.035
-0.095
-0.185
-0.14
-0.08
0.195
0.16
0.265
0.145
0.165
0.07
-0.085
-0.19
-0.185
-0.065
0.105
0.135
0.2
0.24
0.185
-0.015
-0.125
-0.115
-0.115
-0.115
0.14
0.16
0.17
0.115
0.19
-0.015
-0.19
-0.22
-0.11
-0.015
0.065
0.145
0.26
0.205
0.08
-0.02
-0.14
-0.19
-0.07
0.03
0.04
0.14
0.12
0.165
0.115
0.045
-0.055
-0.095
-0.07
-0.05
0.08
0.175
0.145
0.075
0.035
-0.11
-0.14
-0.085
-0.06
-0.05
0.175
0.195
0.195
0.12
0.07
-0.105
-0.06
-0.135
-0.09
-0.04
0.055
0.145
0.11
0.215
0.115
-0.085
-0.24
-0.145
-0.07
0.02
0.065
0.04
0.15
0.16
0.15
0.05
-0.135
-0.15
-0.065
0.045
0.115
0.285
0.27
0.11
-0.005
-0.08
-0.11
-0.105
-0.115
-0.035
0.125
0.175
0.2
0.165
0.025
-0.13
-0.145
-0.12
-0.055
0.045
0.115
0.24
0.25
0.12
0.09
0.025
-0.135
-0.125
-0.04
0.05
0.17
0.235
0.235
0.23
0.195
-0.035
-0.045
-0.05
-0.04
0.09
0.165
0.25
0.275
0.19
0.08
0.055
-0.08
-0.08
0.005
0.08
0.195
0.275
0.21
0.06
-0.01
0.005
-0.04
-0.08
-0.05
0.065
0.165
0.355
0.215
0.145
-0.07
-0.135
-0.105
-0.14
-0.02
0.065
0.16
0.285
0.2
0.085
0.01
-0.23
-0.195
-0.145
0.045
0.245
0.18
0.14
0.13
0.175
-0.035
-0.19
-0.195
-0.085
-0.02
0.065
0.095
0.16
0.185
0.165
-0.045
-0.08
-0.075
0.02
0.115
0.14
0.115
0.26
0.24
0.085
0.05
0.0
0.045
0.265
0.335
0.54
0.775
0.785
0.77
0.62
0.43
0.215
0.08
-0.015
0.04
0.07
0.21
0.115
-0.065
-0.13
-0.38
-0.39
-0.345
-0.29
-0.155
-0.07
0.02
0.095
0.12
0.035
-0.095
-0.215
-0.12
-0.06
-0.055
0.115
0.215
0.28
0.195
0.21
0.01
-0.05
-0.08
0.025
0.07
0.09
0.245
0.155
0.185
0.19
-0.02
-0.145
-0.11
0.0
0.06
0.115
0.25
0.245
0.135
0.085
-0.05
-0.02
-0.06
-0.105
0.135
0.17
0.25
0.25
0.245
0.085
0.015
-0.065
-0.025
-0.02
0.06
0.185
0.26
0.29
0.26
0.025
-0.055
-0.06
-0.02
-0.01
0.155
0.305
0.415
0.37
0.185
0.255
-0.105
-0.025
-0.005
0.095
0.24
0.37
0.33
0.38
0.415
0.3
0.095
-0.02
0.03
0.22
0.265
0.355
0.435
0.42
0.41
0.265
0.25
0.2
0.07
0.165
0.365
0.49
0.585
0.575
0.45
0.41
0.375
0.28
0.36
0.35
0.49
0.595
0.7
0.735
0.705
0.36
0.47
0.37
0.41
0.47
0.655
0.7
0.755
0.675
0.545
0.455
0.515
0.365
0.25
0.335
0.495
0.54
0.605
0.525
0.5
0.345
0.14
0.125
0.21
0.195
0.3
0.43
0.425
0.335
0.165
0.04
0.025
0.085
0.085
0.165
0.175
0.245
0.26
0.175
0.18
0.06
-0.04
-0.18
-0.07
0.17
0.215
0.155
0.27
0.28
0.18
-0.055
-0.08
-0.085
-0.15
0.035
0.035
0.235
0.165
0.205
0.175
-0.095
-0.11
-0.13
0.01
0.09
0.19
0.21
0.2
0.075
-0.08
-0.035
-0.03
-0.06
-0.105
0.145
0.205
0.165
0.205
0.185
0.05
-0.065
-0.035
-0.025
-0.175
-0.085
0.13
0.285
0.275
0.13
0.01
-0.105
-0.045
-0.13
-0.04
0.075
0.195
0.235
0.25
0.015
0.015
-0.05
-0.115
0.03
0.015
0.0
0.04
0.19
0.205
0.085
-0.03
0.02
-0.095
-0.145
-0.125
0.07
0.155
0.09
0.065
0.115
0.0
-0.215
-0.105
-0.15
-0.015
0.14
0.125
0.165
0.025
0.065
0.015
-0.18
-0.115
-0.12
-0.025
0.035
0.1
0.2
0.035
0.085
-0.035
-0.16
-0.195
-0.175
-0.06
0.09
0.16
0.175
0.14
-0.04
-0.215
-0.16
-0.045
-0.15
-0.13
-0.005
0.15
0.125
0.105
0.065
-0.105
-0.175
-0.14
-0.11
-0.11
0.075
0.16
0.17
0.06
0.04
-0.15
-0.24
-0.2
-0.135
-0.06
-0.01
0.1
0.15
0.105
0.045
-0.15
-0.195
-0.18
-0.13
-0.065
0.085
0.04
0.095
0.065
0.01
-0.095
-0.165
-0.17
-0.125
-0.05
0.03
0.06
0.09
0.1
0.045
-0.11
-0.22
-0.235
-0.24
-0.09
0.23
0.085
0.19
0.105
0.04
-0.04
-0.155
-0.225
-0.245
-0.11
0.045
0.095
0.13
0.065
-0.065
-0.13
-0.23
-0.245
-0.16
-0.13
0.06
0.21
0.08
0.055
0.04
-0.155
-0.12
-0.16
-0.12
-0.01
0.025
0.08
0.135
0.075
-0.02
-0.16
-0.295
-0.27
-0.085
-0.08
0.135
0.17
0.07
-0.01
-0.065
-0.105
-0.2
-0.24
-0.185
-0.1
0.115
0.175
0.13
0.11
0.055
-0.11
-0.23
-0.15
-0.205
-0.085
0.045
0.13
0.13
0.07
-0.105
-0.245
-0.27
-0.23
-0.135
-0.03
0.085
0.185
0.11
0.055
-0.035
-0.22
-0.195
-0.175
-0.11
0.11
0.02
-0.005
0.07
0.1
-0.02
-0.21
-0.245
-0.17
-0.03
-0.02
0.065
0.145
0.095
0.015
-0.015
-0.14
-0.075
-0.13
-0.22
0.055
0.09
-0.015
0.025
0.125
-0.01
-0.15
-0.15
-0.065
0.03
0.075
0.1
0.16
0.11
0.035
0.035
-0.015
-0.12
-0.13
-0.135
0.055
0.12
0.16
0.125
0.02
-0.055
-0.185
-0.28
-0.27
-0.125
0.055
0.095
0.195
0.085
-0.03
-0.11
-0.215
-0.2
-0.185
-0.08
0.055
0.155
0.135
0.105
-0.07
-0.215
-0.32
-0.285
-0.11
-0.13
-0.045
0.125
0.14
-0.01
0.02
-0.105
-0.235
-0.195
-0.18
-0.075
0.13
0.15
0.12
0.025
-0.125
-0.235
-0.26
-0.22
-0.15
-0.105
0.015
0.07
0.12
-0.015
-0.02
-0.06
-0.09
-0.07
0.005
0.215
0.355
0.425
0.68
0.575
0.53
0.385
0.225
0.205
0.065
0.02
0.08
0.105
0.035
-0.145
-0.23
-0.335
-0.495
-0.59
-0.38
-0.28
-0.17
-0.085
-0.1
-0.145
-0.255
-0.22
-0.235
-0.215
-0.16
-0.125
0.065
0.075
0.045
0.115
-0.12
-0.18
-0.32
-0.26
-0.145
-0.005
0.13
0.165
0.055
0.05
-0.15
-0.14
-0.24
-0.24
0.015
0.055
0.005
0.09
0.06
-0.04
-0.095
-0.1
-0.23
-0.12
-0.145
-0.11
0.12
0.095
0.035
0.1
-0.11
-0.09
-0.12
-0.28
-0.11
-0.005
0.115
0.24
0.1
0.065
-0.11
-0.15
-0.095
-0.15
-0.06
0.105
0.16
0.165
0.105
-0.03
-0.135
-0.155
-0.075
-0.065
-0.135
0.18
0.185
0.32
0.155
0.07
-0.025
-0.015
-0.035
-0.01
0.005
0.12
0.215
0.34
0.225
0.27
0.1
0.075
0.02
0.02
0.12
0.255
0.37
0.485
0.345
0.305
0.2
0.14
0.22
0.135
0.28
0.4
0.535
0.455
0.425
0.37
0.305
0.26
0.225
0.365
0.385
0.56
0.615
0.555
0.505
0.415
0.29
0.245
0.3
0.36
0.5
0.49
0.485
0.445
0.41
0.425
0.275
0.175
0.125
0.095
0.2
0.33
0.38
0.27
0.265
0.18
-0.055
-0.005
-0.105
-0.09
0.07
0.21
0.27
0.19
0.095
-0.02
-0.14
-0.225
-0.235
-0.18
0.05
0.1
0.115
0.14
0.1
0.02
-0.075
-0.18
-0.165
-0.17
-0.03
0.1
0.11
0.14
0.03
-0.09
-0.135
-0.19
-0.12
-0.1
-0.01
0.13
0.08
0.055
0.095
-0.05
-0.08
-0.26
-0.14
-0.15
0.06
0.13
0.145
0.03
0.065
-0.04
-0.235
-0.16
-0.26
-0.195
0.0
0.105
0.135
0.02
0.005
-0.03
-0.17
-0.145
-0.05
-0.02
0.025
0.11
0.055
-0.01
0.045
-0.095
-0.225
-0.275
-0.17
-0.165
0.065
0.08
0.035
0.095
0.085
-0.02
-0.185
-0.225
-0.215
-0.07
0.09
0.07
0.225
0.13
-0.02
-0.08
-0.275
-0.245
-0.16
-0.065
0.075
0.1
0.05
0.075
-0.045
-0.28
-0.255
-0.3
-0.225
-0.135
0.075
0.07
0.11
0.105
-0.035
-0.16
-0.345
-0.225
-0.16
-0.09
0.105
0.155
0.09
0.07
-0.11
-0.16
-0.22
-0.245
-0.225
-0.12
0.0
0.08
0.155
-0.025
-0.1
-0.16
-0.21
-0.23
-0.08
-0.125
0.105
0.08
0.01
0.05
-0.075
-0.235
-0.19
-0.2
-0.16
-0.115
-0.035
0.11
0.125
-0.035
-0.135
-0.26
-0.31
-0.21
-0.135
-0.11
-0.02
0.06
0.06
-0.03
-0.12
-0.215
-0.225
-0.29
-0.21
-0.115
0.055
0.12
0.1
0.06
-0.095
-0.19
-0.345
-0.265
-0.195
-0.005
0.15
0.035
0.035
0.015
-0.125
-0.19
-0.23
-0.24
-0.19
-0.08
0.05
0.07
0.125
-0.01
-0.175
-0.15
-0.16
-0.27
-0.24
-0.05
0.025
0.09
0.005
-0.08
-0.165
-0.225
-0.285
-0.25
-0.235
-0.06
0.045
0.145
-0.005
0.0
-0.09
-0.285
-0.245
-0.23
-0.115
0.035
-0.01
-0.075
-0.015
0.03
-0.105
-0.2
-0.265
-0.265
-0.14
0.08
0.075
0.105
-0.035
-0.08
-0.18
-0.285
-0.31
-0.12
-0.125
0.03
0.185
0.045
-0.01
0.02
-0.195
-0.2
-0.25
-0.215
-0.17
-0.005
0.04
0.11
0.04
-0.055
-0.18
-0.19
-0.3
-0.12
-0.06
-0.01
0.085
0.115
0.01
-0.025
-0.18
-0.21
-0.22
-0.18
-0.07
0.05
0.06
0.085
0.055
-0.07
-0.145
-0.295
-0.18
-0.17
0.02
0.105
0.185
0.15
0.05
0.0
-0.13
-0.235
-0.22
-0.16
-0.05
0.14
0.235
0.115
0.095
-0.05
-0.095
-0.165
-0.13
-0.14
0.03
0.115
0.13
0.11
0.07
0.0
-0.04
-0.24
-0.195
-0.125
-0.025
0.045
0.09
0.215
0.09
-0.06
-0.145
-0.245
-0.27
-0.16
-0.105
-0.015
0.14
0.13
0.055
-0.07
-0.31
-0.245
-0.1
-0.19
-0.16
-0.04
0.25
0.17
0.06
-0.14
-0.165
-0.265
-0.36
-0.185
-0.04
0.06
0.115
0.05
0.05
-0.08
-0.285
-0.295
-0.155
-0.19
-0.11
0.105
0.145
0.125
0.13
-0.085
-0.305
-0.32
-0.255
-0.135
-0.08
0.03
0.16
0.115
0.215
0.145
0.135
0.09
0.125
0.34
0.67
0.665
0.67
0.565
0.455
0.11
-0.01
-0.09
-0.25
-0.235
-0.22
-0.135
-0.17
-0.235
-0.24
-0.36
-0.51
-0.495
-0.405
-0.33
-0.08
0.055
0.095
0.025
0.04
-0.145
-0.315
-0.315
-0.175
-0.075
-0.03
0.115
0.115
0.065
-0.045
-0.07
-0.15
-0.23
-0.135
-0.01
0.095
0.065
0.05
-0.02
-0.01
-0.05
-0.21
-0.225
-0.23
-0.05
0.09
0.14
0.165
0.105
0.02
-0.015
-0.14
-0.27
-0.175
0.01
0.115
0.155
0.21
0.12
-0.05
-0.125
-0.11
-0.125
-0.115
-0.07
0.13
0.26
0.18
0.12
0.015
-0.065
-0.135
-0.105
-0.05
0.025
0.11
0.23
0.28
0.135
0.05
-0.05
-0.085
-0.135
-0.05
0.14
0.265
0.26
0.39
0.295
0.135
-0.065
-0.07
-0.04
0.015
0.12
0.295
0.36
0.455
0.335
0.155
0.025
0.135
0.105
0.155
0.345
0.425
0.485
0.555
0.485
0.325
0.225
0.165
0.235
0.39
0.525
0.655
0.595
0.655
0.595
0.32
0.31
0.32
0.3
0.4
0.555
0.72
0.65
0.58
0.575
0.425
0.175
0.25
0.32
0.335
0.345
0.45
0.675
0.56
0.47
0.245
0.09
0.065
0.135
0.19
0.295
0.38
0.33
0.245
0.23
0.03
-0.1
-0.11
-0.045
0.085
0.2
0.24
0.17
0.18
0.11
-0.09
-0.095
-0.175
-0.04
-0.06
0.105
0.23
0.255
0.19
0.15
-0.005
-0.145
-0.255
-0.115
-0.05
0.07
0.09
0.17
0.245
0.02
0.08
-0.01
-0.235
-0.12
-0.05
0.045
0.075
0.145
0.12
0.09
-0.115
-0.18
-0.075
-0.11
-0.005
0.075
0.145
0.14
0.185
0.075
-0.065
-0.13
-0.13
-0.05
-0.05
0.1
0.185
0.15
0.095
0.075
0.015
-0.045
-0.225
-0.14
0.02
0.21
0.215
0.145
0.095
0.035
-0.02
-0.205
-0.19
-0.08
0.125
0.13
0.15
0.085
0.04
0.02
-0.07
-0.13
-0.11
0.025
-0.01
0.115
0.12
0.125
0.145
-0.06
-0.135
-0.12
-0.055
-0.18
-0.1
0.135
0.2
0.13
0.03
-0.09
-0.155
-0.2
-0.21
-0.045
-0.005
0.19
0.2
0.2
0.015
-0.12
-0.13
-0.155
-0.16
-0.055
-0.015
0.135
0.2
0.13
0.055
-0.085
-0.2
-0.16
-0.13
-0.13
0.015
0.1
0.09
0.08
0.055
-0.105
-0.125
-0.09
-0.065
-0.08
0.025
0.035
0.185
0.175
0.08
-0.13
-0.15
-0.255
-0.08
-0.04
-0.01
0.11
0.17
0.095
0.065
-0.065
-0.185
-0.26
-0.15
-0.085
0.04
0.18
0.14
0.13
0.07
-0.025
-0.135
-0.22
-0.2
-0.09
0.085
0.105
0.1
0.065
0.06
-0.005
-0.16
-0.185
-0.14
-0.115
-0.01
0.095
0.15
0.085
0.12
-0.075
-0.185
-0.145
-0.08
0.015
0.095
0.12
0.16
0.08
0.015
-0.025
-0.12
-0.255
-0.115
-0.03
0.04
0.11
0.14
0.14
-0.025
-0.15
-0.23
-0.15
-0.045
-0.035
0.13
0.165
0.195
0.09
-0.04
-0.1
-0.17
-0.145
-0.08
0.02
0.015
0.165
0.145
0.11
-0.065
-0.095
-0.25
-0.145
-0.065
0.11
0.205
0.185
0.01
0.045
0.085
-0.1
-0.165
-0.22
-0.14
-0.005
0.04
0.125
0.115
0.135
-0.035
-0.135
-0.155
-0.15
-0.105
0.08
0.175
0.175
0.205
0.12
-0.075
-0.16
-0.24
-0.215
-0.125
0.02
0.185
0.2
0.13
0.005
-0.115
0.0
-0.07
-0.075
-0.015
0.035
0.045
0.115
0.17
0.04
-0.06
-0.185
-0.155
-0.11
-0.065
-0.09
0.21
0.165
0.14
0.03
0.005
-0.18
-0.11
-0.14
-0.1
0.04
0.185
0.155
0.17
0.175
0.1
0.05
-0.005
0.02
-0.015
0.105
0.305
0.255
0.105
0.075
-0.035
-0.08
-0.095
-0.12
-0.02
0.185
0.22
0.225
0.235
0.06
0.065
-0.105
-0.125
-0.125
-0.055
0.05
0.095
0.16
0.1
0.025
-0.125
-0.2
-0.115
-0.045
-0.065
0.09
0.2
0.2
0.01
0.02
-0.105
-0.16
-0.135
-0.145
-0.055
0.06
0.205
0.17
0.095
0.0
-0.135
-0.195
-0.095
-0.21
-0.03
0.22
0.23
0.165
0.15
0.035
-0.095
-0.205
-0.21
-0.08
0.005
-0.025
0.165
0.225
0.15
0.145
-0.06
-0.08
-0.13
0.02
0.055
0.18
0.285
0.385
0.36
0.32
0.22
0.26
0.33
0.495
0.58
0.49
0.515
0.485
0.175
0.05
-0.13
-0.315
-0.355
-0.305
-0.195
-0.105
-0.025
-0.06
-0.14
-0.215
-0.29
-0.265
-0.25
-0.225
-0.07
0.115
0.155
0.165
0.03
-0.055
-0.135
-0.145
-0.1
-0.045
0.105
0.135
0.185
0.23
0.135
-0.13
-0.14
-0.175
-0.095
-0.015
0.07
0.2
0.17
0.185
0.175
0.015
-0.035
-0.1
-0.07
0.05
0.11
0.17
0.255
0.255
0.155
-0.025
-0.16
-0.085
-0.12
-0.02
0.12
0.185
0.23
0.26
0.18
-0.04
-0.085
0.015
0.02
-0.05
0.19
0.27
0.23
0.16
0.165
0.03
-0.07
-0.035
0.0
0.04
0.135
0.24
0.29
0.335
0.165
0.12
-0.025
0.12
0.075
0.04
0.19
0.39
0.44
0.33
0.24
0.1
0.155
0.15
0.23
0.2
0.32
0.44
0.47
0.415
0.385
0.22
0.135
0.22
0.235
0.33
0.48
0.605
0.555
0.585
0.44
0.335
0.375
0.38
0.36
0.43
0.61
0.7
0.655
0.64
0.53
0.515
0.37
0.385
0.405
0.495
0.685
0.69
0.655
0.63
0.535
0.31
0.2
0.245
0.31
0.405
0.58
0.575
0.605
0.39
0.26
0.185
0.06
0.18
0.215
0.23
0.345
0.37
0.335
0.305
0.195
0.07
-0.01
-0.06
0.025
0.21
0.275
0.155
0.17
0.18
0.065
0.07
-0.04
-0.16
-0.075
0.14
0.185
0.285
0.26
0.175
0.115
-0.13
-0.115
-0.115
0.02
0.185
0.195
0.14
0.105
0.235
0.035
-0.055
-0.09
-0.005
-0.035
0.195
0.3
0.325
0.18
0.06
-0.03
-0.07
-0.08
-0.13
-0.03
0.24
0.24
0.185
0.26
0.17
0.07
-0.045
-0.05
-0.075
0.01
0.18
0.21
0.235
0.23
0.075
-0.065
-0.085
-0.03
0.07
-0.01
0.14
0.265
0.2
0.25
0.15
-0.06
-0.145
-0.045
-0.11
-0.065
0.145
0.235
0.26
0.15
0.115
-0.06
0.01
-0.09
-0.1
0.0
0.195
0.195
0.21
0.22
0.095
-0.175
0.02
-0.105
-0.215
0.045
0.14
0.16
0.25
0.125
0.05
-0.02
-0.155
-0.195
-0.115
-0.005
0.125
0.235
0.285
0.06
0.1
-0.04
-0.18
-0.17
-0.12
0.055
0.1
0.175
0.185
0.055
0.055
-0.075
-0.115
-0.065
0.025
0.03
0.075
0.11
0.115
0.065
0.045
-0.105
-0.18
-0.21
-0.135
-0.02
0.11
0.135
0.315
0.115
-0.105
-0.13
-0.16
-0.12
-0.115
-0.03
0.105
0.215
0.235
0.12
-0.005
-0.095
-0.16
-0.185
-0.095
-0.025
0.105
0.225
0.32
0.21
0.01
-0.25
-0.23
-0.145
-0.145
-0.01
0.135
0.17
0.12
0.1
-0.01
-0.1
-0.05
-0.175
-0.08
0.045
0.085
0.235
0.21
0.09
-0.08
-0.12
-0.17
-0.225
-0.125
0.15
0.16
0.26
0.15
0.155
0.07
-0.14
-0.225
-0.205
-0.04
0.1
0.05
0.16
0.115
0.055
-0.015
-0.155
-0.205
-0.12
-0.07
0.185
0.09
0.205
0.085
0.195
-0.065
-0.19
-0.105
-0.17
-0.085
0.175
0.165
0.295
0.25
0.055
-0.165
-0.19
-0.23
-0.03
-0.005
0.07
0.14
0.255
0.16
0.065
-0.05
-0.075
-0.215
-0.18
0.055
0.165
0.165
0.275
0.175
0.0
-0.09
-0.175
-0.125
-0.12
0.01
0.05
0.195
0.275
0.11
0.04
0.015
-0.105
-0.1
0.0
0.015
0.105
0.17
0.145
0.18
0.17
0.01
-0.08
-0.09
-0.05
0.025
0.195
0.215
0.34
0.24
0.085
-0.025
-0.05
-0.055
-0.01
0.025
0.205
0.225
0.195
0.15
0.055
-0.005
-0.045
-0.095
-0.085
0.015
0.185
0.15
0.165
0.085
-0.06
-0.055
-0.095
-0.125
0.005
0.06
0.115
0.245
0.215
0.175
-0.04
-0.095
-0.13
-0.165
-0.09
0.035
0.02
0.105
0.31
0.095
-0.01
-0.13
-0.15
-0.07
-0.08
-0.04
0.055
0.13
0.215
0.225
-0.025
-0.085
-0.195
-0.28
-0.145
0.02
0.13
0.095
0.135
0.04
-0.055
-0.11
-0.11
-0.135
-0.105
0.1
0.01
0.23
0.385
0.27
0.265
0.085
0.125
0.375
0.46
0.65
0.695
0.545
0.415
0.29
0.12
-0.085
-0.135
-0.26
-0.125
-0.16
-0.075
-0.085
-0.185
-0.23
-0.3
-0.385
-0.44
-0.285
-0.215
0.075
0.025
0.075
0.13
0.0
-0.22
-0.25
-0.29
-0.2
-0.1
0.035
0.145
0.19
0.07
-0.02
-0.045
-0.24
-0.18
-0.185
-0.02
0.02
0.08
0.16
0.175
0.16
0.015
-0.205
-0.17
-0.13
-0.065
0.1
0.225
0.1
0.045
0.03
-0.095
-0.155
-0.175
-0.145
-0.08
0.125
0.155
0.125
0.055
0.055
-0.11
-0.175
-0.11
0.0
-0.045
0.205
0.115
0.14
0.145
0.065
-0.065
-0.06
-0.02
-0.03
0.03
0.095
0.23
0.13
0.075
-0.04
-0.02
-0.1
-0.1
-0.075
0.1
0.17
0.19
0.37
0.195
0.125
0.045
0.03
-0.09
0.14
0.17
0.2
0.295
0.305
0.28
0.16
0.105
0.125
0.06
0.205
0.33
0.4
0.46
0.48
0.5
0.435
0.25
0.2
0.19
0.29
0.42
0.52
0.54
0.525
0.55
0.38
0.325
0.245
0.275
0.26
0.41
0.655
0.585
0.58
0.61
0.4
0.19
0.265
0.235
0.205
0.23
0.415
0.465
0.42
0.42
0.21
0.075
0.035
0.075
0.06
0.15
0.255
0.225
0.205
0.115
0.03
-0.03
-0.06
-0.085
-0.08
0.07
0.19
0.105
0.125
0.14
-0.095
-0.25
-0.24
-0.14
-0.025
0.05
0.095
0.05
0.09
0.07
-0.05
-0.28
-0.28
-0.215
-0.075
0.07
0.105
0.25
0.09
-0.03
0.01
-0.175
-0.24
-0.195
-0.1
0.005
0.135
0.2
0.125
0.005
-0.155
-0.145
-0.19
-0.235
0.035
0.05
0.09
0.06
0.12
0.095
-0.1
-0.245
-0.205
-0.16
-0.205
0.08
0.16
0.16
0.17
0.045
-0.185
-0.27
-0.2
-0.055
0.08
0.04
0.08
0.105
0.07
-0.05
-0.165
-0.215
-0.18
-0.095
-0.01
0.005
0.095
0.165
0.06
-0.045
-0.145
-0.2
-0.175
-0.1
-0.01
0.11
0.1
0.05
-0.005
-0.09
-0.035
-0.185
-0.215
-0.155
-0.13
-0.025
0.14
0.13
0.05
-0.095
-0.19
-0.23
-0.19
-0.18
0.055
0.055
0.095
0.15
-0.05
-0.12
-0.19
-0.28
-0.18
-0.12
-0.045
0.075
0.175
0.105
-0.02
-0.05
-0.22
-0.28
-0.22
-0.155
-0.08
0.05
0.12
0.16
0.105
-0.145
-0.21
-0.165
-0.295
-0.135
0.015
0.065
0.095
0.065
0.01
-0.12
-0.215
-0.27
-0.26
-0.175
0.03
0.105
0.08
-0.01
-0.075
-0.135
-0.235
-0.245
-0.24
-0.15
-0.025
0.08
0.135
0.03
-0.01
-0.155
-0.205
-0.255
-0.245
-0.065
-0.01
0.02
0.01
0.09
-0.005
-0.065
-0.23
-0.275
-0.215
-0.085
0.065
0.01
0.01
0.005
-0.01
-0.125
-0.295
-0.145
-0.205
-0.13
-0.01
0.04
0.15
0.0
-0.06
-0.045
-0.15
-0.255
-0.25
-0.135
-0.01
0.01
0.09
-0.015
-0.05
-0.155
-0.18
-0.245
-0.225
-0.125
0.035
0.18
0.155
0.02
-0.14
-0.215
-0.285
-0.24
-0.22
-0.125
0.06
0.135
0.05
-0.01
0.005
-0.16
-0.22
-0.245
-0.15
-0.07
-0.03
0.08
0.175
0.215
-0.08
-0.215
-0.235
-0.23
-0.185
0.035
0.13
0.09
0.015
-0.05
-0.095
-0.19
-0.24
-0.27
-0.225
-0.075
0.14
0.125
0.205
0.03
-0.15
-0.245
-0.25
-0.27
-0.115
-0.075
0.025
0.085
0.145
-0.065
-0.16
-0.215
-0.18
-0.11
-0.17
-0.015
0.04
0.105
0.08
0.045
-0.07
-0.165
-0.265
-0.125
0.005
-0.1
0.04
0.15
0.0
0.06
-0.02
-0.22
-0.225
-0.16
-0.12
0.0
0.12
0.225
0.16
0.02
-0.09
-0.06
-0.12
-0.18
-0.195
-0.005
0.21
0.175
0.16
0.125
0.01
-0.075
-0.215
-0.2
-0.075
0.135
0.18
0.095
0.02
-0.03
-0.07
-0.21
-0.19
-0.23
-0.125
0.06
0.055
0.12
0.02
0.095
-0.115
-0.265
-0.25
-0.2
-0.135
0.005
0.07
0.09
0.005
0.015
-0.085
-0.17
-0.21
-0.165
-0.175
-0.065
0.065
0.085
0.08
-0.015
-0.185
-0.235
-0.22
-0.2
-0.03
0.08
0.105
0.145
0.095
-0.1
-0.215
-0.19
-0.2
-0.21
-0.075
0.01
0.125
0.115
0.135
0.195
0.0
-0.06
0.05
0.255
0.33
0.565
0.6
0.63
0.56
0.37
0.285
0.055
-0.145
-0.13
-0.05
-0.1
-0.04
-0.095
-0.08
-0.315
-0.475
-0.45
-0.445
-0.285
-0.265
-0.17
-0.07
-0.015
-0.035
0.02
-0.165
-0.21
-0.2
-0.17
-0.12
0.145
0.205
0.105
0.07
-0.075
-0.16
-0.14
-0.175
-0.1
0.005
0.075
0.11
0.08
0.04
-0.105
-0.15
-0.155
-0.18
-0.05
0.065
0.075
0.125
0.145
0.055
-0.1
-0.135
-0.145
-0.185
-0.16
0.07
0.13
0.135
0.125
0.025
-0.08
-0.065
-0.255
-0.13
-0.04
0.1
0.12
0.19
0.11
0.07
-0.025
-0.085
-0.14
-0.055
-0.09
0.065
0.155
0.215
0.2
0.11
0.0
-0.095
-0.175
-0.015
0.075
0.255
0.165
0.175
0.32
0.165
0.035
0.045
0.025
0.01
0.035
0.14
0.325
0.285
0.225
0.16
0.105
0.04
-0.065
0.105
0.24
0.365
0.47
0.495
0.545
0.315
0.205
0.16
0.15
0.18
0.305
0.505
0.625
0.58
0.535
0.46
0.315
0.27
0.255
0.41
0.395
0.405
0.595
0.585
0.48
0.46
0.38
0.23
0.175
0.31
0.4
0.385
0.505
0.555
0.44
0.37
0.15
0.175
0.185
0.075
0.14
0.285
0.37
0.325
0.365
0.11
-0.07
-0.09
-0.005
0.09
0.09
0.15
0.305
0.355
0.075
-0.02
-0.1
-0.25
-0.195
-0.095
0.01
0.06
0.175
0.165
0.085
0.025
-0.035
-0.195
-0.22
-0.1
0.01
0.095
0.195
0.235
0.015
-0.04
-0.145
-0.2
-0.09
-0.015
0.03
0.075
0.19
0.165
-0.01
-0.1
-0.165
-0.19
-0.1
-0.04
0.03
0.065
0.15
0.155
0.035
-0.11
-0.165
-0.07
-0.095
-0.08
0.02
0.13
0.145
0.08
0.04
0.045
-0.105
-0.095
-0.04
-0.12
0.015
0.14
0.03
0.1
0.1
-0.005
-0.135
-0.14
-0.255
-0.12
0.035
0.11
0.145
0.045
0.045
-0.045
-0.245
-0.29
-0.17
-0.125
0.105
0.19
0.11
0.18
0.015
-0.14
-0.145
-0.21
-0.175
-0.115
0.085
0.155
0.06
0.015
0.105
0.08
-0.085
-0.2
-0.145
0.01
0.04
0.155
0.14
0.105
0.055
-0.175
-0.24
-0.11
-0.13
-0.07
0.06
0.045
0.085
0.08
0.09
-0.175
-0.3
-0.265
-0.105
-0.02
-0.015
0.1
0.11
0.015
-0.045
-0.075
-0.2
-0.22
-0.15
-0.045
0.095
0.03
0.13
0.15
-0.065
-0.165
-0.145
-0.16
-0.17
-0.075
0.055
0.155
0.11
-0.035
-0.04
0.015
-0.15
-0.125
-0.095
-0.095
-0.01
0.065
0.155
0.095
-0.09
-0.29
-0.28
-0.175
-0.035
-0.06
0.025
0.075
0.13
0.105
-0.01
-0.11
-0.235
-0.18
-0.165
0.045
0.1
0.035
0.055
0.06
-0.055
-0.09
-0.19
-0.2
-0.145
-0.095
0.09
0.13
0.26
0.01
-0.22
-0.12
-0.15
-0.18
-0.085
-0.01
0.015
0.11
0.14
0.05
-0.145
-0.145
-0.185
-0.16
-0.135
0.025
0.155
0.245
0.045
0.01
-0.095
-0.17
-0.295
-0.115
-0.035
0.04
0.11
0.065
0.075
0.0
-0.035
-0.125
-0.225
-0.215
-0.05
0.02
0.07
0.125
0.065
0.08
-0.115
-0.205
-0.22
-0.13
-0.155
0.02
0.025
0.055
0.125
0.085
-0.02
-0.15
-0.23
-0.095
0.025
0.04
0.095
0.215
0.11
0.09
-0.03
-0.21
-0.195
-0.065
-0.025
0.055
0.19
0.215
0.165
0.005
-0.015
-0.11
-0.14
-0.105
-0.035
0.17
0.25
0.165
0.045
-0.035
-0.12
-0.07
-0.075
-0.155
-0.085
-0.005
0.095
0.12
0.105
-0.005
-0.11
-0.235
-0.285
-0.15
-0.13
-0.045
0.16
0.18
0.075
0.005
-0.145
-0.18
-0.155
-0.16
0.01
0.14
0.15
0.06
-0.025
0.025
-0.1
-0.24
-0.165
-0.165
-0.05
0.04
0.07
0.135
0.055
-0.025
-0.19
-0.295
-0.2
-0.14
-0.08
0.045
0.14
0.155
0.15
0.05
-0.15
-0.215
-0.285
-0.19
-0.045
0.045
0.26
0.25
0.265
0.14
0.23
0.165
0.1
0.28
0.58
0.66
0.555
0.41
0.27
0.11
-0.125
-0.205
-0.205
-0.23
-0.195
-0.09
-0.095
-0.08
-0.135
-0.26
-0.28
-0.41
-0.39
-0.275
-0.13
-0.035
0.045
0.085
0.04
-0.105
-0.235
-0.23
-0.13
-0.05
0.015
0.145
0.135
0.14
0.07
-0.085
-0.265
-0.24
-0.105
-0.135
0.005
0.065
0.12
0.185
0.07
-0.1
-0.08
-0.17
-0.105
-0.065
0.08
0.085
0.135
0.135
0.075
0.045
-0.13
-0.245
-0.155
0.04
0.205
0.2
0.19
0.035
0.075
-0.03
-0.085
-0.125
-0.065
-0.03
0.06
0.185
0.105
0.155
0.1
-0.05
-0.105
-0.11
0.0
0.04
0.13
0.11
0.23
0.245
0.1
0.04
-0.17
-0.085
0.02
0.015
0.11
0.18
0.27
0.25
0.205
0.12
0.005
0.0
0.055
0.095
0.26
0.415
0.405
0.36
0.2
0.065
0.05
0.045
0.28
0.23
0.44
0.465
0.5
0.44
0.3
0.265
0.32
0.285
0.215
0.36
0.475
0.63
0.635
0.565
0.47
0.245
0.275
0.38
0.38
0.53
0.62
0.535
0.605
0.555
0.435
0.295
0.255
0.3
0.355
0.34
0.43
0.44
0.425
0.445
0.33
0.1
0.115
0.11
0.19
0.2
0.155
0.435
0.28
0.125
0.05
-0.015
-0.025
0.025
-0.05
0.085
0.145
0.245
0.3
0.31
0.005
-0.065
-0.255
-0.265
-0.025
0.125
0.25
0.13
0.165
0.07
-0.065
-0.16
-0.225
-0.12
-0.045
0.055
0.095
0.175
0.195
0.07
-0.025
-0.165
-0.195
-0.12
-0.03
0.075
0.15
0.09
0.105
0.12
-0.06
-0.135
-0.285
-0.13
-0.115
0.13
0.09
0.15
0.15
0.035
-0.1
-0.18
-0.08
-0.095
-0.125
0.035
0.26
0.2
0.15
0.1
-0.055
-0.22
-0.065
-0.09
-0.07
0.105
0.19
0.165
0.055
0.015
-0.115
-0.07
-0.175
-0.22
-0.135
0.075
0.245
0.14
0.135
0.025
-0.175
-0.135
-0.16
-0.075
-0.12
0.005
0.17
0.245
0.105
0.075
-0.13
-0.16
-0.12
-0.095
0.035
0.04
0.135
0.175
0.115
-0.07
-0.165
-0.23
-0.1
-0.09
-0.07
0.09
0.2
0.135
0.085
-0.01
-0.165
-0.225
-0.19
-0.1
-0.03
0.115
0.115
0.095
0.09
-0.03
-0.16
-0.245
-0.14
-0.14
-0.03
0.07
0.235
0.085
0.02
-0.105
-0.175
-0.16
-0.15
-0.09
-0.045
0.035
0.205
0.15
0.08
-0.11
-0.14
-0.265
-0.23
-0.045
0.075
0.16
0.125
0.125
0.21
0.065
-0.225
-0.25
-0.25
-0.105
-0.03
0.06
0.14
0.095
0.035
-0.055
-0.18
-0.19
-0.215
-0.07
0.115
0.07
0.175
0.17
0.025
0.005
-0.1
-0.25
-0.22
-0.17
-0.03
0.125
0.15
0.145
0.16
-0.045
-0.13
-0.215
-0.08
-0.08
-0.03
0.065
0.18
0.065
0.055
-0.195
-0.235
-0.185
-0.095
-0.04
0.05
0.095
0.115
0.17
0.045
-0.16
-0.24
-0.14
-0.13
-0.095
0.125
0.1
0.13
0.14
0.055
-0.125
-0.205
-0.255
-0.11
-0.03
0.075
0.08
0.145
0.0
0.0
-0.045
-0.17
-0.21
-0.155
-0.025
0.14
0.135
0.05
0.16
0.035
-0.11
-0.215
-0.19
-0.065
-0.125
0.055
0.185
0.18
0.075
-0.075
-0.19
-0.295
-0.245
0.065
0.02
0.09
0.11
0.17
0.1
-0.035
-0.14
-0.19
-0.185
-0.1
-0.035
0.11
0.205
0.225
0.12
0.005
-0.225
-0.305
-0.235
-0.06
-0.045
0.02
0.245
0.24
0.095
-0.04
-0.18
-0.245
-0.16
-0.135
0.055
0.195
0.13
0.21
0.105
-0.025
-0.095
-0.17
-0.23
-0.07
0.14
0.255
0.16
0.155
0.11
0.01
-0.11
-0.07
-0.115
-0.06
0.13
0.145
0.18
0.235
0.135
0.11
-0.025
-0.13
-0.17
-0.085
0.15
0.175
0.16
0.185
0.055
-0.025
-0.105
-0.29
-0.21
-0.115
0.08
0.17
0.105
0.06
0.065
-0.07
-0.15
-0.095
-0.11
-0.055
0.11
0.14
0.075
0.04
0.04
-0.02
-0.115
-0.19
-0.185
-0.08
-0.005
0.01
0.15
0.135
-0.005
-0.125
-0.205
-0.22
-0.15
-0.095
0.085
0.19
0.16
0.17
0.13
-0.205
-0.195
-0.15
-0.075
-0.055
0.14
0.14
0.16
0.175
0.175
0.115
0.07
0.06
0.21
0.38
0.575
0.625
0.645
0.63
0.515
0.245
-0.035
-0.085
-0.015
-0.06
0.0
0.085
0.01
-0.045
-0.25
-0.325
-0.38
-0.395
-0.335
-0.14
-0.055
-0.025
-0.07
0.045
0.02
-0.145
-0.19
-0.17
-0.165
-0.16
0.02
0.05
0.18
0.17
0.085
-0.05
-0.17
-0.19
-0.16
0.06
0.125
0.165
0.15
0.1
0.025
-0.09
-0.185
-0.18
-0.08
-0.015
0.035
0.255
0.18
0.26
0.135
-0.18
-0.19
-0.15
-0.03
0.1
0.235
0.195
0.15
0.07
-0.055
-0.14
-0.11
-0.12
-0.07
0.005
0.13
0.26
0.14
0.15
0.05
-0.105
-0.175
-0.085
0.01
0.1
0.165
0.205
0.215
0.17
-0.025
-0.025
-0.055
-0.105
-0.035
0.16
0.3
0.305
0.34
0.305
0.255
-0.04
-0.09
-0.11
0.105
0.29
0.31
0.365
0.355
0.315
0.2
0.115
0.005
0.05
0.195
0.36
0.525
0.53
0.515
0.445
0.285
0.135
0.225
0.265
0.25
0.455
0.715
0.69
0.59
0.495
0.36
0.295
0.325
0.345
0.435
0.575
0.68
0.58
0.61
0.525
0.35
0.37
0.29
0.3
0.365
0.48
0.57
0.545
0.435
0.425
0.26
0.135
0.14
0.22
0.2
0.3
0.44
0.345
0.285
0.27
0.13
-0.105
-0.065
0.0
0.025
0.165
0.22
0.255
0.205
0.1
0.02
-0.125
-0.16
0.03
0.085
0.035
0.175
0.175
0.15
0.045
-0.07
-0.18
-0.15
-0.09
0.005
0.135
0.255
0.265
0.115
0.005
-0.105
-0.155
-0.175
-0.095
0.08
0.14
0.19
0.15
0.135
0.05
-0.05
-0.095
-0.23
-0.075
-0.045
0.11
0.235
0.195
0.165
-0.015
-0.07
-0.215
-0.235
-0.135
0.09
-0.015
0.275
0.145
0.105
0.115
-0.15
-0.185
-0.145
-0.16
-0.01
0.18
0.3
0.195
0.055
-0.08
-0.135
-0.15
-0.17
-0.075
0.025
0.06
0.235
0.165
0.04
-0.1
-0.16
-0.07
-0.175
-0.025
0.025
0.08
0.185
0.12
0.2
0.02
-0.235
-0.295
-0.145
-0.045
0.025
0.03
0.135
0.18
0.08
-0.165
-0.145
-0.18
-0.195
-0.105
0.15
0.12
0.15
0.16
0.155
-0.135
-0.21
-0.245
-0.245
-0.105
0.08
0.12
0.075
0.055
0.095
-0.03
-0.17
-0.23
-0.125
-0.12
-0.02
0.05
0.085
0.065
0.045
-0.13
-0.11
-0.27
-0.15
-0.08
0.02
0.09
0.02
0.085
-0.005
-0.235
-0.19
-0.185
-0.125
-0.07
-0.08
0.065
0.12
0.055
-0.035
-0.11
-0.205
-0.345
-0.175
-0.05
0.045
0.125
0.14
0.07
-0.02
-0.205
-0.245
-0.24
-0.235
-0.1
0.04
0.14
0.16
-0.015
-0.15
-0.18
-0.28
-0.245
-0.105
-0.015
-0.055
0.12
0.015
0.075
-0.01
-0.19
-0.27
-0.225
-0.215
-0.085
0.04
0.13
0.13
0.03
0.025
-0.245
-0.23
-0.25
-0.135
-0.055
-0.09
0.07
0.065
0.04
-0.08
-0.26
-0.165
-0.23
-0.11
-0.075
-0.01
0.095
0.09
0.015
-0.03
-0.14
-0.27
-0.34
-0.195
-0.065
-0.035
-0.03
0.03
0.13
-0.095
-0.14
-0.26
-0.2
-0.08
0.015
0.1
0.05
0.075
0.0
-0.15
-0.145
-0.26
-0.28
-0.155
-0.09
0.05
0.02
0.14
0.06
-0.115
-0.18
-0.265
-0.225
-0.16
-0.055
0.025
-0.005
0.0
0.005
-0.17
-0.265
-0.24
-0.205
-0.195
0.005
0.01
0.03
-0.035
0.015
-0.025
-0.125
-0.275
-0.255
-0.095
-0.01
0.035
0.095
0.135
0.07
-0.04
-0.13
-0.275
-0.145
-0.105
0.16
0.15
0.125
0.075
0.015
-0.07
-0.255
-0.135
-0.11
-0.06
-0.015
0.12
0.12
-0.01
0.01
-0.145
-0.195
-0.23
-0.155
-0.2
-0.125
0.065
0.035
-0.09
-0.105
-0.135
-0.33
-0.335
-0.23
-0.125
-0.015
0.075
0.07
0.045
-0.085
-0.255
-0.365
-0.32
-0.24
-0.145
0.01
0.085
0.025
-0.055
-0.17
-0.235
-0.255
-0.315
-0.225
-0.135
0.095
0.125
0.075
-0.075
-0.165
-0.25
-0.315
-0.29
-0.25
-0.14
0.01
0.16
0.15
-0.01
-0.15
-0.24
-0.23
-0.275
-0.09
0.115
0.29
0.395
0.37
0.425
0.45
0.355
0.245
0.19
0.235
0.19
0.225
0.26
0.105
-0.17
-0.255
-0.375
-0.445
-0.515
-0.44
-0.32
-0.245
-0.205
-0.26
-0.225
-0.27
-0.34
-0.345
-0.235
-0.235
-0.065
0.005
0.035
0.025
-0.085
-0.24
-0.3
-0.305
-0.195
-0.04
0.035
-0.04
0.075
0.065
0.03
-0.185
-0.175
-0.095
-0.1
-0.225
-0.13
-0.08
0.015
0.005
-0.09
-0.15
-0.14
-0.325
-0.245
-0.235
-0.055
0.02
0.17
0.165
-0.015
-0.125
-0.195
-0.24
-0.185
-0.15
0.06
0.135
0.085
-0.04
0.01
-0.15
-0.225
-0.18
-0.125
-0.16
-0.01
0.135
0.175
0.085
-0.035
-0.155
-0.22
-0.085
-0.15
-0.135
-0.05
0.125
0.185
0.08
-0.04
-0.055
-0.07
-0.155
0.015
-0.02
0.095
0.185
0.245
0.15
0.135
-0.07
-0.18
-0.135
0.01
0.165
0.26
0.35
0.36
0.345
0.265
0.175
0.05
0.015
0.105
0.205
0.275
0.44
0.49
0.425
0.25
0.245
0.195
0.175
0.16
0.275
0.415
0.57
0.575
0.475
0.335
0.18
0.17
0.3
0.305
0.37
0.455
0.47
0.5
0.49
0.33
0.135
0.075
0.1
0.065
0.13
0.23
0.28
0.325
0.195
0.085
-0.03
-0.205
-0.075
0.095
0.14
0.055
0.17
0.26
0.04
-0.105
-0.12
-0.13
-0.205
-0.155
-0.05
-0.025
0.155
-0.005
-0.085
-0.14
-0.265
-0.28
-0.27
-0.225
-0.06
0.055
0.04
-0.005
0.065
0.0
-0.255
-0.3
-0.335
-0.16
-0.075
-0.055
0.005
0.21
-0.04
-0.19
-0.29
-0.27
-0.225
-0.225
-0.035
0.075
0.03
0.01
-0.015
-0.195
-0.265
-0.175
-0.25
-0.145
0.005
-0.005
0.07
-0.075
-0.105
-0.155
-0.245
-0.225
-0.215
-0.24
-0.07
0.075
0.18
0.09
-0.045
-0.19
-0.25
-0.235
-0.355
-0.225
-0.035
0.09
0.09
0.025
-0.04
-0.14
-0.305
-0.325
-0.24
-0.08
-0.005
0.0
0.035
-0.045
-0.13
-0.07
-0.22
-0.3
-0.295
-0.135
0.025
0.085
0.12
-0.035
-0.12
-0.14
-0.265
-0.305
-0.2
-0.27
-0.09
0.035
0.085
0.005
-0.105
-0.2
-0.32
-0.29
-0.175
-0.075
0.04
-0.02
-0.015
0.005
-0.14
-0.255
-0.355
-0.225
-0.16
-0.115
-0.005
0.02
0.05
0.005
-0.16
-0.345
-0.22
-0.23
-0.31
-0.2
-0.095
-0.01
0.015
-0.08
-0.11
-0.175
-0.32
-0.37
-0.265
-0.08
0.025
0.005
0.05
-0.015
-0.105
-0.29
-0.32
-0.18
-0.26
-0.1
0.02
0.07
0.035
-0.035
-0.185
-0.365
-0.325
-0.26
-0.18
-0.075
0.025
0.005
-0.045
-0.05
-0.14
-0.19
-0.22
-0.24
-0.305
-0.11
-0.04
0.095
0.025
-0.03
-0.16
-0.275
-0.4
-0.255
-0.06
-0.12
-0.09
0.04
-0.015
-0.025
-0.2
-0.2
-0.26
-0.375
-0.27
-0.105
0.02
0.035
-0.095
-0.145
-0.195
-0.29
-0.235
-0.2
-0.27
-0.085
0.025
0.045
-0.06
-0.01
-0.13
-0.33
-0.365
-0.18
-0.12
-0.055
0.015
0.04
0.015
-0.01
-0.205
-0.24
-0.35
-0.195
-0.235
-0.04
0.095
0.105
0.06
0.04
-0.13
-0.24
-0.3
-0.135
-0.12
0.04
0.06
0.135
0.145
0.01
-0.19
-0.215
-0.245
-0.24
-0.09
0.035
0.11
0.14
0.045
-0.065
-0.22
-0.29
-0.24
-0.3
-0.185
-0.045
-0.035
0.06
0.03
-0.17
-0.18
-0.31
-0.31
-0.19
-0.14
-0.07
-0.04
-0.09
0.07
-0.06
-0.25
-0.36
-0.23
-0.205
-0.155
-0.01
0.005
-0.015
-0.01
-0.09
-0.245
-0.305
-0.26
-0.155
-0.135
-0.14
-0.06
0.055
0.05
-0.135
-0.29
-0.3
-0.295
-0.245
-0.08
0.02
0.055
0.055
-0.085
-0.055
-0.2
-0.225
-0.275
-0.105
0.045
0.125
0.27
0.285
0.33
0.265
0.27
0.31
0.245
0.215
0.145
0.165
0.285
0.04
-0.095
-0.21
-0.39
-0.505
-0.465
-0.435
-0.285
-0.255
-0.225
-0.27
-0.26
-0.25
-0.475
-0.52
-0.315
-0.285
-0.165
0.01
0.055
0.06
-0.095
-0.1
-0.185
-0.34
-0.255
-0.225
-0.015
0.0
0.06
0.16
0.015
-0.2
-0.26
-0.355
-0.33
-0.175
-0.015
0.025
0.095
0.055
-0.045
-0.09
-0.18
-0.17
-0.195
-0.255
-0.08
-0.005
0.11
0.08
-0.025
-0.18
-0.17
-0.275
-0.21
-0.125
0.075
0.045
0.09
0.095
-0.02
-0.185
-0.305
-0.195
-0.15
-0.14
0.01
0.065
0.165
0.025
-0.01
-0.155
-0.2
-0.14
-0.035
-0.015
0.08
0.085
0.155
0.135
0.05
-0.055
-0.08
-0.26
-0.145
0.04
0.13
0.25
0.265
0.11
0.11
0.005
-0.12
-0.11
0.0
0.14
0.275
0.305
0.315
0.285
0.27
0.135
0.085
0.125
0.095
0.275
0.405
0.43
0.425
0.49
0.305
0.225
0.27
0.23
0.215
0.41
0.495
0.63
0.575
0.435
0.34
0.275
0.19
0.24
0.355
0.365
0.495
0.59
0.495
0.4
0.36
0.175
0.09
0.105
0.23
0.2
0.155
0.325
0.32
0.255
0.145
0.045
-0.025
-0.095
-0.1
0.07
0.115
0.11
0.25
0.215
-0.125
-0.07
-0.17
-0.205
-0.195
-0.07
0.06
0.05
0.085
0.025
-0.125
-0.18
-0.215
-0.225
-0.155
-0.025
0.195
0.16
0.055
-0.06
-0.135
-0.245
-0.245
-0.245
-0.16
-0.05
0.075
0.07
0.1
-0.04
-0.105
-0.14
-0.285
-0.245
-0.12
-0.015
0.14
0.095
0.035
-0.01
-0.11
-0.275
-0.25
-0.21
-0.15
-0.045
0.11
0.105
0.055
0.0
-0.11
-0.19
-0.26
-0.265
-0.14
0.06
0.11
0.045
0.08
0.045
-0.07
-0.175
-0.195
-0.095
-0.13
-0.035
0.055
0.145
0.025
0.05
-0.2
-0.33
-0.32
-0.21
-0.105
-0.055
0.2
0.13
0.045
0.02
-0.15
-0.19
-0.29
-0.245
-0.165
0.05
0.09
