# TIPE ECG 2021 - ECG-ID Database v1.0.0 par Physionet
# [Numéro de la personne, Période d'échantillonnage, Prénom, Age, Sexe, Date de l'enregistrement]
[60, 0.002, Gwendolyn, 16, F, 12.05.2005]
0.34
0.335
0.345
0.34
0.335
0.345
0.345
0.345
0.365
0.36
0.37
0.355
0.365
0.36
0.37
0.35
0.355
0.36
0.36
0.37
0.365
0.375
0.375
0.375
0.38
0.375
0.385
0.375
0.38
0.385
0.38
0.37
0.38
0.37
0.37
0.37
0.375
0.37
0.38
0.385
0.39
0.39
0.39
0.385
0.39
0.4
0.405
0.405
0.395
0.405
0.4
0.39
0.385
0.395
0.385
0.39
0.385
0.395
0.4
0.395
0.405
0.4
0.385
0.41
0.415
0.4
0.395
0.42
0.395
0.4
0.4
0.395
0.4
0.415
0.41
0.42
0.425
0.44
0.43
0.415
0.44
0.45
0.44
0.445
0.44
0.465
0.46
0.465
0.47
0.475
0.465
0.45
0.455
0.47
0.455
0.455
0.45
0.46
0.46
0.46
0.455
0.43
0.435
0.425
0.415
0.41
0.405
0.41
0.415
0.405
0.395
0.39
0.395
0.425
0.405
0.4
0.41
0.415
0.415
0.41
0.41
0.415
0.42
0.42
0.415
0.405
0.41
0.415
0.42
0.415
0.405
0.415
0.43
0.425
0.435
0.425
0.42
0.4
0.41
0.415
0.415
0.405
0.4
0.4
0.4
0.4
0.39
0.42
0.425
0.445
0.505
0.555
0.67
0.785
0.905
0.96
0.96
0.935
0.93
0.875
0.95
0.975
0.98
0.975
0.86
0.65
0.515
0.505
0.49
0.475
0.47
0.475
0.46
0.455
0.44
0.445
0.435
0.435
0.43
0.425
0.425
0.425
0.42
0.425
0.43
0.43
0.43
0.42
0.42
0.425
0.425
0.435
0.43
0.44
0.43
0.435
0.44
0.445
0.45
0.445
0.44
0.435
0.45
0.45
0.44
0.43
0.43
0.445
0.45
0.445
0.44
0.41
0.425
0.46
0.45
0.46
0.465
0.455
0.46
0.49
0.46
0.44
0.485
0.475
0.475
0.485
0.495
0.49
0.495
0.48
0.49
0.485
0.47
0.475
0.54
0.555
0.565
0.535
0.545
0.565
0.575
0.595
0.6
0.59
0.605
0.62
0.63
0.65
0.665
0.68
0.685
0.71
0.72
0.74
0.745
0.755
0.755
0.775
0.775
0.775
0.775
0.785
0.78
0.795
0.79
0.79
0.785
0.765
0.76
0.745
0.73
0.715
0.71
0.7
0.685
0.665
0.645
0.63
0.615
0.6
0.585
0.57
0.565
0.55
0.545
0.52
0.515
0.505
0.5
0.495
0.5
0.51
0.495
0.475
0.485
0.49
0.47
0.47
0.475
0.475
0.48
0.48
0.475
0.48
0.48
0.485
0.48
0.47
0.47
0.485
0.495
0.49
0.485
0.475
0.48
0.48
0.465
0.475
0.485
0.48
0.475
0.48
0.48
0.485
0.475
0.475
0.465
0.465
0.475
0.47
0.47
0.475
0.48
0.48
0.48
0.47
0.48
0.47
0.455
0.455
0.455
0.465
0.465
0.475
0.485
0.49
0.475
0.475
0.48
0.475
0.475
0.485
0.475
0.485
0.49
0.475
0.48
0.485
0.485
0.485
0.49
0.49
0.485
0.475
0.485
0.5
0.495
0.5
0.48
0.49
0.485
0.5
0.495
0.49
0.495
0.49
0.485
0.485
0.49
0.485
0.495
0.485
0.5
0.49
0.495
0.495
0.485
0.495
0.495
0.485
0.49
0.495
0.49
0.495
0.5
0.495
0.48
0.485
0.475
0.485
0.485
0.485
0.47
0.465
0.48
0.47
0.485
0.475
0.47
0.47
0.47
0.49
0.47
0.48
0.475
0.465
0.475
0.485
0.47
0.465
0.47
0.475
0.47
0.475
0.49
0.485
0.49
0.49
0.485
0.49
0.48
0.495
0.485
0.49
0.5
0.51
0.505
0.52
0.51
0.525
0.525
0.525
0.525
0.53
0.53
0.52
0.52
0.52
0.53
0.525
0.515
0.52
0.52
0.515
0.51
0.5
0.5
0.5
0.475
0.47
0.465
0.465
0.46
0.475
0.475
0.475
0.465
0.465
0.475
0.46
0.465
0.47
0.47
0.465
0.46
0.46
0.47
0.47
0.47
0.46
0.455
0.44
0.46
0.475
0.485
0.46
0.455
0.475
0.46
0.455
0.47
0.465
0.47
0.465
0.46
0.455
0.45
0.445
0.435
0.445
0.43
0.41
0.43
0.455
0.46
0.5
0.545
0.605
0.715
0.855
0.95
1.005
1.03
1.015
1.01
0.975
1.06
1.1
1.1
1.085
0.985
0.755
0.595
0.56
0.53
0.52
0.5
0.495
0.48
0.46
0.465
0.465
0.46
0.46
0.44
0.45
0.45
0.46
0.435
0.435
0.445
0.44
0.44
0.44
0.44
0.44
0.45
0.44
0.445
0.44
0.44
0.45
0.45
0.45
0.435
0.455
0.45
0.455
0.455
0.455
0.455
0.455
0.445
0.445
0.455
0.455
0.445
0.45
0.45
0.455
0.465
0.465
0.47
0.46
0.455
0.455
0.47
0.46
0.475
0.47
0.47
0.48
0.49
0.485
0.49
0.48
0.485
0.495
0.5
0.505
0.5
0.5
0.5
0.535
0.525
0.535
0.535
0.555
0.555
0.565
0.59
0.59
0.6
0.63
0.635
0.655
0.66
0.67
0.685
0.72
0.72
0.735
0.765
0.765
0.78
0.775
0.735
0.69
0.74
0.75
0.76
0.765
0.76
0.74
0.74
0.73
0.71
0.695
0.66
0.665
0.655
0.645
0.62
0.595
0.59
0.565
0.57
0.565
0.535
0.52
0.505
0.5
0.5
0.495
0.485
0.47
0.47
0.46
0.46
0.455
0.46
0.465
0.46
0.45
0.445
0.435
0.445
0.445
0.455
0.44
0.44
0.445
0.45
0.455
0.44
0.425
0.44
0.445
0.445
0.435
0.425
0.42
0.435
0.435
0.425
0.435
0.435
0.43
0.435
0.435
0.435
0.435
0.425
0.435
0.44
0.425
0.425
0.425
0.42
0.435
0.43
0.44
0.43
0.435
0.425
0.425
0.425
0.425
0.42
0.415
0.415
0.42
0.42
0.44
0.43
0.425
0.425
0.425
0.43
0.44
0.435
0.435
0.43
0.44
0.425
0.43
0.435
0.435
0.435
0.445
0.45
0.455
0.435
0.445
0.425
0.435
0.435
0.44
0.47
0.45
0.405
0.415
0.425
0.425
0.44
0.43
0.43
0.43
0.435
0.455
0.455
0.455
0.47
0.44
0.44
0.42
0.41
0.425
0.425
0.4
0.405
0.425
0.435
0.42
0.425
0.425
0.41
0.4
0.41
0.415
0.425
0.42
0.425
0.415
0.405
0.42
0.425
0.42
0.42
0.405
0.405
0.405
0.42
0.415
0.415
0.415
0.405
0.4
0.41
0.405
0.415
0.405
0.42
0.415
0.405
0.405
0.395
0.395
0.4
0.4
0.4
0.41
0.42
0.415
0.41
0.415
0.415
0.415
0.425
0.425
0.42
0.42
0.415
0.41
0.415
0.395
0.4
0.41
0.425
0.43
0.415
0.43
0.445
0.44
0.44
0.435
0.44
0.435
0.43
0.445
0.445
0.455
0.455
0.455
0.475
0.435
0.44
0.43
0.435
0.44
0.415
0.405
0.39
0.39
0.38
0.38
0.4
0.38
0.385
0.38
0.385
0.38
0.37
0.375
0.385
0.385
0.37
0.375
0.385
0.38
0.37
0.38
0.375
0.385
0.38
0.385
0.375
0.38
0.38
0.36
0.375
0.38
0.38
0.375
0.39
0.38
0.36
0.365
0.37
0.375
0.37
0.375
0.37
0.35
0.33
0.315
0.345
0.375
0.39
0.41
0.445
0.53
0.635
0.76
0.87
0.935
0.96
0.93
0.92
0.885
0.985
1.015
1.025
1.02
0.925
0.675
0.495
0.46
0.45
0.435
0.415
0.4
0.395
0.39
0.37
0.375
0.375
0.375
0.37
0.37
0.365
0.36
0.36
0.375
0.36
0.34
0.335
0.365
0.37
0.375
0.365
0.35
0.36
0.34
0.355
0.36
0.37
0.35
0.355
0.36
0.36
0.355
0.355
0.355
0.345
0.355
0.365
0.355
0.375
0.37
0.365
0.375
0.36
0.37
0.385
0.365
0.375
0.375
0.39
0.365
0.38
0.38
0.385
0.36
0.37
0.375
0.37
0.375
0.39
0.4
0.375
0.39
0.41
0.42
0.435
0.415
0.425
0.435
0.43
0.435
0.45
0.465
0.475
0.485
0.485
0.5
0.51
0.53
0.535
0.565
0.57
0.59
0.6
0.625
0.63
0.645
0.64
0.645
0.65
0.675
0.67
0.67
0.655
0.655
0.655
0.645
0.65
0.655
0.645
0.63
0.63
0.605
0.58
0.585
0.56
0.535
0.53
0.525
0.51
0.49
0.475
0.445
0.445
0.435
0.425
0.4
0.405
0.395
0.375
0.385
0.37
0.37
0.365
0.365
0.35
0.355
0.355
0.36
0.335
0.345
0.335
0.35
0.325
0.33
0.34
0.345
0.345
0.34
0.335
0.33
0.35
0.325
0.32
0.33
0.335
0.32
0.32
0.34
0.335
0.335
0.35
0.33
0.32
0.325
0.32
0.32
0.33
0.325
0.335
0.34
0.34
0.335
0.33
0.325
0.33
0.32
0.315
0.32
0.325
0.325
0.335
0.325
0.32
0.325
0.325
0.315
0.32
0.325
0.33
0.315
0.33
0.34
0.34
0.32
0.33
0.32
0.315
0.33
0.33
0.325
0.335
0.325
0.325
0.325
0.325
0.33
0.345
0.335
0.345
0.365
0.35
0.325
0.345
0.345
0.32
0.335
0.33
0.345
0.33
0.325
0.335
0.34
0.345
0.35
0.325
0.32
0.325
0.325
0.33
0.34
0.325
0.32
0.335
0.33
0.32
0.31
0.32
0.33
0.32
0.325
0.33
0.32
0.32
0.325
0.315
0.32
0.345
0.315
0.31
0.305
0.315
0.32
0.315
0.31
0.31
0.315
0.335
0.325
0.33
0.335
0.34
0.325
0.32
0.32
0.325
0.345
0.345
0.34
0.34
0.34
0.34
0.34
0.345
0.335
0.345
0.365
0.35
0.34
0.335
0.37
0.37
0.36
0.345
0.37
0.35
0.34
0.33
0.335
0.34
0.325
0.32
0.3
0.305
0.315
0.285
0.29
0.295
0.29
0.31
0.295
0.29
0.3
0.295
0.29
0.29
0.285
0.29
0.285
0.29
0.285
0.295
0.295
0.285
0.28
0.285
0.28
0.28
0.28
0.29
0.285
0.285
0.285
0.29
0.285
0.295
0.285
0.28
0.275
0.275
0.285
0.295
0.295
0.29
0.27
0.27
0.26
0.26
0.29
0.28
0.3
0.34
0.4
0.53
0.64
0.755
0.805
0.8
0.765
0.765
0.725
0.795
0.825
0.83
0.815
0.68
0.495
0.35
0.33
0.325
0.345
0.325
0.32
0.325
0.325
0.315
0.3
0.295
0.3
0.29
0.29
0.295
0.29
0.28
0.28
0.285
0.285
0.29
0.3
0.29
0.295
0.28
0.265
0.28
0.28
0.275
0.28
0.295
0.3
0.295
0.315
0.295
0.28
0.305
0.28
0.29
0.295
0.295
0.295
0.32
0.305
0.29
0.305
0.31
0.315
0.305
0.305
0.31
0.315
0.32
0.32
0.32
0.315
0.315
0.31
0.325
0.335
0.33
0.34
0.325
0.33
0.345
0.35
0.345
0.365
0.37
0.375
0.37
0.375
0.395
0.385
0.385
0.405
0.41
0.42
0.45
0.465
0.47
0.49
0.505
0.525
0.535
0.535
0.55
0.575
0.575
0.585
0.59
0.6
0.615
0.615
0.595
0.605
0.615
0.615
0.62
0.62
0.595
0.585
0.595
0.58
0.55
0.555
0.525
0.52
0.505
0.485
0.47
0.46
0.45
0.42
0.405
0.385
0.375
0.36
0.345
0.345
0.32
0.33
0.32
0.305
0.31
0.3
0.29
0.295
0.305
0.3
0.295
0.29
0.305
0.305
0.295
0.3
0.285
0.265
0.285
0.305
0.295
0.29
0.28
0.27
0.285
0.28
0.275
0.265
0.29
0.29
0.29
0.285
0.27
0.285
0.265
0.275
0.25
0.275
0.28
0.265
0.27
0.25
0.265
0.255
0.25
0.265
0.255
0.26
0.26
0.26
0.275
0.27
0.27
0.27
0.27
0.265
0.26
0.27
0.265
0.265
0.27
0.265
0.255
0.255
0.28
0.27
0.265
0.275
0.275
0.285
0.28
0.285
0.275
0.27
0.28
0.27
0.265
0.275
0.29
0.285
0.275
0.28
0.29
0.285
0.285
0.275
0.285
0.285
0.28
0.285
0.29
0.275
0.28
0.27
0.275
0.295
0.285
0.28
0.275
0.28
0.28
0.28
0.29
0.28
0.26
0.255
0.28
0.27
0.28
0.265
0.275
0.275
0.275
0.275
0.275
0.275
0.27
0.275
0.28
0.28
0.285
0.285
0.275
0.275
0.26
0.265
0.27
0.28
0.29
0.285
0.285
0.295
0.295
0.285
0.29
0.285
0.275
0.295
0.3
0.295
0.3
0.305
0.32
0.33
0.325
0.305
0.32
0.325
0.315
0.31
0.335
0.33
0.31
0.32
0.32
0.315
0.32
0.32
0.31
0.305
0.3
0.295
0.275
0.275
0.275
0.27
0.275
0.27
0.27
0.26
0.26
0.26
0.26
0.265
0.265
0.255
0.26
0.255
0.265
0.265
0.26
0.255
0.25
0.27
0.27
0.26
0.25
0.26
0.27
0.26
0.255
0.25
0.255
0.255
0.265
0.26
0.26
0.255
0.24
0.255
0.27
0.26
0.245
0.245
0.24
0.22
0.215
0.225
0.23
0.265
0.275
0.29
0.33
0.405
0.505
0.635
0.73
0.795
0.83
0.785
0.78
0.73
0.81
0.84
0.85
0.845
0.77
0.535
0.385
0.365
0.325
0.31
0.295
0.285
0.29
0.27
0.255
0.265
0.25
0.265
0.265
0.245
0.245
0.245
0.235
0.235
0.25
0.24
0.24
0.245
0.245
0.24
0.245
0.25
0.235
0.25
0.25
0.255
0.255
0.26
0.265
0.245
0.25
0.255
0.26
0.255
0.25
0.26
0.255
0.265
0.25
0.26
0.255
0.26
0.26
0.27
0.265
0.265
0.275
0.26
0.28
0.265
0.28
0.285
0.275
0.28
0.29
0.28
0.285
0.29
0.295
0.3
0.295
0.29
0.29
0.315
0.335
0.32
0.325
0.34
0.355
0.345
0.36
0.355
0.365
0.39
0.395
0.4
0.42
0.43
0.455
0.46
0.48
0.485
0.49
0.505
0.525
0.535
0.55
0.545
0.565
0.56
0.56
0.58
0.57
0.57
0.56
0.555
0.54
0.555
0.555
0.545
0.525
0.505
0.485
0.485
0.46
0.455
0.435
0.425
0.415
0.405
0.38
0.365
0.36
0.345
0.33
0.315
0.32
0.32
0.315
0.295
0.285
0.275
0.275
0.26
0.265
0.27
0.275
0.295
0.28
0.265
0.26
0.265
0.27
0.275
0.265
0.26
0.265
0.265
0.27
0.27
0.265
0.26
0.27
0.27
0.26
0.255
0.25
0.27
0.26
0.25
0.26
0.26
0.26
0.275
0.265
0.265
0.265
0.265
0.265
0.265
0.26
0.265
0.265
0.26
0.26
0.255
0.255
0.27
0.27
0.265
0.27
0.25
0.265
0.26
0.275
0.27
0.28
0.275
0.25
0.26
0.25
0.25
0.24
0.24
0.29
0.28
0.285
0.275
0.27
0.26
0.275
0.265
0.27
0.28
0.275
0.275
0.275
0.28
0.28
0.28
0.275
0.275
0.29
0.275
0.255
0.25
0.28
0.28
0.26
0.275
0.285
0.265
0.27
0.27
0.275
0.27
0.275
0.27
0.27
0.275
0.275
0.275
0.28
0.285
0.27
0.26
0.27
0.27
0.275
0.275
0.27
0.265
0.27
0.285
0.285
0.29
0.295
0.265
0.255
0.26
0.275
0.27
0.27
0.255
0.265
0.27
0.285
0.28
0.285
0.275
0.275
0.26
0.26
0.27
0.27
0.265
0.27
0.28
0.275
0.27
0.27
0.265
0.26
0.275
0.27
0.27
0.285
0.27
0.265
0.275
0.285
0.265
0.27
0.275
0.28
0.31
0.29
0.265
0.265
0.275
0.265
0.275
0.275
0.285
0.3
0.29
0.31
0.3
0.305
0.3
0.305
0.295
0.29
0.295
0.29
0.3
0.32
0.335
0.325
0.335
0.335
0.31
0.3
0.31
0.295
0.295
0.295
0.29
0.27
0.275
0.28
0.27
0.27
0.265
0.27
0.265
0.26
0.26
0.26
0.27
0.25
0.255
0.26
0.265
0.255
0.26
0.265
0.265
0.255
0.255
0.255
0.27
0.27
0.27
0.26
0.265
0.265
0.255
0.265
0.265
0.26
0.26
0.26
0.255
0.25
0.235
0.23
0.235
0.225
0.225
0.22
0.24
0.28
0.285
0.32
0.37
0.455
0.565
0.685
0.78
0.85
0.865
0.84
0.83
0.8
0.91
0.94
0.94
0.915
0.805
0.555
0.4
0.36
0.335
0.32
0.31
0.295
0.28
0.265
0.27
0.26
0.26
0.275
0.265
0.26
0.26
0.26
0.245
0.255
0.26
0.265
0.26
0.245
0.25
0.255
0.26
0.265
0.255
0.255
0.26
0.265
0.255
0.265
0.27
0.27
0.27
0.27
0.265
0.265
0.275
0.265
0.275
0.265
0.27
0.265
0.275
0.265
0.265
0.27
0.27
0.265
0.275
0.28
0.29
0.28
0.285
0.285
0.28
0.295
0.305
0.285
0.295
0.3
0.31
0.305
0.315
0.31
0.31
0.3
0.305
0.315
0.325
0.335
0.34
0.35
0.36
0.375
0.375
0.39
0.385
0.395
0.42
0.435
0.45
0.45
0.465
0.485
0.485
0.52
0.515
0.53
0.54
0.53
0.555
0.55
0.555
0.555
0.555
0.555
0.565
0.555
0.57
0.565
0.545
0.54
0.515
0.505
0.5
0.485
0.465
0.45
0.44
0.44
0.405
0.385
0.365
0.37
0.37
0.34
0.335
0.325
0.315
0.305
0.29
0.295
0.29
0.29
0.27
0.265
0.27
0.275
0.26
0.265
0.28
0.265
0.26
0.26
0.255
0.245
0.245
0.265
0.26
0.26
0.26
0.27
0.265
0.26
0.26
0.25
0.255
0.265
0.26
0.265
0.255
0.265
0.25
0.245
0.26
0.25
0.25
0.245
0.25
0.255
0.26
0.25
0.26
0.24
0.24
0.24
0.25
0.24
0.25
0.24
0.24
0.25
0.255
0.25
0.25
0.25
0.26
0.255
0.245
0.255
0.25
0.245
0.26
0.25
0.25
0.255
0.25
0.255
0.265
0.25
0.255
0.26
0.265
0.26
0.265
0.265
0.265
0.265
0.27
0.275
0.265
0.28
0.275
0.27
0.255
0.26
0.255
0.265
0.275
0.285
0.27
0.27
0.275
0.275
0.28
0.27
0.26
0.275
0.28
0.275
0.3
0.27
0.255
0.285
0.29
0.27
0.275
0.27
0.265
0.285
0.28
0.275
0.27
0.27
0.28
0.265
0.27
0.27
0.28
0.28
0.27
0.275
0.27
0.265
0.275
0.27
0.275
0.27
0.275
0.275
0.285
0.285
0.28
0.28
0.275
0.27
0.28
0.27
0.265
0.28
0.275
0.26
0.275
0.275
0.29
0.3
0.27
0.27
0.275
0.28
0.285
0.295
0.27
0.275
0.29
0.28
0.275
0.295
0.305
0.31
0.3
0.31
0.31
0.32
0.325
0.31
0.3
0.31
0.325
0.325
0.335
0.34
0.33
0.335
0.335
0.325
0.315
0.315
0.315
0.3
0.29
0.27
0.275
0.28
0.28
0.27
0.27
0.265
0.27
0.285
0.265
0.26
0.26
0.27
0.265
0.26
0.26
0.255
0.255
0.265
0.26
0.265
0.265
0.265
0.26
0.26
0.265
0.265
0.275
0.275
0.265
0.255
0.26
0.27
0.265
0.27
0.27
0.265
0.26
0.26
0.245
0.235
0.23
0.245
0.265
0.28
0.32
0.35
0.445
0.545
0.66
0.755
0.825
0.82
0.77
0.765
0.745
0.845
0.855
0.845
0.82
0.695
0.47
0.355
0.33
0.31
0.325
0.315
0.315
0.31
0.3
0.3
0.285
0.27
0.275
0.275
0.26
0.27
0.27
0.265
0.255
0.25
0.27
0.255
0.24
0.245
0.27
0.28
0.295
0.29
0.27
0.28
0.27
0.27
0.265
0.29
0.28
0.27
0.285
0.28
0.275
0.29
0.285
0.28
0.28
0.285
0.275
0.285
0.28
0.285
0.305
0.31
0.295
0.275
0.29
0.31
0.305
0.29
0.315
0.305
0.315
0.31
0.325
0.31
0.325
0.315
0.335
0.35
0.33
0.325
0.34
0.34
0.345
0.34
0.36
0.375
0.385
0.39
0.41
0.41
0.42
0.425
0.435
0.44
0.47
0.48
0.495
0.505
0.515
0.535
0.545
0.56
0.57
0.58
0.595
0.605
0.59
0.61
0.615
0.605
0.6
0.605
0.605
0.6
0.59
0.585
0.555
0.55
0.545
0.525
0.51
0.49
0.465
0.46
0.455
0.435
0.43
0.41
0.39
0.375
0.365
0.355
0.35
0.34
0.335
0.325
0.32
0.31
0.31
0.305
0.295
0.295
0.29
0.3
0.305
0.3
0.28
0.285
0.295
0.3
0.295
0.275
0.275
0.29
0.295
0.3
0.29
0.3
0.29
0.28
0.275
0.28
0.29
0.275
0.285
0.28
0.28
0.285
0.285
0.27
0.26
0.28
0.275
0.285
0.285
0.28
0.285
0.29
0.285
0.27
0.265
0.28
0.27
0.275
0.29
0.29
0.275
0.28
0.275
0.27
0.29
0.275
0.295
0.3
0.285
0.29
0.285
0.28
0.285
0.3
0.3
0.285
0.29
0.3
0.305
0.295
0.315
0.305
0.305
0.29
0.295
0.305
0.315
0.315
0.31
0.31
0.3
0.305
0.295
0.305
0.31
0.31
0.315
0.31
0.305
0.32
0.32
0.325
0.31
0.285
0.295
0.32
0.305
0.31
0.31
0.31
0.32
0.305
0.315
0.315
0.315
0.31
0.305
0.305
0.305
0.31
0.315
0.315
0.305
0.295
0.31
0.3
0.315
0.31
0.305
0.315
0.32
0.315
0.32
0.32
0.315
0.295
0.31
0.31
0.31
0.305
0.305
0.32
0.31
0.31
0.33
0.335
0.32
0.325
0.34
0.345
0.36
0.36
0.345
0.345
0.345
0.35
0.36
0.36
0.365
0.37
0.365
0.365
0.36
0.345
0.345
0.335
0.325
0.32
0.32
0.315
0.32
0.31
0.305
0.305
0.3
0.305
0.31
0.3
0.3
0.295
0.305
0.305
0.31
0.305
0.3
0.3
0.285
0.285
0.305
0.31
0.3
0.3
0.3
0.3
0.3
0.3
0.295
0.3
0.295
0.29
0.31
0.32
0.31
0.29
0.29
0.3
0.3
0.295
0.275
0.28
0.285
0.275
0.26
0.26
0.275
0.32
0.32
0.34
0.385
0.475
0.59
0.72
0.81
0.86
0.85
0.81
0.79
0.77
0.855
0.895
0.89
0.87
0.71
0.48
0.38
0.38
0.37
0.355
0.345
0.33
0.335
0.315
0.31
0.315
0.305
0.305
0.305
0.31
0.3
0.295
0.305
0.3
0.29
0.285
0.295
0.285
0.3
0.3
0.3
0.305
0.305
0.31
0.3
0.31
0.31
0.315
0.315
0.3
0.305
0.31
0.31
0.31
0.305
0.305
0.305
0.315
0.31
0.325
0.32
0.31
0.315
0.32
0.325
0.32
0.315
0.315
0.335
0.33
0.33
0.33
0.34
0.33
0.335
0.345
0.34
0.345
0.345
0.355
0.35
0.355
0.37
0.36
0.37
0.375
0.38
0.385
0.4
0.4
0.415
0.415
0.44
0.445
0.465
0.47
0.47
0.49
0.49
0.525
0.545
0.55
0.565
0.57
0.595
0.6
0.6
0.61
0.625
0.615
0.625
0.62
0.615
0.605
0.62
0.64
0.62
0.605
0.6
0.595
0.585
0.56
0.555
0.545
0.53
0.5
0.475
0.47
0.455
0.455
0.43
0.41
0.395
0.385
0.38
0.365
0.35
0.35
0.35
0.35
0.345
0.335
0.34
0.33
0.32
0.32
0.315
0.315
0.315
0.325
0.33
0.325
0.33
0.325
0.305
0.31
0.315
0.31
0.315
0.315
0.31
0.31
0.31
0.31
0.31
0.325
0.32
0.32
0.315
0.3
0.3
0.305
0.295
0.3
0.295
0.295
0.29
0.295
0.29
0.305
0.3
0.305
0.3
0.305
0.3
0.285
0.285
0.29
0.305
0.305
0.3
0.305
0.3
0.305
0.305
0.305
0.31
0.29
0.3
0.32
0.305
0.315
0.295
0.285
0.29
0.31
0.3
0.305
0.31
0.315
0.32
0.325
0.32
0.31
0.315
0.31
0.315
0.32
0.32
0.31
0.315
0.31
0.32
0.315
0.325
0.335
0.33
0.315
0.3
0.31
0.325
0.33
0.315
0.3
0.3
0.315
0.3
0.32
0.32
0.315
0.325
0.315
0.32
0.32
0.305
0.315
0.31
0.315
0.32
0.32
0.33
0.325
0.325
0.32
0.3
0.31
0.31
0.31
0.315
0.32
0.31
0.305
0.31
0.32
0.32
0.31
0.315
0.325
0.325
0.315
0.305
0.32
0.315
0.305
0.295
0.31
0.31
0.31
0.31
0.31
0.325
0.315
0.31
0.31
0.31
0.3
0.305
0.305
0.32
0.32
0.315
0.325
0.33
0.325
0.325
0.32
0.335
0.33
0.305
0.325
0.325
0.33
0.325
0.33
0.34
0.34
0.365
0.37
0.37
0.345
0.335
0.34
0.35
0.36
0.36
0.365
0.37
0.355
0.36
0.365
0.36
0.375
0.345
0.34
0.33
0.325
0.325
0.315
0.31
0.305
0.31
0.315
0.315
0.32
0.315
0.3
0.315
0.32
0.31
0.3
0.3
0.31
0.315
0.305
0.3
0.3
0.305
0.31
0.31
0.31
0.3
0.305
0.305
0.3
0.305
0.305
0.295
0.31
0.305
0.305
0.315
0.315
0.31
0.295
0.295
0.28
0.295
0.295
0.275
0.255
0.29
0.33
0.33
0.37
0.435
0.505
0.645
0.765
0.825
0.905
0.915
0.89
0.86
0.84
0.96
0.995
0.98
0.97
0.82
0.565
0.445
0.41
0.38
0.375
0.365
0.345
0.32
0.325
0.33
0.335
0.33
0.305
0.305
0.295
0.3
0.3
0.305
0.325
0.305
0.305
0.32
0.315
0.31
0.31
0.31
0.31
0.31
0.315
0.315
0.305
0.305
0.325
0.325
0.32
0.315
0.3
0.325
0.32
0.32
0.31
0.325
0.32
0.335
0.315
0.31
0.32
0.335
0.325
0.33
0.335
0.335
0.335
0.325
0.335
0.335
0.34
0.35
0.335
0.345
0.35
0.365
0.36
0.365
0.355
0.36
0.375
0.375
0.37
0.38
0.38
0.385
0.39
0.39
0.4
0.415
0.41
0.425
0.44
0.465
0.475
0.495
0.49
0.505
0.515
0.525
0.545
0.56
0.57
0.57
0.59
0.6
0.615
0.61
0.63
0.62
0.63
0.645
0.635
0.65
0.64
0.645
0.615
0.61
0.605
0.585
0.585
0.575
0.555
0.545
0.53
0.515
0.5
0.48
0.47
0.455
0.435
0.425
0.42
0.4
0.4
0.385
0.375
0.365
0.35
0.35
0.36
0.35
0.33
0.355
0.35
0.335
0.345
0.33
0.33
0.31
0.305
0.33
0.325
0.32
0.32
0.325
0.325
0.325
0.325
0.325
0.33
0.32
0.325
0.32
0.33
0.315
0.33
0.31
0.31
0.32
0.325
0.315
0.325
0.32
0.325
0.325
0.315
0.31
0.315
0.325
0.305
0.305
0.31
0.32
0.315
0.305
0.305
0.305
0.315
0.33
0.315
0.31
0.305
0.31
0.325
0.32
0.305
0.305
0.31
0.3
0.315
0.3
0.31
0.315
0.32
0.31
0.315
0.32
0.315
0.32
0.325
0.315
0.32
0.32
0.315
0.32
0.325
0.325
0.32
0.32
0.325
0.33
0.325
0.335
0.325
0.315
0.325
0.325
0.31
0.325
0.32
0.32
0.325
0.335
0.315
0.32
0.325
0.32
0.33
0.325
0.325
0.325
0.33
0.325
0.325
0.32
0.32
0.32
0.315
0.32
0.325
0.325
0.32
0.32
0.305
0.305
0.32
0.325
0.325
0.305
0.315
0.32
0.32
0.31
0.31
0.31
0.33
0.325
0.31
0.295
0.315
0.315
0.32
0.33
0.31
0.315
0.32
0.315
0.315
0.325
0.325
0.335
0.31
0.3
0.305
0.31
0.305
0.315
0.305
0.31
0.315
0.31
0.305
0.31
0.32
0.305
0.305
0.31
0.32
0.305
0.32
0.32
0.305
0.31
0.31
0.31
0.315
0.32
0.32
0.31
0.31
0.305
0.31
0.295
0.315
0.315
0.315
0.325
0.33
0.34
0.355
0.36
0.36
0.355
0.355
0.355
0.345
0.33
0.33
0.35
0.345
0.36
0.365
0.365
0.365
0.355
0.35
0.345
0.345
0.335
0.335
0.32
0.33
0.32
0.31
0.315
0.31
0.285
0.295
0.285
0.295
0.31
0.3
0.31
0.305
0.3
0.31
0.3
0.295
0.305
0.295
0.295
0.305
0.31
0.325
0.305
0.3
0.295
0.31
0.3
0.295
0.305
0.32
0.3
0.295
0.305
0.315
0.3
0.305
0.295
0.295
0.285
0.27
0.265
0.265
0.3
0.325
0.345
0.38
0.425
0.52
0.66
0.755
0.84
0.885
0.9
0.87
0.82
0.855
0.925
0.955
0.94
0.895
0.73
0.505
0.415
0.405
0.39
0.365
0.355
0.36
0.34
0.34
0.325
0.31
0.315
0.29
0.315
0.305
0.32
0.325
0.315
0.315
0.32
0.32
0.305
0.31
0.32
0.335
0.34
0.35
0.355
0.33
0.305
0.315
0.315
0.315
0.315
0.34
0.315
0.32
0.325
0.345
0.33
0.33
0.32
0.32
0.34
0.335
0.34
0.335
0.345
0.35
0.35
0.33
0.33
0.33
0.335
0.33
0.33
0.32
0.335
0.375
0.37
0.35
0.375
0.36
0.365
0.38
0.39
0.385
0.385
0.385
0.395
0.385
0.405
0.42
0.42
0.425
0.45
0.43
0.435
0.465
0.49
0.485
0.49
0.505
0.52
0.545
0.545
0.565
0.57
0.595
0.62
0.615
0.605
0.62
0.615
0.64
0.66
0.66
0.645
0.645
0.635
0.635
0.64
0.635
0.625
0.6
0.58
0.585
0.585
0.57
0.54
0.52
0.51
0.5
0.47
0.455
0.455
0.43
0.415
0.42
0.39
0.4
0.385
0.355
0.34
0.34
0.34
0.355
0.345
0.34
0.335
0.335
0.325
0.32
0.315
0.315
0.335
0.315
0.33
0.33
0.335
0.32
0.33
0.325
0.335
0.325
0.305
0.31
0.31
0.285
0.285
0.315
0.33
0.29
0.305
0.295
0.295
0.325
0.315
0.3
0.3
0.3
0.285
0.295
0.295
0.3
0.315
0.3
0.305
0.295
0.28
0.285
0.285
0.29
0.295
0.29
0.285
0.3
0.3
0.3
0.29
0.31
0.315
0.3
0.305
0.31
0.315
0.305
0.295
0.29
0.295
0.295
0.3
0.3
0.295
0.295
0.305
0.315
0.315
0.315
0.305
0.31
0.325
0.335
0.325
0.305
0.27
0.235
0.27
0.325
0.325
0.33
0.31
0.325
0.33
0.335
0.335
0.33
0.33
0.305
0.3
0.295
0.315
0.295
0.31
0.32
0.3
0.295
0.28
0.265
0.285
0.28
0.27
0.29
0.305
0.3
0.31
0.315
0.315
0.31
0.285
0.285
0.27
0.29
0.295
0.285
0.305
0.315
0.31
0.3
0.285
0.3
0.295
0.305
0.31
0.31
0.31
0.315
0.305
0.32
0.33
0.305
0.305
0.32
0.325
0.315
0.32
0.315
0.305
0.32
0.35
0.335
0.29
0.285
0.285
0.275
0.27
0.26
0.26
0.25
0.245
0.24
0.25
0.25
0.275
0.27
0.255
0.255
0.235
0.22
0.215
0.235
0.245
0.25
0.24
0.245
0.25
0.255
0.235
0.24
0.245
0.24
0.225
0.245
0.235
0.225
0.23
0.235
0.22
0.24
0.24
0.24
0.24
0.24
0.235
0.22
0.245
0.235
0.22
0.21
0.205
0.2
0.22
0.23
0.23
0.255
0.305
0.41
0.525
0.615
0.695
0.76
0.69
0.695
0.645
0.65
0.73
0.745
0.725
0.67
0.515
0.315
0.23
0.235
0.245
0.255
0.255
0.255
0.25
0.23
0.22
0.22
0.205
0.205
0.185
0.2
0.225
0.21
0.215
0.22
0.22
0.205
0.2
0.215
0.215
0.2
0.195
0.195
0.185
0.19
0.19
0.185
0.18
0.19
0.205
0.22
0.19
0.19
0.2
0.195
0.2
0.205
0.195
0.195
0.19
0.19
0.185
0.175
0.17
0.195
0.2
0.205
0.195
0.21
0.23
0.205
0.2
0.21
0.2
0.225
0.21
0.24
0.235
0.225
0.22
0.245
0.22
0.245
0.245
0.275
0.26
0.265
0.295
0.27
0.27
0.26
0.2
0.195
0.3
0.315
0.3
0.385
0.37
0.35
0.355
0.4
0.42
0.435
0.445
0.46
0.455
0.45
0.46
0.485
0.485
0.465
0.495
0.485
0.505
0.505
0.46
0.48
0.48
0.48
0.45
0.445
0.415
0.385
0.38
0.365
0.335
0.315
0.315
0.295
0.29
0.27
0.27
0.24
0.195
0.185
0.195
0.175
0.195
0.195
0.19
0.165
0.15
0.15
0.14
0.135
0.13
0.15
0.14
0.14
0.125
0.105
0.1
0.105
0.11
0.105
0.105
0.1
0.115
0.11
0.09
0.135
0.13
0.125
0.095
0.1
0.085
0.085
0.105
0.135
0.155
0.135
0.12
0.1
0.1
0.075
0.045
0.06
0.075
0.095
0.09
0.08
0.085
0.085
0.075
0.08
0.075
0.065
0.08
0.095
0.085
0.085
0.09
0.085
0.09
0.095
0.075
0.065
0.07
0.07
0.09
0.08
0.065
0.09
0.07
0.065
0.065
0.07
0.03
0.07
0.09
0.115
0.085
0.1
0.07
0.065
0.09
0.065
0.085
0.095
0.075
0.08
0.085
0.05
0.075
0.09
0.1
0.09
0.06
0.09
0.08
0.085
0.07
0.075
0.1
0.065
0.075
0.07
0.02
0.045
0.045
0.07
0.07
0.055
0.06
0.065
0.065
0.09
0.085
0.055
0.05
0.035
0.05
0.055
0.045
0.095
0.08
0.085
0.08
0.06
0.055
0.07
0.11
0.085
0.045
0.075
0.075
0.065
0.04
0.055
0.085
0.09
0.06
0.08
0.11
0.115
0.095
0.075
0.1
0.08
0.095
0.12
0.115
0.11
0.105
0.105
0.12
0.11
0.09
0.1
0.08
0.075
0.075
0.06
0.065
0.055
0.07
0.075
0.08
0.07
0.065
0.045
0.03
0.04
0.05
0.04
0.06
0.055
0.04
0.03
0.025
0.035
0.03
0.045
0.035
0.025
0.045
0.055
0.05
0.03
0.045
0.035
0.02
0.035
0.015
0.025
0.03
0.045
0.035
0.03
0.055
0.035
0.03
0.035
0.02
0.005
0.01
0.015
-0.02
0.025
0.015
0.035
0.045
0.06
0.135
0.2
0.3
0.455
0.545
0.59
0.645
0.62
0.6
0.545
0.59
0.665
0.675
0.655
0.625
0.42
0.225
0.14
0.115
0.12
0.085
0.055
0.05
0.065
0.055
0.055
0.05
0.04
0.045
0.02
0.025
0.025
0.04
0.04
0.03
0.045
0.035
0.01
0.025
0.035
0.015
0.03
0.035
0.03
0.035
0.055
0.06
0.04
0.02
0.025
0.0
-0.025
0.0
-0.005
-0.01
0.04
0.045
0.04
0.075
0.04
0.02
0.055
0.07
0.05
0.1
0.06
0.04
0.07
0.065
0.07
0.05
0.045
0.085
0.055
0.045
0.07
0.125
0.1
0.095
0.09
0.075
0.045
0.105
0.115
0.06
0.075
0.085
0.095
0.095
0.1
0.125
0.12
0.1
0.18
0.165
0.17
0.2
0.2
0.235
0.22
0.25
0.26
0.275
0.29
0.305
0.31
0.33
0.32
0.325
0.32
0.34
0.345
0.355
0.36
0.335
0.36
0.34
0.32
0.34
0.32
0.265
0.285
0.305
0.305
0.32
0.3
0.26
0.235
0.215
0.22
0.19
0.16
0.165
0.175
0.115
0.105
0.15
0.12
0.13
0.11
0.09
0.095
0.14
0.13
0.145
0.1
0.1
0.09
0.1
0.11
0.13
0.1
0.065
0.075
0.125
0.06
0.065
0.1
0.09
0.08
0.11
0.06
0.05
0.02
0.09
0.08
0.095
0.095
0.08
0.065
0.055
0.03
0.065
0.09
0.095
0.08
0.09
0.075
0.06
0.07
0.065
0.05
0.055
0.055
0.1
0.09
0.115
0.105
0.09
0.08
0.06
0.08
0.095
0.06
0.055
0.055
0.09
0.095
0.085
0.105
0.125
0.08
0.095
0.105
0.1
0.075
0.095
0.1
0.105
0.09
0.09
0.085
0.095
0.075
0.105
0.1
0.085
0.09
0.08
0.095
0.1
0.08
0.1
0.105
0.11
0.11
0.095
0.09
0.11
0.105
0.105
0.125
0.13
0.115
0.135
0.12
0.09
0.075
0.09
0.065
0.09
0.13
0.125
0.11
0.1
0.09
0.135
0.135
0.09
0.115
0.105
0.12
0.125
0.115
0.09
0.125
0.12
0.115
0.11
0.1
0.1
0.145
0.11
0.115
0.135
0.12
0.1
0.085
0.13
0.125
0.14
0.135
0.13
0.145
0.12
0.13
0.13
0.135
0.15
0.135
0.125
0.135
0.145
0.15
0.12
0.115
0.13
0.145
0.15
0.115
0.14
0.115
0.155
0.175
0.205
0.21
0.175
0.16
0.16
0.2
0.105
0.185
0.185
0.165
0.155
0.165
0.135
0.14
0.125
0.14
0.125
0.125
0.155
0.135
0.105
0.09
0.135
0.155
0.135
0.15
0.13
0.15
0.145
0.105
0.125
0.15
0.15
0.12
0.15
0.13
0.155
0.135
0.125
0.14
0.16
0.145
0.13
0.125
0.115
0.115
0.145
0.17
0.14
0.16
0.13
0.13
0.135
0.08
0.13
0.105
0.115
0.15
0.155
0.235
0.26
0.325
0.39
0.485
0.615
0.705
0.765
0.765
0.72
0.68
0.775
0.815
0.83
0.83
0.745
0.48
0.285
0.22
0.285
0.27
0.225
0.21
0.185
0.185
0.18
0.185
0.165
0.165
0.175
0.175
0.16
0.165
0.175
0.17
0.185
0.15
0.165
0.175
0.17
0.17
0.165
0.16
0.17
0.18
0.16
0.2
0.17
0.14
0.2
0.155
0.215
0.18
0.18
0.17
0.165
0.195
0.175
0.195
0.2
0.19
0.19
0.19
0.205
0.23
0.2
0.215
0.24
0.215
0.18
0.22
0.205
0.21
0.235
0.245
0.205
0.175
0.23
0.23
0.235
0.245
0.25
0.245
0.25
0.245
0.265
0.28
0.27
0.25
0.3
0.325
0.32
0.335
0.28
0.325
0.34
0.345
0.36
0.34
0.395
0.465
0.435
0.45
0.45
0.475
0.49
0.5
0.49
0.465
0.485
0.555
0.515
0.575
0.585
0.57
0.525
0.53
0.53
0.54
0.5
0.53
0.485
0.47
0.475
0.46
0.445
0.42
0.425
0.41
0.415
0.405
0.395
0.375
0.355
0.33
0.31
0.32
0.29
0.3
0.28
0.265
0.275
0.265
0.245
0.265
0.245
0.245
0.24
0.265
0.245
0.245
0.255
0.265
0.235
0.27
0.27
0.255
0.24
0.24
0.29
0.265
0.24
0.28
0.305
0.3
0.23
0.25
0.31
0.29
0.265
0.305
0.34
0.275
0.205
0.25
0.265
0.28
0.225
0.26
0.265
0.27
0.265
0.275
0.255
0.255
0.265
0.27
0.28
0.29
0.265
0.27
0.27
0.26
0.255
0.25
0.27
0.27
0.255
0.295
0.28
0.3
0.28
0.315
0.295
0.295
0.3
0.275
0.29
0.26
0.27
0.295
0.305
0.295
0.315
0.305
0.3
0.285
0.255
0.3
0.315
0.3
0.27
0.295
0.35
0.295
0.3
0.325
0.345
0.3
0.275
0.295
0.315
0.3
0.31
0.32
0.29
0.3
0.315
0.295
0.27
0.285
0.28
0.31
0.305
0.285
0.305
0.325
0.345
0.325
0.315
0.3
0.31
0.32
0.325
0.32
0.315
0.245
0.3
0.305
0.295
0.31
0.3
0.31
0.325
0.295
0.31
0.295
0.33
0.3
0.3
0.345
0.345
0.325
0.32
0.305
0.255
0.3
0.34
0.33
0.345
0.315
0.3
0.3
0.3
0.315
0.31
0.31
0.305
0.355
0.32
0.315
0.33
0.335
0.3
0.325
0.305
0.315
0.32
0.325
0.33
0.345
0.335
0.35
0.36
0.405
0.41
0.415
0.355
0.33
0.32
0.34
0.335
0.38
0.39
0.355
0.385
0.39
0.39
0.395
0.38
0.375
0.385
0.385
0.39
0.385
0.385
0.36
0.34
0.325
0.345
0.35
0.33
0.325
0.31
0.34
0.345
0.335
0.33
0.355
0.35
0.335
0.315
0.325
0.32
0.325
0.325
0.33
0.33
0.345
0.35
0.355
0.35
0.345
0.34
0.33
0.34
0.265
0.305
0.31
0.405
0.36
0.335
0.315
0.37
0.35
0.305
0.295
0.275
0.315
0.35
0.345
0.37
0.39
0.435
0.49
0.575
0.725
0.825
0.9
0.95
0.915
0.895
0.875
0.955
1.05
1.0
0.99
0.95
0.725
0.515
0.46
0.44
0.425
0.39
0.4
0.365
0.38
0.375
0.365
0.355
0.375
0.37
0.365
0.39
0.39
0.34
0.355
0.34
0.36
0.39
0.365
0.345
0.345
0.345
0.35
0.38
0.405
0.385
0.38
0.36
0.355
0.345
0.39
0.39
0.415
0.39
0.395
0.405
0.38
0.37
0.37
0.41
0.395
0.38
0.39
0.405
0.385
0.4
0.43
0.47
0.43
0.37
0.345
0.365
0.39
0.4
0.42
0.395
0.405
0.405
0.45
0.44
0.425
0.465
0.49
0.445
0.415
0.44
0.425
0.455
0.48
0.48
0.46
0.47
0.51
0.51
0.515
0.555
0.545
0.56
0.565
0.565
0.6
0.615
0.645
0.655
0.675
0.655
0.69
0.7
0.705
0.755
0.7
0.745
0.715
0.7
0.725
0.765
0.745
0.72
0.715
0.69
0.685
0.725
0.67
0.625
0.655
0.59
0.635
0.59
0.595
0.605
0.58
0.555
0.545
0.54
0.525
0.5
0.495
0.5
0.475
0.44
0.45
0.425
0.41
0.465
0.435
0.45
0.445
0.445
0.45
0.44
0.435
0.445
0.435
0.415
0.42
0.43
0.45
0.425
0.435
0.405
0.43
0.41
0.415
0.43
0.44
0.42
0.4
0.4
0.42
0.4
0.385
0.385
0.45
0.43
0.415
0.42
0.4
0.365
0.385
0.43
0.415
0.42
0.41
0.44
0.435
0.415
0.41
0.38
0.41
0.41
0.42
0.4
0.41
0.405
0.455
0.465
0.44
0.46
0.435
0.44
0.405
0.405
0.375
0.46
0.42
0.435
0.415
0.415
0.445
0.43
0.455
0.455
0.445
0.445
0.465
0.46
0.46
0.435
0.465
0.455
0.43
0.415
0.475
0.455
0.455
0.47
0.45
0.44
0.435
0.44
0.43
0.465
0.44
0.445
0.45
0.46
0.465
0.495
0.46
0.435
0.415
0.4
0.395
0.44
0.445
0.43
0.435
0.44
0.455
0.435
0.425
0.43
0.45
0.445
0.435
0.445
0.4
0.455
0.435
0.435
0.415
0.42
0.46
0.44
0.445
0.435
0.4
0.435
0.455
0.465
0.475
0.475
0.47
0.49
0.485
0.47
0.475
0.485
0.49
0.475
0.505
0.485
0.47
0.46
0.495
0.505
0.505
0.495
0.46
0.46
0.42
0.43
0.4
0.405
0.375
0.35
0.35
0.435
0.435
0.45
0.43
0.41
0.435
0.43
0.425
0.42
0.405
0.41
0.425
0.42
0.38
0.42
0.43
0.425
0.42
0.435
0.435
0.435
0.42
0.41
0.42
0.405
0.44
0.46
0.455
0.435
0.415
0.43
0.395
0.395
0.37
0.385
0.405
0.415
0.37
0.39
0.385
0.365
0.4
0.4
0.435
0.49
0.57
0.67
0.765
0.855
0.975
0.915
0.87
0.845
0.84
0.94
0.955
0.955
0.92
0.785
0.55
0.44
0.42
0.445
0.45
0.445
0.44
0.44
0.435
0.415
0.45
0.435
0.44
0.405
0.43
0.425
0.42
0.395
0.395
0.45
0.42
0.43
0.42
0.37
0.41
0.405
0.435
0.435
0.435
0.45
0.41
0.43
0.385
0.4
0.4
0.435
0.46
0.455
0.44
0.445
0.425
0.455
0.435
0.45
0.44
0.435
0.435
0.455
0.47
0.435
0.455
0.455
0.45
0.445
0.48
0.47
0.46
0.46
0.475
0.45
0.45
0.47
0.49
0.525
0.515
0.5
0.48
0.485
0.49
0.49
0.505
0.56
0.54
0.55
0.585
0.57
0.565
0.595
0.58
0.61
0.625
0.63
0.565
0.665
0.68
0.8
0.74
0.735
0.735
0.755
0.755
0.785
0.78
0.77
0.78
0.79
0.79
0.815
0.81
0.775
0.755
0.765
0.77
0.745
0.745
0.75
0.74
0.72
0.685
0.675
0.65
0.615
0.605
0.595
0.62
0.555
0.555
0.565
0.55
0.51
0.48
0.435
0.47
0.49
0.49
0.48
0.475
0.475
0.47
0.45
0.435
0.435
0.445
0.445
0.435
0.42
0.45
0.47
0.455
0.43
0.445
0.465
0.44
0.44
0.435
0.43
0.43
0.425
0.44
0.445
0.455
0.385
0.43
0.4
0.42
0.42
0.41
0.42
0.425
0.4
0.435
0.435
0.43
0.425
0.42
0.43
0.415
0.435
0.46
0.43
0.44
0.41
0.425
0.42
0.445
0.42
0.4
0.455
0.44
0.45
0.455
0.435
0.43
0.42
0.43
0.45
0.44
0.44
0.45
0.445
0.455
0.435
0.42
0.47
0.45
0.46
0.45
0.455
0.48
0.45
0.44
0.43
0.415
0.445
0.45
0.45
0.445
0.43
0.44
0.415
0.46
0.485
0.465
0.445
0.44
0.46
0.465
0.46
0.475
0.45
0.445
0.45
0.47
0.45
0.43
0.435
0.445
0.435
0.45
0.435
0.435
0.49
0.46
0.45
0.49
0.46
0.47
0.475
0.475
0.47
0.47
0.485
0.46
0.44
0.48
0.475
0.535
0.5
0.51
0.52
0.5
0.505
0.525
0.525
0.52
0.48
0.49
0.495
0.48
0.48
0.485
0.465
0.435
0.45
0.455
0.44
0.42
0.4
0.42
0.42
0.4
0.42
0.425
0.43
0.445
0.455
0.455
0.445
0.43
0.385
0.44
0.43
0.39
0.46
0.445
0.425
0.41
0.405
0.415
0.42
0.45
0.455
0.42
0.42
0.41
0.4
0.41
0.445
0.425
0.415
0.395
0.41
0.385
0.39
0.455
0.435
0.415
0.415
0.405
0.39
0.42
0.435
0.455
0.505
0.55
0.615
0.715
0.84
0.965
1.03
0.995
0.945
0.88
0.955
0.995
1.015
1.0
0.935
0.745
0.6
0.495
0.5
0.485
0.475
0.445
0.43
0.42
0.4
0.425
0.415
0.415
0.42
0.415
0.415
0.42
0.415
0.37
0.385
0.39
0.395
0.405
0.415
0.425
0.425
0.42
0.42
0.445
0.415
0.42
0.41
0.425
0.415
0.415
0.44
0.445
0.43
0.45
0.425
0.43
0.425
0.39
0.405
0.405
0.43
0.425
0.42
0.425
0.45
0.435
0.44
0.435
0.425
0.43
0.425
0.445
0.46
0.415
0.45
0.47
0.45
0.495
0.475
0.455
0.475
0.465
0.485
0.485
0.47
0.495
0.485
0.455
0.525
0.545
0.525
0.525
0.545
0.555
0.55
0.55
0.55
0.585
0.59
0.605
0.615
0.635
0.665
0.655
0.66
0.685
0.725
0.765
0.755
0.725
0.72
0.73
0.72
0.715
0.735
0.73
0.725
0.715
0.715
0.735
0.695
0.67
0.68
0.645
0.63
0.61
0.61
0.595
0.58
0.54
0.52
0.51
0.51
0.47
0.445
0.445
0.485
0.46
0.445
0.465
0.455
0.465
0.44
0.435
0.405
0.37
0.39
0.43
0.405
0.415
0.41
0.4
0.44
0.445
0.425
0.435
0.42
0.42
0.42
0.41
0.43
0.43
0.415
0.37
0.38
0.38
0.41
0.39
0.39
0.385
0.385
0.405
0.43
0.4
0.375
0.37
0.375
0.38
0.38
0.37
0.36
0.38
0.375
0.36
0.355
0.385
0.38
0.36
0.4
0.395
0.375
0.365
0.365
0.365
0.36
0.38
0.39
0.365
0.355
0.36
0.41
0.395
0.38
0.39
0.395
0.4
0.395
0.39
0.38
0.385
0.365
0.38
0.395
0.43
0.435
0.425
0.42
0.395
0.375
0.385
0.39
0.365
0.37
0.415
0.41
0.425
0.42
0.405
0.38
0.35
0.37
0.365
0.36
0.37
0.39
0.365
0.35
0.35
0.34
0.355
0.35
0.35
0.37
0.33
0.34
0.345
0.325
0.33
0.405
0.41
0.355
0.36
0.395
0.355
0.35
0.355
0.39
0.355
0.41
0.4
0.385
0.405
0.395
0.395
0.375
0.36
0.36
0.36
0.38
0.4
0.41
0.385
0.375
0.39
0.41
0.41
0.415
0.41
0.42
0.43
0.425
0.45
0.44
0.415
0.41
0.41
0.36
0.405
0.415
0.405
0.365
0.355
0.355
0.365
0.345
0.34
0.36
0.38
0.375
0.355
0.38
0.365
0.36
0.315
0.35
0.35
0.355
0.345
0.355
0.36
0.35
0.36
0.37
0.34
0.34
0.345
0.365
0.34
0.355
0.33
0.34
0.34
0.345
0.35
0.36
0.37
0.35
0.345
0.35
0.365
0.36
0.345
0.345
0.35
0.37
0.35
0.32
0.31
0.335
0.37
0.38
0.425
0.425
0.485
0.585
0.72
0.82
0.905
0.955
0.91
0.915
0.895
0.955
0.98
1.04
1.055
0.965
0.72
0.525
0.48
0.46
0.435
0.42
0.39
0.37
0.36
0.345
0.33
0.28
0.31
0.315
0.38
0.435
0.365
0.37
0.37
0.365
0.385
0.34
0.33
0.345
0.36
0.33
0.33
0.345
0.345
0.325
0.365
0.34
0.345
0.345
0.345
0.37
0.365
0.365
0.37
0.35
0.415
0.365
0.33
0.35
0.38
0.375
0.335
0.34
0.345
0.345
0.345
0.33
0.32
0.355
0.365
0.355
0.36
0.375
0.405
0.365
0.345
0.37
0.345
0.355
0.37
0.355
0.35
0.355
0.39
0.39
0.425
0.42
0.455
0.47
0.445
0.485
0.46
0.44
0.39
0.41
0.5
0.515
0.485
0.525
0.57
0.575
0.6
0.645
0.6
0.625
0.625
0.65
0.64
0.645
0.62
0.625
0.62
0.65
0.68
0.66
0.69
0.66
0.62
0.605
0.615
0.62
0.58
0.575
0.535
0.52
0.49
0.57
0.54
0.54
0.49
0.47
0.485
0.44
0.455
0.435
0.425
0.375
0.35
0.36
0.38
0.37
0.315
0.31
0.355
0.34
0.325
0.305
0.32
0.34
0.33
0.34
0.32
0.31
0.315
0.3
0.305
0.305
0.32
0.33
0.3
0.28
0.37
0.325
0.305
0.325
0.345
0.32
0.29
0.295
0.325
0.295
0.33
0.33
0.3
0.27
0.275
0.305
0.3
0.3
0.315
0.305
0.305
0.285
0.315
0.305
0.3
0.255
0.275
0.3
0.29
0.3
0.305
0.32
0.32
0.295
0.305
0.3
0.285
0.28
0.285
0.285
0.295
0.31
0.31
0.335
0.3
0.26
0.27
0.26
0.295
0.31
0.3
0.305
0.305
0.32
0.31
0.34
0.3
0.34
0.32
0.34
0.25
0.265
0.22
0.25
0.27
0.25
0.15
0.375
0.315
0.295
0.295
0.33
0.315
0.285
0.34
0.345
0.375
0.325
0.315
0.31
0.25
0.255
0.29
0.29
0.285
0.315
0.345
0.335
0.3
0.29
0.29
0.295
0.325
0.335
0.325
0.31
0.27
0.305
0.26
0.26
0.28
0.305
0.31
0.265
0.34
0.315
0.29
0.31
0.305
0.3
0.305
0.335
0.33
0.32
0.3
0.31
0.315
0.36
0.345
0.355
0.36
0.35
0.3
0.355
0.365
0.365
0.38
0.37
0.36
0.37
0.34
0.375
0.395
0.365
0.345
0.34
0.335
0.34
0.31
0.29
0.3
0.295
0.3
0.305
0.305
0.305
0.26
0.275
0.23
0.285
0.295
0.335
0.325
0.3
0.305
0.275
0.32
0.325
0.295
0.3
0.31
0.285
0.28
0.315
0.29
0.28
0.285
0.265
0.285
0.3
0.28
0.28
0.29
0.295
0.32
0.285
0.275
0.27
0.26
0.27
0.23
0.26
0.23
0.235
0.28
0.315
0.32
0.325
0.385
0.485
0.59
0.765
0.87
0.885
0.885
0.87
0.86
0.835
0.935
0.97
0.975
0.94
0.73
0.56
0.435
0.4
0.385
0.36
0.35
0.325
0.295
0.305
0.305
0.295
0.27
0.28
0.27
0.305
0.315
0.295
0.32
0.295
0.285
0.275
0.27
0.275
0.28
0.27
0.33
0.3
0.315
0.325
0.305
0.285
0.285
0.305
0.305
0.3
0.3
0.285
0.255
0.295
0.31
0.315
0.305
0.275
0.26
0.295
0.28
0.285
0.27
0.3
0.33
0.32
0.32
0.32
0.305
0.295
0.32
0.305
0.315
0.29
0.32
0.33
0.335
0.33
0.31
0.33
0.34
0.345
0.35
0.355
0.345
0.35
0.355
0.395
0.395
0.365
0.355
0.42
0.435
0.37
0.4
0.435
0.455
0.46
0.48
0.525
0.52
0.52
0.54
0.555
0.595
0.565
0.57
0.595
0.59
0.585
0.54
0.635
0.62
0.61
0.63
0.63
0.635
0.615
0.605
0.545
0.53
0.505
0.525
0.54
0.52
0.5
0.49
0.475
0.455
0.44
0.44
0.395
0.385
0.36
0.355
0.335
0.34
0.35
0.335
0.325
0.3
0.305
0.265
0.28
0.3
0.325
0.28
0.33
0.305
0.32
0.3
0.28
0.28
0.27
0.285
0.315
0.285
0.295
0.29
0.305
0.31
0.29
0.255
0.27
0.28
0.3
0.28
0.235
0.265
0.3
0.285
0.29
0.285
0.29
0.285
0.295
0.295
0.275
0.275
0.26
0.295
0.305
0.28
0.285
0.25
0.29
0.315
0.265
0.245
0.29
0.31
0.285
0.255
0.27
0.275
0.25
0.29
0.31
0.285
0.315
0.305
0.295
0.295
0.29
0.3
0.295
0.28
0.29
0.27
0.275
0.285
0.28
0.285
0.275
0.265
0.3
0.285
0.31
0.31
0.325
0.32
0.315
0.29
0.295
0.295
0.285
0.305
0.29
0.275
0.31
0.31
0.305
0.29
0.265
0.295
0.305
0.3
0.285
0.305
0.285
0.345
0.34
0.315
0.325
0.31
0.305
0.31
0.31
0.325
0.32
0.33
0.29
0.33
0.325
0.31
0.335
0.325
0.32
0.34
0.355
0.34
0.33
0.32
0.38
0.37
0.37
0.355
0.35
0.355
0.335
0.335
0.355
0.355
0.345
0.345
0.345
0.345
0.31
0.29
0.27
0.27
0.25
0.305
0.335
0.295
0.305
0.315
0.31
0.295
0.305
0.285
0.31
0.295
0.315
0.31
0.28
0.25
0.29
0.29
0.3
0.29
0.27
0.315
0.305
0.28
0.285
0.295
0.29
0.265
0.29
0.26
0.275
0.235
0.27
0.275
0.32
0.315
0.3
0.29
0.285
0.26
0.25
0.25
0.24
0.25
0.29
0.32
0.365
0.44
0.54
0.665
0.785
0.845
0.85
0.775
0.75
0.77
0.85
0.845
0.845
0.82
0.67
0.45
0.345
0.35
0.355
0.345
0.335
0.335
0.33
0.325
0.325
0.32
0.305
0.3
0.28
0.285
0.285
0.29
0.295
0.315
0.295
0.3
0.3
0.295
0.315
0.295
0.3
0.295
0.29
0.305
0.295
0.285
0.31
0.315
0.31
0.315
0.305
0.3
0.305
0.305
0.31
0.315
0.335
0.335
0.3
0.33
0.315
0.3
0.29
0.345
0.36
0.35
0.32
0.325
0.32
0.35
0.34
0.335
0.315
0.325
0.35
0.37
0.365
0.375
0.38
0.365
0.37
0.36
0.355
0.345
0.36
0.37
0.38
0.41
0.415
0.45
0.445
0.45
0.45
0.465
0.49
0.5
0.505
0.5
0.515
0.55
0.56
0.595
0.6
0.61
0.615
0.605
0.61
0.62
0.645
0.635
0.65
0.63
0.62
0.605
0.61
0.6
0.625
0.64
0.645
0.64
0.625
0.595
0.575
0.55
0.54
0.51
0.5
0.51
0.475
0.455
0.425
0.425
0.435
0.415
0.39
0.375
0.365
0.375
0.355
0.355
0.34
0.335
0.335
0.32
0.34
0.33
0.32
0.315
0.31
0.315
0.34
0.33
0.31
0.325
0.315
0.3
0.315
0.315
0.315
0.33
0.32
0.265
0.27
0.29
0.395
0.35
0.33
0.325
0.315
0.3
0.305
0.31
0.31
0.32
0.32
0.305
0.315
0.295
0.315
0.29
0.28
0.31
0.275
0.29
0.3
0.285
0.295
0.325
0.325
0.33
0.325
0.295
0.315
0.315
0.32
0.325
0.32
0.315
0.31
0.295
0.31
0.275
0.275
0.31
0.36
0.355
0.35
0.325
0.315
0.305
0.33
0.33
0.315
0.325
0.345
0.35
0.32
0.335
0.33
0.33
0.325
0.33
0.315
0.35
0.34
0.32
0.35
0.34
0.335
0.305
0.325
0.3
0.33
0.315
0.32
0.32
0.34
0.32
0.33
0.315
0.31
0.305
0.34
0.325
0.325
0.295
0.305
0.315
0.33
0.345
0.34
0.345
0.35
0.32
0.31
0.33
0.36
0.335
0.35
0.34
0.355
0.365
0.33
0.34
0.34
0.35
0.345
0.345
0.375
0.335
0.375
0.355
0.39
0.38
0.38
0.395
0.39
0.38
0.38
0.38
0.37
0.35
0.34
0.39
0.37
0.365
0.345
0.345
0.335
0.345
0.325
0.325
0.31
0.335
0.355
0.325
0.34
0.33
0.315
0.315
0.315
0.295
0.32
0.32
0.315
0.285
0.335
0.355
0.29
0.305
0.315
0.3
0.31
0.32
0.31
0.3
0.31
0.32
0.305
0.27
0.31
0.315
0.3
0.325
0.34
0.34
0.345
0.335
0.315
0.325
0.3
0.285
0.285
0.295
0.3
0.31
0.345
0.335
0.37
0.435
0.515
0.6
0.695
0.78
0.905
0.905
0.85
0.87
0.89
0.995
1.02
0.995
0.99
0.845
0.61
0.46
0.435
0.38
0.39
0.37
0.39
0.34
0.365
0.37
0.355
0.355
0.34
0.33
0.305
0.29
0.31
0.31
0.33
0.335
0.34
0.31
0.305
0.29
0.33
0.315
0.32
0.295
0.34
0.355
0.335
0.31
0.34
0.34
0.335
0.33
0.33
0.315
0.33
0.32
0.33
0.325
0.33
0.325
0.345
0.34
0.345
0.32
0.35
0.35
0.34
0.35
0.335
0.34
0.325
0.345
0.35
0.36
0.34
0.36
0.345
0.34
0.36
0.38
0.345
0.39
0.37
0.37
0.37
0.365
0.375
0.41
0.42
0.385
0.41
0.425
0.45
0.46
0.455
0.455
0.46
0.45
0.495
0.48
0.49
0.545
0.535
0.56
0.545
0.57
0.56
0.63
0.635
0.625
0.615
0.65
0.635
0.64
0.63
0.63
0.63
0.63
0.59
0.61
0.61
0.585
0.57
0.565
0.555
0.55
0.52
0.51
0.51
0.48
0.47
0.45
0.43
0.36
0.445
0.38
0.375
0.37
0.37
0.365
0.38
0.37
0.355
0.345
0.335
0.33
0.31
0.31
0.33
0.37
0.35
0.315
0.32
0.315
0.325
0.335
0.355
0.325
0.32
0.315
0.315
0.33
0.33
0.33
0.305
0.295
0.31
0.355
0.34
0.345
0.335
0.295
0.315
0.33
0.32
0.29
0.335
0.345
0.335
0.315
0.33
0.31
0.3
0.315
0.32
0.315
0.295
0.29
0.3
0.3
0.315
0.335
0.345
0.34
0.34
0.33
0.33
0.32
0.34
0.33
0.33
0.31
0.3
0.305
0.315
0.31
0.325
0.35
0.34
0.32
0.32
0.325
0.345
0.31
0.305
0.335
0.36
0.335
0.35
0.34
0.325
0.345
0.345
0.325
0.325
0.335
0.315
0.325
0.33
0.325
0.335
0.35
0.325
0.315
0.325
0.31
0.335
0.35
0.355
0.35
0.315
0.295
0.3
0.33
0.32
0.32
0.31
0.32
0.32
0.33
0.32
0.32
0.325
0.32
0.32
0.34
0.33
0.315
0.31
0.305
0.315
0.325
0.29
0.28
0.33
0.37
0.34
0.335
0.34
0.365
0.31
0.285
0.33
0.335
0.315
0.33
0.32
0.34
0.34
0.35
0.365
0.37
0.345
0.39
0.37
0.355
0.35
0.36
0.36
0.365
0.38
0.37
0.36
0.345
0.345
0.305
0.38
0.365
0.33
0.325
0.315
0.335
0.335
0.335
0.3
0.305
0.34
0.315
0.305
0.3
0.3
0.31
0.315
0.3
0.305
0.295
0.285
0.29
0.3
0.33
0.315
0.315
0.335
0.345
0.34
0.325
0.32
0.305
0.295
0.285
0.265
0.3
0.305
0.32
0.315
0.295
0.28
0.325
0.32
0.31
0.31
0.3
0.29
0.26
0.23
0.24
0.33
0.405
0.36
0.385
0.46
0.595
0.73
0.785
0.855
0.865
0.855
0.865
0.835
0.905
0.925
0.935
0.935
0.85
0.625
0.47
0.405
0.395
0.335
0.38
0.365
0.365
0.33
0.35
0.35
0.35
0.335
0.345
0.31
0.32
0.315
0.32
0.305
0.315
0.315
0.315
0.3
0.34
0.32
0.305
0.27
0.325
0.365
0.34
0.33
0.345
0.36
0.33
0.35
0.35
0.34
0.35
0.35
0.325
0.315
0.335
0.345
0.35
0.33
0.33
0.33
0.31
0.305
0.315
0.34
0.365
0.345
0.35
0.355
0.33
0.355
0.355
0.365
0.37
0.355
0.33
0.335
0.345
0.415
0.4
0.39
0.405
0.4
0.38
0.4
0.395
0.4
0.41
0.415
0.43
0.425
0.445
0.46
0.465
0.48
0.495
0.505
0.515
0.525
0.545
0.555
0.57
0.58
0.585
0.585
0.595
0.605
0.635
0.59
0.625
0.66
0.655
0.65
0.66
0.63
0.635
0.615
0.585
0.6
0.59
0.585
0.57
0.55
0.575
0.495
0.53
0.525
0.49
0.485
0.465
0.455
0.45
0.43
0.405
0.395
0.385
0.375
0.385
0.375
0.375
0.355
0.335
0.345
0.335
0.355
0.335
0.325
0.31
0.31
0.315
0.345
0.35
0.355
0.33
0.365
0.34
0.335
0.345
0.33
0.315
0.315
0.33
0.305
0.36
0.36
0.31
0.29
0.34
0.35
0.33
0.34
0.345
0.33
0.32
0.33
0.32
0.325
0.315
0.31
0.315
0.305
0.315
0.31
0.355
0.345
0.335
0.335
0.34
0.325
0.33
0.33
0.34
0.335
0.305
0.305
0.32
0.32
0.32
0.35
0.35
0.355
0.32
0.31
0.325
0.315
0.33
0.34
0.335
0.365
0.345
0.345
0.365
0.35
0.325
0.34
0.35
0.345
0.355
0.335
0.33
0.33
0.35
0.37
0.36
0.345
0.355
0.35
0.335
0.33
0.345
0.355
0.34
0.34
0.35
0.355
0.345
0.355
0.34
0.345
0.365
0.36
0.36
0.345
0.355
0.35
0.345
0.36
0.355
0.335
0.335
0.355
0.355
0.37
0.365
0.365
0.385
0.375
0.38
0.38
0.365
0.34
0.38
0.415
0.415
0.405
0.395
0.415
0.425
0.41
0.405
0.415
0.405
0.4
0.395
0.38
0.38
0.365
0.36
0.37
0.355
0.345
0.35
0.325
0.36
0.355
0.325
0.345
0.345
0.34
0.345
0.34
0.34
0.35
0.355
0.345
0.375
0.32
0.325
0.33
0.355
0.345
0.35
0.33
0.355
0.345
0.34
0.36
0.355
0.33
0.325
0.29
0.345
0.345
0.325
0.32
0.305
0.335
0.335
0.345
0.33
0.32
0.33
0.32
0.35
0.335
0.32
0.33
0.335
0.335
0.39
0.465
0.575
0.665
0.845
0.875
0.84
0.815
0.85
0.81
0.865
0.895
0.89
0.88
0.74
0.535
0.425
0.41
0.405
0.4
0.405
0.395
0.415
0.4
0.375
0.36
0.375
0.375
0.37
0.385
0.365
0.36
0.35
0.355
0.365
0.36
0.355
0.355
0.35
0.335
0.375
0.365
0.345
0.38
0.38
0.36
0.355
0.395
0.33
0.405
0.425
0.415
0.395
0.4
0.38
0.385
0.395
0.375
0.38
0.37
0.37
0.38
0.39
0.405
0.405
0.4
0.395
0.39
0.375
0.385
0.39
0.41
0.395
0.395
0.4
0.425
0.415
0.4
0.375
0.385
0.415
0.44
0.415
0.435
0.445
0.46
0.465
0.48
0.465
0.475
0.48
0.475
0.475
0.495
0.485
0.53
0.565
0.555
0.585
0.595
0.59
0.61
0.585
0.635
0.645
0.645
0.59
0.715
0.705
0.67
0.66
0.68
0.67
0.635
0.645
0.675
0.715
0.665
0.65
0.635
0.625
0.605
0.555
0.53
0.55
0.55
0.49
0.485
0.46
0.455
0.5
0.495
0.49
0.49
0.49
0.45
0.43
0.45
0.42
0.425
0.405
0.415
0.42
0.41
0.42
0.425
0.425
0.395
0.415
0.42
0.32
0.33
0.37
0.365
0.375
0.38
0.345
0.37
0.355
0.355
0.355
0.37
0.365
0.36
0.365
0.375
0.375
0.375
0.375
0.37
0.35
0.355
0.355
0.365
0.36
0.34
0.35
0.35
0.34
0.335
0.335
0.355
0.375
0.355
0.32
0.33
0.36
0.355
0.34
0.36
0.36
0.33
0.325
0.345
0.35
0.365
0.355
0.325
0.345
0.37
0.36
0.35
0.38
0.37
0.355
0.33
0.37
0.33
0.33
0.33
0.37
0.41
0.38
0.38
0.34
0.34
0.355
0.35
0.33
0.325
0.35
0.35
0.335
0.405
0.395
0.365
0.34
0.355
0.35
0.365
0.355
0.32
0.315
0.34
0.345
0.355
0.365
0.36
0.38
0.335
0.325
0.335
0.295
0.32
0.335
0.34
0.32
0.31
0.33
0.29
0.3
0.295
0.32
0.35
0.34
0.305
0.335
0.355
0.35
0.345
0.36
0.365
0.365
0.36
0.375
0.38
0.355
0.345
0.35
0.375
0.33
0.345
0.35
0.375
0.385
0.375
0.37
0.355
0.375
0.33
0.37
0.345
0.33
0.34
0.37
0.37
0.34
0.3
0.29
0.29
0.34
0.355
0.37
0.33
0.265
0.265
0.26
0.285
0.275
0.3
0.325
0.335
0.31
0.285
0.28
0.28
0.31
0.29
0.255
0.295
0.32
0.31
0.285
0.3
0.29
0.32
0.325
0.31
0.335
0.295
0.34
0.355
0.29
0.28
0.31
0.32
0.295
0.305
0.21
0.255
0.255
0.265
0.255
0.33
0.335
0.295
0.415
0.485
0.555
0.735
0.74
0.785
0.78
0.805
0.775
0.755
0.86
0.89
0.87
0.86
0.745
0.485
0.36
0.37
0.355
0.295
0.3
0.265
0.24
0.3
0.335
0.38
0.34
0.27
0.205
0.215
0.23
0.26
0.33
0.305
0.255
0.23
0.22
0.21
0.23
0.27
0.255
0.29
0.265
0.235
0.24
0.23
0.21
0.27
0.295
0.27
0.26
0.24
0.315
0.245
0.24
0.285
0.285
0.265
0.26
0.27
0.27
0.275
0.305
0.29
0.245
0.23
0.23
0.225
0.27
0.32
0.3
0.3
0.285
0.255
0.23
0.29
0.27
0.3
0.3
0.3
0.27
0.285
0.35
0.345
0.315
0.26
0.26
0.305
0.35
0.305
0.34
0.345
0.335
0.345
0.335
0.35
0.355
0.37
0.415
0.455
0.495
0.485
0.47
0.44
0.47
0.48
0.54
0.495
0.445
0.515
0.465
0.445
0.43
0.535
0.555
0.61
0.565
0.525
0.49
0.435
0.455
0.43
0.4
0.435
0.445
0.405
0.4
0.425
0.405
0.36
0.32
0.325
0.305
0.28
0.29
0.29
0.28
0.275
0.315
0.28
0.28
0.245
0.235
0.265
0.23
0.2
0.225
0.21
0.2
0.195
0.22
0.23
0.245
0.255
0.265
0.26
0.255
0.205
0.2
0.205
0.225
0.245
0.26
0.26
0.22
0.225
0.255
0.2
0.27
0.21
0.235
0.205
0.225
0.21
0.21
0.22
0.25
0.29
0.245
0.185
0.195
0.19
0.155
0.22
0.275
0.33
0.275
0.265
0.23
0.22
0.205
0.245
0.255
0.235
0.255
0.24
0.225
0.2
0.22
0.255
0.275
0.26
0.235
0.21
0.225
0.25
0.205
0.2
0.28
0.31
0.29
0.245
0.255
0.25
0.245
0.27
0.255
0.26
0.26
0.205
0.28
0.265
0.25
0.23
0.26
0.245
0.235
0.23
0.23
0.22
0.26
0.245
0.255
0.245
0.28
0.26
0.245
0.27
0.275
0.25
0.24
0.245
0.24
0.29
0.28
0.27
0.255
0.27
0.245
0.21
0.195
0.24
0.27
0.26
0.27
0.235
0.23
0.3
0.27
0.27
0.275
0.265
0.25
0.24
0.28
0.29
0.275
0.29
0.27
0.245
0.25
0.3
0.25
0.25
0.245
0.24
0.295
0.285
0.335
0.295
0.27
0.29
0.28
0.29
0.275
0.275
0.32
0.28
0.265
0.275
0.29
0.3
0.305
0.305
0.295
0.3
0.34
0.305
0.35
0.325
0.29
0.315
0.33
0.32
0.325
0.33
0.315
0.325
0.34
0.31
0.32
0.34
0.315
0.32
0.325
0.3
0.28
0.305
0.34
0.31
0.3
0.31
0.315
0.285
0.275
0.285
0.285
0.27
0.29
0.26
0.27
0.275
0.285
0.275
0.33
0.29
0.29
0.275
0.27
0.285
0.28
0.28
0.265
0.275
0.265
0.265
0.3
0.305
0.28
0.275
0.285
0.29
0.275
0.28
0.3
0.295
0.265
0.26
0.245
0.24
0.275
0.29
0.335
0.395
0.43
0.525
0.625
0.73
0.775
0.85
0.875
0.825
0.79
0.81
0.91
0.875
0.9
0.925
0.755
0.51
0.43
0.405
0.36
0.345
0.35
0.35
0.325
0.32
0.32
0.295
0.3
0.32
0.285
0.31
0.305
0.315
0.305
0.3
0.28
0.275
0.285
0.34
0.31
0.3
0.31
0.3
0.305
0.295
0.29
0.3
0.32
0.305
0.31
0.325
0.335
0.32
0.33
0.315
0.315
0.32
0.305
0.295
0.33
0.345
0.32
0.305
0.335
0.345
0.325
0.32
0.32
0.295
0.315
0.355
0.34
0.325
0.345
0.32
0.325
0.33
0.375
0.36
0.37
0.375
0.35
0.365
0.345
0.325
0.37
0.355
0.395
0.4
0.39
0.41
0.405
0.4
0.44
0.425
0.45
0.455
0.475
0.47
0.505
0.505
0.515
0.545
0.56
0.545
0.55
0.555
0.57
0.58
0.595
0.595
0.58
0.59
0.62
0.62
0.625
0.59
0.625
0.6
0.595
0.595
0.595
0.535
0.51
0.53
0.545
0.555
0.505
0.47
0.465
0.47
0.43
0.42
0.425
0.42
0.405
0.365
0.36
0.35
0.35
0.35
0.33
0.315
0.345
0.335
0.305
0.32
0.32
0.32
0.295
0.285
0.29
0.35
0.36
0.315
0.3
0.3
0.3
0.31
0.315
0.285
0.305
0.29
0.315
0.325
0.305
0.3
0.3
0.31
0.315
0.295
0.295
0.33
0.31
0.315
0.3
0.29
0.29
0.3
0.31
0.315
0.335
0.34
0.295
0.29
0.235
0.285
0.315
0.31
0.28
0.3
0.31
0.285
0.315
0.295
0.29
0.285
0.265
0.27
0.31
0.355
0.305
0.29
0.305
0.32
0.325
0.305
0.305
0.32
0.315
0.29
0.285
0.325
0.305
0.265
0.295
0.335
0.285
0.32
0.315
0.31
0.315
0.315
0.31
0.305
0.33
0.35
0.34
0.335
0.32
0.325
0.335
0.33
0.295
0.31
0.315
0.295
0.315
0.32
0.305
0.285
0.325
0.32
0.34
0.32
0.305
0.315
0.305
0.335
0.315
0.325
0.305
0.285
0.31
0.29
0.285
0.315
0.305
0.33
0.33
0.325
0.315
0.3
0.34
0.33
0.355
0.345
0.335
0.345
0.35
0.345
0.345
0.335
0.34
0.335
0.335
0.375
0.36
0.355
0.39
0.405
0.36
0.345
0.35
0.375
0.345
0.375
0.365
0.345
0.34
0.305
0.275
0.31
0.33
0.31
0.32
0.33
0.31
0.3
0.27
0.305
0.32
0.305
0.29
0.295
0.3
0.31
0.3
0.32
0.295
0.275
0.285
0.29
0.32
0.315
0.315
0.32
0.34
0.265
0.28
0.29
0.295
0.295
0.29
0.31
0.32
0.285
0.29
0.305
0.31
0.31
0.31
0.265
0.3
0.285
0.3
0.28
0.265
0.27
0.295
0.305
0.305
0.38
0.44
0.525
0.665
0.77
0.805
0.8
0.795
0.79
0.74
0.84
0.865
0.84
0.82
0.71
0.49
0.38
0.33
0.335
0.34
0.345
0.345
0.325
0.33
0.33
0.32
0.285
0.28
0.3
0.33
0.32
0.32
0.295
0.27
0.31
0.29
0.31
0.285
0.285
0.285
0.285
0.28
0.3
0.335
0.3
0.295
0.32
0.3
0.295
0.285
0.29
0.27
0.275
0.31
0.315
0.305
0.33
0.31
0.325
0.365
0.305
0.275
0.29
0.305
0.315
0.315
0.34
0.325
0.315
0.33
0.32
0.295
0.3
0.35
0.33
0.34
0.32
0.355
0.345
0.345
0.35
0.34
0.325
0.335
0.37
0.395
0.41
0.36
0.38
0.39
0.43
0.405
0.4
0.455
0.44
0.45
0.46
0.47
0.48
0.515
0.52
0.49
0.545
0.525
0.6
0.58
0.58
0.58
0.585
0.625
0.59
0.615
0.61
0.605
0.615
0.615
0.585
0.6
0.59
0.585
0.57
0.53
0.51
0.495
0.53
0.54
0.49
0.435
0.435
0.425
0.415
0.41
0.395
0.39
0.365
0.36
0.35
0.32
0.31
0.325
0.31
0.35
0.34
0.305
0.325
0.33
0.28
0.305
0.265
0.285
0.295
0.31
0.295
0.285
0.28
0.28
0.3
0.32
0.275
0.265
0.285
0.28
0.29
0.34
0.29
0.29
0.28
0.275
0.275
0.275
0.29
0.27
0.29
0.275
0.275
0.305
0.285
0.26
0.275
0.285
0.26
0.285
0.29
0.295
0.275
0.27
0.275
0.28
0.265
0.28
0.28
0.285
0.26
0.285
0.305
0.255
0.305
0.31
0.29
0.27
0.255
0.275
0.295
0.285
0.305
0.32
0.285
0.295
0.3
0.305
0.31
0.315
0.3
0.31
0.315
0.31
0.31
0.295
0.29
0.295
0.285
0.315
0.335
0.305
0.33
0.31
0.305
0.31
0.305
0.31
0.305
0.31
0.325
0.365
0.365
0.345
0.345
0.34
0.34
0.345
0.35
0.36
0.355
0.36
0.36
0.35
0.335
0.345
0.39
0.39
0.375
0.335
0.34
0.345
0.38
0.37
0.36
0.35
0.355
0.325
0.325
0.3
0.305
0.33
0.325
0.315
0.305
0.305
0.285
0.26
0.275
0.29
0.36
0.295
0.285
0.28
0.295
0.305
0.32
0.325
0.265
0.29
0.32
0.3
0.29
0.3
0.29
0.275
0.285
0.3
0.295
0.335
0.3
0.29
0.29
0.28
0.29
0.31
0.305
0.275
0.275
0.26
0.255
0.265
0.26
0.31
0.28
0.275
0.325
0.415
0.495
0.605
0.69
0.8
0.825
0.87
0.835
0.785
0.795
0.865
0.915
0.875
0.84
0.67
0.45
0.36
0.385
0.385
0.345
0.33
0.325
0.34
0.305
0.3
0.29
0.3
0.295
0.315
0.295
0.29
0.285
0.29
0.31
0.295
0.26
0.27
0.285
0.315
0.33
0.295
0.3
0.285
0.315
0.295
0.31
0.27
0.315
0.305
0.295
0.285
0.315
0.29
0.325
0.295
0.3
0.305
0.325
0.28
0.29
0.295
0.335
0.33
0.31
0.31
0.31
0.295
0.3
0.305
0.325
0.32
0.355
0.295
0.32
0.325
0.35
0.37
0.335
0.335
0.335
0.32
0.365
0.375
0.355
0.35
0.375
0.38
0.34
0.375
0.39
0.39
0.385
0.43
0.405
0.425
0.475
0.47
0.505
0.465
0.505
0.52
0.51
0.535
0.545
0.54
0.555
0.545
0.565
0.6
0.61
0.61
0.6
0.605
0.59
0.6
0.59
0.595
0.57
0.57
0.55
0.555
0.54
0.5
0.51
0.49
0.455
0.44
0.405
0.45
0.38
0.41
0.4
0.37
0.375
0.345
0.35
0.335
0.3
0.31
0.32
0.345
0.31
0.26
0.31
0.26
0.295
0.305
0.3
0.28
0.3
0.285
0.28
0.315
0.31
0.305
0.285
0.3
0.285
0.28
0.275
0.285
0.295
0.245
0.33
0.31
0.285
0.285
0.305
0.265
0.275
0.28
0.275
0.29
0.31
0.305
0.22
0.285
0.255
0.285
0.285
0.285
0.29
0.27
0.25
0.29
0.295
0.285
0.245
0.255
0.27
0.3
0.305
0.27
0.27
0.31
0.295
0.27
0.26
0.26
0.27
0.295
0.275
0.27
0.275
0.235
0.295
0.3
0.29
0.29
0.315
0.27
0.28
0.25
0.305
0.3
0.285
0.24
0.29
0.29
0.29
0.265
0.265
0.27
0.28
0.315
0.285
0.265
0.28
0.265
0.255
0.295
0.295
0.295
0.29
0.28
0.285
0.3
0.315
0.29
0.295
0.31
0.285
0.27
0.3
0.295
0.32
0.295
0.28
0.335
0.37
0.305
0.3
0.31
0.345
0.335
0.28
0.345
0.305
0.295
0.295
0.315
0.295
0.255
0.335
0.335
0.32
0.305
0.3
0.28
0.26
0.28
0.26
0.25
0.245
0.235
0.22
0.255
0.25
0.225
0.195
0.215
0.225
0.26
0.24
0.265
0.255
0.235
0.235
0.23
0.22
0.235
0.26
0.235
0.22
0.225
0.235
0.225
0.215
0.195
0.175
0.2
0.315
0.215
0.22
0.23
0.225
0.195
0.235
0.215
0.16
0.19
0.2
0.245
0.235
0.29
0.325
0.425
0.45
0.665
0.72
0.76
0.805
0.79
0.775
0.73
0.84
0.855
0.895
0.9
0.725
0.47
0.345
0.28
0.3
0.285
0.28
0.245
0.225
0.22
0.21
0.215
0.215
0.2
0.2
0.205
0.185
0.175
0.195
0.18
0.215
0.19
0.15
0.155
0.165
0.24
0.225
0.2
0.185
0.215
0.215
0.195
0.195
0.17
0.165
0.165
0.225
0.2
0.17
0.165
0.185
0.19
0.2
0.165
0.195
0.185
0.165
0.14
0.125
0.195
0.2
0.17
0.2
0.185
0.22
0.175
0.205
0.19
0.2
0.18
0.185
0.16
0.16
0.18
0.245
0.26
0.235
0.23
0.205
0.18
0.21
0.225
0.21
0.225
0.235
0.225
0.23
0.25
0.23
0.22
0.245
0.35
0.295
0.275
0.305
0.325
0.34
0.35
0.355
0.365
0.385
0.39
0.44
0.39
0.385
0.39
0.405
0.445
0.415
0.43
0.425
0.405
0.365
0.39
0.39
0.425
0.405
0.37
0.325
0.295
0.29
0.305
0.28
0.26
0.255
0.24
0.22
0.205
0.19
0.17
0.135
0.155
0.125
0.09
0.13
0.135
0.13
0.095
0.09
0.115
0.085
0.1
0.085
0.095
0.1
0.085
0.085
0.075
0.105
0.07
0.08
0.11
0.09
0.07
0.07
0.085
0.06
0.045
0.07
0.055
0.045
0.055
0.045
0.035
0.065
0.03
0.025
0.035
0.085
0.05
0.085
0.075
0.06
0.035
0.04
0.025
0.045
0.045
0.05
0.04
0.05
0.045
0.025
0.0
0.02
0.02
0.04
0.02
0.045
0.05
0.04
0.005
0.085
0.0
0.04
0.02
0.02
0.02
0.025
0.04
0.02
0.015
0.005
-0.035
0.055
0.01
-0.005
0.045
0.045
0.025
0.035
0.02
0.015
0.015
0.01
0.04
0.03
-0.01
-0.005
0.065
0.02
-0.02
0.03
0.035
0.02
0.02
0.0
0.0
0.005
0.02
0.015
0.0
-0.015
-0.02
0.02
-0.01
-0.05
0.005
0.075
0.005
0.0
-0.005
0.01
0.01
0.01
-0.015
0.0
-0.04
-0.01
-0.01
-0.03
0.12
0.125
0.05
0.01
0.035
-0.01
0.025
0.035
0.045
0.04
0.02
0.04
0.03
0.015
0.025
0.0
-0.015
-0.035
-0.055
-0.05
-0.04
-0.07
-0.1
-0.005
-0.06
-0.065
-0.075
-0.07
-0.06
-0.025
-0.07
-0.03
-0.04
-0.025
-0.105
-0.095
-0.07
0.0
-0.055
-0.085
-0.035
-0.04
-0.06
-0.075
-0.06
-0.065
-0.075
-0.06
-0.065
-0.055
-0.05
-0.06
-0.055
-0.06
-0.045
-0.08
-0.1
-0.09
-0.065
-0.07
-0.065
-0.075
-0.025
-0.125
-0.115
-0.105
-0.065
-0.03
0.01
0.065
0.17
0.28
0.44
0.39
0.555
0.515
0.545
0.46
0.535
0.575
0.595
0.57
0.5
0.275
0.11
0.03
0.04
0.01
-0.01
-0.01
-0.02
-0.02
-0.025
-0.045
-0.045
-0.06
-0.055
-0.045
-0.075
-0.065
-0.03
-0.06
-0.045
-0.03
-0.06
-0.01
-0.07
-0.06
-0.07
-0.07
-0.07
-0.055
-0.065
-0.06
-0.06
-0.035
-0.025
-0.05
-0.025
-0.015
0.01
0.01
-0.055
-0.045
-0.035
-0.03
-0.06
-0.01
-0.01
-0.03
-0.035
-0.015
0.005
-0.015
0.0
0.04
0.015
0.0
-0.02
0.01
-0.005
0.015
0.01
0.005
0.025
0.035
0.04
0.04
0.035
0.045
0.045
0.02
0.045
0.06
0.04
0.06
0.075
0.14
0.09
0.135
0.13
0.145
0.16
0.125
0.145
0.16
0.125
0.225
0.255
0.22
0.24
0.305
0.26
0.295
0.315
0.345
0.365
0.31
0.345
0.32
0.345
0.35
0.35
0.345
0.345
0.32
0.32
0.345
0.34
0.335
0.305
0.265
0.215
0.235
0.245
0.25
0.285
0.235
0.19
0.21
0.165
0.16
0.175
0.165
0.175
0.13
0.145
0.155
0.17
0.13
0.13
0.135
0.11
0.135
0.16
0.165
0.145
0.17
0.16
0.155
0.125
0.135
0.165
0.205
0.19
0.175
0.15
0.15
0.14
0.175
0.16
0.22
0.24
0.19
0.2
0.18
0.215
0.245
0.24
0.2
0.225
0.23
0.22
0.24
0.245
0.25
0.21
0.24
0.255
0.245
0.24
0.245
0.25
0.24
0.275
0.32
0.28
0.27
0.265
0.265
0.32
0.355
0.3
0.315
0.285
0.26
0.325
0.385
0.365
0.355
0.34
0.31
0.395
0.38
0.39
0.41
0.395
0.42
0.375
0.415
0.44
0.41
0.445
0.435
0.425
0.425
0.43
0.43
0.445
0.47
0.465
0.45
0.445
0.47
0.485
0.5
0.495
0.51
0.5
0.535
0.545
0.585
0.525
0.56
0.585
0.6
0.575
0.57
0.57
0.59
0.615
0.63
0.595
0.75
0.63
0.64
0.655
0.655
0.685
0.63
0.66
0.695
0.685
0.695
0.66
0.675
0.71
0.67
0.67
0.685
0.645
0.715
0.675
0.715
0.68
0.67
0.68
0.69
0.69
0.68
0.725
0.775
0.715
0.745
0.77
0.775
0.76
0.76
0.745
0.82
0.805
0.76
0.8
0.795
0.805
0.81
0.82
0.85
0.835
0.855
0.855
0.87
0.865
0.875
0.88
0.885
0.87
0.88
0.88
0.85
0.895
0.895
0.89
0.91
0.915
0.975
1.07
1.19
1.325
1.415
1.485
1.49
1.495
1.51
1.485
1.525
1.575
1.595
1.56
1.385
1.19
1.12
1.11
1.07
1.1
1.15
1.14
1.12
1.115
1.12
1.14
1.13
1.13
1.145
1.14
1.145
1.105
1.16
1.15
1.17
1.18
1.18
1.205
1.205
1.18
1.19
1.205
1.245
1.3
1.27
1.225
1.245
1.265
1.285
1.275
1.285
1.305
1.305
1.31
1.285
1.315
1.38
1.36
1.325
1.345
1.355
1.4
1.375
1.35
1.375
1.42
1.395
1.395
1.43
1.455
1.465
1.42
1.455
1.44
1.475
1.475
1.505
1.545
1.535
1.505
1.515
1.555
1.565
1.59
1.58
1.585
1.585
1.645
1.655
1.62
1.605
1.67
1.695
1.68
1.72
1.745
1.77
1.79
1.825
1.79
1.805
1.83
1.875
1.89
1.905
1.95
1.93
1.935
1.945
1.945
1.945
1.975
2.015
1.975
1.96
1.995
2.045
1.995
1.985
2.0
1.995
1.975
1.965
1.945
1.945
1.955
1.905
1.91
1.95
1.885
1.89
1.895
1.865
1.84
1.85
1.85
1.885
1.86
1.845
1.84
1.885
1.855
1.84
1.85
1.87
1.88
1.865
1.915
1.875
1.9
1.88
1.855
1.84
1.96
1.945
1.985
1.945
1.945
1.92
1.945
1.945
1.95
1.945
1.96
1.97
