# TIPE ECG 2021 - ECG-ID Database v1.0.0 par Physionet
# [Numéro de la personne, Période d'échantillonnage, Prénom, Age, Sexe, Date de l'enregistrement]
[61, 0.002, Neva, 16, F, 12.05.2005]
-0.17
-0.165
-0.23
-0.24
-0.13
-0.15
-0.13
-0.12
-0.18
-0.235
-0.195
-0.165
-0.155
-0.155
-0.225
-0.215
-0.215
-0.2
-0.21
-0.2
-0.17
-0.23
-0.24
-0.195
-0.17
-0.205
-0.275
-0.215
-0.14
-0.215
-0.235
-0.19
-0.195
-0.205
-0.19
-0.18
-0.205
-0.165
-0.135
-0.105
-0.185
-0.185
-0.22
-0.21
-0.23
-0.22
-0.21
-0.135
-0.195
-0.13
-0.145
-0.185
-0.2
-0.165
-0.2
-0.22
-0.235
-0.185
-0.19
-0.21
-0.195
-0.18
-0.195
-0.19
-0.21
-0.22
-0.19
-0.24
-0.155
-0.24
-0.185
-0.185
-0.195
-0.16
-0.175
-0.175
-0.165
-0.215
-0.255
-0.155
-0.195
-0.205
-0.17
-0.22
-0.205
-0.215
-0.185
-0.19
-0.165
-0.13
-0.185
-0.26
-0.225
-0.205
-0.11
-0.14
-0.18
-0.185
-0.165
-0.16
-0.19
-0.14
-0.105
-0.09
-0.05
-0.095
-0.145
-0.1
-0.13
-0.155
-0.14
-0.18
-0.11
-0.105
-0.1
-0.14
-0.155
-0.16
-0.165
-0.2
-0.215
-0.245
-0.195
-0.2
-0.25
-0.25
-0.135
-0.17
-0.18
-0.19
-0.22
-0.24
-0.285
-0.225
-0.245
-0.275
-0.24
-0.205
-0.24
-0.205
-0.16
-0.18
-0.245
-0.225
-0.23
-0.235
-0.215
-0.235
-0.2
-0.225
-0.235
-0.235
-0.245
-0.24
-0.225
-0.225
-0.22
-0.255
-0.21
-0.245
-0.305
-0.28
-0.315
-0.315
-0.28
-0.285
-0.17
-0.125
-0.08
-0.04
0.1
0.25
0.24
0.32
0.415
0.455
0.395
0.3
0.245
0.175
-0.005
-0.16
-0.195
-0.3
-0.405
-0.435
-0.465
-0.4
-0.395
-0.32
-0.31
-0.325
-0.285
-0.215
-0.225
-0.215
-0.26
-0.225
-0.245
-0.255
-0.21
-0.185
-0.23
-0.195
-0.215
-0.305
-0.245
-0.12
-0.17
-0.245
-0.205
-0.265
-0.145
-0.195
-0.175
-0.195
-0.175
-0.2
-0.185
-0.205
-0.15
-0.165
-0.18
-0.165
-0.205
-0.145
-0.16
-0.195
-0.24
-0.175
-0.18
-0.155
-0.155
-0.22
-0.18
-0.195
-0.135
-0.145
-0.165
-0.165
-0.16
-0.16
-0.145
-0.18
-0.165
-0.125
-0.115
-0.09
-0.105
-0.165
-0.145
-0.095
-0.125
-0.14
-0.135
-0.135
-0.065
-0.12
-0.155
-0.025
0.015
-0.035
-0.045
-0.015
-0.045
-0.025
-0.045
-0.005
-0.025
-0.03
0.0
-0.005
0.095
0.14
0.115
0.07
0.075
0.09
0.08
0.09
0.11
0.14
0.12
0.12
0.1
0.12
0.19
0.13
0.195
0.19
0.175
0.195
0.21
0.15
0.12
0.145
0.065
0.09
0.07
0.11
0.085
0.0
-0.015
0.045
0.015
0.025
-0.005
-0.025
-0.08
-0.07
-0.015
-0.09
-0.13
-0.135
-0.115
-0.15
-0.15
-0.14
-0.175
-0.165
-0.185
-0.175
-0.2
-0.125
-0.185
-0.18
-0.17
-0.125
-0.155
-0.185
-0.255
-0.21
-0.24
-0.115
-0.16
-0.2
-0.175
-0.2
-0.22
-0.235
-0.19
-0.15
-0.235
-0.24
-0.235
-0.32
-0.215
-0.155
-0.255
-0.235
-0.24
-0.25
-0.21
-0.25
-0.31
-0.3
-0.235
-0.25
-0.21
-0.165
-0.25
-0.23
-0.235
-0.185
-0.15
-0.205
-0.205
-0.235
-0.265
-0.25
-0.23
-0.195
-0.205
-0.22
-0.215
-0.18
-0.145
-0.21
-0.22
-0.22
-0.175
-0.19
-0.18
-0.155
-0.23
-0.21
-0.205
-0.225
-0.21
-0.2
-0.18
-0.2
-0.19
-0.175
-0.21
-0.225
-0.16
-0.17
-0.205
-0.205
-0.195
-0.175
-0.225
-0.165
-0.195
-0.225
-0.175
-0.165
-0.23
-0.225
-0.22
-0.195
-0.205
-0.12
-0.125
-0.175
-0.165
-0.23
-0.195
-0.25
-0.235
-0.235
-0.24
-0.17
-0.1
-0.12
-0.19
-0.18
-0.2
-0.135
-0.215
-0.12
-0.11
-0.165
-0.165
-0.145
-0.17
-0.12
-0.16
-0.195
-0.12
-0.12
-0.125
-0.07
-0.125
-0.095
-0.135
-0.105
-0.13
-0.135
-0.13
-0.175
-0.175
-0.185
-0.15
-0.135
-0.15
-0.2
-0.19
-0.2
-0.185
-0.25
-0.17
-0.225
-0.24
-0.2
-0.205
-0.19
-0.215
-0.2
-0.215
-0.225
-0.22
-0.245
-0.195
-0.19
-0.195
-0.215
-0.255
-0.265
-0.17
-0.2
-0.23
-0.165
-0.175
-0.23
-0.21
-0.21
-0.22
-0.185
-0.225
-0.25
-0.19
-0.255
-0.23
-0.27
-0.295
-0.195
-0.205
-0.225
-0.3
-0.265
-0.19
-0.135
-0.09
-0.04
0.045
0.135
0.245
0.265
0.37
0.4
0.37
0.315
0.23
0.11
-0.005
-0.105
-0.16
-0.29
-0.42
-0.51
-0.525
-0.425
-0.43
-0.37
-0.34
-0.305
-0.29
-0.27
-0.25
-0.245
-0.215
-0.2
-0.175
-0.135
-0.22
-0.19
-0.195
-0.195
-0.2
-0.21
-0.205
-0.2
-0.19
-0.22
-0.22
-0.27
-0.115
-0.145
-0.18
-0.19
-0.165
-0.23
-0.15
-0.19
-0.145
-0.18
-0.1
-0.15
-0.16
-0.095
-0.14
-0.16
-0.195
-0.18
-0.17
-0.2
-0.18
-0.135
-0.125
-0.165
-0.15
-0.155
-0.15
-0.15
-0.15
-0.16
-0.145
-0.115
-0.155
-0.135
-0.165
-0.06
-0.105
-0.15
-0.165
-0.115
-0.17
-0.11
-0.08
-0.045
-0.1
-0.145
-0.1
-0.05
0.02
-0.065
-0.06
-0.06
-0.06
-0.035
-0.03
-0.025
0.0
0.065
0.05
0.09
0.035
0.02
0.11
0.095
0.075
0.05
0.14
0.145
0.165
0.195
0.13
0.145
0.155
0.18
0.135
0.185
0.13
0.16
0.125
0.11
0.18
0.235
0.17
0.105
0.065
0.145
0.07
0.075
0.085
0.085
0.06
0.015
-0.015
-0.055
-0.095
-0.15
-0.14
-0.045
-0.085
-0.13
-0.13
-0.15
-0.115
-0.17
-0.18
-0.15
-0.175
-0.165
-0.13
-0.125
-0.215
-0.23
-0.205
-0.21
-0.185
-0.185
-0.225
-0.19
-0.195
-0.185
-0.25
-0.29
-0.26
-0.105
-0.165
-0.185
-0.195
-0.16
-0.21
-0.215
-0.205
-0.195
-0.19
-0.21
-0.22
-0.24
-0.25
-0.25
-0.155
-0.19
-0.195
-0.265
-0.23
-0.18
-0.16
-0.24
-0.195
-0.215
-0.19
-0.18
-0.135
-0.22
-0.175
-0.135
-0.2
-0.265
-0.24
-0.19
-0.235
-0.19
-0.215
-0.2
-0.155
-0.24
-0.19
-0.165
-0.185
-0.16
-0.235
-0.22
-0.155
-0.17
-0.18
-0.2
-0.23
-0.225
-0.18
-0.21
-0.2
-0.21
-0.2
-0.215
-0.235
-0.205
-0.235
-0.195
-0.185
-0.195
-0.135
-0.21
-0.12
-0.135
-0.19
-0.22
-0.18
-0.095
-0.225
-0.195
-0.17
-0.245
-0.17
-0.2
-0.19
-0.17
-0.21
-0.19
-0.165
-0.145
-0.19
-0.25
-0.17
-0.17
-0.21
-0.24
-0.18
-0.215
-0.22
-0.18
-0.17
-0.16
-0.2
-0.19
-0.175
-0.215
-0.245
-0.185
-0.2
-0.18
-0.225
-0.205
-0.195
-0.18
-0.245
-0.175
-0.145
-0.17
-0.17
-0.19
-0.165
-0.185
-0.205
-0.165
-0.185
-0.155
-0.13
-0.09
-0.09
-0.165
-0.04
-0.06
-0.105
-0.095
-0.14
-0.185
-0.155
-0.165
-0.115
-0.14
-0.125
-0.1
-0.175
-0.21
-0.235
-0.165
-0.195
-0.155
-0.205
-0.2
-0.14
-0.195
-0.22
-0.205
-0.21
-0.205
-0.2
-0.165
-0.19
-0.2
-0.245
-0.23
-0.25
-0.245
-0.205
-0.225
-0.16
-0.17
-0.19
-0.18
-0.225
-0.18
-0.205
-0.21
-0.14
-0.23
-0.185
-0.155
-0.22
-0.285
-0.19
-0.18
-0.215
-0.21
-0.265
-0.27
-0.33
-0.29
-0.255
-0.175
-0.105
-0.08
-0.055
0.06
0.14
0.205
0.295
0.34
0.355
0.33
0.29
0.13
0.145
0.095
-0.055
-0.085
-0.245
-0.285
-0.335
-0.44
-0.34
-0.34
-0.29
-0.27
-0.2
-0.24
-0.145
-0.11
-0.235
-0.23
-0.195
-0.25
-0.185
-0.205
-0.22
-0.165
-0.195
-0.195
-0.185
-0.22
-0.185
-0.2
-0.2
-0.2
-0.195
-0.18
-0.195
-0.175
-0.17
-0.2
-0.22
-0.165
-0.16
-0.2
-0.16
-0.175
-0.205
-0.19
-0.18
-0.16
-0.17
-0.155
-0.19
-0.215
-0.215
-0.155
-0.135
-0.14
-0.155
-0.155
-0.19
-0.135
-0.16
-0.15
-0.11
-0.16
-0.145
-0.13
-0.23
-0.18
-0.17
-0.235
-0.135
-0.12
-0.125
-0.105
-0.135
-0.14
-0.075
-0.06
-0.11
-0.085
-0.1
-0.195
-0.095
-0.045
-0.07
0.005
-0.04
-0.055
-0.07
-0.065
-0.09
0.01
-0.015
0.0
-0.005
0.055
0.055
0.04
0.06
0.08
0.085
0.085
0.08
0.095
0.105
0.08
0.105
0.095
0.085
0.08
0.185
0.135
0.085
0.14
0.125
0.1
0.065
0.085
0.1
0.115
0.095
0.0
0.02
-0.075
-0.065
-0.035
0.005
-0.03
-0.085
-0.125
-0.085
-0.1
-0.125
-0.105
-0.13
-0.08
-0.12
-0.165
-0.145
-0.12
-0.165
-0.145
-0.205
-0.17
-0.16
-0.17
-0.14
-0.17
-0.205
-0.2
-0.175
-0.145
-0.21
-0.205
-0.175
-0.155
-0.185
-0.18
-0.155
-0.135
-0.155
-0.215
-0.205
-0.215
-0.225
-0.225
-0.17
-0.18
-0.16
-0.17
-0.16
-0.165
-0.195
-0.225
-0.155
-0.225
-0.155
-0.185
-0.22
-0.245
-0.165
-0.23
-0.115
-0.125
-0.185
-0.155
-0.16
-0.175
-0.18
-0.18
-0.165
-0.185
-0.175
-0.15
-0.18
-0.255
-0.215
-0.195
-0.225
-0.19
-0.145
-0.17
-0.2
-0.21
-0.15
-0.21
-0.235
-0.17
-0.15
-0.215
-0.155
-0.2
-0.215
-0.225
-0.18
-0.18
-0.19
-0.17
-0.15
-0.23
-0.13
-0.165
-0.26
-0.22
-0.16
-0.19
-0.265
-0.15
-0.155
-0.11
-0.14
-0.19
-0.195
-0.2
-0.205
-0.22
-0.265
-0.145
-0.15
-0.19
-0.175
-0.19
-0.16
-0.145
-0.16
-0.225
-0.17
-0.21
-0.225
-0.205
-0.165
-0.22
-0.22
-0.235
-0.235
-0.215
-0.16
-0.235
-0.17
-0.18
-0.22
-0.165
-0.18
-0.19
-0.19
-0.12
-0.17
-0.13
-0.155
-0.12
-0.175
-0.19
-0.215
-0.175
-0.14
-0.16
-0.15
-0.095
-0.07
-0.165
-0.17
-0.11
-0.1
-0.065
-0.065
-0.13
-0.085
-0.095
-0.095
-0.155
-0.12
-0.125
-0.145
-0.155
-0.175
-0.15
-0.155
-0.165
-0.18
-0.19
-0.235
-0.21
-0.27
-0.185
-0.185
-0.19
-0.175
-0.185
-0.205
-0.235
-0.19
-0.195
-0.22
-0.19
-0.165
-0.21
-0.225
-0.245
-0.245
-0.23
-0.18
-0.195
-0.285
-0.195
-0.175
-0.185
-0.205
-0.135
-0.19
-0.185
-0.22
-0.165
-0.14
-0.235
-0.26
-0.3
-0.27
-0.24
-0.26
-0.295
-0.26
-0.25
-0.11
-0.055
-0.03
0.105
0.155
0.22
0.29
0.35
0.43
0.375
0.31
0.225
0.175
0.065
-0.075
-0.16
-0.27
-0.28
-0.33
-0.39
-0.39
-0.4
-0.285
-0.26
-0.255
-0.255
-0.19
-0.21
-0.27
-0.2
-0.095
-0.21
-0.185
-0.2
-0.175
-0.195
-0.195
-0.21
-0.21
-0.185
-0.185
-0.17
-0.24
-0.22
-0.215
-0.16
-0.16
-0.205
-0.2
-0.14
-0.15
-0.19
-0.195
-0.17
-0.215
-0.235
-0.19
-0.11
-0.13
-0.185
-0.195
-0.145
-0.2
-0.165
-0.17
-0.185
-0.155
-0.18
-0.13
-0.15
-0.15
-0.17
-0.11
-0.2
-0.265
-0.17
-0.16
-0.1
-0.15
-0.135
-0.125
-0.11
-0.115
-0.105
-0.115
-0.105
-0.1
-0.14
-0.085
-0.085
-0.085
-0.11
-0.1
-0.12
-0.105
-0.105
-0.005
-0.025
-0.045
-0.07
-0.03
-0.03
0.025
0.005
0.02
0.06
0.035
0.04
0.06
0.03
0.065
0.13
0.115
0.11
0.115
0.11
0.08
0.165
0.185
0.23
0.16
0.145
0.175
0.105
0.105
0.13
0.075
0.055
0.165
0.16
0.125
0.13
0.065
0.065
0.015
0.03
-0.035
-0.005
0.005
-0.015
-0.06
-0.02
-0.105
-0.105
-0.11
-0.09
-0.13
-0.165
-0.09
-0.11
-0.105
-0.1
-0.145
-0.185
-0.155
-0.115
-0.155
-0.22
-0.14
-0.19
-0.14
-0.2
-0.23
-0.205
-0.195
-0.215
-0.225
-0.215
-0.17
-0.2
-0.135
-0.22
-0.195
-0.215
-0.115
-0.14
-0.135
-0.165
-0.215
-0.2
-0.225
-0.245
-0.245
-0.18
-0.155
-0.165
-0.175
-0.21
-0.22
-0.21
-0.165
-0.165
-0.23
-0.21
-0.18
-0.21
-0.25
-0.19
-0.135
-0.22
-0.15
-0.165
-0.19
-0.16
-0.175
-0.215
-0.2
-0.215
-0.165
-0.215
-0.195
-0.25
-0.2
-0.11
-0.155
-0.175
-0.2
-0.18
-0.23
-0.15
-0.265
-0.205
-0.195
-0.18
-0.205
-0.185
-0.235
-0.22
-0.165
-0.16
-0.2
-0.15
-0.16
-0.15
-0.185
-0.18
-0.28
-0.21
-0.175
-0.195
-0.17
-0.19
-0.245
-0.19
-0.17
-0.245
-0.185
-0.18
-0.185
-0.205
-0.165
-0.175
-0.26
-0.17
-0.19
-0.205
-0.2
-0.24
-0.195
-0.225
-0.155
-0.14
-0.2
-0.2
-0.21
-0.225
-0.18
-0.14
-0.205
-0.19
-0.145
-0.135
-0.17
-0.155
-0.195
-0.195
-0.215
-0.22
-0.14
-0.175
-0.175
-0.145
-0.21
-0.17
-0.14
-0.085
-0.095
-0.115
-0.12
-0.11
-0.125
-0.135
-0.165
-0.12
-0.125
-0.125
-0.17
-0.15
-0.115
-0.085
-0.18
-0.175
-0.22
-0.275
-0.215
-0.235
-0.205
-0.23
-0.16
-0.2
-0.23
-0.25
-0.235
-0.19
-0.245
-0.23
-0.265
-0.27
-0.21
-0.26
-0.215
-0.195
-0.21
-0.23
-0.245
-0.22
-0.205
-0.205
-0.245
-0.27
-0.175
-0.19
-0.215
-0.265
-0.255
-0.235
-0.245
-0.21
-0.26
-0.23
-0.275
-0.27
-0.27
-0.305
-0.3
-0.32
-0.295
-0.26
-0.205
-0.18
-0.11
0.01
0.165
0.255
0.345
0.42
0.43
0.47
0.41
0.265
0.19
0.04
-0.075
-0.105
-0.28
-0.285
-0.355
-0.43
-0.415
-0.4
-0.38
-0.335
-0.315
-0.315
-0.19
-0.235
-0.22
-0.175
-0.18
-0.195
-0.27
-0.235
-0.235
-0.19
-0.245
-0.23
-0.225
-0.215
-0.235
-0.245
-0.22
-0.23
-0.15
-0.18
-0.17
-0.175
-0.2
-0.15
-0.175
-0.2
-0.2
-0.175
-0.185
-0.205
-0.14
-0.215
-0.225
-0.19
-0.19
-0.23
-0.31
-0.175
-0.085
-0.125
-0.135
-0.155
-0.185
-0.2
-0.155
-0.125
-0.125
-0.145
-0.16
-0.145
-0.18
-0.135
-0.11
-0.12
-0.13
-0.155
-0.13
-0.155
-0.05
-0.11
-0.155
-0.15
-0.12
-0.14
-0.11
-0.06
-0.075
-0.04
-0.08
-0.04
0.0
-0.05
-0.035
0.0
-0.03
0.02
-0.005
-0.02
0.035
0.075
0.09
0.045
0.095
0.075
0.15
0.13
0.115
0.145
0.13
0.125
0.14
0.165
0.115
0.155
0.15
0.185
0.175
0.165
0.16
0.155
0.155
0.155
0.145
0.115
0.12
0.125
0.135
0.11
0.04
-0.035
0.005
0.0
-0.025
-0.035
0.0
-0.035
-0.1
-0.13
-0.11
-0.115
-0.155
-0.17
-0.17
-0.135
-0.145
-0.165
-0.175
-0.19
-0.19
-0.175
-0.165
-0.2
-0.275
-0.21
-0.22
-0.19
-0.185
-0.225
-0.205
-0.2
-0.175
-0.22
-0.19
-0.175
-0.23
-0.25
-0.235
-0.245
-0.205
-0.195
-0.225
-0.295
-0.21
-0.21
-0.215
-0.23
-0.205
-0.175
-0.215
-0.255
-0.235
-0.265
-0.18
-0.29
-0.165
-0.16
-0.21
-0.145
-0.205
-0.19
-0.18
-0.235
-0.215
-0.21
-0.21
-0.185
-0.26
-0.255
-0.24
-0.26
-0.275
-0.17
-0.17
-0.195
-0.205
-0.18
-0.16
-0.115
-0.15
-0.21
-0.23
-0.23
-0.22
-0.235
-0.18
-0.205
-0.2
-0.21
-0.22
-0.22
-0.205
-0.215
-0.215
-0.2
-0.23
-0.195
-0.22
-0.175
-0.19
-0.235
-0.22
-0.2
-0.18
-0.195
-0.19
-0.24
-0.215
-0.22
-0.165
-0.18
-0.115
-0.18
-0.26
-0.21
-0.18
-0.17
-0.21
-0.2
-0.2
-0.195
-0.145
-0.17
-0.145
-0.155
-0.135
-0.155
-0.09
-0.015
-0.12
-0.135
-0.075
-0.135
-0.13
-0.125
-0.105
-0.115
-0.235
-0.185
-0.145
-0.125
-0.155
-0.18
-0.155
-0.165
-0.175
-0.25
-0.21
-0.21
-0.185
-0.205
-0.205
-0.235
-0.235
-0.225
-0.22
-0.27
-0.24
-0.215
-0.16
-0.2
-0.235
-0.24
-0.235
-0.205
-0.275
-0.3
-0.185
-0.245
-0.2
-0.215
-0.25
-0.255
-0.27
-0.26
-0.25
-0.23
-0.24
-0.2
-0.195
-0.275
-0.265
-0.285
-0.2
-0.19
-0.23
-0.245
-0.29
-0.255
-0.22
-0.24
-0.21
-0.115
-0.14
-0.035
0.03
0.115
0.26
0.325
0.36
0.47
0.42
0.305
0.195
0.085
-0.05
-0.15
-0.26
-0.32
-0.49
-0.565
-0.58
-0.515
-0.45
-0.45
-0.4
-0.4
-0.375
-0.285
-0.3
-0.32
-0.26
-0.26
-0.25
-0.2
-0.225
-0.275
-0.225
-0.195
-0.21
-0.24
-0.22
-0.155
-0.2
-0.225
-0.195
-0.18
-0.19
-0.225
-0.225
-0.24
-0.255
-0.25
-0.215
-0.21
-0.23
-0.19
-0.17
-0.215
-0.235
-0.17
-0.165
-0.215
-0.18
-0.22
-0.16
-0.185
-0.185
-0.195
-0.135
-0.13
-0.155
-0.22
-0.195
-0.17
-0.125
-0.125
-0.1
-0.11
-0.175
-0.16
-0.165
-0.13
-0.155
-0.15
-0.095
-0.07
-0.075
-0.055
-0.11
-0.135
-0.105
-0.03
-0.055
-0.005
-0.1
0.015
-0.075
-0.05
-0.03
-0.05
-0.05
0.025
0.045
0.075
0.02
0.09
0.1
0.06
0.105
0.155
0.09
0.09
0.14
0.17
0.145
0.185
0.195
0.19
0.195
0.24
0.21
0.195
0.2
0.175
0.17
0.18
0.11
0.08
0.185
0.19
0.145
0.095
0.12
0.12
0.095
0.05
0.005
-0.025
-0.02
-0.065
-0.03
-0.035
-0.065
-0.09
-0.095
-0.145
-0.155
-0.115
-0.165
-0.22
-0.16
-0.195
-0.17
-0.235
-0.17
-0.21
-0.215
-0.16
-0.19
-0.23
-0.22
-0.24
-0.22
-0.225
-0.205
-0.19
-0.18
-0.195
-0.235
-0.21
-0.22
-0.195
-0.22
-0.25
-0.22
-0.27
-0.21
-0.225
-0.21
-0.15
-0.235
-0.225
-0.23
-0.245
-0.205
-0.21
-0.255
-0.25
-0.175
-0.175
-0.265
-0.25
-0.095
-0.16
-0.24
-0.27
-0.245
-0.215
-0.205
-0.22
-0.235
-0.25
-0.17
-0.17
-0.155
-0.15
-0.21
-0.22
-0.205
-0.215
-0.23
-0.185
-0.18
-0.19
-0.17
-0.225
-0.22
-0.23
-0.245
-0.23
-0.235
-0.14
-0.225
-0.165
-0.19
-0.255
-0.28
-0.16
-0.165
-0.19
-0.195
-0.21
-0.18
-0.18
-0.24
-0.245
-0.245
-0.24
-0.245
-0.22
-0.175
-0.15
-0.22
-0.19
-0.16
-0.235
-0.165
-0.215
-0.24
-0.17
-0.19
-0.15
-0.205
-0.19
-0.17
-0.105
-0.17
-0.135
-0.09
-0.09
-0.135
-0.2
-0.09
-0.12
-0.15
-0.18
-0.19
-0.185
-0.16
-0.195
-0.165
-0.175
-0.235
-0.19
-0.255
-0.25
-0.225
-0.245
-0.235
-0.215
-0.25
-0.205
-0.24
-0.275
-0.235
-0.255
-0.185
-0.24
-0.255
-0.2
-0.16
-0.2
-0.28
-0.245
-0.21
-0.22
-0.185
-0.25
-0.29
-0.26
-0.265
-0.205
-0.24
-0.17
-0.275
-0.26
-0.24
-0.215
-0.18
-0.245
-0.225
-0.195
-0.265
-0.265
-0.295
-0.31
-0.315
-0.315
-0.295
-0.305
-0.21
-0.175
-0.12
-0.035
0.06
0.175
0.22
0.28
0.42
0.495
0.455
0.345
0.24
0.195
0.0
-0.135
-0.19
-0.33
-0.41
-0.465
-0.385
-0.405
-0.415
-0.455
-0.375
-0.37
-0.31
-0.245
-0.215
-0.21
-0.24
-0.23
-0.195
-0.245
-0.235
-0.195
-0.21
-0.255
-0.28
-0.195
-0.21
-0.225
-0.23
-0.26
-0.245
-0.2
-0.165
-0.2
-0.23
-0.285
-0.22
-0.235
-0.235
-0.205
-0.245
-0.21
-0.225
-0.2
-0.22
-0.185
-0.235
-0.255
-0.175
-0.16
-0.155
-0.135
-0.24
-0.245
-0.185
-0.175
-0.15
-0.205
-0.18
-0.2
-0.18
-0.19
-0.215
-0.195
-0.14
-0.195
-0.185
-0.165
-0.185
-0.12
-0.125
-0.17
-0.125
-0.2
-0.145
-0.125
-0.105
-0.17
-0.145
-0.115
-0.09
-0.035
0.025
0.045
0.045
0.055
0.005
0.075
0.1
0.085
0.095
0.09
0.12
0.085
0.085
0.14
0.145
0.1
0.12
0.125
0.16
0.165
0.1
0.145
0.06
0.09
0.08
0.08
0.045
0.075
0.015
-0.005
0.04
0.015
-0.09
-0.05
-0.08
-0.11
-0.14
-0.1
-0.095
-0.235
-0.115
-0.175
-0.175
-0.21
-0.175
-0.185
-0.23
-0.225
-0.22
-0.195
-0.215
-0.225
-0.205
-0.185
-0.22
-0.235
-0.23
-0.24
-0.19
-0.23
-0.27
-0.235
-0.225
-0.195
-0.215
-0.215
-0.205
-0.26
-0.165
-0.175
-0.2
-0.28
-0.29
-0.27
-0.28
-0.25
-0.23
-0.21
-0.245
-0.23
-0.18
-0.175
-0.225
-0.275
-0.21
-0.23
-0.225
-0.22
-0.24
-0.265
-0.235
-0.195
-0.2
-0.195
-0.235
-0.2
-0.215
-0.22
-0.235
-0.205
-0.215
-0.22
-0.2
-0.205
-0.205
-0.185
-0.14
-0.17
-0.245
-0.195
-0.165
-0.19
-0.255
-0.215
-0.22
-0.185
-0.245
-0.23
-0.18
-0.225
-0.19
-0.15
-0.19
-0.21
-0.205
-0.155
-0.225
-0.205
-0.235
-0.23
-0.25
-0.175
-0.21
-0.195
-0.175
-0.15
-0.165
-0.22
-0.21
-0.18
-0.155
-0.17
-0.155
-0.08
-0.115
-0.125
-0.15
-0.175
-0.11
-0.165
-0.13
-0.085
-0.115
-0.085
-0.085
-0.19
-0.24
-0.22
-0.21
-0.19
-0.22
-0.215
-0.2
-0.17
-0.22
-0.235
-0.24
-0.255
-0.245
-0.255
-0.19
-0.16
-0.18
-0.175
-0.25
-0.265
-0.265
-0.255
-0.175
-0.26
-0.28
-0.25
-0.215
-0.16
-0.205
-0.25
-0.245
-0.25
-0.185
-0.255
-0.245
-0.245
-0.265
-0.23
-0.245
-0.285
-0.245
-0.25
-0.22
-0.21
-0.21
-0.225
-0.275
-0.325
-0.315
-0.285
-0.3
-0.33
-0.28
-0.145
-0.13
-0.075
-0.08
0.015
0.24
0.245
0.33
0.41
0.495
0.47
0.31
0.24
0.155
0.005
-0.115
-0.24
-0.355
-0.39
-0.435
-0.41
-0.385
-0.405
-0.345
-0.315
-0.345
-0.26
-0.265
-0.24
-0.22
-0.225
-0.245
-0.26
-0.225
-0.265
-0.23
-0.235
-0.155
-0.16
-0.21
-0.23
-0.32
-0.235
-0.21
-0.16
-0.185
-0.19
-0.215
-0.195
-0.215
-0.225
-0.2
-0.18
-0.17
-0.3
-0.185
-0.205
-0.2
-0.155
-0.2
-0.19
-0.17
-0.2
-0.16
-0.145
-0.19
-0.195
-0.175
-0.18
-0.11
-0.175
-0.205
-0.19
-0.16
-0.145
-0.095
-0.155
-0.17
-0.17
-0.195
-0.175
-0.18
-0.14
-0.16
-0.085
-0.16
-0.155
-0.135
-0.165
-0.095
-0.14
-0.145
-0.1
-0.025
-0.07
-0.095
-0.12
-0.09
-0.09
-0.065
-0.045
0.0
0.035
0.02
0.005
0.025
0.055
0.065
0.09
0.09
0.065
0.025
0.08
0.11
0.14
0.095
0.145
0.13
0.19
0.145
0.155
0.185
0.115
0.095
0.115
0.165
0.15
0.06
0.01
0.115
0.12
0.125
0.08
0.08
-0.02
-0.07
-0.015
-0.02
-0.04
-0.04
-0.075
-0.125
-0.115
-0.08
-0.095
-0.1
-0.155
-0.16
-0.155
-0.18
-0.145
-0.18
-0.16
-0.205
-0.245
-0.185
-0.155
-0.175
-0.175
-0.245
-0.245
-0.22
-0.165
-0.185
-0.22
-0.18
-0.185
-0.265
-0.215
-0.19
-0.22
-0.265
-0.205
-0.16
-0.2
-0.185
-0.21
-0.205
-0.255
-0.275
-0.21
-0.135
-0.145
-0.165
-0.16
-0.185
-0.23
-0.255
-0.215
-0.185
-0.165
-0.16
-0.17
-0.225
-0.25
-0.2
-0.17
-0.235
-0.22
-0.175
-0.225
-0.24
-0.21
-0.205
-0.185
-0.195
-0.175
-0.25
-0.26
-0.205
-0.16
-0.135
-0.185
-0.22
-0.225
-0.205
-0.175
-0.205
-0.265
-0.175
-0.15
-0.195
-0.15
-0.175
-0.24
-0.26
-0.23
-0.255
-0.195
-0.165
-0.16
-0.18
-0.17
-0.185
-0.18
-0.155
-0.245
-0.23
-0.225
-0.23
-0.245
-0.195
-0.185
-0.155
-0.2
-0.22
-0.205
-0.165
-0.19
-0.21
-0.185
-0.155
-0.175
-0.145
-0.18
-0.185
-0.075
-0.1
-0.095
-0.11
-0.125
-0.175
-0.13
-0.13
-0.115
-0.15
-0.15
-0.15
-0.17
-0.19
-0.165
-0.255
-0.21
-0.175
-0.25
-0.2
-0.18
-0.18
-0.23
-0.245
-0.21
-0.21
-0.21
-0.24
-0.26
-0.235
-0.225
-0.225
-0.235
-0.27
-0.265
-0.23
-0.245
-0.23
-0.22
-0.225
-0.23
-0.205
-0.27
-0.27
-0.225
-0.175
-0.185
-0.2
-0.18
-0.195
-0.24
-0.25
-0.23
-0.245
-0.175
-0.2
-0.23
-0.29
-0.36
-0.335
-0.38
-0.285
-0.255
-0.2
-0.155
-0.15
-0.045
0.095
0.16
0.3
0.355
0.475
0.635
0.47
0.35
0.285
0.16
0.01
-0.1
-0.265
-0.34
-0.4
-0.425
-0.395
-0.395
-0.36
-0.295
-0.265
-0.335
-0.315
-0.23
-0.24
-0.285
-0.215
-0.22
-0.205
-0.265
-0.185
-0.195
-0.235
-0.14
-0.155
-0.165
-0.22
-0.23
-0.225
-0.17
-0.25
-0.185
-0.17
-0.19
-0.2
-0.16
-0.16
-0.175
-0.155
-0.22
-0.16
-0.16
-0.21
-0.245
-0.185
-0.16
-0.135
-0.18
-0.235
-0.185
-0.145
-0.14
-0.16
-0.15
-0.215
-0.145
-0.155
-0.18
-0.19
-0.155
-0.21
-0.12
-0.125
-0.13
-0.175
-0.185
-0.16
-0.14
-0.135
-0.07
-0.1
-0.165
-0.055
-0.07
-0.145
-0.06
-0.1
-0.155
-0.15
-0.095
-0.055
-0.06
-0.05
-0.04
-0.025
-0.03
0.04
0.04
0.01
0.035
-0.005
0.035
0.04
0.045
0.05
0.065
0.09
0.12
0.135
0.1
0.105
0.105
0.13
0.155
0.145
0.13
0.17
0.135
0.155
0.135
0.15
0.14
0.135
0.145
0.175
0.15
0.07
0.11
0.035
0.105
0.05
0.005
-0.02
-0.05
-0.09
-0.04
-0.01
-0.015
-0.075
-0.08
-0.1
-0.095
-0.13
-0.14
-0.155
-0.14
-0.105
-0.165
-0.1
-0.2
-0.195
-0.18
-0.195
-0.25
-0.195
-0.17
-0.13
-0.205
-0.19
-0.125
-0.205
-0.26
-0.19
-0.18
-0.125
-0.19
-0.23
-0.13
-0.135
-0.17
-0.195
-0.175
-0.225
-0.27
-0.15
-0.24
-0.285
-0.14
-0.175
-0.15
-0.21
-0.255
-0.185
-0.24
-0.17
-0.14
-0.205
-0.18
-0.13
-0.17
-0.19
-0.24
-0.2
-0.215
-0.135
-0.17
-0.235
-0.19
-0.175
-0.17
-0.18
-0.275
-0.185
-0.14
-0.155
-0.155
-0.255
-0.15
-0.175
-0.175
-0.205
-0.255
-0.22
-0.22
-0.18
-0.175
-0.185
-0.155
-0.26
-0.3
-0.165
-0.195
-0.25
-0.23
-0.25
-0.175
-0.18
-0.225
-0.235
-0.21
-0.205
-0.21
-0.205
-0.24
-0.185
-0.215
-0.235
-0.215
-0.23
-0.26
-0.23
-0.23
-0.18
-0.155
-0.205
-0.235
-0.22
-0.225
-0.2
-0.28
-0.225
-0.225
-0.22
-0.135
-0.205
-0.135
-0.125
-0.155
-0.17
-0.145
-0.145
-0.165
-0.115
-0.16
-0.12
-0.175
-0.205
-0.17
-0.19
-0.235
-0.22
-0.175
-0.205
-0.195
-0.235
-0.22
-0.275
-0.245
-0.265
-0.245
-0.255
-0.26
-0.2
-0.24
-0.25
-0.265
-0.23
-0.32
-0.205
-0.215
-0.275
-0.285
-0.325
-0.2
-0.27
-0.245
-0.245
-0.255
-0.28
-0.26
-0.235
-0.255
-0.22
-0.23
-0.29
-0.275
-0.245
-0.2
-0.19
-0.195
-0.25
-0.295
-0.27
-0.215
-0.31
-0.32
-0.37
-0.415
-0.36
-0.37
-0.315
-0.285
-0.285
-0.13
0.065
0.105
0.22
0.27
0.34
0.425
0.575
0.58
0.45
0.3
0.22
0.035
-0.065
-0.165
-0.335
-0.345
-0.365
-0.48
-0.51
-0.425
-0.37
-0.315
-0.25
-0.235
-0.255
-0.29
-0.305
-0.285
-0.265
-0.28
-0.3
-0.265
-0.175
-0.235
-0.235
-0.21
-0.225
-0.27
-0.28
-0.225
-0.29
-0.2
-0.2
-0.175
-0.195
-0.225
-0.215
-0.185
-0.225
-0.25
-0.235
-0.23
-0.23
-0.215
-0.17
-0.2
-0.195
-0.185
-0.21
-0.24
-0.185
-0.225
-0.195
-0.17
-0.185
-0.23
-0.15
-0.17
-0.185
-0.245
-0.235
-0.245
-0.19
-0.145
-0.165
-0.17
-0.125
-0.14
-0.155
-0.15
-0.145
-0.185
-0.235
-0.14
-0.105
-0.075
-0.105
-0.075
-0.13
-0.125
-0.135
-0.06
-0.085
-0.1
-0.11
-0.095
-0.05
0.035
-0.04
0.02
-0.03
0.03
0.04
0.075
0.025
-0.005
0.055
0.02
0.11
0.115
0.095
0.09
0.14
0.185
0.11
0.11
0.11
0.13
0.18
0.175
0.21
0.125
0.13
0.045
0.025
0.235
0.155
0.07
0.085
0.095
0.07
0.055
-0.005
0.05
-0.015
-0.08
0.005
-0.035
-0.065
-0.105
-0.115
-0.155
-0.145
-0.075
-0.185
-0.17
-0.13
-0.165
-0.135
-0.17
-0.155
-0.155
-0.15
-0.15
-0.16
-0.22
-0.205
-0.245
-0.23
-0.225
-0.195
-0.235
-0.18
-0.195
-0.16
-0.225
-0.195
-0.215
-0.245
-0.18
-0.17
-0.17
-0.215
-0.27
-0.265
-0.205
-0.225
-0.205
-0.25
-0.25
-0.16
-0.16
-0.17
-0.22
-0.175
-0.18
-0.165
-0.25
-0.16
-0.23
-0.17
-0.15
-0.185
-0.225
-0.15
-0.19
-0.245
-0.165
-0.175
-0.21
-0.17
-0.155
-0.195
-0.205
-0.17
-0.235
-0.215
-0.18
-0.215
-0.17
-0.23
-0.21
-0.195
-0.18
-0.18
-0.15
-0.2
-0.225
-0.195
-0.17
-0.135
-0.15
-0.17
-0.22
-0.225
-0.165
-0.23
-0.195
-0.2
-0.22
-0.2
-0.21
-0.165
-0.12
-0.195
-0.155
-0.21
-0.225
-0.235
-0.19
-0.11
-0.095
-0.155
-0.18
-0.215
-0.165
-0.145
-0.185
-0.11
-0.165
-0.21
-0.14
-0.185
-0.175
-0.145
-0.155
-0.115
-0.105
-0.075
-0.105
-0.085
-0.1
-0.135
-0.085
-0.035
-0.015
-0.085
-0.13
-0.105
-0.165
-0.125
-0.1
-0.14
-0.12
-0.185
-0.265
-0.2
-0.155
-0.2
-0.215
-0.18
-0.21
-0.23
-0.215
-0.165
-0.215
-0.24
-0.235
-0.22
-0.275
-0.26
-0.15
-0.19
-0.235
-0.265
-0.225
-0.235
-0.265
-0.21
-0.18
-0.215
-0.19
-0.2
-0.195
-0.185
-0.21
-0.215
-0.23
-0.22
-0.19
-0.2
-0.225
-0.2
-0.23
-0.265
-0.26
-0.315
-0.33
-0.31
-0.31
-0.335
-0.315
-0.27
-0.175
-0.12
0.005
0.19
0.235
0.295
0.375
0.515
0.645
0.65
0.485
0.415
0.315
0.145
-0.07
-0.205
-0.195
-0.34
-0.375
-0.36
-0.35
-0.34
-0.365
-0.32
-0.27
-0.25
-0.235
-0.225
-0.2
-0.21
-0.18
-0.21
-0.275
-0.16
-0.225
-0.26
-0.22
-0.21
-0.215
-0.26
-0.205
-0.2
-0.22
-0.165
-0.195
-0.16
-0.2
-0.215
-0.185
-0.165
-0.12
-0.195
-0.245
-0.18
-0.18
-0.24
-0.215
-0.115
-0.17
-0.155
-0.19
-0.205
-0.115
-0.2
-0.135
-0.14
-0.175
-0.195
-0.17
-0.16
-0.19
-0.175
-0.22
-0.17
-0.1
-0.215
-0.23
-0.14
-0.085
-0.16
-0.15
-0.13
-0.14
-0.14
-0.135
-0.08
-0.115
-0.09
-0.1
-0.11
-0.14
-0.185
-0.095
-0.005
-0.065
-0.075
-0.04
0.02
-0.065
-0.015
0.075
-0.015
-0.04
0.02
0.055
0.035
0.025
0.035
0.065
0.13
0.175
0.12
0.085
0.075
0.08
0.045
0.12
0.18
0.15
0.165
0.14
0.19
0.14
0.15
0.135
0.165
0.165
0.115
0.115
0.135
0.155
0.025
0.0
0.075
0.065
-0.005
-0.035
-0.01
-0.045
-0.05
-0.045
-0.1
-0.065
-0.065
-0.115
-0.13
-0.155
-0.13
-0.16
-0.185
-0.225
-0.085
-0.14
-0.145
-0.235
-0.12
-0.165
-0.2
-0.165
-0.155
-0.175
-0.255
-0.21
-0.17
-0.19
-0.175
-0.195
-0.205
-0.19
-0.18
-0.225
-0.23
-0.21
-0.275
-0.2
-0.155
-0.15
-0.165
-0.26
-0.21
-0.22
-0.22
-0.2
-0.16
-0.23
-0.225
-0.185
-0.215
-0.185
-0.23
-0.17
-0.2
-0.215
-0.235
-0.2
-0.2
-0.185
-0.19
-0.245
-0.175
-0.16
-0.18
-0.22
-0.175
-0.22
-0.22
-0.185
-0.085
-0.19
-0.27
-0.24
-0.2
-0.225
-0.22
-0.22
-0.21
-0.195
-0.185
-0.16
-0.24
-0.215
-0.28
-0.22
-0.22
-0.165
-0.235
-0.23
-0.23
-0.22
-0.18
-0.235
-0.175
-0.2
-0.19
-0.235
-0.21
-0.24
-0.195
-0.19
-0.225
-0.21
-0.18
-0.175
-0.22
-0.265
-0.24
-0.205
-0.27
-0.18
-0.215
-0.225
-0.155
-0.195
-0.18
-0.16
-0.16
-0.17
-0.15
-0.19
-0.195
-0.17
-0.13
-0.15
-0.1
-0.18
-0.15
-0.105
-0.11
-0.08
-0.065
-0.135
-0.18
-0.045
0.005
-0.075
-0.105
-0.16
-0.16
-0.19
-0.19
-0.155
-0.165
-0.17
-0.205
-0.23
-0.175
-0.225
-0.25
-0.18
-0.22
-0.23
-0.18
-0.18
-0.195
-0.21
-0.225
-0.24
-0.21
-0.23
-0.235
-0.155
-0.2
-0.22
-0.18
-0.215
-0.165
-0.195
-0.21
-0.24
-0.225
-0.195
-0.22
-0.19
-0.18
-0.22
-0.195
-0.17
-0.165
-0.19
-0.16
-0.215
-0.19
-0.225
-0.3
-0.3
-0.295
-0.305
-0.26
-0.25
-0.225
-0.145
-0.095
0.01
0.22
0.325
0.44
0.49
0.58
0.635
0.665
0.545
0.415
0.355
0.16
0.015
-0.105
-0.25
-0.32
-0.43
-0.375
-0.295
-0.29
-0.28
-0.3
-0.17
-0.185
-0.22
-0.2
-0.175
-0.185
-0.175
-0.205
-0.145
-0.165
-0.13
-0.155
-0.21
-0.16
-0.18
-0.165
-0.17
-0.125
-0.17
-0.16
-0.17
-0.135
-0.105
-0.155
-0.13
-0.165
-0.185
-0.16
-0.125
-0.155
-0.15
-0.125
-0.115
-0.11
-0.155
-0.115
-0.14
-0.13
-0.07
-0.095
-0.125
-0.115
-0.14
-0.1
-0.105
-0.06
-0.15
-0.135
-0.135
-0.13
-0.055
-0.135
-0.07
-0.085
-0.095
-0.13
-0.085
-0.085
-0.03
-0.04
-0.055
-0.11
-0.07
-0.055
-0.025
-0.055
-0.045
-0.06
-0.01
0.075
0.025
0.005
0.045
0.09
0.04
0.015
0.035
0.07
0.06
0.085
0.105
0.045
0.04
0.175
0.17
0.17
0.125
0.145
0.2
0.2
0.16
0.185
0.205
0.23
0.195
0.21
0.2
0.195
0.275
0.23
0.2
0.205
0.19
0.19
0.14
0.09
0.205
0.055
0.09
0.095
0.035
0.07
0.12
0.06
0.05
-0.01
-0.015
-0.06
-0.035
0.005
-0.015
-0.03
-0.155
-0.075
-0.105
-0.17
-0.085
-0.12
-0.145
-0.15
-0.135
-0.145
-0.13
-0.18
-0.18
-0.17
-0.175
-0.105
-0.2
-0.195
-0.115
-0.12
-0.105
-0.17
-0.165
-0.17
-0.15
-0.195
-0.145
-0.13
-0.13
-0.17
-0.165
-0.155
-0.175
-0.135
-0.165
-0.165
-0.225
-0.22
-0.07
-0.14
-0.125
-0.215
-0.105
-0.1
-0.185
-0.24
-0.18
-0.09
-0.145
-0.145
-0.18
-0.155
-0.2
-0.205
-0.16
-0.17
-0.165
-0.18
-0.155
-0.14
-0.16
-0.15
-0.18
-0.195
-0.165
-0.135
-0.195
-0.175
-0.14
-0.155
-0.175
-0.19
-0.175
-0.16
-0.175
-0.195
-0.18
-0.095
-0.17
-0.185
-0.155
-0.13
-0.125
-0.24
-0.215
-0.185
-0.155
-0.16
-0.15
-0.135
-0.19
-0.165
-0.155
-0.16
-0.145
-0.115
-0.215
-0.125
-0.125
-0.17
-0.175
-0.12
-0.12
-0.165
-0.155
-0.135
-0.16
-0.135
-0.055
-0.105
-0.105
-0.055
-0.075
-0.125
-0.08
-0.09
-0.075
-0.08
-0.115
-0.105
-0.135
-0.145
-0.165
-0.165
-0.215
-0.17
-0.19
-0.195
-0.2
-0.2
-0.17
-0.17
-0.195
-0.22
-0.16
-0.175
-0.195
-0.17
-0.215
-0.165
-0.145
-0.185
-0.165
-0.24
-0.2
-0.19
-0.155
-0.2
-0.185
-0.24
-0.265
-0.205
-0.18
-0.18
-0.22
-0.225
-0.17
-0.145
-0.145
-0.175
-0.145
-0.195
-0.24
-0.25
-0.22
-0.17
-0.21
-0.3
-0.25
-0.27
-0.235
-0.285
-0.32
-0.29
-0.155
-0.1
0.055
0.09
0.21
0.27
0.34
0.42
0.445
0.445
0.41
0.35
0.235
0.045
-0.07
-0.175
-0.26
-0.31
-0.465
-0.5
-0.465
-0.415
-0.355
-0.375
-0.315
-0.285
-0.28
-0.2
-0.23
-0.21
-0.17
-0.29
-0.25
-0.175
-0.2
-0.22
-0.22
-0.175
-0.175
-0.19
-0.225
-0.175
-0.165
-0.18
-0.235
-0.255
-0.195
-0.14
-0.165
-0.205
-0.195
-0.155
-0.12
-0.18
-0.15
-0.205
-0.18
-0.195
-0.17
-0.145
-0.13
-0.185
-0.205
-0.145
-0.15
-0.175
-0.125
-0.105
-0.16
-0.18
-0.18
-0.16
-0.135
-0.085
-0.135
-0.185
-0.145
-0.165
-0.17
-0.11
-0.14
-0.165
-0.13
-0.085
-0.12
-0.12
-0.1
-0.065
-0.13
-0.1
-0.06
-0.07
-0.05
-0.065
-0.04
-0.06
-0.08
-0.03
-0.02
-0.05
0.03
0.03
0.045
0.065
0.07
0.065
0.115
0.085
0.125
0.105
0.085
0.17
0.18
0.175
0.165
0.11
0.15
0.195
0.225
0.175
0.225
0.195
0.215
0.21
0.21
0.15
0.095
0.15
0.13
0.175
0.165
0.105
0.04
0.01
0.015
0.025
0.035
-0.035
-0.04
-0.04
-0.015
-0.065
-0.115
-0.115
-0.15
-0.035
-0.065
-0.165
-0.13
-0.13
-0.13
-0.145
-0.11
-0.165
-0.21
-0.175
-0.15
-0.21
-0.195
-0.175
-0.16
-0.195
-0.18
-0.145
-0.165
-0.155
-0.135
-0.15
-0.17
-0.17
-0.225
-0.235
-0.225
-0.205
-0.21
-0.24
-0.165
-0.16
-0.195
-0.165
-0.14
-0.205
-0.235
-0.25
-0.18
-0.15
-0.175
-0.185
-0.2
-0.215
-0.13
-0.205
-0.21
-0.17
-0.225
-0.225
-0.165
-0.155
-0.155
-0.145
-0.19
-0.13
-0.15
-0.18
-0.235
-0.205
-0.165
-0.19
-0.17
-0.235
-0.255
-0.155
-0.15
-0.14
-0.15
-0.145
-0.215
-0.125
-0.15
-0.15
-0.14
-0.13
-0.2
-0.23
-0.22
-0.145
-0.2
-0.185
-0.14
-0.255
-0.16
-0.18
-0.17
-0.145
-0.115
-0.17
-0.185
-0.165
-0.175
-0.15
-0.145
-0.13
-0.13
-0.15
-0.16
-0.14
-0.135
-0.125
-0.205
-0.13
-0.07
-0.09
-0.165
-0.12
-0.065
-0.045
-0.05
-0.075
-0.18
-0.085
-0.06
-0.055
-0.135
-0.12
-0.135
-0.16
-0.08
-0.09
-0.16
-0.17
-0.165
-0.185
-0.13
-0.16
-0.195
-0.19
-0.15
-0.15
-0.21
-0.21
-0.15
-0.17
-0.16
-0.14
-0.175
-0.185
-0.16
-0.15
-0.145
-0.16
-0.22
-0.185
-0.23
-0.15
-0.14
-0.17
-0.165
-0.18
-0.22
-0.165
-0.15
-0.155
-0.13
-0.155
-0.195
-0.19
-0.145
-0.18
-0.18
-0.1
-0.13
-0.225
-0.285
-0.285
-0.275
-0.25
-0.19
-0.105
-0.105
-0.05
0.04
0.145
0.255
0.36
0.43
0.455
0.53
0.52
0.42
0.31
0.275
0.15
0.02
-0.15
-0.27
-0.29
-0.305
-0.355
-0.335
-0.235
-0.265
-0.18
-0.17
-0.175
-0.155
-0.17
-0.19
-0.1
-0.115
-0.12
-0.145
-0.125
-0.09
-0.155
-0.15
-0.07
-0.095
-0.12
-0.125
-0.12
-0.1
-0.105
-0.13
-0.07
-0.09
-0.085
-0.135
-0.115
-0.09
-0.095
-0.065
-0.105
-0.08
-0.065
-0.035
-0.115
-0.115
-0.065
-0.035
-0.09
-0.035
-0.03
-0.08
-0.035
-0.045
-0.03
-0.075
-0.01
-0.025
-0.085
-0.06
-0.035
-0.025
-0.045
-0.025
-0.02
0.02
-0.02
0.03
-0.015
0.025
0.01
0.0
0.02
-0.02
0.0
-0.005
0.1
0.1
0.01
-0.005
0.04
0.12
0.135
0.08
0.095
0.105
0.155
0.1
0.155
0.155
0.155
0.175
0.16
0.21
0.26
0.235
0.215
0.205
0.225
0.285
0.24
0.285
0.3
0.29
0.23
0.31
0.31
0.35
0.295
0.325
0.355
0.3
0.31
0.35
0.345
0.305
0.255
0.26
0.175
0.205
0.185
0.11
0.15
0.285
0.21
0.155
0.125
0.13
0.12
0.155
0.035
0.015
0.105
0.1
0.07
0.065
0.04
0.01
0.04
0.05
0.08
0.03
0.005
0.005
0.04
-0.005
0.0
0.005
0.135
0.11
0.04
0.04
0.05
0.04
0.01
0.015
0.065
0.045
0.065
0.07
0.125
0.09
0.08
0.07
0.025
0.02
0.07
0.05
0.06
0.1
0.075
0.04
0.115
0.115
0.095
0.055
0.12
0.085
0.1
0.135
0.095
0.09
0.125
0.115
0.135
0.115
0.13
0.095
0.065
0.07
0.06
0.1
0.095
0.125
0.12
0.135
0.125
0.155
0.11
0.18
0.22
0.13
0.07
0.115
0.105
0.11
0.16
0.13
0.145
0.135
0.105
0.135
0.11
0.155
0.145
0.195
0.185
0.17
0.175
0.095
0.1
0.17
0.17
0.195
0.175
0.16
0.135
0.16
0.175
0.175
0.17
0.175
0.185
0.135
0.17
0.155
0.17
0.17
0.225
0.18
0.185
0.18
0.205
0.19
0.185
0.175
0.175
0.245
0.225
0.21
0.235
0.275
0.245
0.235
0.28
0.32
0.305
0.28
0.29
0.235
0.26
0.225
0.255
0.23
0.215
0.23
0.27
0.225
0.18
0.22
0.24
0.215
0.205
0.155
0.195
0.225
0.235
0.175
0.205
0.195
0.205
0.185
0.19
0.21
0.245
0.15
0.255
0.19
0.18
0.24
0.24
0.205
0.225
0.18
0.21
0.23
0.255
0.19
0.195
0.265
0.235
0.255
0.27
0.215
0.23
0.23
0.285
0.255
0.255
0.205
0.205
0.2
0.14
0.15
0.125
0.19
0.205
0.305
0.33
0.43
0.5
0.625
0.7
0.79
0.885
0.945
0.965
0.895
0.765
0.76
0.5
0.475
0.37
0.245
0.185
0.1
0.11
0.135
0.14
0.125
0.19
0.24
0.275
0.22
0.295
0.29
0.28
0.3
0.39
0.32
0.32
0.305
0.355
0.335
0.335
0.365
0.335
0.335
0.275
0.28
0.335
0.31
0.325
0.36
0.36
0.35
0.34
0.325
0.385
0.335
0.335
0.37
0.33
0.375
0.36
0.365
0.41
0.39
0.385
0.37
0.405
0.405
0.385
0.375
0.435
0.415
0.43
0.37
0.39
0.415
0.425
0.35
0.38
0.48
0.425
0.405
0.46
0.395
0.425
0.5
0.515
0.46
0.44
0.45
0.535
0.515
0.46
0.48
0.485
0.505
0.47
0.545
0.565
0.54
0.625
0.585
0.565
0.575
0.615
0.565
0.655
0.61
0.605
0.67
0.67
0.68
0.715
0.68
0.7
0.67
0.69
0.745
0.75
0.8
0.79
0.775
0.75
0.715
0.83
0.81
0.835
0.775
0.73
0.74
0.79
0.77
0.755
0.765
0.645
0.665
0.655
0.67
0.69
0.72
0.65
0.625
0.595
0.55
0.595
0.575
0.575
0.555
0.555
0.545
0.585
0.515
0.45
0.45
0.555
0.595
0.545
0.515
0.47
0.475
0.525
0.57
0.54
0.55
0.55
0.525
0.53
0.51
0.51
0.505
0.5
0.495
0.57
0.57
0.505
0.51
0.525
0.53
0.515
0.54
0.55
0.5
0.505
0.565
0.595
0.585
0.515
0.485
0.5
0.585
0.59
0.49
0.52
0.595
0.6
0.555
0.495
0.59
0.58
0.545
0.55
0.575
0.55
0.55
0.58
0.515
0.595
0.61
0.58
0.59
0.555
0.51
0.58
0.595
0.57
0.565
0.545
0.575
0.605
0.61
0.57
0.53
0.57
0.6
0.585
0.57
0.63
0.55
0.605
0.63
0.58
0.59
0.62
0.635
0.575
0.595
0.58
0.64
0.625
0.575
0.575
0.655
0.6
0.595
0.605
0.58
0.62
0.615
0.635
0.59
0.64
0.63
0.65
0.64
0.56
0.62
0.615
0.62
0.62
0.675
0.645
0.62
0.635
0.685
0.64
0.615
0.595
0.6
0.625
0.62
0.64
0.63
0.64
0.68
0.66
0.65
0.595
0.595
0.675
0.655
0.645
0.615
0.715
0.66
0.59
0.645
0.665
0.655
0.71
0.665
0.635
0.67
0.7
0.715
0.705
0.645
0.655
0.72
0.655
0.705
0.725
0.75
0.72
0.75
0.71
0.715
0.685
0.725
0.78
0.705
0.685
0.735
0.75
0.69
0.705
0.7
0.675
0.64
0.685
0.695
0.695
0.665
0.645
0.645
0.635
0.715
0.645
0.68
0.71
0.66
0.645
0.67
0.68
0.645
0.66
0.68
0.615
0.63
0.72
0.68
0.625
0.63
0.715
0.69
0.705
0.665
0.67
0.705
0.695
0.625
0.68
0.68
0.655
0.71
0.68
0.665
0.695
0.7
0.66
0.64
0.64
0.59
0.54
0.62
0.6
0.685
0.82
0.855
0.875
1.015
1.075
1.175
1.28
1.365
1.36
1.39
1.325
1.195
1.1
0.87
0.805
0.68
0.545
0.59
0.615
0.535
0.54
0.62
0.58
0.61
0.715
0.695
0.7
0.745
0.75
0.685
0.675
0.695
0.725
0.705
0.725
0.71
0.71
0.72
0.775
0.755
0.745
0.765
0.735
0.775
0.775
0.775
0.815
0.705
0.825
0.79
0.72
0.72
0.71
0.84
0.775
0.77
0.81
0.77
0.75
0.825
0.745
0.765
0.795
0.83
0.815
0.775
0.77
0.785
0.745
0.78
0.775
0.755
0.77
0.805
0.815
0.8
0.825
0.815
0.825
0.775
0.795
0.795
0.795
0.87
0.875
0.87
0.86
0.84
0.865
0.815
0.825
0.905
0.885
0.955
0.87
0.9
0.825
0.93
0.955
0.925
0.935
0.97
1.0
0.96
0.985
0.98
0.965
1.03
1.04
1.01
1.095
1.04
1.055
1.1
1.115
1.085
1.035
1.085
1.12
1.085
1.105
1.085
1.115
1.11
1.085
1.11
1.1
1.09
1.065
1.025
1.08
1.09
1.105
1.065
1.01
0.99
1.055
0.97
0.91
0.89
0.97
0.91
0.895
0.895
0.915
0.885
0.845
0.835
0.855
0.82
0.845
0.9
0.82
0.795
0.815
0.815
0.83
0.85
0.81
0.845
0.765
0.8
0.87
0.84
0.855
0.825
0.78
0.775
0.785
0.865
0.885
0.83
0.8
0.82
0.77
0.825
0.805
0.845
0.775
0.8
0.845
0.865
0.765
0.845
0.815
0.825
0.835
0.8
0.845
0.85
0.83
0.85
0.81
0.795
0.835
0.86
0.8
0.83
0.805
0.835
0.84
0.84
0.895
0.805
0.81
0.815
0.855
0.885
0.825
0.81
0.83
0.865
0.845
0.815
0.8
0.82
0.85
0.87
0.85
0.84
0.85
0.845
0.895
0.84
0.81
0.885
0.8
0.84
0.815
0.825
0.815
0.89
0.885
0.85
0.825
0.85
0.875
0.84
0.82
0.805
0.84
0.85
0.83
0.86
0.9
0.86
0.8
0.885
0.88
0.89
0.91
0.945
0.885
0.835
0.785
0.875
0.855
0.885
0.865
0.82
0.87
0.795
0.965
0.86
0.85
0.925
0.87
0.855
0.9
0.9
0.865
0.855
0.865
0.905
0.905
0.885
0.9
0.895
0.84
0.815
0.885
0.875
0.85
0.925
0.895
0.895
0.88
0.835
0.88
0.915
0.855
0.84
0.89
0.845
0.88
0.875
0.895
0.915
0.885
0.9
0.865
0.87
0.9
0.91
0.9
0.875
0.895
0.895
0.945
0.89
0.865
0.905
0.94
0.93
0.975
0.98
0.975
0.965
0.97
0.95
0.91
0.98
0.985
0.945
0.915
0.985
0.94
0.955
0.955
0.945
0.955
0.925
0.885
0.83
0.885
0.85
0.89
0.9
0.87
0.855
0.835
0.85
0.845
0.865
0.91
0.91
0.85
0.885
0.94
0.925
0.83
0.845
0.885
0.93
0.89
0.845
0.925
0.905
0.925
0.925
0.935
0.895
0.855
0.87
0.885
0.9
0.885
0.92
0.905
0.845
0.91
0.885
0.815
0.765
0.81
0.825
0.87
0.87
0.89
0.925
0.995
1.055
1.27
1.355
1.335
1.415
1.455
1.51
1.605
1.61
1.395
1.34
1.225
1.08
1.0
0.92
0.875
0.805
0.825
0.73
0.735
0.755
0.865
0.87
0.905
0.92
0.93
0.915
0.955
0.915
0.915
0.925
0.96
0.93
0.9
0.94
0.95
0.955
0.91
0.915
1.01
0.945
0.99
0.965
0.97
0.97
0.875
0.985
0.98
0.965
0.975
0.995
0.99
1.005
0.935
0.965
0.96
0.96
0.96
1.055
0.99
1.05
1.055
1.0
1.035
1.01
1.06
1.035
1.025
0.965
0.965
1.035
0.975
1.015
1.02
1.07
1.05
1.02
0.97
1.05
1.03
1.07
1.1
1.075
1.075
1.04
1.055
1.05
1.1
1.105
1.115
1.16
1.11
1.145
1.19
1.165
1.1
1.17
1.15
1.16
1.16
1.215
1.23
1.245
1.21
1.19
1.315
1.265
1.265
1.3
1.305
1.34
1.275
1.33
1.335
1.31
1.31
1.41
1.41
1.395
1.375
1.4
1.38
1.385
1.38
1.4
1.345
1.35
1.36
1.365
1.355
1.35
1.34
1.31
1.31
1.285
1.23
1.24
1.235
1.165
1.165
1.185
1.185
1.185
1.195
1.14
1.06
1.14
1.14
1.07
1.125
1.105
1.08
1.04
1.14
1.155
1.075
1.045
1.065
1.09
1.1
1.125
1.08
1.06
1.03
0.94
1.035
1.11
1.14
1.125
1.095
1.075
1.07
1.075
1.035
1.065
1.045
1.11
1.09
1.095
1.095
1.015
1.03
1.08
1.06
1.01
1.01
1.1
1.11
1.075
1.07
1.12
1.03
1.04
1.055
1.035
1.095
1.025
1.09
1.075
1.06
1.085
1.035
1.04
1.11
1.12
1.04
0.995
1.07
1.045
1.09
1.1
1.055
1.06
1.06
1.1
1.065
1.055
1.075
1.075
1.075
1.05
1.08
1.125
1.08
1.075
1.05
1.05
1.025
1.1
1.095
1.05
1.055
1.095
1.03
1.04
1.015
1.1
1.065
1.04
1.085
1.09
1.055
1.095
1.075
1.09
1.075
1.07
1.075
1.09
1.085
1.1
1.065
1.045
1.05
1.06
1.085
1.065
1.04
1.065
1.095
1.11
1.09
1.08
1.045
1.035
1.025
1.065
0.99
1.115
1.105
1.08
1.075
1.07
1.065
1.14
1.045
1.11
1.1
1.075
1.1
1.08
0.985
1.015
1.105
1.105
1.04
1.09
1.1
1.095
1.135
1.045
1.075
1.085
1.115
1.045
1.095
1.145
1.155
1.13
1.105
1.07
1.085
1.215
1.18
1.155
1.145
1.185
1.15
1.135
1.21
1.155
1.11
1.075
1.125
1.115
1.105
1.1
1.1
1.11
1.05
1.05
1.07
1.095
1.075
1.03
1.1
1.07
1.055
1.04
1.11
1.085
1.03
1.0
1.085
1.05
1.025
1.005
1.055
1.075
1.075
0.98
1.05
1.065
1.065
1.04
1.055
1.065
1.07
1.01
1.065
1.04
1.065
1.105
1.05
1.06
1.015
1.055
1.0
1.01
1.01
0.965
0.95
0.97
1.005
1.055
1.12
1.18
1.35
1.495
1.525
1.6
1.635
1.735
1.805
1.755
1.625
1.56
1.415
1.26
1.13
1.08
0.98
0.88
0.82
0.865
0.905
0.98
0.93
0.965
1.035
1.08
1.015
1.035
1.065
1.02
0.985
1.11
1.11
1.09
1.075
1.105
1.09
1.11
1.025
1.065
1.11
1.08
1.095
1.025
1.015
1.09
1.075
1.05
1.095
1.09
1.13
1.115
1.03
1.02
1.035
1.135
1.12
1.135
1.075
1.165
1.115
1.105
1.14
1.07
1.085
1.055
1.1
1.105
1.105
1.145
1.11
1.175
1.155
1.15
1.145
1.115
1.135
1.175
1.19
1.12
1.15
1.205
1.17
1.165
1.15
1.16
1.185
1.205
1.15
1.19
1.175
1.165
1.22
1.275
1.23
1.29
1.25
1.235
1.29
1.275
1.31
1.28
1.305
1.325
1.38
1.35
1.385
1.365
1.4
1.42
1.42
1.425
1.495
1.485
1.405
1.42
1.45
1.455
1.46
1.435
1.45
1.46
1.525
1.495
1.48
1.5
1.445
1.43
1.41
1.405
1.405
1.4
1.48
1.35
1.405
1.385
1.295
1.31
1.29
1.345
1.25
1.235
1.225
1.25
1.215
1.2
1.2
1.255
1.215
1.17
1.14
1.15
1.18
1.195
1.16
1.15
1.11
1.125
1.195
1.175
1.145
1.15
1.135
1.13
1.135
1.1
1.1
1.175
1.195
1.18
1.145
1.2
1.125
1.13
1.135
1.145
1.095
1.1
1.18
1.13
1.13
1.195
1.17
1.165
1.15
1.155
1.165
1.15
1.155
1.135
1.2
1.2
1.16
1.2
1.14
1.17
1.145
1.145
1.205
1.16
1.11
1.09
1.25
1.19
1.22
1.165
1.19
1.2
1.14
1.145
1.18
1.17
1.14
1.17
1.19
1.175
1.165
1.14
1.17
1.16
1.16
1.2
1.165
1.185
1.2
1.175
1.19
1.16
1.15
1.16
1.13
1.165
1.225
1.15
1.165
1.185
1.185
1.2
1.145
1.195
1.215
1.185
1.215
1.205
1.18
1.185
1.15
1.18
1.195
1.19
1.185
1.195
1.19
1.195
1.19
1.21
1.19
1.235
1.19
1.185
1.18
1.2
1.195
1.16
1.16
1.185
1.2
1.16
1.19
1.195
1.22
1.2
1.22
1.185
1.23
1.23
1.235
1.195
1.19
1.21
1.205
1.14
1.235
1.21
1.285
1.265
1.2
1.215
1.28
1.305
1.275
1.28
1.305
1.315
1.31
1.295
1.29
1.295
1.295
1.265
1.265
1.295
1.305
1.215
1.235
1.285
1.27
1.235
1.175
1.22
1.195
1.205
1.18
1.19
1.175
1.18
1.175
1.17
1.175
1.22
1.24
1.18
1.17
1.155
1.155
1.165
1.13
1.28
1.22
1.24
1.255
1.15
1.195
1.18
1.155
1.15
1.205
1.19
1.19
1.2
1.205
1.145
1.195
1.23
1.24
1.235
1.175
1.165
1.095
1.11
1.145
1.07
1.095
1.12
1.17
1.225
1.345
1.42
1.54
1.635
1.76
1.84
1.96
2.07
1.985
1.85
1.735
1.64
1.45
1.35
1.22
1.145
1.0
0.88
0.86
0.9
0.945
1.005
1.0
0.98
1.085
1.12
1.12
1.095
1.135
1.105
1.21
1.235
1.19
1.17
1.18
1.185
1.175
1.205
1.215
1.2
1.19
1.165
1.18
1.23
1.175
1.175
1.245
1.3
1.245
1.22
1.215
1.235
1.24
1.22
1.19
1.205
1.19
1.205
1.23
1.25
1.215
1.235
1.26
1.245
1.18
1.225
1.25
1.235
1.19
1.235
1.295
1.34
1.215
1.24
1.24
1.245
1.19
1.325
1.275
1.295
1.29
1.28
1.28
1.3
1.295
1.35
1.295
1.335
1.33
1.31
1.37
1.395
1.375
1.325
1.395
1.385
1.35
1.37
1.425
1.46
1.43
1.45
1.495
1.46
1.48
1.48
1.455
1.54
1.53
1.55
1.53
1.545
1.57
1.59
1.535
1.595
1.6
1.57
1.605
1.64
1.63
1.575
1.57
1.6
1.67
1.61
1.565
1.59
1.64
1.575
1.5
1.455
1.495
1.515
1.485
1.45
1.37
1.39
1.39
1.4
1.36
1.37
1.345
1.345
1.35
1.305
1.24
1.23
1.245
1.205
1.235
1.29
1.275
1.3
1.27
1.295
1.255
1.28
1.23
1.21
1.215
1.2
1.205
1.23
1.255
1.245
1.22
1.235
1.22
1.21
1.225
1.225
1.22
1.245
1.245
1.23
1.245
1.2
1.17
1.19
1.205
1.195
1.26
1.255
1.275
1.225
1.2
1.2
1.2
1.17
1.205
1.265
1.23
1.27
1.25
1.215
1.195
1.27
1.25
1.245
1.23
1.24
1.205
1.135
1.205
1.24
1.24
1.27
1.25
1.21
1.22
1.265
1.2
1.275
1.28
1.24
1.25
1.255
1.235
1.205
1.225
1.24
1.23
1.225
1.2
1.245
1.24
1.24
1.225
1.29
1.225
1.215
1.235
1.235
1.25
1.185
1.175
1.265
1.185
1.24
1.27
1.24
1.25
1.2
1.185
1.235
1.3
1.22
1.195
1.26
1.195
1.145
1.33
1.28
1.2
1.31
1.305
1.24
1.17
1.22
1.25
1.255
1.24
1.245
1.28
1.265
1.29
1.265
1.23
1.315
1.33
1.305
1.325
1.395
1.305
1.31
1.29
1.27
1.235
1.275
1.285
1.295
1.3
1.255
1.23
1.21
1.19
1.165
1.205
1.225
1.205
1.21
1.235
1.15
1.19
1.19
1.165
1.165
1.23
1.215
1.24
1.215
1.225
1.245
1.165
1.17
1.155
1.195
1.17
1.135
1.215
1.23
1.215
1.195
1.19
1.155
1.215
1.165
1.175
1.22
1.22
1.21
1.165
1.16
1.175
1.185
1.15
1.08
1.1
1.115
1.15
1.135
1.25
1.295
1.35
1.455
1.54
1.635
1.74
1.75
1.92
1.96
1.85
1.75
1.66
1.54
1.37
1.305
1.165
1.055
0.97
0.965
0.96
1.04
1.105
1.075
1.08
1.155
1.17
1.155
1.17
1.165
1.255
1.215
1.23
1.23
1.17
1.19
1.195
1.19
1.215
1.285
1.235
1.205
1.22
1.24
1.215
1.175
1.215
1.19
1.285
1.28
1.25
1.21
1.215
1.225
1.255
1.24
1.175
1.18
1.235
1.225
1.195
1.205
1.25
1.265
1.235
1.25
1.21
1.24
1.24
1.245
1.285
1.295
1.28
1.25
1.265
1.265
1.265
1.285
1.295
1.265
1.26
1.265
1.22
1.23
1.265
1.36
1.31
1.275
1.28
1.26
1.285
1.34
1.41
1.395
1.38
1.405
1.42
1.36
1.405
1.395
1.385
1.37
1.385
1.43
1.415
1.495
1.52
1.51
1.52
1.5
1.51
1.52
1.555
1.55
1.55
1.55
1.595
1.605
1.58
1.52
1.6
1.58
1.58
1.555
1.605
1.605
1.57
1.615
1.575
1.59
1.525
1.47
1.5
1.515
1.465
1.48
1.475
1.45
1.405
1.375
1.375
1.4
1.355
1.275
1.305
1.32
1.26
1.25
1.29
1.25
1.22
1.28
1.285
1.29
1.29
1.245
1.26
1.215
1.265
1.155
1.23
1.24
1.275
1.18
1.225
1.26
1.225
1.215
1.24
1.31
1.25
1.18
1.155
1.24
1.245
1.21
1.195
1.215
1.27
1.15
1.25
1.25
1.175
1.205
1.2
1.22
1.205
1.23
1.22
1.19
1.215
1.18
1.15
1.27
1.29
1.24
1.26
1.22
1.255
1.225
1.21
1.22
1.155
1.215
1.21
1.23
1.205
1.24
1.235
1.24
1.2
1.235
1.23
1.195
1.175
1.17
1.215
1.255
1.225
1.225
1.21
1.27
1.195
1.225
1.235
1.265
1.22
1.19
1.23
1.165
1.21
1.24
1.225
1.165
1.24
1.21
1.175
1.24
1.3
1.25
1.195
1.195
1.225
1.225
1.235
1.185
1.25
1.185
1.18
1.195
1.205
1.195
1.25
1.185
1.22
1.19
1.22
1.2
1.205
1.205
1.2
1.195
1.265
1.205
1.185
1.23
1.24
1.175
1.265
1.195
1.2
1.325
1.28
1.265
1.325
1.345
1.31
1.255
1.265
1.27
1.24
1.31
1.26
1.22
1.25
1.255
1.25
1.195
1.175
1.205
1.145
1.16
1.17
1.19
1.185
1.215
1.21
1.175
1.16
1.165
1.17
1.17
1.1
1.21
1.235
1.2
1.145
1.175
1.135
1.085
1.195
1.165
1.155
1.145
1.145
1.155
1.17
1.155
1.185
1.15
1.155
1.19
1.19
1.12
1.12
1.155
1.12
1.145
1.205
1.17
1.145
1.145
1.105
1.045
1.04
1.05
1.025
1.085
1.135
1.2
1.31
1.435
1.515
1.58
1.675
1.78
1.87
1.84
1.79
1.65
1.53
1.48
1.35
1.185
1.09
1.035
1.04
0.985
0.97
0.965
1.005
0.975
1.035
1.095
1.105
1.145
1.17
1.17
1.13
1.105
1.16
1.155
1.145
1.105
1.14
1.175
1.12
1.155
1.15
1.14
1.19
1.19
1.17
1.175
1.125
1.1
1.16
1.175
1.155
1.13
1.17
1.205
1.19
1.155
1.105
1.17
1.15
1.1
1.11
1.1
1.195
1.205
1.165
1.18
1.14
1.145
1.12
1.17
1.195
1.195
1.23
1.24
1.2
1.15
1.15
1.155
1.14
1.18
1.235
1.22
1.215
1.185
1.165
1.2
1.19
1.195
1.245
1.205
1.195
1.275
1.265
1.25
1.265
1.265
1.27
1.245
1.295
1.295
1.31
1.29
1.25
1.34
1.39
1.41
1.375
1.4
1.4
1.41
1.44
1.455
1.47
1.42
1.415
1.425
1.45
1.45
1.465
1.47
1.545
1.495
1.47
1.425
1.475
1.5
1.515
1.52
1.505
1.41
1.43
1.385
1.4
1.38
1.345
1.285
1.345
1.265
1.3
1.325
1.275
1.275
1.235
1.2
1.215
1.23
1.215
1.17
1.155
1.13
1.17
1.185
1.135
1.11
1.135
1.125
1.12
1.105
1.16
1.145
1.175
1.165
1.16
1.09
1.075
1.125
1.075
1.06
1.175
1.16
1.105
1.11
1.16
1.165
1.175
1.125
1.045
1.045
1.075
1.16
1.13
1.08
1.145
1.04
1.1
1.105
1.065
1.185
1.105
1.105
1.095
1.13
1.17
1.105
1.06
1.085
1.12
1.095
1.135
1.155
1.1
1.115
1.11
1.09
1.06
1.075
1.08
1.13
1.09
1.125
1.11
1.14
1.145
1.12
1.075
1.065
1.1
1.065
1.085
1.095
1.09
1.07
1.065
1.08
1.1
1.07
1.13
1.065
1.07
1.06
1.145
1.115
1.155
1.09
1.05
1.02
1.115
1.12
1.115
1.1
1.165
1.155
1.095
1.05
1.11
1.12
1.105
1.16
1.115
1.075
1.1
1.035
1.02
1.095
1.11
1.11
1.1
1.07
1.04
1.065
1.065
1.085
1.08
1.045
1.095
1.08
1.1
1.16
1.08
1.1
1.045
1.095
1.135
1.09
1.11
1.075
1.065
1.08
1.15
1.145
1.155
1.085
1.15
1.16
1.165
1.155
1.14
1.165
1.165
1.16
1.145
1.125
1.15
1.145
1.135
1.085
1.05
1.095
1.16
1.12
1.1
1.085
1.105
1.06
1.005
1.055
1.085
1.105
1.045
0.98
1.1
1.08
1.055
1.035
1.005
1.03
1.03
1.005
1.015
1.07
1.035
1.015
1.03
1.055
1.01
1.05
1.05
1.045
1.065
1.02
1.0
1.075
1.07
1.055
1.045
1.015
1.055
1.085
1.01
1.0
0.995
1.005
0.975
0.945
1.0
0.94
0.895
0.965
1.07
1.08
1.175
1.29
1.43
1.49
1.605
1.72
1.775
1.8
1.76
1.54
1.515
1.395
1.22
1.065
1.03
0.91
0.855
0.825
0.795
0.845
0.845
0.9
0.895
0.955
0.965
0.995
0.985
0.995
1.055
1.05
1.03
1.035
1.035
1.03
0.96
1.02
1.045
1.035
0.99
1.025
1.07
1.03
1.035
0.96
1.06
1.08
1.035
1.085
1.06
1.025
1.06
1.02
1.0
1.07
1.06
1.02
1.035
1.095
1.08
1.045
1.005
1.01
1.085
1.065
1.03
1.11
1.07
1.055
1.085
1.065
1.045
1.065
1.075
1.055
1.07
1.075
1.05
1.05
1.075
1.075
1.085
1.11
1.06
1.13
1.125
1.06
1.03
1.145
1.105
1.17
1.21
1.185
1.145
1.185
1.095
1.195
1.2
1.195
1.195
1.255
1.275
1.24
1.25
1.23
1.275
1.325
1.3
1.285
1.335
1.375
1.335
1.34
1.355
1.335
1.315
1.355
1.435
1.4
1.405
1.37
1.415
1.355
1.405
1.39
1.37
1.39
1.38
1.36
1.355
1.33
1.29
1.325
1.265
1.285
1.24
1.245
1.25
1.205
1.28
1.23
1.115
1.115
1.085
1.065
1.055
1.06
1.115
1.055
1.1
1.065
1.025
1.035
1.03
1.04
1.025
0.99
1.04
1.015
1.04
1.025
1.02
0.955
1.01
1.0
1.04
1.0
0.98
1.0
1.005
1.045
1.005
1.05
1.025
1.05
1.0
1.0
0.985
0.96
0.945
0.99
1.015
1.0
0.965
0.96
0.99
1.015
0.985
0.955
1.0
1.0
0.995
1.05
1.015
0.99
0.98
0.975
1.02
0.935
1.035
1.0
0.99
1.07
1.01
1.07
1.05
0.995
0.945
1.025
0.99
1.0
1.005
1.05
1.025
0.995
0.985
0.995
1.01
1.02
1.02
0.97
0.985
0.96
0.99
1.01
1.025
1.01
1.0
0.96
1.025
1.03
0.975
0.99
0.97
0.995
0.98
0.965
0.965
1.01
0.985
0.975
1.0
0.98
0.945
0.99
0.995
1.005
1.005
0.94
0.975
0.985
1.045
1.01
0.995
0.965
1.01
1.025
1.015
0.95
0.975
1.01
1.035
1.055
1.015
0.98
1.01
0.975
1.06
1.055
1.05
1.065
1.04
1.04
1.11
1.095
1.095
1.12
1.075
1.055
1.035
1.08
1.065
1.035
1.015
0.96
1.035
1.01
1.04
1.01
1.035
1.015
0.985
0.95
0.95
0.92
0.965
0.95
0.975
0.955
0.9
0.9
0.965
0.99
0.99
1.01
0.99
0.975
0.99
0.99
0.965
0.935
0.93
0.955
0.91
0.975
0.965
0.945
0.955
0.935
0.955
0.965
0.95
0.96
0.965
0.955
0.965
0.94
0.91
0.905
0.91
0.855
0.88
0.855
0.885
0.95
0.965
1.05
1.135
1.235
1.355
1.46
1.51
1.62
1.67
1.7
1.555
1.41
1.34
1.165
1.155
1.0
0.91
0.735
0.715
0.745
0.745
0.685
0.72
0.85
0.86
0.865
0.895
0.87
0.935
0.925
0.915
0.94
0.905
0.93
0.965
0.97
0.95
0.94
0.955
0.925
0.94
0.97
0.96
0.985
0.975
0.935
0.94
1.025
1.01
0.94
0.915
0.975
0.96
0.935
0.985
0.97
0.94
0.935
0.94
0.985
1.0
0.95
1.005
0.995
0.945
0.93
0.955
0.955
0.965
1.0
0.965
0.975
1.015
1.025
0.965
1.01
1.0
0.98
1.015
1.045
1.045
1.055
1.005
1.02
1.02
1.02
1.025
1.035
0.995
1.03
1.025
1.075
1.13
1.095
1.085
1.045
1.045
1.11
1.115
1.135
1.16
1.18
1.17
1.12
1.205
1.195
1.2
1.185
1.285
1.29
1.26
1.245
1.28
1.255
1.275
1.295
1.255
1.25
1.305
1.325
1.3
1.305
1.275
1.285
1.335
1.31
1.32
1.24
1.26
1.345
1.24
1.235
1.21
1.23
1.195
1.155
1.115
1.13
1.115
1.115
1.14
1.09
1.045
1.03
1.01
1.015
1.025
0.96
1.02
0.955
0.965
0.95
0.935
0.95
0.91
0.93
0.925
0.935
0.97
0.93
0.94
0.955
0.85
0.91
0.885
0.9
0.88
0.94
0.955
0.925
0.92
0.9
0.895
0.89
0.89
0.965
0.89
0.85
0.95
0.955
0.915
0.885
0.885
0.91
0.88
0.93
0.92
0.94
0.91
0.915
0.935
0.91
0.875
0.895
0.925
0.92
0.895
0.9
0.9
0.87
0.905
0.925
0.9
0.905
0.92
0.915
0.845
0.87
0.925
0.915
0.875
0.86
0.895
0.93
0.955
0.92
0.925
0.905
0.89
0.95
0.84
0.825
0.885
0.945
0.975
0.915
0.91
0.9
0.905
0.925
0.895
0.89
0.91
0.945
0.895
0.885
0.84
1.0
0.945
0.84
0.9
0.94
0.89
0.895
0.915
0.895
0.9
0.905
0.895
0.83
0.9
0.905
0.87
0.87
0.875
0.855
0.905
0.885
0.92
0.945
0.885
0.875
0.855
0.865
0.84
0.845
0.9
0.885
0.85
0.855
0.835
0.86
0.93
0.89
0.855
0.895
0.88
0.875
0.875
0.925
0.93
0.935
0.915
0.9
0.885
0.915
0.91
0.89
0.875
0.935
0.985
0.97
0.96
0.98
0.96
0.935
0.97
0.945
0.925
0.945
0.955
0.96
0.895
0.915
0.89
0.895
0.865
0.81
0.87
0.885
0.865
0.875
0.805
0.715
0.84
0.965
0.845
0.83
0.81
0.805
0.82
0.85
0.805
0.845
0.885
0.86
0.795
0.785
0.855
0.83
0.865
0.82
0.79
0.8
0.84
0.835
0.83
0.875
0.87
0.775
0.815
0.83
0.83
0.82
0.825
0.81
0.79
0.7
0.76
0.83
0.73
0.75
0.71
0.8
0.885
1.01
1.12
1.195
1.275
1.3
1.42
1.5
1.55
1.42
1.295
1.265
1.175
1.04
0.9
0.75
0.73
0.69
0.685
0.655
0.635
0.67
0.725
0.64
0.745
0.805
0.74
0.725
0.845
0.82
0.775
0.78
0.885
0.845
0.75
0.8
0.825
0.845
0.785
0.785
0.825
0.84
0.805
0.865
0.87
0.82
0.76
0.78
0.86
0.79
0.845
0.85
0.795
0.825
0.76
0.84
0.905
0.835
0.81
0.79
0.815
0.825
0.825
0.815
0.8
0.83
0.915
0.86
0.88
0.78
0.81
0.79
0.895
0.85
0.845
0.855
0.865
0.83
0.815
0.86
0.845
0.85
0.83
0.9
0.895
0.895
0.835
0.87
0.87
0.915
0.85
0.89
0.905
0.9
0.905
0.92
0.885
0.945
0.94
0.99
0.985
0.985
0.995
1.02
1.005
1.02
1.015
0.99
1.01
1.055
1.04
1.1
1.085
1.12
1.065
1.205
1.135
1.125
1.14
1.13
1.11
1.055
1.12
1.145
1.08
1.11
1.18
1.09
1.1
1.095
1.08
1.0
1.005
1.04
0.98
0.965
0.97
0.95
0.93
0.895
0.87
0.91
0.885
0.815
0.845
0.88
0.905
0.845
0.79
0.8
0.835
0.825
0.785
0.795
0.715
0.755
0.72
0.71
0.76
0.78
0.745
0.71
0.765
0.725
0.84
0.79
0.77
0.705
0.745
0.73
0.695
0.76
0.795
0.785
0.775
0.785
0.75
0.715
0.74
0.76
0.75
0.775
0.755
0.75
0.7
0.72
0.705
0.745
0.725
0.735
0.7
0.715
0.76
0.705
0.72
0.745
0.755
0.73
0.75
0.725
0.735
0.715
0.755
0.705
0.69
0.73
0.745
0.71
0.685
0.74
0.735
0.685
0.71
0.71
0.735
0.74
0.68
0.75
0.705
0.715
0.705
0.735
0.755
0.7
0.675
0.72
0.765
0.665
0.69
0.715
0.7
0.7
0.72
0.705
0.7
0.7
0.72
0.76
0.745
0.705
0.67
0.74
0.69
0.69
0.68
0.715
0.7
0.71
0.705
0.69
0.665
0.7
0.725
0.72
0.73
0.67
0.675
0.685
0.675
0.695
0.665
0.7
0.705
0.71
0.715
0.74
0.71
0.69
0.745
0.695
0.64
0.645
0.695
0.74
0.655
0.68
0.7
0.7
0.675
0.705
0.675
0.645
0.675
0.71
0.685
0.69
0.655
0.67
0.685
0.705
0.685
0.7
0.7
0.72
0.715
0.71
0.72
0.745
0.67
0.685
0.665
0.745
0.68
0.65
0.685
0.685
0.705
0.805
0.76
0.76
0.775
0.785
0.76
0.805
0.785
0.705
0.7
0.755
0.7
0.68
0.72
0.695
0.655
0.62
0.665
0.65
0.655
0.685
0.69
0.66
0.63
0.625
0.695
0.65
0.655
0.66
0.645
0.67
0.595
0.595
0.65
0.655
0.635
0.685
0.645
0.62
0.62
0.6
0.595
0.595
0.665
0.67
0.62
0.55
0.67
0.655
0.635
0.645
0.65
0.61
0.625
0.595
0.585
0.56
0.51
0.495
0.53
0.54
0.585
0.565
0.655
0.755
0.83
0.91
1.045
1.11
1.13
1.255
1.295
1.355
1.24
1.135
1.03
0.905
0.755
0.635
0.58
0.525
0.415
0.435
0.465
0.49
0.425
0.485
0.605
0.595
0.57
0.615
0.61
0.64
0.645
0.63
0.585
0.64
0.625
0.61
0.6
0.535
0.58
0.59
0.615
0.61
0.62
0.61
0.615
0.635
0.625
0.67
0.57
0.68
0.655
0.63
0.625
0.635
0.65
0.605
0.61
0.65
0.625
0.61
0.635
0.615
0.65
0.66
0.625
0.59
0.64
0.63
0.6
0.625
0.665
0.62
0.69
0.72
0.67
0.665
0.6
0.65
0.625
0.665
0.66
0.66
0.665
0.685
0.685
0.68
0.655
0.685
0.655
0.675
0.695
0.685
0.67
0.675
0.76
0.78
0.765
0.75
0.785
0.775
0.78
0.725
0.735
0.805
0.815
0.785
0.885
0.85
0.855
0.825
0.85
0.87
0.89
0.875
0.895
0.915
0.955
0.925
0.91
0.875
0.925
0.99
0.965
0.955
0.9
0.885
0.95
0.93
0.91
0.965
0.86
0.855
0.88
0.865
0.875
0.79
0.785
0.715
0.75
0.805
0.75
0.71
0.7
0.71
0.71
0.665
0.655
0.66
0.65
0.57
0.61
0.645
0.64
0.595
0.605
0.62
0.56
0.58
0.565
0.62
0.57
0.575
0.62
0.615
0.615
0.57
0.55
0.585
0.545
0.58
0.56
0.585
0.57
0.575
0.545
0.58
0.565
0.565
0.56
0.62
0.59
0.57
0.53
0.58
0.535
0.575
0.565
0.54
0.585
0.575
0.58
0.54
0.455
0.53
0.595
0.525
0.58
0.59
0.555
0.57
0.54
0.58
0.58
0.47
0.565
0.62
0.535
0.46
0.55
0.535
0.57
0.61
0.605
0.58
0.52
0.565
0.545
0.575
0.545
0.545
0.565
0.54
0.535
0.52
0.49
0.53
0.53
0.55
0.53
0.545
0.59
0.525
0.5
0.525
0.535
0.515
0.545
0.535
0.55
0.495
0.52
0.535
0.55
0.575
0.525
0.51
0.515
0.545
0.525
0.515
0.535
0.525
0.495
0.575
0.555
0.515
0.555
0.59
0.57
0.515
0.555
0.545
0.475
0.53
0.57
0.51
0.435
0.525
0.535
0.545
0.535
0.54
0.52
0.5
0.52
0.485
0.495
0.51
0.545
0.505
0.475
0.505
0.52
0.555
0.49
0.495
0.495
0.49
0.515
0.49
0.525
0.485
0.53
0.53
0.495
0.535
0.53
0.52
0.58
0.535
0.6
0.545
0.51
0.52
0.505
0.535
0.575
0.525
0.565
0.535
0.525
0.55
0.545
0.575
0.615
0.565
0.58
0.555
0.565
0.58
0.575
0.575
0.53
0.545
0.58
0.57
0.54
0.47
0.51
0.525
0.54
0.515
0.49
0.495
0.485
0.475
0.485
0.46
0.46
0.495
0.44
0.48
0.46
0.495
0.465
0.515
0.46
0.56
0.455
0.465
0.46
0.405
0.355
0.475
0.54
0.47
0.495
0.48
0.465
0.49
0.48
0.465
0.45
0.435
0.52
0.465
0.42
0.425
0.425
0.385
0.365
0.415
0.41
0.405
0.425
0.495
0.56
0.66
0.785
0.85
0.9
0.995
1.09
1.135
1.215
1.08
0.955
0.92
0.775
0.65
0.565
0.475
0.38
0.32
0.305
0.3
0.29
0.305
0.355
0.35
0.38
0.43
0.49
0.44
0.425
0.455
0.47
0.46
0.45
0.435
0.475
0.48
0.46
0.515
0.445
0.4
0.46
0.495
0.495
0.46
0.465
0.485
0.405
0.415
0.515
0.54
0.47
0.47
0.45
0.485
0.49
0.485
0.515
0.515
0.43
0.48
0.49
0.48
0.48
0.5
0.465
0.48
0.5
0.5
0.46
0.48
0.525
0.495
0.5
0.525
0.51
0.465
0.485
0.495
0.51
0.485
0.485
0.485
0.51
0.565
0.54
0.515
0.485
0.525
0.59
0.59
0.545
0.55
0.605
0.585
0.54
0.575
0.625
0.58
0.635
0.595
0.64
0.635
0.665
0.63
0.715
0.72
0.66
0.65
0.725
0.73
0.73
0.725
0.76
0.78
0.825
0.75
0.77
0.765
0.82
0.775
0.77
0.8
0.8
0.78
0.81
0.825
0.745
0.785
0.75
0.74
0.735
0.775
0.79
0.655
0.635
0.67
0.59
0.595
0.655
0.605
0.63
0.57
0.54
0.53
0.53
0.46
0.48
0.515
0.525
0.495
0.495
0.485
0.425
0.47
0.445
0.445
0.455
0.475
0.465
0.45
0.475
0.475
0.465
0.405
0.435
0.415
0.44
0.4
0.4
0.425
0.43
0.445
0.42
0.385
0.435
0.4
0.445
0.36
0.385
0.5
0.41
0.42
0.455
0.405
0.44
0.445
0.46
0.505
0.435
0.4
0.41
0.38
0.46
0.415
0.45
0.42
0.46
0.45
0.455
0.44
0.41
0.4
0.415
0.415
0.41
0.46
0.45
0.425
0.38
0.35
0.43
0.4
0.4
0.445
0.415
0.455
0.45
0.405
0.4
0.44
0.415
0.445
0.415
0.365
0.41
0.415
0.38
0.43
0.39
0.385
0.41
0.415
0.38
0.4
0.455
0.425
0.475
0.47
0.42
0.35
0.415
0.49
0.46
0.43
0.405
0.38
0.4
0.34
0.39
0.37
0.4
0.445
0.42
0.385
0.385
0.415
0.425
0.395
0.4
0.41
0.445
0.365
0.345
0.355
0.385
0.4
0.375
0.34
0.415
0.425
0.42
0.39
0.395
0.39
0.35
0.42
0.435
0.435
0.475
0.43
0.41
0.415
0.4
0.395
0.415
0.405
0.39
0.365
0.45
0.465
0.45
0.44
0.445
0.46
0.51
0.425
0.465
0.46
0.475
0.425
0.41
0.47
0.47
0.415
0.43
0.365
0.4
0.405
0.38
0.385
0.385
0.365
0.35
0.36
0.305
0.405
0.375
0.36
0.36
0.355
0.38
0.34
0.34
0.335
0.395
0.36
0.365
0.365
0.28
0.4
0.38
0.34
0.34
0.345
0.355
0.31
0.33
0.345
0.345
0.355
0.36
0.35
0.395
0.385
0.34
0.29
0.34
0.27
0.31
0.35
0.305
0.285
0.275
0.355
0.525
0.485
0.595
0.78
0.755
0.755
0.89
0.925
0.95
0.89
0.79
0.725
0.645
0.515
0.35
0.31
0.235
0.14
0.07
0.145
0.11
0.135
0.215
0.18
0.215
0.305
0.24
0.215
0.36
0.445
0.335
0.335
0.385
0.34
0.29
0.285
0.33
0.32
0.32
0.4
0.39
0.355
0.335
0.3
0.35
0.36
0.395
0.345
0.37
0.33
0.34
0.325
0.37
0.34
0.32
0.395
0.405
0.375
0.325
0.415
0.36
0.41
0.395
0.375
0.325
0.295
0.42
0.36
0.395
0.39
0.415
0.38
0.36
0.42
0.395
0.355
0.4
0.43
0.4
0.395
0.375
0.39
0.41
0.42
0.41
0.395
0.405
0.435
0.5
0.415
0.415
0.445
0.49
0.47
0.47
0.475
0.48
0.49
0.525
0.52
0.5
0.535
0.56
0.555
0.625
0.615
0.625
0.62
0.6
0.615
0.635
0.625
0.645
0.605
0.66
0.69
0.725
0.695
0.71
0.68
0.65
0.725
0.695
0.78
0.73
0.645
0.695
0.685
0.68
0.615
0.705
0.635
0.605
0.59
0.55
0.605
0.595
0.5
0.465
0.44
0.47
0.45
0.415
0.46
0.365
0.365
0.405
0.395
0.395
0.325
0.295
0.405
0.33
0.34
0.345
0.33
0.3
0.33
0.32
0.305
0.275
0.31
0.305
0.325
0.3
0.27
0.28
0.275
0.3
0.375
0.335
0.36
0.345
0.32
0.285
0.325
0.31
0.295
0.285
0.28
0.255
0.275
0.265
0.255
0.295
0.305
0.27
0.295
0.28
0.275
0.325
0.28
0.29
0.31
0.28
0.33
0.275
0.26
0.28
0.3
0.27
0.335
0.235
0.245
0.255
0.235
0.255
0.345
0.355
0.285
0.255
0.28
0.29
0.305
0.315
0.33
0.265
0.27
0.25
0.255
0.285
0.285
0.29
0.235
0.23
0.36
0.31
0.26
0.335
0.305
0.29
0.22
0.285
0.235
0.255
0.24
0.27
0.31
0.295
0.28
0.275
0.21
0.235
0.26
0.255
0.245
0.31
0.285
0.29
0.24
0.21
0.255
0.26
0.265
0.24
0.305
0.225
0.185
0.235
0.205
0.185
0.23
0.26
0.245
0.215
0.24
0.275
0.25
0.17
0.19
0.265
0.3
0.225
0.235
0.205
0.155
0.235
0.24
0.23
0.26
0.27
0.19
0.245
0.225
0.225
0.25
0.255
0.21
0.22
0.255
0.255
0.23
0.23
0.295
0.24
0.225
0.29
0.305
0.275
0.285
0.33
0.28
0.245
0.225
0.225
0.22
0.25
0.25
0.245
0.205
0.185
0.14
0.19
0.19
0.205
0.18
0.225
0.225
0.205
0.16
0.15
0.185
0.19
0.215
0.22
0.175
0.15
0.135
0.185
0.13
0.19
0.15
0.205
0.16
0.14
0.14
0.165
0.18
0.16
0.17
0.17
0.15
0.195
0.17
0.165
0.18
0.11
0.15
0.175
0.09
0.16
0.115
0.09
0.155
0.13
0.13
0.075
0.19
0.265
0.345
0.48
0.55
0.545
0.59
0.685
0.725
0.765
0.715
0.655
0.565
0.505
0.34
0.175
0.235
0.14
-0.07
-0.02
-0.025
-0.095
-0.06
0.005
0.085
0.05
0.095
0.09
0.13
0.105
0.135
0.115
0.16
0.145
0.065
0.195
0.165
0.145
0.125
0.175
0.155
0.135
0.145
0.175
0.17
0.17
0.19
0.26
0.145
0.135
0.155
0.135
0.13
0.205
0.17
0.11
0.135
0.195
0.18
0.195
0.165
0.13
0.165
0.195
0.22
0.17
0.19
0.145
0.13
0.145
0.2
0.165
0.18
0.195
0.195
0.195
0.115
0.22
0.21
0.205
0.215
0.215
0.21
0.21
0.195
0.185
0.205
0.175
0.285
0.245
0.235
0.24
0.24
0.215
0.31
0.26
0.255
0.305
0.31
0.32
0.29
0.28
0.275
0.33
0.36
0.39
0.385
0.41
0.385
0.445
0.395
0.38
0.38
0.415
0.43
0.365
0.57
0.535
0.505
0.52
0.505
0.52
0.55
0.51
0.46
0.44
0.49
0.495
0.46
0.505
0.445
0.46
0.415
0.385
0.375
0.315
0.365
0.365
0.33
0.33
0.265
0.25
0.275
0.21
0.24
0.24
0.195
0.15
0.12
0.165
0.165
0.145
0.145
0.105
0.18
0.155
0.11
0.08
0.115
0.13
0.12
0.16
0.115
0.075
0.055
0.155
0.135
0.13
0.11
0.1
0.08
0.1
0.125
0.13
0.115
0.14
0.075
0.055
0.175
0.15
0.12
0.085
0.08
0.07
0.095
0.14
0.105
0.125
0.085
0.09
0.09
0.115
0.095
0.085
0.115
0.11
0.055
0.11
0.05
0.04
0.055
0.09
0.13
0.1
0.12
0.13
0.12
0.08
0.065
0.075
0.085
0.135
0.07
-0.025
-0.01
0.15
0.1
0.125
0.07
0.085
0.15
0.115
0.06
0.04
0.065
0.125
0.075
0.09
0.08
0.11
0.105
0.1
0.07
0.085
0.08
0.115
0.075
0.045
0.075
0.115
0.04
0.04
0.085
0.05
0.025
0.11
0.11
0.1
0.085
0.055
0.08
0.135
0.08
0.12
0.1
0.045
0.025
0.07
0.08
0.08
0.08
0.085
0.075
0.05
0.03
0.155
0.105
0.13
0.095
0.135
0.13
0.035
0.075
0.135
-0.005
0.02
0.025
0.04
0.105
0.125
0.1
0.155
0.13
0.1
0.065
0.08
0.085
0.11
0.13
0.075
0.09
0.065
0.09
0.09
0.095
0.125
0.14
0.055
0.105
0.17
0.15
0.125
0.12
0.13
0.195
0.175
0.125
0.125
0.12
0.105
0.14
0.105
0.07
0.08
0.08
0.05
0.07
0.065
-0.005
-0.015
0.035
0.05
0.04
0.065
0.07
0.03
0.065
0.075
0.025
0.09
-0.005
-0.02
-0.04
-0.04
0.08
0.085
0.085
0.06
0.02
0.045
0.01
0.05
0.005
0.025
0.025
0.035
0.075
0.07
0.05
0.025
0.025
0.04
0.01
-0.03
0.005
-0.015
-0.105
-0.085
0.0
0.045
0.07
0.115
0.145
0.31
0.335
0.43
0.455
0.505
0.58
0.66
0.64
0.525
0.37
0.375
0.235
0.155
0.055
-0.035
-0.07
-0.09
-0.025
-0.185
-0.14
-0.005
-0.02
-0.02
0.0
0.035
0.03
0.01
0.02
-0.005
0.03
0.01
0.05
0.055
0.085
0.045
0.1
0.05
0.035
0.06
0.055
-0.03
0.005
0.035
0.055
0.05
0.035
-0.045
0.025
0.105
0.015
0.055
0.055
0.045
0.03
0.085
0.045
0.055
0.045
0.085
0.075
0.025
0.065
0.08
0.035
0.04
0.125
0.035
0.01
0.06
0.08
0.025
-0.025
0.05
0.07
0.095
0.08
0.04
0.02
0.09
0.1
0.075
0.095
0.115
0.065
0.13
0.09
0.05
0.055
0.16
0.11
0.125
0.14
0.115
0.14
0.155
0.125
0.145
0.195
0.18
0.175
0.195
0.14
0.16
0.25
0.25
0.275
0.26
0.25
0.27
0.23
0.3
0.28
0.315
0.295
0.295
0.355
0.34
0.3
0.235
0.36
0.345
0.285
0.305
0.33
0.28
0.295
0.265
0.23
0.295
0.285
0.265
0.24
0.2
0.23
0.235
0.21
0.19
0.18
0.115
0.13
0.095
0.07
0.11
0.085
0.04
0.045
0.06
0.05
0.005
0.025
0.045
-0.005
-0.025
0.03
0.085
0.035
0.02
-0.015
0.005
-0.005
-0.035
-0.02
0.035
0.04
0.025
-0.01
0.005
-0.025
-0.1
0.0
0.125
0.04
-0.04
0.03
0.04
-0.035
0.035
-0.02
-0.035
-0.05
0.025
0.02
0.115
0.03
-0.045
-0.08
-0.01
0.01
-0.005
-0.05
-0.03
-0.005
-0.06
-0.035
0.005
-0.01
-0.015
-0.015
-0.025
0.005
-0.025
-0.02
-0.035
-0.045
-0.01
-0.005
-0.05
-0.025
-0.055
-0.025
-0.015
0.015
-0.055
-0.05
-0.07
-0.05
-0.055
-0.02
-0.01
-0.02
0.015
-0.055
-0.025
-0.025
-0.105
-0.025
-0.065
-0.08
0.01
-0.025
