# TIPE ECG 2021 - ECG-ID Database v1.0.0 par Physionet
# [N° de la personne, N° de l'enregistrement, Période d'échantillonnage, Prénom, Age, Sexe, Date de l'enregistrement]
[9, 4, 0.002, "Clara", 23, "F", "05.04.2005"]
-0.835
-0.905
-1.025
-1.025
-0.96
-0.885
-0.84
-0.74
-0.68
-0.76
-0.95
-0.92
-0.995
-1.045
-0.93
-0.94
-0.73
-0.685
-0.815
-0.805
-0.915
-0.94
-1.08
-0.955
-0.98
-0.99
-0.835
-0.655
-0.695
-0.87
-0.935
-1.0
-1.045
-1.015
-0.95
-0.905
-0.75
-0.785
-0.81
-0.785
-0.915
-0.97
-1.045
-1.055
-1.045
-0.945
-0.8
-0.75
-0.77
-0.835
-0.975
-1.065
-1.105
-0.995
-1.005
-0.895
-0.915
-0.86
-0.865
-0.81
-1.01
-1.105
-1.145
-0.975
-1.0
-0.895
-0.83
-0.835
-0.895
-0.87
-0.945
-1.105
-1.0
-1.095
-1.095
-0.985
-0.795
-0.75
-1.01
-0.99
-0.885
-1.055
-1.06
-1.075
-0.975
-0.86
-0.98
-0.895
-0.89
-0.93
-0.99
-1.11
-1.185
-1.13
-1.14
-0.92
-0.73
-0.79
-0.84
-0.94
-1.045
-1.065
-1.1
-1.075
-1.045
-0.895
-0.885
-0.87
-0.895
-0.96
-1.01
-1.08
-1.1
-1.035
-0.985
-0.915
-0.92
-0.87
-0.825
-0.99
-1.125
-1.065
-1.14
-1.11
-1.01
-0.905
-0.81
-0.795
-0.855
-0.89
-1.04
-1.135
-1.02
-1.04
-0.97
-0.905
-0.795
-0.75
-0.885
-1.045
-1.05
-0.985
-1.12
-1.095
-0.975
-0.905
-0.885
-0.84
-0.925
-0.965
-1.045
-1.205
-1.185
-1.09
-1.03
-0.875
-0.865
-0.93
-0.945
-0.965
-1.105
-1.21
-1.155
-1.105
-1.055
-0.97
-0.87
-0.96
-0.94
-0.995
-1.155
-1.155
-1.2
-1.185
-1.015
-0.92
-0.865
-0.975
-1.0
-0.985
-1.175
-1.215
-1.135
-1.07
-1.05
-0.895
-0.93
-0.95
-0.97
-1.055
-1.12
-1.13
-1.24
-1.165
-1.02
-0.91
-0.995
-0.915
-0.92
-1.055
-1.18
-1.1
-1.015
-0.91
-0.74
-0.62
-0.59
-0.625
-0.65
-0.795
-0.995
-1.115
-1.075
-1.01
-1.055
-0.95
-0.99
-1.085
-1.145
-1.275
-1.36
-1.41
-1.355
-1.275
-1.155
-1.055
-1.04
-1.045
-1.085
-1.145
-1.265
-1.195
-1.21
-1.145
-1.085
-1.025
-0.91
-0.945
-1.085
-1.095
-1.215
-1.155
-1.19
-1.19
-0.995
-0.945
-0.935
-1.08
-0.895
-1.015
-1.305
-1.145
-1.205
-1.095
-0.985
-0.95
-0.93
-0.93
-1.015
-1.125
-1.17
-1.165
-1.19
-1.03
-1.005
-0.835
-0.92
-0.985
-0.98
-1.12
-1.125
-1.225
-1.18
-1.11
-0.975
-0.9
-0.945
-0.91
-1.01
-1.13
-1.195
-1.235
-1.17
-1.035
-0.89
-0.87
-0.87
-0.975
-0.915
-0.995
-1.155
-1.19
-1.155
-0.995
-0.89
-0.835
-0.89
-0.955
-0.885
-0.995
-0.985
-1.065
-0.995
-0.905
-0.905
-0.73
-0.73
-0.795
-0.85
-1.055
-1.045
-0.86
-0.95
-0.865
-0.705
-0.695
-0.79
-0.74
-0.89
-0.995
-1.0
-0.955
-0.975
-0.81
-0.74
-0.815
-0.83
-0.905
-0.905
-1.015
-1.035
-1.095
-1.035
-0.875
-0.96
-0.86
-0.805
-0.94
-1.05
-1.085
-1.14
-1.155
-1.12
-1.005
-0.945
-0.905
-1.045
-1.04
-1.06
-1.105
-1.225
-1.22
-1.29
-0.98
-0.96
-0.94
-0.96
-0.95
-1.125
-1.27
-1.31
-1.21
-1.21
-1.13
-0.99
-0.93
-1.02
-1.155
-1.085
-1.2
-1.195
-1.12
-1.14
-1.12
-0.995
-0.97
-0.95
-1.06
-1.17
-1.26
-1.23
-1.205
-1.15
-1.09
-0.985
-1.005
-0.96
-1.065
-1.175
-1.215
-1.285
-1.13
-1.115
-1.06
-1.01
-0.98
-1.0
-1.03
-1.145
-1.285
-1.25
-1.18
-1.2
-1.03
-0.975
-0.94
-1.055
-1.005
-1.21
-1.295
-1.27
-1.255
-1.17
-0.98
-0.98
-1.015
-1.055
-1.065
-1.24
-1.305
-1.285
-1.2
-1.15
-1.07
-0.955
-0.95
-1.035
-1.2
-1.25
-1.225
-1.265
-1.195
-1.195
-1.085
-0.98
-0.94
-1.005
-1.215
-1.195
-1.235
-1.34
-1.23
-1.16
-1.035
-1.05
-1.1
-1.095
-1.13
-1.23
-1.355
-1.32
-1.25
-1.12
-1.1
-1.075
-1.125
-1.125
-1.135
-1.25
-1.365
-1.195
-1.25
-1.17
-1.025
-1.155
-1.11
-1.035
-1.225
-1.26
-1.245
-1.42
-1.325
-1.07
-0.995
-0.94
-1.04
-1.08
-1.27
-1.35
-1.355
-1.295
-1.33
-1.105
-1.1
-0.99
-1.15
-1.065
-1.21
-1.3
-1.33
-1.265
-1.29
-1.175
-1.135
-1.06
-1.0
-1.145
-1.35
-1.3
-1.32
-1.375
-1.245
-1.165
-1.005
-0.995
-1.11
-1.13
-1.265
-1.29
-1.385
-1.37
-1.245
-1.135
-1.115
-1.12
-1.115
-1.04
-1.26
-1.35
-1.42
-1.245
-1.155
-1.14
-1.08
-1.045
-1.055
-1.125
-1.265
-1.245
-1.295
-1.315
-1.165
-1.07
-1.045
-0.97
-1.025
-1.03
-1.22
-1.32
-1.29
-1.265
-1.23
-1.035
-0.995
-1.045
-1.03
-1.14
-1.29
-1.43
-1.415
-1.31
-1.21
-1.095
-1.075
-1.1
-1.13
-1.215
-1.275
-1.34
-1.395
-1.255
-1.165
-1.125
-1.18
-1.08
-1.11
-1.19
-1.2
-1.425
-1.405
-1.22
-1.175
-1.155
-1.075
-1.175
-1.185
-1.125
-1.345
-1.31
-1.38
-1.36
-1.305
-1.12
-1.125
-1.12
-1.18
-1.275
-1.33
-1.37
-1.31
-1.345
-1.245
-1.24
-1.13
-1.175
-1.33
-1.28
-1.265
-1.34
-1.38
-1.305
-1.2
-1.025
-0.955
-0.905
-0.92
-0.955
-0.955
-0.875
-0.85
-0.785
-0.635
-0.75
-0.725
-0.785
-0.995
-1.06
-1.325
-1.435
-1.485
-1.415
-1.41
-1.39
-1.375
-1.345
-1.47
-1.62
-1.585
-1.555
-1.475
-1.36
-1.23
-1.275
-1.23
-1.2
-1.2
-1.285
-1.415
-1.385
-1.345
-1.255
-1.185
-1.12
-1.05
-1.16
-1.16
-1.205
-1.38
-1.34
-1.33
-1.35
-1.17
-1.045
-1.08
-1.085
-1.26
-1.315
-1.345
-1.345
-1.39
-1.3
-1.19
-1.08
-1.065
-1.1
-1.16
-1.27
-1.3
-1.31
-1.285
-1.325
-1.11
-1.05
-1.11
-1.205
-1.165
-1.245
-1.255
-1.225
-1.275
-1.28
-1.125
-1.025
-0.945
-1.1
-1.095
-1.05
-1.24
-1.3
-1.335
-1.345
-1.02
-0.96
-1.085
-1.005
-1.035
-1.19
-1.25
-1.165
-1.04
-0.99
-0.96
-0.975
-0.935
-0.98
-1.0
-1.015
-1.0
-1.045
-1.05
-1.01
-0.88
-0.76
-0.71
-0.68
-0.935
-1.035
-1.005
-0.935
-0.925
-0.82
-0.72
-0.72
-0.81
-0.73
-0.85
-0.96
-1.015
-1.105
-0.995
-0.965
-0.905
-0.78
-0.8
-0.85
-1.025
-1.085
-1.08
-1.12
-1.09
-1.105
-0.95
-0.96
-0.995
-1.025
-1.05
-1.275
-1.335
-1.285
-1.23
-1.125
-1.09
-1.035
-1.105
-1.05
-1.225
-1.32
-1.335
-1.335
-1.315
-1.225
-1.135
-1.09
-1.055
-1.11
-1.23
-1.37
-1.365
-1.34
-1.285
-1.19
-1.085
-1.135
-1.14
-1.18
-1.315
-1.415
-1.33
-1.36
-1.315
-1.205
-1.085
-1.115
-1.17
-1.225
-1.28
-1.385
-1.42
-1.33
-1.26
-1.185
-1.19
-1.18
-1.055
-1.145
-1.235
-1.385
-1.395
-1.33
-1.22
-1.13
-1.085
-1.095
-1.16
-1.325
-1.415
-1.435
-1.47
-1.36
-1.315
-1.175
-1.13
-1.13
-1.165
-1.185
-1.31
-1.37
-1.48
-1.36
-1.23
-1.21
-1.12
-1.15
-1.14
-1.255
-1.365
-1.525
-1.395
-1.39
-1.355
-1.15
-1.11
-1.08
-1.29
-1.375
-1.365
-1.425
-1.415
-1.395
-1.28
-1.23
-1.065
-1.21
-1.15
-1.205
-1.4
-1.49
-1.465
-1.355
-1.39
-1.205
-1.16
-1.15
-1.23
-1.28
-1.415
-1.46
-1.405
-1.305
-1.355
-1.245
-1.17
-1.12
-1.225
-1.31
-1.485
-1.525
-1.51
-1.42
-1.29
-1.2
-1.215
-1.215
-1.295
-1.32
-1.345
-1.44
-1.4
-1.46
-1.395
-1.21
-1.125
-1.175
-1.16
-1.225
-1.385
-1.44
-1.435
-1.365
-1.305
-1.265
-1.175
-1.15
-1.23
-1.37
-1.375
-1.48
-1.35
-1.495
-1.34
-1.135
-1.135
-1.195
-1.23
-1.35
-1.365
-1.495
-1.46
-1.38
-1.31
-1.21
-1.2
-1.22
-1.225
-1.375
-1.4
-1.54
-1.41
-1.395
-1.265
-1.2
-1.175
-1.205
-1.26
-1.32
-1.435
-1.425
-1.385
-1.355
-1.265
-1.145
-1.15
-1.205
-1.29
-1.365
-1.415
-1.425
-1.4
-1.32
-1.26
-1.17
-1.22
-1.245
-1.235
-1.345
-1.48
-1.445
-1.33
-1.305
-1.365
-1.2
-1.23
-1.21
-1.24
-1.365
-1.4
-1.455
-1.44
-1.38
-1.18
-1.16
-1.185
-1.225
-1.14
-1.385
-1.39
-1.38
-1.35
-1.275
-1.21
-1.07
-1.035
-1.115
-1.185
-1.27
-1.47
-1.415
-1.305
-1.2
-1.18
-1.17
-1.055
-1.115
-1.165
-1.3
-1.36
-1.385
-1.355
-1.35
-1.295
-1.18
-1.115
-1.19
-1.285
-1.395
-1.4
-1.515
-1.485
-1.33
-1.14
-1.095
-1.18
-1.23
-1.325
-1.43
-1.465
-1.37
-1.41
-1.395
-1.235
-1.07
-1.115
-1.21
-1.4
-1.425
-1.44
-1.47
-1.415
-1.33
-1.215
-1.175
-1.215
-1.21
-1.26
-1.39
-1.505
-1.445
-1.35
-1.35
-1.255
-1.14
-1.14
-1.285
-1.365
-1.345
-1.49
-1.455
-1.405
-1.265
-1.135
-1.12
-1.1
-1.075
-1.075
-1.08
-1.07
-1.175
-1.0
-0.85
-0.755
-0.805
-0.865
-1.055
-1.255
-1.425
-1.49
-1.51
-1.61
-1.455
-1.425
-1.445
-1.5
-1.475
-1.56
-1.61
-1.585
-1.64
-1.635
-1.305
-1.125
-1.245
-1.34
-1.23
-1.33
-1.42
-1.415
-1.425
-1.375
-1.28
-1.165
-1.15
-1.23
-1.195
-1.305
-1.465
-1.46
-1.385
-1.32
-1.285
-1.13
-1.225
-1.175
-1.24
-1.335
-1.445
-1.51
-1.42
-1.385
-1.195
-1.165
-1.125
-1.19
-1.255
-1.295
-1.485
-1.425
-1.405
-1.315
-1.18
-1.135
-1.055
-1.23
-1.215
-1.3
-1.265
-1.445
-1.355
-1.33
-1.215
-1.095
-1.1
-1.16
-1.17
-1.365
-1.39
-1.4
-1.3
-1.125
-1.14
-1.13
-1.09
-1.125
-1.08
-1.315
-1.315
-1.235
-1.25
-1.18
-1.07
-1.055
-1.07
-1.07
-1.09
-1.12
-1.155
-1.115
-1.12
-1.16
-0.965
-0.91
-0.9
-0.995
-1.07
-1.18
-1.155
-1.1
-1.035
-1.105
-0.965
-0.91
-0.735
-0.85
-1.005
-1.165
-1.16
-1.22
-1.16
-1.0
-1.0
-0.97
-1.0
-0.985
-1.13
-1.26
-1.255
-1.28
-1.265
-1.08
-1.095
-1.045
-1.05
-1.05
-1.16
-1.225
-1.44
-1.315
-1.285
-1.235
-1.13
-1.11
-1.195
-1.195
-1.305
-1.405
-1.42
-1.405
-1.27
-1.205
-1.19
-1.165
-1.295
-1.255
-1.26
-1.45
-1.48
-1.43
-1.39
-1.315
-1.25
-1.08
-1.155
-1.355
-1.33
-1.38
-1.455
-1.42
-1.375
-1.345
-1.235
-1.14
-1.19
-1.27
-1.365
-1.375
-1.48
-1.49
-1.395
-1.28
-1.11
-1.18
-1.28
-1.24
-1.35
-1.47
-1.45
-1.355
-1.345
-1.27
-1.12
-1.165
-1.24
-1.23
-1.46
-1.47
-1.4
-1.35
-1.425
-1.3
-1.145
-1.195
-1.24
-1.28
-1.38
-1.5
-1.505
-1.515
-1.3
-1.245
-1.18
-1.155
-1.265
-1.33
-1.385
-1.595
-1.475
-1.435
-1.355
-1.275
-1.17
-1.17
-1.21
-1.32
-1.415
-1.525
-1.55
-1.415
-1.435
-1.255
-1.195
-1.2
-1.25
-1.26
-1.385
-1.575
-1.47
-1.48
-1.39
-1.28
-1.28
-1.28
-1.355
-1.4
-1.395
-1.53
-1.44
-1.435
-1.43
-1.255
-1.24
-1.205
-1.325
-1.34
-1.555
-1.475
-1.515
-1.46
-1.385
-1.375
-1.235
-1.26
-1.305
-1.33
-1.465
-1.535
-1.54
-1.47
-1.42
-1.3
-1.245
-1.22
-1.155
-1.23
-1.555
-1.63
-1.58
-1.445
-1.49
-1.295
-1.29
-1.22
-1.295
-1.405
-1.48
-1.57
-1.525
-1.46
-1.38
-1.275
-1.175
-1.35
-1.265
-1.45
-1.515
-1.57
-1.52
-1.465
-1.365
-1.28
-1.215
-1.25
-1.275
-1.395
-1.55
-1.535
-1.465
-1.46
-1.315
-1.295
-1.2
-1.245
-1.285
-1.41
-1.45
-1.395
-1.465
-1.42
-1.275
-1.2
-1.16
-1.295
-1.3
-1.345
-1.47
-1.45
-1.445
-1.44
-1.27
-1.325
-1.235
-1.22
-1.325
-1.48
-1.545
-1.515
-1.465
-1.375
-1.305
-1.32
-1.285
-1.33
-1.355
-1.5
-1.535
-1.47
-1.435
-1.485
-1.445
-1.29
-1.305
-1.29
-1.33
-1.46
-1.595
-1.545
-1.455
-1.41
-1.35
-1.265
-1.28
-1.29
-1.425
-1.49
-1.5
-1.605
-1.45
-1.425
-1.24
-1.16
-1.29
-1.385
-1.34
-1.43
-1.495
-1.585
-1.49
-1.405
-1.33
-1.235
-1.23
-1.305
-1.405
-1.49
-1.505
-1.395
-1.26
-1.19
-1.125
-1.015
-0.98
-0.955
-1.0
-1.185
-1.34
-1.325
-1.335
-1.29
-1.325
-1.265
-1.27
-1.415
-1.555
-1.69
-1.66
-1.645
-1.53
-1.49
-1.44
-1.335
-1.33
-1.36
-1.36
-1.63
-1.59
-1.535
-1.49
-1.28
-1.23
-1.24
-1.245
-1.26
-1.36
-1.435
-1.48
-1.425
-1.425
-1.33
-1.21
-1.115
-1.24
-1.255
-1.245
-1.36
-1.495
-1.49
-1.35
-1.295
-1.18
-1.18
-1.265
-1.2
-1.43
-1.33
-1.375
-1.465
-1.38
-1.235
-1.225
-1.17
-1.215
-1.23
-1.35
-1.395
-1.39
-1.415
-1.375
-1.205
-1.11
-1.19
-1.19
-1.165
-1.24
-1.335
-1.41
-1.365
-1.325
-1.18
-1.08
-1.15
-1.185
-1.145
-1.285
-1.35
-1.35
-1.155
-1.175
-1.055
-1.045
-0.945
-1.115
-1.18
-1.155
-1.195
-1.2
-1.305
-1.25
-0.975
-0.96
-0.93
-0.965
-1.005
-1.035
-1.16
-1.16
-1.045
-1.16
-0.895
-0.83
-0.94
-0.905
-0.945
-1.085
-1.125
-1.115
-1.065
-1.03
-0.95
-0.905
-0.865
-0.835
-0.9
-1.09
-1.275
-1.195
-1.15
-1.16
-1.03
-0.955
-0.89
-0.975
-1.035
-1.14
-1.265
-1.265
-1.165
-1.105
-1.08
-0.99
-0.985
-1.05
-1.09
-1.265
-1.29
-1.28
-1.29
-1.19
-1.04
-0.995
-1.015
-1.1
-1.17
-1.285
-1.29
-1.255
-1.235
-1.165
-1.09
-0.97
-1.01
-1.11
-1.18
-1.235
-1.27
-1.315
-1.265
-1.155
-1.015
-1.01
-1.055
-1.03
-1.14
-1.1
-1.315
-1.26
-1.16
-1.125
-1.085
-0.995
-1.015
-1.005
-1.155
-1.305
-1.27
-1.235
-1.205
-1.075
-0.99
-0.95
-1.005
-1.025
-1.19
-1.18
-1.25
-1.215
-1.14
-1.07
-1.045
-1.0
-0.935
-1.025
-1.17
-1.195
-1.24
-1.145
-1.13
-1.06
-1.03
-0.855
-0.93
-0.99
-1.15
-1.26
-1.23
-1.13
-1.125
-1.025
-0.905
-0.89
-0.97
-1.04
-1.09
-1.21
-1.33
-1.255
-1.1
-0.96
-0.945
-0.885
-0.945
-0.975
-1.1
-1.21
-1.25
-1.11
-1.155
-1.0
-0.865
-1.025
-0.995
-0.91
-0.99
-1.14
-1.185
-1.115
-1.075
-1.03
-0.915
-0.915
-0.94
-0.955
-1.06
-1.16
-1.155
-1.16
-1.1
-0.96
-0.915
-0.93
-0.855
-1.0
-1.03
-1.15
-1.205
-1.105
-1.065
-0.9
-0.795
-0.81
-0.835
-0.99
-1.095
-1.11
-1.115
-1.01
-1.0
-0.945
-0.91
-0.94
-0.915
-0.885
-1.05
-1.225
-1.105
-0.895
-0.94
-0.805
-0.785
-0.85
-0.81
-0.95
-0.985
-0.99
-1.065
-1.08
-0.9
-0.79
-0.77
-0.775
-0.825
-0.91
-1.01
-1.02
-1.03
-0.985
-0.88
-0.795
-0.845
-0.83
-0.755
-0.86
-1.025
-1.065
-1.05
-1.005
-0.945
-0.86
-0.81
-0.82
-0.82
-0.895
-1.01
-0.985
-1.05
-1.025
-0.93
-0.84
-0.8
-0.8
-0.83
-0.855
-1.005
-1.095
-1.045
-0.905
-0.93
-0.79
-0.745
-0.895
-0.885
-0.97
-1.04
-1.05
-0.98
-0.965
-0.88
-0.75
-0.73
-0.805
-0.845
-0.92
-1.0
-1.0
-0.96
-0.885
-0.84
-0.845
-0.78
-0.775
-0.765
-0.9
-0.935
-0.91
-0.795
-0.71
-0.605
-0.45
-0.39
-0.39
-0.445
-0.53
-0.63
-0.815
-0.885
-0.86
-0.775
-0.75
-0.78
-0.88
-0.975
-1.015
-1.21
-1.135
-1.135
-1.05
-0.95
-0.93
-0.885
-0.87
-0.85
-0.955
-1.08
-1.115
-0.91
-0.895
-0.83
-0.78
-0.73
-0.79
-0.81
-0.945
-0.985
-0.975
-0.875
-0.94
-0.775
-0.7
-0.69
-0.81
-0.755
-0.96
-1.065
-0.915
-0.93
-0.835
-0.795
-0.685
-0.655
-0.72
-0.82
-0.91
-0.99
-0.97
-0.835
-0.865
-0.785
-0.675
-0.685
-0.745
-0.79
-0.915
-0.91
-0.915
-0.9
-0.775
-0.655
-0.66
-0.67
-0.715
-0.845
-0.91
-0.94
-1.005
-0.815
-0.62
-0.62
-0.585
-0.665
-0.67
-0.735
-0.83
-0.855
-0.885
-0.83
-0.585
-0.575
-0.52
-0.58
-0.595
-0.635
-0.905
-0.66
-0.66
-0.605
-0.52
-0.44
-0.36
-0.4
-0.395
-0.485
-0.61
-0.54
-0.64
-0.655
-0.415
-0.365
-0.36
-0.285
-0.415
-0.455
-0.58
-0.615
-0.57
-0.47
-0.375
-0.305
-0.265
-0.44
-0.43
-0.575
-0.715
-0.71
-0.715
-0.545
-0.565
-0.465
-0.395
-0.455
-0.525
-0.73
-0.7
-0.74
-0.765
-0.75
-0.67
-0.55
-0.555
-0.64
-0.665
-0.72
-0.95
-0.88
-0.78
-0.79
-0.635
-0.525
-0.58
-0.64
-0.735
-0.94
-0.97
-0.88
-0.855
-0.815
-0.715
-0.64
-0.62
-0.705
-0.62
-0.81
-0.865
-0.905
-0.835
-0.715
-0.705
-0.64
-0.64
-0.695
-0.7
-0.87
-0.915
-0.89
-0.845
-0.76
-0.66
-0.61
-0.58
-0.645
-0.72
-0.865
-0.86
-0.84
-0.82
-0.735
-0.64
-0.585
-0.54
-0.67
-0.725
-0.81
-0.85
-0.86
-0.83
-0.79
-0.59
-0.58
-0.585
-0.535
-0.64
-0.805
-0.91
-0.915
-0.89
-0.855
-0.62
-0.53
-0.61
-0.685
-0.75
-0.74
-0.935
-0.86
-0.735
-0.71
-0.595
-0.51
-0.585
-0.645
-0.735
-0.76
-0.895
-0.885
-0.795
-0.7
-0.62
-0.535
-0.64
-0.73
-0.775
-0.805
-0.905
-0.885
-0.85
-0.755
-0.55
-0.56
-0.615
-0.7
-0.71
-0.775
-0.93
-0.8
-0.815
-0.68
-0.645
-0.615
-0.58
-0.665
-0.795
-0.82
-0.835
-0.845
-0.79
-0.77
-0.575
-0.585
-0.595
-0.645
-0.715
-0.815
-0.885
-0.865
-0.785
-0.665
-0.585
-0.595
-0.665
-0.615
-0.74
-0.925
-0.925
-0.82
-0.74
-0.715
-0.64
-0.62
-0.57
-0.635
-0.775
-0.88
-0.865
-0.78
-0.75
-0.635
-0.63
-0.665
-0.62
-0.68
-0.655
-0.75
-0.865
-0.815
-0.81
-0.765
-0.61
-0.555
-0.54
-0.625
-0.72
-0.8
-0.8
-0.765
-0.7
-0.585
-0.485
-0.495
-0.65
-0.585
-0.695
-0.825
-0.84
-0.685
-0.695
-0.495
-0.56
-0.51
-0.49
-0.55
-0.68
-0.765
-0.77
-0.78
-0.785
-0.625
-0.655
-0.52
-0.675
-0.66
-0.825
-0.87
-0.83
-0.78
-0.78
-0.71
-0.615
-0.62
-0.655
-0.72
-0.75
-0.73
-0.92
-1.0
-0.775
-0.595
-0.62
-0.645
-0.635
-0.725
-0.845
-0.89
-0.88
-0.85
-0.76
-0.665
-0.54
-0.605
-0.685
-0.74
-0.85
-0.765
-0.835
-0.885
-0.88
-0.625
-0.615
-0.645
-0.72
-0.745
-0.845
-0.905
-0.89
-0.87
-0.765
-0.625
-0.52
-0.615
-0.435
-0.505
-0.545
-0.71
-0.475
-0.28
-0.19
-0.11
-0.145
-0.205
-0.405
-0.57
-0.73
-0.9
-0.965
-0.93
-0.895
-0.935
-0.775
-0.935
-1.005
-1.04
-1.06
-1.01
-0.99
-0.97
-0.825
-0.72
-0.7
-0.74
-0.745
-0.755
-0.895
-0.925
-0.87
-0.855
-0.78
-0.63
-0.605
-0.585
-0.71
-0.815
-0.895
-0.95
-0.845
-0.845
-0.66
-0.665
-0.585
-0.65
-0.635
-0.815
-0.96
-0.865
-0.845
-0.77
-0.685
-0.58
-0.54
-0.71
-0.64
-0.795
-0.825
-0.8
-0.9
-0.73
-0.705
-0.56
-0.6
-0.69
-0.575
-0.77
-0.855
-0.865
-0.79
-0.72
-0.735
-0.565
-0.52
-0.605
-0.74
-0.785
-0.85
-0.79
-0.71
-0.69
-0.595
-0.52
-0.515
-0.65
-0.56
-0.73
-0.75
-0.725
-0.665
-0.645
-0.45
-0.395
-0.385
-0.44
-0.54
-0.525
-0.65
-0.675
-0.52
-0.495
-0.35
-0.295
-0.29
-0.39
-0.435
-0.435
-0.6
-0.545
-0.445
-0.4
-0.275
-0.24
-0.3
-0.325
-0.47
-0.49
-0.615
-0.555
-0.485
-0.435
-0.365
-0.33
-0.375
-0.465
-0.5
-0.565
-0.575
-0.595
-0.55
-0.625
-0.565
-0.445
-0.48
-0.49
-0.64
-0.725
-0.855
-0.765
-0.755
-0.65
-0.57
-0.505
-0.62
-0.69
-0.76
-0.825
-0.82
-0.8
-0.8
-0.795
-0.67
-0.595
-0.73
-0.68
-0.79
-0.945
-0.91
-0.88
-0.82
-0.69
-0.57
-0.615
-0.635
-0.765
-0.81
-0.8
-0.87
-0.93
-0.83
-0.645
-0.64
-0.68
-0.65
-0.69
-0.8
-0.84
-0.83
-0.845
-0.825
-0.725
-0.64
-0.6
-0.685
-0.7
-0.77
-0.97
-0.955
-0.9
-0.845
-0.74
-0.645
-0.605
-0.605
-0.66
-0.825
-0.965
-0.955
-0.83
-0.915
-0.845
-0.495
-0.61
-0.65
-0.75
-0.835
-0.885
-0.945
-0.84
-0.795
-0.685
-0.645
-0.725
-0.76
-0.755
-0.84
-0.96
-0.9
-0.77
-0.915
-0.705
-0.66
-0.67
-0.685
-0.735
-0.89
-0.92
-0.965
-0.96
-0.855
-0.68
-0.66
-0.72
-0.76
-0.8
-0.885
-0.955
-0.955
-0.93
-0.9
-0.66
-0.715
-0.65
-0.7
-0.765
-1.0
-1.02
-0.91
-0.865
-0.91
-0.705
-0.68
-0.67
-0.795
-0.845
-0.905
-0.95
-0.92
-0.975
-0.815
-0.735
-0.65
-0.675
-0.8
-0.805
-0.99
-1.1
-0.975
-0.905
-0.865
-0.735
-0.66
-0.695
-0.82
-0.91
-0.9
-0.955
-0.995
-0.99
-0.795
-0.71
-0.655
-0.695
-0.825
-0.92
-0.97
-1.0
-0.955
-0.94
-0.84
-0.705
-0.635
-0.79
-0.825
-0.895
-0.82
-0.985
-1.11
-0.955
-0.735
-0.655
-0.62
-0.815
-0.865
-0.855
-0.86
-0.935
-0.925
-0.845
-0.685
-0.805
-0.66
-0.725
-0.76
-0.79
-0.975
-0.95
-0.855
-0.795
-0.715
-0.785
-0.755
-0.77
-0.77
-0.895
-0.975
-0.93
-0.905
-0.93
-0.82
-0.765
-0.79
-0.81
-0.85
-0.89
-1.045
-1.1
-0.985
-1.015
-0.89
-0.795
-0.745
-0.76
-0.855
-1.01
-1.015
-1.025
-0.97
-0.91
-0.93
-0.695
-0.755
-0.755
-0.845
-0.99
-1.01
-1.04
-0.96
-0.98
-0.78
-0.74
-0.725
-0.925
-0.895
-1.0
-0.995
-1.085
-1.055
-0.99
-0.8
-0.845
-0.8
-0.71
-0.88
-1.03
-1.125
-1.07
-0.96
-0.755
-0.685
-0.565
-0.52
-0.545
-0.52
-0.64
-0.565
-0.645
-0.65
-0.685
-0.65
-0.725
-0.82
-0.935
-0.995
-1.275
-1.285
-1.26
-1.17
-1.225
-1.01
-1.065
-1.045
-1.035
-1.075
-1.16
-1.13
-1.09
-1.115
-1.015
-0.825
-0.765
-0.855
-0.9
-1.0
-1.005
-1.155
-1.085
-0.96
-0.945
-0.785
-0.81
-0.81
-0.85
-0.895
-0.985
-1.07
-1.08
-1.005
-0.915
-0.84
-0.81
-0.815
-0.875
-0.965
-0.985
-1.025
-1.06
-0.985
-0.92
-0.795
-0.775
-0.88
-0.925
-0.935
-0.965
-1.13
-0.965
-1.08
-0.94
-0.7
-0.745
-0.835
-0.915
-1.005
-0.97
-1.025
-1.035
-0.985
-0.905
-0.73
-0.725
-0.76
-0.795
-0.88
-0.98
-1.07
-1.015
-0.975
-0.75
-0.78
-0.695
-0.755
-0.745
-0.83
-0.93
-0.935
-0.89
-0.83
-0.695
-0.625
-0.61
-0.735
-0.585
-0.7
-0.87
-0.845
-0.735
-0.775
-0.635
-0.63
-0.49
-0.555
-0.575
-0.645
-0.83
-0.74
-0.75
-0.67
-0.625
-0.53
-0.44
-0.485
-0.725
-0.83
-0.885
-0.885
-0.675
-0.775
-0.705
-0.61
-0.57
-0.65
-0.755
-0.915
-1.005
-0.955
-0.895
-0.885
-0.795
-0.755
-0.675
-0.785
-0.945
-1.025
-1.07
-0.985
-1.01
-0.93
-0.835
-0.755
-0.895
-0.86
-0.93
-0.975
-1.065
-1.115
-0.985
-0.86
-0.865
-0.85
-0.815
-0.83
-1.02
-1.13
-1.195
-1.1
-1.06
-1.05
-0.87
-0.775
-0.79
-0.88
-0.915
-1.08
-1.195
-1.035
-0.98
-0.97
-0.825
-0.86
-0.885
-0.815
-0.985
-1.095
-1.065
-1.065
-1.005
-0.945
-0.85
-0.805
-0.84
-0.87
-0.92
-0.9
-1.095
-1.075
-1.08
-0.94
-0.895
-0.835
-0.87
-0.96
-0.96
-1.05
-1.07
-1.06
-1.015
-0.9
-0.825
-0.83
-0.86
-0.805
-1.055
-1.08
-1.22
-1.075
-0.955
-0.905
-0.85
-0.8
-0.885
-0.935
-1.01
-1.09
-1.13
-1.0
-1.005
-0.965
-0.845
-0.815
-0.895
-0.955
-0.99
-1.15
-1.145
-1.035
-0.985
-0.85
-0.855
-0.895
-0.975
-0.925
-0.995
-1.06
-1.14
-1.06
-1.145
-0.915
-0.875
-0.805
-0.79
-0.91
-1.0
-1.015
-1.145
-1.2
-1.055
-0.915
-0.88
-0.85
-0.89
-0.925
-1.07
-1.075
-1.09
-1.155
-1.08
-0.835
-0.835
-0.845
-0.87
-0.94
-1.045
-1.08
-1.18
-1.045
-1.015
-0.92
-0.825
-0.825
-0.855
-0.96
-1.035
-1.13
-1.2
-1.06
-0.98
-0.85
-0.88
-0.82
-0.865
-0.915
-1.085
-1.11
-1.095
-1.105
-0.96
-0.9
-0.845
-0.795
-0.87
-0.955
-1.005
-1.035
-1.035
-1.03
-0.955
-0.805
-0.85
-0.76
-0.785
-0.925
-0.97
-1.07
-1.085
-1.03
-0.96
-0.8
-0.765
-0.755
-0.79
-1.0
-1.05
-1.135
-1.025
-1.09
-1.025
-0.855
-0.79
-0.88
-0.91
-0.955
-1.06
-1.185
-1.155
-0.955
-0.955
-0.9
-0.86
-0.91
-0.885
-1.01
-1.105
-1.09
-1.06
-1.05
-0.97
-0.975
-0.755
-0.85
-0.98
-0.94
-1.16
-1.17
-1.04
-1.045
-0.86
-0.865
-0.875
-0.865
-0.95
-1.025
-1.08
-1.145
-1.125
-1.135
-0.955
-0.765
-0.76
-0.87
-0.955
-0.985
-1.055
-1.145
-1.06
-1.01
-0.94
-0.875
-0.69
-0.685
-0.705
-0.91
-0.835
-0.785
-0.785
-0.77
-0.56
-0.495
-0.57
-0.675
-0.715
-0.9
-1.075
-1.13
-1.2
-1.21
-1.17
-1.025
-1.055
-0.995
-1.1
-1.245
-1.24
-1.24
-1.205
-1.1
-0.935
-0.915
-0.865
-0.96
-0.975
-0.98
-1.06
-1.09
-1.09
-0.915
-0.9
-0.885
-0.765
-0.945
-0.98
-0.975
-1.01
-1.075
-1.07
-0.96
-0.82
-0.895
-0.97
-0.885
-0.855
-0.94
-1.11
-1.17
-1.015
-0.9
-0.885
-0.815
-0.78
-0.88
-0.945
-1.03
-1.14
-1.05
-1.015
-0.975
-0.84
-0.795
-0.805
-0.845
-0.89
-0.925
-1.01
-0.97
-1.05
-0.94
-0.91
-0.805
-0.75
-0.83
-0.85
-1.02
-1.0
-0.965
-0.91
-0.885
-0.845
-0.69
-0.65
-0.795
-0.915
-0.925
-0.985
-0.965
-0.925
-0.82
-0.795
-0.63
-0.67
-0.67
-0.73
-0.89
-0.855
-0.86
-0.75
-0.68
-0.58
-0.535
-0.56
-0.625
-0.685
-0.82
-0.81
-0.75
-0.785
-0.595
-0.58
-0.595
-0.645
-0.565
-0.64
-0.755
-0.915
-0.815
-0.795
-0.68
-0.585
-0.595
-0.575
-0.705
-0.845
-0.95
-0.925
-0.81
-0.9
-0.795
-0.695
-0.675
-0.76
-0.845
-0.935
-1.05
-1.015
-0.92
-0.9
-0.785
-0.745
-0.76
-0.795
-0.835
-0.98
-1.095
-1.07
-0.995
-0.88
-0.835
-0.825
-0.835
-0.86
-0.86
-0.935
-0.975
-1.12
-1.1
-0.98
-0.885
-0.83
-0.735
-0.79
-0.845
-1.04
-1.11
-1.06
-1.025
-0.97
-0.9
-0.78
-0.735
-0.815
-0.895
-1.08
-0.995
-1.085
-1.015
-0.92
-0.815
-0.78
-0.755
-0.71
-0.85
-0.95
-1.065
-1.12
-1.06
-0.95
-0.69
-0.67
-0.91
-0.8
-0.91
-1.02
-1.04
-1.02
-0.935
-0.875
-0.865
-0.8
-0.78
-0.76
-0.94
-1.07
-1.155
-1.065
-0.965
-0.97
-0.81
-0.755
-0.81
-0.77
-0.865
-1.01
-1.025
-1.0
-1.035
-0.95
-0.845
-0.74
-0.755
-0.745
-0.9
-1.04
-1.12
-1.105
-1.045
-0.925
-0.83
-0.755
-0.75
-0.83
-0.915
-1.02
-1.075
-0.975
-0.935
-1.01
-0.82
-0.79
-0.855
-0.92
-0.98
-1.045
-1.085
-1.075
-1.05
-0.985
-0.805
-0.77
-0.815
-0.82
-0.915
-1.14
-1.05
-1.065
-1.02
-0.855
-0.735
-0.835
-0.85
-0.83
-1.0
-1.01
-1.095
-1.015
-0.97
-0.975
-0.79
-0.74
-0.82
-0.87
-0.97
-1.05
-0.99
-0.9
-0.985
-0.935
-0.88
-0.8
-0.81
-0.865
-1.06
-1.09
-0.945
-1.015
-0.955
-0.855
-0.74
-0.705
-0.805
-0.82
-0.935
-1.035
-0.98
-0.96
-1.025
-0.755
-0.75
-0.71
-0.815
-0.855
-0.935
-1.05
-1.085
-0.975
-0.895
-0.865
-0.775
-0.81
-0.85
-0.865
-0.975
-1.07
-1.06
-0.995
-1.02
-0.83
-0.725
-0.745
-0.84
-0.945
-1.025
-1.105
-1.055
-0.975
-0.985
-0.915
-0.725
-0.81
-0.92
-0.86
-1.015
-1.1
-1.07
-1.03
-0.975
-0.83
-0.805
-0.86
-0.89
-0.845
-1.04
-1.075
-1.065
-1.005
-0.925
-0.87
-0.765
-0.815
-0.85
-0.92
-1.065
-1.035
-1.085
-0.95
-0.93
-0.825
-0.785
-0.77
-0.815
-0.78
-0.865
-0.94
-0.82
-0.78
-0.62
-0.49
-0.585
-0.51
-0.63
-0.795
-0.935
-1.115
-1.105
-0.99
-1.02
-1.06
-1.03
-1.0
-1.055
-1.04
-1.145
-1.29
-1.25
-1.26
-1.1
-0.905
-0.845
-0.855
-0.85
-0.975
-1.05
-1.115
-1.09
-0.965
-0.94
-0.8
-0.82
-0.825
-0.885
-0.99
-1.135
-1.06
-0.985
-0.99
-0.93
-0.805
-0.765
-0.835
-0.865
-0.925
-1.045
-1.09
-1.01
-0.975
-0.84
-0.905
-0.765
-0.715
-0.84
-0.96
-1.03
-0.94
-0.975
-0.97
-0.87
-0.775
-0.73
-0.825
-0.825
-0.96
-0.89
-1.075
-1.015
-0.93
-0.76
-0.74
-0.685
-0.75
-0.79
-0.93
-0.975
-0.935
-0.955
-0.905
-0.7
-0.725
-0.735
-0.765
-0.725
-0.85
-0.9
-0.91
-0.87
-0.88
-0.76
-0.62
-0.625
-0.7
-0.645
-0.745
-0.89
-0.845
-0.785
-0.69
-0.58
-0.465
-0.5
-0.585
-0.675
-0.745
-0.82
-0.8
-0.76
-0.715
-0.535
-0.46
-0.45
-0.545
-0.615
-0.795
-0.865
-0.785
-0.715
-0.695
-0.6
-0.495
-0.535
-0.625
-0.745
-0.855
-0.885
-0.9
-0.84
-0.76
-0.66
-0.595
-0.63
-0.8
-0.77
-0.89
-0.985
-0.99
-0.895
-0.86
-0.715
-0.755
-0.785
-0.865
-0.865
-0.915
-1.03
-0.995
-0.955
-0.89
-0.87
-0.795
-0.785
-0.76
-0.925
-1.06
-1.025
-1.015
-0.985
-0.875
-0.84
-0.715
-0.735
-0.825
-0.965
-1.0
-1.095
-1.045
-0.975
-0.945
-0.74
-0.705
-0.8
-0.84
-0.915
-0.92
-1.04
-0.99
-0.92
-0.88
-0.73
-0.815
-0.855
-0.84
-0.945
-1.06
-1.075
-1.035
-0.935
-0.835
-0.8
-0.775
-0.76
-0.88
-0.91
-1.01
-1.06
-0.995
-0.975
-0.86
-0.74
-0.675
-0.825
-0.9
-0.935
-1.165
-1.03
-0.995
-0.955
-0.815
-0.81
-0.72
-0.81
-0.825
-0.96
-1.06
-1.05
-1.035
-0.925
-0.845
-0.86
-0.83
-0.81
-0.845
-0.94
-1.06
-1.05
-1.03
-0.93
-0.8
-0.825
-0.815
-0.87
-0.85
-1.01
-1.13
-1.035
-1.02
-0.93
-0.875
-0.72
-0.76
-0.835
-0.875
-1.04
-1.085
-1.13
-1.03
-0.94
-0.84
-0.765
-0.85
-0.83
-0.915
-1.085
-1.16
-1.12
-0.92
-0.97
-0.86
-0.765
-0.765
-0.83
-0.905
-0.97
-1.1
-1.055
-1.05
-0.965
-0.855
-0.795
-0.86
-0.89
-0.855
-1.085
-1.07
-1.03
-0.935
-0.975
-0.855
-0.76
-0.775
-0.805
-0.91
-0.995
-1.065
-1.065
-0.985
-0.875
-0.79
-0.72
-0.685
-0.93
-0.905
-1.01
-1.14
-1.105
-0.81
-0.895
-0.82
-0.775
-0.78
-0.78
-0.915
-1.015
-1.095
-1.07
-0.98
-0.905
-0.805
-0.865
-0.855
-0.87
-1.115
-1.12
-1.065
-0.96
-1.005
-0.915
-0.76
-0.78
-0.9
-0.9
-0.92
-1.055
-1.12
-1.07
-1.025
-0.93
-0.86
-0.78
-0.9
-0.9
-1.005
-1.11
-1.125
-1.11
-1.025
-0.895
-0.79
-0.745
-0.94
-1.01
-0.935
-1.035
-1.09
-1.13
-1.06
-0.905
-0.86
-0.83
-0.785
-0.965
-1.025
-1.035
-1.09
-1.035
-1.03
-0.97
-0.78
-0.685
-0.735
-0.75
-0.83
-0.915
-0.76
-0.67
-0.635
-0.475
-0.45
-0.48
-0.5
-0.615
-0.93
-1.105
-1.04
-1.04
-1.08
-1.045
-0.955
-0.905
-1.065
-1.115
-1.29
-1.35
-1.3
-1.295
-1.025
-0.855
-0.955
-0.9
-0.815
-0.92
-1.02
-1.04
-1.085
-1.02
-1.0
-0.865
-0.825
-0.85
-0.91
-0.905
-1.055
-1.05
-1.07
-0.995
-1.02
-0.86
-0.8
-0.825
-0.845
-0.91
-1.025
-1.05
-1.095
-1.095
-0.925
-0.8
-0.79
-0.835
-0.875
-0.905
-1.075
-1.2
-1.04
-0.975
-0.995
-0.865
-0.805
-0.775
-0.86
-0.965
-1.02
-1.045
-1.045
-1.02
-0.93
-0.835
-0.815
-0.785
-0.705
-0.98
-1.05
-1.075
-1.12
-0.955
-0.87
-0.82
-0.775
-0.775
-0.795
-0.89
-0.94
-1.015
-0.97
-0.885
-0.785
-0.695
-0.745
-0.67
-0.65
-0.875
-0.935
-0.895
-0.84
-0.875
-0.74
-0.54
-0.595
-0.575
-0.655
-0.725
-0.88
-0.825
-0.8
-0.875
-0.695
-0.55
-0.51
-0.565
-0.675
-0.82
-0.83
-0.87
-0.725
-0.755
-0.725
-0.67
-0.61
-0.62
-0.71
-0.79
-0.83
-1.045
-0.9
-0.775
-0.75
-0.705
-0.685
-0.755
-0.785
-0.91
-1.005
-1.02
-0.98
-1.085
-0.905
-0.81
-0.805
-0.88
-0.855
-0.96
-1.075
-1.08
-1.035
-0.945
-0.92
-0.815
-0.955
-0.845
-0.83
-1.005
-1.195
-1.175
-1.15
-0.98
-0.915
-0.82
-0.805
-0.885
-0.93
-1.025
-1.085
-1.125
-1.065
-1.02
-0.925
-0.845
-0.79
-0.845
-0.885
-1.105
-1.115
-1.145
-1.125
-0.975
-0.87
-0.835
-0.8
-0.835
-0.97
-0.965
-1.15
-1.105
-1.04
-1.06
-0.875
-0.855
-0.82
-0.84
-0.99
-1.165
-1.175
-1.035
-1.055
-0.985
-0.82
-0.735
-0.855
-0.905
-1.0
-1.055
-1.1
-1.085
-1.135
-1.05
-0.825
-0.805
-0.825
-0.925
-0.985
-1.025
-1.085
-1.125
-1.115
-0.995
-0.875
-0.87
-0.87
-0.86
-1.025
-1.12
-1.125
-1.14
-1.095
-0.94
-0.925
-0.85
-0.875
-0.92
-1.04
-1.125
-1.145
-1.115
-1.1
-0.99
-0.91
-0.95
-0.925
-0.94
-1.04
-1.12
-1.15
-1.13
-1.09
-1.04
-0.93
-0.895
-0.885
-0.955
-1.07
-1.11
-1.205
-1.13
-1.03
-1.0
-0.935
-0.91
-0.905
-0.965
-1.08
-1.145
-1.155
-1.115
-1.135
-1.08
-0.86
-0.925
-1.035
-0.945
-1.075
-1.215
-1.13
-1.155
-1.125
-0.995
-0.94
-0.9
-0.985
-1.01
-1.11
-1.12
-1.215
-1.175
-1.105
-0.99
-1.015
-0.915
-0.865
-0.97
-1.075
-1.22
-1.18
-1.21
-1.05
-0.975
-1.065
-0.91
-0.935
-1.04
-1.1
-1.235
-1.2
-1.06
-1.1
-0.93
-0.845
-0.895
-0.94
-0.985
-1.16
-1.175
-1.145
-1.185
-1.005
-0.885
-0.88
-0.845
-0.925
-0.95
-1.03
-1.14
-1.2
-1.15
-1.105
-0.955
-0.935
-0.93
-1.035
-1.085
-1.14
-1.275
-1.225
-1.135
-1.01
-1.015
-0.985
-0.96
-1.08
-1.085
-1.165
-1.255
-1.205
-1.165
-1.09
-1.09
-0.965
-0.94
-1.02
-1.06
-1.21
-1.255
-1.205
-1.15
-1.115
-1.0
-0.995
-1.04
-0.975
-1.175
-1.24
-1.245
-1.26
-1.205
-1.08
-0.945
-0.895
-1.0
-1.015
-1.255
-1.275
-1.25
-1.2
-1.21
-1.04
-1.025
-1.025
-0.935
-0.97
-1.045
-1.065
-1.085
-1.06
-0.91
-0.71
-0.555
-0.54
-0.565
-0.705
-0.795
-0.975
-1.125
-1.125
-1.01
-1.055
-1.05
-1.09
-1.175
-1.285
-1.34
-1.46
-1.52
-1.48
-1.385
-1.28
-1.135
-1.01
-1.165
-1.14
-1.18
-1.23
-1.295
-1.21
-1.285
-1.065
-0.935
-1.04
-1.035
-1.13
-1.215
-1.23
-1.21
-1.16
-1.21
-1.03
-0.975
-1.055
-0.965
-1.07
-1.17
-1.265
-1.26
-1.145
-1.195
-1.09
-0.93
-1.02
-0.94
-1.055
-1.12
-1.2
-1.145
-1.245
-1.115
-1.105
-0.985
-0.95
-1.045
-1.0
-1.19
-1.225
-1.245
-1.125
-1.03
-1.04
-1.01
-0.895
-0.985
-1.045
-1.16
-1.21
-1.18
-1.18
-1.04
-1.05
-0.905
-0.93
-0.925
-1.015
-1.125
-1.145
-1.165
-1.12
-0.985
-0.875
-0.83
-0.9
-1.04
-0.885
-1.02
-1.135
-0.985
-0.975
-0.915
-0.84
-0.765
-0.795
-0.745
-0.725
-0.925
-0.995
-0.945
-0.845
-0.885
-0.725
-0.61
-0.645
-0.65
-0.865
-0.905
-0.99
-0.92
-0.9
-0.82
-0.71
-0.69
-0.765
-0.835
-0.905
-1.055
-1.005
-1.01
-0.985
-0.88
-0.77
-0.835
-0.8
-0.875
-0.995
-1.07
-1.165
-1.085
-1.135
-1.025
-0.86
-0.88
-0.97
-1.025
-1.05
-1.21
-1.24
-1.135
-1.095
-1.04
-0.915
-0.975
-1.025
-1.065
-1.15
-1.255
-1.295
-1.22
-1.235
-1.085
-0.935
-0.935
-0.995
-1.08
-1.15
-1.275
-1.265
-1.225
-1.18
-0.98
-1.0
-1.04
-1.02
-1.08
-1.12
-1.22
-1.3
-1.09
-1.145
-1.11
-0.97
-0.99
-1.025
-1.025
-1.175
-1.285
-1.18
-1.22
-1.155
-1.08
-0.945
-0.99
-1.015
-1.08
-1.11
-1.235
-1.275
-1.235
-1.15
-1.08
-0.97
-1.0
-1.1
-1.14
-1.12
-1.17
-1.205
-1.21
-1.105
-1.055
-1.04
-1.0
-1.075
-0.985
-1.16
-1.28
-1.23
-1.17
-1.09
-1.095
-1.05
-0.965
-0.935
-1.0
-1.195
-1.295
-1.22
-1.22
-1.105
-0.97
-0.945
-0.985
-1.045
-1.105
-1.225
-1.22
-1.22
-1.295
-1.12
-1.015
-0.955
-0.985
-1.05
-1.15
-1.215
-1.26
-1.155
-1.23
-1.165
-1.0
-0.97
-0.925
-1.005
-1.145
-1.25
-1.255
-1.205
-1.23
-1.125
-1.075
-1.005
-1.095
-1.03
-1.14
-1.21
-1.175
-1.245
-1.21
-1.12
-0.87
-0.945
-0.975
-1.03
-1.155
-1.27
-1.265
-1.235
-1.215
-1.16
-1.045
-0.925
-1.055
-0.935
-1.135
-1.235
-1.285
-1.225
-1.175
-1.045
-1.095
-0.94
-1.015
-1.12
-1.22
-1.195
-1.255
-1.205
-1.245
-1.03
-0.95
-0.945
-0.98
-1.135
-1.17
-1.225
-1.26
-1.195
-1.2
-1.0
-1.03
-1.03
-1.01
-0.99
-1.135
-1.28
-1.25
-1.15
-1.185
-1.245
-0.9
-0.92
-0.975
-1.08
-1.17
-1.185
-1.255
-1.215
-1.075
-1.07
-0.95
-1.025
-0.94
-0.975
-1.135
-1.205
-1.16
-1.08
-1.1
-1.03
-0.9
-0.875
-0.98
-0.945
-1.16
-1.155
-1.16
-1.125
-1.12
-0.985
-0.885
-0.87
-0.945
-1.02
-1.095
-1.2
-1.24
-1.165
-1.065
-0.93
-0.91
-0.835
-1.08
-1.1
-1.2
-1.255
-1.245
-1.16
-1.075
-1.035
-0.945
-0.985
-1.04
-1.175
-1.23
-1.08
-1.18
-1.185
-1.155
-0.99
-0.87
-1.03
-0.94
-1.105
-1.19
-1.185
-1.205
-1.24
-1.045
-0.875
-0.9
-0.985
-0.925
-1.065
-1.28
-1.305
-1.15
-1.175
-1.055
-0.97
-0.87
-0.945
-1.055
-1.135
-1.145
-1.195
-1.09
-1.12
-1.1
-1.04
-0.9
-0.92
-0.85
-0.875
-0.93
-1.0
-0.875
-0.705
-0.695
-0.525
-0.375
-0.53
-0.75
-0.925
-1.08
-1.16
-1.135
-1.215
-1.14
-1.135
-1.155
-1.205
-1.19
-1.27
-1.275
-1.345
-1.285
-1.26
-1.14
-1.09
-0.97
-1.04
-0.955
-1.08
-1.2
-1.29
-1.16
-1.065
-0.955
-0.925
-0.86
-0.96
-0.98
-1.12
-1.165
-1.24
-1.075
-0.965
-1.035
-0.87
-0.885
-1.085
-0.91
-1.075
-1.045
-1.225
-1.045
-1.07
-0.925
-0.825
-0.86
-0.86
-0.96
-1.04
-1.165
-1.16
-1.095
-0.985
-0.935
-0.875
-0.86
-0.855
-0.925
-1.0
-1.18
-1.155
-1.07
-0.995
-0.88
-0.785
-0.885
-0.865
-0.905
-1.025
-1.07
-1.055
-1.035
-1.01
-0.845
-0.8
-0.775
-0.755
-0.85
-1.005
-1.03
-1.12
-0.985
-0.89
-0.75
-0.685
-0.675
-0.67
-0.775
-0.935
-0.935
-0.875
-0.885
-0.735
-0.665
-0.55
-0.595
-0.58
-0.72
-0.81
-0.785
-0.775
-0.7
-0.695
-0.58
-0.49
-0.53
-0.555
-0.555
-0.73
-0.875
-0.78
-0.775
-0.675
-0.515
-0.56
-0.63
-0.62
-0.655
-0.83
-0.91
-0.885
-0.885
-0.875
-0.635
-0.6
-0.64
-0.655
-0.8
-0.96
-1.11
-0.96
-0.93
-0.78
-0.76
-0.69
-0.755
-0.84
-0.86
-1.02
-1.04
-1.07
-1.0
-0.88
-0.825
-0.835
-0.76
-0.915
-0.935
-1.005
-1.115
-1.06
-0.93
-0.92
-0.83
-0.765
-0.82
-0.865
-0.94
-1.045
-1.06
-1.02
-0.985
-0.97
-0.805
-0.75
-0.805
-0.85
-0.97
-1.065
-1.125
-1.025
-0.995
-0.88
-0.79
-0.79
-0.84
-0.83
-0.915
-1.1
-1.105
-1.015
-0.925
-0.88
-0.685
-0.79
-0.895
-0.905
-0.995
-1.06
-1.005
-1.12
-0.945
-0.785
-0.805
-0.78
-0.795
-0.885
-0.965
-1.07
-1.03
-1.03
-0.98
-0.785
-0.82
-0.77
-0.76
-0.805
-1.045
-1.09
-1.065
-0.945
-1.01
-0.84
-0.785
-0.735
-0.8
-0.885
-1.01
-1.035
-1.02
-1.005
-0.955
-0.86
-0.73
-0.785
-0.84
-0.88
-0.995
-1.08
-1.1
-0.975
-0.8
-0.865
-0.745
-0.825
-0.81
-0.895
-1.02
-1.055
-1.045
-1.0
-0.94
-0.86
-0.79
-0.77
-0.775
-0.935
-1.01
-1.045
-1.03
-0.985
-0.955
-0.82
-0.735
-0.745
-0.765
-0.925
-1.075
-1.07
-1.125
-0.96
-0.955
-0.795
-0.775
-0.795
-0.895
-0.92
-1.035
-1.06
-0.985
-1.02
-0.965
-0.83
-0.78
-0.705
-0.835
-0.95
-0.96
-1.145
-1.12
-0.97
-0.91
-0.8
-0.75
-0.745
-0.83
-0.93
-1.055
-1.065
-1.0
-0.985
-0.905
-0.84
-0.73
-0.785
-0.855
-0.97
-1.03
-1.045
-0.99
-0.87
-0.82
-0.84
-0.815
-0.84
-0.835
-0.94
-1.05
-0.97
-1.02
-0.965
-0.865
-0.775
-0.78
-0.755
-0.835
-0.955
-1.035
-1.015
-1.02
-0.94
-0.85
-0.855
-0.73
-0.765
-0.85
-1.0
-0.945
-1.035
-1.04
-0.925
-0.835
-0.77
-0.725
-0.79
-0.86
-0.925
-0.98
-0.925
-0.975
-0.935
-0.815
-0.68
-0.64
-0.785
-0.85
-0.935
-1.01
-1.025
-0.99
-0.84
-0.825
-0.71
-0.68
-0.715
-0.74
-0.87
-0.985
-0.89
-0.9
-0.82
-0.72
-0.815
-0.71
-0.74
-0.895
-0.885
-0.825
-0.985
-0.99
-0.82
-0.79
-0.735
-0.79
-0.825
-0.81
-0.96
-1.045
-1.005
-0.88
-0.88
-0.825
-0.71
-0.715
-0.755
-0.87
-1.03
-1.045
-0.985
-0.925
-0.8
-0.7
-0.74
-0.805
-0.785
-0.875
-1.01
-1.015
-1.05
-1.015
-0.835
-0.84
-0.73
-0.76
-0.755
-0.85
-1.04
-1.03
-1.01
-0.96
-0.92
-0.79
-0.725
-0.765
-0.785
-0.94
-0.95
-0.99
-0.945
-0.94
-0.92
-0.73
-0.715
-0.66
-0.75
-0.7
-0.775
-0.845
-0.77
-0.665
-0.41
-0.375
-0.425
-0.46
-0.515
-0.675
-0.9
-0.915
-0.99
-0.96
-0.975
-0.87
-0.84
-0.935
-1.02
-1.13
-1.175
-1.245
-1.2
-1.045
-0.945
-0.83
-0.9
-0.805
-0.875
-0.93
-1.085
-1.03
-1.045
-0.915
-0.84
-0.685
-0.735
-0.785
-0.715
-0.96
-0.94
-0.97
-0.965
-0.87
-0.83
-0.75
-0.755
-0.78
-0.82
-0.875
-1.025
-1.035
-0.91
-0.86
-0.77
-0.675
-0.67
-0.73
-0.805
-0.92
-1.005
-1.01
-0.94
-0.88
-0.785
-0.65
-0.755
-0.765
-0.765
-0.925
-0.965
-0.87
-0.925
-0.86
-0.735
-0.65
-0.67
-0.735
-0.78
-0.875
-0.94
-0.91
-0.87
-0.775
-0.625
-0.61
-0.62
-0.68
-0.77
-0.855
-0.875
-0.84
-0.9
-0.72
-0.57
-0.57
-0.54
-0.585
-0.71
-0.785
-0.845
-0.72
-0.79
-0.695
-0.49
-0.43
-0.5
-0.545
-0.57
-0.69
-0.745
-0.695
-0.6
-0.55
-0.49
-0.455
-0.44
-0.495
-0.475
-0.58
-0.705
-0.655
-0.64
-0.53
-0.39
-0.405
-0.51
-0.525
-0.615
-0.725
-0.815
-0.775
-0.695
-0.67
-0.63
-0.575
-0.565
-0.61
-0.7
-0.835
-0.855
-0.81
-0.83
-0.775
-0.58
-0.635
-0.675
-0.695
-0.83
-0.965
-0.895
-0.925
-0.825
-0.605
-0.725
-0.7
-0.72
-0.78
-0.865
-1.075
-1.015
-0.89
-0.895
-0.765
-0.75
-0.665
-0.72
-0.8
-0.89
-1.01
-0.915
-0.905
-0.885
-0.755
-0.69
-0.72
-0.715
-0.815
-0.92
-0.905
-0.9
-0.93
-0.895
-0.735
-0.71
-0.625
-0.805
-0.69
-0.84
-0.985
-0.94
-0.97
-0.875
-0.74
-0.65
-0.645
-0.82
-0.84
-0.795
-1.0
-0.975
-0.94
-0.875
-0.75
-0.715
-0.71
-0.755
-0.77
-0.885
-0.935
-0.98
-0.87
-0.87
-0.75
-0.705
-0.71
-0.755
-0.86
-0.87
-0.985
-0.935
-0.84
-0.89
-0.77
-0.75
-0.74
-0.74
-0.84
-0.94
-0.995
-0.875
-1.1
-0.915
-0.7
-0.725
-0.7
-0.78
-0.8
-0.905
-1.0
-1.02
-0.935
-0.93
-0.83
-0.705
-0.74
-0.79
-0.89
-0.97
-0.955
-0.995
-0.955
-0.825
-0.745
-0.71
-0.66
-0.8
-0.845
-0.94
-1.065
-1.01
-0.98
-0.915
-0.735
-0.715
-0.775
-0.84
-0.84
-0.995
-0.925
-0.975
-0.95
-0.865
-0.74
-0.745
-0.81
-0.79
-0.845
-1.04
-1.085
-1.02
-0.94
-0.85
-0.785
-0.755
-0.78
-0.815
-0.945
-1.005
-1.0
-0.945
-0.95
-0.935
-0.74
-0.7
-0.81
-0.795
-0.855
-1.08
-1.03
-0.98
-0.92
-0.81
-0.8
-0.78
-0.755
-0.845
-0.98
-0.88
-1.035
-1.01
-0.905
-0.705
-0.82
-0.76
-0.775
-0.77
-0.945
-1.01
-1.015
-0.955
-0.945
-0.785
-0.675
-0.665
-0.775
-0.78
-0.81
-0.93
-1.01
-0.865
-0.88
-0.815
-0.69
-0.71
-0.78
-0.765
-0.895
-0.99
-0.955
-0.955
-0.95
-0.715
-0.72
-0.765
-0.855
-0.795
-0.935
-1.06
-1.005
-0.905
-0.965
-0.75
-0.73
-0.79
-0.82
-0.825
-0.95
-1.07
-1.01
-0.96
-0.89
-0.79
-0.835
-0.765
-0.83
-0.88
-0.985
-1.005
-1.035
-1.01
-0.925
-0.82
-0.82
-0.74
-0.745
-0.935
-1.055
-1.015
-1.04
-1.045
-0.855
-0.78
-0.725
-0.81
-0.805
-0.935
-0.935
-0.95
-1.015
-1.055
-0.97
-0.81
-0.815
-0.705
-0.8
-0.86
-0.83
-0.87
-0.94
-0.83
-0.655
-0.55
-0.37
-0.455
-0.44
-0.675
-0.88
-0.915
-0.95
-0.93
-0.92
-0.83
-0.975
-0.995
-1.125
-1.165
-1.15
-1.24
-1.19
-1.185
-1.03
-0.97
-0.92
-0.87
-0.85
-1.005
-1.125
-1.06
-0.925
-0.93
-0.945
-0.865
-0.795
-0.77
-0.875
-0.99
-1.075
-1.02
-1.065
-1.035
-0.865
-0.735
-0.71
-0.755
-0.77
-1.0
-1.19
-0.965
-0.96
-1.05
-0.885
-0.78
-0.735
-0.805
-0.785
-0.945
-1.005
-1.05
-1.015
-0.855
-0.8
-0.75
-0.695
-0.88
-1.015
-0.845
-1.065
-1.04
-0.875
-0.93
-0.825
-0.73
-0.745
-0.795
-0.83
-0.93
-0.94
-1.01
-0.95
-0.905
-0.81
-0.785
-0.72
-0.775
-0.805
-0.845
-0.95
-0.99
-0.925
-0.9
-0.76
-0.62
-0.705
-0.675
-0.735
-0.865
-0.96
-0.97
-0.835
-0.7
-0.64
-0.545
-0.56
-0.615
-0.665
-0.8
-0.825
-0.815
-0.76
-0.71
-0.58
-0.57
-0.51
-0.565
-0.61
-0.655
-0.8
-0.805
-0.8
-0.67
-0.555
-0.53
-0.53
-0.63
-0.665
-0.815
-0.885
-0.88
-0.85
-0.82
-0.705
-0.66
-0.635
-0.675
-0.74
-0.91
-0.97
-0.965
-0.93
-0.825
-0.78
-0.705
-0.715
-0.805
-0.875
-0.92
-1.08
-1.03
-0.945
-0.835
-0.79
-0.72
-0.81
-0.865
-0.925
-0.99
-0.985
-1.05
-0.99
-0.895
-0.835
-0.825
-0.79
-0.825
-0.915
-1.015
-1.09
-1.05
-1.065
-0.925
-0.775
-0.795
-0.825
-0.89
-1.005
-1.08
-1.085
-1.02
-0.855
-0.835
-0.955
-0.8
-0.795
-0.89
-0.93
-1.025
-0.99
-0.955
-0.98
-0.905
-0.86
-0.78
-0.84
-0.81
-0.93
-1.01
-1.1
-1.07
-0.89
-0.895
-0.86
-0.77
-0.78
-0.865
-0.92
-0.975
-1.095
-0.96
-0.97
-0.89
-0.725
-0.77
-0.845
-0.86
-1.02
-1.045
-1.045
-1.02
-0.96
-0.87
-0.815
-0.78
-0.825
-0.895
-0.99
-1.04
-1.115
-1.005
-0.96
-0.895
-0.815
-0.905
-0.78
-0.83
-0.985
-1.065
-1.1
-1.045
-0.975
-0.84
-0.805
-0.775
-0.885
-0.97
-1.025
-1.05
-1.085
-1.07
-0.985
-0.9
-0.88
-0.875
-0.815
-0.93
-0.97
-1.11
-1.085
-1.06
-0.99
-0.815
-0.725
-0.83
-0.855
-1.01
-1.075
-1.055
-1.085
-1.045
-0.945
-0.97
-0.8
-0.825
-0.785
-0.925
-1.11
-1.085
-1.07
-0.995
-0.985
-0.835
-0.83
-0.865
-0.915
-0.97
-1.065
-1.11
-1.14
-1.095
-0.945
-0.88
-0.84
-0.76
-0.88
-0.98
-1.13
-1.095
-1.09
-1.05
-0.87
-0.87
-0.795
-0.795
-0.89
-0.985
-1.065
-1.11
-0.995
-1.0
-0.92
-0.77
-0.75
-0.855
-0.805
-0.865
-1.055
-1.03
-1.08
-0.975
-0.905
-0.795
-0.8
-0.855
-0.875
-0.91
-1.06
-1.07
-1.07
-1.02
-0.895
-0.845
-0.85
-0.82
-0.875
-1.035
-1.105
-1.115
-1.035
-1.085
-0.995
-0.765
-0.735
-0.975
-0.935
-1.01
-1.075
-1.075
-1.1
-1.11
-0.885
-0.82
-0.765
-0.915
-0.98
-1.06
-1.065
-1.06
-1.07
-1.025
-0.865
-0.84
-0.855
-0.84
-0.95
-1.05
-1.12
-1.07
-1.1
-1.04
-0.925
-0.805
-0.87
-0.85
-0.91
-1.01
-1.09
-1.13
-1.045
-1.005
-0.905
-0.79
-0.735
-0.735
-0.78
-0.905
-0.85
-0.675
-0.625
-0.645
-0.59
-0.575
-0.605
-0.685
-0.8
-0.95
-1.145
-1.135
-1.09
-1.08
-1.02
-1.025
-1.06
-1.1
-1.205
-1.235
-1.285
-1.22
-1.185
-1.07
-0.985
-0.895
-0.855
-0.88
-0.995
-1.19
-1.085
-1.1
-1.04
-1.025
-0.875
-0.915
-0.86
-0.925
-0.935
-1.1
-1.12
-1.07
-1.065
-0.995
-0.845
-0.88
-0.81
-0.905
-0.935
-1.075
-1.05
-1.055
-1.065
-0.94
-0.86
-0.87
-0.885
-0.88
-0.91
-1.095
-1.095
-1.12
-1.005
-0.915
-0.945
-0.81
-0.9
-0.92
-0.96
-1.065
-1.05
-1.05
-0.92
-0.84
-0.865
-0.845
-0.855
-0.9
-0.995
-1.035
-1.055
-1.015
-1.075
-0.935
-0.76
-0.785
-0.81
-0.805
-0.93
-0.945
-0.99
-0.96
-0.95
-0.81
-0.72
-0.725
-0.66
-0.745
-0.895
-0.945
-0.895
-0.885
-0.885
-0.76
-0.61
-0.585
-0.625
-0.705
-0.765
-0.81
-0.785
-0.76
-0.905
-0.615
-0.56
-0.54
-0.635
-0.695
-0.73
-0.85
-0.89
-0.805
-0.8
-0.68
-0.565
-0.52
-0.66
-0.75
-0.885
-0.905
-0.965
-0.885
-0.92
-0.73
-0.65
-0.7
-0.785
-0.79
-0.955
-1.0
-1.0
-0.985
-0.935
-0.705
-0.83
-0.92
-0.855
-0.785
-1.07
-1.2
-1.085
-1.005
-0.935
-0.9
-0.875
-0.84
-0.865
-0.88
-1.035
-1.055
-1.105
-1.1
-1.08
-0.9
-0.875
-0.84
-0.885
-0.875
-1.14
-1.115
-1.02
-1.085
-0.985
-0.845
-0.89
-0.955
-0.86
-1.01
-1.03
-1.115
-1.095
-1.115
-1.0
-0.835
-0.81
-0.885
-0.885
-0.935
-1.115
-1.155
-1.14
-1.095
-0.91
-0.885
-0.77
-0.8
-0.89
-0.99
-1.065
-1.065
-1.1
-1.075
-0.885
-0.765
-0.86
-0.85
-0.9
-1.0
-1.13
-1.12
-1.12
-1.035
-0.935
-0.84
-0.815
-0.895
-0.88
-0.985
-1.12
-1.15
-1.16
-0.98
-0.935
-0.94
-0.855
-0.87
-0.9
-0.99
-1.12
-1.125
-1.085
-1.055
-0.99
-0.865
-0.845
-0.885
-0.925
-1.07
-1.13
-1.12
-1.085
-1.025
-0.97
-0.85
-0.805
-0.905
-1.08
-1.035
-1.11
-1.18
-1.13
-1.03
-0.975
-0.81
-0.79
-0.82
-0.935
-1.11
-1.065
-1.27
-1.165
-1.11
-0.92
-0.825
-0.895
-0.935
-0.93
-1.05
-1.165
-1.14
-1.075
-1.1
-0.975
-0.875
-0.84
-0.89
-1.04
-1.185
-1.19
-1.11
-1.04
-1.04
-0.985
-0.83
-0.91
-0.935
-0.985
-1.105
-1.12
-1.16
-1.16
-1.065
-0.975
-0.875
-0.89
-0.845
-0.97
-1.135
-1.11
-1.205
-1.125
-1.03
-0.93
-0.875
-0.82
-0.865
-1.02
-1.08
-1.165
-1.115
-1.095
-1.03
-0.95
-0.89
-0.82
-0.895
-0.985
-1.135
-1.2
-1.1
-1.04
-0.89
-0.925
-0.84
-0.87
-0.915
-0.905
-1.045
-1.02
-1.075
-1.08
-0.93
-0.92
-0.79
-0.785
-0.945
-0.965
-1.135
-1.125
-1.11
-1.04
-0.94
-0.865
-0.84
-0.875
-0.93
-1.07
-1.185
-1.135
-1.095
-1.07
-0.985
-0.9
-0.895
-0.915
-0.99
-1.0
-1.14
-1.18
-1.18
-1.05
-0.92
-0.885
-0.885
-0.875
-0.895
-1.07
-1.115
-1.175
-1.215
-1.13
-0.96
-0.88
-0.86
-0.945
-0.95
-1.07
-1.185
-1.155
-1.195
-1.115
-0.91
-0.9
-0.845
-0.89
-1.015
-1.065
-1.125
-1.235
-1.25
-1.06
-0.94
-0.865
-0.83
-0.87
-0.855
-0.875
-0.935
-0.96
-0.865
-0.695
-0.58
-0.515
-0.49
-0.575
-0.635
-0.9
-0.97
-1.125
-1.155
-1.145
-0.99
-0.89
-1.08
-1.075
-1.235
-1.41
-1.34
-1.24
-1.32
-1.27
-1.005
-1.025
-1.0
-0.97
-1.005
-1.095
-1.23
-1.21
-1.145
-1.065
-0.95
-0.95
-0.85
-0.875
-0.995
-1.125
-1.1
-1.125
-1.145
-1.08
-0.945
-0.94
-0.825
-0.855
-0.955
-1.16
-1.17
-1.17
-1.11
-1.055
-0.9
-0.85
-0.865
-0.915
-0.985
-1.065
-1.175
-1.135
-1.075
-1.045
-0.895
-0.895
-0.845
-0.955
-1.04
-1.05
-1.155
-1.16
-1.095
-1.01
-0.905
-0.775
-0.77
-0.975
-1.03
-1.05
-1.11
-1.065
-1.055
-0.925
-0.87
-0.8
-0.895
-0.87
-0.945
-1.115
-1.255
-0.965
-0.94
-0.895
-0.815
-0.635
-0.72
-0.835
-0.865
-0.985
-1.095
-0.935
-0.85
-0.715
-0.655
-0.675
-0.625
-0.64
-0.77
-0.845
-0.89
-0.86
-0.86
-0.645
-0.595
-0.575
-0.625
-0.665
-0.76
-0.815
-0.825
-0.745
-0.745
-0.655
-0.595
-0.625
-0.67
-0.695
-0.77
-0.87
-0.92
-0.855
-0.89
-0.75
-0.595
-0.61
-0.735
-0.845
-0.875
-1.01
-1.09
-0.94
-0.915
-0.83
-0.815
-0.795
-0.825
-0.925
-1.02
-1.06
-1.105
-1.03
-1.035
-0.95
-0.92
-0.88
-0.81
-0.915
-0.985
-1.16
-1.145
-1.095
-1.055
-0.905
-0.845
-0.79
-0.935
-0.96
-1.055
-1.135
-1.13
-1.075
-1.05
-0.89
-0.915
-0.835
-0.86
-0.9
-1.06
-1.135
-1.17
-1.135
-1.015
-0.94
-0.88
-0.86
-0.935
-0.99
-1.09
-1.09
-1.145
-1.105
-1.005
-0.895
-0.84
-0.825
-0.845
-0.965
-1.035
-1.13
-1.21
-1.13
-0.935
-0.84
-0.88
-0.865
-0.91
-0.98
-1.07
-1.16
-1.095
-1.045
-1.025
-0.89
-0.855
-0.895
-0.89
-1.03
-1.06
-1.085
-1.08
-1.19
-1.005
-0.89
-0.85
-0.875
-0.89
-1.055
-1.18
-1.145
-1.05
-1.005
-1.055
-0.85
-0.88
-0.91
-0.95
-1.005
-1.095
-1.165
-1.055
-1.06
-0.985
-0.865
-0.9
-0.955
-0.985
-1.04
-1.1
-1.155
-1.055
-1.1
-0.995
-0.875
-0.885
-0.895
-0.885
-1.065
-1.125
-1.2
-1.075
-1.055
-0.95
-0.905
-0.84
-0.87
-0.915
-1.17
-1.145
-1.165
-1.13
-1.015
-1.02
-0.83
-0.8
-0.86
-0.93
-1.04
-1.225
-1.125
-1.1
-1.04
-0.95
-0.93
-0.94
-0.93
-0.92
-1.02
-1.145
-1.19
-1.13
-1.09
-0.975
-0.91
-0.865
-0.74
-0.96
-1.12
-1.075
-1.15
-1.05
-1.055
-0.965
-0.95
-0.95
-1.015
-0.92
-1.005
-1.145
-1.125
-1.115
-1.155
-0.96
-0.865
-0.845
-0.785
-0.9
-1.1
-1.215
-1.175
-1.12
-1.09
-0.89
-0.83
-0.83
-0.94
-0.945
-1.135
-1.195
-1.1
-1.0
-1.025
-0.885
-0.815
-0.79
-0.885
-0.935
-0.99
-1.08
-1.11
-1.04
-0.965
-0.79
-0.895
-0.905
-0.875
-0.92
-1.09
-1.135
-1.155
-0.995
-1.02
-0.905
-0.85
-0.88
-0.89
-1.04
-1.13
-1.135
-1.165
-1.195
-1.005
-0.95
-0.785
-0.905
-0.98
-1.085
-1.12
-1.15
-1.125
-1.115
-1.04
-0.845
-0.94
-0.905
-0.96
-1.075
-1.145
-1.145
-1.22
-1.145
-1.03
-0.975
-0.98
-0.9
-0.855
-1.065
-1.135
-1.175
-1.205
-0.995
-0.955
-0.93
-0.94
-0.95
-1.0
-1.045
-1.08
-1.185
-1.195
-1.09
-0.98
-0.885
-0.86
-0.885
-0.91
-0.97
-1.02
-1.015
-0.96
-0.795
-0.64
-0.405
-0.42
-0.49
-0.585
-0.69
-0.815
-1.025
-1.05
-1.035
-0.945
-0.965
-1.005
-1.08
-1.175
-1.32
-1.36
-1.39
-1.305
-1.26
-1.185
-1.045
-0.99
-1.03
-1.065
-1.11
-1.175
-1.17
-1.11
-1.055
-0.97
-0.965
-0.915
-0.91
-1.065
-1.16
-1.13
-1.14
-1.09
-0.995
-0.91
-0.845
-0.845
-0.955
-0.94
-1.065
-1.125
-1.16
-1.08
-1.09
-1.0
-0.885
-0.95
-0.89
-0.975
-1.075
-1.13
-1.07
-1.05
-1.05
-0.945
-0.87
-0.86
-0.865
-0.93
-1.08
-1.105
-1.065
-1.055
-1.095
-0.92
-0.745
-0.83
-0.92
-0.965
-1.055
-1.14
-1.015
-0.98
-0.935
-0.8
-0.835
-0.74
-0.865
-0.78
-0.96
-1.165
-1.06
-1.0
-0.86
-0.855
-0.76
-0.73
-0.755
-0.845
-0.96
-0.95
-0.94
-0.8
-0.835
-0.755
-0.615
-0.585
-0.585
-0.745
-0.88
-0.875
-0.775
-0.765
-0.695
-0.54
-0.515
-0.555
-0.58
-0.72
-0.785
-0.835
-0.745
-0.8
-0.63
-0.54
-0.54
-0.7
-0.7
-0.71
-0.81
-0.855
-0.86
-0.73
-0.8
-0.575
-0.675
-0.63
-0.69
-0.845
-0.95
-1.01
-0.905
-0.93
-0.83
-0.75
-0.675
-0.8
-0.795
-0.93
-1.03
-1.08
-1.085
-0.9
-0.85
-0.84
-0.825
-0.935
-0.85
-0.97
-1.035
-1.135
-1.075
-0.965
-0.91
-0.825
-0.805
-0.955
-0.945
-0.925
-1.045
-1.13
-1.05
-1.09
-0.94
-1.055
-0.91
-0.795
-0.83
-1.045
-1.11
-1.055
-1.07
-1.06
-0.97
-0.765
-0.835
-0.835
-0.885
-1.11
-1.225
-1.145
-1.045
-1.005
-0.82
-0.75
-0.81
-0.885
-0.945
-0.98
-1.015
-1.045
-1.045
-0.94
-0.805
-0.93
-0.99
-0.845
-0.93
-0.98
-1.035
-1.05
-1.01
-0.965
-0.865
-0.8
-0.815
-0.94
-1.005
-1.09
-0.985
-1.005
-1.005
-0.965
-0.875
-0.85
-0.875
-0.885
-0.88
-1.07
-1.16
-1.105
-1.01
-0.92
-0.795
-0.805
-0.925
-0.86
-0.885
-1.065
-1.185
-1.075
-1.19
-1.045
-0.87
-0.795
-0.865
-0.875
-0.89
-1.07
-1.145
-1.09
-0.985
-0.995
-0.86
-0.815
-0.86
-0.945
-1.015
-1.045
-1.09
-1.11
-1.13
-1.045
-0.83
-0.855
-0.825
-0.87
-0.96
-1.03
-1.135
-1.14
-1.065
-0.88
-0.875
-0.79
-0.86
-0.985
-1.005
-1.145
-1.09
-1.085
-0.995
-0.98
-0.9
-0.795
-0.92
-0.925
-1.04
-1.13
-1.155
-1.065
-0.985
-0.945
-0.775
-0.77
-0.885
-0.82
-0.995
-1.2
-1.195
-1.14
-1.02
-0.95
-0.895
-0.775
-0.825
-0.95
-1.01
-1.035
-1.16
-1.12
-0.89
-0.91
-0.83
-0.89
-0.895
-0.98
-1.01
-1.22
-1.095
-1.03
-0.98
-0.85
-0.825
-0.84
-0.86
-0.91
-1.03
-1.05
-1.015
-1.085
-1.155
-0.855
-0.75
-0.84
-0.79
-0.97
-1.05
-1.145
-1.09
-1.04
-0.975
-0.865
-0.77
-0.745
-0.86
-0.84
-0.925
-1.09
-1.055
-0.955
-0.92
-0.805
-0.705
-0.785
-0.85
-0.9
-1.035
-1.06
-1.015
-0.99
-0.895
-0.77
-0.78
-0.81
-1.045
-0.885
-1.0
-1.065
-1.05
-1.035
-0.93
-0.79
-0.84
-0.815
-0.87
-0.96
-1.11
-1.14
-1.07
-1.035
-0.98
-0.82
-0.82
-0.84
-0.83
-0.97
-1.04
-1.105
-1.085
-1.015
-0.975
-0.92
-0.85
-0.77
-0.83
-0.985
-1.07
-1.07
-1.135
-1.065
-0.845
-0.805
-0.825
-0.88
-0.94
-0.965
-1.12
-1.14
-1.125
-1.06
-0.915
-0.75
-0.875
-0.885
-0.915
-0.925
-1.015
-1.015
-0.945
-0.885
-0.835
-0.64
-0.45
-0.585
-0.59
-0.56
-0.765
-0.935
-0.85
-0.855
-0.885
-0.81
-0.965
-0.985
-0.99
-1.145
-1.195
-1.275
-1.265
-1.12
-1.09
-1.09
-1.085
-0.98
-0.92
-1.145
-1.125
-1.16
-1.105
-1.04
-0.95
-0.795
-0.735
-0.88
-0.92
-1.085
-1.005
-1.0
-0.985
-1.015
-0.915
-0.79
-0.74
-0.85
-0.93
-0.985
-1.125
-1.105
-1.015
-0.93
-0.865
-0.835
-0.775
-0.755
-0.89
-1.025
-1.05
-1.055
-1.075
-1.015
-0.805
-0.81
-0.745
-0.815
-0.92
-1.065
-0.975
-1.09
-1.02
-0.92
-0.82
-0.8
-0.7
-0.8
-0.85
-1.02
-1.04
-1.115
-1.115
-0.905
-0.69
-0.71
-0.74
-0.68
-0.78
-0.98
-1.02
-0.97
-0.975
-0.89
-0.715
-0.7
-0.74
-0.76
-0.855
-0.925
-0.96
-0.91
-0.87
-0.805
-0.655
-0.52
-0.57
-0.555
-0.76
-0.93
-0.95
-0.825
-0.835
-0.69
-0.57
-0.515
-0.605
-0.57
-0.625
-0.86
-0.79
-0.765
-0.72
-0.745
-0.645
-0.495
-0.475
-0.6
-0.71
-0.835
-0.84
-0.855
-0.75
-0.695
-0.69
-0.575
-0.605
-0.7
-0.805
-0.9
-0.93
-0.85
-0.96
-0.74
-0.73
-0.77
-0.71
-0.725
-0.93
-1.025
-0.97
-0.95
-1.045
-0.86
-0.755
-0.71
-0.84
-0.86
-1.015
-1.045
-1.08
-0.965
-0.965
-0.885
-0.845
-0.775
-0.795
-0.845
-0.975
-0.995
-1.1
-1.035
-0.94
-0.815
-0.8
-0.785
-0.905
-0.905
-1.015
-1.005
-1.09
-1.01
-0.92
-0.845
-0.76
-0.795
-0.82
-0.825
-1.1
-1.045
-1.0
-0.96
-1.045
-0.925
-0.79
-0.765
-0.84
-0.865
-0.995
-1.005
-1.035
-0.985
-0.985
-0.99
-0.795
-0.815
-0.885
-0.85
-1.05
-0.96
-0.995
-1.05
-1.06
-0.87
-0.73
-0.73
-0.79
-0.975
-1.08
-1.11
-1.025
-0.94
-0.93
-0.825
-0.78
-0.83
-0.895
-0.92
-0.92
-1.09
-1.075
-1.025
-0.915
-0.905
-0.8
-0.875
-0.9
-0.89
-1.03
-1.075
-1.0
-1.105
-1.025
-0.85
-0.8
-0.885
-0.8
-0.96
-0.97
-1.01
-1.06
-1.015
-0.94
-0.885
-0.78
-0.83
-0.89
-0.98
-1.07
-1.115
-1.095
-1.14
-0.9
-0.785
-0.755
-0.89
-1.05
-1.08
-1.07
-1.115
-1.14
-1.075
-0.915
-0.825
-0.765
-0.825
-0.93
-1.025
-1.07
-1.105
-1.075
-0.955
-0.92
-0.86
-0.8
-0.785
-0.78
-0.99
-1.05
-1.125
-1.135
-1.12
-0.91
-0.915
-0.83
-0.85
-0.96
-0.95
-1.05
-1.11
-0.985
-1.045
-0.85
-0.795
-0.805
-0.845
-0.845
-1.015
-1.055
-1.155
-1.095
-0.975
-0.825
-0.9
-0.785
-0.86
-0.88
-0.985
-1.12
-1.105
-1.025
-1.025
-0.93
-0.87
-0.815
-0.855
-0.96
-0.95
-1.085
-1.125
-1.115
-1.04
-0.895
-0.84
-0.83
-0.85
-0.915
-1.03
-1.145
-1.2
-1.12
-1.07
-0.94
-0.88
-0.88
-0.915
-0.97
-1.015
-1.025
-1.105
-1.225
-1.125
-0.91
-0.75
-0.85
-0.875
-0.845
-1.095
-1.195
-1.19
-1.04
-0.975
-0.97
-0.86
-0.85
-0.81
-0.92
-1.18
-1.2
-1.06
-1.02
-1.07
-0.925
-0.905
-0.75
-0.84
-0.855
-0.945
-0.875
-0.89
-0.84
-0.755
-0.725
-0.71
-0.69
-0.89
-1.025
-1.07
-1.175
-1.23
-1.235
-1.13
-1.175
-1.145
-1.015
-1.17
-1.19
-1.235
-1.275
-1.325
-1.175
-1.075
-0.875
-0.865
-1.0
-0.88
-1.045
-1.18
-1.125
-1.105
-1.06
-0.99
-0.955
-0.93
-0.885
-0.905
-0.915
-1.075
-1.165
-1.32
-1.055
-0.94
-0.965
-0.765
-0.925
-1.015
-1.035
-1.14
-1.105
-1.165
-1.04
-0.985
-0.92
-0.91
-0.925
-0.97
-1.0
-1.13
-1.07
-1.12
-1.065
-0.895
-0.88
-0.84
-0.87
-0.9
-1.055
-1.165
-1.12
-1.09
-1.035
-0.92
-0.875
-0.9
-0.795
-0.945
-1.01
-1.07
-1.105
-1.035
-1.03
-0.815
-0.79
-0.88
-0.855
-0.775
-1.025
-1.055
-1.11
-1.03
-0.97
-0.98
-0.8
-0.735
-0.77
-0.84
-0.95
-0.89
-1.02
-1.035
-0.905
-0.77
-0.635
-0.72
-0.735
-0.665
-0.88
-0.94
-1.05
-0.915
-0.825
-0.715
-0.6
-0.62
-0.8
-0.77
-0.785
-0.91
-1.04
-0.925
-0.865
-0.69
-0.685
-0.71
-0.795
-0.77
-0.945
-1.075
-0.98
-0.895
-0.835
-0.775
-0.77
-0.77
-0.83
-0.96
-1.015
-1.045
-0.97
-1.12
-1.1
-0.91
-0.885
-0.955
-0.92
-0.905
-1.06
-1.1
-1.09
-1.025
-1.065
-1.015
-0.755
-0.86
-0.91
-1.065
-1.2
-1.225
-1.17
-1.145
-1.06
-0.935
-0.865
-0.965
-0.975
-1.0
-1.095
-1.135
-1.22
-1.12
-1.07
-0.9
-0.805
-0.93
-0.99
-1.0
-1.23
-1.245
-1.14
-1.065
-0.975
-0.925
-0.82
-0.845
-1.005
-1.105
-1.095
-1.125
-1.005
-1.135
-1.0
-1.005
-0.86
-1.065
-0.955
-1.04
-1.155
-1.05
-1.04
-1.1
-0.895
-1.025
-0.91
-0.915
-0.99
-1.11
-1.13
-1.225
-1.125
-1.03
-0.975
-0.825
-0.875
-0.95
-0.99
-1.075
-1.165
-1.1
-1.125
-1.085
-1.025
-0.935
-0.855
-0.91
-1.04
-1.08
-1.155
-1.2
-1.085
-1.14
-0.995
-0.87
-0.805
-1.055
-1.085
-1.045
-1.21
-1.23
-1.15
-0.925
-0.9
-0.845
-0.875
-0.855
-0.96
-1.04
-1.23
-1.18
-1.075
-1.08
-0.975
-0.785
-0.805
-0.845
-1.065
-1.31
-1.415
-1.185
-1.045
-1.075
-0.95
-0.915
-0.945
-0.915
-1.005
-1.13
-1.05
-1.18
-1.12
-1.115
-0.945
-0.875
-0.905
-0.925
-1.01
-1.09
-1.145
-1.155
-1.22
-1.15
-0.915
-0.815
-0.91
-0.89
-0.87
-1.025
-1.22
-1.12
-1.12
-1.035
-0.84
-0.735
-0.825
-0.94
-0.925
-1.045
-1.15
-1.17
-1.135
-0.99
-0.96
-1.01
-0.89
-0.9
-1.005
-1.185
-1.175
-1.15
-1.08
-0.995
-0.935
-0.9
-0.9
-0.995
-1.0
-1.155
-1.17
-1.085
-0.995
-1.14
-1.125
-0.89
-0.905
-0.955
-0.995
-1.18
-1.225
-1.175
-1.05
-1.0
-0.89
-0.99
-0.93
-0.965
-1.07
-1.16
-1.195
-1.12
-1.085
-1.045
-0.985
-0.925
-0.87
-0.945
-1.045
-1.105
-1.21
-1.175
-1.03
-1.015
-0.865
-0.855
-0.925
-0.995
-1.08
-1.06
-1.155
-1.085
-1.025
-0.84
-0.63
-0.635
-0.675
-0.6
-0.89
-0.965
-0.985
-0.98
-1.02
-0.905
-0.93
-0.9
-0.9
-1.055
-1.245
-1.25
-1.435
-1.335
-1.26
-1.05
-1.08
-1.02
-0.94
-1.04
-1.195
-1.22
-1.215
-1.27
-1.09
-0.885
-0.825
-0.955
-0.955
-1.02
-1.06
-1.135
-1.125
-1.055
-1.07
-0.955
-0.865
-0.85
-0.965
-1.015
-1.125
-1.09
-1.045
-1.075
-1.09
-0.945
-0.905
-0.96
-0.76
-1.035
-1.15
-1.1
-1.185
-1.185
-1.11
-0.825
-0.78
-0.75
-1.01
-0.96
-0.97
-1.11
-1.16
-1.035
-1.03
-0.935
-0.775
-0.9
-0.825
-0.9
-1.05
-1.105
-1.085
-1.03
-1.04
-0.84
-0.8
-0.75
-0.93
-0.995
-1.04
-1.13
-1.075
-1.045
-0.96
-0.76
-0.62
-0.75
-0.8
-0.95
-1.02
-1.07
-1.01
-0.975
-0.895
-0.75
-0.7
-0.745
-0.875
-0.745
-0.775
-1.03
-0.825
-0.77
-0.74
-0.68
-0.645
-0.71
-0.685
-0.76
-0.865
-0.835
-0.85
-0.84
-0.845
-0.64
-0.62
-0.675
-0.815
-0.77
-0.965
-0.97
-0.9
-0.87
-0.685
-0.735
-0.715
-0.765
-0.71
-0.79
-1.04
-1.005
-1.065
-0.945
-0.87
-0.745
-0.735
-0.845
-0.785
-0.895
-1.075
-1.095
-1.04
-1.0
-0.78
-0.875
-0.93
-0.94
-0.89
-0.955
-1.065
-1.07
-1.115
-0.915
-0.845
-0.86
-0.73
-0.865
-0.885
-1.08
-1.03
-1.115
-1.01
-1.01
-0.85
-0.795
-0.865
-0.93
-0.945
-0.955
-1.11
-1.225
-1.01
-0.97
-0.945
-0.865
-0.8
-0.765
-0.885
-1.015
-1.06
-1.095
-1.045
-0.975
-0.895
-0.785
-0.845
-0.86
-0.84
-0.945
-0.98
-1.13
-1.005
-0.985
-0.895
-0.79
-0.82
-0.895
-0.94
-0.99
-1.12
-1.055
-0.995
-0.885
-0.905
-0.79
-0.86
-0.9
-0.96
-1.04
-1.155
-1.07
-1.035
-0.95
-1.07
-0.9
-0.815
-0.735
-0.81
-0.97
-1.05
-1.155
-1.0
-0.945
-0.81
-0.74
-0.835
-0.835
-1.065
-1.105
-1.08
-1.1
-1.02
-0.895
-0.825
-0.77
-0.835
-0.905
-1.06
-1.04
-1.07
-1.09
-1.065
-1.005
-0.735
-0.795
-0.95
-1.005
-1.095
-0.925
-1.085
-1.14
-0.925
-0.955
-0.885
-0.72
-0.86
-0.93
-1.05
-1.115
-1.085
-0.96
-1.0
-0.95
-0.89
-0.895
-0.815
-0.945
-1.135
-1.06
-1.13
-1.15
-0.98
-0.93
-0.895
-0.81
-0.88
-0.88
-0.945
-1.055
-1.05
-1.07
-1.095
-1.03
-0.8
-0.79
-0.875
-0.895
-0.995
-1.075
-1.06
-1.095
-1.005
-0.97
-0.96
-0.84
-0.86
-0.88
-1.12
-1.155
-1.03
-1.01
-1.0
-0.925
-0.91
-0.82
-0.895
-0.84
-1.06
-1.13
-1.045
-1.055
-0.925
-0.925
-0.755
-0.83
-0.84
-0.95
-0.985
-1.185
-1.075
-1.06
-0.925
-0.87
-0.755
-0.705
-0.835
-0.78
-1.005
-1.175
-1.08
-0.985
-0.96
-0.785
-0.75
-0.875
-0.88
-0.94
-1.05
-1.12
-1.06
-1.005
-0.98
-0.845
-0.875
-0.85
-0.95
-0.89
-0.96
-1.16
-1.12
-1.035
-0.975
-0.935
-0.845
-0.855
-0.91
-1.05
-1.095
-0.97
-1.06
-1.085
-0.96
-0.815
-0.86
-0.9
-0.955
-1.09
-1.135
-1.095
-1.045
-1.03
-0.935
-0.795
-0.79
-0.87
-0.95
-0.96
-0.925
-1.22
-1.185
-1.085
-1.11
-0.865
-0.85
-0.88
-0.9
-0.96
-1.085
-1.11
-1.075
-1.035
-0.96
-0.925
-0.905
-0.95
-0.905
-0.92
-0.96
-1.11
-0.89
-0.905
-0.715
-0.54
-0.53
-0.42
-0.58
-0.74
-0.78
-0.795
-0.94
-0.89
-0.805
-0.87
-1.04
-0.91
-0.94
-1.13
-1.32
-1.36
-1.34
-1.215
-1.055
-0.985
-0.915
-0.86
-1.03
-1.15
-1.12
-1.24
-1.1
-1.115
-0.97
-0.855
-0.74
-0.76
-0.985
-1.055
-1.09
-1.16
-1.165
-0.985
-0.905
-0.875
-0.75
-0.83
-0.975
-1.04
-1.095
-1.085
-1.065
-1.08
-0.91
-0.835
-0.885
-0.935
-0.925
-1.0
-0.99
-1.05
-1.01
-1.09
-1.025
-0.835
-0.88
-0.86
-0.87
-1.005
-1.17
-1.075
-1.095
-1.06
-0.985
-0.825
-0.73
-0.74
-0.985
-1.11
-1.06
-1.135
-0.99
-0.84
-0.835
-0.89
-0.855
-0.89
-0.94
-1.015
-0.985
-1.07
-1.04
-0.89
-0.805
-0.68
-0.745
-0.89
-0.845
-1.01
-1.04
-0.935
-0.935
-0.96
-0.73
-0.65
-0.61
-0.685
-0.79
-0.92
-0.945
-0.845
-0.775
-0.7
-0.575
-0.555
-0.85
-0.72
-0.695
-0.905
-0.885
-0.82
-0.855
-0.72
-0.65
-0.61
-0.59
-0.63
-0.74
-0.86
-0.97
-0.705
-0.8
-0.83
-0.82
-0.63
-0.655
-0.745
-0.795
-0.935
-0.97
-1.045
-0.97
-0.875
-0.81
-0.65
-0.76
-0.875
-0.9
-0.96
-1.03
-1.04
-1.045
-0.935
-0.86
-0.82
-0.9
-0.86
-1.095
-1.13
-1.085
-0.99
-0.965
-0.95
-0.91
-0.82
-0.915
-1.025
-1.015
-1.045
-1.06
-1.045
-1.025
-0.945
-0.845
-0.825
-0.825
-0.96
-1.12
-1.105
-1.09
-1.015
-0.985
-0.845
-0.785
-0.855
-0.88
-0.955
-1.04
-1.075
-1.115
-1.005
-1.035
-0.92
-0.83
-0.87
-0.83
-0.875
-1.09
-1.15
-1.065
-0.995
-0.945
-0.845
-0.785
-0.835
-0.835
-0.91
-1.025
-1.135
-1.06
-0.945
-1.025
-0.915
-0.85
-0.825
-0.87
-0.84
-1.05
-1.13
-1.03
-1.055
-1.02
-0.935
-0.805
-0.91
-0.835
-0.8
-1.04
-1.145
-1.125
-0.985
-0.955
-0.95
-0.91
-0.895
-0.86
-0.94
-1.035
-1.115
-1.11
-0.97
-0.935
-0.88
-0.76
-0.805
-0.865
-0.975
-1.125
-1.135
-1.025
-1.075
-1.01
-0.89
-0.76
-0.825
-0.96
-0.995
-1.04
-1.09
-1.12
-0.945
-1.005
-0.905
-0.84
-0.885
-0.915
-0.96
-0.98
-1.12
-1.1
-1.06
-0.885
-0.83
-0.75
-0.845
-0.98
-0.98
-1.07
-1.11
-1.115
-1.03
-0.96
-0.895
-0.9
-0.865
-0.96
-1.0
-1.075
-1.13
-1.105
-1.05
-0.905
-0.88
-0.82
-0.895
-0.895
-0.965
-0.97
-1.145
-1.05
-1.025
-0.965
-0.935
-0.835
-0.855
-0.935
-1.035
-1.055
-1.035
-1.01
-1.05
-0.965
-0.81
-0.825
-0.93
-0.89
-0.985
-1.175
-1.165
-1.035
-0.99
-0.905
-0.76
-0.775
-0.74
-0.945
-1.01
-1.1
-1.11
-1.025
-1.02
-0.86
-0.715
-0.735
-0.85
-0.845
-0.985
-1.045
-1.095
-1.03
-0.96
-0.865
-0.7
-0.825
-0.75
-0.955
-0.94
-0.99
-1.185
-1.025
-0.955
-0.92
-0.8
-0.825
-0.91
-0.835
-1.015
-1.125
-1.22
-1.05
-0.985
-0.84
-0.825
-0.895
-0.87
-0.87
-1.02
-1.07
-1.14
-1.0
-0.96
-0.935
-0.82
-0.955
-0.775
-0.885
-1.06
-1.13
-1.105
-1.05
-0.98
-0.87
-0.815
-0.77
-0.865
-0.97
-1.04
-1.065
-1.195
-1.03
-0.945
-0.95
-0.87
-0.81
-0.845
-0.97
-1.105
-1.045
-1.02
-0.98
-1.05
-0.955
-0.795
-0.865
-0.825
-0.91
-0.925
-1.14
-1.065
-0.995
-0.73
-0.625
-0.56
-0.475
-0.52
-0.585
-0.65
-0.74
-0.84
-0.84
-0.705
-0.79
-0.915
-0.93
-0.93
-1.085
-1.185
-1.235
-1.26
-1.12
-1.045
-1.015
-0.96
-1.055
-1.04
-1.185
-1.16
-1.13
-0.99
-1.04
-0.895
-0.855
-0.765
-0.815
-0.895
-0.98
-1.06
-1.07
-1.115
-1.015
-0.87
-0.885
-0.88
-0.735
-0.72
-1.105
-1.075
-1.15
-0.975
-1.005
-0.89
-0.84
-0.78
-0.84
-0.87
-0.985
-1.015
-1.11
-0.985
-0.97
-0.85
-0.71
-0.86
-0.915
-0.88
-0.905
-1.025
-1.035
-0.91
-0.885
-0.82
-0.79
-0.78
-0.785
-0.825
-0.965
-1.035
-1.04
-0.975
-0.805
-0.895
-0.85
-0.65
-0.77
-0.825
-0.88
-1.0
-1.035
-0.98
-0.875
-0.755
-0.695
-0.745
-0.76
-0.68
-0.845
-0.92
-0.92
-0.89
-0.83
-0.65
-0.595
-0.585
-0.61
-0.71
-0.79
-0.77
-0.825
-0.81
-0.685
-0.625
-0.525
-0.52
-0.575
-0.555
-0.645
-0.79
-0.76
-0.615
-0.61
-0.585
-0.405
-0.485
-0.665
-0.645
-0.76
-0.81
-0.825
-0.755
-0.65
-0.575
-0.5
-0.55
-0.55
-0.72
-0.81
-0.875
-0.89
-0.795
-0.72
-0.65
-0.625
-0.62
-0.665
-0.85
-0.86
-1.02
-0.895
-0.9
-0.925
-0.735
-0.625
-0.675
-0.725
-0.88
-0.985
-1.005
-1.055
-0.875
-0.74
-0.845
-0.7
-0.795
-0.835
-0.905
-0.915
-0.98
-1.025
-0.95
-0.89
-0.9
-0.76
-0.74
-0.815
-0.98
-0.8
-0.895
-1.065
-0.96
-0.845
-0.715
-0.675
-0.765
-0.785
-0.96
-1.035
-0.965
-0.905
-0.985
-0.835
-0.74
-0.665
-0.745
-0.805
-0.885
-0.995
-0.995
-0.865
-0.95
-0.845
-0.67
-0.765
-0.815
-0.8
-0.955
-1.0
-0.975
-0.91
-0.855
-0.785
-0.815
-0.755
-0.715
-0.71
-0.82
-0.965
-1.03
-0.925
-0.875
-0.855
-0.74
-0.73
-0.7
-0.795
-0.855
-1.03
-0.93
-0.895
-0.88
-0.87
-0.69
-0.725
-0.75
-0.835
-0.805
-1.07
-1.045
-0.975
-0.945
-0.79
-0.72
-0.705
-0.86
-0.805
-0.97
-0.97
-1.005
-0.835
-0.975
-0.79
-0.675
-0.685
-0.755
-0.8
-0.89
-1.035
-1.015
-0.96
-0.87
-0.705
-0.715
-0.86
-0.895
-0.79
-0.95
-0.98
-0.91
-0.95
-0.84
-0.745
-0.705
-0.74
-0.815
-0.855
-0.96
-0.995
-1.01
-0.94
-0.84
-0.7
-0.755
-0.77
-0.84
-0.825
-0.98
-0.94
-0.925
-0.88
-0.85
-0.795
-0.715
-0.725
-0.795
-0.845
-0.93
-1.055
-0.925
-0.84
-0.925
-0.74
-0.725
-0.84
-0.765
-0.89
-0.94
-1.02
-0.95
-0.895
-0.82
-0.74
-0.725
-0.795
-0.755
-0.84
-0.95
-0.99
-0.98
-0.86
-0.805
-0.76
-0.645
-0.775
-0.8
-0.795
-1.015
-1.045
-1.04
-0.92
-0.775
-0.72
-0.83
-0.68
-0.8
-0.89
-0.915
-1.015
-0.92
-0.925
-0.81
-0.625
-0.765
-0.76
-0.775
-0.85
-0.96
-1.03
-1.04
-0.92
-0.74
-0.665
-0.67
-0.725
-0.77
-0.88
-1.025
-0.95
-0.935
-0.85
-0.8
-0.64
-0.885
-0.775
-0.795
-0.86
-0.97
-0.99
-0.91
-0.905
-0.735
-0.705
-0.69
-0.72
-0.78
-0.935
-0.85
-0.975
-0.885
-0.885
-0.8
-0.765
-0.665
-0.68
-0.755
-0.89
-1.02
-0.95
-0.925
-0.86
-0.81
-0.665
-0.615
-0.715
-0.79
-0.85
-0.91
-0.965
-0.825
-0.81
-0.66
-0.65
-0.645
-0.68
-0.755
-0.88
-0.92
-0.845
-0.905
-0.795
-0.75
-0.64
-0.715
-0.775
-0.82
-0.86
-0.955
-0.88
-0.92
-0.735
-0.615
-0.56
-0.82
-0.88
-0.715
-0.965
-0.99
-1.01
-0.85
-0.755
-0.77
-0.655
-0.725
-0.78
-0.85
-0.955
-0.98
-0.89
-0.905
-0.86
-0.625
-0.62
-0.59
-0.77
-0.88
-1.0
-0.95
-0.94
-0.905
-0.82
-0.695
-0.635
-0.7
-0.705
-0.775
-0.93
-0.935
-0.94
-0.905
-0.88
-0.75
-0.705
-0.675
-0.82
-0.895
-0.885
-0.85
-0.865
-0.795
-0.72
-0.465
-0.42
-0.475
-0.53
-0.585
-0.515
-0.51
-0.475
-0.515
-0.56
-0.54
-0.57
-0.655
-0.7
-0.885
-1.0
-1.055
-1.02
-1.0
-0.9
-0.975
-0.865
-0.845
-0.955
-1.09
-1.025
-1.065
-1.01
-0.95
-0.83
-0.74
-0.67
-0.64
-0.745
-0.855
-0.965
-0.91
-0.89
-0.855
-0.745
-0.67
-0.695
-0.735
-0.755
-0.77
-0.92
-0.98
-0.895
-0.855
-0.695
-0.585
-0.65
-0.735
-0.68
-0.84
-0.96
-0.835
-0.805
-0.885
-0.645
-0.7
-0.765
-0.73
-0.775
-0.86
-0.9
-0.91
-0.85
-0.83
-0.705
-0.58
-0.62
-0.665
-0.76
-0.745
-0.825
-0.9
-0.83
-0.82
-0.67
-0.56
-0.6
-0.655
-0.67
-0.82
-0.88
-0.86
-0.745
-0.71
-0.695
-0.605
-0.665
-0.715
-0.615
-0.79
-0.72
-0.79
-0.755
-0.66
-0.535
-0.515
-0.475
-0.58
-0.58
-0.695
-0.72
-0.61
-0.65
-0.53
-0.55
-0.35
-0.42
-0.455
-0.425
-0.57
-0.71
-0.66
-0.6
-0.39
-0.305
-0.28
-0.375
-0.43
-0.525
-0.565
-0.56
-0.66
-0.625
-0.47
-0.47
-0.355
-0.41
-0.44
-0.58
-0.615
-0.765
-0.62
-0.68
-0.515
-0.455
-0.49
-0.47
-0.565
-0.685
-0.74
-0.765
-0.705
-0.7
-0.69
-0.48
-0.55
-0.6
-0.615
-0.765
-0.885
-0.89
-0.8
-0.775
-0.64
-0.555
-0.665
-0.68
-0.755
-0.84
-0.795
-0.79
-0.785
-0.88
-0.7
-0.625
-0.58
-0.665
-0.72
-0.795
-0.81
-0.915
-0.785
-0.76
-0.705
-0.66
-0.605
-0.61
-0.71
-0.885
-0.885
-0.815
-0.775
-0.795
-0.69
-0.65
-0.57
-0.66
-0.685
-0.83
-0.925
-0.85
-0.75
-0.95
-0.775
-0.465
-0.58
-0.67
-0.675
-0.72
-0.825
-0.855
-0.9
-0.79
-0.65
-0.54
-0.55
-0.7
-0.725
-0.795
-0.88
-0.84
-0.845
-0.75
-0.635
-0.605
-0.535
-0.685
-0.755
-0.83
-0.925
-0.88
-0.755
-0.755
-0.66
-0.58
-0.645
-0.545
-0.74
-0.885
-0.895
-0.86
-0.825
-0.755
-0.715
-0.64
-0.665
-0.67
-0.74
-0.865
-0.885
-0.865
-0.86
-0.74
-0.635
-0.63
-0.615
-0.605
-0.715
-0.87
-0.86
-0.83
-0.875
-0.825
-0.62
-0.505
-0.63
-0.66
-0.82
-0.87
-0.895
-0.875
-0.83
-0.765
-0.615
-0.6
-0.645
-0.735
-0.705
-0.79
-0.915
-0.94
-0.855
-0.755
-0.66
-0.61
-0.655
-0.8
-0.83
-0.805
-0.8
-0.815
-0.745
-0.71
-0.655
-0.675
-0.68
-0.725
-0.82
-0.88
-0.95
-0.85
-0.83
-0.715
-0.69
-0.61
-0.67
-0.655
-0.78
-0.905
-0.86
-0.925
-0.885
-0.67
-0.675
-0.545
-0.715
-0.725
-0.765
-0.945
-0.92
-0.785
-0.795
-0.705
-0.605
-0.595
-0.64
-0.67
-0.73
-0.85
-0.905
-0.87
-0.855
-0.645
-0.655
-0.62
-0.575
-0.745
-0.815
-0.88
-0.795
-0.81
-0.705
-0.66
-0.625
-0.525
-0.615
-0.6
-0.745
-0.83
-0.87
-0.855
-0.73
-0.565
-0.69
-0.555
-0.615
-0.58
-0.82
-0.85
-0.765
-0.8
-0.785
-0.67
-0.66
-0.73
-0.655
-0.71
-0.915
-0.9
-0.88
-0.86
-0.885
-0.705
-0.665
-0.63
-0.635
-0.69
-0.81
-0.885
-0.895
-0.92
-0.78
-0.715
-0.645
-0.695
-0.605
-0.69
-0.94
-0.955
-0.915
-0.845
-0.79
-0.67
-0.645
-0.615
-0.69
-0.7
-0.9
-0.9
-0.815
-0.825
-0.895
-0.745
-0.675
-0.765
-0.79
-0.815
-0.875
-0.865
-0.885
-0.715
-0.67
-0.56
-0.435
-0.515
-0.555
-0.535
-0.41
-0.545
-0.565
-0.4
-0.405
-0.3
-0.45
-0.535
-0.66
-0.735
-0.925
-1.0
-1.05
-1.07
-0.965
-0.875
-0.795
-0.845
-0.905
-1.0
-1.14
-1.055
-0.935
-0.86
-0.84
-0.8
-0.64
-0.565
-0.73
-0.76
-0.93
-0.89
-0.93
-0.86
-0.69
-0.705
-0.63
-0.665
-0.68
-0.795
-0.975
-0.825
-0.785
-0.875
-0.69
-0.625
-0.595
-0.6
-0.66
-0.815
-0.895
-0.985
-0.855
-0.785
-0.65
-0.63
-0.585
-0.74
-0.715
-0.745
-0.905
-0.86
-0.735
-0.755
-0.705
-0.64
-0.565
-0.635
-0.625
-0.85
-0.87
-0.855
-0.775
-0.695
-0.69
-0.515
-0.595
-0.615
-0.605
-0.72
-0.83
-0.81
-0.725
-0.74
-0.65
-0.595
-0.505
-0.57
-0.545
-0.745
-0.81
-0.735
-0.74
-0.74
-0.535
-0.38
-0.44
-0.505
-0.56
-0.66
-0.705
-0.595
-0.58
-0.535
-0.485
-0.325
-0.3
-0.38
-0.5
-0.535
-0.61
-0.555
-0.405
-0.53
-0.39
-0.26
-0.375
-0.34
-0.4
-0.515
-0.59
-0.585
-0.55
-0.4
-0.36
-0.315
-0.34
-0.43
-0.435
-0.56
-0.73
-0.655
-0.61
-0.57
-0.49
-0.51
-0.475
-0.52
-0.655
-0.725
-0.825
-0.74
-0.63
-0.61
-0.605
-0.435
-0.53
-0.575
-0.615
-0.82
-0.915
-0.81
-0.765
-0.635
-0.61
-0.595
-0.635
-0.705
-0.685
-0.83
-0.845
-0.81
-0.79
-0.665
-0.645
-0.52
-0.56
-0.68
-0.74
-0.88
-0.855
-0.85
-0.91
-0.7
-0.59
-0.565
-0.655
-0.605
-0.78
-0.805
-0.85
-0.815
-0.775
-0.67
-0.64
-0.555
-0.6
-0.715
-0.71
-0.825
-0.875
-0.84
-0.81
-0.605
-0.655
-0.565
-0.585
-0.64
-0.725
-0.8
-0.87
-0.835
-0.765
-0.64
-0.635
-0.6
-0.66
-0.66
-0.72
-0.85
-0.765
-0.84
-0.825
-0.62
-0.6
-0.53
-0.615
-0.64
-0.73
-0.805
-0.875
-0.835
-0.72
-0.625
-0.58
-0.61
-0.64
-0.595
-0.815
-0.84
-0.945
-0.85
-0.8
-0.635
-0.51
-0.605
-0.515
-0.71
-0.825
-0.85
-0.84
-0.78
-0.745
-0.7
-0.54
-0.595
-0.66
-0.695
-0.84
-1.01
-0.825
-0.745
-0.83
-0.66
-0.665
-0.54
-0.595
-0.685
-0.855
-0.86
-0.795
-0.72
-0.68
-0.655
-0.585
-0.615
-0.7
-0.735
-0.835
-0.97
-0.99
-0.82
-0.6
-0.625
-0.615
-0.665
-0.64
-0.705
-0.835
-0.83
-0.845
-0.75
-0.77
-0.665
-0.6
-0.575
-0.645
-0.745
-0.855
-0.985
-0.93
-0.765
-0.65
-0.655
-0.62
-0.675
-0.555
-0.58
-0.85
-0.935
-0.875
-0.795
-0.74
-0.585
-0.545
-0.64
-0.585
-0.7
-0.925
-0.965
-0.81
-0.8
-0.69
-0.58
-0.54
-0.67
-0.5
-0.735
-0.725
-0.78
-0.855
-0.73
-0.575
-0.54
-0.56
-0.62
-0.685
-0.715
-0.75
-0.885
-0.655
-0.685
-0.56
-0.615
-0.615
-0.62
-0.62
-0.765
-0.84
-0.93
-0.8
-0.745
-0.7
-0.565
-0.615
-0.61
-0.7
-0.83
-0.9
-0.905
-0.85
-0.715
-0.655
-0.565
-0.56
-0.705
-0.67
-0.795
-0.865
-0.8
-0.87
-0.845
-0.655
-0.595
-0.49
-0.635
-0.72
-0.81
-0.83
-0.93
-0.79
-0.635
-0.675
-0.665
-0.585
-0.66
-0.73
-0.85
-0.87
-0.895
-0.745
-0.72
-0.655
-0.55
-0.55
-0.61
-0.69
-0.835
-0.845
-0.825
-0.81
-0.575
-0.615
-0.46
-0.445
-0.37
-0.445
-0.425
-0.49
-0.515
-0.595
-0.505
-0.445
-0.57
-0.595
-0.63
-0.825
-0.83
-0.95
-1.215
-1.01
-0.98
-0.94
-0.765
-0.755
-0.8
-0.905
-0.985
-0.995
-0.965
-0.885
-0.77
-0.6
-0.56
-0.555
-0.69
-0.745
-0.805
-0.875
-0.82
-0.785
-0.785
-0.65
-0.545
-0.6
-0.63
-0.78
-0.855
-0.84
-0.845
-0.805
-0.71
-0.525
-0.575
-0.59
-0.635
-0.675
-0.79
-0.865
-0.81
-0.775
-0.69
-0.64
-0.57
-0.65
-0.72
-0.81
-0.805
-0.83
-0.86
-0.765
-0.715
-0.525
-0.625
-0.585
-0.525
-0.695
-0.845
-0.885
-0.855
-0.725
-0.685
-0.605
-0.53
-0.52
-0.61
-0.74
-0.785
-0.735
-0.79
-0.705
-0.645
-0.53
-0.515
-0.555
-0.59
-0.63
-0.715
-0.775
-0.725
-0.72
-0.52
-0.47
-0.51
-0.485
-0.415
-0.605
-0.665
-0.705
-0.64
-0.575
-0.44
-0.345
-0.35
-0.335
-0.38
-0.55
-0.57
-0.66
-0.525
-0.55
-0.435
-0.28
-0.35
-0.405
-0.395
-0.57
-0.73
-0.65
-0.585
-0.47
-0.38
-0.46
-0.42
-0.425
-0.445
-0.555
-0.695
-0.71
-0.69
-0.66
-0.585
-0.47
-0.42
-0.49
-0.605
-0.69
-0.845
-0.825
-0.79
-0.65
-0.58
-0.535
-0.575
-0.585
-0.635
-0.7
-0.865
-0.835
-0.79
-0.77
-0.53
-0.515
-0.55
-0.59
-0.74
-0.85
-0.915
-0.78
-0.76
-0.805
-0.655
-0.56
-0.625
-0.69
-0.77
-0.815
-0.885
-0.755
-0.805
-0.665
-0.695
-0.55
-0.535
-0.68
-0.7
-0.83
-0.89
-0.94
-0.82
-0.64
-0.5
-0.57
-0.575
-0.685
-0.67
-0.81
-0.835
-0.81
-0.825
-0.77
-0.515
-0.465
-0.57
-0.72
-0.705
-0.8
-0.84
-0.77
-0.775
-0.73
-0.57
-0.525
-0.615
-0.665
-0.745
-0.78
-0.83
-0.825
-0.68
-0.715
-0.675
-0.495
-0.655
-0.61
-0.735
-0.885
-0.885
-0.815
-0.74
-0.695
-0.595
-0.575
-0.58
-0.62
-0.79
-0.93
-0.885
-0.805
-0.75
-0.69
-0.56
-0.535
-0.625
