# TIPE ECG 2021 - ECG-ID Database v1.0.0 par Physionet
# [Numéro de la personne, Période d'échantillonnage, Prénom, Age, Sexe, Date de l'enregistrement]
[63, 0.002, Kenneth, 23, H, 12.05.2005]
0.15
0.175
0.175
0.17
0.14
0.115
0.105
0.11
0.12
0.14
0.15
0.13
0.115
0.14
0.145
0.145
0.14
0.155
0.16
0.16
0.16
0.145
0.155
0.17
0.17
0.14
0.11
0.14
0.16
0.155
0.14
0.175
0.17
0.13
0.14
0.14
0.16
0.15
0.11
0.135
0.155
0.205
0.18
0.175
0.105
0.13
0.125
0.14
0.165
0.2
0.19
0.23
0.255
0.18
0.155
0.13
0.145
0.145
0.125
0.11
0.115
0.09
0.11
0.16
0.125
0.135
0.16
0.15
0.175
0.15
0.115
0.105
0.135
0.125
0.15
0.205
0.185
0.175
0.145
0.15
0.135
0.135
0.145
0.115
0.105
0.115
0.16
0.185
0.19
0.2
0.2
0.19
0.195
0.12
0.07
0.04
0.105
0.16
0.14
0.11
0.115
0.09
0.13
0.135
0.115
0.12
0.14
0.125
0.145
0.09
0.12
0.15
0.175
0.17
0.105
0.15
0.165
0.115
0.055
0.085
0.12
0.105
0.11
0.12
0.14
0.14
0.13
0.105
0.095
0.115
0.135
0.125
0.1
0.095
0.19
0.14
0.12
0.125
0.155
0.15
0.155
0.11
0.13
0.115
0.13
0.105
0.065
0.08
0.11
0.115
0.155
0.155
0.16
0.155
0.155
0.145
0.11
0.15
0.165
0.18
0.2
0.16
0.06
0.01
0.09
0.105
0.085
0.075
0.1
0.115
0.125
0.15
0.145
0.19
0.155
0.13
0.12
0.105
0.135
0.145
0.14
0.155
0.185
0.175
0.155
0.08
0.085
0.09
0.1
0.075
0.08
0.125
0.13
0.105
0.13
0.13
0.11
0.145
0.13
0.145
0.16
0.16
0.125
0.09
0.11
0.13
0.155
0.14
0.145
0.175
0.185
0.18
0.145
0.105
0.11
0.085
0.07
0.105
0.13
0.155
0.175
0.13
0.11
0.14
0.12
0.135
0.095
0.125
0.16
0.115
0.105
0.12
0.125
0.125
0.14
0.12
0.08
0.13
0.165
0.145
0.16
0.165
0.155
0.125
0.13
0.155
0.14
0.125
0.12
0.135
0.155
0.125
0.14
0.13
0.16
0.09
0.075
0.11
0.14
0.15
0.185
0.195
0.235
0.195
0.115
0.08
0.095
0.125
0.14
0.115
0.095
0.11
0.1
0.115
0.165
0.14
0.115
0.135
0.14
0.17
0.15
0.13
0.135
0.13
0.12
0.095
0.12
0.11
0.1
0.09
0.085
0.1
0.17
0.16
0.145
0.155
0.135
0.135
0.11
0.135
0.155
0.14
0.15
0.165
0.155
0.195
0.165
0.16
0.17
0.11
0.11
0.135
0.11
0.12
0.165
0.17
0.16
0.175
0.17
0.11
0.14
0.165
0.16
0.175
0.155
0.085
0.1
0.155
0.195
0.255
0.22
0.24
0.2
0.2
0.15
0.11
0.125
0.175
0.18
0.17
0.145
0.095
0.13
0.135
0.14
0.175
0.185
0.175
0.13
0.135
0.14
0.13
0.165
0.16
0.155
0.135
0.155
0.145
0.13
0.095
0.115
0.12
0.14
0.125
0.08
0.125
0.115
0.165
0.15
0.16
0.17
0.13
0.09
0.095
0.105
0.095
0.09
0.11
0.125
0.13
0.13
0.155
0.145
0.15
0.145
0.15
0.09
0.07
0.055
0.12
0.2
0.29
0.44
0.515
0.555
0.6
0.585
0.595
0.71
0.72
0.68
0.66
0.79
0.825
0.815
0.77
0.73
0.625
0.555
0.45
0.29
0.115
0.015
0.02
0.065
0.125
0.18
0.195
0.22
0.21
0.19
0.205
0.23
0.21
0.21
0.19
0.15
0.17
0.205
0.185
0.24
0.175
0.18
0.175
0.175
0.2
0.165
0.16
0.175
0.185
0.21
0.19
0.225
0.205
0.19
0.23
0.175
0.145
0.195
0.19
0.175
0.15
0.16
0.18
0.2
0.165
0.245
0.235
0.23
0.21
0.195
0.205
0.22
0.22
0.25
0.26
0.26
0.225
0.225
0.25
0.25
0.235
0.25
0.29
0.25
0.215
0.235
0.24
0.24
0.25
0.245
0.28
0.285
0.26
0.285
0.345
0.265
0.25
0.245
0.27
0.335
0.32
0.285
0.29
0.305
0.34
0.34
0.35
0.37
0.365
0.37
0.42
0.38
0.385
0.385
0.415
0.455
0.48
0.435
0.405
0.38
0.395
0.43
0.415
0.445
0.44
0.455
0.43
0.455
0.465
0.465
0.41
0.445
0.48
0.49
0.485
0.495
0.48
0.49
0.46
0.455
0.455
0.425
0.455
0.42
0.465
0.45
0.38
0.38
0.34
0.33
0.275
0.27
0.275
0.28
0.27
0.26
0.325
0.32
0.285
0.215
0.24
0.21
0.23
0.23
0.22
0.22
0.19
0.225
0.235
0.22
0.21
0.19
0.18
0.165
0.2
0.17
0.13
0.135
0.125
0.14
0.17
0.18
0.14
0.14
0.165
0.185
0.195
0.205
0.19
0.175
0.15
0.09
0.11
0.13
0.155
0.16
0.175
0.195
0.165
0.2
0.185
0.18
0.175
0.2
0.24
0.18
0.18
0.15
0.16
0.14
0.125
0.145
0.205
0.165
0.195
0.2
0.165
0.165
0.16
0.145
0.17
0.17
0.175
0.16
0.17
0.145
0.17
0.19
0.19
0.175
0.19
0.16
0.14
0.135
0.195
0.205
0.175
0.19
0.175
0.18
0.2
0.17
0.165
0.2
0.195
0.165
0.13
0.17
0.195
0.175
0.195
0.17
0.18
0.215
0.215
0.21
0.185
0.175
0.155
0.145
0.165
0.15
0.18
0.165
0.215
0.155
0.175
0.14
0.12
0.145
0.17
0.17
0.15
0.16
0.165
0.18
0.22
0.185
0.2
0.19
0.125
0.14
0.145
0.13
0.12
0.155
0.205
0.165
0.135
0.135
0.17
0.185
0.18
0.175
0.21
0.16
0.135
0.105
0.125
0.125
0.125
0.15
0.14
0.145
0.155
0.145
0.145
0.175
0.165
0.145
0.135
0.135
0.175
0.175
0.175
0.17
0.145
0.14
0.14
0.12
0.08
0.11
0.115
0.08
0.125
0.145
0.2
0.195
0.18
0.16
0.14
0.135
0.16
0.14
0.115
0.125
0.135
0.15
0.18
0.185
0.18
0.16
0.16
0.13
0.115
0.13
0.105
0.11
0.125
0.13
0.18
0.165
0.13
0.175
0.18
0.185
0.19
0.175
0.17
0.195
0.135
0.1
0.115
0.1
0.11
0.135
0.195
0.12
0.11
0.105
0.09
0.165
0.185
0.175
0.135
0.15
0.135
0.105
0.07
0.14
0.145
0.16
0.135
0.155
0.15
0.18
0.15
0.095
0.12
0.14
0.14
0.15
0.165
0.165
0.11
0.18
0.175
0.125
0.075
0.135
0.16
0.12
0.135
0.155
0.155
0.125
0.135
0.155
0.165
0.13
0.12
0.105
0.14
0.165
0.175
0.215
0.2
0.14
0.15
0.155
0.17
0.145
0.145
0.16
0.16
0.2
0.155
0.095
0.035
0.085
0.12
0.125
0.125
0.13
0.165
0.18
0.12
0.095
0.09
0.115
0.14
0.13
0.185
0.18
0.18
0.18
0.155
0.135
0.105
0.12
0.135
0.125
0.13
0.14
0.115
0.13
0.145
0.185
0.145
0.11
0.13
0.2
0.17
0.14
0.12
0.15
0.17
0.18
0.12
0.105
0.12
0.145
0.205
0.175
0.185
0.225
0.215
0.175
0.19
0.115
0.14
0.135
0.11
0.16
0.175
0.155
0.145
0.13
0.12
0.12
0.135
0.16
0.155
0.13
0.15
0.135
0.125
0.15
0.16
0.185
0.145
0.145
0.165
0.18
0.15
0.105
0.095
0.14
0.165
0.15
0.17
0.2
0.17
0.16
0.21
0.255
0.195
0.16
0.17
0.17
0.135
0.17
0.185
0.19
0.19
0.205
0.225
0.185
0.18
0.2
0.225
0.22
0.165
0.17
0.205
0.22
0.22
0.175
0.15
0.15
0.125
0.13
0.115
0.1
0.105
0.125
0.165
0.18
0.18
0.09
0.135
0.125
0.1
0.105
0.11
0.105
0.12
0.16
0.155
0.12
0.09
0.125
0.115
0.13
0.16
0.175
0.13
0.06
0.065
0.07
0.11
0.13
0.15
0.155
0.21
0.21
0.295
0.38
0.515
0.545
0.585
0.64
0.645
0.735
0.8
0.72
0.71
0.81
0.85
0.905
0.855
0.795
0.71
0.555
0.44
0.265
0.13
0.035
0.065
0.1
0.14
0.17
0.18
0.22
0.19
0.19
0.165
0.18
0.19
0.165
0.18
0.195
0.2
0.23
0.22
0.18
0.14
0.165
0.18
0.185
0.22
0.235
0.2
0.215
0.255
0.25
0.255
0.2
0.225
0.28
0.235
0.155
0.13
0.16
0.205
0.19
0.215
0.19
0.225
0.23
0.26
0.255
0.235
0.19
0.155
0.165
0.22
0.265
0.29
0.265
0.285
0.28
0.27
0.23
0.195
0.18
0.185
0.245
0.255
0.265
0.26
0.3
0.3
0.29
0.285
0.255
0.285
0.285
0.275
0.29
0.29
0.28
0.255
0.31
0.29
0.34
0.31
0.305
0.32
0.33
0.325
0.39
0.41
0.42
0.42
0.42
0.405
0.375
0.355
0.395
0.435
0.415
0.43
0.465
0.43
0.4
0.405
0.44
0.44
0.41
0.385
0.405
0.475
0.49
0.5
0.465
0.495
0.505
0.475
0.44
0.47
0.485
0.48
0.51
0.455
0.4
0.395
0.445
0.475
0.46
0.43
0.425
0.425
0.385
0.345
0.345
0.355
0.32
0.31
0.335
0.3
0.28
0.295
0.27
0.255
0.27
0.245
0.27
0.245
0.235
0.205
0.205
0.165
0.23
0.205
0.245
0.2
0.155
0.15
0.12
0.145
0.19
0.17
0.18
0.2
0.235
0.225
0.175
0.16
0.16
0.205
0.155
0.165
0.205
0.17
0.135
0.125
0.1
0.11
0.115
0.165
0.23
0.215
0.205
0.18
0.17
0.145
0.12
0.135
0.115
0.135
0.155
0.185
0.19
0.165
0.155
0.17
0.2
0.175
0.17
0.155
0.165
0.18
0.215
0.23
0.185
0.195
0.155
0.16
0.19
0.18
0.17
0.15
0.18
0.2
0.175
0.135
0.145
0.165
0.17
0.2
0.215
0.17
0.195
0.18
0.205
0.22
0.165
0.16
0.205
0.245
0.225
0.155
0.155
0.165
0.18
0.205
0.155
0.18
0.16
0.11
0.14
0.21
0.23
0.21
0.205
0.145
0.125
0.11
0.165
0.205
0.21
0.175
0.18
0.2
0.235
0.21
0.19
0.14
0.185
0.165
0.125
0.14
0.165
0.145
0.135
0.195
0.15
0.18
0.175
0.16
0.19
0.155
0.16
0.125
0.125
0.185
0.155
0.165
0.185
0.14
0.13
0.125
0.14
0.13
0.125
0.14
0.185
0.21
0.215
0.23
0.22
0.18
0.135
0.115
0.115
0.135
0.185
0.195
0.18
0.09
0.07
0.155
0.17
0.145
0.17
0.165
0.17
0.19
0.17
0.08
0.13
0.16
0.175
0.16
0.15
0.12
0.155
0.15
0.16
0.15
0.125
0.155
0.14
0.135
0.15
0.15
0.125
0.11
0.145
0.155
0.145
0.15
0.16
0.185
0.15
0.115
0.085
0.105
0.15
0.125
0.185
0.2
0.155
0.15
0.165
0.145
0.185
0.175
0.15
0.155
0.165
0.16
0.14
0.14
0.12
0.115
0.14
0.17
0.155
0.125
0.16
0.175
0.19
0.185
0.17
0.16
0.155
0.19
0.155
0.145
0.125
0.11
0.07
0.045
0.09
0.135
0.185
0.175
0.155
0.125
0.14
0.14
0.12
0.12
0.19
0.215
0.195
0.16
0.165
0.175
0.17
0.16
0.17
0.155
0.15
0.115
0.14
0.13
0.155
0.13
0.165
0.19
0.215
0.2
0.185
0.195
0.215
0.165
0.06
0.09
0.125
0.16
0.12
0.1
0.16
0.19
0.175
0.19
0.185
0.175
0.17
0.15
0.15
0.16
0.14
0.145
0.18
0.205
0.22
0.17
0.17
0.22
0.23
0.18
0.18
0.195
0.195
0.22
0.135
0.165
0.165
0.17
0.16
0.2
0.19
0.18
0.175
0.2
0.19
0.205
0.21
0.2
0.205
0.21
0.185
0.195
0.21
0.26
0.23
0.225
0.205
0.18
0.17
0.21
0.235
0.215
0.19
0.15
0.11
0.135
0.12
0.15
0.165
0.16
0.155
0.16
0.215
0.195
0.165
0.16
0.135
0.155
0.18
0.17
0.16
0.19
0.205
0.17
0.175
0.175
0.175
0.125
0.055
0.115
0.135
0.105
0.15
0.18
0.155
0.105
0.115
0.095
0.135
0.13
0.17
0.185
0.265
0.33
0.44
0.545
0.61
0.63
0.68
0.665
0.71
0.675
0.66
0.74
0.83
0.875
0.86
0.795
0.725
0.665
0.53
0.39
0.315
0.165
0.02
0.045
0.08
0.125
0.19
0.22
0.25
0.235
0.21
0.225
0.235
0.28
0.225
0.22
0.225
0.25
0.24
0.23
0.235
0.26
0.245
0.215
0.215
0.22
0.22
0.155
0.195
0.225
0.24
0.2
0.255
0.245
0.24
0.255
0.285
0.325
0.375
0.305
0.235
0.19
0.215
0.23
0.225
0.235
0.235
0.24
0.215
0.255
0.24
0.23
0.245
0.26
0.275
0.28
0.325
0.285
0.265
0.28
0.255
0.26
0.26
0.28
0.28
0.285
0.32
0.315
0.36
0.315
0.345
0.325
0.345
0.355
0.33
0.335
0.345
0.325
0.345
0.32
0.33
0.33
0.355
0.385
0.41
0.405
0.44
0.42
0.415
0.455
0.435
0.44
0.48
0.4
0.385
0.44
0.475
0.51
0.455
0.45
0.455
0.435
0.47
0.46
0.44
0.435
0.485
0.485
0.49
0.505
0.55
0.595
0.64
0.605
0.56
0.545
0.56
0.505
0.48
0.53
0.535
0.475
0.485
0.49
0.455
0.43
0.435
0.405
0.405
0.435
0.48
0.465
0.43
0.39
0.32
0.31
0.31
0.34
0.335
0.355
0.305
0.24
0.25
0.265
0.285
0.255
0.225
0.235
0.235
0.215
0.24
0.22
0.205
0.21
0.22
0.22
0.275
0.255
0.25
0.24
0.21
0.16
0.16
0.17
0.185
0.2
0.205
0.175
0.14
0.17
0.175
0.21
0.235
0.195
0.2
0.215
0.245
0.19
0.23
0.26
0.2
0.18
0.2
0.185
0.18
0.19
0.23
0.255
0.225
0.225
0.18
0.2
0.23
0.205
0.19
0.175
0.17
0.175
0.205
0.205
0.215
0.205
0.23
0.215
0.205
0.215
0.245
0.225
0.25
0.255
0.23
0.22
0.185
0.155
0.24
0.215
0.225
0.205
0.2
0.21
0.23
0.24
0.255
0.265
0.265
0.285
0.265
0.245
0.22
0.15
0.165
0.17
0.19
0.185
0.165
0.18
0.2
0.215
0.22
0.22
0.265
0.315
0.315
0.255
0.25
0.22
0.145
0.155
0.195
0.19
0.17
0.17
0.21
0.26
0.23
0.22
0.205
0.185
0.21
0.24
0.215
0.225
0.21
0.185
0.165
0.19
0.19
0.22
0.25
0.23
0.165
0.23
0.205
0.175
0.17
0.175
0.185
0.175
0.205
0.21
0.205
0.195
0.165
0.165
0.205
0.205
0.205
0.255
0.26
0.16
0.195
0.185
0.255
0.23
0.205
0.22
0.2
0.2
0.205
0.135
0.165
0.165
0.195
0.19
0.19
0.18
0.175
0.145
0.14
0.18
0.205
0.22
0.24
0.23
0.215
0.195
0.205
0.145
0.17
0.16
0.18
0.19
0.185
0.185
0.175
0.17
0.17
0.16
0.205
0.22
0.195
0.155
0.2
0.18
0.145
0.185
0.205
0.21
0.215
0.225
0.185
0.155
0.195
0.235
0.23
0.17
0.15
0.165
0.19
0.155
0.17
0.19
0.22
0.205
0.21
0.2
0.205
0.225
0.23
0.205
0.19
0.18
0.175
0.155
0.15
0.115
0.18
0.16
0.16
0.2
0.24
0.235
0.24
0.17
0.18
0.195
0.205
0.175
0.175
0.165
0.155
0.19
0.21
0.22
0.235
0.15
0.155
0.155
0.14
0.15
0.205
0.215
0.21
0.205
0.215
0.195
0.185
0.215
0.18
0.16
0.205
0.21
0.17
0.185
0.205
0.12
0.135
0.175
0.225
0.225
0.19
0.175
0.215
0.22
0.23
0.19
0.16
0.175
0.195
0.2
0.23
0.235
0.225
0.195
0.205
0.17
0.16
0.185
0.175
0.155
0.175
0.23
0.21
0.22
0.185
0.175
0.205
0.215
0.16
0.16
0.165
0.13
0.16
0.18
0.135
0.175
0.22
0.22
0.155
0.185
0.225
0.245
0.25
0.245
0.175
0.17
0.2
0.195
0.225
0.24
0.215
0.195
0.175
0.15
0.175
0.19
0.2
0.225
0.2
0.16
0.175
0.22
0.2
0.21
0.245
0.23
0.25
0.315
0.285
0.24
0.235
0.19
0.2
0.235
0.25
0.235
0.225
0.22
0.195
0.2
0.235
0.255
0.255
0.27
0.255
0.155
0.17
0.155
0.18
0.21
0.2
0.19
0.15
0.165
0.175
0.145
0.19
0.225
0.16
0.155
0.195
0.195
0.16
0.19
0.165
0.18
0.16
0.195
0.215
0.16
0.225
0.19
0.17
0.215
0.21
0.165
0.165
0.19
0.175
0.165
0.15
0.16
0.165
0.185
0.235
0.31
0.39
0.485
0.545
0.63
0.67
0.605
0.695
0.805
0.8
0.735
0.805
0.885
0.91
0.865
0.85
0.75
0.665
0.62
0.47
0.26
0.065
0.05
0.12
0.19
0.23
0.23
0.23
0.25
0.18
0.235
0.28
0.24
0.22
0.24
0.215
0.195
0.205
0.205
0.24
0.295
0.27
0.235
0.27
0.245
0.235
0.19
0.19
0.215
0.22
0.24
0.225
0.225
0.25
0.275
0.255
0.275
0.28
0.205
0.235
0.21
0.225
0.23
0.22
0.215
0.23
0.245
0.23
0.24
0.235
0.275
0.28
0.285
0.275
0.28
0.325
0.31
0.285
0.255
0.22
0.245
0.29
0.285
0.265
0.31
0.315
0.315
0.295
0.3
0.35
0.345
0.315
0.295
0.285
0.335
0.335
0.31
0.385
0.405
0.42
0.385
0.37
0.36
0.35
0.39
0.385
0.385
0.435
0.44
0.425
0.285
0.345
0.365
0.405
0.455
0.52
0.455
0.43
0.43
0.425
0.475
0.455
0.485
0.52
0.51
0.475
0.495
0.55
0.585
0.54
0.55
0.58
0.53
0.53
0.475
0.47
0.48
0.485
0.475
0.475
0.51
0.525
0.535
0.525
0.46
0.44
0.43
0.435
0.42
0.485
0.45
0.41
0.395
0.37
0.365
0.385
0.325
0.3
0.265
0.28
0.305
0.315
0.3
0.31
0.33
0.31
0.31
0.31
0.285
0.21
0.175
0.18
0.185
0.195
0.19
0.2
0.22
0.24
0.195
0.17
0.195
0.215
0.2
0.195
0.23
0.21
0.215
0.19
0.19
0.195
0.215
0.15
0.16
0.17
0.19
0.225
0.23
0.205
0.2
0.185
0.19
0.195
0.215
0.23
0.23
0.205
0.205
0.21
0.17
0.165
0.2
0.23
0.22
0.22
0.235
0.275
0.27
0.185
0.145
0.195
0.205
0.2
0.195
0.175
0.19
0.195
0.28
0.22
0.215
0.235
0.235
0.24
0.185
0.165
0.15
0.18
0.24
0.205
0.22
0.27
0.28
0.285
0.24
0.205
0.16
0.13
0.165
0.135
0.145
0.2
0.2
0.215
0.225
0.18
0.22
0.23
0.25
0.185
0.24
0.23
0.195
0.185
0.205
0.2
0.225
0.21
0.2
0.195
0.22
0.205
0.23
0.24
0.28
0.235
0.165
0.025
0.105
0.155
0.175
0.185
0.185
0.19
0.17
0.155
0.17
0.155
0.155
0.155
0.17
0.175
0.185
0.215
0.22
0.18
0.24
0.23
0.145
0.145
0.155
0.13
0.165
0.175
0.185
0.175
0.245
0.26
0.235
0.17
0.08
0.115
0.11
0.18
0.185
0.18
0.17
0.15
0.14
0.15
0.14
0.165
0.195
0.21
0.22
0.22
0.165
0.18
0.17
0.2
0.195
0.16
0.165
0.13
0.17
0.21
0.175
0.14
0.15
0.135
0.135
0.09
0.125
0.175
0.175
0.18
0.16
0.155
0.135
0.135
0.155
0.17
0.18
0.185
0.18
0.19
0.16
0.15
0.17
0.19
0.135
0.18
0.165
0.165
0.135
0.17
0.225
0.175
0.17
0.18
0.185
0.195
0.15
0.15
0.175
0.19
0.17
0.18
0.23
0.215
0.21
0.165
0.185
0.155
0.16
0.16
0.13
0.125
0.135
0.15
0.155
0.18
0.175
0.115
0.16
0.22
0.205
0.19
0.155
0.15
0.12
0.115
0.145
0.16
0.145
0.15
0.18
0.165
0.16
0.17
0.15
0.15
0.16
0.16
0.16
0.165
0.155
0.145
0.18
0.155
0.17
0.17
0.17
0.21
0.195
0.195
0.18
0.19
0.215
0.19
0.16
0.19
0.185
0.17
0.195
0.16
0.06
0.14
0.245
0.235
0.2
0.21
0.21
0.195
0.125
0.16
0.11
0.135
0.17
0.17
0.115
0.115
0.145
0.14
0.14
0.155
0.18
0.185
0.155
0.13
0.12
0.18
0.18
0.16
0.175
0.16
0.18
0.185
0.175
0.19
0.215
0.185
0.175
0.165
0.145
0.17
0.17
0.155
0.165
0.21
0.17
0.18
0.19
0.22
0.205
0.17
0.2
0.23
0.21
0.21
0.235
0.235
0.21
0.23
0.285
0.26
0.16
0.165
0.22
0.245
0.23
0.22
0.265
0.245
0.235
0.205
0.145
0.175
0.15
0.135
0.13
0.175
0.19
0.16
0.19
0.185
0.165
0.115
0.12
0.155
0.105
0.17
0.17
0.15
0.145
0.175
0.18
0.19
0.16
0.12
0.145
0.14
0.17
0.155
0.135
0.145
0.15
0.165
0.155
0.13
0.15
0.2
0.185
0.215
0.175
0.12
0.125
0.055
0.1
0.105
0.13
0.22
0.295
0.385
0.525
0.62
0.675
0.645
0.625
0.62
0.69
0.75
0.725
0.69
0.795
0.84
0.86
0.885
0.83
0.755
0.605
0.505
0.39
0.22
0.065
0.025
0.05
0.115
0.17
0.225
0.245
0.2
0.19
0.19
0.2
0.26
0.22
0.195
0.165
0.19
0.195
0.22
0.23
0.235
0.22
0.215
0.23
0.225
0.215
0.215
0.25
0.31
0.27
0.28
0.265
0.25
0.245
0.22
0.215
0.165
0.185
0.21
0.16
0.165
0.195
0.205
0.225
0.25
0.25
0.24
0.275
0.28
0.235
0.215
0.235
0.24
0.26
0.255
0.245
0.28
0.285
0.3
0.28
0.255
0.275
0.265
0.275
0.21
0.28
0.285
0.32
0.3
0.305
0.31
0.295
0.28
0.245
0.26
0.325
0.315
0.315
0.34
0.385
0.37
0.35
0.35
0.385
0.355
0.385
0.385
0.35
0.35
0.425
0.425
0.365
0.365
0.36
0.4
0.4
0.395
0.415
0.47
0.51
0.475
0.465
0.48
0.51
0.48
0.47
0.52
0.485
0.455
0.475
0.49
0.51
0.52
0.515
0.515
0.47
0.465
0.48
0.485
0.475
0.485
0.475
0.47
0.5
0.47
0.445
0.4
0.4
0.455
0.4
0.395
0.37
0.385
0.42
0.385
0.295
0.275
0.32
0.325
0.305
0.33
0.28
0.26
0.24
0.21
0.275
0.225
0.21
0.175
0.16
0.19
0.17
0.17
0.12
0.12
0.19
0.175
0.225
0.21
0.215
0.17
0.19
0.175
0.16
0.16
0.2
0.21
0.19
0.2
0.195
0.17
0.155
0.17
0.155
0.17
0.2
0.185
0.23
0.205
0.265
0.2
0.165
0.2
0.205
0.19
0.205
0.155
0.175
0.175
0.195
0.175
0.135
0.205
0.2
0.205
0.19
0.17
0.17
0.17
0.2
0.215
0.17
0.185
0.18
0.145
0.135
0.165
0.165
0.17
0.19
0.225
0.175
0.145
0.175
0.195
0.21
0.215
0.195
0.185
0.19
0.19
0.195
0.19
0.17
0.115
0.125
0.165
0.195
0.22
0.225
0.195
0.21
0.2
0.255
0.23
0.245
0.25
0.255
0.28
0.245
0.115
0.135
0.145
0.14
0.145
0.17
0.2
0.165
0.21
0.205
0.195
0.2
0.185
0.16
0.15
0.165
0.165
0.16
0.185
0.19
0.145
0.15
0.16
0.195
0.145
0.125
0.16
0.19
0.18
0.17
0.15
0.165
0.12
0.15
0.15
0.16
0.2
0.21
0.18
0.205
0.22
0.185
0.145
0.165
0.155
0.13
0.12
0.135
0.16
0.195
0.21
0.215
0.24
0.135
0.12
0.185
0.22
0.2
0.19
0.21
0.235
0.17
0.125
0.13
0.115
0.15
0.17
0.135
0.105
0.13
0.14
0.14
0.11
0.1
0.115
0.145
0.14
0.145
0.155
0.105
0.175
0.165
0.205
0.18
0.17
0.17
0.19
0.205
0.12
0.165
0.145
0.155
0.145
0.125
0.145
0.165
0.165
0.175
0.225
0.19
0.235
0.225
0.125
0.08
0.13
0.18
0.21
0.215
0.205
0.175
0.145
0.125
0.085
0.03
0.105
0.105
0.135
0.14
0.115
0.165
0.185
0.21
0.19
0.145
0.16
0.205
0.15
0.115
0.13
0.145
0.09
0.055
0.125
0.17
0.205
0.165
0.145
0.11
0.175
0.195
0.19
0.165
0.14
0.155
0.175
0.18
0.165
0.17
0.195
0.17
0.155
0.21
0.2
0.195
0.155
0.175
0.135
0.115
0.17
0.21
0.21
0.195
0.155
0.165
0.165
0.145
0.185
0.175
0.195
0.175
0.155
0.185
0.205
0.215
0.195
0.2
0.205
0.205
0.185
0.225
0.24
0.25
0.255
0.185
0.16
0.135
0.13
0.215
0.25
0.21
0.17
0.125
0.145
0.155
0.13
0.155
0.19
0.175
0.15
0.17
0.16
0.18
0.175
0.15
0.14
0.16
0.145
0.095
0.12
0.11
0.125
0.14
0.14
0.175
0.205
0.16
0.135
0.185
0.15
0.13
0.065
0.1
0.075
0.03
0.14
0.155
0.155
0.165
0.14
0.215
0.245
0.3
0.375
0.45
0.58
0.675
0.685
0.705
0.725
0.66
0.61
0.67
0.825
0.895
0.905
0.875
0.805
0.71
0.5
0.305
0.205
0.085
-0.045
0.035
0.075
0.08
0.15
0.2
0.23
0.245
0.2
0.215
0.195
0.205
0.175
0.17
0.165
0.19
0.24
0.265
0.24
0.2
0.215
0.2
0.23
0.285
0.265
0.245
0.215
0.175
0.16
0.19
0.185
0.185
0.19
0.235
0.255
0.255
0.23
0.25
0.265
0.265
0.23
0.175
0.185
0.215
0.2
0.21
0.25
0.26
0.275
0.27
0.28
0.295
0.25
0.205
0.22
0.265
0.25
0.265
0.27
0.28
0.27
0.275
0.295
0.28
0.32
0.355
0.325
0.295
0.26
0.265
0.3
0.295
0.31
0.305
0.335
0.34
0.335
0.35
0.405
0.38
0.34
0.305
0.355
0.365
0.37
0.37
0.38
0.355
0.36
0.37
0.345
0.47
0.43
0.425
0.42
0.415
0.405
0.44
0.49
0.49
0.505
0.52
0.52
0.445
0.46
0.465
0.435
0.445
0.475
0.475
0.515
0.48
0.49
0.485
0.5
0.465
0.505
0.47
0.46
0.48
0.44
0.48
0.505
0.48
0.46
0.415
0.395
0.425
0.415
0.37
0.365
0.385
0.355
0.37
0.39
0.325
0.235
0.215
0.235
0.245
0.21
0.175
0.23
0.23
0.255
0.24
0.17
0.16
0.22
0.205
0.185
0.185
0.195
0.205
0.25
0.205
0.125
0.105
0.125
0.115
0.125
0.14
0.18
0.17
0.16
0.12
0.115
0.135
0.145
0.195
0.21
0.19
0.175
0.14
0.16
0.18
0.19
0.15
0.145
0.12
0.175
0.205
0.16
0.15
0.2
0.195
0.185
0.15
0.145
0.135
0.19
0.17
0.195
0.195
0.17
0.23
0.225
0.255
0.29
0.23
0.22
0.17
0.15
0.075
0.105
0.14
0.11
0.14
0.18
0.21
0.18
0.12
0.11
0.15
0.215
0.235
0.175
0.15
0.135
0.155
0.17
0.185
0.18
0.18
0.185
0.175
0.16
0.165
0.17
0.205
0.19
0.2
0.205
0.15
0.11
0.115
0.135
0.17
0.195
0.165
0.16
0.17
0.19
0.22
0.205
0.175
0.175
0.205
0.2
0.21
0.175
0.215
0.19
0.215
0.225
0.185
0.18
0.155
0.16
0.155
0.165
0.16
0.165
0.16
0.14
0.16
0.12
0.095
0.075
0.105
0.19
0.19
0.17
0.13
0.165
0.1
0.1
0.16
0.19
0.165
0.175
0.165
0.16
0.145
0.125
0.135
0.1
0.12
0.155
0.205
0.14
0.18
0.185
0.18
0.18
0.2
0.195
0.17
0.19
0.16
0.18
0.19
0.17
0.175
0.16
0.17
0.16
0.11
0.13
0.165
0.11
0.095
0.115
0.13
0.11
0.12
0.15
0.135
0.165
0.16
0.205
0.2
0.16
0.16
0.19
0.18
0.18
0.16
0.2
0.18
0.185
0.12
0.145
0.155
0.18
0.17
0.11
0.145
0.165
0.18
0.19
0.185
0.2
0.23
0.19
0.195
0.22
0.25
0.215
0.21
0.23
0.22
0.19
0.14
0.15
0.125
0.18
0.195
0.2
0.195
0.16
0.2
0.185
0.19
0.18
0.14
0.125
0.155
0.165
0.155
0.13
0.105
0.15
0.155
0.125
0.09
0.115
0.125
0.125
0.125
0.125
0.145
0.205
0.205
0.15
0.135
0.135
0.115
0.09
0.155
0.21
0.18
0.165
0.1
0.065
0.04
0.065
0.095
0.105
0.12
0.115
0.195
0.3
0.39
0.51
0.58
0.65
0.665
0.645
0.665
0.675
0.685
0.635
0.73
0.8
0.865
0.82
0.78
0.77
0.675
0.535
0.39
0.22
0.025
-0.025
-0.01
0.07
0.155
0.225
0.235
0.22
0.225
0.16
0.12
0.11
0.155
0.23
0.235
0.2
0.185
0.19
0.185
0.255
0.225
0.2
0.175
0.185
0.205
0.21
0.16
0.185
0.21
0.22
0.24
0.265
0.265
0.245
0.255
0.25
0.235
0.21
0.225
0.225
0.22
0.225
0.23
0.225
0.21
0.235
0.24
0.22
0.215
0.25
0.235
0.24
0.22
0.255
0.21
0.215
0.255
0.255
0.31
0.27
0.205
0.235
0.3
0.26
0.27
0.295
0.335
0.31
0.265
0.235
0.26
0.295
0.285
0.29
0.33
0.365
0.35
0.325
0.32
0.335
0.345
0.34
0.35
0.36
0.345
0.385
0.44
0.395
0.385
0.385
0.43
0.4
0.425
0.375
0.38
0.39
0.45
0.455
0.475
0.47
0.46
0.455
0.45
0.49
0.49
0.495
0.475
0.54
0.55
0.525
0.48
0.505
0.49
0.48
0.48
0.47
0.51
0.48
0.535
0.505
0.515
0.495
0.485
0.495
0.47
0.42
0.4
0.38
0.355
0.395
0.395
0.36
0.34
0.31
0.29
0.28
0.345
0.31
0.315
0.255
0.24
0.235
0.24
0.295
0.235
0.24
0.23
0.145
0.185
0.185
0.145
0.18
0.22
0.23
0.235
0.225
0.14
0.205
0.18
0.14
0.135
0.16
0.145
0.15
0.23
0.215
0.2
0.16
0.16
0.16
0.11
0.125
0.155
0.16
0.17
0.17
0.16
0.21
0.225
0.205
0.225
0.21
0.185
0.17
0.15
0.165
0.185
0.2
0.185
0.195
0.19
0.14
0.175
0.26
0.23
0.225
0.21
0.245
0.2
0.16
0.21
0.19
0.175
0.18
0.19
0.245
0.255
0.275
0.295
0.31
0.21
0.135
0.08
0.095
0.13
0.135
0.21
0.195
0.24
0.235
0.23
0.2
0.18
0.19
0.215
0.225
0.22
0.185
0.155
0.165
0.205
0.17
0.195
0.26
0.235
0.23
0.195
0.19
0.125
0.145
0.175
0.22
0.215
0.245
0.265
0.25
0.22
0.185
0.19
0.11
0.155
0.195
0.205
0.19
0.185
0.185
0.17
0.18
0.2
0.265
0.315
0.245
0.245
0.26
0.175
0.145
0.13
0.175
0.19
0.175
0.13
0.145
0.11
0.12
0.145
0.195
0.195
0.205
0.255
0.24
0.215
0.175
0.19
0.205
0.16
0.145
0.185
0.175
0.145
0.135
0.155
0.17
0.15
0.19
0.185
0.24
0.22
0.21
0.155
0.15
0.16
0.19
0.17
0.2
0.215
0.18
0.165
0.21
0.205
0.18
0.155
0.125
0.125
0.14
0.16
0.19
0.195
0.185
0.19
0.195
0.215
0.175
0.175
0.165
0.165
0.15
0.165
0.175
0.22
0.23
0.21
0.23
0.18
0.155
0.135
0.13
0.165
0.185
0.165
0.155
0.165
0.185
0.19
0.25
0.205
0.165
0.2
0.18
0.16
0.18
0.185
0.205
0.245
0.225
0.225
0.225
0.27
0.16
0.12
0.14
0.2
0.18
0.12
0.16
0.175
0.175
0.165
0.185
0.195
0.165
0.16
0.165
0.165
0.195
0.235
0.235
0.205
0.16
0.135
0.17
0.195
0.155
0.14
0.17
0.165
0.18
0.155
0.17
0.21
0.17
0.215
0.22
0.22
0.185
0.155
0.15
0.165
0.17
0.17
0.195
0.24
0.21
0.225
0.185
0.185
0.235
0.21
0.19
0.185
0.175
0.19
0.22
0.21
0.205
0.19
0.16
0.185
0.155
0.14
0.195
0.18
0.175
0.19
0.21
0.21
0.2
0.165
0.205
0.24
0.215
0.23
0.215
0.235
0.235
0.23
0.24
0.215
0.23
0.17
0.195
0.21
0.2
0.22
0.235
0.23
0.235
0.24
0.235
0.24
0.24
0.22
0.155
0.155
0.165
0.215
0.22
0.21
0.205
0.23
0.21
0.225
0.215
0.25
0.24
0.18
0.255
0.2
0.2
0.185
0.155
0.2
0.22
0.2
0.205
0.15
0.13
0.18
0.165
0.155
0.185
0.16
0.13
0.12
0.14
0.165
0.225
0.23
0.19
0.2
0.195
0.15
0.145
0.075
0.09
0.11
0.18
0.325
0.365
0.44
0.57
0.645
0.68
0.68
0.675
0.76
0.78
0.73
0.715
0.82
0.895
0.885
0.9
0.9
0.82
0.69
0.57
0.415
0.225
0.07
0.075
0.1
0.14
0.205
0.225
0.24
0.27
0.265
0.235
0.23
0.255
0.3
0.275
0.265
0.285
0.285
0.205
0.16
0.145
0.16
0.18
0.205
0.25
0.205
0.245
0.225
0.225
0.25
0.26
0.275
0.245
0.26
0.265
0.255
0.295
0.29
0.265
0.2
0.22
0.205
0.2
0.215
0.24
0.305
0.3
0.23
0.225
0.29
0.27
0.295
0.295
0.295
0.285
0.29
0.29
0.315
0.29
0.285
0.29
0.29
0.28
0.31
0.34
0.325
0.33
0.32
0.335
0.295
0.315
0.255
0.23
0.25
0.3
0.335
0.355
0.385
0.395
0.41
0.39
0.36
0.33
0.33
0.34
0.37
0.365
0.365
0.39
0.385
0.39
0.385
0.41
0.455
0.505
0.505
0.445
0.485
0.49
0.445
0.445
0.485
0.495
0.515
0.52
0.525
0.505
0.52
0.53
0.51
0.485
0.51
0.535
0.51
0.465
0.57
0.545
0.56
0.48
0.44
0.49
0.505
0.5
0.475
0.495
0.505
0.475
0.465
0.42
0.425
0.395
0.345
0.265
0.31
0.365
0.365
0.32
0.315
0.315
0.31
0.28
0.265
0.275
0.29
0.31
0.28
0.265
0.28
0.3
0.26
0.22
0.19
0.175
0.215
0.27
0.265
0.275
0.27
0.185
0.16
0.205
0.195
0.2
0.235
0.235
0.245
0.205
0.22
0.22
0.205
0.285
0.26
0.24
0.245
0.215
0.315
0.25
0.2
0.185
0.25
0.185
0.205
0.17
0.16
0.17
0.185
0.21
0.215
0.19
0.185
0.19
0.245
0.23
0.24
0.22
0.195
0.19
0.21
0.25
0.285
0.255
0.23
0.225
0.25
0.24
0.265
0.26
0.265
0.26
0.26
0.215
0.21
0.225
0.205
0.195
0.19
0.2
0.245
0.275
0.3
0.295
0.285
0.315
0.27
0.175
0.2
0.25
0.225
0.19
0.18
0.185
0.25
0.235
0.24
0.29
0.29
0.245
0.21
0.165
0.19
0.22
0.21
0.175
0.2
0.255
0.2
0.2
0.23
0.245
0.22
0.235
0.215
0.205
0.17
0.2
0.23
0.23
0.225
0.195
0.19
0.265
0.245
0.245
0.265
0.28
0.26
0.27
0.285
0.235
0.24
0.22
0.24
0.235
0.265
0.28
0.25
0.23
0.185
0.22
0.225
0.245
0.215
0.22
0.22
0.165
0.145
0.165
0.19
0.24
0.255
0.265
0.3
0.275
0.195
0.15
0.155
0.19
0.18
0.195
0.215
0.255
0.225
0.195
0.19
0.22
0.21
0.195
0.225
0.22
0.205
0.2
0.19
0.19
0.19
0.2
0.225
0.23
0.23
0.24
0.23
0.26
0.23
0.195
0.255
0.24
0.215
0.24
0.255
0.22
0.225
0.235
0.245
0.18
0.18
0.2
0.24
0.19
0.22
0.22
0.22
0.205
0.19
0.22
0.25
0.185
0.195
0.155
0.19
0.195
0.21
0.225
0.185
0.205
0.195
0.185
0.19
0.205
0.235
0.185
0.225
0.225
0.245
0.235
0.24
0.235
0.27
0.235
0.205
0.22
0.225
0.185
0.2
0.25
0.265
0.25
0.225
0.2
0.19
0.165
0.185
0.19
0.17
0.21
0.27
0.28
0.285
0.29
0.255
0.135
0.105
0.135
0.16
0.23
0.255
0.25
0.255
0.26
0.145
0.15
0.195
0.235
0.205
0.2
0.26
0.23
0.215
0.2
0.18
0.15
0.175
0.21
0.22
0.25
0.245
0.245
0.265
0.22
0.17
0.17
0.205
0.205
0.265
0.27
0.26
0.265
0.235
0.225
0.22
0.215
0.21
0.25
0.245
0.23
0.305
0.32
0.27
0.29
0.265
0.26
0.265
0.22
0.21
0.22
0.205
0.225
0.295
0.295
0.235
0.225
0.24
0.225
0.22
0.285
0.26
0.285
0.305
0.285
0.27
0.24
0.165
0.15
0.175
0.19
0.19
0.18
0.18
0.19
0.205
0.14
0.17
0.235
0.29
0.265
0.22
0.19
0.17
0.225
0.17
0.175
0.21
0.205
0.205
0.24
0.23
0.255
0.26
0.25
0.255
0.185
0.125
0.125
0.175
0.16
0.135
0.16
0.165
0.22
0.27
0.365
0.485
0.64
0.675
0.72
0.72
0.73
0.79
0.805
0.76
0.765
0.89
0.89
0.915
0.885
0.86
0.775
0.635
0.52
0.345
0.205
0.115
0.11
0.185
0.29
0.3
0.235
0.21
0.21
0.18
0.26
0.255
0.265
0.285
0.285
0.29
0.275
0.29
0.27
0.25
0.255
0.26
0.235
0.285
0.315
0.25
0.255
0.29
0.26
0.255
0.23
0.26
0.25
0.235
0.28
0.265
0.25
0.26
0.24
0.275
0.27
0.28
0.3
0.305
0.28
0.29
0.26
0.29
0.27
0.305
0.255
0.235
0.29
0.31
0.335
0.33
0.32
0.345
0.31
0.3
0.32
0.325
0.335
0.315
0.315
0.345
0.38
0.375
0.34
0.33
0.345
0.335
0.305
0.365
0.41
0.4
0.385
0.37
0.42
0.49
0.46
0.375
0.43
0.435
0.395
0.375
0.345
0.395
0.42
0.42
0.365
0.38
0.395
0.47
0.475
0.505
0.51
0.515
0.515
0.5
0.515
0.52
0.51
0.49
0.535
0.58
0.605
0.545
0.505
0.535
0.525
0.605
0.56
0.515
0.525
0.515
0.545
0.545
0.52
0.495
0.49
0.48
0.46
0.445
0.46
0.45
0.51
0.495
0.545
0.52
0.515
0.47
0.445
0.44
0.4
0.36
0.36
0.385
0.39
0.385
0.35
0.3
0.275
0.34
0.26
0.24
0.31
0.28
0.285
0.235
0.275
0.28
0.23
0.205
0.185
0.235
0.265
0.26
0.225
0.25
0.255
0.25
0.21
0.235
0.22
0.205
0.23
0.22
0.22
0.25
0.23
0.235
0.26
0.24
0.255
0.245
0.24
0.335
0.265
0.19
0.205
0.26
0.23
0.27
0.26
0.27
0.265
0.22
0.25
0.285
0.295
0.26
0.275
0.29
0.235
0.245
0.225
0.195
0.215
0.21
0.285
0.225
0.19
0.25
0.24
0.22
0.21
0.225
0.255
0.24
0.255
0.29
0.32
0.28
0.23
0.27
0.24
0.245
0.25
0.185
0.185
0.2
0.25
0.24
0.315
0.305
0.29
0.245
0.27
0.28
0.26
0.215
0.245
0.265
0.28
0.275
0.26
0.29
0.28
0.285
0.255
0.255
0.23
0.225
0.25
0.255
0.21
0.19
0.235
0.255
0.23
0.235
0.215
0.215
0.18
0.225
0.195
0.185
0.2
0.195
0.22
0.215
0.225
0.25
0.255
0.25
0.195
0.205
0.225
0.2
0.205
0.175
0.165
0.24
0.245
0.3
0.265
0.21
0.2
0.205
0.16
0.145
0.185
0.25
0.25
0.235
0.23
0.21
0.23
0.255
0.25
0.29
0.23
0.16
0.155
0.15
0.155
0.215
0.195
0.205
0.2
0.225
0.25
0.245
0.28
0.255
0.185
0.115
0.155
0.215
0.21
0.245
0.27
0.24
0.19
0.245
0.215
0.2
0.115
0.12
0.185
0.18
0.205
0.185
0.225
0.215
0.13
0.195
0.22
0.2
0.22
0.215
0.22
0.22
0.205
0.21
0.165
0.135
0.155
0.205
0.27
0.26
0.255
0.205
0.205
0.225
0.165
0.15
0.165
0.17
0.205
0.18
0.21
0.27
0.235
0.235
0.175
0.17
0.19
0.16
0.175
0.25
0.265
0.195
0.2
0.195
0.23
0.215
0.185
0.17
0.185
0.2
0.215
0.205
0.235
0.2
0.2
0.225
0.255
0.17
0.185
0.19
0.195
0.145
0.245
0.22
0.21
0.21
0.215
0.2
0.185
0.16
0.225
0.23
0.18
0.22
0.175
0.2
0.25
0.245
0.255
0.27
0.245
0.24
0.17
0.135
0.155
0.17
0.205
0.22
0.18
0.175
0.185
0.225
0.24
0.23
0.225
0.305
0.275
0.24
0.215
0.2
0.18
0.175
0.18
0.25
0.255
0.27
0.265
0.225
0.205
0.31
0.3
0.29
0.265
0.265
0.27
0.29
0.3
0.32
0.265
0.235
0.225
0.24
0.265
0.245
0.23
0.18
0.195
0.195
0.24
0.265
0.235
0.24
0.255
0.255
0.27
0.23
0.2
0.22
0.24
0.17
0.165
0.22
0.205
0.17
0.185
0.175
0.16
0.17
0.21
0.195
0.2
0.24
0.205
0.205
0.22
0.19
0.19
0.19
0.205
0.26
0.23
0.23
0.2
0.15
0.125
0.115
0.17
0.235
0.215
0.245
0.255
0.21
0.265
0.37
0.53
0.605
0.625
0.705
0.715
0.735
0.765
0.865
0.865
0.845
0.885
0.87
0.895
0.905
0.88
0.78
0.7
0.62
0.365
0.205
0.045
0.06
0.13
0.215
0.28
0.29
0.265
0.28
0.22
0.215
0.21
0.225
0.215
0.26
0.27
0.275
0.3
0.33
0.315
0.25
0.255
0.25
0.25
0.295
0.31
0.3
0.32
0.335
0.305
0.28
0.345
0.365
0.285
0.23
0.24
0.25
0.26
0.235
0.235
0.245
0.355
0.3
0.325
0.31
0.275
0.225
0.225
0.31
0.29
0.325
0.36
0.33
0.31
0.305
0.34
0.295
0.275
0.305
0.32
0.365
0.36
0.31
0.35
0.325
0.335
0.36
0.395
0.375
0.37
0.375
0.38
0.335
0.31
0.34
0.345
0.355
0.425
0.43
0.485
0.465
0.425
0.435
0.44
0.505
0.485
0.45
0.455
0.48
0.485
0.465
0.43
0.46
0.45
0.48
0.47
0.48
0.51
0.475
0.475
0.535
0.56
0.52
0.52
0.52
0.54
0.51
0.5
0.605
0.56
0.52
0.54
0.565
0.58
0.61
0.645
0.635
0.605
0.57
0.52
0.555
0.55
0.57
0.545
0.55
0.555
0.49
0.5
0.475
0.48
0.5
0.45
0.455
0.405
0.435
0.46
0.44
0.41
0.36
0.37
0.355
0.405
0.41
0.39
0.255
0.22
0.265
0.25
0.255
0.26
0.275
0.285
0.25
0.235
0.245
0.25
0.25
0.255
0.26
0.29
0.26
0.285
0.255
0.26
0.255
0.255
0.25
0.29
0.285
0.29
0.32
0.31
0.275
0.245
0.265
0.26
0.28
0.275
0.3
0.295
0.28
0.25
0.17
0.2
0.255
0.29
0.315
0.26
0.24
0.215
0.235
0.27
0.315
0.295
0.27
0.24
0.255
0.255
0.29
0.295
0.28
0.285
0.24
0.195
0.305
0.35
0.385
0.365
0.305
0.27
0.255
0.22
0.27
0.25
0.25
0.255
0.285
0.265
0.25
0.215
0.205
0.225
0.28
0.29
0.38
0.305
0.305
0.28
0.205
0.235
0.26
0.275
0.275
0.255
0.25
0.275
0.315
0.29
0.275
0.27
0.285
0.275
0.285
0.25
0.22
0.255
0.245
0.265
0.25
0.255
0.265
0.27
0.295
0.27
0.195
0.225
0.225
0.235
0.16
0.16
0.205
0.225
0.33
0.315
0.29
0.325
0.325
0.305
0.295
0.28
0.255
0.22
0.2
0.215
0.25
0.245
0.235
0.185
0.275
0.25
0.275
0.23
0.215
0.195
0.235
0.225
0.21
0.255
0.24
0.24
0.26
0.265
0.265
0.23
0.265
0.28
0.295
0.25
0.23
0.18
0.15
0.155
0.19
0.21
0.23
0.195
0.205
0.25
0.315
0.29
0.24
0.23
0.27
0.29
0.25
0.255
0.3
0.3
0.25
0.19
0.24
0.255
0.26
0.28
0.24
0.225
0.24
0.24
0.24
0.27
0.255
0.24
0.19
0.215
0.22
0.27
0.215
0.155
0.2
0.215
0.21
0.225
0.24
0.27
0.2
0.22
0.24
0.235
0.21
0.21
0.175
0.21
0.27
0.25
0.24
0.25
0.235
0.27
0.265
0.24
0.23
0.21
0.255
0.235
0.18
0.205
0.235
0.23
0.22
0.205
0.225
0.195
0.235
0.29
0.265
0.265
0.25
0.26
0.25
0.25
0.27
0.23
0.205
0.215
0.235
0.29
0.285
0.27
0.225
0.265
0.255
0.295
0.275
0.275
0.22
0.19
0.155
0.125
0.185
0.25
0.25
0.26
0.275
0.29
0.3
0.245
0.215
0.24
0.285
0.295
0.28
0.255
0.255
0.185
0.23
0.275
0.265
0.325
0.345
0.375
0.315
0.275
0.255
0.24
0.255
0.27
0.265
0.3
0.275
0.285
0.265
0.245
0.31
0.33
0.3
0.255
0.25
0.265
0.245
0.255
0.215
0.215
0.215
0.225
0.225
0.235
0.295
0.295
0.285
0.315
0.29
0.24
0.23
0.21
0.19
0.19
0.22
0.21
0.205
0.2
0.205
0.2
0.21
0.225
0.255
0.265
0.26
0.265
0.255
0.165
0.19
0.185
0.135
0.125
0.14
0.165
0.18
0.245
0.355
0.42
0.505
0.57
0.66
0.745
0.815
0.795
0.755
0.825
0.885
0.795
0.86
0.89
0.95
0.935
0.92
0.84
0.73
0.64
0.5
0.335
0.15
0.17
0.225
0.2
0.225
0.27
0.24
0.245
0.295
0.305
0.315
0.255
0.25
0.23
0.22
0.25
0.23
0.245
0.315
0.31
0.3
0.27
0.335
0.32
0.33
0.32
0.33
0.315
0.285
0.28
0.235
0.295
0.36
0.36
0.29
0.325
0.3
0.3
0.325
0.315
0.345
0.365
0.435
0.375
0.29
0.255
0.27
0.27
0.305
0.365
0.385
0.39
0.4
0.33
0.285
0.33
0.305
0.295
0.275
0.275
0.305
0.365
0.35
0.305
0.325
0.35
0.34
0.425
0.45
0.37
0.355
0.34
0.415
0.41
0.43
0.43
0.435
0.475
0.435
0.365
0.345
0.365
0.44
0.455
0.47
0.47
0.495
0.48
0.465
0.46
0.48
0.51
0.555
0.49
0.465
0.505
0.535
0.59
0.57
0.6
0.57
0.555
0.565
0.565
0.605
0.645
0.625
0.595
0.545
0.52
0.525
0.54
0.52
0.545
0.57
0.49
0.515
0.54
0.51
0.525
0.56
0.53
0.525
0.535
0.55
0.56
0.515
0.52
0.51
0.475
0.5
0.52
0.42
0.415
0.405
0.38
0.38
0.355
0.39
0.38
0.375
0.37
0.33
0.3
0.295
0.285
0.31
0.375
0.355
0.35
0.33
0.25
0.23
0.255
0.265
0.27
0.25
0.255
0.29
0.25
0.225
0.215
0.285
0.32
0.305
0.315
0.36
0.345
0.25
0.22
0.24
0.235
0.225
0.255
0.205
0.185
0.215
0.265
0.245
0.28
0.25
0.24
0.29
0.285
0.265
0.29
0.295
0.3
0.295
0.31
0.305
0.26
0.255
0.285
0.275
0.24
0.205
0.195
0.215
0.23
0.27
0.305
0.305
0.295
0.29
0.345
0.33
0.345
0.36
0.36
0.23
0.25
0.275
0.305
0.3
0.26
0.25
0.25
0.32
0.3
0.25
0.275
0.255
0.26
0.295
0.315
0.255
0.28
0.275
0.265
0.295
0.27
0.235
0.27
0.3
0.325
0.265
0.25
0.205
0.235
0.26
0.285
0.28
0.3
0.32
0.32
0.285
0.245
0.29
0.25
0.265
0.25
0.22
0.21
0.265
0.285
0.305
0.28
0.275
0.275
0.255
0.265
0.31
0.295
0.27
0.295
0.28
0.285
0.23
0.18
0.235
0.235
0.275
0.205
0.21
0.25
0.24
0.225
0.255
0.25
0.23
0.295
0.26
0.205
0.21
0.24
0.215
0.195
0.225
0.26
0.28
0.265
0.265
0.32
0.295
0.27
0.295
0.25
0.225
0.28
0.28
0.225
0.24
0.265
0.275
0.335
0.28
0.205
0.245
0.28
0.29
0.285
0.225
0.2
0.225
0.23
0.22
0.285
0.31
0.395
0.415
0.355
0.31
0.26
0.26
0.255
0.26
0.275
0.27
0.255
0.24
0.235
0.25
0.26
0.23
0.255
0.29
0.32
0.235
0.235
0.235
0.26
0.26
0.255
0.24
0.28
0.255
0.21
0.215
0.205
0.195
0.185
0.23
0.24
0.24
0.31
0.325
0.295
0.3
0.24
0.215
0.145
0.195
0.26
0.23
0.225
0.23
0.225
0.175
0.195
0.225
0.22
0.23
0.18
0.175
0.195
0.15
0.13
0.175
0.24
0.31
0.375
0.435
0.525
0.615
0.715
0.725
0.77
0.765
0.765
0.74
0.69
0.77
0.87
0.86
0.89
0.885
0.835
0.725
0.575
0.445
0.315
0.1
0.045
0.085
0.13
0.175
0.27
0.255
0.315
0.32
0.285
0.26
0.26
0.285
0.29
0.285
0.29
0.245
0.255
0.31
0.305
0.275
0.32
0.32
0.315
0.3
0.275
0.345
0.315
0.28
0.315
0.28
0.27
0.32
0.33
0.305
0.35
0.305
0.325
0.31
0.275
0.325
0.325
0.285
0.27
0.285
0.275
0.3
0.37
0.31
0.26
0.275
0.36
0.3
0.295
0.32
0.31
0.35
0.37
0.355
0.335
0.37
0.39
0.385
0.345
0.345
0.315
0.31
0.405
0.44
0.41
0.375
0.42
0.455
0.385
0.355
0.41
0.42
0.42
0.39
0.42
0.42
0.445
0.48
0.47
0.45
0.44
0.48
0.5
0.485
0.495
0.55
0.535
0.54
0.5
0.525
0.575
0.525
0.48
0.515
0.495
0.57
0.615
0.595
0.55
0.53
0.57
0.63
0.595
0.575
0.585
0.615
0.615
0.63
0.635
0.59
0.605
0.6
0.575
0.585
0.555
0.55
0.56
0.545
0.535
0.53
0.52
0.53
0.505
0.495
0.455
0.425
0.43
0.445
0.46
0.445
0.36
0.415
0.4
0.375
0.36
0.295
0.28
0.31
0.345
0.355
0.35
0.285
0.27
0.31
0.325
0.27
0.19
0.215
0.235
0.25
0.275
0.3
0.27
0.32
0.245
0.24
0.26
0.31
0.305
0.32
0.28
0.27
0.2
0.215
0.245
0.245
0.25
0.3
0.29
0.28
0.235
0.325
0.235
0.28
0.3
0.26
0.26
0.255
0.255
0.255
0.295
0.29
0.265
0.24
0.275
0.255
0.285
0.305
0.275
0.3
0.32
0.335
0.29
0.27
0.295
0.295
0.28
0.27
0.24
0.21
0.215
0.23
0.27
0.315
0.31
0.265
0.295
0.33
0.315
0.28
0.295
0.325
0.34
0.325
0.305
0.3
0.22
0.205
0.27
0.355
0.335
0.33
0.27
0.23
0.29
0.28
0.29
0.275
0.3
0.33
0.315
0.255
0.255
0.285
0.275
0.26
0.275
0.295
0.255
0.26
0.32
0.28
0.25
0.225
0.25
0.275
0.29
0.275
0.26
0.29
0.315
0.25
0.29
0.27
0.26
0.31
0.25
0.265
0.265
0.285
0.275
0.285
0.315
0.305
0.225
0.23
0.245
0.275
0.27
0.26
0.27
0.29
0.31
0.27
0.265
0.235
0.19
0.215
0.315
0.34
0.275
0.24
0.255
0.28
0.265
0.26
0.225
0.27
0.26
0.28
0.305
0.245
0.215
0.2
0.21
0.245
0.315
0.31
0.28
0.28
0.295
0.27
0.295
0.325
0.28
0.295
0.325
0.32
0.3
0.315
0.33
0.345
0.33
0.285
0.28
0.32
0.305
0.325
0.2
0.215
0.24
0.22
0.245
0.235
0.27
0.29
0.315
0.29
0.28
0.22
0.225
0.22
0.295
0.335
0.25
0.24
0.23
0.17
0.19
0.2
0.225
0.255
0.23
0.215
0.195
0.22
0.27
0.26
0.215
0.23
0.24
0.27
0.22
0.195
0.225
0.195
0.195
0.18
0.21
0.21
0.23
0.295
0.385
0.5
0.585
0.635
0.68
0.745
0.79
0.8
0.785
0.82
0.795
0.89
0.925
0.99
0.97
0.88
0.855
0.745
0.63
0.5
0.31
0.13
0.025
0.1
0.205
0.255
0.32
0.32
0.27
0.24
0.265
0.26
0.24
0.29
0.32
0.255
0.275
0.315
0.295
0.26
0.31
0.275
0.315
0.325
0.33
0.3
0.26
0.285
0.25
0.25
0.3
0.29
0.28
0.34
0.305
0.35
0.37
0.385
0.355
0.28
0.34
0.395
0.395
0.4
0.36
0.305
0.32
0.255
0.235
0.285
0.335
0.36
0.335
0.27
0.3
0.31
0.34
0.35
0.44
0.445
0.41
0.31
0.32
0.325
0.33
0.325
0.3
0.3
0.36
0.415
0.41
0.37
0.37
0.385
0.43
0.37
0.375
0.42
0.48
0.465
0.44
0.395
0.42
0.465
0.43
0.465
0.49
0.53
0.54
0.535
0.535
0.55
0.5
0.48
0.495
0.45
0.53
0.52
0.535
0.55
0.535
0.515
0.55
0.625
0.57
0.605
0.615
0.6
0.53
0.575
0.6
0.57
0.545
0.545
0.55
0.545
0.595
0.6
0.56
0.585
0.555
0.555
0.545
0.555
0.525
0.515
0.52
0.47
0.48
0.535
0.505
0.485
0.44
0.395
0.35
0.365
0.385
0.39
0.335
0.35
0.37
0.4
0.385
0.415
0.35
0.325
0.33
0.26
0.26
0.26
0.22
0.215
0.27
0.26
0.26
0.26
0.25
0.215
0.235
0.24
0.33
0.31
0.31
0.335
0.315
0.3
0.26
0.26
0.235
0.23
0.235
0.265
0.275
0.29
0.295
0.28
0.295
0.27
0.26
0.29
0.315
0.29
0.22
0.2
0.285
0.27
0.24
0.26
0.315
0.31
0.315
0.25
0.265
0.275
0.28
0.3
0.3
0.255
0.27
0.28
0.305
0.32
0.29
0.28
0.235
0.285
0.325
0.34
0.375
0.315
0.235
0.23
0.31
0.29
0.25
0.26
0.265
0.27
0.275
0.3
0.31
0.32
0.355
0.35
0.305
0.285
0.315
0.27
0.25
0.27
0.265
0.27
0.245
0.275
0.26
0.275
0.28
0.215
0.29
0.29
0.26
0.305
0.29
0.295
0.305
0.27
0.27
0.3
0.305
0.315
0.285
0.22
0.18
0.215
0.22
0.25
0.3
0.335
0.335
0.355
0.31
0.25
0.255
0.235
0.235
0.275
0.255
0.245
0.265
0.265
0.235
0.215
0.245
0.245
0.24
0.28
0.26
0.28
0.315
0.305
0.29
0.22
0.225
0.215
0.245
0.275
0.27
0.26
0.26
0.305
0.26
0.25
0.24
0.245
0.26
0.25
0.225
0.255
0.295
0.295
0.33
0.315
0.275
0.32
0.27
0.255
0.24
0.235
0.21
0.225
0.23
0.195
0.23
0.22
0.215
0.23
0.195
0.22
0.28
0.26
0.265
0.26
0.24
0.27
0.225
0.24
0.28
0.3
0.355
0.27
0.245
0.29
0.25
0.27
0.26
0.21
0.215
0.225
0.28
0.26
0.265
0.245
0.28
0.27
0.235
0.24
0.23
0.29
0.32
0.285
0.25
0.255
0.28
0.255
0.255
0.3
0.365
0.335
0.295
0.26
0.235
0.28
0.245
0.28
0.29
0.25
0.26
0.285
0.295
0.225
0.205
0.265
0.34
0.305
0.325
0.34
0.34
0.315
0.325
0.29
0.285
0.285
0.27
0.28
0.23
0.265
0.28
0.285
0.265
0.265
0.28
0.26
0.19
0.18
0.2
0.22
0.25
0.24
0.25
0.23
0.26
0.295
0.27
0.27
0.28
0.245
0.245
0.23
0.205
0.185
0.235
0.235
0.27
0.28
0.17
0.125
0.155
0.18
0.19
0.215
0.225
0.31
0.325
0.36
0.485
0.605
0.695
0.73
0.73
0.705
0.8
0.865
0.835
0.82
0.92
0.985
0.985
0.965
0.9
0.8
0.71
0.555
0.445
0.29
0.145
0.145
0.175
0.215
0.275
0.315
0.315
0.31
0.33
0.355
0.355
0.315
0.32
0.385
0.375
0.4
0.34
0.28
0.19
0.205
0.28
0.26
0.245
0.29
0.275
0.3
0.32
0.305
0.35
0.325
0.31
0.275
0.295
0.245
0.25
0.28
0.305
0.32
0.32
0.355
0.365
0.355
0.285
0.31
0.34
0.315
0.315
0.32
0.325
0.34
0.32
0.29
0.345
0.36
0.405
0.37
0.34
0.325
0.335
0.335
0.325
0.36
0.39
0.4
0.37
0.395
0.365
0.37
0.355
0.36
0.385
0.41
0.44
0.46
0.44
0.425
0.395
0.35
0.425
0.495
0.445
0.37
0.385
0.45
0.46
0.415
0.405
0.45
0.46
0.475
0.5
0.525
0.555
0.56
0.56
0.585
0.515
0.44
0.455
0.495
0.49
0.49
0.535
0.55
0.585
0.59
0.57
0.53
0.575
0.59
0.615
0.59
0.615
0.595
0.55
0.57
0.565
0.565
0.585
0.565
0.58
0.54
0.515
0.485
0.54
0.5
0.475
0.5
0.48
0.47
0.46
0.475
0.47
0.435
0.4
0.37
0.35
0.345
0.355
0.39
0.395
0.405
0.375
0.375
0.325
0.325
0.265
0.23
0.25
0.3
0.305
0.29
0.3
0.265
0.245
0.285
0.335
0.28
0.305
0.335
0.29
0.27
0.27
0.3
0.31
0.32
0.335
0.295
0.245
0.26
0.235
0.265
0.31
0.3
0.335
0.335
0.29
0.225
0.235
0.265
0.265
0.285
0.34
0.325
0.295
0.28
0.245
0.275
0.3
0.325
0.315
0.355
0.395
0.36
0.34
0.325
0.26
0.22
0.25
0.28
0.255
0.25
0.275
0.285
0.315
0.28
0.235
0.29
0.27
0.235
0.24
0.26
0.345
0.33
0.305
0.335
0.285
0.29
0.29
0.3
0.33
0.32
0.33
0.295
0.305
0.295
0.29
0.31
0.305
0.32
0.295
0.265
0.26
0.31
0.325
0.355
0.37
0.395
0.33
0.21
0.205
0.23
0.255
0.295
0.335
0.315
0.285
0.215
0.26
0.26
0.275
0.25
0.275
0.335
0.34
0.325
0.315
0.27
0.26
0.22
0.25
0.255
0.26
0.265
0.295
0.295
0.295
0.34
0.295
0.265
0.265
0.25
0.23
0.225
0.255
0.235
0.225
0.265
0.27
0.29
0.24
0.23
0.245
0.26
0.295
0.26
0.245
0.255
0.27
0.275
0.28
0.25
0.24
0.315
0.32
0.315
0.3
0.31
0.26
0.275
0.22
0.255
0.31
0.3
0.25
0.27
0.26
0.285
0.285
0.285
0.205
0.175
0.21
0.18
0.21
0.265
0.27
0.255
0.27
0.24
0.29
0.275
0.23
0.245
0.23
0.24
0.27
0.28
0.25
0.255
0.265
0.255
0.26
0.23
0.26
0.295
0.25
0.21
0.235
0.25
0.265
0.26
0.235
0.24
0.25
0.27
0.22
0.275
0.305
0.305
0.295
0.26
0.235
0.205
0.215
0.23
0.27
0.27
0.315
0.32
0.3
0.335
0.32
0.26
0.235
0.215
0.22
0.2
0.225
0.235
0.235
0.225
0.205
0.245
0.275
0.265
0.28
0.245
0.215
0.215
0.27
0.28
0.28
0.255
0.26
0.26
0.22
0.24
0.28
0.215
0.205
0.265
0.265
0.26
0.3
0.255
0.28
0.28
0.24
0.235
0.235
0.255
0.235
0.265
0.29
0.245
0.195
0.235
0.26
0.28
0.285
0.335
0.34
0.3
0.215
0.24
0.21
0.205
0.225
0.235
0.28
0.275
0.295
0.32
0.295
0.29
0.215
0.21
0.23
0.21
0.245
0.24
0.215
0.2
0.255
0.245
0.25
0.25
0.255
0.245
0.265
0.265
0.26
0.255
0.245
0.22
0.275
0.315
0.295
0.25
0.225
0.225
0.25
0.295
0.295
0.225
0.24
0.255
0.25
0.265
0.345
0.3
0.23
0.19
0.23
0.32
0.295
0.295
0.26
0.285
0.285
0.24
0.225
0.215
0.235
0.26
0.26
0.3
0.35
0.365
0.345
0.25
0.23
0.255
0.275
0.26
0.225
0.29
0.33
0.33
0.295
0.27
0.33
0.31
0.31
0.31
0.32
0.275
0.215
0.23
0.235
0.22
0.3
0.295
0.275
0.265
0.25
0.185
0.175
0.235
0.215
0.24
0.245
0.195
0.205
0.27
0.255
0.3
0.25
0.275
0.265
0.26
0.215
0.165
0.245
0.22
0.2
0.215
0.22
0.295
0.2
0.16
0.195
0.21
0.21
0.205
0.2
0.21
0.245
0.31
0.41
0.535
0.63
0.69
0.75
0.78
0.89
0.91
0.91
0.85
0.925
0.905
0.855
0.905
0.85
0.83
0.715
0.605
0.475
0.33
0.2
0.145
0.195
0.255
0.295
0.31
0.295
0.225
0.3
0.27
0.25
0.285
0.31
0.305
0.28
0.25
0.245
0.265
0.27
0.315
0.24
0.265
0.285
0.29
0.325
0.325
0.29
0.31
0.26
0.29
0.275
0.215
0.245
0.24
0.245
0.32
0.355
0.37
0.35
0.37
0.33
0.245
0.225
0.29
0.305
0.32
0.335
0.355
0.38
0.315
0.23
0.28
0.32
0.32
0.29
0.235
0.265
0.35
0.335
0.35
0.35
0.34
0.32
0.355
0.355
0.33
0.3
0.32
0.37
0.37
0.375
0.32
0.395
0.44
0.39
0.415
0.355
0.415
0.465
0.455
0.45
0.425
0.435
0.37
0.43
0.39
0.4
0.4
0.415
0.445
0.485
0.455
0.465
0.42
0.46
0.49
0.46
0.45
0.465
0.56
0.54
0.52
0.505
0.51
0.515
0.495
0.475
0.48
0.45
0.45
0.495
0.505
0.57
0.555
0.525
0.525
0.535
0.495
0.465
0.415
0.47
0.53
0.54
0.53
0.475
0.48
0.47
0.465
0.475
0.54
0.46
0.445
0.475
0.475
0.365
0.345
0.385
0.365
0.36
0.385
0.385
0.345
0.33
0.325
0.27
0.27
0.285
0.24
0.24
0.285
0.26
0.23
0.23
0.245
0.285
0.25
0.245
0.23
0.27
0.225
0.22
0.25
0.29
0.315
0.305
0.24
0.25
0.26
0.23
0.23
0.225
0.245
0.245
0.235
0.235
0.26
0.255
0.24
0.25
0.295
0.29
0.28
0.265
0.255
0.29
0.26
0.235
0.25
0.28
0.28
0.32
0.295
0.295
0.265
0.26
0.225
0.21
0.18
0.185
0.25
0.275
0.295
0.315
0.31
0.305
0.27
0.275
0.285
0.24
0.23
0.23
0.27
0.25
0.28
0.235
0.265
0.3
0.32
0.275
0.245
0.26
0.23
0.205
0.235
0.27
0.255
0.275
0.31
0.3
0.27
0.26
0.275
0.26
0.27
0.3
0.255
0.265
0.335
0.295
0.265
0.305
0.255
0.265
0.22
0.23
0.2
0.215
0.2
0.24
0.24
0.205
0.25
0.295
0.3
0.3
0.245
0.235
0.28
0.275
0.285
0.225
0.22
0.2
0.205
0.23
0.215
0.25
0.26
0.205
0.25
0.245
0.225
0.24
0.23
0.235
0.22
0.225
0.2
0.225
0.21
0.245
0.195
0.245
0.265
0.27
0.275
0.295
0.295
0.28
0.26
0.24
0.185
0.15
0.195
0.185
0.18
0.18
0.185
0.205
0.28
0.27
0.235
0.165
0.23
0.27
0.32
0.26
0.205
0.21
0.22
0.215
0.15
0.16
0.18
0.21
0.21
0.22
0.22
0.215
0.21
0.23
0.225
0.22
0.265
0.27
0.24
0.225
0.265
0.26
0.245
0.255
0.245
0.225
0.2
0.155
0.18
0.205
0.265
0.28
0.305
0.23
0.235
0.25
0.275
0.245
0.235
0.215
0.21
0.2
0.17
0.175
0.21
0.225
0.27
0.3
0.31
0.305
0.28
0.3
0.255
0.235
0.225
0.225
0.24
0.2
0.235
0.28
0.29
0.32
0.305
0.245
0.245
0.255
0.265
0.26
0.195
0.27
0.275
0.27
0.255
0.27
0.27
0.265
0.2
0.14
0.175
0.185
0.225
0.26
0.24
0.235
0.19
0.18
0.2
0.16
0.195
0.205
0.185
0.195
0.28
0.3
0.235
0.19
0.215
0.21
0.215
0.245
0.195
0.125
0.135
0.125
0.13
0.115
0.14
0.155
0.18
0.225
0.3
0.38
0.47
0.58
0.68
0.72
0.725
0.72
0.705
0.73
0.735
0.77
0.825
0.905
0.855
0.805
0.78
0.7
0.53
0.37
0.285
0.135
0.06
0.07
0.115
0.2
0.3
0.305
0.27
0.265
0.24
0.255
0.255
0.245
0.275
0.3
0.31
0.265
0.31
0.32
0.255
0.235
0.2
0.175
0.215
0.25
0.285
0.275
0.295
0.275
0.255
0.255
0.275
0.245
0.285
0.29
0.295
0.37
0.34
0.335
0.295
0.29
0.31
0.305
0.27
0.255
0.205
0.27
0.305
0.335
0.3
0.285
0.305
0.29
0.31
0.325
0.315
0.315
0.365
0.355
0.38
0.335
0.325
0.345
0.335
0.335
0.345
0.345
0.405
0.385
0.4
0.335
0.3
0.345
0.35
0.325
0.29
0.375
0.39
0.375
0.405
0.43
0.47
0.43
0.44
0.41
0.45
0.505
0.49
0.455
0.44
0.475
0.495
0.465
0.45
0.395
0.41
0.435
0.455
0.435
0.44
0.545
0.57
0.585
0.595
0.545
0.51
0.535
0.565
0.575
0.56
0.515
0.535
0.55
0.585
0.575
0.555
0.555
0.57
0.58
0.585
0.495
0.46
0.545
0.585
0.59
0.485
0.47
0.43
0.455
0.48
0.515
0.415
0.405
0.435
0.43
0.37
0.335
0.345
0.32
0.31
0.32
0.325
0.32
0.305
0.31
0.28
0.25
0.285
0.26
0.245
0.235
0.25
0.225
0.225
0.225
0.235
0.235
0.195
0.215
0.2
0.205
0.295
0.335
0.31
0.26
0.225
0.3
0.23
0.165
0.19
0.265
0.255
0.275
0.25
0.255
0.27
0.25
0.25
0.285
0.255
0.25
0.215
0.27
0.285
0.25
0.29
0.31
0.275
0.27
0.27
0.225
0.205
0.205
0.255
0.25
0.26
0.255
0.245
0.275
0.245
0.26
0.245
0.275
0.295
0.235
0.195
0.23
0.255
0.22
0.22
0.285
0.26
0.275
0.305
0.28
0.31
0.25
0.285
0.275
0.26
0.25
0.235
0.255
0.265
0.26
0.23
0.255
0.27
0.3
0.285
0.26
0.22
0.24
0.275
0.27
0.275
0.305
0.265
0.245
0.26
0.22
0.23
0.27
0.295
0.27
0.315
0.27
0.22
0.185
0.175
0.21
0.23
0.25
0.295
0.26
0.265
0.32
0.25
0.22
0.225
0.225
0.27
0.27
0.275
0.285
0.3
0.3
0.26
0.195
0.2
0.23
0.22
0.23
0.27
0.2
0.255
0.165
0.175
0.2
0.225
0.215
0.215
0.275
0.28
0.275
0.25
0.245
0.295
0.23
0.2
0.185
0.21
0.2
0.21
0.27
0.27
0.34
0.27
0.22
0.255
0.235
0.23
0.25
0.22
0.23
0.22
0.225
0.235
0.215
0.185
0.215
0.255
0.245
0.285
0.255
0.26
0.28
0.3
0.33
0.325
0.285
0.325
0.355
0.29
0.295
0.215
0.245
0.23
0.2
0.23
0.28
0.325
0.29
0.24
0.23
0.285
0.215
0.235
0.235
0.24
0.175
0.19
0.18
0.23
0.3
0.23
0.185
0.205
0.25
0.23
0.205
0.2
0.2
0.2
0.215
0.205
0.175
0.155
0.165
0.195
0.2
0.225
0.26
0.26
0.255
0.205
0.22
0.25
0.26
0.21
0.22
0.21
0.18
0.17
0.11
0.13
0.19
0.22
0.3
0.355
0.445
0.555
0.655
0.67
0.785
0.71
0.655
0.66
0.68
0.65
0.665
0.765
0.865
0.84
0.805
0.77
0.68
0.545
0.405
0.29
0.115
0.07
0.11
0.15
0.17
0.23
0.245
0.255
0.25
0.235
0.235
0.265
0.225
0.205
0.27
0.28
0.28
0.295
0.325
0.355
0.315
0.295
0.275
0.245
0.22
0.205
0.215
0.25
0.285
0.27
0.32
0.35
0.31
0.29
0.32
0.3
0.275
0.265
0.24
0.26
0.305
0.29
0.29
0.27
0.295
0.305
0.305
0.31
0.355
0.33
0.295
0.27
0.285
0.335
0.375
0.315
0.305
0.29
0.3
0.27
0.29
0.315
0.33
0.35
0.37
0.35
0.335
0.32
0.32
0.335
0.345
0.335
0.36
0.385
0.445
0.405
0.405
0.395
0.4
0.405
0.43
0.43
0.435
0.465
0.44
0.4
0.415
0.405
0.42
0.47
0.475
0.465
0.505
0.5
0.445
0.4
0.505
0.495
0.535
0.53
0.525
0.54
0.53
0.54
0.56
0.555
0.51
0.55
0.55
0.555
0.585
0.535
0.505
0.515
0.54
0.56
0.53
0.57
0.585
0.545
0.51
0.52
0.495
0.49
0.495
0.455
0.395
0.405
0.415
0.455
0.48
0.475
0.43
0.44
0.415
0.37
0.355
0.385
0.365
0.305
0.21
0.245
0.3
0.32
0.325
0.275
0.24
0.21
0.235
0.245
0.215
0.215
0.23
0.28
0.325
0.26
0.24
0.21
0.22
0.205
0.2
0.23
0.24
0.25
0.28
0.255
0.285
0.285
0.29
0.25
0.2
0.205
0.245
0.215
0.205
0.255
0.225
0.22
0.23
0.25
0.25
0.295
0.28
0.24
0.245
0.225
0.2
0.245
0.265
0.28
0.285
0.265
0.285
0.27
0.225
0.205
0.23
0.275
0.205
0.175
0.24
0.235
0.245
0.26
0.25
0.285
0.31
0.3
0.28
0.275
0.31
0.245
0.185
0.245
0.21
0.295
0.305
0.32
0.235
0.23
0.3
0.34
0.32
0.29
0.255
0.23
0.225
0.23
0.22
0.275
0.31
0.34
0.345
0.29
0.26
0.215
0.185
0.205
0.22
0.205
0.27
0.265
0.26
0.27
0.275
0.24
0.205
0.2
0.225
0.25
0.265
0.285
0.245
0.24
0.23
0.28
0.23
0.27
0.26
0.27
0.21
0.215
0.26
0.285
0.26
0.275
0.255
0.215
0.22
0.28
0.305
0.31
0.26
0.225
0.24
0.24
0.245
0.25
0.24
0.23
0.195
0.215
0.265
0.29
0.255
0.22
0.255
0.25
0.245
0.225
0.215
0.25
0.245
0.285
0.235
0.205
0.155
0.185
0.215
0.235
0.2
0.195
0.22
0.205
0.19
0.25
0.265
0.255
0.18
0.175
0.235
0.265
0.31
0.33
0.26
0.225
0.23
0.255
0.27
0.22
0.185
0.175
0.205
0.26
0.235
0.245
0.24
0.24
0.225
0.285
0.285
0.295
0.225
0.165
0.22
0.23
0.24
0.215
0.23
0.27
0.295
0.29
0.29
0.295
0.3
0.24
0.27
0.255
0.235
0.145
0.205
0.235
0.27
0.28
0.255
0.24
0.22
0.265
0.285
0.275
0.295
0.3
0.29
0.28
0.3
0.245
0.23
0.24
0.295
0.29
0.26
0.235
0.21
0.275
0.25
0.245
0.29
0.275
0.275
0.26
0.215
0.23
0.275
0.27
0.245
0.24
0.28
0.21
0.185
0.16
0.205
0.215
0.275
0.235
0.19
0.23
0.27
0.245
0.245
0.265
0.21
0.235
0.29
0.29
0.22
0.205
0.185
0.175
0.185
0.19
0.18
0.215
0.19
0.165
0.165
0.175
0.205
0.225
0.24
0.31
0.395
0.495
0.59
0.645
0.7
0.715
0.655
0.74
0.795
0.705
0.705
0.885
0.94
0.905
0.86
0.785
0.735
0.625
0.545
0.395
0.195
0.125
0.145
0.14
0.21
0.27
0.255
0.26
0.26
0.25
0.265
0.28
0.295
0.25
0.29
0.285
0.225
0.255
0.35
0.37
0.35
0.29
0.27
0.27
0.245
0.27
0.23
0.21
0.265
0.275
0.27
0.29
0.28
0.295
0.265
0.265
0.28
0.33
0.335
0.335
0.34
0.29
0.26
0.25
0.265
0.285
0.25
0.23
0.28
0.29
0.32
0.31
0.285
0.335
0.325
0.305
0.275
0.305
0.34
0.34
0.305
0.33
0.33
0.33
0.35
0.335
0.31
0.335
0.405
0.375
0.36
0.355
0.37
0.35
0.41
0.465
0.365
0.435
0.39
0.355
0.39
0.405
0.415
0.375
0.365
0.395
0.4
0.375
0.425
0.45
0.485
0.465
0.485
0.475
0.525
0.505
0.445
0.42
0.455
0.5
0.56
0.55
0.53
0.495
0.515
0.475
0.485
0.505
0.57
0.565
0.54
0.51
0.485
0.48
0.54
0.55
0.52
0.54
0.56
0.56
0.56
0.51
0.56
0.555
0.54
0.48
0.45
0.47
0.475
0.485
0.435
0.415
0.43
0.4
0.415
0.305
0.3
0.295
0.32
0.315
0.36
0.35
0.305
0.34
0.375
0.32
0.31
0.29
0.34
0.315
0.26
0.15
0.19
0.255
0.245
0.21
0.205
0.235
0.235
0.205
0.235
0.24
0.255
0.24
0.265
0.255
0.23
0.22
0.225
0.305
0.295
0.27
0.255
0.25
0.225
0.265
0.28
0.27
0.265
0.28
0.305
0.31
0.23
0.235
0.215
0.225
0.255
0.26
0.26
0.255
0.235
0.225
0.275
0.285
0.31
0.325
0.37
0.375
0.275
0.21
0.22
0.26
0.255
0.285
0.185
0.2
0.24
0.245
0.25
0.28
0.25
0.26
0.28
0.255
0.23
0.24
0.27
0.29
0.28
0.3
0.33
0.245
0.25
0.225
0.245
0.235
0.28
0.265
0.245
0.235
0.265
0.29
0.29
0.285
0.305
0.275
0.255
0.25
0.265
0.29
0.26
0.275
0.285
0.28
0.32
0.32
0.235
0.24
0.22
0.22
0.24
0.285
0.28
0.32
0.225
0.18
0.185
0.22
0.235
0.255
0.29
0.28
0.29
0.285
0.245
0.235
0.21
0.23
0.225
0.255
0.255
0.24
0.245
0.26
0.26
0.225
0.225
0.235
0.25
0.245
0.235
0.22
0.215
0.24
0.235
0.195
0.2
0.245
0.235
0.235
0.23
0.25
0.26
0.27
0.275
0.22
0.235
0.25
0.255
0.265
0.25
0.23
0.225
0.225
0.195
0.205
0.2
0.21
0.24
0.26
0.255
0.275
0.29
0.32
0.32
0.34
0.215
0.125
0.15
0.18
0.185
0.21
0.255
0.305
0.27
0.24
0.215
0.18
0.225
0.245
0.14
0.125
0.19
0.24
0.21
0.225
0.215
0.22
0.245
0.27
0.175
0.17
0.18
0.23
0.21
0.215
0.225
0.215
0.23
0.27
0.2
0.21
0.255
0.255
0.2
0.275
0.275
0.335
0.315
0.33
0.25
0.17
0.17
0.19
0.245
0.215
0.215
0.215
0.195
0.16
0.185
0.25
0.23
0.2
0.2
0.21
0.26
0.245
0.21
0.2
0.24
0.235
0.21
0.26
0.235
0.245
0.235
0.215
0.21
0.225
0.195
0.21
0.235
0.205
0.245
0.245
0.215
0.205
0.23
0.195
0.2
0.215
0.235
0.245
0.27
0.275
0.27
0.205
0.2
0.245
0.26
0.295
0.29
0.205
0.22
0.24
0.225
0.185
0.135
0.23
0.3
0.265
0.25
0.24
0.145
0.155
0.17
0.18
0.22
0.24
0.24
0.205
0.19
0.19
0.19
0.2
0.24
0.225
0.235
0.275
0.255
0.2
0.205
0.185
0.2
0.25
0.27
0.215
0.2
0.2
0.19
0.27
0.25
0.24
0.255
0.225
0.27
0.195
0.185
0.165
0.19
0.275
0.315
0.305
0.34
0.35
0.295
0.255
0.27
0.215
0.21
0.2
0.235
0.22
0.205
0.245
0.275
0.285
0.28
0.285
0.28
0.195
0.18
0.225
0.255
0.245
0.23
0.195
0.21
0.22
0.235
0.28
0.25
0.21
0.19
0.2
0.23
0.235
0.2
0.2
0.19
0.205
0.21
0.2
0.235
0.24
0.235
0.225
0.235
0.185
0.165
0.165
0.17
0.245
0.21
0.235
0.215
0.185
0.245
0.24
0.245
0.285
0.285
0.2
0.135
0.12
0.1
0.13
0.175
0.225
0.315
0.395
0.44
0.505
0.615
0.665
0.705
0.76
0.85
0.83
0.745
0.72
0.835
0.865
0.905
0.85
0.74
0.715
0.655
0.51
0.375
0.25
0.15
0.14
0.205
0.275
0.265
0.29
0.32
0.28
0.285
0.28
0.285
0.29
0.285
0.28
0.245
0.24
0.235
0.225
0.23
0.275
0.265
0.23
0.245
0.29
0.315
0.33
0.33
0.32
0.31
0.25
0.215
0.235
0.235
0.28
0.265
0.29
0.25
0.245
0.28
0.35
0.275
0.25
0.255
0.26
0.26
0.27
0.26
0.275
0.27
0.325
0.35
0.31
0.31
0.29
0.295
0.325
0.36
0.36
0.355
0.32
0.26
0.265
0.305
0.3
0.29
0.33
0.325
0.345
0.375
0.375
0.335
0.37
0.39
0.34
0.335
0.365
0.365
0.4
0.39
0.37
0.39
0.45
0.43
0.43
0.46
0.48
0.45
0.345
0.34
0.395
0.405
0.425
0.455
0.48
0.495
0.475
0.475
0.5
0.52
0.48
0.505
0.505
0.52
0.515
0.5
0.5
0.535
0.495
0.485
0.5
0.535
0.51
0.495
0.505
0.52
0.54
0.49
0.52
0.52
0.53
0.525
0.49
0.565
0.495
0.475
0.51
0.48
0.4
0.39
0.435
0.49
0.475
0.405
0.39
0.365
0.365
0.365
0.385
0.345
0.36
0.335
0.335
0.285
0.285
0.305
0.33
0.315
0.295
0.34
0.295
0.29
0.285
0.26
0.27
0.24
0.22
0.255
0.235
0.24
0.24
0.33
0.285
0.25
0.265
0.295
0.275
0.265
0.25
0.19
0.205
0.205
0.21
0.22
0.23
0.255
0.285
0.285
0.295
0.28
0.315
0.31
0.33
0.32
0.29
0.25
0.26
0.265
0.245
0.265
0.23
0.265
0.27
0.34
0.31
0.31
0.34
0.275
0.225
0.255
0.2
0.25
0.31
0.235
0.23
0.285
0.29
0.355
0.33
0.32
0.29
0.22
0.235
0.235
0.235
0.28
0.265
0.26
0.285
0.26
0.225
0.22
0.23
0.275
0.225
0.25
0.335
0.305
0.285
0.255
0.28
0.335
0.3
0.32
0.32
0.325
0.27
0.29
0.315
0.245
0.215
0.22
0.23
0.235
0.245
0.275
0.285
0.29
0.325
0.32
0.34
0.32
0.285
0.195
0.16
0.165
0.165
0.24
0.275
0.25
0.25
0.245
0.285
0.29
0.245
0.255
0.295
0.26
0.255
0.265
0.195
0.185
0.205
0.27
0.25
0.225
0.23
0.275
0.28
0.23
0.245
0.255
0.255
0.22
0.175
0.2
0.19
0.255
0.24
0.27
0.26
0.295
0.29
0.265
0.28
0.27
0.235
0.2
0.2
0.205
0.225
0.25
0.245
0.25
0.23
0.25
0.265
0.235
0.26
0.23
0.215
0.23
0.245
0.2
0.21
0.22
0.175
0.22
0.23
0.225
0.26
0.225
0.285
0.265
0.24
0.25
0.25
0.215
0.21
0.245
0.27
0.27
0.26
0.235
0.225
0.22
0.285
0.265
0.235
0.205
0.205
0.17
0.225
0.245
0.22
0.22
0.22
0.215
0.23
0.265
0.255
0.225
0.24
0.23
0.24
0.23
0.19
0.22
0.23
0.25
0.225
0.255
0.27
0.235
0.23
0.245
0.245
0.19
0.215
0.28
0.345
0.275
0.3
0.32
0.21
0.21
0.215
0.24
0.185
0.14
0.15
0.215
0.24
0.265
0.265
0.27
0.255
0.265
0.225
0.265
0.285
0.245
0.25
0.215
0.205
0.225
0.225
0.225
0.21
0.245
0.23
0.225
0.235
0.215
0.19
0.215
0.205
0.235
0.225
0.235
0.245
0.295
0.305
0.27
0.21
0.21
0.23
0.26
0.26
0.24
0.28
0.265
0.255
0.18
0.25
0.24
0.245
0.26
0.22
0.26
0.23
0.25
0.235
0.23
0.215
0.275
0.26
0.28
0.255
0.275
0.295
0.26
0.225
0.245
0.25
0.235
0.235
0.255
0.235
0.255
0.25
0.285
0.245
0.205
0.21
0.24
0.21
0.235
0.21
0.225
0.21
0.225
0.25
0.285
0.28
0.28
0.32
0.31
0.235
0.24
0.285
0.29
0.31
0.305
0.305
0.28
0.295
0.245
0.255
0.265
0.24
0.255
0.28
0.325
0.315
0.24
0.28
0.29
0.255
0.24
0.235
0.255
0.26
0.245
0.24
0.315
0.265
0.28
0.265
0.175
0.17
0.17
0.19
0.235
0.26
0.24
0.27
0.285
0.245
0.245
0.165
0.165
0.195
0.165
0.23
0.23
0.185
0.17
0.145
0.195
0.22
0.185
0.175
0.23
0.25
0.25
0.205
0.23
0.37
0.415
0.525
0.565
0.615
0.71
0.72
0.7
0.805
0.875
0.77
0.785
0.905
0.945
0.95
0.93
0.865
0.795
0.725
0.505
0.32
0.22
0.125
0.115
0.185
0.29
0.32
0.32
0.34
0.325
0.285
0.26
0.24
0.26
0.29
0.295
0.275
0.265
0.23
0.31
0.28
0.265
0.295
0.22
0.325
0.355
0.305
0.3
0.33
0.34
0.365
0.35
0.325
0.245
0.25
0.22
0.24
0.295
0.255
0.245
0.28
0.32
0.36
0.335
0.3
0.315
0.315
0.34
0.3
0.295
0.34
0.365
0.36
0.34
0.3
0.3
0.285
0.315
0.285
0.28
0.29
0.32
0.33
0.345
0.345
0.295
0.36
0.37
0.375
0.355
0.375
0.355
0.355
0.365
0.375
0.35
0.33
0.33
0.37
0.4
0.39
0.405
0.42
0.46
0.46
0.495
0.545
0.545
0.485
0.42
0.42
0.415
0.37
0.425
0.465
0.46
0.445
0.485
0.505
0.535
0.56
0.57
0.56
0.55
0.565
0.505
0.425
0.51
0.585
0.565
0.53
0.52
0.53
0.525
0.56
0.58
0.595
0.555
0.515
0.48
0.53
0.54
0.53
0.525
0.52
0.515
0.49
0.52
0.52
0.49
0.49
0.5
0.465
0.385
0.385
0.37
0.395
0.415
0.44
0.395
0.425
0.415
0.445
0.4
0.37
0.37
0.32
0.255
0.275
0.22
0.23
0.235
0.24
0.26
0.27
0.24
0.23
0.245
0.29
0.285
0.265
0.3
0.3
0.27
0.235
0.295
0.29
0.295
0.295
0.23
0.225
0.295
0.305
0.285
0.225
0.275
0.215
0.23
0.295
0.285
0.26
0.255
0.27
0.305
0.25
0.305
0.28
0.28
0.26
0.24
0.235
0.22
0.265
0.315
0.33
0.295
0.305
0.33
0.38
0.35
0.28
0.18
0.18
0.28
0.265
0.255
0.23
0.24
0.255
0.26
0.265
0.235
0.305
0.3
0.335
0.325
0.355
0.315
0.27
0.255
0.27
0.225
0.27
0.295
0.245
0.24
0.26
0.25
0.245
0.265
0.285
0.26
0.29
0.3
0.28
0.275
0.3
0.3
0.3
0.295
0.285
0.305
0.295
0.225
0.205
0.205
0.285
0.28
0.295
0.305
0.285
