# TIPE ECG 2021 - ECG-ID Database v1.0.0 par Physionet
# [Numéro de la personne, Période d'échantillonnage, Prénom, Age, Sexe, Date de l'enregistrement]
[66, 0.002, Rodney, 16, H, 12.05.2005]
0.04
0.045
0.03
-0.025
-0.055
-0.015
0.01
-0.045
0.005
0.015
0.02
0.02
-0.01
0.015
0.06
-0.065
-0.08
-0.095
-0.02
-0.055
-0.035
-0.015
-0.03
-0.03
-0.05
-0.045
0.005
-0.04
-0.04
-0.02
0.03
0.005
0.01
0.005
-0.01
0.005
-0.095
-0.095
-0.02
-0.04
-0.045
-0.035
-0.005
-0.065
-0.055
-0.025
-0.07
-0.025
0.02
0.04
-0.02
-0.065
-0.05
0.0
0.035
0.01
0.0
0.025
0.01
0.03
0.025
0.025
0.025
-0.04
-0.055
-0.025
0.015
-0.11
-0.11
-0.06
-0.075
-0.095
-0.06
-0.07
-0.125
-0.065
-0.035
-0.055
-0.125
-0.12
-0.14
-0.115
-0.12
-0.105
-0.115
-0.11
-0.08
-0.07
-0.125
-0.08
-0.1
-0.09
-0.07
-0.075
-0.08
-0.105
-0.055
-0.07
-0.115
-0.16
-0.135
-0.145
-0.135
-0.06
-0.055
-0.075
-0.01
0.135
0.27
0.39
0.415
0.52
0.62
0.69
0.695
0.69
0.655
0.645
0.535
0.235
0.075
-0.09
-0.18
-0.27
-0.41
-0.605
-0.745
-0.77
-0.69
-0.585
-0.485
-0.49
-0.485
-0.395
-0.35
-0.255
-0.165
-0.19
-0.185
-0.09
-0.095
-0.07
-0.105
-0.1
-0.125
-0.12
-0.05
-0.055
-0.115
-0.09
-0.065
-0.035
-0.045
-0.065
-0.055
-0.115
-0.1
-0.035
-0.06
-0.005
-0.085
-0.025
-0.055
-0.03
-0.005
-0.025
-0.05
-0.035
-0.03
-0.015
-0.01
-0.04
-0.05
-0.025
-0.05
-0.03
-0.01
-0.015
0.005
0.025
-0.035
0.015
0.0
-0.015
-0.005
0.055
0.085
0.08
0.02
0.07
0.075
0.045
0.075
0.1
0.12
0.11
0.115
0.145
0.17
0.235
0.21
0.265
0.33
0.34
0.27
0.315
0.29
0.305
0.36
0.385
0.405
0.415
0.365
0.36
0.415
0.405
0.345
0.35
0.415
0.385
0.345
0.34
0.34
0.345
0.33
0.28
0.295
0.27
0.28
0.25
0.25
0.175
0.12
0.12
0.165
0.115
0.085
0.12
0.085
0.02
0.005
0.025
0.025
-0.015
-0.025
-0.015
-0.035
-0.055
-0.015
-0.055
-0.06
-0.105
-0.09
-0.11
-0.07
-0.105
-0.11
-0.065
-0.045
-0.085
-0.14
-0.12
-0.11
-0.085
-0.055
-0.055
-0.105
-0.11
-0.05
-0.13
-0.13
-0.11
-0.13
-0.11
-0.1
-0.12
-0.06
-0.065
-0.045
-0.025
-0.015
-0.075
-0.11
-0.13
-0.095
-0.105
-0.085
-0.105
-0.09
-0.095
-0.075
-0.08
-0.075
-0.085
-0.095
-0.12
-0.105
-0.105
-0.1
-0.07
-0.04
-0.035
-0.065
-0.105
-0.065
-0.13
-0.17
-0.115
-0.155
-0.1
-0.08
-0.115
-0.125
-0.08
-0.095
-0.08
-0.09
-0.09
-0.105
-0.12
-0.1
-0.095
-0.085
-0.09
-0.105
-0.125
-0.125
-0.115
-0.135
-0.105
-0.11
-0.095
-0.075
-0.115
-0.1
-0.09
-0.12
-0.095
-0.155
-0.15
-0.115
-0.12
-0.15
-0.12
-0.1
-0.16
-0.175
-0.15
-0.14
-0.08
-0.075
-0.075
-0.15
-0.13
-0.12
-0.14
-0.135
-0.13
-0.145
-0.145
-0.105
-0.065
-0.075
-0.055
-0.07
-0.07
-0.09
-0.135
-0.165
-0.135
-0.155
-0.195
-0.205
-0.215
-0.16
-0.19
-0.23
-0.225
-0.18
-0.165
-0.26
-0.245
-0.235
-0.235
-0.23
-0.24
-0.205
-0.215
-0.17
-0.2
-0.26
-0.26
-0.305
-0.295
-0.29
-0.275
-0.27
-0.25
-0.265
-0.25
-0.26
-0.275
-0.315
-0.36
-0.375
-0.405
-0.365
-0.295
-0.3
-0.285
-0.2
-0.115
0.0
0.12
0.19
0.26
0.32
0.385
0.4
0.38
0.435
0.315
0.06
-0.225
-0.38
-0.53
-0.565
-0.75
-0.89
-1.025
-1.085
-1.19
-1.075
-0.995
-0.865
-0.81
-0.795
-0.73
-0.685
-0.65
-0.6
-0.625
-0.55
-0.565
-0.58
-0.575
-0.55
-0.53
-0.535
-0.54
-0.53
-0.525
-0.545
-0.545
-0.53
-0.56
-0.575
-0.575
-0.57
-0.565
-0.56
-0.625
-0.6
-0.59
-0.58
-0.58
-0.615
-0.59
-0.615
-0.61
-0.605
-0.645
-0.69
-0.66
-0.665
-0.67
-0.69
-0.605
-0.585
-0.64
-0.66
-0.655
-0.66
-0.66
-0.685
-0.66
-0.635
-0.645
-0.645
-0.65
-0.62
-0.61
-0.575
-0.605
-0.615
-0.625
-0.595
-0.555
-0.525
-0.515
-0.525
-0.505
-0.48
-0.48
-0.485
-0.49
-0.435
-0.42
-0.35
-0.325
-0.355
-0.295
-0.33
-0.335
-0.345
-0.305
-0.305
-0.285
-0.265
-0.205
-0.16
-0.185
-0.215
-0.26
-0.25
-0.24
-0.24
-0.255
-0.23
-0.26
-0.31
-0.295
-0.39
-0.385
-0.38
-0.4
-0.405
-0.44
-0.43
-0.45
-0.465
-0.44
-0.445
-0.455
-0.485
-0.5
-0.485
-0.525
-0.505
-0.48
-0.485
-0.51
-0.5
-0.485
-0.51
-0.54
-0.485
-0.455
-0.47
-0.495
-0.415
-0.48
-0.485
-0.495
-0.505
-0.525
-0.455
-0.445
-0.435
-0.46
-0.47
-0.48
-0.43
-0.43
-0.385
-0.415
-0.42
-0.385
-0.42
-0.445
-0.44
-0.435
-0.44
-0.44
-0.42
-0.375
-0.335
-0.385
-0.405
-0.4
-0.375
-0.335
-0.35
-0.425
-0.395
-0.37
-0.365
-0.34
-0.345
-0.385
-0.365
-0.355
-0.375
-0.36
-0.375
-0.35
-0.35
-0.31
-0.28
-0.32
-0.365
-0.395
-0.325
-0.295
-0.37
-0.345
-0.345
-0.355
-0.34
-0.335
-0.28
-0.3
-0.35
-0.33
-0.345
-0.31
-0.35
-0.365
-0.31
-0.335
-0.35
-0.325
-0.295
-0.275
-0.31
-0.295
-0.325
-0.315
-0.305
-0.335
-0.365
-0.33
-0.325
-0.335
-0.3
-0.305
-0.27
-0.28
-0.285
-0.27
-0.305
-0.27
-0.295
-0.335
-0.3
-0.3
-0.26
-0.255
-0.295
-0.255
-0.315
-0.3
-0.315
-0.325
-0.305
-0.26
-0.285
-0.28
-0.27
-0.27
-0.215
-0.23
-0.2
-0.235
-0.245
-0.195
-0.24
-0.25
-0.26
-0.22
-0.265
-0.28
-0.27
-0.225
-0.26
-0.265
-0.285
-0.29
-0.325
-0.34
-0.345
-0.315
-0.285
-0.275
-0.28
-0.32
-0.315
-0.275
-0.305
-0.27
-0.26
-0.26
-0.27
-0.37
-0.315
-0.28
-0.32
-0.355
-0.28
-0.275
-0.27
-0.34
-0.305
-0.32
-0.315
-0.26
-0.305
-0.335
-0.395
-0.345
-0.27
-0.225
-0.205
-0.125
0.015
0.075
0.155
0.27
0.33
0.435
0.49
0.53
0.515
0.515
0.495
0.13
-0.065
-0.25
-0.33
-0.37
-0.55
-0.725
-0.905
-0.97
-0.935
-0.83
-0.765
-0.705
-0.65
-0.615
-0.57
-0.485
-0.44
-0.365
-0.3
-0.34
-0.29
-0.265
-0.33
-0.295
-0.285
-0.31
-0.31
-0.255
-0.29
-0.26
-0.255
-0.23
-0.26
-0.265
-0.245
-0.255
-0.28
-0.255
-0.24
-0.22
-0.225
-0.26
-0.245
-0.22
-0.205
-0.205
-0.195
-0.23
-0.25
-0.245
-0.2
-0.185
-0.185
-0.195
-0.185
-0.235
-0.225
-0.195
-0.17
-0.19
-0.215
-0.14
-0.18
-0.21
-0.135
-0.115
-0.15
-0.125
-0.14
-0.11
-0.07
-0.08
-0.08
-0.04
-0.045
-0.05
-0.07
-0.02
0.015
0.0
0.025
0.08
0.095
0.08
0.1
0.06
0.14
0.18
0.215
0.235
0.225
0.255
0.165
0.12
0.18
0.23
0.205
0.225
0.205
0.205
0.195
0.23
0.215
0.175
0.165
0.13
0.11
0.11
0.14
0.085
0.065
0.015
-0.055
-0.095
-0.055
-0.055
-0.07
-0.065
-0.085
-0.1
-0.12
-0.095
-0.145
-0.225
-0.155
-0.22
-0.25
-0.23
-0.165
-0.24
-0.24
-0.25
-0.29
-0.25
-0.245
-0.205
-0.185
-0.25
-0.235
-0.2
-0.235
-0.33
-0.305
-0.265
-0.275
-0.26
-0.235
-0.25
-0.27
-0.265
-0.28
-0.255
-0.235
-0.265
-0.245
-0.31
-0.295
-0.235
-0.27
-0.265
-0.24
-0.245
-0.26
-0.225
-0.16
-0.19
-0.285
-0.27
-0.235
-0.285
-0.255
-0.25
-0.225
-0.21
-0.23
-0.215
-0.25
-0.22
-0.16
-0.175
-0.205
-0.225
-0.265
-0.28
-0.24
-0.21
-0.215
-0.205
-0.215
-0.225
-0.22
-0.26
-0.27
-0.23
-0.205
-0.26
-0.265
-0.21
-0.175
-0.22
-0.245
-0.22
-0.245
-0.26
-0.26
-0.26
-0.285
-0.25
-0.25
-0.25
-0.255
-0.205
-0.19
-0.185
-0.31
-0.285
-0.295
-0.335
-0.28
-0.245
-0.23
-0.25
-0.26
-0.275
-0.205
-0.255
-0.25
-0.295
-0.275
-0.3
-0.29
-0.285
-0.225
-0.28
-0.245
-0.23
-0.295
-0.26
-0.225
-0.255
-0.265
-0.255
-0.29
-0.275
-0.22
-0.205
-0.215
-0.195
-0.225
-0.32
-0.245
-0.165
-0.145
-0.15
-0.165
-0.21
-0.17
-0.21
-0.21
-0.22
-0.215
-0.185
-0.205
-0.215
-0.205
-0.19
-0.165
-0.195
-0.21
-0.26
-0.255
-0.245
-0.225
-0.285
-0.285
-0.29
-0.305
-0.265
-0.23
-0.22
-0.265
-0.315
-0.315
-0.275
-0.265
-0.26
-0.24
-0.35
-0.36
-0.32
-0.3
-0.245
-0.255
-0.275
-0.325
-0.315
-0.305
-0.295
-0.29
-0.28
-0.285
-0.29
-0.26
-0.25
-0.29
-0.355
-0.405
-0.365
-0.355
-0.32
-0.26
-0.22
-0.28
-0.175
-0.055
0.06
0.16
0.295
0.375
0.42
0.485
0.445
0.48
0.52
0.43
0.03
-0.105
-0.215
-0.36
-0.425
-0.545
-0.72
-0.895
-0.99
-0.945
-0.885
-0.81
-0.75
-0.685
-0.625
-0.525
-0.495
-0.47
-0.38
-0.375
-0.39
-0.395
-0.395
-0.34
-0.33
-0.335
-0.315
-0.31
-0.325
-0.315
-0.255
-0.26
-0.315
-0.29
-0.235
-0.27
-0.31
-0.285
-0.285
-0.31
-0.29
-0.23
-0.28
-0.265
-0.225
-0.235
-0.25
-0.26
-0.29
-0.28
-0.22
-0.205
-0.255
-0.255
-0.25
-0.215
-0.265
-0.235
-0.235
-0.22
-0.235
-0.17
-0.24
-0.225
-0.155
-0.195
-0.175
-0.19
-0.23
-0.16
-0.19
-0.15
-0.105
-0.13
-0.115
-0.13
-0.085
-0.045
-0.015
-0.015
0.0
-0.005
0.03
0.04
0.085
0.04
0.065
0.11
0.145
0.12
0.145
0.15
0.185
0.23
0.195
0.16
0.17
0.21
0.245
0.24
0.225
0.205
0.18
0.175
0.205
0.135
0.135
0.115
0.115
0.075
0.075
0.095
0.065
-0.02
-0.04
-0.005
-0.015
-0.055
-0.065
-0.11
-0.12
-0.085
-0.16
-0.205
-0.225
-0.2
-0.215
-0.255
-0.25
-0.275
-0.285
-0.275
-0.245
-0.225
-0.195
-0.25
-0.26
-0.235
-0.285
-0.3
-0.255
-0.28
-0.295
-0.295
-0.295
-0.3
-0.345
-0.31
-0.29
-0.295
-0.305
-0.31
-0.33
-0.385
-0.375
-0.395
-0.385
-0.36
-0.32
-0.365
-0.375
-0.33
-0.335
-0.345
-0.335
-0.345
-0.365
-0.335
-0.37
-0.385
-0.335
-0.315
-0.31
-0.32
-0.265
-0.305
-0.33
-0.345
-0.335
-0.34
-0.34
-0.365
-0.365
-0.35
-0.34
-0.385
-0.405
-0.41
-0.39
-0.385
-0.34
-0.31
-0.39
-0.435
-0.455
-0.445
-0.41
-0.36
-0.385
-0.405
-0.49
-0.405
-0.475
-0.435
-0.44
-0.465
-0.425
-0.42
-0.465
-0.445
-0.43
-0.44
-0.405
-0.39
-0.465
-0.44
-0.48
-0.48
-0.45
-0.465
-0.44
-0.42
-0.49
-0.495
-0.465
-0.39
-0.445
-0.43
-0.5
-0.465
-0.455
-0.465
-0.54
-0.465
-0.435
-0.46
-0.405
-0.355
-0.405
-0.46
-0.485
-0.49
-0.47
-0.46
-0.44
-0.41
-0.38
-0.41
-0.395
-0.365
-0.4
-0.41
-0.41
-0.35
-0.29
-0.3
-0.41
-0.42
-0.385
-0.395
-0.39
-0.41
-0.37
-0.35
-0.345
-0.34
-0.355
-0.345
-0.33
-0.315
-0.305
-0.31
-0.31
-0.28
-0.27
-0.295
-0.28
-0.3
-0.275
-0.25
-0.27
-0.22
-0.215
-0.225
-0.285
-0.27
-0.255
-0.275
-0.26
-0.23
-0.205
-0.205
-0.215
-0.245
-0.23
-0.165
-0.135
-0.165
-0.255
-0.245
-0.24
-0.19
-0.2
-0.225
-0.255
-0.255
-0.27
-0.215
-0.225
-0.29
-0.27
-0.22
-0.19
-0.23
-0.225
-0.25
-0.255
-0.26
-0.23
-0.185
-0.16
-0.165
-0.15
-0.195
-0.215
-0.225
-0.16
-0.23
-0.24
-0.24
-0.215
-0.215
-0.195
-0.17
-0.205
-0.205
-0.215
-0.245
-0.255
-0.255
-0.22
-0.2
-0.15
-0.085
0.015
0.115
0.24
0.36
0.465
0.5
0.565
0.62
0.62
0.64
0.615
0.535
0.255
-0.005
-0.135
-0.295
-0.37
-0.525
-0.655
-0.765
-0.845
-0.815
-0.735
-0.665
-0.585
-0.515
-0.5
-0.47
-0.365
-0.325
-0.26
-0.21
-0.23
-0.255
-0.2
-0.22
-0.195
-0.16
-0.18
-0.18
-0.18
-0.2
-0.16
-0.145
-0.115
-0.11
-0.165
-0.175
-0.175
-0.095
-0.14
-0.21
-0.17
-0.15
-0.13
-0.135
-0.155
-0.15
-0.105
-0.08
-0.09
-0.075
-0.09
-0.125
-0.105
-0.1
-0.065
-0.065
-0.105
-0.105
-0.1
-0.095
-0.1
-0.11
-0.065
-0.07
-0.03
0.02
-0.035
-0.125
-0.11
-0.02
-0.065
-0.075
-0.035
-0.035
-0.005
0.005
0.02
-0.015
0.025
0.06
0.075
0.085
0.1
0.125
0.15
0.165
0.18
0.14
0.19
0.21
0.225
0.18
0.205
0.245
0.305
0.35
0.27
0.205
0.24
0.23
0.225
0.245
0.235
0.215
0.21
0.245
0.245
0.17
0.145
0.1
0.08
0.02
0.11
0.035
-0.005
0.02
-0.005
-0.015
-0.035
-0.04
-0.05
-0.135
-0.085
-0.13
-0.155
-0.155
-0.195
-0.21
-0.22
-0.22
-0.195
-0.225
-0.225
-0.25
-0.205
-0.195
-0.23
-0.31
-0.28
-0.285
-0.255
-0.235
-0.225
-0.26
-0.315
-0.255
-0.255
-0.3
-0.29
-0.3
-0.32
-0.345
-0.3
-0.275
-0.285
-0.305
-0.3
-0.345
-0.295
-0.23
-0.265
-0.27
-0.37
-0.33
-0.295
-0.33
-0.335
-0.26
-0.25
-0.31
-0.285
-0.265
-0.305
-0.31
-0.3
-0.315
-0.325
-0.305
-0.28
-0.275
-0.27
-0.265
-0.295
-0.335
-0.345
-0.34
-0.335
-0.3
-0.3
-0.335
-0.29
-0.33
-0.375
-0.35
-0.31
-0.38
-0.405
-0.35
-0.295
-0.3
-0.275
-0.315
-0.385
-0.365
-0.4
-0.335
-0.38
-0.385
-0.38
-0.365
-0.345
-0.33
-0.395
-0.42
-0.395
-0.375
-0.35
-0.4
-0.33
-0.31
-0.395
-0.435
-0.42
-0.38
-0.375
-0.375
-0.42
-0.375
-0.355
-0.39
-0.435
-0.41
-0.39
-0.37
-0.375
-0.425
-0.425
-0.425
-0.475
-0.45
-0.445
-0.415
-0.435
-0.43
-0.4
-0.37
-0.38
-0.435
-0.48
-0.485
-0.46
-0.505
-0.505
-0.505
-0.47
-0.45
-0.47
-0.49
-0.52
-0.485
-0.45
-0.46
-0.525
-0.535
-0.55
-0.51
-0.51
-0.51
-0.55
-0.58
-0.555
-0.555
-0.565
-0.56
-0.51
-0.555
-0.585
-0.585
-0.575
-0.54
-0.585
-0.62
-0.59
-0.585
-0.555
-0.53
-0.575
-0.605
-0.655
-0.645
-0.585
-0.585
-0.62
-0.605
-0.57
-0.575
-0.56
-0.59
-0.57
-0.59
-0.59
-0.595
-0.57
-0.58
-0.575
-0.58
-0.62
-0.64
-0.62
-0.68
-0.685
-0.66
-0.69
-0.665
-0.695
-0.725
-0.725
-0.76
-0.765
-0.74
-0.775
-0.77
-0.805
-0.82
-0.795
-0.805
-0.855
-0.82
-0.775
-0.81
-0.825
-0.81
-0.87
-0.895
-0.85
-0.785
-0.825
-0.86
-0.89
-0.91
-0.93
-0.95
-0.96
-0.985
-0.995
-0.995
-0.95
-0.895
-0.9
-0.855
-0.82
-0.705
-0.57
-0.445
-0.35
-0.345
-0.32
-0.26
-0.245
-0.25
-0.275
-0.375
-0.705
-0.845
-0.99
-1.095
-1.215
-1.375
-1.62
-1.73
-1.77
-1.765
-1.665
-1.57
-1.515
-1.5
-1.405
-1.395
-1.38
-1.31
-1.26
-1.18
-1.185
-1.275
-1.25
-1.27
-1.26
-1.205
-1.225
-1.225
-1.215
-1.175
-1.22
-1.23
-1.21
-1.26
-1.265
-1.265
-1.295
-1.295
-1.32
-1.25
-1.2
-1.185
-1.215
-1.185
-1.19
-1.165
-1.17
-1.19
-1.1
-1.125
-1.085
-1.08
-1.025
-0.955
-0.995
-0.935
-0.885
-0.905
-0.905
-0.86
-0.835
-0.78
-0.79
-0.715
-0.765
-0.8
-0.745
-0.7
-0.695
-0.68
-0.695
-0.6
-0.595
-0.56
-0.57
-0.555
-0.5
-0.5
-0.485
-0.435
-0.455
-0.395
-0.425
-0.425
-0.445
-0.395
-0.325
-0.325
-0.33
-0.27
-0.285
-0.265
-0.205
-0.145
-0.105
-0.13
-0.185
-0.175
-0.13
-0.165
-0.17
-0.205
-0.19
-0.165
-0.17
-0.17
-0.17
-0.165
-0.18
-0.165
-0.195
-0.215
-0.225
-0.27
-0.33
-0.31
-0.36
-0.325
-0.315
-0.29
-0.315
-0.405
-0.455
-0.44
-0.4
-0.43
-0.42
-0.4
-0.46
-0.45
-0.385
-0.4
-0.38
-0.445
-0.415
-0.505
-0.47
-0.45
-0.44
-0.46
-0.445
-0.44
-0.445
-0.415
-0.41
-0.405
-0.395
-0.44
-0.38
-0.38
-0.405
-0.39
-0.405
-0.365
-0.405
-0.455
-0.415
-0.38
-0.38
-0.41
-0.37
-0.355
-0.375
-0.36
-0.315
-0.31
-0.295
-0.295
-0.275
-0.335
-0.35
-0.345
-0.3
-0.335
-0.3
-0.305
-0.32
-0.3
-0.295
-0.275
-0.285
-0.24
-0.25
-0.285
-0.315
-0.28
-0.285
-0.245
-0.245
-0.27
-0.295
-0.275
-0.275
-0.265
-0.28
-0.25
-0.285
-0.255
-0.235
-0.23
-0.28
-0.24
-0.23
-0.26
-0.27
-0.22
-0.265
-0.26
-0.235
-0.27
-0.24
-0.175
-0.235
-0.24
-0.175
-0.25
-0.275
-0.245
-0.18
-0.175
-0.245
-0.26
-0.295
-0.23
-0.21
-0.25
-0.255
-0.235
-0.25
-0.265
-0.21
-0.275
-0.245
-0.22
-0.18
-0.19
-0.2
-0.2
-0.2
-0.23
-0.18
-0.175
-0.2
-0.195
-0.2
-0.2
-0.18
-0.255
-0.265
-0.24
-0.2
-0.215
-0.155
-0.16
-0.175
-0.155
-0.135
-0.065
-0.195
-0.22
-0.175
-0.17
-0.2
-0.23
-0.185
-0.17
-0.155
-0.145
-0.13
-0.115
-0.19
-0.165
-0.16
-0.13
-0.115
-0.135
-0.11
-0.09
-0.06
-0.045
-0.145
-0.155
-0.15
-0.13
-0.1
-0.09
-0.07
-0.06
-0.05
-0.085
-0.08
-0.09
-0.085
-0.12
-0.035
-0.09
-0.11
-0.145
-0.15
-0.105
-0.155
-0.145
-0.125
-0.13
-0.155
-0.19
-0.16
-0.15
-0.105
-0.12
-0.125
-0.145
-0.11
-0.12
-0.105
-0.145
-0.125
-0.085
-0.085
-0.11
-0.085
-0.095
-0.12
-0.1
-0.065
-0.115
-0.115
-0.085
-0.11
-0.17
-0.17
-0.075
-0.025
-0.015
0.01
0.115
0.23
0.34
0.45
0.515
0.6
0.715
0.73
0.74
0.635
0.65
0.495
0.215
0.07
-0.05
-0.16
-0.24
-0.35
-0.555
-0.675
-0.705
-0.625
-0.49
-0.39
-0.37
-0.385
-0.36
-0.28
-0.245
-0.195
-0.115
-0.06
-0.075
-0.06
-0.085
-0.06
-0.02
-0.005
-0.055
-0.035
-0.015
0.025
-0.015
-0.04
-0.01
0.0
-0.01
-0.02
-0.005
0.05
0.02
0.005
0.055
0.03
0.04
0.045
0.01
0.045
0.065
0.055
0.065
0.06
0.035
0.065
0.02
0.015
0.065
0.07
0.09
0.105
0.085
0.04
0.08
0.075
0.115
0.085
0.105
0.135
0.09
0.11
0.13
0.165
0.175
0.15
0.175
0.205
0.195
0.25
0.265
0.255
0.28
0.19
0.31
0.345
0.35
0.35
0.375
0.38
0.44
0.505
0.52
0.5
0.445
0.41
0.455
0.485
0.465
0.49
0.515
0.515
0.57
0.585
0.54
0.54
0.535
0.555
0.485
0.525
0.5
0.505
0.45
0.415
0.385
0.35
0.36
0.345
0.355
0.315
0.335
0.335
0.255
0.25
0.21
0.215
0.21
0.22
0.235
0.19
0.165
0.165
0.14
0.095
0.12
0.055
0.045
0.095
0.105
0.075
0.105
0.105
0.08
0.05
0.07
0.145
0.095
0.05
0.075
0.095
0.06
0.065
0.09
0.105
0.1
0.06
0.105
0.13
0.05
-0.015
0.045
0.115
0.085
0.08
0.095
0.1
0.135
0.135
0.13
0.075
0.07
0.115
0.08
0.135
0.12
0.125
0.09
0.09
0.195
0.115
0.115
0.155
0.175
0.14
0.15
0.195
0.135
0.125
0.075
0.08
0.075
0.11
0.11
0.1
0.14
0.135
0.155
0.1
0.125
0.16
0.105
0.105
0.095
0.125
0.095
0.075
0.13
0.11
0.13
0.155
0.095
0.075
0.085
0.11
0.12
0.085
0.11
0.13
0.18
0.2
0.16
0.07
0.035
0.085
0.09
0.105
0.11
0.08
0.085
0.13
0.17
0.2
0.205
0.11
0.025
0.055
0.105
0.11
0.18
0.155
0.09
0.075
0.085
0.09
0.105
0.05
0.095
0.115
0.125
0.11
0.135
0.13
0.12
0.09
0.09
0.135
0.16
0.135
0.125
0.195
0.12
0.03
0.05
0.105
0.08
0.085
0.1
0.125
0.115
0.12
0.12
0.13
0.185
0.12
0.165
0.18
0.135
0.18
0.095
0.175
0.125
0.16
0.23
0.19
0.16
0.17
0.185
0.145
0.245
0.28
0.195
0.22
0.215
0.26
0.165
0.165
0.17
0.18
0.175
0.19
0.13
0.17
0.14
0.145
0.1
0.12
0.105
0.14
0.13
0.1
0.135
0.1
0.135
0.145
0.095
0.07
0.105
0.17
0.12
0.145
0.125
0.1
0.12
0.1
0.14
0.13
0.155
0.17
0.095
0.065
0.06
0.035
0.09
0.11
0.17
0.21
0.29
0.325
0.41
0.56
0.695
0.785
0.785
0.84
0.905
0.885
0.87
0.905
0.79
0.515
0.325
0.155
0.005
-0.1
-0.23
-0.335
-0.5
-0.605
-0.535
-0.41
-0.35
-0.28
-0.225
-0.205
-0.18
-0.075
-0.03
-0.035
0.03
0.115
0.09
0.115
0.155
0.095
0.06
0.135
0.125
0.105
0.06
0.1
0.14
0.175
0.165
0.075
0.085
0.145
0.145
0.13
0.15
0.175
0.145
0.135
0.13
0.055
0.11
0.215
0.17
0.17
0.095
0.095
0.195
0.205
0.165
0.18
0.23
0.16
0.155
0.17
0.23
0.25
0.18
0.19
0.18
0.165
0.195
0.22
0.2
0.25
0.275
0.275
0.22
0.265
0.31
0.295
0.275
0.325
0.3
0.32
0.35
0.33
0.305
0.345
0.415
0.455
0.445
0.47
0.475
0.51
0.54
0.61
0.56
0.54
0.575
0.6
0.545
0.58
0.58
0.555
0.575
0.615
0.63
0.615
0.595
0.59
0.59
0.575
0.575
0.495
0.5
0.465
0.455
0.5
0.405
0.43
0.405
0.365
0.37
0.375
0.375
0.33
0.305
0.275
0.265
0.26
0.265
0.21
0.215
0.215
0.165
0.175
0.155
0.155
0.21
0.18
0.14
0.15
0.15
0.185
0.13
0.135
0.16
0.155
0.165
0.175
0.19
0.15
0.1
0.07
0.045
0.08
0.135
0.12
0.11
0.12
0.145
0.2
0.215
0.175
0.14
0.09
0.09
0.12
0.075
0.1
0.175
0.155
0.105
0.14
0.16
0.145
0.14
0.1
0.14
0.16
0.155
0.14
0.14
0.14
0.09
0.085
0.1
0.095
0.13
0.13
0.16
0.185
0.225
0.185
0.165
0.185
0.08
0.075
0.105
0.1
0.11
0.14
0.16
0.15
0.06
0.08
0.16
0.13
0.135
0.13
0.085
0.115
0.125
0.16
0.13
0.125
0.13
0.12
0.1
0.1
0.16
0.1
0.145
0.105
0.1
0.115
0.17
0.165
0.185
0.15
0.115
0.12
0.11
0.14
0.105
0.105
0.15
0.11
0.18
0.155
0.19
0.165
0.12
0.1
0.075
0.12
0.155
0.145
0.18
0.14
0.155
0.165
0.16
0.16
0.135
0.14
0.09
0.1
0.11
0.125
0.14
0.19
0.195
0.18
0.07
0.095
0.17
0.125
0.145
0.175
0.145
0.15
0.17
0.145
0.155
0.205
0.15
0.18
0.18
0.23
0.16
0.155
0.085
0.12
0.135
0.15
0.21
0.235
0.155
0.15
0.195
0.145
0.21
0.195
0.175
0.18
0.185
0.18
0.155
0.19
0.205
0.245
0.225
0.24
0.215
0.2
0.21
0.25
0.245
0.21
0.265
0.245
0.22
0.195
0.17
0.135
0.16
0.14
0.145
0.15
0.13
0.14
0.11
0.14
0.09
0.14
0.135
0.145
0.135
0.105
0.15
0.155
0.12
0.14
0.12
0.135
0.15
0.195
0.21
0.115
0.07
0.085
0.125
0.08
0.055
0.045
0.095
0.14
0.215
0.235
0.19
0.21
0.365
0.385
0.475
0.66
0.735
0.79
0.855
0.97
0.95
0.93
0.95
0.88
0.655
0.38
0.265
0.155
0.05
-0.025
-0.245
-0.47
-0.56
-0.57
-0.445
-0.415
-0.35
-0.195
-0.14
-0.01
-0.055
-0.03
0.055
0.06
0.08
0.06
0.125
0.125
0.14
0.095
0.12
0.095
0.11
0.07
0.135
0.11
0.13
0.15
0.175
0.15
0.125
0.115
0.15
0.175
0.14
0.155
0.185
0.15
0.185
0.15
0.12
0.145
0.075
0.125
0.125
0.14
0.155
0.175
0.2
0.2
0.215
0.165
0.155
0.155
0.22
0.22
0.19
0.15
0.235
0.3
0.32
0.21
0.19
0.195
0.22
0.24
0.25
0.245
0.28
0.275
0.325
0.37
0.395
0.425
0.37
0.34
0.385
0.405
0.45
0.475
0.485
0.51
0.51
0.47
0.55
0.6
0.645
0.63
0.575
0.595
0.6
0.6
0.615
0.64
0.545
0.595
0.595
0.61
0.635
0.595
0.59
0.605
0.56
0.47
0.52
0.525
0.475
0.47
0.455
0.42
0.355
0.32
0.37
0.35
0.37
0.31
0.28
0.255
0.26
0.24
0.255
0.23
0.205
0.21
0.22
0.185
0.17
0.14
0.13
0.125
0.13
0.195
0.165
0.125
0.155
0.11
0.075
0.11
0.09
0.1
0.14
0.155
0.14
0.085
0.1
0.195
0.16
0.12
0.095
0.095
0.13
0.14
0.175
0.16
0.095
0.05
0.135
0.075
0.085
0.145
0.185
0.13
0.12
0.055
0.11
0.095
0.085
0.145
0.175
0.12
0.175
0.175
0.14
0.1
0.105
0.13
0.135
0.155
0.125
0.125
0.135
0.18
0.175
0.15
0.14
0.135
0.095
0.065
0.1
0.1
0.185
0.215
0.145
0.025
0.085
0.145
0.165
0.12
0.14
0.165
0.14
0.1
0.065
0.1
0.155
0.14
0.075
0.11
0.11
0.1
0.14
0.1
0.085
0.055
0.135
0.135
0.125
0.13
0.125
0.13
0.155
0.085
0.11
0.085
0.09
0.075
0.1
0.12
0.1
0.06
0.055
0.1
0.07
0.055
0.075
0.065
0.22
0.125
0.075
0.06
0.115
0.095
0.125
0.1
0.1
0.105
0.105
0.23
0.075
0.09
0.1
0.1
0.095
0.07
0.12
0.13
0.14
0.085
0.09
0.065
0.085
0.135
0.12
0.12
0.135
0.165
0.17
0.18
0.175
0.07
0.175
0.21
0.155
0.13
0.175
0.065
0.16
0.145
0.11
0.13
0.13
0.045
0.065
0.07
0.045
0.055
0.07
0.075
0.095
0.07
0.125
0.09
0.02
0.035
0.08
0.065
0.115
0.065
0.065
0.07
0.06
0.085
0.08
0.08
0.035
0.065
0.055
0.075
0.155
-0.035
-0.035
-0.04
-0.045
0.05
0.105
0.17
0.135
0.19
0.225
0.33
0.45
0.56
0.645
0.74
0.8
0.855
0.885
0.845
0.72
0.47
0.235
0.07
-0.06
-0.085
-0.205
-0.315
-0.455
-0.595
-0.575
-0.575
-0.475
-0.435
-0.36
-0.29
-0.24
-0.185
-0.135
-0.1
-0.115
-0.05
0.01
-0.01
-0.115
-0.02
0.025
0.055
0.15
0.15
0.08
-0.06
-0.03
0.02
0.025
0.05
0.06
0.085
0.065
0.055
0.095
0.11
0.065
0.09
0.115
0.03
0.085
0.065
0.14
0.16
0.08
0.025
0.1
0.08
0.1
0.1
0.06
0.075
0.07
0.065
0.085
0.095
0.12
0.13
0.11
0.115
0.15
0.175
0.12
0.16
0.16
0.18
0.185
0.175
0.205
0.225
0.18
0.22
0.265
0.26
0.25
0.245
0.32
0.275
0.335
0.34
0.34
0.35
0.42
0.41
0.44
0.47
0.43
0.48
0.48
0.465
0.435
0.465
0.565
0.47
0.535
0.55
0.53
0.565
0.515
0.51
0.395
0.43
0.435
0.41
0.38
0.385
0.34
0.365
0.335
0.345
0.28
0.285
0.25
0.205
0.185
0.16
0.11
0.14
0.165
0.135
0.095
0.025
0.085
0.035
0.04
0.05
0.025
0.065
0.01
-0.02
-0.035
0.0
0.005
-0.005
-0.03
-0.03
-0.04
-0.02
-0.01
-0.015
-0.01
-0.025
-0.025
-0.01
-0.01
-0.05
-0.025
-0.025
0.025
0.0
0.005
-0.075
-0.015
0.035
0.05
0.095
0.02
-0.115
-0.06
-0.01
-0.06
-0.02
-0.01
0.005
0.0
0.035
0.025
0.015
-0.015
0.0
0.035
-0.02
0.035
-0.015
0.0
-0.055
-0.01
0.01
0.025
0.015
0.015
-0.01
-0.005
-0.01
0.03
0.01
0.035
0.035
0.005
-0.02
-0.055
-0.03
-0.03
-0.005
0.035
0.025
0.02
-0.02
-0.065
-0.06
-0.005
0.0
-0.01
0.07
0.035
-0.03
-0.05
-0.01
-0.08
-0.055
-0.045
-0.035
-0.035
-0.045
-0.01
-0.015
0.01
0.02
0.075
-0.07
-0.105
-0.08
-0.075
-0.065
-0.05
-0.02
0.025
0.04
-0.05
0.0
-0.085
-0.065
-0.07
0.0
-0.06
-0.025
-0.04
-0.03
0.015
0.03
0.0
-0.015
-0.07
-0.05
-0.005
0.025
-0.02
-0.05
-0.1
-0.06
0.0
0.0
0.005
0.045
0.115
0.08
0.01
0.0
0.005
0.01
-0.005
0.025
-0.04
-0.05
-0.005
-0.04
-0.075
-0.065
-0.045
-0.08
-0.07
-0.07
-0.04
-0.035
-0.075
-0.085
-0.015
-0.065
-0.045
-0.05
-0.06
-0.09
-0.09
-0.095
-0.09
-0.06
0.03
0.015
-0.045
-0.09
-0.095
-0.035
-0.04
-0.125
-0.115
-0.125
-0.135
-0.1
-0.065
-0.05
0.015
0.065
0.03
0.09
0.24
0.39
0.445
0.46
0.535
0.675
0.705
0.695
0.645
0.71
0.585
0.22
0.065
-0.08
-0.17
-0.195
-0.355
-0.515
-0.68
-0.665
-0.69
-0.64
-0.53
-0.52
-0.43
-0.35
-0.275
-0.24
-0.18
-0.205
-0.145
-0.14
-0.05
0.005
0.01
-0.015
-0.005
-0.105
-0.14
-0.14
-0.085
-0.11
-0.075
-0.035
-0.02
0.005
0.01
-0.03
-0.055
-0.045
-0.005
0.005
-0.01
-0.035
-0.03
-0.075
-0.015
-0.01
-0.05
-0.05
-0.02
-0.035
-0.04
-0.01
0.01
0.0
0.02
0.0
0.015
0.055
0.03
-0.01
0.01
0.02
0.005
0.01
0.03
0.065
0.07
0.05
0.08
0.025
0.09
0.085
0.15
0.165
0.115
0.115
0.105
0.155
0.15
0.16
0.23
0.265
0.275
0.22
0.3
0.36
0.36
0.32
0.305
0.35
0.355
0.355
0.385
0.39
0.37
0.385
0.425
0.425
0.375
0.4
0.395
0.36
0.43
0.46
0.445
0.36
0.24
0.305
0.28
0.21
0.235
0.24
0.26
0.295
0.245
0.215
0.075
0.075
0.075
0.075
0.045
0.08
0.025
0.025
0.0
0.005
0.0
-0.025
0.0
0.045
-0.065
-0.1
-0.11
-0.07
-0.055
-0.075
-0.05
-0.05
-0.095
-0.1
-0.09
-0.07
-0.115
-0.085
-0.055
-0.085
-0.105
-0.115
-0.12
-0.15
-0.13
-0.145
-0.125
-0.07
-0.055
-0.03
-0.06
-0.13
-0.125
-0.09
-0.1
-0.16
-0.18
-0.11
-0.09
-0.055
-0.125
-0.095
-0.155
-0.13
-0.105
-0.11
-0.075
-0.09
-0.1
-0.08
-0.085
-0.12
-0.07
-0.075
-0.055
-0.07
-0.05
-0.065
-0.1
-0.16
-0.125
-0.055
-0.045
-0.05
-0.095
-0.065
0.005
-0.035
-0.095
-0.055
-0.065
-0.125
-0.125
-0.07
-0.045
-0.105
-0.075
-0.125
-0.07
-0.08
-0.04
-0.075
-0.075
-0.1
-0.045
-0.095
-0.085
-0.13
-0.135
-0.09
-0.06
-0.075
-0.065
-0.035
-0.07
-0.09
-0.09
-0.11
-0.1
-0.105
-0.07
-0.07
-0.11
-0.1
-0.065
-0.09
-0.045
-0.025
-0.06
-0.07
-0.16
-0.135
-0.08
-0.035
-0.07
-0.075
-0.055
-0.075
-0.03
0.045
0.035
-0.045
-0.15
-0.085
-0.105
-0.075
-0.03
-0.01
-0.02
-0.085
-0.085
-0.015
-0.04
-0.05
-0.04
0.0
0.01
0.04
0.045
0.015
-0.03
-0.035
-0.015
-0.015
-0.02
0.005
-0.09
-0.03
-0.07
-0.065
-0.1
-0.095
-0.05
-0.03
-0.02
-0.02
0.0
-0.09
-0.06
-0.105
-0.095
-0.09
-0.08
-0.07
-0.03
-0.055
-0.115
-0.075
-0.065
-0.065
-0.08
-0.055
-0.085
-0.085
-0.105
-0.12
-0.08
-0.065
-0.09
-0.08
-0.1
-0.085
0.01
0.05
0.085
0.06
0.175
0.285
0.405
0.515
0.605
0.635
0.715
0.72
0.685
0.755
0.77
0.54
0.15
0.0
-0.12
-0.18
-0.29
-0.4
-0.53
-0.625
-0.705
-0.625
-0.56
-0.45
-0.335
-0.385
-0.29
-0.235
-0.195
-0.155
-0.08
-0.09
-0.1
-0.06
-0.04
-0.06
-0.095
-0.05
-0.01
-0.04
0.045
0.0
0.0
0.02
-0.01
-0.01
-0.015
0.015
-0.01
-0.05
-0.05
0.005
0.055
0.07
0.045
0.03
0.01
0.045
0.015
0.025
0.0
0.07
0.11
0.08
-0.02
-0.03
0.025
0.03
0.03
0.015
0.045
0.075
0.005
0.02
0.1
0.075
0.11
0.115
0.065
0.07
0.09
0.1
0.1
0.14
0.155
0.175
0.195
0.23
0.21
0.165
0.2
0.165
0.205
0.24
0.29
0.32
0.42
0.4
0.37
0.365
0.375
0.375
0.345
0.39
0.44
0.425
0.435
0.43
0.445
0.485
0.51
0.455
0.43
0.46
0.45
0.45
0.445
0.445
0.465
0.405
0.405
0.405
0.34
0.32
0.3
0.285
0.245
0.25
0.245
0.21
0.27
0.185
0.215
0.185
0.06
0.09
0.085
0.05
0.05
0.055
0.07
0.085
0.1
0.1
0.035
-0.04
0.04
-0.01
-0.065
0.0
0.015
-0.045
0.015
-0.01
0.01
0.015
0.03
-0.025
-0.02
0.01
-0.035
-0.03
-0.015
-0.045
-0.055
-0.01
0.05
0.04
0.065
0.135
-0.01
-0.04
0.005
0.005
-0.005
-0.005
0.02
-0.01
-0.035
-0.025
0.05
-0.015
0.02
0.065
0.1
0.06
-0.045
-0.055
-0.035
-0.01
-0.02
-0.02
-0.005
-0.005
0.04
0.045
0.035
0.0
0.01
0.025
-0.055
-0.01
0.02
0.035
-0.02
-0.01
0.015
-0.045
0.015
0.005
0.035
-0.025
0.025
-0.005
-0.04
-0.005
0.01
-0.03
-0.015
0.01
0.005
0.02
-0.01
-0.04
0.01
-0.015
0.0
0.04
-0.02
-0.045
-0.025
0.0
-0.01
-0.02
0.01
0.01
0.005
0.01
0.015
-0.025
-0.02
-0.015
-0.01
0.045
-0.045
-0.06
-0.045
-0.04
-0.015
-0.06
-0.035
-0.03
-0.02
0.01
-0.055
-0.02
-0.015
-0.015
0.03
-0.055
-0.07
-0.065
-0.01
0.01
0.015
-0.04
-0.055
-0.03
-0.035
-0.03
0.0
0.04
0.015
-0.015
-0.02
0.0
-0.05
-0.035
0.015
0.015
0.025
0.02
0.07
0.04
0.04
0.025
-0.005
0.005
0.055
0.045
0.04
0.025
-0.03
-0.03
-0.005
-0.005
0.005
-0.1
-0.075
-0.035
-0.04
-0.025
-0.085
-0.065
-0.09
-0.09
-0.08
-0.025
0.055
0.035
0.01
-0.1
-0.025
-0.095
-0.1
-0.1
-0.09
-0.065
-0.01
-0.05
-0.045
-0.02
-0.015
-0.015
-0.115
-0.1
-0.155
-0.15
-0.055
0.0
0.045
0.135
0.145
0.275
0.36
0.465
0.505
0.525
0.695
0.755
0.74
0.725
0.76
0.68
0.345
0.125
0.005
-0.095
-0.2
-0.32
-0.51
-0.625
-0.735
-0.665
-0.6
-0.54
-0.455
-0.38
-0.28
-0.275
-0.235
-0.21
-0.19
-0.155
-0.11
-0.085
-0.13
-0.065
-0.01
-0.02
-0.03
-0.11
-0.09
-0.04
-0.07
-0.025
-0.075
-0.065
-0.07
-0.035
-0.09
0.02
0.08
0.04
-0.045
-0.02
-0.025
-0.04
-0.065
-0.025
0.02
0.04
-0.005
-0.005
0.0
0.015
0.015
-0.03
-0.025
0.005
0.015
0.005
0.045
0.07
0.015
0.075
-0.035
0.015
0.065
0.01
0.025
0.045
0.035
0.11
0.12
0.02
0.085
0.125
0.135
0.14
0.14
0.17
0.22
0.21
0.185
0.22
0.245
0.285
0.315
0.295
0.32
0.395
0.29
0.31
0.4
0.415
0.38
0.44
0.42
0.38
0.395
0.44
0.39
0.365
0.42
0.47
0.46
0.385
0.41
0.41
0.43
0.37
0.335
0.305
0.28
0.285
0.275
0.26
0.25
0.235
0.185
0.18
0.14
0.13
0.18
0.18
0.12
0.08
0.03
0.035
0.035
0.01
0.01
-0.025
-0.015
0.015
0.035
0.035
-0.055
-0.02
-0.11
-0.05
-0.03
-0.085
-0.075
-0.075
-0.01
0.025
-0.12
-0.11
-0.11
-0.135
-0.115
-0.075
-0.075
-0.06
-0.065
-0.06
-0.05
-0.03
-0.08
-0.065
-0.045
-0.01
-0.065
-0.05
-0.075
-0.095
-0.12
-0.07
-0.025
-0.06
-0.065
-0.07
-0.045
-0.06
-0.05
-0.02
-0.015
0.015
0.025
-0.105
-0.1
-0.08
-0.08
-0.055
0.025
-0.075
-0.15
-0.13
-0.09
-0.065
-0.06
-0.065
-0.025
-0.015
-0.005
0.03
-0.08
-0.085
-0.075
-0.05
-0.035
-0.03
-0.06
-0.06
-0.12
-0.11
-0.095
-0.065
-0.07
-0.07
-0.09
-0.1
-0.06
-0.065
-0.095
-0.045
-0.05
-0.06
-0.075
-0.095
-0.125
-0.075
-0.185
-0.105
-0.115
-0.045
-0.08
-0.025
-0.02
-0.075
-0.1
-0.115
-0.085
-0.095
-0.115
-0.11
-0.065
-0.065
-0.05
-0.08
-0.04
-0.07
-0.04
-0.055
-0.075
-0.1
-0.11
-0.09
-0.08
-0.055
-0.04
-0.035
0.0
-0.1
0.005
-0.075
-0.06
-0.03
-0.025
-0.075
-0.12
-0.11
-0.015
0.015
-0.01
-0.14
-0.11
-0.145
-0.165
-0.145
-0.165
-0.13
-0.09
-0.13
-0.125
-0.1
-0.09
-0.1
-0.105
-0.165
-0.155
-0.165
-0.16
-0.145
-0.07
-0.16
-0.115
-0.065
-0.16
-0.205
-0.13
-0.12
-0.185
-0.17
-0.15
-0.135
-0.13
-0.13
-0.155
-0.095
-0.03
-0.015
-0.075
-0.05
0.055
0.13
0.235
0.355
0.45
0.535
0.575
0.63
0.605
0.61
0.54
0.295
0.04
-0.045
-0.2
-0.29
-0.405
-0.5
-0.66
-0.735
-0.755
-0.69
-0.625
-0.55
-0.47
-0.52
-0.395
-0.365
-0.37
-0.31
-0.27
-0.23
-0.14
-0.115
-0.14
-0.15
-0.19
-0.17
-0.175
-0.15
-0.125
-0.16
-0.12
-0.09
-0.135
-0.115
-0.09
-0.11
-0.165
-0.115
-0.085
-0.115
-0.125
-0.095
-0.09
-0.065
-0.17
-0.125
-0.105
-0.085
-0.08
-0.01
-0.04
-0.075
-0.025
-0.09
-0.115
-0.105
-0.135
-0.075
-0.04
-0.05
-0.07
-0.005
-0.025
-0.07
-0.015
-0.035
-0.01
0.0
0.015
-0.03
0.005
0.03
0.055
0.01
0.05
0.095
0.045
0.015
0.08
0.15
0.165
0.23
0.235
0.26
0.18
0.205
0.14
0.15
0.27
0.315
0.345
0.26
0.31
0.365
0.355
0.345
0.325
0.34
0.355
0.37
0.385
0.38
0.36
0.29
0.23
0.26
0.27
0.29
0.265
0.245
0.245
0.18
0.185
0.21
0.115
0.035
0.14
0.08
-0.01
0.04
0.055
-0.01
-0.015
-0.02
-0.07
-0.125
-0.05
-0.015
-0.035
-0.065
-0.115
-0.135
-0.135
-0.1
-0.125
-0.155
-0.19
-0.18
-0.07
-0.08
-0.105
-0.13
-0.15
-0.13
-0.155
-0.18
-0.155
-0.165
-0.12
-0.155
-0.13
-0.17
-0.155
-0.155
-0.15
-0.145
-0.145
-0.16
-0.135
-0.095
-0.14
-0.12
-0.14
-0.105
-0.165
-0.255
-0.16
-0.14
-0.12
-0.115
-0.11
-0.135
-0.135
-0.13
-0.045
-0.08
-0.09
-0.13
-0.135
-0.065
-0.18
-0.22
-0.165
-0.105
-0.065
-0.115
-0.14
-0.125
-0.12
-0.065
-0.125
-0.14
-0.17
-0.185
-0.155
-0.16
-0.175
-0.14
-0.15
-0.16
-0.045
-0.12
-0.205
-0.165
-0.155
-0.125
-0.11
-0.13
-0.185
-0.205
-0.13
-0.105
-0.11
-0.16
-0.175
-0.14
-0.115
-0.08
-0.185
-0.195
-0.11
-0.125
-0.12
-0.165
-0.165
-0.09
-0.16
-0.15
-0.15
-0.155
-0.14
-0.155
-0.175
-0.165
-0.14
-0.07
-0.08
-0.16
-0.11
-0.085
-0.105
-0.165
-0.145
-0.07
-0.04
-0.03
-0.01
-0.06
-0.115
-0.13
-0.115
-0.05
-0.105
-0.135
-0.185
-0.16
-0.155
-0.18
-0.19
-0.165
-0.175
-0.17
-0.1
-0.13
-0.135
-0.155
-0.13
-0.11
-0.155
-0.24
-0.175
-0.175
-0.215
-0.19
-0.165
-0.14
-0.165
-0.155
-0.17
-0.1
-0.16
-0.14
-0.15
-0.2
-0.205
-0.195
-0.155
-0.19
-0.23
-0.225
-0.15
-0.16
-0.1
-0.075
-0.03
0.045
0.09
0.17
0.34
0.43
0.53
0.525
0.55
0.555
0.51
0.43
0.155
-0.09
-0.15
-0.26
-0.3
-0.375
-0.525
-0.655
-0.795
-0.74
-0.69
-0.62
-0.625
-0.555
-0.455
-0.45
-0.365
-0.39
-0.335
-0.27
-0.195
-0.175
-0.135
-0.12
-0.13
-0.16
-0.075
-0.11
-0.115
-0.11
-0.18
-0.135
-0.11
-0.085
0.015
-0.02
-0.085
-0.12
-0.15
-0.125
-0.14
-0.145
-0.125
-0.105
-0.11
-0.115
-0.01
-0.005
0.005
-0.085
-0.12
-0.13
-0.08
-0.055
-0.095
-0.095
-0.04
-0.045
-0.045
-0.04
-0.005
-0.085
-0.06
-0.06
-0.01
0.025
0.035
-0.065
-0.02
-0.005
0.08
0.075
0.11
0.02
-0.005
0.01
0.025
0.02
0.065
0.125
0.105
0.135
0.155
0.235
0.255
0.27
0.275
0.2
0.24
0.27
0.34
0.31
0.3
0.315
0.325
0.345
0.35
0.35
0.34
0.365
0.375
0.35
0.355
0.345
0.35
0.295
0.315
0.32
0.31
0.335
0.285
0.23
0.195
0.2
0.15
0.185
0.13
0.115
0.15
0.1
0.05
-0.09
-0.025
-0.02
-0.025
-0.01
-0.045
-0.035
-0.075
-0.03
-0.015
-0.075
-0.1
-0.085
-0.07
-0.1
-0.1
-0.12
-0.105
-0.105
-0.095
-0.08
-0.055
-0.1
-0.115
-0.17
-0.14
-0.105
-0.105
-0.005
-0.19
-0.12
-0.1
-0.11
-0.14
-0.16
-0.115
-0.12
-0.145
-0.07
-0.085
-0.1
-0.1
-0.08
-0.13
-0.06
-0.095
-0.11
-0.125
-0.075
-0.04
-0.09
-0.1
-0.105
-0.12
-0.125
-0.125
-0.095
-0.115
-0.08
-0.025
-0.08
-0.09
-0.055
-0.055
-0.055
-0.15
-0.105
-0.08
-0.12
-0.14
-0.1
-0.12
-0.1
-0.11
-0.115
-0.14
-0.105
-0.115
-0.105
-0.125
-0.12
-0.11
-0.095
-0.115
-0.095
-0.115
-0.12
-0.07
-0.105
-0.155
-0.105
-0.095
-0.11
-0.11
-0.085
-0.14
-0.125
-0.12
-0.08
-0.085
-0.135
-0.08
-0.115
-0.115
-0.095
-0.04
-0.055
-0.105
0.0
-0.11
-0.09
-0.11
-0.155
-0.145
-0.115
-0.12
-0.085
-0.055
-0.065
0.0
-0.045
-0.01
-0.01
-0.025
-0.05
-0.06
-0.06
-0.065
-0.05
-0.065
-0.08
-0.09
-0.08
-0.115
-0.145
-0.14
-0.11
-0.145
-0.13
-0.11
-0.14
-0.05
-0.11
-0.11
-0.125
-0.12
-0.12
-0.09
-0.085
-0.125
-0.185
-0.145
-0.14
-0.085
-0.085
-0.1
-0.05
-0.17
-0.13
-0.09
-0.135
-0.125
-0.105
-0.175
-0.13
-0.135
-0.125
-0.1
-0.045
-0.015
-0.01
0.05
0.18
0.25
0.335
0.44
0.555
0.575
0.665
0.68
0.605
0.545
0.53
0.275
0.06
-0.09
-0.11
-0.18
-0.37
-0.505
-0.675
-0.715
-0.785
-0.63
-0.58
-0.53
-0.455
-0.38
-0.32
-0.285
-0.24
-0.2
-0.18
-0.145
-0.14
-0.1
-0.12
-0.085
-0.13
-0.065
-0.115
-0.08
-0.035
-0.04
-0.015
-0.055
-0.105
-0.04
-0.05
-0.025
-0.025
-0.05
-0.11
-0.125
-0.085
-0.08
-0.08
-0.065
-0.1
-0.11
-0.08
0.015
0.015
0.055
-0.075
-0.09
-0.045
-0.015
0.03
0.03
0.015
-0.045
-0.01
0.03
0.04
-0.055
-0.035
0.04
0.03
0.015
0.04
0.06
0.065
0.05
0.0
0.055
0.16
0.1
0.055
0.075
0.07
0.13
0.125
0.14
0.16
0.18
0.215
0.15
0.185
0.21
0.205
0.325
0.395
0.34
0.295
0.3
0.345
0.405
0.36
0.345
0.35
0.355
0.37
0.375
0.36
0.33
0.355
0.295
0.325
0.305
0.325
0.34
0.335
0.255
0.21
0.28
0.165
0.15
0.18
0.185
0.08
0.095
0.09
0.085
0.035
0.035
0.0
0.005
0.0
0.04
0.015
-0.01
-0.085
-0.11
-0.06
-0.09
-0.09
-0.09
-0.075
-0.055
-0.085
-0.085
-0.13
-0.105
-0.09
-0.065
-0.06
-0.065
-0.085
-0.12
-0.115
-0.085
-0.08
-0.07
-0.075
-0.06
-0.075
-0.125
-0.095
-0.11
-0.1
-0.09
-0.09
-0.07
-0.175
-0.12
-0.065
-0.075
-0.055
-0.11
-0.085
-0.07
-0.02
-0.115
-0.135
-0.07
-0.07
-0.06
-0.055
-0.095
-0.115
-0.145
-0.07
-0.015
-0.065
-0.14
-0.1
-0.07
-0.045
-0.075
-0.085
-0.125
-0.1
-0.04
-0.03
-0.11
-0.165
-0.16
-0.14
-0.12
-0.075
-0.095
-0.11
-0.045
-0.085
-0.08
-0.135
-0.105
-0.05
-0.04
-0.115
-0.085
-0.12
-0.15
-0.15
-0.1
-0.075
-0.1
-0.045
-0.07
-0.1
-0.125
-0.075
-0.08
-0.07
-0.075
-0.045
-0.1
-0.005
-0.075
-0.06
-0.16
-0.17
-0.15
-0.12
-0.05
-0.055
-0.065
-0.025
-0.01
-0.01
-0.01
0.015
-0.03
-0.055
-0.04
-0.115
-0.07
-0.02
-0.035
-0.145
-0.135
-0.115
-0.09
-0.13
-0.095
-0.105
-0.12
-0.12
-0.15
-0.135
-0.115
-0.1
-0.12
-0.07
-0.11
-0.06
-0.14
-0.135
-0.115
-0.225
-0.185
-0.14
-0.095
-0.13
-0.135
-0.14
-0.125
-0.135
-0.095
-0.085
-0.13
-0.15
-0.28
-0.18
-0.07
0.0
-0.055
-0.015
0.1
0.225
0.34
0.41
0.47
0.555
0.63
0.71
0.675
0.63
0.635
0.475
0.15
-0.005
-0.13
-0.18
-0.315
-0.52
-0.735
-0.83
-0.815
-0.68
-0.6
-0.5
-0.465
-0.365
-0.345
-0.3
-0.21
-0.125
-0.085
-0.16
-0.205
-0.185
-0.175
-0.18
-0.15
-0.13
-0.065
-0.045
-0.065
-0.095
-0.155
-0.09
-0.17
-0.195
-0.16
-0.08
-0.08
-0.095
-0.03
-0.055
-0.015
-0.035
-0.055
-0.095
-0.15
-0.135
-0.08
-0.045
-0.035
-0.065
-0.06
-0.07
-0.07
-0.095
-0.08
-0.035
-0.025
-0.015
0.0
0.01
0.035
-0.025
-0.11
-0.115
-0.025
-0.04
-0.015
0.015
0.025
0.05
0.07
0.06
0.06
0.05
0.025
0.075
0.155
0.15
0.125
0.105
0.145
0.185
0.215
0.23
0.235
0.205
0.235
0.3
0.295
0.335
0.36
0.325
0.285
0.33
0.34
0.36
0.325
0.33
0.41
0.37
0.29
0.33
0.345
0.365
0.36
0.29
0.3
0.275
0.21
0.195
0.265
0.21
0.14
0.155
0.095
0.145
0.175
0.1
0.105
0.055
0.01
-0.015
-0.005
0.01
-0.02
0.03
0.045
-0.025
-0.085
-0.07
-0.145
-0.12
-0.135
-0.14
-0.075
-0.075
-0.07
-0.065
-0.105
-0.155
-0.125
-0.085
-0.12
-0.08
-0.195
-0.14
-0.13
-0.12
-0.145
-0.16
-0.11
-0.11
-0.155
-0.13
-0.085
-0.08
-0.05
-0.105
-0.165
-0.205
-0.16
-0.14
-0.14
-0.16
-0.145
-0.135
-0.075
-0.12
-0.135
-0.13
-0.125
-0.135
-0.105
-0.15
-0.135
-0.06
-0.15
-0.095
-0.11
-0.08
-0.145
-0.175
-0.13
-0.115
-0.125
-0.125
-0.09
-0.145
-0.19
-0.14
-0.125
-0.14
-0.155
-0.16
-0.165
-0.19
-0.14
-0.125
-0.13
-0.085
-0.13
-0.16
-0.165
-0.11
-0.11
-0.145
-0.18
-0.19
-0.175
-0.105
-0.12
-0.1
-0.15
-0.105
-0.125
-0.13
-0.07
-0.13
-0.145
-0.125
-0.105
-0.1
-0.14
-0.115
-0.12
-0.145
-0.185
-0.17
-0.1
-0.08
-0.105
-0.115
-0.06
-0.09
-0.035
-0.06
-0.085
-0.095
-0.15
-0.09
-0.115
-0.105
-0.105
-0.16
-0.18
-0.155
-0.18
-0.165
-0.235
-0.225
-0.125
-0.17
-0.135
-0.22
-0.19
-0.16
-0.14
-0.205
-0.155
-0.175
-0.15
-0.22
-0.17
-0.13
-0.145
-0.14
-0.06
-0.095
-0.27
-0.25
-0.19
-0.21
-0.235
-0.25
-0.255
-0.205
-0.235
-0.2
-0.165
-0.1
-0.015
-0.03
0.09
0.155
0.265
0.4
0.51
0.495
0.53
0.56
0.605
0.635
0.605
0.26
0.105
-0.05
-0.19
-0.31
-0.45
-0.58
-0.76
-0.8
-0.8
-0.735
-0.635
-0.55
-0.565
-0.52
-0.475
-0.435
-0.365
-0.29
-0.195
-0.16
-0.255
-0.175
-0.195
-0.155
-0.22
-0.23
-0.27
-0.185
-0.245
-0.14
-0.19
-0.155
-0.14
-0.105
-0.11
-0.095
-0.2
-0.205
-0.14
-0.195
-0.14
-0.115
-0.13
-0.13
-0.14
-0.095
-0.15
-0.125
-0.165
-0.11
-0.11
-0.085
-0.15
-0.14
-0.055
-0.075
-0.115
-0.145
-0.16
-0.095
-0.095
-0.1
-0.09
-0.05
-0.125
-0.08
-0.095
-0.04
0.015
-0.075
-0.025
0.025
-0.04
0.005
0.025
0.025
0.025
0.08
0.11
0.055
0.095
0.16
0.145
0.15
0.21
0.235
0.23
0.22
0.225
0.185
0.215
0.225
0.29
0.36
0.295
0.33
0.355
0.27
0.265
0.28
0.29
0.235
0.245
0.26
0.26
0.245
0.225
0.275
0.125
0.155
0.155
0.12
0.125
0.075
0.065
0.025
0.05
0.07
0.01
-0.015
-0.06
-0.06
-0.09
-0.175
-0.12
-0.12
-0.095
-0.09
-0.17
-0.165
-0.165
-0.125
-0.17
-0.15
-0.17
-0.14
-0.175
-0.205
-0.185
-0.18
-0.21
-0.205
-0.21
-0.19
-0.14
-0.2
-0.16
-0.085
-0.17
-0.18
-0.21
-0.2
-0.2
-0.26
-0.2
-0.185
-0.21
-0.18
-0.135
-0.145
-0.22
-0.245
-0.26
-0.21
-0.23
-0.185
-0.135
-0.14
-0.14
-0.165
-0.15
-0.13
-0.125
-0.15
-0.215
-0.24
-0.24
-0.17
-0.135
-0.13
-0.14
-0.17
-0.155
-0.14
-0.13
-0.17
-0.145
-0.165
-0.15
-0.18
-0.19
-0.235
-0.205
-0.18
-0.165
-0.095
-0.195
-0.2
-0.195
-0.205
-0.21
-0.13
-0.165
-0.16
-0.21
-0.185
-0.165
-0.135
-0.135
-0.165
-0.16
-0.165
-0.15
-0.145
-0.145
-0.16
-0.14
-0.125
-0.18
-0.095
-0.14
-0.155
-0.2
-0.15
-0.14
-0.12
-0.115
-0.125
-0.15
-0.14
-0.105
-0.125
-0.155
-0.135
-0.17
-0.215
-0.19
-0.195
-0.17
-0.165
-0.215
-0.205
-0.115
-0.135
-0.24
-0.225
-0.185
-0.215
-0.245
-0.26
-0.2
-0.165
-0.135
-0.19
-0.215
-0.195
-0.185
-0.16
-0.18
-0.195
-0.195
-0.205
-0.215
-0.24
-0.23
-0.19
-0.21
-0.195
-0.215
-0.26
-0.29
-0.285
-0.225
-0.165
-0.21
-0.135
-0.03
0.075
0.205
0.28
0.4
0.435
0.49
0.48
0.465
0.46
0.475
0.235
-0.03
-0.11
-0.2
-0.31
-0.45
-0.515
-0.66
-0.79
-0.825
-0.8
-0.75
-0.685
-0.625
-0.56
-0.475
-0.495
-0.455
-0.395
-0.29
-0.26
-0.305
-0.275
-0.2
-0.205
-0.23
-0.3
-0.28
-0.23
-0.23
-0.2
-0.18
-0.19
-0.21
-0.19
-0.14
-0.225
-0.215
-0.185
-0.15
-0.12
-0.145
-0.195
-0.3
-0.295
-0.15
-0.125
-0.23
-0.23
-0.18
-0.155
-0.135
-0.135
-0.15
-0.165
-0.155
-0.135
-0.125
-0.15
-0.105
-0.145
-0.09
-0.08
-0.075
-0.13
-0.195
-0.17
-0.15
-0.125
-0.095
-0.09
-0.055
-0.065
-0.065
-0.05
-0.02
0.03
0.08
0.08
0.04
-0.005
0.0
0.04
0.045
0.12
0.145
0.095
0.135
0.195
0.225
0.225
0.26
0.235
0.205
0.24
0.25
0.295
0.295
0.32
0.27
0.22
0.2
0.22
0.205
0.205
0.185
0.205
0.215
0.21
0.165
0.135
0.14
0.125
0.08
0.07
0.075
0.05
0.05
0.065
0.005
-0.03
-0.035
-0.08
-0.135
-0.12
-0.12
-0.14
-0.145
-0.12
-0.15
-0.195
-0.17
-0.11
-0.15
-0.17
-0.19
-0.16
-0.115
-0.155
-0.205
-0.19
-0.19
-0.19
-0.215
-0.21
-0.23
-0.22
-0.22
-0.17
-0.165
-0.21
-0.22
-0.205
-0.185
-0.2
-0.22
-0.185
-0.18
-0.2
-0.205
-0.17
-0.165
-0.165
-0.2
-0.175
-0.145
-0.175
-0.2
-0.11
-0.12
-0.205
-0.2
-0.16
-0.175
-0.115
-0.13
-0.17
-0.165
-0.245
-0.195
-0.135
-0.1
-0.15
-0.235
-0.24
-0.17
-0.21
-0.175
-0.17
-0.165
-0.17
-0.205
-0.165
-0.19
-0.205
-0.175
-0.18
-0.17
-0.18
-0.145
-0.19
-0.18
-0.185
-0.22
-0.2
-0.21
-0.18
-0.21
-0.18
-0.2
-0.25
-0.2
-0.19
-0.135
-0.145
-0.165
-0.205
-0.215
-0.185
-0.265
-0.225
-0.15
-0.145
-0.165
-0.16
-0.135
-0.095
-0.195
-0.205
-0.185
-0.15
-0.15
-0.13
-0.15
-0.125
-0.11
-0.16
-0.145
-0.125
-0.16
-0.155
-0.19
-0.215
-0.25
-0.21
-0.2
-0.215
-0.215
-0.245
-0.23
-0.25
-0.225
-0.195
-0.245
-0.215
-0.235
-0.22
-0.205
-0.235
-0.215
-0.125
-0.14
-0.24
-0.255
-0.25
-0.245
-0.235
-0.21
-0.2
-0.155
-0.235
-0.265
-0.235
-0.215
-0.24
-0.295
-0.325
-0.215
-0.13
-0.15
-0.145
-0.13
-0.025
0.065
0.2
0.315
0.39
0.435
0.51
0.535
0.505
0.53
0.44
0.25
-0.045
-0.155
-0.245
-0.26
-0.4
-0.585
-0.75
-0.84
-0.88
-0.785
-0.67
-0.66
-0.56
-0.465
-0.44
-0.41
-0.38
-0.29
-0.26
-0.345
-0.305
-0.25
-0.255
-0.26
-0.225
-0.245
-0.24
-0.235
-0.225
-0.2
-0.17
-0.215
-0.205
-0.19
-0.195
-0.18
-0.155
-0.19
-0.23
-0.2
-0.16
-0.195
-0.28
-0.28
-0.245
-0.23
-0.19
-0.205
-0.21
-0.185
-0.205
-0.205
-0.16
-0.135
-0.14
-0.17
-0.18
-0.135
-0.165
-0.115
-0.13
-0.105
-0.24
-0.215
-0.145
-0.175
-0.12
-0.135
-0.09
-0.13
-0.1
-0.08
-0.16
-0.1
-0.08
-0.1
-0.05
0.0
-0.055
-0.015
0.005
0.005
0.02
0.01
0.065
0.16
0.125
0.11
0.09
0.145
0.165
0.175
0.18
0.19
0.16
0.2
0.225
0.2
0.215
0.215
0.285
0.255
0.195
0.195
0.17
0.135
0.15
0.195
0.17
0.11
0.075
0.04
0.01
0.06
0.05
0.04
-0.025
-0.08
-0.085
-0.06
-0.06
-0.115
-0.125
-0.14
-0.165
-0.14
-0.155
-0.14
-0.125
-0.08
-0.11
-0.23
-0.165
-0.245
-0.19
-0.22
-0.215
-0.285
-0.175
-0.18
-0.23
-0.22
-0.17
-0.225
-0.26
-0.225
-0.18
-0.17
-0.17
-0.21
-0.225
-0.23
-0.19
-0.225
-0.19
-0.165
-0.165
-0.255
-0.25
-0.26
-0.26
-0.215
-0.185
-0.2
-0.18
-0.12
-0.25
-0.22
-0.22
-0.21
-0.18
-0.17
-0.205
-0.155
-0.2
-0.25
-0.21
-0.16
-0.195
-0.225
-0.16
-0.175
-0.215
-0.245
-0.22
-0.2
-0.225
-0.22
-0.19
-0.145
-0.205
-0.235
-0.22
-0.15
-0.14
-0.13
-0.18
-0.255
-0.26
-0.21
-0.19
-0.21
-0.195
-0.19
-0.205
-0.225
-0.215
-0.21
-0.22
-0.21
-0.205
-0.205
-0.19
-0.175
-0.185
-0.2
-0.24
-0.215
-0.16
-0.17
-0.27
-0.275
-0.245
-0.245
-0.215
-0.225
-0.23
-0.25
-0.19
-0.2
-0.22
-0.195
-0.17
-0.265
-0.28
-0.24
-0.215
-0.255
-0.215
-0.215
-0.22
-0.25
-0.2
-0.165
-0.19
-0.195
-0.27
-0.21
-0.14
-0.25
-0.19
-0.15
-0.2
-0.155
-0.11
-0.145
-0.2
-0.165
-0.2
-0.18
-0.19
-0.2
-0.245
-0.25
-0.22
-0.185
-0.245
-0.215
-0.24
-0.2
-0.2
-0.21
-0.185
-0.28
-0.25
-0.205
-0.18
-0.23
-0.235
-0.255
-0.225
-0.215
-0.25
-0.225
-0.235
-0.24
-0.235
-0.185
-0.18
-0.195
-0.225
-0.215
-0.26
-0.26
-0.235
-0.26
-0.3
-0.225
-0.165
-0.115
-0.09
-0.015
0.115
0.23
0.315
0.45
0.395
0.515
0.555
0.555
0.535
0.52
0.39
0.125
-0.08
-0.255
-0.325
-0.425
-0.565
-0.72
-0.85
-0.86
-0.81
-0.71
-0.585
-0.5
-0.53
-0.5
-0.445
-0.36
-0.295
-0.255
-0.27
-0.265
-0.23
-0.225
-0.2
-0.175
-0.235
-0.255
-0.235
-0.215
-0.19
-0.2
-0.19
-0.185
-0.13
-0.2
-0.225
-0.205
-0.175
-0.19
-0.185
-0.145
-0.155
-0.14
-0.15
-0.145
-0.135
-0.145
-0.155
-0.14
-0.145
-0.125
-0.115
-0.175
-0.16
-0.15
-0.14
-0.15
-0.155
-0.155
-0.155
-0.11
-0.085
-0.115
-0.15
-0.165
-0.12
-0.135
-0.05
-0.075
-0.065
-0.04
-0.055
-0.045
-0.05
-0.005
-0.03
-0.03
0.005
0.06
0.045
0.055
0.105
0.1
0.095
0.11
0.145
0.17
0.16
0.19
0.23
0.23
0.19
0.19
0.255
0.27
0.275
0.285
0.235
0.265
0.255
0.25
0.255
0.22
0.21
0.25
0.255
0.225
0.19
0.215
0.24
0.195
0.15
0.125
0.06
0.045
0.025
0.01
0.055
0.055
0.045
0.0
-0.04
-0.09
-0.045
-0.05
-0.1
-0.14
-0.13
-0.125
-0.145
-0.1
-0.095
-0.18
-0.16
-0.15
-0.155
-0.165
-0.14
-0.14
-0.135
-0.13
-0.155
-0.185
-0.185
-0.175
-0.14
-0.155
-0.15
-0.22
-0.18
-0.19
-0.18
-0.18
-0.2
-0.17
-0.14
-0.175
-0.15
-0.205
-0.23
-0.19
-0.18
-0.115
-0.08
-0.13
-0.195
-0.18
-0.205
-0.21
-0.18
-0.16
-0.19
-0.205
-0.185
-0.16
-0.185
-0.15
-0.16
-0.16
-0.17
-0.17
-0.15
-0.14
-0.115
-0.175
-0.225
-0.19
-0.13
-0.145
-0.15
-0.17
-0.115
-0.055
-0.05
-0.1
-0.095
-0.13
-0.12
-0.125
-0.1
-0.115
-0.105
-0.055
-0.045
-0.05
-0.095
-0.115
-0.085
-0.06
-0.07
-0.13
-0.11
-0.09
-0.065
-0.08
-0.105
-0.11
-0.095
-0.06
-0.065
-0.12
-0.175
-0.11
-0.09
-0.115
-0.12
-0.14
-0.07
-0.09
-0.095
-0.1
-0.115
-0.11
-0.11
-0.065
-0.075
-0.105
-0.13
-0.105
-0.115
-0.125
-0.115
-0.125
-0.105
-0.105
-0.1
-0.055
-0.025
-0.04
-0.085
-0.14
-0.17
-0.14
-0.1
-0.1
-0.095
-0.095
-0.04
-0.11
-0.075
-0.08
-0.135
-0.155
-0.095
-0.095
-0.095
-0.11
-0.145
-0.095
-0.125
-0.11
-0.145
-0.055
-0.07
-0.105
-0.1
-0.06
-0.075
-0.065
-0.09
-0.07
-0.065
-0.04
-0.05
-0.06
-0.025
0.005
-0.005
-0.045
-0.035
-0.05
-0.035
-0.07
-0.025
-0.125
-0.125
-0.115
-0.175
-0.115
-0.135
-0.13
-0.13
-0.14
-0.11
-0.135
-0.105
-0.085
-0.06
-0.125
-0.2
-0.175
-0.14
-0.155
-0.185
-0.165
-0.15
-0.08
-0.12
-0.09
-0.085
-0.15
-0.165
-0.15
-0.11
-0.125
-0.15
-0.155
-0.165
-0.125
-0.08
-0.095
0.02
0.1
0.225
0.325
0.43
0.54
0.56
0.605
0.645
0.635
0.665
0.68
0.57
0.225
0.03
-0.1
-0.165
-0.36
-0.5
-0.62
-0.775
-0.765
-0.705
-0.635
-0.56
-0.515
-0.455
-0.36
-0.325
-0.29
-0.25
-0.21
-0.2
-0.18
-0.12
-0.13
-0.185
-0.125
-0.135
-0.145
-0.135
-0.15
-0.105
-0.115
-0.09
-0.155
-0.11
-0.08
-0.09
-0.055
-0.045
-0.07
-0.15
-0.175
-0.15
-0.13
-0.105
-0.13
-0.1
-0.12
-0.145
-0.05
-0.05
-0.015
-0.1
-0.1
-0.07
-0.07
-0.08
-0.07
-0.075
-0.055
-0.075
-0.11
-0.105
0.0
0.03
-0.01
-0.05
-0.075
-0.015
0.0
-0.01
-0.005
0.03
-0.01
-0.025
0.035
0.06
0.08
0.105
0.1
0.14
0.15
0.125
0.12
0.115
0.16
0.21
0.245
0.235
0.275
0.235
0.26
0.265
0.325
0.31
0.325
0.39
0.34
0.36
0.295
0.335
0.29
0.29
0.32
0.31
0.315
0.345
0.305
0.295
0.275
0.26
0.26
0.25
0.235
0.205
0.16
0.135
0.11
0.1
0.12
0.1
0.015
0.02
0.065
-0.025
-0.04
-0.025
-0.03
-0.055
-0.06
-0.055
-0.04
0.015
-0.005
-0.13
-0.035
-0.17
-0.12
-0.13
-0.14
-0.15
-0.16
-0.115
-0.09
-0.085
-0.105
-0.085
-0.11
-0.135
-0.14
-0.195
-0.155
-0.09
-0.1
-0.11
-0.105
-0.105
-0.125
-0.17
-0.15
-0.155
-0.14
-0.115
-0.13
-0.115
-0.085
-0.095
-0.145
-0.11
-0.105
-0.115
-0.11
-0.15
-0.165
-0.11
-0.13
-0.095
-0.11
-0.085
-0.095
-0.105
-0.19
-0.135
-0.13
-0.1
-0.06
-0.035
-0.12
-0.11
-0.135
-0.135
-0.125
-0.11
-0.09
-0.055
-0.045
-0.135
-0.115
-0.105
-0.08
-0.13
-0.15
-0.145
-0.155
-0.1
-0.14
-0.165
-0.145
-0.11
-0.15
-0.085
-0.06
-0.095
-0.205
-0.17
-0.125
-0.085
-0.115
-0.13
-0.135
-0.14
-0.11
-0.105
-0.155
-0.11
-0.08
-0.035
-0.075
-0.175
-0.155
-0.125
-0.12
-0.135
-0.105
-0.15
-0.135
-0.17
-0.185
-0.17
-0.115
-0.1
-0.115
-0.145
-0.11
-0.13
-0.14
-0.115
-0.13
-0.1
-0.13
-0.18
-0.165
-0.13
-0.145
-0.11
-0.16
-0.155
-0.125
-0.12
-0.11
-0.13
-0.1
-0.1
-0.125
-0.155
-0.105
-0.105
-0.15
-0.15
-0.155
-0.125
-0.12
-0.12
-0.13
-0.135
-0.135
-0.095
-0.035
-0.05
-0.115
-0.095
-0.115
-0.135
-0.06
-0.09
-0.08
-0.06
-0.05
-0.06
-0.09
-0.065
-0.015
-0.11
-0.15
-0.12
-0.06
-0.12
-0.11
-0.115
-0.105
-0.08
-0.19
-0.135
-0.13
-0.13
-0.12
-0.15
-0.115
-0.09
-0.06
-0.15
-0.14
-0.14
-0.14
-0.13
-0.125
-0.145
-0.095
-0.12
-0.115
-0.15
-0.155
-0.125
-0.12
-0.135
-0.14
-0.165
-0.125
-0.15
-0.165
-0.195
-0.205
-0.195
-0.15
-0.135
-0.045
-0.095
-0.02
0.08
0.215
0.26
0.365
0.415
0.47
0.505
0.595
0.6
0.585
0.545
0.445
0.155
0.055
-0.115
-0.22
-0.345
-0.365
-0.595
-0.75
-0.775
-0.74
-0.68
-0.63
-0.585
-0.52
-0.445
-0.41
-0.335
-0.215
-0.215
-0.185
-0.21
-0.21
-0.2
-0.175
-0.16
-0.16
-0.15
-0.095
-0.11
-0.155
-0.125
-0.105
-0.13
-0.095
-0.1
-0.11
-0.135
-0.085
-0.095
-0.065
-0.125
-0.17
-0.12
-0.055
-0.09
-0.125
-0.085
-0.035
-0.015
-0.12
-0.105
-0.075
-0.06
-0.065
-0.11
-0.105
-0.08
-0.045
-0.095
-0.14
-0.1
-0.07
-0.07
-0.015
0.0
-0.04
-0.03
-0.065
-0.04
0.01
-0.01
-0.01
-0.015
0.005
0.035
0.005
0.01
0.015
0.04
0.11
0.145
0.11
0.14
0.19
0.19
0.165
0.205
0.205
0.27
0.305
0.35
0.275
0.27
0.275
0.295
0.29
0.255
0.305
0.325
0.29
0.27
0.32
0.335
0.335
0.335
0.305
0.285
0.235
0.275
0.29
0.225
0.195
0.21
0.185
0.14
0.1
0.14
0.14
0.11
0.09
0.075
0.045
-0.02
-0.04
-0.03
-0.06
-0.025
-0.065
-0.085
-0.055
-0.085
-0.085
-0.095
-0.165
-0.115
-0.14
-0.115
-0.095
-0.065
-0.125
-0.17
-0.225
-0.125
-0.15
-0.125
-0.165
-0.14
-0.135
-0.16
-0.15
-0.09
-0.21
-0.18
-0.155
-0.115
-0.13
-0.125
-0.145
-0.175
-0.195
-0.215
-0.16
-0.14
-0.165
-0.15
-0.09
-0.095
-0.155
-0.125
-0.1
-0.105
-0.125
-0.16
-0.2
-0.12
-0.12
-0.1
-0.12
-0.14
-0.115
-0.075
-0.14
-0.145
-0.155
-0.175
-0.13
-0.125
-0.075
-0.07
-0.05
-0.105
-0.205
-0.17
-0.16
-0.13
-0.15
-0.14
-0.13
-0.15
-0.195
-0.23
-0.13
-0.095
-0.145
-0.14
-0.11
-0.14
-0.135
-0.12
-0.15
-0.135
-0.12
-0.11
-0.105
-0.18
-0.18
-0.135
-0.11
-0.145
-0.16
-0.145
-0.11
-0.195
-0.195
-0.18
-0.16
-0.155
-0.145
-0.145
-0.065
-0.025
-0.165
-0.155
-0.165
-0.18
-0.185
-0.145
-0.16
-0.09
-0.225
-0.185
-0.135
-0.07
-0.12
-0.045
-0.1
-0.16
-0.16
-0.13
-0.17
-0.1
-0.09
-0.16
-0.115
-0.135
-0.15
-0.11
-0.095
-0.06
-0.065
-0.055
-0.07
-0.09
-0.125
-0.05
-0.12
-0.13
-0.15
-0.08
-0.065
-0.085
-0.17
-0.175
-0.15
-0.185
-0.2
-0.175
-0.16
-0.15
-0.12
-0.09
-0.16
-0.155
-0.185
-0.175
-0.165
-0.17
-0.14
-0.065
-0.15
-0.215
-0.155
-0.175
-0.17
-0.145
-0.135
-0.125
-0.17
-0.12
-0.16
-0.15
-0.105
-0.2
-0.23
-0.255
-0.2
-0.2
-0.11
-0.055
-0.045
0.005
0.085
0.2
0.305
0.355
0.455
0.555
0.575
0.575
0.555
0.515
0.525
0.28
0.025
-0.05
-0.215
-0.18
-0.3
-0.535
-0.66
-0.71
-0.745
-0.69
-0.625
-0.59
-0.52
-0.45
-0.385
-0.37
-0.265
-0.16
-0.185
-0.255
-0.245
-0.18
-0.165
-0.18
-0.175
-0.16
-0.165
-0.1
-0.065
-0.09
-0.07
-0.02
-0.12
-0.19
-0.145
-0.12
-0.1
-0.125
-0.115
-0.11
-0.12
-0.1
-0.07
-0.075
-0.1
-0.055
-0.03
-0.055
-0.09
-0.165
-0.08
0.02
-0.055
-0.065
-0.06
-0.105
-0.135
-0.14
-0.065
-0.055
-0.09
-0.105
-0.01
-0.015
0.035
0.01
-0.005
0.035
-0.03
-0.035
0.005
0.025
0.055
-0.06
0.0
0.05
0.09
0.13
0.105
0.09
0.115
0.175
0.18
0.17
0.195
0.24
0.255
0.285
0.205
0.21
0.28
0.325
0.315
0.355
0.38
0.345
0.37
0.41
0.335
0.29
0.32
0.315
0.31
0.31
0.335
0.375
0.255
0.215
0.28
0.28
0.265
0.225
0.21
0.16
0.14
0.13
0.125
0.13
0.1
0.07
0.01
0.01
0.005
0.03
0.025
0.03
-0.07
-0.03
-0.05
-0.1
-0.1
-0.05
-0.045
-0.055
-0.075
-0.13
-0.16
-0.135
-0.14
-0.125
-0.11
-0.075
-0.05
-0.075
-0.105
-0.13
-0.125
-0.1
-0.05
-0.125
-0.13
-0.12
-0.11
-0.135
-0.085
-0.12
-0.13
-0.12
-0.08
-0.115
-0.09
-0.07
-0.095
-0.095
-0.1
-0.09
-0.085
-0.135
-0.135
-0.14
-0.105
-0.065
-0.065
-0.1
-0.07
-0.03
0.005
-0.01
-0.025
-0.165
-0.12
-0.135
-0.12
-0.125
-0.07
-0.055
-0.065
-0.1
-0.065
-0.08
-0.03
-0.035
-0.02
-0.09
-0.09
-0.105
-0.105
-0.075
-0.04
-0.08
-0.11
-0.045
-0.11
-0.12
-0.105
-0.085
-0.095
-0.12
-0.09
-0.08
-0.085
-0.075
-0.05
-0.115
-0.095
-0.11
-0.08
-0.09
-0.11
-0.125
-0.075
-0.055
-0.075
-0.135
-0.1
-0.13
-0.14
-0.12
-0.095
-0.045
-0.065
-0.07
-0.08
-0.08
-0.055
-0.08
-0.135
-0.08
-0.135
-0.175
-0.15
-0.095
-0.115
-0.095
-0.07
-0.095
-0.075
-0.065
-0.08
-0.075
-0.105
-0.03
-0.02
-0.055
-0.1
-0.17
-0.12
-0.115
-0.065
-0.085
-0.06
-0.065
-0.045
-0.15
-0.09
-0.09
-0.08
-0.055
-0.015
-0.05
-0.08
-0.075
-0.075
-0.015
-0.01
-0.045
-0.06
-0.03
-0.005
-0.06
0.02
0.015
-0.04
-0.05
-0.045
-0.045
-0.13
-0.145
-0.11
-0.105
-0.095
-0.08
-0.125
-0.105
-0.105
-0.07
-0.11
-0.12
-0.13
-0.12
-0.105
-0.095
-0.105
-0.105
-0.095
-0.12
-0.085
-0.095
-0.11
-0.105
-0.095
-0.07
-0.095
-0.165
-0.175
-0.185
-0.11
-0.03
-0.04
-0.005
0.14
0.265
0.19
0.355
0.445
0.49
0.575
0.655
0.645
0.625
0.64
0.67
0.505
0.215
0.025
-0.12
-0.27
-0.32
-0.47
-0.605
-0.72
-0.72
-0.655
-0.57
-0.51
-0.445
-0.355
-0.265
-0.37
-0.32
-0.29
-0.165
-0.11
-0.125
-0.125
-0.075
-0.085
-0.085
-0.08
-0.105
-0.105
-0.105
-0.1
-0.06
-0.075
-0.07
-0.085
-0.095
-0.12
-0.05
-0.055
-0.085
-0.09
-0.035
0.015
-0.005
-0.035
-0.025
-0.065
-0.015
-0.105
-0.075
-0.015
-0.065
0.0
-0.06
-0.07
-0.065
-0.07
-0.04
-0.035
-0.045
-0.03
-0.01
-0.03
-0.005
0.045
-0.005
-0.035
-0.01
0.01
-0.085
-0.07
0.0
0.06
0.03
0.015
0.075
0.09
0.12
0.085
0.12
0.14
0.19
0.155
0.145
0.16
0.19
0.215
0.2
0.16
0.15
0.235
0.355
0.325
0.33
0.365
0.365
0.3
0.35
0.355
0.395
0.31
0.31
0.36
0.36
0.375
0.345
0.3
0.34
0.25
0.22
0.25
0.365
0.225
0.19
0.21
0.19
0.16
0.185
0.175
0.13
0.085
0.085
0.04
-0.02
0.005
0.055
0.0
-0.01
0.02
0.04
-0.075
-0.105
-0.07
-0.065
-0.07
-0.08
-0.095
-0.08
-0.09
-0.095
-0.085
-0.11
-0.13
-0.095
-0.115
-0.1
-0.06
-0.055
-0.115
-0.135
-0.09
-0.075
-0.095
-0.075
-0.035
-0.11
-0.155
-0.155
-0.085
-0.1
-0.12
-0.07
-0.115
-0.085
-0.13
-0.05
-0.035
-0.07
-0.15
-0.11
-0.13
-0.1
-0.11
-0.085
-0.07
-0.05
-0.035
-0.01
-0.105
-0.17
-0.095
-0.075
-0.085
-0.1
-0.085
-0.08
-0.095
-0.025
-0.02
-0.08
-0.135
-0.09
-0.07
-0.055
-0.055
-0.075
-0.1
-0.055
-0.08
-0.065
-0.04
-0.03
0.025
0.04
-0.075
-0.2
-0.115
-0.03
-0.095
-0.115
-0.11
-0.07
-0.12
-0.13
-0.09
-0.08
-0.075
-0.045
0.01
-0.08
-0.08
-0.115
-0.045
-0.1
-0.09
-0.08
-0.105
-0.145
-0.105
-0.085
-0.05
-0.065
-0.1
-0.1
-0.06
-0.06
-0.05
-0.04
-0.1
-0.06
-0.005
-0.055
-0.14
-0.125
-0.155
-0.095
-0.01
-0.105
-0.11
-0.08
-0.08
-0.08
-0.03
0.055
-0.05
-0.115
-0.15
-0.045
-0.07
-0.09
-0.085
-0.07
-0.065
-0.035
-0.085
-0.085
-0.03
-0.095
-0.085
-0.055
-0.055
-0.02
-0.025
0.03
0.06
0.03
-0.005
-0.04
-0.075
-0.09
-0.075
-0.035
-0.015
-0.05
-0.045
-0.06
-0.04
-0.09
-0.095
-0.105
-0.08
-0.12
-0.105
-0.09
-0.065
-0.13
-0.13
-0.09
-0.075
-0.085
-0.105
-0.085
-0.125
-0.08
-0.06
-0.055
-0.085
-0.085
-0.125
-0.12
-0.08
-0.06
-0.06
-0.11
-0.155
-0.175
-0.155
-0.15
-0.1
-0.03
0.01
0.075
0.2
0.265
0.34
0.495
0.58
0.6
0.69
0.66
0.69
0.665
0.595
0.41
0.085
-0.055
-0.075
-0.22
-0.32
-0.47
-0.63
-0.785
-0.775
-0.63
-0.6
-0.59
-0.465
-0.4
-0.385
-0.27
-0.225
-0.185
-0.14
-0.125
-0.11
-0.145
-0.135
-0.14
-0.11
-0.11
-0.055
-0.055
0.005
-0.105
-0.14
-0.13
-0.12
-0.105
-0.13
-0.04
-0.07
-0.02
-0.03
-0.005
0.04
-0.03
-0.045
-0.075
-0.085
-0.035
-0.07
-0.055
-0.035
-0.07
-0.08
-0.035
-0.025
-0.065
-0.05
-0.02
0.01
0.06
-0.065
-0.085
-0.035
-0.005
-0.075
0.01
0.015
0.055
0.065
0.07
-0.035
0.0
0.03
-0.02
0.05
0.04
0.13
0.1
0.145
0.085
0.105
0.105
0.155
0.275
0.275
0.16
0.19
0.255
0.305
0.29
0.28
0.285
0.285
0.345
0.43
0.375
0.305
0.325
0.32
0.375
0.36
0.355
0.355
0.4
0.375
0.39
0.405
0.4
0.36
0.3
0.235
0.26
0.245
0.295
0.325
0.235
0.255
0.255
0.2
0.12
0.145
0.13
0.1
0.095
0.07
0.015
0.02
0.04
0.015
0.015
0.01
-0.015
-0.02
0.03
0.0
-0.05
-0.075
-0.095
-0.08
-0.09
-0.075
-0.06
-0.065
-0.06
-0.05
-0.065
-0.04
-0.06
-0.07
-0.105
-0.085
-0.12
-0.09
-0.06
-0.04
-0.08
-0.04
-0.07
-0.035
-0.02
-0.06
-0.065
-0.055
-0.06
-0.095
-0.08
-0.045
-0.085
-0.09
-0.055
-0.065
-0.06
-0.005
-0.06
-0.06
-0.105
-0.115
-0.09
-0.085
-0.045
-0.02
-0.035
-0.07
-0.075
-0.055
-0.03
-0.035
-0.06
-0.05
0.0
-0.02
-0.025
-0.05
-0.04
-0.125
-0.05
-0.055
-0.095
-0.065
-0.055
-0.075
-0.095
-0.06
-0.065
-0.055
-0.075
-0.055
-0.045
0.01
-0.075
-0.065
-0.035
-0.075
-0.07
-0.04
-0.035
-0.045
-0.055
-0.05
-0.08
-0.125
-0.105
-0.075
-0.095
-0.08
-0.08
-0.035
-0.045
-0.03
-0.01
-0.03
-0.055
-0.085
-0.07
-0.075
-0.07
-0.035
-0.065
-0.06
-0.07
-0.065
-0.04
-0.02
0.025
0.005
-0.03
-0.105
-0.085
-0.07
-0.055
-0.075
-0.025
-0.02
0.09
0.065
0.025
0.045
-0.015
0.0
0.055
0.09
0.075
-0.05
-0.055
-0.02
-0.025
-0.075
-0.08
-0.075
-0.09
-0.105
-0.12
-0.1
-0.085
-0.055
-0.05
-0.075
-0.1
-0.03
-0.035
-0.04
-0.02
-0.065
-0.07
-0.08
-0.095
-0.115
-0.055
-0.04
-0.06
-0.075
-0.045
-0.065
-0.08
-0.03
-0.01
-0.04
-0.05
-0.165
-0.135
-0.06
0.065
0.11
0.05
0.135
0.32
0.425
0.525
0.6
0.645
0.68
0.64
0.67
0.64
0.595
0.445
0.15
-0.005
-0.11
-0.16
-0.37
-0.505
-0.64
-0.75
-0.77
-0.675
-0.53
-0.49
-0.38
-0.385
-0.33
-0.215
-0.175
-0.125
-0.08
-0.075
-0.095
-0.13
-0.075
-0.08
-0.08
-0.035
-0.06
-0.05
-0.05
-0.035
-0.035
-0.025
-0.005
0.075
0.08
0.065
-0.115
-0.055
-0.03
-0.065
-0.065
-0.035
0.055
-0.015
-0.025
-0.035
0.015
0.025
0.045
0.0
-0.01
0.0
0.095
0.07
-0.015
-0.015
-0.03
-0.05
0.01
0.005
0.0
0.105
0.09
0.06
0.045
0.085
0.035
0.035
0.085
0.125
0.1
0.1
0.06
0.11
0.14
0.115
0.13
0.165
0.18
0.23
0.29
0.26
0.24
0.225
0.265
0.27
0.28
0.32
0.38
0.465
0.465
0.445
0.37
0.38
0.355
0.375
0.4
0.445
0.395
0.455
0.385
0.395
0.45
0.435
0.47
0.355
0.36
0.33
0.32
0.3
0.275
0.295
0.31
0.305
0.29
0.24
0.215
0.19
0.19
0.17
0.135
0.1
0.085
0.055
0.04
0.045
0.085
0.105
0.145
0.04
-0.055
-0.02
0.04
-0.065
-0.07
-0.01
-0.02
-0.015
-0.01
-0.05
-0.05
-0.045
-0.005
-0.03
-0.035
-0.035
-0.04
-0.07
-0.02
-0.02
-0.035
-0.02
-0.03
-0.025
-0.085
-0.03
-0.13
-0.01
-0.01
0.035
0.02
-0.005
-0.045
0.005
0.0
-0.025
-0.035
-0.015
0.02
0.005
-0.02
0.03
-0.04
-0.03
-0.02
0.0
-0.015
-0.05
-0.07
0.015
-0.015
-0.02
0.015
-0.07
-0.05
-0.015
-0.025
0.04
0.035
-0.02
-0.05
-0.03
-0.025
-0.065
-0.06
-0.075
-0.065
0.005
0.04
0.055
-0.005
0.035
0.03
-0.015
0.01
0.025
-0.01
-0.03
-0.045
0.015
0.0
-0.015
-0.015
-0.03
-0.005
0.02
0.03
0.07
0.08
-0.065
-0.095
-0.02
-0.01
0.005
0.095
0.085
0.03
0.01
0.075
0.055
0.08
0.015
0.03
-0.03
0.005
-0.02
0.005
-0.02
-0.03
-0.02
0.025
-0.045
-0.065
-0.04
-0.12
-0.075
-0.07
-0.06
0.01
-0.065
-0.01
-0.075
-0.105
-0.09
-0.035
-0.04
-0.025
-0.045
-0.005
-0.065
-0.075
-0.04
-0.08
-0.08
-0.05
-0.065
-0.125
-0.085
-0.085
-0.09
-0.06
-0.135
-0.18
-0.12
-0.005
-0.03
-0.02
0.02
0.085
0.17
0.35
0.445
0.475
0.565
0.64
0.6
0.63
0.64
0.52
0.245
0.135
-0.065
-0.13
-0.29
-0.35
-0.485
-0.66
-0.695
-0.675
-0.655
-0.58
-0.5
-0.47
-0.41
-0.37
-0.345
-0.26
-0.31
-0.205
-0.175
-0.17
-0.15
-0.115
-0.07
-0.065
-0.025
-0.02
-0.025
-0.125
-0.07
-0.035
-0.025
-0.1
-0.115
-0.155
-0.13
-0.045
-0.03
-0.015
-0.045
-0.05
-0.03
-0.03
-0.03
-0.08
-0.04
-0.05
-0.045
-0.045
-0.025
0.025
-0.05
-0.02
0.005
-0.01
-0.05
-0.05
-0.055
-0.02
-0.035
0.01
-0.035
0.005
0.005
0.055
0.05
0.075
0.14
0.055
-0.01
-0.035
0.025
0.075
0.13
0.085
0.09
0.085
0.165
0.145
0.165
0.175
0.185
0.215
0.195
0.18
0.25
0.305
0.315
0.345
0.335
0.31
0.32
0.305
0.365
0.335
0.4
0.425
0.335
0.38
0.395
0.345
0.345
0.385
0.35
0.375
0.35
0.325
0.335
0.31
0.295
0.24
0.24
0.285
0.235
0.17
0.18
0.105
0.115
0.05
0.005
0.035
0.035
0.015
0.065
0.12
0.03
0.0
-0.07
-0.015
-0.01
-0.07
-0.15
-0.145
-0.125
-0.07
-0.035
-0.015
-0.015
-0.075
-0.075
-0.105
-0.135
-0.13
-0.105
-0.095
-0.08
-0.035
-0.085
-0.015
-0.09
-0.09
-0.095
-0.105
-0.105
-0.055
-0.035
-0.015
-0.075
-0.06
-0.03
-0.08
-0.075
-0.05
-0.15
-0.065
-0.045
-0.095
-0.06
-0.01
-0.03
-0.05
-0.08
-0.085
-0.115
-0.08
-0.065
-0.015
-0.045
-0.02
-0.04
-0.055
-0.06
-0.04
-0.03
-0.06
-0.06
-0.005
-0.02
-0.105
-0.07
-0.08
-0.04
0.01
-0.005
-0.035
0.0
-0.015
0.005
-0.04
-0.055
-0.01
-0.01
0.01
0.07
0.02
-0.005
-0.06
-0.085
-0.03
-0.02
-0.025
0.005
0.085
0.03
0.085
-0.03
0.02
-0.035
0.0
0.0
0.02
-0.01
0.0
-0.02
-0.025
-0.035
-0.07
-0.055
-0.1
-0.09
-0.05
-0.065
-0.05
-0.09
-0.085
-0.07
-0.08
-0.05
-0.07
-0.1
-0.135
-0.085
-0.075
-0.065
-0.07
-0.11
-0.05
-0.045
-0.015
-0.1
-0.125
-0.135
-0.125
-0.1
-0.105
-0.065
-0.115
-0.185
-0.165
-0.17
-0.165
-0.06
-0.005
-0.055
-0.04
0.065
0.19
0.285
0.405
0.48
0.49
0.58
0.615
0.63
0.605
0.66
0.515
0.165
0.0
-0.125
-0.18
-0.265
-0.415
-0.59
-0.675
-0.72
-0.66
-0.53
-0.515
-0.47
-0.445
-0.335
-0.355
-0.355
-0.285
-0.205
-0.16
-0.145
-0.15
-0.125
-0.095
-0.125
-0.105
-0.08
-0.05
-0.03
-0.06
-0.095
-0.07
-0.01
-0.16
-0.145
-0.125
-0.035
-0.09
-0.065
-0.015
-0.06
-0.075
-0.04
-0.05
-0.025
-0.015
-0.005
-0.1
-0.08
-0.07
-0.035
0.005
0.0
-0.03
-0.055
-0.04
-0.045
-0.035
0.0
-0.01
0.01
-0.02
0.005
0.03
0.05
0.0
-0.005
-0.015
0.01
0.055
0.065
0.085
0.12
0.09
0.055
0.035
0.02
0.09
0.13
0.255
0.095
0.17
0.165
0.155
0.19
0.255
0.34
0.345
0.295
0.29
0.325
0.355
0.365
0.345
0.39
0.345
0.36
0.39
0.375
0.395
0.365
0.365
0.33
0.325
0.365
0.395
0.34
0.315
0.275
0.285
0.275
0.215
0.265
0.29
0.22
0.12
0.12
0.15
0.13
0.115
0.09
0.04
-0.005
0.0
0.02
0.05
0.075
0.035
0.0
0.01
0.005
-0.01
-0.07
-0.06
-0.065
-0.065
-0.09
-0.065
-0.045
0.065
-0.06
-0.02
-0.055
-0.09
-0.03
-0.095
-0.08
-0.04
-0.025
-0.025
-0.08
-0.095
-0.04
0.005
-0.06
-0.05
-0.065
-0.085
-0.16
-0.04
-0.04
-0.045
-0.065
-0.025
-0.055
-0.105
-0.025
0.0
-0.02
-0.01
-0.075
-0.02
0.005
-0.005
-0.045
-0.05
-0.045
-0.055
-0.055
-0.02
-0.01
-0.03
-0.03
-0.075
-0.08
-0.1
-0.02
-0.02
-0.015
0.045
0.015
0.035
0.05
0.05
0.055
0.07
-0.07
0.01
-0.02
-0.105
-0.115
-0.01
0.025
0.08
0.03
0.035
-0.005
0.03
-0.01
0.05
-0.025
0.075
0.06
0.05
0.035
0.055
0.025
0.025
0.08
-0.005
0.0
-0.04
-0.04
0.025
-0.005
-0.07
-0.08
-0.055
-0.06
-0.095
-0.055
-0.115
-0.1
-0.085
-0.06
-0.015
-0.065
-0.075
-0.055
-0.03
-0.01
-0.05
-0.11
-0.04
-0.06
-0.055
-0.045
0.015
-0.075
-0.125
-0.075
-0.07
-0.085
-0.075
-0.12
-0.095
-0.13
-0.085
-0.1
-0.01
-0.015
0.03
0.12
0.24
0.325
0.425
0.505
0.585
0.675
0.69
0.715
0.715
0.69
0.59
0.255
0.02
-0.11
-0.195
-0.26
-0.35
-0.575
-0.72
-0.755
-0.695
-0.605
-0.465
-0.345
-0.285
-0.345
-0.385
-0.345
-0.32
-0.21
-0.15
-0.05
-0.045
-0.01
-0.08
-0.065
-0.145
-0.09
-0.045
-0.1
-0.105
-0.105
-0.07
-0.095
-0.09
-0.085
-0.07
-0.005
-0.01
-0.03
-0.065
-0.07
-0.075
-0.055
-0.025
0.0
0.045
0.0
-0.075
-0.06
-0.055
-0.06
-0.045
-0.065
0.005
-0.01
-0.045
-0.01
-0.03
-0.01
0.04
0.03
0.02
0.035
-0.025
-0.01
0.03
0.095
0.025
0.04
0.105
0.1
0.095
0.075
0.115
0.09
0.095
0.16
0.255
0.175
0.185
0.21
0.195
0.25
0.26
0.26
0.325
0.315
0.355
0.35
0.33
0.33
0.305
0.38
0.395
0.455
0.445
0.4
0.37
0.415
0.405
0.405
0.405
0.445
0.425
0.42
0.4
0.39
0.385
0.26
0.235
0.135
0.295
0.23
0.225
0.275
0.315
0.235
0.18
0.1
0.12
0.065
0.09
0.11
0.08
0.06
0.075
0.055
0.025
0.03
0.015
0.02
-0.02
-0.05
-0.015
-0.02
-0.02
-0.025
-0.03
-0.015
-0.03
-0.02
0.015
0.02
-0.03
-0.04
-0.065
-0.08
-0.05
0.01
0.005
-0.05
-0.04
-0.055
-0.05
-0.035
-0.065
0.025
-0.055
-0.035
0.025
0.0
0.03
-0.065
-0.065
-0.065
-0.035
-0.03
-0.035
0.045
0.035
-0.045
-0.095
-0.095
-0.05
-0.015
-0.055
-0.06
-0.015
0.0
0.0
-0.005
-0.01
-0.035
-0.075
-0.065
-0.005
-0.015
-0.095
-0.075
-0.05
-0.065
-0.025
-0.03
0.01
-0.025
-0.05
-0.045
0.005
0.03
-0.05
-0.07
-0.14
-0.075
-0.065
-0.025
0.01
0.015
0.035
0.02
-0.12
-0.1
-0.06
-0.045
-0.09
-0.05
-0.06
0.005
-0.075
-0.025
-0.035
-0.065
-0.085
-0.035
-0.01
-0.005
-0.025
-0.025
0.005
-0.02
-0.02
0.0
-0.02
0.03
0.035
0.055
0.1
0.005
-0.045
-0.03
-0.01
-0.085
-0.105
-0.04
-0.035
-0.085
-0.075
-0.07
-0.075
-0.11
-0.085
-0.065
-0.1
-0.08
-0.055
-0.055
0.005
-0.13
-0.085
-0.03
-0.07
-0.065
-0.03
-0.065
-0.05
-0.1
-0.095
-0.05
-0.075
-0.075
-0.16
-0.095
-0.095
-0.055
-0.085
-0.125
-0.085
-0.03
-0.01
-0.015
0.06
0.17
0.255
0.34
0.46
0.525
0.635
0.685
0.69
0.73
0.675
0.67
0.52
0.14
-0.02
-0.085
-0.17
-0.24
-0.425
-0.61
-0.755
-0.775
-0.69
-0.575
-0.54
-0.49
-0.395
-0.315
-0.29
-0.23
-0.135
-0.045
-0.14
-0.105
-0.07
-0.095
-0.08
-0.085
-0.105
-0.115
-0.04
-0.075
-0.1
-0.06
0.01
-0.02
-0.06
-0.09
-0.07
-0.09
-0.05
-0.075
-0.035
-0.04
0.01
-0.045
-0.11
-0.07
-0.065
-0.1
-0.045
-0.01
0.005
0.025
-0.02
-0.07
-0.055
-0.05
-0.04
0.06
0.08
0.01
0.0
0.04
0.04
0.025
-0.025
0.04
0.075
0.08
0.02
0.03
0.03
0.055
0.065
0.115
0.09
0.105
0.135
0.16
0.15
0.14
0.13
0.2
0.205
0.265
0.255
0.19
0.23
0.28
0.285
0.3
0.3
0.34
0.365
0.375
0.345
0.37
0.38
0.375
0.405
0.395
0.35
0.4
0.42
0.34
0.41
0.41
0.38
0.315
0.26
0.355
0.285
0.28
0.25
0.24
0.2
0.2
0.18
0.175
0.15
0.175
0.13
0.055
0.03
0.04
0.04
0.065
0.03
0.035
-0.005
-0.005
-0.02
-0.06
-0.07
-0.08
-0.055
-0.06
-0.05
-0.105
-0.1
-0.025
0.015
-0.05
-0.065
-0.055
-0.075
-0.09
-0.075
-0.04
-0.08
-0.04
-0.07
-0.1
-0.055
-0.15
-0.115
-0.06
-0.08
-0.14
-0.01
-0.06
-0.08
-0.06
-0.035
-0.055
-0.1
-0.09
-0.06
-0.075
-0.01
0.015
-0.025
-0.09
-0.13
-0.15
-0.105
-0.075
-0.07
-0.09
-0.085
-0.075
-0.07
-0.04
-0.065
-0.065
-0.065
-0.015
-0.03
-0.035
-0.08
-0.08
-0.085
-0.075
-0.075
-0.09
-0.09
-0.045
-0.09
-0.09
-0.025
-0.005
-0.08
-0.12
-0.13
-0.14
-0.105
-0.08
-0.085
-0.04
-0.05
-0.115
-0.16
-0.11
-0.12
-0.125
-0.035
-0.095
-0.1
-0.075
-0.02
-0.055
-0.03
-0.05
-0.015
-0.09
-0.09
-0.135
-0.11
-0.1
-0.09
-0.095
-0.12
-0.07
-0.075
-0.06
-0.06
-0.05
-0.06
-0.085
-0.075
-0.045
-0.11
-0.045
-0.035
-0.055
0.01
-0.05
-0.065
-0.06
0.0
-0.015
-0.095
-0.105
-0.16
-0.195
-0.12
-0.045
-0.08
-0.085
-0.05
-0.01
0.015
-0.135
-0.22
-0.17
-0.12
-0.055
-0.08
-0.095
-0.105
-0.155
-0.08
-0.07
-0.1
-0.15
-0.135
-0.145
-0.09
-0.08
-0.11
-0.14
-0.15
-0.05
-0.075
-0.185
-0.15
-0.165
-0.15
-0.12
-0.095
-0.125
-0.07
-0.01
0.025
0.155
0.255
0.37
0.435
0.57
0.605
0.575
0.625
0.58
0.59
0.395
0.2
-0.01
-0.29
-0.28
-0.335
-0.505
-0.615
-0.725
-0.76
-0.76
-0.65
-0.595
-0.575
-0.47
-0.39
-0.33
