# TIPE ECG 2021 - ECG-ID Database v1.0.0 par Physionet
# [Numéro de la personne, Période d'échantillonnage, Prénom, Age, Sexe, Date de l'enregistrement]
[66, 0.002, Rodney, 16, H, 12.05.2005]
-0.01
-0.005
0.005
0.03
-0.04
-0.005
0.025
-0.005
-0.02
-0.045
-0.03
-0.055
-0.025
0.03
0.015
0.04
0.06
0.07
-0.02
-0.03
0.0
0.03
-0.05
-0.04
0.01
-0.005
-0.005
0.025
-0.02
-0.03
-0.075
-0.065
-0.03
0.015
-0.075
-0.04
-0.07
-0.065
-0.055
-0.055
-0.035
-0.035
-0.025
0.0
0.0
0.04
0.01
-0.01
0.01
0.025
-0.055
-0.07
-0.02
-0.015
-0.025
-0.05
-0.045
-0.03
-0.045
-0.015
-0.03
-0.015
0.04
-0.015
-0.02
-0.025
-0.035
-0.04
-0.075
-0.065
-0.065
-0.1
-0.045
-0.025
0.04
0.015
-0.065
-0.065
-0.05
-0.02
-0.03
-0.02
-0.03
-0.06
-0.01
-0.065
-0.07
-0.07
-0.03
-0.05
-0.05
-0.01
-0.06
-0.045
-0.04
-0.02
-0.02
0.05
-0.01
0.015
-0.015
-0.025
0.05
0.005
0.0
0.035
0.07
0.065
0.045
0.03
0.065
0.035
0.045
0.025
-0.005
-0.01
-0.01
-0.015
0.0
0.01
0.005
0.03
-0.105
-0.05
0.01
0.03
-0.05
-0.03
-0.045
-0.06
-0.07
-0.005
0.015
-0.05
-0.06
-0.04
-0.04
-0.015
-0.045
0.01
-0.095
-0.095
-0.03
-0.02
-0.015
-0.04
-0.03
-0.095
-0.065
-0.08
-0.095
-0.095
-0.075
-0.11
-0.07
-0.085
-0.055
-0.01
0.015
0.015
0.105
0.165
0.28
0.415
0.53
0.625
0.775
0.795
0.805
0.785
0.72
0.75
0.605
0.255
0.13
-0.055
-0.12
-0.245
-0.475
-0.655
-0.755
-0.745
-0.69
-0.53
-0.48
-0.405
-0.42
-0.34
-0.3
-0.215
-0.185
-0.15
-0.11
-0.06
-0.075
-0.08
-0.045
-0.09
-0.105
-0.035
-0.06
-0.07
-0.07
-0.025
0.055
-0.025
-0.055
-0.09
-0.045
-0.06
-0.09
0.01
0.0
0.005
0.0
-0.03
-0.07
-0.01
-0.02
0.005
0.05
-0.025
-0.02
0.015
0.035
0.045
0.01
-0.01
-0.015
-0.01
0.035
0.01
-0.035
0.035
0.09
0.085
0.055
0.04
0.035
0.015
-0.005
0.06
0.08
0.1
0.11
0.135
0.095
0.135
0.05
0.075
0.16
0.165
0.195
0.155
0.175
0.175
0.165
0.265
0.205
0.22
0.255
0.3
0.28
0.34
0.345
0.335
0.385
0.4
0.385
0.355
0.43
0.435
0.455
0.43
0.395
0.425
0.47
0.48
0.485
0.445
0.465
0.47
0.465
0.44
0.395
0.39
0.36
0.385
0.34
0.395
0.315
0.295
0.265
0.28
0.265
0.215
0.17
0.14
0.2
0.155
0.195
0.125
0.135
0.11
0.035
0.06
0.03
0.0
0.025
0.025
-0.06
-0.03
0.035
0.005
-0.06
-0.055
-0.015
0.01
-0.02
-0.015
-0.005
-0.005
0.11
0.145
0.01
-0.07
-0.055
-0.09
-0.055
-0.05
-0.065
0.005
-0.035
-0.075
-0.045
0.03
0.015
-0.04
-0.025
-0.025
-0.005
-0.015
-0.015
-0.04
-0.005
-0.005
0.005
0.02
-0.065
-0.05
-0.01
-0.1
0.005
0.03
0.055
0.02
0.015
0.005
-0.005
-0.04
-0.01
-0.01
-0.04
-0.075
-0.05
-0.01
-0.005
-0.015
0.02
-0.02
-0.015
-0.03
-0.015
0.04
-0.04
-0.025
0.015
-0.01
-0.02
-0.05
0.0
-0.025
-0.01
-0.105
-0.12
-0.08
-0.025
0.065
0.045
0.06
0.005
-0.015
-0.025
0.01
-0.03
-0.03
0.02
-0.025
-0.01
0.0
-0.04
-0.06
0.005
-0.02
-0.045
-0.075
-0.055
-0.045
0.015
0.02
-0.005
-0.1
-0.075
-0.055
-0.04
-0.095
-0.055
0.005
-0.005
-0.005
0.005
-0.02
-0.105
-0.08
-0.06
-0.055
-0.08
-0.125
-0.12
-0.09
-0.075
-0.05
-0.09
-0.09
-0.165
0.005
0.0
-0.03
-0.11
-0.125
-0.105
-0.11
-0.12
-0.065
0.025
-0.045
-0.185
-0.17
-0.09
-0.045
-0.025
-0.01
0.0
-0.035
-0.08
-0.12
-0.14
-0.125
-0.175
-0.135
-0.095
-0.075
-0.09
-0.07
-0.12
-0.11
-0.085
-0.12
-0.095
-0.095
-0.06
-0.05
-0.035
-0.015
-0.08
-0.07
-0.075
-0.045
-0.05
-0.1
-0.03
-0.025
0.0
0.04
-0.02
-0.02
0.04
-0.005
-0.075
-0.155
-0.075
-0.065
-0.095
-0.195
-0.12
-0.05
-0.03
-0.09
-0.125
-0.085
-0.075
-0.11
-0.135
-0.09
-0.07
-0.14
-0.14
-0.125
-0.08
-0.05
-0.09
-0.08
-0.08
-0.07
-0.065
-0.065
-0.055
-0.075
-0.105
-0.06
-0.215
-0.13
-0.085
-0.135
-0.16
-0.18
-0.175
-0.105
0.06
0.03
0.135
0.09
0.19
0.35
0.425
0.56
0.6
0.65
0.895
0.88
0.795
0.8
0.685
0.45
0.16
-0.06
-0.13
-0.21
-0.395
-0.645
-0.83
-0.92
-0.81
-0.65
-0.565
-0.465
-0.41
-0.305
-0.255
-0.225
-0.23
-0.195
-0.13
-0.12
-0.11
-0.13
-0.145
-0.1
-0.045
-0.05
-0.075
-0.035
-0.02
-0.08
-0.085
-0.05
-0.045
-0.095
-0.04
0.0
-0.06
-0.035
0.015
-0.02
-0.015
-0.015
-0.055
-0.04
-0.055
-0.08
-0.01
0.01
0.005
-0.08
-0.03
-0.06
-0.045
0.025
0.085
0.01
-0.005
0.015
-0.02
0.015
0.035
0.05
-0.035
0.0
0.015
-0.015
0.11
0.08
0.07
0.095
0.075
0.065
0.085
0.085
0.105
0.135
0.12
0.08
0.1
0.155
0.185
0.22
0.18
0.23
0.225
0.26
0.23
0.21
0.305
0.365
0.33
0.31
0.31
0.34
0.41
0.385
0.375
0.34
0.415
0.435
0.42
0.42
0.405
0.41
0.46
0.51
0.405
0.425
0.465
0.47
0.45
0.455
0.335
0.355
0.32
0.325
0.335
0.34
0.28
0.285
0.225
0.21
0.175
0.15
0.145
0.11
0.14
0.05
0.11
0.09
0.055
0.035
0.0
0.04
0.03
-0.03
-0.055
-0.02
-0.01
-0.05
0.005
-0.1
-0.08
-0.13
-0.1
-0.185
-0.08
-0.085
-0.1
-0.04
0.025
0.025
0.015
-0.095
0.03
-0.04
-0.09
-0.085
-0.125
-0.025
-0.035
-0.04
-0.08
-0.07
-0.125
-0.09
-0.02
0.0
-0.06
-0.05
-0.035
-0.07
-0.165
-0.105
-0.1
-0.035
-0.055
-0.06
-0.085
-0.08
-0.085
-0.105
-0.07
0.01
-0.02
-0.045
-0.05
-0.015
0.015
-0.05
-0.145
-0.185
-0.11
-0.1
-0.11
-0.055
0.075
0.035
0.04
-0.015
-0.04
0.01
0.02
-0.04
0.0
-0.005
-0.08
-0.02
-0.055
-0.015
-0.03
-0.055
-0.04
-0.04
-0.02
-0.01
-0.03
-0.095
-0.075
-0.05
-0.065
-0.065
-0.055
-0.025
0.01
-0.005
0.01
-0.11
-0.025
-0.01
-0.03
-0.075
-0.055
-0.085
-0.035
-0.15
-0.135
-0.07
-0.01
0.02
0.005
-0.015
0.01
-0.01
-0.015
-0.03
-0.01
0.035
-0.045
-0.04
-0.005
-0.08
-0.075
0.015
-0.01
-0.095
-0.04
-0.03
-0.075
-0.085
-0.025
-0.04
-0.055
-0.07
-0.01
-0.105
-0.115
-0.065
0.0
-0.005
-0.09
-0.1
-0.075
-0.07
-0.105
-0.085
-0.165
-0.115
-0.085
-0.085
-0.055
-0.015
0.0
0.015
-0.01
-0.05
-0.035
-0.065
-0.075
-0.105
-0.05
-0.045
-0.07
-0.02
-0.065
-0.045
0.015
-0.06
-0.06
-0.05
-0.025
0.005
0.045
-0.03
-0.045
-0.055
-0.01
0.025
-0.015
0.065
-0.035
-0.045
-0.01
0.035
-0.03
-0.045
-0.015
-0.065
-0.035
-0.05
-0.055
-0.04
-0.065
-0.04
-0.08
-0.065
-0.085
-0.1
-0.105
-0.075
-0.06
-0.14
-0.115
-0.085
-0.095
-0.125
-0.095
-0.035
-0.12
-0.135
-0.105
-0.085
-0.06
-0.115
-0.09
-0.085
-0.06
-0.07
-0.08
-0.075
-0.095
-0.23
-0.18
-0.2
-0.175
-0.21
-0.185
-0.09
-0.01
0.045
0.09
0.27
0.315
0.44
0.565
0.645
0.71
0.795
0.76
0.805
0.775
0.68
0.375
0.13
-0.055
-0.18
-0.345
-0.52
-0.64
-0.84
-0.895
-0.805
-0.71
-0.635
-0.52
-0.36
-0.35
-0.29
-0.23
-0.21
-0.175
-0.15
-0.205
-0.2
-0.175
-0.11
-0.165
-0.135
-0.085
-0.125
-0.14
-0.16
-0.135
-0.105
-0.1
-0.135
-0.11
-0.095
-0.09
-0.08
-0.11
-0.085
-0.035
-0.07
-0.04
-0.015
-0.065
-0.065
-0.08
-0.095
-0.11
-0.12
-0.11
-0.005
0.015
-0.06
-0.085
-0.06
-0.06
-0.015
0.01
-0.05
-0.1
-0.055
-0.065
-0.065
-0.13
-0.115
-0.08
-0.1
-0.03
-0.015
0.01
0.065
-0.015
0.015
-0.025
-0.01
0.015
0.065
0.07
0.095
0.085
0.17
0.17
0.13
0.09
0.12
0.095
0.15
0.255
0.24
0.28
0.27
0.285
0.255
0.33
0.315
0.295
0.315
0.35
0.31
0.29
0.385
0.335
0.345
0.425
0.405
0.35
0.38
0.315
0.325
0.32
0.295
0.235
0.27
0.305
0.255
0.28
0.315
0.275
0.245
0.235
0.2
0.165
0.12
0.055
0.055
0.08
0.06
0.065
0.035
-0.04
-0.095
-0.085
-0.045
-0.035
-0.06
-0.055
-0.085
-0.09
-0.075
-0.03
-0.025
-0.07
-0.12
-0.165
-0.145
-0.16
-0.12
-0.08
-0.065
-0.175
-0.19
-0.105
-0.14
-0.135
-0.135
-0.205
-0.215
-0.085
-0.055
-0.135
-0.065
-0.07
-0.075
-0.2
-0.17
-0.125
-0.12
-0.055
-0.095
-0.125
-0.1
-0.06
-0.03
-0.125
-0.13
-0.15
-0.065
-0.02
-0.07
-0.125
-0.09
-0.115
-0.105
-0.11
-0.11
-0.085
-0.125
-0.09
-0.075
-0.125
-0.185
-0.13
-0.125
-0.14
-0.085
-0.08
-0.1
-0.055
-0.08
-0.075
-0.13
-0.11
-0.11
-0.14
-0.11
-0.085
-0.1
-0.165
-0.11
-0.125
-0.15
-0.13
-0.105
-0.06
-0.06
-0.125
-0.165
-0.1
-0.085
-0.11
-0.11
-0.115
-0.14
-0.125
-0.13
-0.165
-0.13
-0.135
-0.17
-0.255
-0.16
-0.18
-0.095
-0.15
-0.105
-0.095
-0.155
-0.1
-0.12
-0.15
-0.115
-0.15
-0.16
-0.105
-0.09
-0.075
-0.175
-0.19
-0.175
-0.18
-0.135
-0.13
-0.135
-0.14
-0.145
-0.1
-0.225
-0.12
-0.07
-0.155
-0.125
-0.105
-0.075
-0.105
-0.165
-0.25
-0.23
-0.215
-0.09
-0.085
-0.1
-0.105
-0.125
-0.135
-0.14
-0.13
-0.14
-0.135
-0.19
-0.205
-0.105
-0.075
-0.015
-0.06
-0.065
-0.07
-0.1
-0.055
-0.1
-0.13
-0.1
-0.145
-0.12
-0.15
-0.13
-0.19
-0.16
-0.22
-0.24
-0.165
-0.15
-0.175
-0.19
-0.195
-0.205
-0.195
-0.185
-0.21
-0.17
-0.135
-0.185
-0.185
-0.23
-0.19
-0.205
-0.19
-0.18
-0.13
-0.17
-0.115
-0.13
-0.215
-0.19
-0.21
-0.195
-0.23
-0.245
-0.21
-0.195
-0.15
-0.055
-0.14
-0.12
-0.03
0.02
0.165
0.265
0.305
0.45
0.5
0.55
0.53
0.505
0.485
0.385
0.08
-0.145
-0.3
-0.37
-0.465
-0.665
-0.775
-0.845
-0.91
-0.845
-0.77
-0.7
-0.665
-0.555
-0.585
-0.535
-0.46
-0.415
-0.36
-0.275
-0.24
-0.215
-0.24
-0.23
-0.235
-0.21
-0.26
-0.19
-0.21
-0.23
-0.235
-0.21
-0.2
-0.215
-0.22
-0.225
-0.17
-0.16
-0.16
-0.215
-0.255
-0.27
-0.295
-0.25
-0.205
-0.145
-0.155
-0.23
-0.2
-0.13
-0.125
-0.16
-0.13
-0.145
-0.21
-0.24
-0.225
-0.18
-0.225
-0.22
-0.235
-0.21
-0.16
-0.15
-0.135
-0.11
-0.205
-0.235
-0.185
-0.235
-0.225
-0.2
-0.18
-0.105
-0.125
-0.185
-0.16
-0.155
-0.155
-0.135
-0.125
-0.095
-0.14
-0.145
-0.14
-0.09
-0.055
-0.01
0.025
0.015
0.035
0.085
0.06
-0.005
0.045
0.05
0.06
0.15
0.155
0.15
0.175
0.135
0.105
0.175
0.19
0.145
0.165
0.04
0.07
0.06
0.085
0.16
0.16
0.1
0.055
-0.015
-0.025
0.005
0.03
-0.025
-0.03
-0.055
-0.1
-0.125
-0.155
-0.18
-0.225
-0.25
-0.25
-0.28
-0.285
-0.25
-0.235
-0.275
-0.285
-0.31
-0.33
-0.34
-0.295
-0.31
-0.31
-0.34
-0.385
-0.37
-0.4
-0.41
-0.41
-0.48
-0.44
-0.405
-0.37
-0.435
-0.395
-0.38
-0.335
-0.395
-0.37
-0.355
-0.415
-0.4
-0.37
-0.345
-0.39
-0.415
-0.415
-0.41
-0.405
-0.37
-0.37
-0.415
-0.415
-0.405
-0.395
-0.435
-0.435
-0.415
-0.34
-0.365
-0.38
-0.445
-0.4
-0.36
-0.395
-0.39
-0.41
-0.425
-0.425
-0.345
-0.35
-0.415
-0.48
-0.445
-0.395
-0.37
-0.435
-0.355
-0.395
-0.46
-0.44
-0.42
-0.405
-0.42
-0.405
-0.4
-0.33
-0.38
-0.445
-0.44
-0.415
-0.435
-0.355
-0.33
-0.355
-0.385
-0.385
-0.43
-0.375
-0.35
-0.37
-0.41
-0.445
-0.425
-0.435
-0.435
-0.395
-0.37
-0.39
-0.385
-0.405
-0.43
-0.39
-0.36
-0.425
-0.455
-0.415
-0.44
-0.465
-0.44
-0.43
-0.405
-0.465
-0.475
-0.435
-0.375
-0.37
-0.36
-0.375
-0.365
-0.355
-0.475
-0.41
-0.375
-0.365
-0.37
-0.34
-0.405
-0.405
-0.465
-0.465
-0.335
-0.34
-0.37
-0.345
-0.32
-0.325
-0.295
-0.34
-0.315
-0.34
-0.335
-0.295
-0.34
-0.345
-0.37
-0.365
-0.405
-0.42
-0.465
-0.485
-0.48
-0.455
-0.46
-0.44
-0.45
-0.355
-0.39
-0.395
-0.42
-0.42
-0.395
-0.435
-0.425
-0.43
-0.435
-0.425
-0.415
-0.435
-0.41
-0.38
-0.39
-0.445
-0.455
-0.455
-0.44
-0.445
-0.445
-0.43
-0.46
-0.485
-0.455
-0.405
-0.36
-0.335
-0.325
-0.27
-0.18
-0.045
0.085
0.24
0.285
0.29
0.33
0.27
0.235
0.325
0.26
-0.085
-0.285
-0.48
-0.55
-0.635
-0.805
-0.955
-1.115
-1.11
-1.01
-0.895
-0.815
-0.785
-0.75
-0.695
-0.675
-0.675
-0.6
-0.525
-0.425
-0.38
-0.355
-0.43
-0.44
-0.43
-0.455
-0.395
-0.415
-0.42
-0.395
-0.385
-0.4
-0.37
-0.375
-0.395
-0.41
-0.36
-0.38
-0.38
-0.4
-0.345
-0.375
-0.565
-0.45
-0.275
-0.325
-0.4
-0.39
-0.405
-0.36
-0.34
-0.35
-0.28
-0.36
-0.34
-0.335
-0.35
-0.335
-0.365
-0.415
-0.38
-0.32
-0.305
-0.33
-0.315
-0.305
-0.28
-0.31
-0.305
-0.31
-0.265
-0.31
-0.32
-0.28
-0.265
-0.285
-0.3
-0.31
-0.23
-0.185
-0.315
-0.245
-0.19
-0.185
-0.175
-0.165
-0.115
0.015
-0.075
-0.055
-0.055
-0.04
-0.08
-0.085
-0.015
-0.045
-0.045
-0.02
0.03
0.03
0.03
0.045
0.05
0.065
0.06
0.045
0.1
0.09
0.015
-0.02
-0.02
0.03
0.0
-0.04
-0.075
-0.095
-0.09
-0.115
-0.1
-0.145
-0.155
-0.18
-0.25
-0.23
-0.255
-0.3
-0.32
-0.345
-0.38
-0.41
-0.375
-0.315
-0.32
-0.32
-0.34
-0.37
-0.455
-0.405
-0.435
-0.41
-0.435
-0.415
-0.32
-0.415
-0.465
-0.45
-0.43
-0.525
-0.545
-0.44
-0.39
-0.425
-0.415
-0.4
-0.465
-0.475
-0.465
-0.485
-0.48
-0.48
-0.505
-0.475
-0.455
-0.43
-0.435
-0.54
-0.52
-0.5
-0.535
-0.525
-0.4
-0.44
-0.5
-0.485
-0.47
-0.46
-0.48
-0.485
-0.39
-0.43
-0.495
-0.54
-0.495
-0.495
-0.46
-0.425
-0.445
-0.37
-0.37
-0.46
-0.52
-0.53
-0.47
-0.475
-0.49
-0.495
-0.51
-0.49
-0.44
-0.415
-0.47
-0.48
-0.495
-0.465
-0.485
-0.47
-0.485
-0.465
-0.49
-0.51
-0.5
-0.515
-0.515
-0.47
-0.515
-0.495
-0.5
-0.53
-0.535
-0.485
-0.49
-0.525
-0.545
-0.49
-0.445
-0.385
-0.4
-0.47
-0.5
-0.56
-0.505
-0.475
-0.45
-0.52
-0.415
-0.46
-0.49
-0.465
-0.525
-0.48
-0.5
-0.5
-0.455
-0.44
-0.48
-0.465
-0.555
-0.51
-0.505
-0.505
-0.515
-0.5
-0.495
-0.49
-0.545
-0.535
-0.535
-0.555
-0.625
-0.59
-0.54
-0.495
-0.52
-0.54
-0.58
-0.605
-0.635
-0.685
-0.73
-0.65
-0.73
-0.715
-0.62
-0.69
-0.665
-0.605
-0.675
-0.72
-0.69
-0.71
-0.735
-0.665
-0.745
-0.725
-0.74
-0.785
-0.805
-0.865
-0.76
-0.765
-0.91
-0.845
-0.875
-0.86
-0.935
-0.9
-0.87
-0.805
-0.835
-0.865
-0.81
-0.82
-0.77
-0.67
-0.52
-0.42
-0.37
-0.415
-0.35
-0.355
-0.33
-0.34
-0.4
-0.465
-0.76
-0.945
-1.105
-1.22
-1.33
-1.41
-1.585
-1.7
-1.725
-1.76
-1.595
-1.54
-1.53
-1.45
-1.49
-1.445
-1.335
-1.34
-1.29
-1.26
-1.21
-1.22
-1.195
-1.21
-1.215
-1.18
-1.16
-1.13
-1.215
-1.17
-1.22
-1.225
-1.215
-1.135
-1.2
-1.21
-1.235
-1.235
-1.235
-1.22
-1.185
-1.195
-1.28
-1.22
-1.285
-1.255
-1.25
-1.225
-1.205
-1.235
-1.25
-1.24
-1.235
-1.24
-1.27
-1.26
-1.255
-1.205
-1.26
-1.335
-1.24
-1.15
-1.195
-1.26
-1.31
-1.26
-1.255
-1.275
-1.235
-1.265
-1.225
-1.275
-1.3
-1.245
-1.21
-1.145
-1.14
-1.155
-1.255
-1.235
-1.215
-1.22
-1.16
-1.135
-1.145
-1.175
-1.195
-1.155
-1.125
-1.095
-1.1
-1.12
-1.095
-1.1
-1.045
-1.035
-1.05
-1.035
-1.07
-1.055
-1.025
-0.99
-0.985
-0.965
-1.085
-1.1
-1.08
-1.07
-1.1
-1.065
-1.095
-1.095
-1.155
-1.15
-1.145
-1.17
-1.19
-1.265
-1.285
-1.255
-1.255
-1.32
-1.37
-1.4
-1.41
-1.4
-1.495
-1.5
-1.575
-1.56
-1.57
-1.63
-1.655
-1.57
-1.61
-1.64
-1.665
-1.67
-1.6
-1.635
-1.685
-1.72
-1.71
-1.675
-1.705
-1.65
-1.795
-1.83
-1.82
-1.785
-1.77
-1.765
-1.785
-1.79
-1.78
-1.775
-1.79
-1.845
-1.875
-1.835
-1.78
-1.825
-1.765
-1.81
-1.89
-1.915
-1.895
-1.83
-1.825
-1.835
-1.825
-1.98
-1.995
-1.935
-1.93
-1.825
-1.89
-1.935
-1.91
-1.895
-1.95
-1.96
-1.915
-1.945
-1.985
-1.98
-1.94
-1.93
-1.925
-2.015
-2.01
-2.0
-2.03
-2.01
-2.015
-2.04
-2.025
-2.06
-2.05
-2.04
-2.05
-2.07
-2.105
-2.095
-2.09
-2.07
-2.05
-2.1
-2.145
-2.15
-2.205
-2.175
-2.17
-2.165
-2.175
-2.165
-2.2
-2.12
-2.12
-2.17
-2.13
-2.215
-2.195
-2.215
-2.19
-2.22
-2.195
-2.175
-2.24
-2.3
-2.24
-2.285
-2.265
-2.245
-2.32
-2.22
-2.155
-2.21
-2.275
-2.285
-2.295
-2.295
-2.295
-2.31
-2.35
-2.36
-2.31
-2.26
-2.255
-2.32
-2.39
-2.38
-2.325
-2.35
-2.345
-2.3
-2.28
-2.33
-2.345
-2.315
-2.33
-2.38
-2.395
-2.395
-2.435
-2.435
-2.455
-2.45
-2.455
-2.435
-2.445
-2.455
-2.465
-2.42
-2.43
-2.395
-2.38
-2.355
-2.29
-2.23
-2.2
-2.155
-2.13
-2.025
-1.93
-1.925
-1.885
-1.9
-1.85
-1.85
-1.67
-1.685
-1.635
-1.61
-1.57
-1.575
-1.54
-1.505
-1.48
-1.455
-1.375
-1.295
-1.245
-1.195
-1.085
-0.96
-0.88
-0.76
-0.64
-0.565
-0.49
-0.415
-0.43
-0.415
-0.375
-0.38
-0.615
-0.895
-1.085
-1.165
-1.2
-1.365
-1.55
-1.655
-1.67
-1.55
-1.45
-1.395
-1.275
-1.22
-1.14
-1.015
-1.01
-0.995
-1.01
-0.955
-0.855
-0.835
-0.76
-0.85
-0.785
-0.745
-0.755
-0.785
-0.755
-0.69
-0.68
-0.66
-0.665
-0.68
-0.67
-0.68
-0.675
-0.62
-0.635
-0.645
-0.57
-0.57
-0.57
-0.55
-0.515
-0.54
-0.545
-0.575
-0.55
-0.515
-0.47
-0.425
-0.43
-0.46
-0.435
-0.47
-0.44
-0.38
-0.37
-0.405
-0.46
-0.505
-0.46
-0.435
-0.405
-0.41
-0.39
-0.33
-0.24
-0.22
-0.25
-0.265
-0.27
-0.235
-0.265
-0.265
-0.275
-0.23
-0.24
-0.15
-0.135
-0.195
0.07
0.07
0.09
0.145
0.155
0.15
0.14
0.12
0.155
0.175
0.205
0.225
0.21
0.155
0.185
0.175
0.225
0.16
0.11
0.165
0.195
0.235
0.205
0.135
0.155
0.14
0.095
0.04
0.07
0.045
0.035
0.04
0.035
0.01
-0.01
0.005
-0.015
-0.025
-0.005
-0.13
-0.065
-0.1
-0.08
-0.02
-0.075
-0.085
-0.075
-0.095
-0.1
0.01
-0.01
-0.025
-0.065
-0.065
-0.025
0.01
-0.03
-0.18
-0.095
-0.05
-0.08
0.02
-0.01
-0.045
-0.075
-0.075
-0.055
-0.025
-0.055
-0.065
-0.07
-0.05
-0.03
-0.01
0.025
-0.055
-0.05
-0.03
0.025
-0.035
-0.03
0.05
0.045
0.05
-0.045
-0.05
-0.015
0.025
0.035
0.07
0.035
0.025
0.035
0.05
-0.005
0.02
0.065
-0.01
-0.01
0.045
0.09
-0.01
0.05
-0.01
0.02
0.09
0.12
0.1
0.085
0.115
0.075
0.05
0.12
0.085
0.055
0.075
0.1
0.08
0.09
0.07
0.065
0.075
0.1
0.08
0.065
0.04
0.08
0.105
0.085
0.09
0.09
0.16
0.11
0.1
0.115
0.135
0.135
0.105
0.125
0.12
0.11
0.1
0.095
0.105
0.09
0.11
0.145
0.19
0.165
0.16
0.095
0.08
0.125
0.13
0.12
0.14
0.175
0.115
0.145
0.18
0.185
0.17
0.21
0.265
0.22
0.25
0.225
0.23
0.175
0.165
0.18
0.21
0.24
0.175
0.14
0.065
0.09
0.13
0.13
0.105
0.06
0.095
0.145
0.15
0.15
0.19
0.19
0.09
0.02
0.1
0.155
0.17
0.145
0.16
0.155
0.15
0.165
0.13
0.145
0.18
0.11
0.13
0.12
0.105
0.14
0.135
0.135
0.06
0.095
0.115
0.1
0.125
0.225
0.23
0.26
0.37
0.455
0.53
0.645
0.745
0.89
0.995
1.06
0.955
0.98
0.925
0.81
0.46
0.245
0.08
0.025
-0.04
-0.195
-0.42
-0.505
-0.58
-0.48
-0.315
-0.26
-0.11
-0.105
-0.025
-0.005
0.035
0.09
0.16
0.14
0.095
0.125
0.12
0.105
0.155
0.18
0.125
0.15
0.16
0.17
0.175
0.2
0.165
0.195
0.19
0.18
0.17
0.22
0.245
0.265
0.275
0.225
0.195
0.25
0.265
0.225
0.235
0.17
0.25
0.27
0.22
0.22
0.255
0.21
0.185
0.21
0.285
0.29
0.31
0.315
0.275
0.265
0.28
0.27
0.295
0.29
0.265
0.25
0.255
0.315
0.315
0.295
0.33
0.365
0.365
0.39
0.375
0.4
0.43
0.43
0.39
0.455
0.44
0.45
0.485
0.51
0.53
0.585
0.475
0.475
0.49
0.54
0.55
0.62
0.66
0.68
0.685
0.74
0.69
0.64
0.68
0.7
0.68
0.68
0.715
0.685
0.68
0.64
0.655
0.645
0.63
0.67
0.61
0.595
0.595
0.59
0.51
0.55
0.575
0.525
0.5
0.53
0.405
0.39
0.39
0.33
0.305
0.37
0.395
0.32
0.34
0.36
0.27
0.28
0.31
0.285
0.27
0.25
0.27
0.285
0.255
0.22
0.185
0.245
0.27
0.155
0.175
0.24
0.225
0.255
0.26
0.285
0.24
0.21
0.21
0.215
0.24
0.215
0.195
0.175
0.18
0.22
0.255
0.235
0.22
0.2
0.265
0.275
0.215
0.23
0.255
0.21
0.215
0.185
0.21
0.26
0.3
0.285
0.235
0.265
0.26
0.265
0.225
0.185
0.2
0.165
0.205
0.175
0.195
0.265
0.27
0.275
0.255
0.205
0.22
0.215
0.225
0.25
0.225
0.21
0.255
0.26
0.29
0.215
0.22
0.225
0.22
0.22
0.225
0.26
0.225
0.23
0.245
0.215
0.225
0.19
0.15
0.165
0.145
0.205
0.295
0.245
0.225
0.275
0.245
0.235
0.195
0.205
0.215
0.24
0.26
0.26
0.2
0.095
0.145
0.3
0.335
0.27
0.25
0.275
0.31
0.34
0.31
0.36
0.325
0.305
0.255
0.235
0.18
0.23
0.175
0.195
0.16
0.195
0.215
0.22
0.225
0.21
0.185
0.23
0.205
0.165
0.17
0.22
0.18
0.19
0.2
0.195
0.18
0.165
0.225
0.09
0.22
0.16
0.175
0.14
0.145
0.225
0.215
0.195
0.225
0.215
0.135
0.16
0.25
0.225
0.14
0.18
0.135
0.19
0.225
0.185
0.33
0.42
0.465
0.605
0.69
0.76
0.86
0.94
0.975
0.955
0.905
0.965
0.79
0.44
0.24
0.115
0.015
-0.115
-0.185
-0.375
-0.5
-0.47
-0.51
-0.4
-0.29
-0.19
-0.04
0.0
0.065
-0.01
0.05
0.115
0.13
0.15
0.165
0.195
0.145
0.175
0.195
0.15
0.23
0.235
0.19
0.21
0.185
0.24
0.22
0.275
0.225
0.225
0.32
0.365
0.32
0.2
0.17
0.165
0.195
0.265
0.265
0.275
0.335
0.35
0.325
0.28
0.285
0.325
0.21
0.265
0.265
0.295
0.31
0.33
0.335
0.345
0.34
0.245
0.27
0.31
0.335
0.365
0.365
0.345
0.32
0.36
0.375
0.33
0.375
0.365
0.42
0.41
0.41
0.415
0.405
0.435
0.525
0.495
0.515
0.515
0.485
0.57
0.605
0.605
0.61
0.6
0.635
0.705
0.72
0.655
0.615
0.615
0.675
0.67
0.695
0.75
0.765
0.76
0.715
0.69
0.73
0.675
0.725
0.715
0.69
0.66
0.675
0.665
0.66
0.615
0.625
0.605
0.57
0.54
0.535
0.55
0.49
0.48
0.5
0.435
0.405
0.39
0.385
0.395
0.35
0.395
0.355
0.345
0.345
0.285
0.315
0.275
0.31
0.305
0.28
0.205
0.19
0.255
0.26
0.25
0.27
0.25
0.21
0.205
0.21
0.3
0.305
0.295
0.325
0.27
0.195
0.19
0.2
0.245
0.25
0.285
0.27
0.275
0.26
0.265
0.265
0.24
0.265
0.23
0.265
0.295
0.24
0.265
0.23
0.24
0.24
0.28
0.255
0.215
0.2
0.29
0.27
0.235
0.26
0.27
0.24
0.255
0.275
0.28
0.265
0.24
0.225
0.225
0.245
0.235
0.24
0.165
0.215
0.255
0.26
0.245
0.285
0.225
0.265
0.285
0.23
0.185
0.25
0.28
0.33
0.315
0.195
0.21
0.31
0.35
0.255
0.13
0.205
0.225
0.21
0.23
0.24
0.215
0.225
0.27
0.24
0.205
0.175
0.225
0.22
0.23
0.195
0.205
0.25
0.265
0.19
0.265
0.28
0.235
0.215
0.21
0.205
0.25
0.225
0.255
0.255
0.27
0.23
0.245
0.215
0.215
0.21
0.22
0.25
0.265
0.195
0.225
0.265
0.255
0.24
0.215
0.18
0.185
0.215
0.29
0.28
0.285
0.28
0.25
0.3
0.285
0.26
0.29
0.335
0.315
0.28
0.265
0.255
0.3
0.28
0.24
0.245
0.23
0.265
0.235
0.225
0.205
0.215
0.2
0.175
0.185
0.24
0.23
0.265
0.18
0.145
0.225
0.195
0.145
0.185
0.155
0.19
0.195
0.19
0.225
0.155
0.15
0.145
0.22
0.2
0.185
0.2
0.2
0.23
0.165
0.17
0.11
0.085
0.18
0.16
0.185
0.25
0.29
0.3
0.445
0.56
0.66
0.675
0.785
0.87
0.97
0.94
0.935
1.02
0.995
0.93
0.565
0.26
0.085
0.03
-0.06
-0.21
-0.37
-0.435
-0.545
-0.51
-0.395
-0.27
-0.18
-0.12
-0.08
0.025
-0.005
0.08
0.07
0.165
0.205
0.185
0.145
0.2
0.155
0.205
0.175
0.165
0.15
0.165
0.215
0.215
0.18
0.235
0.24
0.18
0.21
0.275
0.26
0.21
0.19
0.165
0.16
0.2
0.24
0.215
0.26
0.25
0.195
0.235
0.275
0.19
0.175
0.255
0.295
0.3
0.29
0.275
0.21
0.215
0.24
0.26
0.245
0.225
0.22
0.22
0.275
0.24
0.26
0.325
0.365
0.33
0.38
0.35
0.355
0.305
0.3
0.375
0.35
0.335
0.37
0.38
0.415
0.41
0.39
0.43
0.42
0.44
0.495
0.555
0.55
0.525
0.55
0.55
0.58
0.585
0.605
0.595
0.635
0.61
0.6
0.59
0.66
0.66
0.615
0.61
0.65
0.575
0.64
0.66
0.655
0.645
0.61
0.585
0.54
0.59
0.53
0.465
0.47
0.545
0.515
0.515
0.46
0.41
0.365
0.375
0.315
0.29
0.355
0.35
0.32
0.365
0.34
0.3
0.225
0.235
0.26
0.25
0.22
0.245
0.225
0.215
0.24
0.26
0.225
0.21
0.19
0.175
0.18
0.125
0.11
0.18
0.22
0.185
0.255
0.235
0.285
0.21
0.24
0.11
0.195
0.195
0.215
0.235
0.23
0.2
0.2
0.22
0.22
0.245
0.23
0.155
0.21
0.22
0.125
0.18
0.175
0.195
0.25
0.245
0.245
0.16
0.145
0.17
0.19
0.2
0.165
0.205
0.205
0.185
0.205
0.19
0.245
0.215
0.145
0.19
0.17
0.195
0.165
0.12
0.165
0.13
0.18
0.235
0.24
0.185
0.135
0.13
0.04
0.19
0.225
0.215
0.135
0.19
0.2
0.2
0.17
0.175
0.2
0.215
0.175
0.185
0.195
0.165
0.16
0.165
0.17
0.15
0.17
0.17
0.185
0.16
0.17
0.265
0.2
0.15
0.16
0.155
0.155
0.22
0.13
0.195
0.18
0.2
0.21
0.19
0.195
0.19
0.165
0.11
0.11
0.13
0.19
0.195
0.205
0.26
0.18
0.145
0.19
0.145
0.15
0.17
0.16
0.165
0.18
0.175
0.19
0.135
0.14
0.21
0.165
0.17
0.195
0.23
0.235
0.185
0.14
0.215
0.255
0.2
0.18
0.26
0.29
0.26
0.21
0.215
0.225
0.305
0.22
0.215
0.225
0.26
0.205
0.2
0.13
0.13
0.165
0.185
0.16
0.125
0.14
0.175
0.165
0.145
0.16
0.195
0.225
0.185
0.155
0.16
0.185
0.135
0.135
0.165
0.19
0.17
0.155
0.145
0.155
0.18
0.17
0.19
0.13
0.16
0.075
0.08
0.08
0.095
0.11
0.195
0.25
0.23
0.255
0.285
0.43
0.64
0.73
0.77
0.84
0.915
0.965
0.915
0.91
0.92
0.89
0.63
0.335
0.2
0.035
0.01
-0.12
-0.27
-0.46
-0.54
-0.525
-0.48
-0.355
-0.265
-0.185
-0.12
-0.155
-0.09
-0.03
0.06
0.115
0.165
0.155
0.105
0.075
0.11
0.135
0.185
0.215
0.185
0.145
0.165
0.135
0.17
0.2
0.15
0.17
0.195
0.215
0.25
0.235
0.22
0.195
0.11
0.195
0.24
0.19
0.2
0.2
0.18
0.185
0.175
0.175
0.27
0.295
0.225
0.14
0.165
0.175
0.26
0.245
0.235
0.245
0.255
0.19
0.2
0.225
0.31
0.29
0.3
0.275
0.325
0.245
0.32
0.295
0.3
0.3
0.305
0.325
0.3
0.375
0.365
0.355
0.425
0.445
0.43
0.46
0.455
0.48
0.475
0.49
0.465
0.45
0.5
0.48
0.565
0.57
0.57
0.63
0.65
0.605
0.62
0.63
0.625
0.655
0.625
0.645
0.63
0.53
0.55
0.605
0.66
0.605
0.61
0.62
0.55
0.525
0.49
0.53
0.52
0.46
0.43
0.395
0.415
0.405
0.375
0.425
0.37
0.28
0.335
0.385
0.27
0.225
0.205
0.18
0.245
0.245
0.24
0.2
0.15
0.145
0.175
0.2
0.245
0.265
0.195
0.095
0.145
0.165
0.225
0.255
0.195
0.16
0.135
0.13
0.135
0.145
0.15
0.15
0.17
0.16
0.14
0.195
0.185
0.22
0.085
0.115
0.135
0.165
0.145
0.085
0.11
0.125
0.14
0.195
0.15
0.125
0.14
0.2
0.18
0.12
0.105
0.12
0.12
0.12
0.18
0.15
0.12
0.12
0.09
0.055
0.165
0.185
0.22
0.195
0.175
0.175
0.17
0.13
0.125
0.105
0.12
0.095
0.17
0.14
0.17
0.155
0.095
0.105
0.175
0.135
0.13
0.125
0.12
0.135
0.13
0.1
0.125
0.105
0.125
0.13
0.12
0.14
0.115
0.04
0.12
0.085
0.095
0.095
0.1
0.1
0.1
0.07
0.085
0.185
0.125
0.09
0.16
0.11
0.1
0.14
0.12
0.125
0.16
0.1
0.08
0.055
0.14
0.13
0.12
0.155
0.16
0.115
0.13
0.105
0.065
0.05
0.045
0.085
0.12
0.14
0.135
0.105
0.09
0.06
0.085
0.105
0.12
0.175
0.165
0.12
0.13
0.12
0.085
0.105
0.175
0.165
0.2
0.2
0.24
0.16
0.16
0.12
0.055
0.14
0.17
0.145
0.14
0.21
0.125
0.08
0.095
0.09
0.1
0.095
0.13
0.065
0.12
0.08
0.075
0.035
0.0
0.005
0.075
0.135
0.13
0.1
0.085
0.1
0.095
0.06
0.02
0.075
0.085
0.095
0.1
0.08
0.08
0.075
0.035
0.06
0.055
0.075
0.065
0.03
0.055
0.09
0.17
0.235
0.25
0.27
0.34
0.435
0.56
0.635
0.79
0.84
0.93
0.885
0.825
0.82
0.685
0.385
0.22
0.11
-0.02
-0.13
-0.305
-0.485
-0.615
-0.66
-0.575
-0.45
-0.415
-0.345
-0.29
-0.235
-0.12
-0.055
-0.065
-0.045
0.04
0.055
0.04
0.06
0.06
0.07
0.12
0.085
0.045
0.105
0.085
0.055
0.045
0.03
0.12
0.115
0.13
0.1
0.065
0.135
0.1
0.095
0.175
0.15
0.11
0.1
0.055
0.08
0.22
0.19
0.12
0.115
0.15
0.22
0.145
0.14
0.15
0.105
0.1
0.155
0.155
0.165
0.18
0.24
0.21
0.15
0.175
0.15
0.17
0.175
0.225
0.215
0.205
0.185
0.16
0.155
0.22
0.275
0.285
0.26
0.24
0.305
0.37
0.305
0.325
0.375
0.365
0.37
0.34
0.37
0.41
0.495
0.435
0.405
0.495
0.51
0.52
0.51
0.555
0.535
0.53
0.505
0.565
0.61
0.55
0.6
0.6
0.55
0.515
0.545
0.535
0.51
0.535
0.525
0.5
0.52
0.465
0.485
0.475
0.385
0.37
0.39
0.305
0.3
0.32
0.29
0.29
0.36
0.29
0.245
0.205
0.215
0.22
0.195
0.145
0.185
0.195
0.135
0.165
0.16
0.13
0.12
0.145
0.15
0.11
0.085
0.075
0.075
0.07
0.125
0.115
0.165
0.115
0.095
0.055
0.08
0.165
0.035
0.07
0.065
0.05
0.045
0.095
0.19
0.105
0.095
0.09
0.105
0.115
0.095
0.125
0.105
0.09
0.065
0.045
0.035
0.065
0.08
0.085
0.09
0.1
0.135
0.11
0.055
0.065
0.11
0.14
0.125
0.11
0.11
0.1
0.105
0.135
0.165
0.1
0.06
0.065
0.05
0.08
0.025
0.095
0.08
0.105
0.1
0.135
0.09
0.09
0.01
0.06
0.115
0.06
0.065
0.055
0.105
0.13
0.145
0.115
0.14
0.085
0.055
0.07
0.07
-0.01
0.01
0.015
0.01
0.045
0.125
0.125
0.095
0.05
0.07
0.06
0.085
0.09
0.07
0.055
0.075
0.09
0.11
0.095
0.05
0.01
0.1
0.125
-0.01
0.0
-0.005
0.05
0.065
0.06
0.12
0.115
0.07
0.05
0.04
0.05
0.015
0.0
0.015
0.05
0.07
0.025
0.045
0.025
0.095
0.04
0.06
0.07
0.05
0.015
0.03
0.02
0.055
0.11
0.125
0.11
0.055
0.09
0.085
0.11
0.115
0.185
0.135
0.17
0.08
0.07
0.005
0.055
0.085
0.06
0.04
0.135
0.175
0.185
0.08
0.065
0.075
0.07
0.06
0.045
0.03
0.025
0.025
0.015
0.0
-0.01
0.05
0.11
0.1
0.055
0.045
0.01
-0.005
0.0
-0.015
0.065
0.045
0.005
-0.015
0.005
0.0
0.05
0.075
0.08
0.065
0.005
0.085
0.065
0.04
0.015
0.025
0.025
0.0
0.075
0.14
0.035
0.065
0.07
0.08
0.17
0.255
0.47
0.59
0.64
0.7
0.755
0.75
0.745
0.74
0.79
0.535
0.27
0.14
-0.055
-0.165
-0.255
-0.395
-0.575
-0.635
-0.625
-0.55
-0.52
-0.4
-0.335
-0.285
-0.245
-0.14
-0.135
-0.18
-0.115
-0.085
-0.015
0.08
0.075
0.07
0.04
0.005
-0.03
-0.03
0.015
0.055
0.08
0.115
0.07
-0.035
0.015
0.035
0.045
0.085
0.07
0.1
0.065
0.05
0.085
0.07
0.09
0.075
0.1
0.045
0.08
0.12
0.05
0.035
0.06
0.115
0.11
0.055
0.05
0.15
0.1
0.15
0.11
0.085
0.125
0.155
0.21
0.11
0.115
0.09
0.085
0.145
0.16
0.18
0.185
0.135
0.17
0.215
0.21
0.205
0.19
0.175
0.2
0.23
0.3
0.305
0.32
0.305
0.29
0.32
0.345
0.395
0.41
0.39
0.445
0.41
0.395
0.45
0.465
0.485
0.47
0.475
0.495
0.515
0.495
0.49
0.53
0.54
0.45
0.44
0.43
0.475
0.485
0.5
0.49
0.485
0.46
0.425
0.41
0.365
0.365
0.35
0.29
0.26
0.325
0.265
0.27
0.22
0.215
0.205
0.245
0.19
0.14
0.135
0.15
0.09
0.055
0.105
0.095
0.04
0.01
0.07
0.145
0.025
0.015
0.02
0.02
0.06
0.115
0.085
0.005
-0.015
-0.05
0.055
0.0
-0.025
0.045
0.06
0.035
0.01
-0.075
-0.05
0.005
-0.04
-0.005
0.01
-0.065
-0.02
-0.01
0.015
0.095
0.065
0.05
0.035
0.065
-0.025
-0.07
-0.04
0.035
0.055
0.03
0.0
-0.01
-0.005
-0.06
-0.07
-0.01
0.075
0.03
-0.015
-0.04
0.025
-0.04
-0.015
-0.07
0.005
0.025
-0.03
-0.03
-0.01
0.005
-0.11
-0.07
0.03
0.005
-0.01
0.005
0.005
-0.015
0.075
0.02
-0.05
-0.05
0.025
0.095
0.08
-0.06
0.02
0.0
-0.08
-0.065
-0.005
0.0
0.01
0.005
0.0
-0.01
-0.135
-0.125
0.055
0.145
0.09
0.005
0.02
0.05
0.06
0.055
0.075
-0.02
-0.06
-0.005
-0.04
-0.025
-0.04
0.03
0.065
0.13
0.185
-0.015
-0.095
-0.085
-0.015
0.03
-0.03
-0.075
-0.15
-0.055
0.07
0.035
0.125
0.1
-0.005
0.065
0.29
0.21
0.16
0.18
0.155
0.155
0.19
0.18
0.21
0.165
0.18
0.19
0.15
0.1
0.075
0.125
0.11
0.17
0.13
0.175
0.12
0.075
0.165
0.195
0.16
0.115
0.065
0.05
0.09
0.06
0.08
0.08
0.185
0.19
0.21
0.17
0.075
0.06
0.085
0.135
0.105
0.165
0.17
0.08
0.06
-0.005
0.015
-0.005
0.065
0.03
0.12
0.09
0.015
-0.005
-0.025
0.07
-0.055
0.07
0.09
0.02
0.005
0.075
0.105
0.17
0.225
0.27
0.36
0.465
0.52
0.535
0.53
0.54
0.5
0.355
0.1
-0.01
-0.09
-0.12
-0.17
-0.235
-0.42
-0.65
-0.635
-0.575
-0.505
-0.385
-0.32
-0.38
-0.34
-0.215
-0.23
-0.115
-0.145
-0.18
-0.16
-0.045
-0.01
-0.07
-0.08
-0.07
-0.035
-0.105
-0.06
-0.035
-0.11
-0.085
-0.01
-0.025
-0.03
-0.05
-0.06
-0.06
0.02
0.025
0.005
0.02
-0.005
-0.045
-0.165
-0.09
-0.095
-0.08
0.01
0.03
0.0
-0.05
-0.045
-0.07
-0.045
-0.04
-0.105
-0.04
0.025
-0.08
0.02
0.005
-0.01
-0.045
-0.035
-0.075
-0.025
0.13
0.1
0.1
0.06
0.025
0.0
0.015
0.065
0.075
0.105
0.03
0.045
-0.005
0.05
0.125
0.145
0.14
0.095
0.135
0.085
0.14
0.21
0.23
0.23
0.2
0.2
0.245
0.28
0.215
0.21
0.265
0.395
0.325
0.315
0.325
0.335
0.425
0.435
0.37
0.365
0.4
0.39
0.445
0.28
0.275
0.325
0.29
0.31
0.255
0.24
0.25
0.185
0.21
0.145
0.165
0.13
0.15
0.14
0.14
0.09
0.155
0.115
0.07
0.055
0.03
0.05
0.03
-0.065
-0.035
-0.03
-0.065
-0.015
0.025
0.03
0.005
0.025
-0.01
-0.025
-0.015
-0.02
0.025
0.015
0.025
-0.025
-0.065
-0.07
-0.08
-0.065
-0.095
-0.005
-0.025
0.005
-0.035
-0.06
-0.07
-0.1
-0.075
-0.06
-0.02
-0.05
-0.025
-0.025
-0.015
-0.02
-0.02
0.015
0.005
0.045
0.06
0.015
0.01
-0.005
0.005
0.005
0.045
-0.04
-0.035
-0.06
-0.03
0.05
0.05
0.035
0.07
0.05
0.045
0.005
0.005
0.025
0.04
0.035
0.085
0.04
0.02
-0.01
0.04
0.025
-0.005
0.095
0.095
0.105
0.035
0.0
0.03
0.03
0.025
-0.015
0.0
0.0
0.005
0.02
0.055
0.1
0.08
0.115
0.095
0.065
0.035
0.02
-0.01
0.025
0.095
0.04
0.08
0.08
0.115
0.075
0.08
0.015
0.025
0.015
0.0
0.025
0.13
0.115
0.07
0.06
0.105
0.14
0.135
0.115
0.085
0.075
0.055
0.055
0.065
0.095
0.1
0.12
0.12
0.165
0.065
0.085
0.1
0.085
0.07
0.1
0.05
0.15
0.19
0.09
0.09
0.07
0.06
0.14
0.115
0.065
0.1
0.1
0.1
0.11
0.2
0.07
-0.095
-0.115
-0.03
0.085
0.11
0.075
0.07
0.065
0.065
0.04
0.04
0.11
0.12
0.04
0.025
0.105
0.135
0.075
0.05
0.1
0.14
0.1
0.065
0.01
0.075
0.085
0.05
0.09
0.085
0.025
0.11
0.15
0.275
0.415
0.5
0.515
0.58
0.655
0.73
0.69
0.685
0.66
0.565
0.36
0.16
0.06
0.01
-0.02
-0.195
-0.395
-0.44
-0.455
-0.465
-0.44
-0.33
-0.285
-0.235
-0.21
-0.16
-0.17
-0.085
-0.065
-0.055
0.015
0.065
0.04
-0.01
-0.045
-0.005
0.04
0.025
0.06
0.02
0.055
0.06
0.065
0.045
0.11
0.095
0.06
0.03
0.07
0.065
0.005
0.02
0.035
0.06
0.075
0.075
0.06
0.05
0.01
0.03
0.07
0.125
0.12
0.055
0.005
0.035
0.11
0.11
0.105
0.095
0.105
0.07
0.08
0.105
0.07
0.06
0.095
0.06
0.08
0.155
0.135
0.12
0.12
0.135
0.125
0.13
0.125
0.175
0.18
0.135
0.12
0.13
0.12
0.165
0.245
0.19
0.21
0.23
0.23
0.26
0.28
0.3
0.27
0.26
0.27
0.325
0.325
0.31
0.315
0.305
0.325
0.34
0.37
0.38
0.395
0.365
0.32
0.31
0.33
0.35
0.385
0.365
0.315
0.3
0.245
0.25
0.285
0.265
0.245
0.22
0.175
0.24
0.185
0.13
0.115
0.105
0.07
0.095
0.08
0.005
0.04
-0.005
-0.02
0.02
0.025
0.015
-0.01
-0.005
0.0
-0.06
-0.045
-0.015
-0.035
-0.035
-0.015
-0.04
-0.075
-0.015
-0.08
-0.12
-0.08
-0.085
-0.11
-0.11
-0.06
-0.065
-0.08
-0.075
-0.095
-0.115
-0.09
-0.035
-0.075
-0.13
-0.15
-0.16
-0.17
-0.115
-0.1
-0.105
-0.125
-0.085
-0.13
-0.145
-0.145
-0.16
-0.11
-0.11
-0.125
-0.145
-0.13
-0.135
-0.18
-0.16
-0.12
-0.14
-0.14
-0.14
-0.14
-0.155
-0.165
-0.165
-0.17
-0.17
-0.155
-0.16
-0.12
-0.135
-0.165
-0.18
-0.16
-0.175
-0.2
-0.195
-0.175
-0.16
-0.19
-0.175
-0.185
-0.125
-0.17
-0.185
-0.2
-0.185
-0.19
-0.22
-0.195
-0.16
-0.17
-0.19
-0.165
-0.195
-0.17
-0.17
-0.18
-0.17
-0.145
-0.175
-0.13
-0.15
-0.135
-0.08
-0.12
-0.185
-0.19
-0.215
-0.125
-0.145
-0.175
-0.235
-0.18
-0.14
-0.115
-0.09
-0.1
-0.1
-0.13
-0.175
-0.13
-0.12
-0.09
-0.115
-0.14
-0.13
-0.13
-0.125
-0.13
-0.1
-0.12
-0.085
-0.06
-0.085
-0.025
-0.01
-0.07
-0.015
-0.015
-0.09
-0.04
-0.025
-0.075
-0.2
-0.21
-0.185
-0.15
-0.145
-0.13
-0.145
-0.145
-0.14
-0.135
-0.145
-0.095
-0.105
-0.075
-0.12
-0.14
-0.125
-0.115
-0.105
-0.125
-0.135
-0.145
-0.145
-0.165
-0.16
-0.105
-0.09
-0.1
-0.085
-0.125
-0.13
-0.15
-0.19
-0.195
-0.18
-0.125
-0.09
-0.08
-0.08
-0.04
0.01
0.055
0.2
0.28
0.4
0.475
0.5
0.54
0.57
0.585
0.58
0.59
0.37
0.055
-0.09
-0.195
-0.29
-0.385
-0.535
-0.69
-0.79
-0.735
-0.64
-0.555
-0.525
-0.435
-0.335
-0.305
-0.25
-0.215
-0.145
-0.145
-0.09
-0.22
-0.24
-0.2
-0.19
-0.165
-0.14
-0.15
-0.14
-0.125
-0.135
-0.11
-0.115
-0.085
-0.06
-0.05
-0.015
-0.035
-0.09
-0.095
-0.035
-0.03
-0.085
-0.08
-0.065
-0.065
-0.025
-0.035
-0.07
-0.05
-0.13
-0.11
-0.06
-0.02
-0.01
-0.055
-0.04
-0.06
-0.02
0.025
0.035
-0.005
-0.125
-0.055
-0.045
-0.02
0.0
0.015
-0.02
0.01
0.04
0.02
0.03
-0.005
-0.02
0.065
0.09
0.07
0.105
0.075
0.05
0.04
0.12
0.135
0.13
0.14
0.195
0.21
0.18
0.205
0.175
0.155
0.215
0.245
0.29
0.24
0.28
0.29
0.295
0.345
0.315
0.3
0.365
0.335
0.245
0.32
0.31
0.31
0.305
0.315
0.29
0.3
0.315
0.295
0.245
0.265
0.28
0.21
0.2
0.165
0.165
0.215
0.19
0.135
0.175
0.14
0.075
0.065
0.07
0.055
0.055
0.085
0.095
-0.025
-0.07
-0.055
-0.045
-0.035
-0.04
-0.06
-0.035
-0.05
-0.065
-0.04
-0.005
0.025
0.005
-0.035
-0.055
-0.045
-0.07
-0.05
-0.05
-0.075
-0.05
-0.065
-0.09
-0.025
0.015
-0.065
-0.05
-0.02
-0.045
-0.065
-0.03
0.015
0.005
-0.05
-0.125
-0.035
-0.055
-0.065
-0.075
-0.065
-0.065
-0.045
-0.06
-0.055
-0.06
-0.02
-0.055
-0.04
-0.05
-0.07
-0.05
-0.005
-0.045
-0.075
-0.035
0.0
-0.035
-0.02
-0.025
0.0
-0.055
-0.13
-0.08
-0.055
-0.085
-0.09
-0.065
-0.045
-0.03
0.02
-0.095
-0.12
-0.07
-0.07
-0.005
-0.085
-0.095
-0.11
-0.08
-0.06
-0.135
-0.07
-0.035
-0.075
-0.075
-0.03
-0.035
-0.06
-0.05
-0.065
-0.08
-0.06
-0.075
-0.065
-0.06
-0.075
-0.05
-0.065
-0.055
-0.065
-0.005
-0.01
-0.055
-0.12
-0.095
-0.11
-0.13
-0.115
-0.07
-0.06
-0.075
-0.075
-0.055
-0.065
-0.065
-0.06
-0.065
-0.075
-0.035
-0.065
-0.11
-0.045
0.01
-0.06
-0.095
-0.05
-0.13
-0.065
-0.04
-0.06
-0.075
-0.01
-0.03
-0.02
0.055
-0.01
-0.015
-0.04
-0.01
-0.03
0.0
0.015
-0.025
-0.03
-0.02
-0.06
-0.08
-0.07
-0.115
-0.105
-0.11
-0.12
-0.09
-0.085
-0.085
-0.06
-0.055
-0.08
-0.075
-0.06
-0.1
-0.15
-0.1
-0.085
-0.045
-0.1
-0.11
-0.08
-0.065
-0.115
-0.09
-0.08
-0.13
-0.09
-0.085
-0.05
-0.04
-0.05
-0.075
-0.1
-0.125
-0.075
-0.06
-0.01
0.01
-0.01
0.075
0.205
0.275
0.39
0.485
0.555
0.57
0.63
0.66
0.64
0.63
0.635
0.475
0.18
-0.03
-0.13
-0.22
-0.32
-0.46
-0.665
-0.785
-0.78
-0.595
-0.555
-0.43
-0.42
-0.36
-0.27
-0.235
-0.25
-0.22
-0.12
-0.125
-0.125
-0.14
-0.15
-0.075
-0.065
-0.09
-0.09
-0.06
-0.05
-0.055
-0.055
-0.075
-0.095
-0.06
-0.035
-0.05
-0.07
-0.06
-0.09
-0.09
-0.01
0.04
-0.005
-0.075
-0.045
-0.025
-0.02
-0.015
-0.055
-0.05
-0.055
-0.065
-0.03
-0.005
0.0
-0.01
-0.005
-0.015
-0.005
0.03
0.035
0.02
-0.025
-0.015
-0.005
0.03
0.02
0.045
0.025
0.015
0.06
0.06
0.075
0.1
0.045
0.06
0.07
0.09
0.135
0.13
0.09
0.095
0.14
0.09
0.125
0.17
0.205
0.225
0.24
0.255
0.27
0.24
0.305
0.31
0.33
0.255
0.325
0.355
0.325
0.33
0.35
0.375
0.375
0.385
0.375
0.395
0.385
0.355
0.365
0.385
0.325
0.315
0.31
0.31
0.285
0.295
0.34
0.32
0.25
0.23
0.145
0.145
0.135
0.13
0.125
0.145
0.15
0.09
0.075
0.055
0.105
0.095
0.03
0.005
-0.02
-0.035
0.0
0.015
-0.045
-0.04
0.015
-0.055
-0.06
0.005
0.01
-0.015
-0.02
-0.02
-0.035
-0.04
-0.03
-0.045
-0.03
-0.035
-0.03
-0.02
-0.055
0.005
-0.075
-0.105
-0.09
-0.03
-0.035
-0.065
-0.03
-0.035
-0.02
0.005
-0.02
-0.025
-0.025
-0.045
-0.045
-0.005
-0.06
-0.05
0.045
-0.02
-0.03
0.01
-0.025
-0.09
-0.06
-0.04
-0.04
-0.035
-0.02
0.0
-0.045
-0.03
0.03
-0.02
-0.005
-0.025
-0.015
-0.005
-0.04
-0.07
-0.05
-0.015
-0.07
-0.08
-0.07
-0.085
-0.06
-0.05
-0.035
0.005
0.01
-0.04
-0.035
-0.005
0.015
0.005
-0.025
-0.05
-0.03
-0.08
-0.07
-0.065
-0.06
-0.07
-0.045
-0.055
-0.06
-0.05
-0.03
-0.045
-0.06
-0.04
-0.035
-0.01
-0.085
-0.07
-0.1
-0.08
-0.06
-0.09
-0.13
-0.075
-0.03
-0.015
-0.025
0.015
-0.035
-0.06
-0.055
-0.075
-0.06
-0.02
-0.02
-0.04
-0.09
-0.075
-0.06
-0.025
-0.015
-0.075
-0.065
0.0
-0.07
-0.09
-0.015
-0.025
-0.05
-0.04
0.01
0.03
0.03
0.055
0.045
-0.05
-0.045
-0.015
0.04
0.1
-0.025
-0.165
-0.125
-0.06
-0.04
-0.08
-0.04
-0.045
-0.045
-0.02
-0.025
-0.105
-0.075
-0.075
-0.085
-0.055
-0.035
-0.09
-0.085
-0.075
-0.065
-0.065
-0.04
-0.04
-0.085
-0.05
0.005
-0.08
-0.095
-0.105
-0.1
-0.075
-0.05
-0.065
-0.115
-0.115
-0.085
-0.105
-0.075
0.015
0.005
0.02
0.07
0.11
0.21
0.29
0.415
0.59
0.615
0.69
0.695
0.645
0.615
0.65
0.525
0.205
-0.005
-0.115
-0.21
-0.31
-0.445
-0.64
-0.795
-0.785
-0.7
-0.535
-0.455
-0.375
-0.335
-0.325
-0.3
-0.22
-0.145
-0.115
-0.115
-0.065
-0.12
-0.11
-0.05
-0.08
-0.05
-0.085
-0.08
-0.045
-0.065
-0.065
-0.035
-0.025
-0.055
-0.07
-0.05
-0.06
-0.1
-0.055
0.02
0.02
0.04
0.005
-0.025
-0.05
-0.045
-0.065
-0.06
-0.02
-0.03
-0.045
-0.045
-0.04
-0.025
-0.015
-0.035
0.005
0.035
0.06
0.02
0.025
0.06
0.02
0.025
0.02
0.025
0.03
0.06
0.015
0.04
0.05
0.055
0.05
0.075
0.055
0.125
0.115
0.1
0.085
0.125
0.105
0.14
0.17
0.105
0.16
0.205
0.24
0.235
0.21
0.215
0.29
0.265
0.295
0.315
0.295
0.32
0.37
0.4
0.355
0.34
0.35
0.37
0.39
0.365
0.35
0.395
0.4
0.395
0.37
0.395
0.345
0.35
0.355
0.325
0.335
0.33
0.325
0.315
0.215
0.235
0.215
0.17
0.175
0.225
0.14
0.045
0.045
0.07
0.065
0.07
0.045
0.0
0.055
0.06
0.045
0.01
0.01
0.02
-0.025
-0.04
-0.08
-0.045
-0.07
-0.085
-0.06
-0.145
-0.055
-0.03
-0.035
-0.05
-0.035
-0.065
-0.045
0.01
-0.08
-0.1
-0.02
-0.045
-0.045
-0.02
-0.03
-0.03
-0.085
-0.015
-0.06
-0.055
-0.095
-0.065
-0.09
-0.07
-0.07
-0.05
-0.07
-0.07
-0.045
-0.03
0.01
-0.035
-0.07
-0.02
-0.03
-0.075
-0.08
-0.04
-0.065
-0.055
-0.075
-0.055
-0.06
-0.07
-0.08
-0.11
-0.11
-0.065
-0.03
-0.06
-0.05
-0.045
-0.065
0.0
-0.025
-0.07
-0.05
-0.035
-0.06
-0.03
-0.015
-0.045
-0.065
-0.07
-0.075
-0.07
-0.05
-0.055
-0.07
-0.025
-0.005
-0.045
-0.115
-0.125
-0.055
-0.055
-0.1
-0.095
-0.06
-0.075
-0.085
-0.02
-0.06
-0.08
-0.065
-0.1
-0.085
-0.03
-0.035
-0.05
-0.055
-0.105
-0.075
-0.035
-0.065
-0.085
-0.085
-0.085
-0.105
-0.07
-0.07
-0.04
-0.055
-0.045
-0.04
-0.075
-0.005
0.03
-0.015
-0.12
-0.105
-0.08
-0.085
-0.035
-0.03
-0.005
-0.01
-0.01
-0.015
0.03
-0.015
-0.045
-0.035
-0.025
-0.045
-0.03
-0.015
0.005
-0.045
-0.09
-0.095
-0.125
-0.105
-0.085
-0.1
-0.105
-0.08
-0.075
-0.085
-0.065
-0.07
-0.11
-0.09
-0.075
-0.095
-0.115
-0.085
-0.08
-0.075
-0.085
-0.095
-0.12
-0.095
-0.075
-0.085
-0.09
-0.03
-0.06
-0.105
-0.125
-0.14
-0.155
-0.12
-0.155
-0.055
-0.055
-0.025
0.035
0.105
0.25
0.355
0.45
0.57
0.555
0.65
0.665
0.66
0.66
0.645
0.465
0.15
0.035
-0.19
-0.24
-0.34
-0.52
-0.675
-0.765
-0.79
-0.675
-0.57
-0.47
-0.385
-0.325
-0.28
-0.25
-0.2
-0.12
-0.105
-0.075
-0.065
-0.045
-0.065
-0.04
-0.035
-0.085
-0.08
-0.055
-0.055
-0.005
0.015
-0.02
0.025
0.02
-0.025
-0.05
-0.03
-0.02
0.03
0.025
0.01
-0.045
-0.02
-0.015
0.02
0.065
0.045
0.035
0.045
0.07
0.01
0.03
0.035
0.035
0.03
0.005
0.04
-0.02
0.005
0.03
0.06
0.035
0.075
0.065
0.075
0.04
0.04
0.04
0.065
0.105
0.12
0.075
0.015
0.095
0.145
0.115
0.155
0.15
0.155
0.155
0.145
0.175
0.21
0.23
0.155
0.245
0.215
0.23
0.245
0.285
0.25
0.25
0.385
0.385
0.385
0.375
0.4
0.325
0.41
0.44
0.435
0.435
0.405
0.42
0.335
0.4
0.45
0.435
0.41
0.405
0.405
0.415
0.365
0.35
0.325
0.355
0.31
0.27
0.315
0.28
0.22
0.215
0.17
0.14
0.125
0.14
0.15
0.16
0.125
0.12
0.05
0.055
0.035
0.085
0.085
0.04
0.035
0.035
0.01
-0.025
-0.025
-0.04
-0.055
-0.065
-0.01
0.045
0.01
-0.04
-0.015
-0.04
-0.065
-0.05
-0.045
0.005
-0.005
-0.05
0.01
-0.065
-0.045
-0.035
-0.04
-0.05
-0.075
-0.08
-0.015
-0.005
-0.005
0.005
0.01
-0.01
-0.01
0.01
0.005
-0.03
-0.03
0.045
0.05
-0.045
-0.01
-0.035
-0.075
-0.02
-0.01
0.02
0.015
0.065
0.065
0.075
0.11
0.11
0.0
0.04
0.04
0.08
0.025
0.025
0.07
0.08
0.045
0.065
0.075
0.105
0.065
0.025
0.1
0.105
0.085
0.085
0.05
0.035
0.04
0.025
0.025
0.055
0.04
0.115
0.12
0.07
0.075
0.03
0.08
0.07
-0.01
0.025
0.02
0.025
0.07
0.085
0.105
0.08
0.1
0.055
0.025
0.015
0.025
0.08
0.07
0.065
0.075
0.05
0.06
0.085
0.06
0.035
0.06
0.095
0.115
0.095
0.065
0.08
0.085
0.115
0.155
0.14
0.1
0.115
0.05
0.085
0.095
0.035
0.015
0.04
0.06
0.06
0.05
-0.02
-0.02
-0.05
-0.04
0.005
0.005
0.025
0.12
0.005
0.015
0.025
0.005
-0.005
0.01
0.005
0.03
0.05
0.015
-0.005
0.015
0.0
-0.005
0.02
0.0
0.005
-0.005
-0.04
-0.005
-0.02
-0.035
-0.065
-0.065
-0.005
0.035
0.08
0.085
0.045
0.09
0.255
0.345
0.45
0.53
0.63
0.67
0.725
0.725
0.77
0.785
0.745
0.61
0.255
0.075
-0.06
-0.11
-0.385
-0.49
-0.66
-0.74
-0.7
-0.575
-0.495
-0.45
-0.35
-0.275
-0.24
-0.18
-0.145
-0.135
-0.1
-0.085
-0.055
-0.035
0.005
0.02
-0.005
-0.05
-0.075
0.005
0.02
0.075
0.055
0.08
-0.05
-0.045
0.005
0.02
0.01
0.02
0.045
0.03
0.05
0.03
0.02
0.025
0.065
0.035
0.015
0.015
0.065
0.05
0.02
0.065
0.035
0.04
0.07
0.075
0.04
0.045
0.085
0.09
0.105
0.08
0.065
0.065
0.05
0.015
0.09
0.115
0.08
0.075
0.13
0.12
0.145
0.14
0.155
0.185
0.17
0.2
0.165
0.19
0.215
0.23
0.215
0.22
0.215
0.235
0.25
0.26
0.29
0.33
0.335
0.345
0.39
0.385
0.445
0.49
0.5
0.415
0.43
0.37
0.395
0.41
0.435
0.39
0.385
0.475
0.505
0.46
0.445
0.45
0.425
0.44
0.395
0.39
0.38
0.365
0.32
0.31
0.285
0.26
0.24
0.25
0.225
0.23
0.195
0.185
0.13
0.105
0.105
0.085
0.085
0.11
0.13
0.09
0.02
0.03
0.02
0.015
0.025
0.045
0.005
0.025
0.01
0.01
0.035
-0.015
0.01
-0.05
0.03
-0.035
0.015
0.04
0.005
-0.005
0.015
0.0
-0.005
-0.015
-0.065
-0.045
-0.01
0.035
0.025
-0.005
0.0
-0.005
-0.005
0.005
0.005
-0.015
0.005
-0.03
-0.045
-0.03
0.01
0.04
0.025
0.005
-0.03
-0.04
-0.025
0.0
0.01
0.01
0.01
0.025
-0.005
0.015
0.01
-0.04
-0.03
-0.02
0.015
0.06
0.015
0.005
-0.015
-0.045
-0.03
-0.04
-0.015
-0.03
-0.035
-0.02
0.02
0.02
-0.005
0.0
0.0
-0.035
0.01
-0.05
-0.09
-0.05
0.055
-0.005
-0.055
0.0
-0.005
-0.045
-0.025
-0.015
-0.02
-0.045
-0.035
-0.07
-0.03
0.02
-0.01
-0.025
-0.05
-0.01
-0.015
-0.03
0.0
0.01
-0.06
-0.055
-0.035
-0.055
-0.08
-0.025
-0.03
-0.05
-0.02
-0.05
-0.06
-0.05
0.0
0.025
-0.015
-0.01
-0.015
-0.05
-0.05
-0.045
-0.09
-0.025
0.025
0.03
-0.03
-0.045
-0.025
-0.005
0.005
-0.01
0.005
0.025
0.04
0.015
0.055
0.115
0.015
0.02
-0.005
0.005
-0.035
0.0
0.005
-0.045
-0.045
-0.045
-0.05
-0.025
-0.015
-0.095
-0.035
-0.055
-0.065
-0.085
-0.065
-0.055
-0.05
-0.05
-0.01
-0.05
-0.045
-0.04
-0.045
-0.09
-0.1
-0.05
-0.075
-0.05
-0.025
-0.075
-0.12
-0.045
-0.045
-0.05
-0.055
-0.075
-0.095
-0.11
-0.075
-0.03
-0.03
0.035
0.085
0.17
0.25
0.3
0.475
0.555
0.63
0.665
0.69
0.725
0.695
0.68
0.635
0.375
0.055
-0.08
-0.17
-0.24
-0.385
-0.59
-0.725
-0.83
-0.805
-0.655
-0.555
-0.45
-0.325
-0.265
-0.235
-0.235
-0.18
-0.16
-0.13
-0.135
-0.11
-0.08
-0.095
-0.045
-0.04
-0.055
-0.11
-0.1
-0.06
-0.055
-0.03
-0.06
-0.035
-0.035
0.0
-0.015
-0.015
0.0
-0.06
-0.03
-0.025
0.01
0.015
-0.005
-0.025
-0.04
0.025
0.0
-0.03
-0.06
-0.005
0.085
0.005
-0.005
0.0
-0.035
-0.025
-0.01
0.01
-0.015
0.04
0.025
0.01
0.0
0.03
0.03
0.07
0.05
0.015
0.075
0.06
0.095
0.065
0.11
0.1
0.115
0.1
0.105
0.135
0.145
0.18
0.215
0.185
0.17
0.195
0.24
0.26
0.25
0.27
0.27
0.305
0.33
0.355
0.3
0.295
0.34
0.38
0.395
0.415
0.46
0.37
0.405
0.37
0.345
0.385
0.435
0.43
0.395
0.39
0.405
0.435
0.405
0.385
0.395
0.345
0.28
0.27
0.295
0.25
0.19
0.17
0.215
0.205
0.21
0.185
0.17
0.16
0.105
0.09
0.055
0.04
0.045
0.04
0.045
0.03
0.02
-0.01
-0.02
-0.005
-0.01
0.01
-0.015
-0.055
-0.05
-0.015
0.01
0.025
-0.04
-0.05
-0.17
-0.155
-0.045
0.025
-0.025
-0.01
-0.055
-0.04
0.01
-0.02
-0.035
-0.015
-0.015
-0.09
-0.09
-0.065
-0.05
-0.06
0.01
-0.03
-0.075
-0.08
0.0
0.0
-0.025
-0.055
-0.05
-0.02
0.01
0.01
-0.1
-0.105
-0.055
-0.03
-0.02
-0.015
-0.04
-0.03
-0.04
-0.035
-0.03
-0.005
-0.01
-0.13
-0.075
-0.055
-0.085
-0.055
-0.015
-0.085
-0.08
-0.015
0.01
-0.025
-0.045
-0.06
-0.085
-0.1
-0.085
-0.095
-0.02
-0.03
-0.005
-0.065
-0.085
-0.025
-0.065
-0.095
-0.065
-0.05
-0.04
-0.04
-0.075
-0.035
-0.02
-0.065
-0.065
-0.075
-0.085
-0.09
-0.085
-0.08
-0.09
-0.105
-0.06
-0.015
0.01
-0.12
-0.1
-0.06
-0.075
-0.055
-0.08
-0.1
-0.11
-0.055
-0.04
-0.06
-0.11
-0.145
-0.125
-0.095
-0.095
-0.04
-0.05
-0.07
-0.04
-0.03
-0.045
-0.08
-0.05
-0.025
-0.04
-0.03
0.005
0.005
-0.01
0.01
0.0
-0.07
-0.055
-0.05
-0.04
-0.05
-0.035
-0.06
-0.07
-0.085
-0.09
-0.08
-0.075
-0.065
-0.06
-0.09
-0.07
-0.085
-0.075
-0.04
-0.05
-0.14
-0.155
-0.115
-0.14
-0.11
-0.13
-0.14
-0.095
-0.105
-0.09
-0.04
-0.07
-0.13
-0.135
-0.07
-0.085
-0.095
-0.06
-0.095
-0.155
-0.195
-0.1
-0.13
-0.135
-0.105
-0.035
-0.02
-0.01
0.045
0.115
0.24
0.41
0.455
0.57
0.69
0.71
0.625
0.635
0.655
0.64
0.295
-0.015
-0.16
-0.22
-0.305
-0.455
-0.645
-0.765
-0.815
-0.805
-0.705
-0.57
-0.565
-0.46
-0.35
-0.32
-0.32
-0.31
-0.255
-0.165
-0.185
-0.125
-0.07
-0.12
-0.135
-0.11
-0.15
-0.11
-0.105
-0.105
-0.08
-0.12
-0.105
-0.09
-0.06
-0.045
-0.115
-0.105
-0.065
-0.055
-0.045
-0.04
-0.04
-0.035
-0.045
-0.03
-0.085
-0.045
-0.01
-0.085
-0.025
-0.04
-0.04
-0.05
-0.045
-0.09
-0.06
-0.055
-0.055
-0.06
-0.04
-0.025
-0.005
-0.005
-0.005
0.005
0.0
-0.02
0.005
0.025
0.03
0.03
0.0
0.015
0.05
0.05
0.04
0.055
0.105
0.08
0.08
0.13
0.075
0.105
0.175
0.2
0.25
0.305
0.17
0.18
0.225
0.2
0.24
0.225
0.275
0.315
0.325
0.32
0.37
0.31
0.35
0.305
0.295
0.35
0.42
0.345
0.355
0.39
0.355
0.325
0.325
0.36
0.285
0.26
0.27
0.28
0.285
0.245
0.195
0.225
0.23
0.175
0.14
0.14
0.125
0.12
0.095
0.09
0.065
0.05
-0.035
0.0
0.0
-0.04
-0.025
-0.005
-0.02
-0.04
0.005
-0.07
-0.06
-0.035
-0.095
-0.14
-0.145
-0.075
-0.06
-0.105
-0.115
-0.12
-0.13
-0.1
-0.07
-0.09
-0.135
-0.105
-0.01
-0.045
-0.1
-0.155
-0.175
-0.075
-0.025
-0.02
-0.055
-0.09
-0.055
-0.085
-0.11
-0.105
-0.06
-0.085
-0.125
-0.095
-0.06
-0.055
-0.06
-0.095
-0.06
-0.115
-0.12
-0.105
-0.065
0.0
0.04
-0.04
-0.035
-0.065
-0.125
-0.095
-0.055
-0.005
-0.085
-0.105
-0.045
-0.04
-0.035
-0.005
-0.05
-0.1
-0.07
-0.1
-0.085
-0.04
-0.07
-0.07
-0.075
-0.06
-0.055
-0.035
-0.045
-0.025
-0.025
-0.04
-0.11
-0.095
-0.06
-0.05
-0.085
-0.06
-0.075
-0.08
-0.075
-0.055
-0.075
-0.11
-0.08
-0.15
-0.1
-0.055
-0.02
-0.08
-0.125
-0.08
-0.075
-0.075
-0.095
-0.075
-0.045
-0.065
-0.065
-0.09
-0.07
-0.1
-0.06
-0.08
-0.08
-0.04
0.015
-0.01
-0.045
-0.03
-0.14
-0.155
-0.11
-0.08
-0.06
-0.05
-0.085
-0.075
-0.055
-0.105
-0.09
-0.04
-0.025
-0.04
-0.075
-0.1
-0.085
-0.11
-0.095
-0.045
0.015
0.06
0.05
0.025
-0.02
0.015
0.025
-0.035
-0.065
-0.08
-0.07
-0.035
-0.05
-0.055
-0.105
-0.105
-0.09
-0.05
-0.05
-0.03
-0.12
-0.15
-0.12
-0.155
-0.13
-0.095
-0.085
-0.07
-0.12
-0.06
-0.075
-0.07
-0.085
-0.095
-0.06
-0.11
-0.145
-0.1
-0.09
-0.145
-0.145
-0.115
-0.085
-0.05
-0.025
-0.07
-0.09
-0.15
-0.155
-0.125
-0.075
-0.035
-0.025
0.005
0.115
0.195
0.3
0.455
0.565
0.61
0.725
0.695
0.675
0.69
0.7
0.5
0.165
-0.005
-0.09
-0.215
-0.37
-0.525
-0.685
-0.775
-0.79
-0.715
-0.595
-0.575
-0.5
-0.44
-0.38
-0.28
-0.245
-0.22
-0.17
-0.135
-0.09
-0.11
-0.11
-0.105
-0.065
-0.065
-0.065
-0.065
-0.065
-0.115
-0.145
-0.125
-0.09
-0.07
-0.045
-0.025
-0.055
-0.055
-0.035
-0.075
-0.06
0.0
-0.01
-0.02
-0.015
-0.055
-0.055
-0.06
-0.035
-0.055
-0.095
-0.07
-0.075
-0.07
-0.02
0.015
0.005
-0.02
-0.035
0.025
0.0
-0.055
-0.03
-0.01
0.055
0.07
0.04
0.095
0.035
0.005
0.025
0.055
0.085
0.0
0.05
0.085
0.105
0.04
0.06
0.1
0.115
0.15
0.17
0.195
0.16
0.21
0.215
0.255
0.2
0.23
0.28
0.27
0.28
0.29
0.32
0.335
0.38
0.35
0.355
0.34
0.36
0.35
0.36
0.38
0.405
0.34
0.315
0.36
0.41
0.435
0.445
0.39
0.375
0.345
0.335
0.305
0.325
0.32
0.25
0.285
0.295
0.22
0.195
0.135
0.12
0.155
0.11
0.095
0.085
0.105
0.09
0.035
-0.01
0.03
0.06
0.05
0.06
-0.04
-0.02
-0.035
-0.045
-0.025
-0.04
-0.045
-0.065
-0.07
-0.03
-0.015
-0.05
-0.04
-0.015
-0.05
-0.08
-0.08
-0.11
-0.075
-0.035
-0.04
-0.05
-0.065
-0.01
-0.035
-0.05
-0.035
-0.08
-0.11
-0.035
0.005
0.05
-0.1
-0.07
-0.045
-0.07
-0.07
-0.12
-0.055
0.0
-0.02
-0.045
-0.05
-0.01
-0.015
-0.055
-0.055
-0.07
-0.105
-0.04
-0.045
-0.085
-0.01
-0.06
-0.075
-0.065
-0.05
-0.04
-0.065
-0.1
-0.075
-0.06
0.01
-0.02
-0.01
0.025
-0.055
-0.12
-0.115
-0.1
-0.065
-0.015
-0.08
-0.085
-0.02
-0.03
-0.01
-0.04
-0.065
-0.045
-0.11
-0.115
-0.085
-0.04
-0.035
-0.055
-0.085
-0.085
-0.07
-0.035
-0.085
-0.095
-0.055
-0.085
-0.1
-0.095
-0.045
-0.04
-0.04
-0.065
-0.14
-0.095
-0.075
-0.085
-0.055
-0.055
-0.055
-0.035
-0.05
-0.07
-0.075
-0.045
-0.11
-0.105
-0.04
-0.08
-0.14
-0.125
-0.01
0.02
0.03
-0.115
-0.11
-0.09
-0.075
-0.035
-0.1
-0.09
-0.095
-0.07
-0.09
-0.065
-0.055
-0.085
-0.065
-0.06
-0.045
-0.085
-0.11
-0.115
-0.08
-0.08
-0.075
-0.02
-0.02
-0.015
-0.05
-0.04
-0.07
-0.045
-0.085
-0.055
-0.06
-0.035
0.115
0.135
0.015
0.04
-0.02
0.01
-0.025
-0.04
-0.08
-0.075
-0.105
-0.075
-0.08
-0.09
-0.04
-0.105
-0.13
-0.085
-0.095
-0.075
-0.09
-0.055
-0.065
-0.06
-0.06
-0.07
-0.125
-0.055
-0.06
-0.065
-0.06
-0.075
-0.09
-0.12
-0.14
-0.105
-0.145
-0.095
-0.11
-0.06
-0.045
-0.045
-0.035
-0.115
-0.08
-0.14
-0.135
-0.075
-0.06
-0.04
-0.015
0.085
0.205
0.28
0.44
0.47
0.54
0.61
0.715
0.725
0.695
0.705
0.695
0.42
0.115
-0.13
-0.225
-0.335
-0.395
-0.545
-0.725
-0.805
-0.725
-0.665
-0.56
-0.47
-0.375
-0.365
-0.35
-0.265
-0.205
-0.2
-0.185
-0.155
-0.125
-0.11
-0.085
-0.07
-0.08
-0.125
-0.08
0.005
0.0
-0.105
-0.06
-0.07
-0.07
-0.035
-0.065
-0.06
-0.07
-0.02
0.01
-0.02
-0.035
-0.04
-0.055
-0.035
-0.095
-0.09
-0.085
-0.075
-0.04
0.0
-0.01
-0.055
-0.05
-0.01
-0.01
0.005
-0.055
-0.01
-0.005
0.02
0.05
-0.02
-0.015
-0.045
-0.01
0.025
0.08
0.045
0.03
0.0
0.02
0.08
0.14
0.065
0.05
0.06
0.13
0.145
0.17
0.195
0.135
0.065
0.125
0.17
0.125
0.165
0.27
0.265
0.17
0.165
0.205
0.25
0.3
0.345
0.385
0.345
0.365
0.355
0.345
0.35
0.39
0.36
0.365
0.375
0.355
0.37
0.435
0.39
0.345
0.43
0.385
0.325
0.34
0.37
0.335
0.365
0.325
0.29
0.25
0.19
0.185
0.175
0.21
0.175
0.105
0.15
0.115
0.105
0.04
0.02
0.05
-0.005
0.01
0.055
-0.02
0.0
-0.04
-0.045
-0.08
-0.07
-0.075
-0.05
-0.025
-0.025
-0.04
-0.08
-0.055
-0.025
-0.045
-0.05
-0.055
-0.125
-0.09
-0.165
-0.085
-0.025
-0.01
-0.02
-0.035
-0.025
-0.04
-0.035
-0.085
-0.075
-0.05
-0.055
-0.12
-0.075
-0.015
-0.1
-0.075
-0.065
-0.05
-0.1
-0.095
-0.04
-0.035
-0.035
-0.105
-0.09
-0.075
-0.085
-0.07
-0.065
-0.035
-0.065
-0.055
-0.08
-0.085
-0.075
-0.06
-0.015
-0.04
-0.045
-0.11
-0.085
-0.06
-0.07
-0.105
-0.085
-0.06
-0.065
-0.04
0.005
-0.05
-0.07
-0.045
-0.055
-0.09
-0.09
-0.115
-0.075
-0.035
-0.025
-0.075
-0.125
-0.115
-0.1
-0.085
-0.06
-0.115
-0.11
-0.07
-0.05
-0.09
-0.12
-0.11
-0.075
-0.095
-0.1
-0.105
-0.095
-0.085
-0.11
-0.09
-0.095
-0.075
-0.06
-0.075
-0.02
-0.035
-0.015
-0.115
-0.17
-0.13
-0.08
-0.06
-0.125
-0.125
-0.13
-0.13
-0.09
-0.095
-0.09
-0.085
-0.06
-0.07
-0.13
-0.065
-0.08
-0.13
-0.065
-0.07
-0.12
-0.085
-0.09
-0.125
-0.13
-0.095
-0.11
-0.15
-0.09
-0.05
-0.09
-0.085
-0.11
-0.095
-0.095
-0.145
-0.115
-0.04
-0.1
-0.085
-0.085
-0.12
-0.06
-0.015
-0.005
0.05
-0.05
-0.05
-0.025
-0.035
-0.05
-0.065
-0.06
-0.12
-0.17
-0.11
-0.045
-0.1
-0.09
-0.095
-0.12
-0.155
-0.11
-0.13
-0.075
-0.12
-0.135
-0.135
-0.13
-0.115
-0.135
-0.12
-0.17
-0.19
-0.17
-0.15
-0.1
-0.125
-0.105
-0.1
-0.1
-0.095
-0.13
-0.12
-0.105
-0.115
-0.115
-0.115
-0.11
-0.155
-0.195
-0.285
-0.15
-0.06
-0.015
0.0
0.045
0.085
0.205
0.295
0.33
0.445
0.595
0.665
0.69
0.635
0.655
0.63
0.47
0.125
-0.09
-0.145
-0.245
-0.405
-0.565
-0.735
-0.81
-0.8
-0.72
-0.625
-0.53
-0.515
-0.4
-0.375
-0.335
-0.265
-0.225
-0.2
-0.14
-0.115
-0.12
-0.145
-0.21
-0.16
-0.15
-0.135
-0.15
-0.125
-0.11
-0.07
-0.09
-0.115
-0.105
-0.075
-0.08
-0.125
-0.09
-0.09
-0.085
-0.09
-0.08
-0.06
-0.075
-0.09
-0.065
-0.04
-0.065
-0.085
-0.1
-0.155
-0.08
-0.095
-0.06
-0.04
-0.075
0.0
0.045
-0.005
-0.055
-0.115
-0.025
-0.045
-0.05
-0.045
0.02
0.02
-0.05
0.01
0.035
-0.025
-0.03
0.015
-0.025
-0.03
0.04
0.09
0.08
0.1
0.06
0.1
0.16
0.135
0.15
0.145
0.185
0.22
0.17
0.165
0.155
0.205
0.235
0.265
0.325
0.325
0.29
0.26
0.225
0.28
0.35
0.38
0.365
0.355
0.395
0.36
0.375
0.335
0.385
0.365
0.385
0.355
0.31
0.33
0.33
0.35
0.27
0.285
0.27
0.295
0.315
0.23
0.235
0.175
0.09
0.1
0.09
0.105
0.085
0.055
0.01
0.01
-0.04
-0.03
0.005
-0.02
-0.02
-0.025
-0.045
-0.055
-0.06
-0.055
-0.005
-0.005
-0.04
-0.085
-0.06
-0.01
-0.065
-0.045
-0.115
-0.165
-0.15
-0.09
-0.08
-0.045
-0.04
-0.055
-0.025
-0.085
-0.08
-0.055
-0.02
-0.05
-0.1
-0.14
-0.065
-0.145
-0.065
-0.03
-0.055
-0.06
-0.045
-0.06
-0.105
-0.065
-0.075
-0.095
-0.09
-0.08
-0.075
-0.09
-0.05
0.015
-0.03
-0.025
-0.115
-0.12
-0.09
-0.1
-0.09
-0.09
-0.05
-0.02
-0.085
-0.065
-0.03
-0.07
-0.065
-0.055
-0.06
-0.075
-0.085
-0.07
-0.03
-0.07
-0.1
-0.055
-0.03
0.03
-0.05
-0.16
-0.12
-0.11
-0.09
-0.04
-0.055
-0.06
-0.085
-0.09
-0.09
-0.085
-0.055
-0.085
-0.12
-0.035
-0.035
-0.08
-0.1
-0.125
-0.11
-0.105
-0.125
-0.08
-0.09
-0.075
-0.055
-0.095
-0.135
-0.095
-0.1
-0.09
-0.1
-0.115
-0.085
-0.08
-0.07
-0.09
-0.14
-0.15
-0.15
-0.15
-0.13
-0.095
-0.025
0.02
0.015
-0.125
-0.095
-0.085
-0.15
-0.18
-0.125
-0.035
0.015
-0.09
-0.16
-0.105
-0.075
-0.105
-0.11
-0.12
-0.075
-0.105
-0.1
-0.15
-0.135
-0.15
-0.11
-0.105
-0.13
-0.07
-0.04
-0.045
-0.07
-0.085
-0.065
-0.105
-0.1
-0.105
-0.08
-0.095
-0.1
-0.075
-0.065
-0.1
-0.07
-0.03
-0.025
-0.035
-0.085
-0.05
-0.065
-0.05
0.0
0.0
0.02
-0.055
-0.02
0.03
0.01
0.01
-0.035
-0.07
-0.085
-0.06
-0.135
-0.115
-0.07
-0.095
-0.025
-0.045
-0.075
-0.07
-0.04
-0.13
-0.11
-0.14
-0.13
-0.12
-0.12
-0.085
-0.11
-0.11
-0.09
-0.075
-0.085
-0.12
-0.13
-0.115
-0.09
-0.045
-0.06
-0.045
-0.035
-0.175
-0.17
-0.175
-0.155
-0.125
-0.115
-0.065
-0.03
-0.03
0.035
0.125
0.185
0.255
0.35
0.45
0.505
0.55
0.68
0.71
0.69
0.71
0.62
0.39
0.08
-0.1
-0.2
-0.28
-0.34
-0.535
-0.705
-0.795
-0.755
-0.645
-0.565
-0.49
-0.405
-0.365
-0.355
-0.31
-0.24
-0.17
-0.195
-0.085
-0.085
-0.16
-0.155
-0.145
-0.17
-0.155
-0.135
-0.18
-0.125
-0.09
-0.105
-0.09
-0.095
-0.11
-0.075
-0.125
-0.145
-0.105
-0.085
-0.085
-0.125
-0.135
-0.115
-0.085
-0.08
-0.055
-0.075
-0.1
-0.085
-0.06
-0.1
-0.115
-0.13
-0.075
-0.06
-0.055
-0.035
-0.005
-0.01
-0.105
-0.08
-0.065
-0.05
-0.085
-0.085
-0.05
-0.055
-0.025
-0.035
-0.02
0.01
0.005
-0.025
-0.02
-0.04
0.01
0.075
0.035
0.01
0.065
0.045
0.065
0.095
0.11
0.14
0.13
0.11
0.11
0.13
0.19
0.19
0.165
0.235
0.285
0.285
0.31
0.3
0.235
0.24
0.265
0.345
0.335
0.405
0.45
0.35
0.305
0.285
0.275
0.25
0.27
0.255
0.28
0.32
0.3
0.26
0.28
0.27
0.225
0.205
0.155
0.15
0.15
0.15
0.05
0.08
0.12
0.095
0.075
0.05
0.035
0.04
-0.07
-0.14
-0.11
-0.095
-0.09
-0.02
-0.03
-0.025
-0.015
-0.005
-0.015
-0.015
-0.02
-0.01
-0.13
-0.13
-0.155
-0.14
-0.15
-0.17
-0.105
-0.085
-0.065
-0.065
-0.075
-0.05
-0.07
-0.085
-0.08
-0.11
-0.09
-0.075
-0.085
-0.08
-0.065
-0.08
-0.1
-0.11
-0.09
-0.075
-0.1
-0.135
-0.11
-0.05
-0.105
-0.105
-0.09
-0.11
-0.085
-0.1
-0.075
-0.095
-0.135
-0.125
-0.035
-0.05
-0.135
-0.11
-0.09
-0.11
-0.135
-0.13
-0.08
-0.035
-0.05
-0.08
-0.095
-0.095
-0.115
-0.125
-0.055
-0.07
-0.095
-0.125
-0.05
-0.08
-0.095
-0.08
-0.025
-0.055
-0.16
-0.115
-0.105
-0.095
-0.09
-0.115
-0.13
-0.08
-0.08
-0.1
-0.125
-0.115
-0.115
-0.12
-0.05
-0.09
-0.21
-0.15
-0.13
-0.155
-0.055
-0.07
-0.09
-0.08
-0.135
-0.1
-0.045
-0.11
-0.12
-0.135
-0.135
-0.05
-0.09
-0.105
-0.1
-0.105
-0.175
-0.11
-0.165
-0.11
-0.1
-0.115
-0.09
-0.085
-0.095
-0.035
-0.015
-0.15
-0.17
-0.14
-0.14
-0.195
-0.18
-0.125
-0.145
-0.165
-0.135
-0.09
-0.025
-0.1
-0.105
-0.11
-0.11
-0.195
-0.185
-0.165
-0.1
-0.075
-0.115
-0.12
-0.115
-0.13
-0.14
-0.155
-0.13
-0.135
-0.155
-0.14
-0.075
-0.105
-0.13
-0.11
-0.135
-0.135
-0.085
-0.12
-0.085
-0.115
-0.085
-0.17
-0.1
-0.08
-0.11
-0.07
-0.07
-0.055
-0.02
-0.015
-0.08
-0.175
-0.125
-0.12
-0.1
-0.155
-0.175
-0.14
-0.15
-0.19
-0.16
-0.18
-0.205
-0.12
-0.11
-0.13
-0.15
-0.175
-0.18
-0.16
-0.16
-0.155
-0.185
-0.205
-0.17
-0.145
-0.12
-0.16
-0.13
-0.15
-0.195
-0.175
-0.17
-0.16
-0.165
-0.16
-0.185
-0.165
-0.16
-0.22
-0.24
-0.195
-0.16
-0.09
-0.06
-0.035
0.035
0.17
0.305
0.35
0.435
0.505
0.57
0.685
0.595
0.61
0.645
0.53
0.215
-0.045
-0.215
-0.29
-0.41
-0.505
-0.61
-0.76
-0.91
-0.855
-0.79
-0.765
-0.625
-0.46
-0.35
-0.295
-0.275
-0.24
-0.235
-0.23
-0.245
-0.225
-0.2
-0.17
-0.13
-0.17
-0.175
-0.21
-0.295
-0.225
-0.185
-0.11
-0.1
-0.165
-0.12
-0.055
-0.16
-0.225
-0.18
-0.1
-0.155
-0.185
-0.15
-0.15
-0.135
-0.11
-0.09
-0.07
-0.115
-0.145
-0.14
-0.16
-0.14
-0.14
-0.205
-0.165
-0.13
-0.09
-0.105
-0.155
-0.13
-0.12
-0.16
-0.115
-0.155
-0.125
-0.065
-0.065
-0.075
-0.055
-0.085
-0.085
-0.075
-0.09
-0.12
-0.06
-0.06
-0.06
-0.015
0.02
0.065
0.025
0.015
0.03
0.065
0.055
0.09
0.1
0.085
0.095
0.13
0.115
0.125
0.17
0.175
0.25
0.215
0.255
0.225
0.2
0.225
0.255
0.21
0.295
0.32
0.325
0.3
0.305
0.27
0.28
0.25
0.225
0.255
0.26
0.225
0.205
0.175
0.15
0.15
0.065
0.05
0.12
0.16
0.08
0.065
0.0
-0.03
0.005
-0.015
-0.095
-0.13
-0.135
-0.145
-0.075
-0.085
-0.08
-0.115
-0.16
-0.19
-0.205
-0.15
-0.175
-0.135
-0.11
-0.11
-0.14
-0.165
-0.155
-0.16
-0.175
-0.185
-0.205
-0.205
-0.18
-0.2
-0.13
-0.165
-0.15
-0.145
-0.195
-0.13
-0.185
-0.23
-0.215
-0.23
-0.17
-0.155
-0.14
-0.18
-0.175
-0.195
-0.24
-0.205
-0.165
-0.155
-0.2
-0.205
-0.155
-0.155
-0.165
-0.21
-0.25
-0.24
-0.175
-0.15
-0.195
-0.125
-0.14
-0.16
-0.175
-0.185
-0.21
-0.18
-0.195
-0.175
-0.165
-0.17
-0.165
-0.175
-0.15
-0.135
-0.17
-0.165
-0.205
-0.2
-0.165
-0.185
-0.175
-0.215
-0.19
-0.2
-0.16
-0.155
-0.205
-0.19
-0.225
-0.18
-0.22
-0.23
-0.2
-0.21
-0.24
-0.22
-0.18
-0.19
-0.11
-0.18
-0.235
-0.205
-0.145
-0.2
-0.195
-0.19
-0.195
-0.23
-0.27
-0.215
-0.15
-0.16
-0.17
-0.22
-0.23
-0.165
-0.215
-0.23
-0.19
-0.21
-0.21
-0.18
-0.19
-0.19
-0.205
-0.155
-0.185
-0.2
-0.22
-0.22
-0.215
-0.155
-0.17
-0.2
-0.215
-0.21
-0.235
-0.235
-0.22
-0.19
-0.165
-0.14
-0.18
-0.265
-0.24
-0.195
-0.175
-0.19
-0.215
-0.235
-0.255
-0.255
-0.215
-0.24
-0.17
-0.11
-0.17
-0.19
-0.145
-0.215
-0.235
-0.235
-0.19
-0.195
-0.235
-0.22
-0.19
-0.21
-0.16
-0.15
-0.1
-0.12
-0.16
-0.18
-0.09
-0.12
-0.13
-0.12
-0.085
-0.165
-0.185
-0.215
-0.215
-0.32
-0.3
-0.22
-0.17
-0.175
-0.175
-0.265
-0.385
-0.3
-0.235
-0.235
-0.305
-0.245
-0.13
-0.19
-0.29
-0.26
-0.145
-0.215
-0.225
-0.31
-0.27
-0.235
-0.195
-0.24
-0.285
-0.27
-0.3
-0.345
-0.235
-0.255
-0.245
-0.175
-0.26
-0.28
-0.225
-0.165
-0.13
-0.14
-0.105
-0.015
0.135
0.225
0.375
0.38
0.445
0.48
0.56
0.58
0.56
0.585
0.46
0.14
-0.15
-0.34
-0.255
-0.465
-0.735
-0.92
-0.95
-0.975
-0.88
-0.88
-0.74
-0.58
-0.53
-0.41
-0.38
-0.355
-0.34
-0.35
-0.29
-0.315
-0.255
-0.26
-0.25
-0.26
-0.265
-0.325
-0.25
-0.185
-0.115
-0.18
-0.17
-0.19
-0.185
-0.17
-0.175
-0.24
-0.235
-0.25
-0.21
-0.155
-0.14
-0.22
-0.225
-0.28
-0.24
-0.09
-0.035
-0.15
-0.185
-0.155
-0.19
-0.175
-0.13
-0.125
-0.14
-0.085
-0.115
-0.17
-0.15
-0.125
-0.16
-0.175
-0.175
-0.19
-0.04
-0.055
-0.14
-0.135
-0.11
-0.1
-0.145
-0.135
-0.105
-0.09
-0.08
-0.025
-0.005
-0.07
-0.045
-0.055
-0.03
0.015
0.0
-0.07
0.065
0.08
0.14
0.13
0.165
0.125
0.145
0.17
0.195
0.13
0.205
0.22
0.2
0.265
0.195
0.195
0.35
0.32
0.32
0.305
0.235
0.27
0.315
0.33
0.27
0.165
0.21
0.225
0.2
0.19
0.275
0.145
0.175
0.155
0.1
0.07
0.11
0.025
0.025
0.015
-0.01
-0.025
-0.045
-0.04
-0.035
-0.035
-0.12
-0.125
-0.125
-0.095
-0.225
-0.205
-0.11
-0.155
-0.205
-0.2
-0.165
-0.155
-0.18
-0.17
-0.205
-0.23
-0.18
-0.19
-0.315
-0.27
-0.145
-0.175
-0.185
-0.225
-0.205
-0.195
-0.22
-0.18
-0.205
-0.185
-0.245
-0.21
-0.255
-0.24
-0.22
-0.16
-0.15
-0.06
-0.125
-0.245
-0.25
-0.21
-0.21
-0.16
-0.165
-0.255
-0.235
-0.22
-0.195
-0.205
-0.185
-0.165
-0.18
-0.155
-0.09
-0.215
-0.29
-0.225
-0.29
-0.23
-0.185
-0.2
-0.23
-0.265
-0.245
-0.19
-0.245
-0.2
-0.175
-0.21
-0.225
-0.245
-0.24
-0.23
-0.155
-0.185
-0.295
-0.235
-0.175
-0.25
-0.305
-0.15
-0.255
-0.255
-0.215
-0.24
-0.235
-0.225
-0.17
-0.15
-0.22
-0.235
-0.29
-0.26
-0.215
-0.225
-0.21
-0.195
-0.205
-0.15
-0.155
-0.27
-0.33
-0.295
-0.26
-0.14
-0.11
-0.255
-0.325
-0.285
-0.245
-0.24
-0.205
-0.22
-0.225
-0.23
-0.22
-0.19
-0.19
-0.205
-0.255
-0.265
-0.305
-0.28
-0.17
-0.2
-0.215
-0.255
-0.26
-0.26
-0.265
-0.27
-0.275
-0.28
-0.305
-0.235
-0.245
-0.165
-0.145
-0.195
-0.18
-0.16
-0.215
-0.21
-0.2
-0.215
-0.21
-0.225
-0.29
-0.235
-0.165
-0.195
-0.165
-0.145
-0.13
-0.22
-0.16
-0.2
-0.205
-0.1
-0.16
-0.215
-0.18
-0.12
-0.15
-0.16
-0.17
-0.26
-0.32
-0.275
-0.22
-0.2
-0.235
-0.235
-0.27
-0.265
-0.205
-0.205
-0.225
-0.275
-0.29
-0.315
-0.245
-0.21
-0.26
-0.255
-0.2
-0.14
-0.215
-0.23
-0.21
-0.235
-0.245
-0.22
-0.245
-0.21
-0.175
-0.275
-0.305
-0.32
-0.255
-0.19
-0.2
-0.175
-0.19
-0.095
0.01
0.11
0.265
0.315
0.47
0.435
0.57
0.585
0.545
0.5
0.49
0.345
0.0
-0.155
-0.295
-0.35
-0.49
-0.68
-0.905
-1.0
-0.91
-0.9
-0.8
-0.705
-0.645
-0.615
-0.535
-0.44
-0.425
-0.36
-0.33
-0.365
-0.28
-0.29
-0.28
-0.27
-0.215
-0.26
-0.265
-0.25
-0.22
-0.205
-0.225
-0.15
-0.3
-0.245
-0.265
-0.305
-0.25
-0.225
-0.225
-0.21
-0.13
-0.165
-0.175
-0.17
-0.205
-0.245
-0.235
-0.25
-0.26
-0.26
-0.175
-0.205
-0.14
-0.225
-0.175
-0.21
-0.22
-0.145
-0.22
-0.265
-0.245
-0.17
-0.04
-0.055
-0.165
-0.125
-0.125
-0.185
-0.23
-0.195
-0.135
-0.125
-0.12
-0.155
-0.145
-0.135
-0.13
-0.115
-0.06
-0.095
-0.12
-0.09
-0.045
0.035
0.03
0.095
0.015
0.045
0.08
0.065
0.085
0.1
0.145
0.18
0.125
0.16
0.14
0.14
0.17
0.185
0.2
0.22
0.195
0.23
0.27
0.215
0.295
0.325
0.395
0.305
0.125
0.12
0.155
0.145
0.135
0.15
0.115
0.09
0.12
0.085
0.055
0.015
0.055
-0.02
-0.065
-0.08
-0.11
-0.13
-0.135
-0.065
-0.075
-0.16
-0.175
-0.225
-0.215
-0.195
-0.225
-0.205
-0.19
-0.245
-0.265
-0.26
-0.23
-0.195
-0.23
-0.235
-0.19
-0.22
-0.235
-0.265
-0.245
-0.22
-0.295
-0.315
-0.255
-0.275
-0.275
-0.225
-0.24
-0.24
-0.23
-0.22
-0.24
-0.285
-0.33
-0.23
-0.23
-0.225
-0.28
-0.275
-0.27
-0.28
-0.2
-0.235
-0.25
-0.235
-0.215
-0.225
-0.24
-0.245
-0.26
-0.25
-0.245
-0.28
-0.23
-0.24
-0.235
-0.185
-0.205
-0.235
-0.275
-0.245
-0.265
-0.3
-0.31
-0.26
-0.245
-0.265
-0.245
-0.215
-0.24
-0.25
-0.22
-0.175
-0.18
-0.185
-0.175
-0.215
-0.185
-0.275
-0.24
-0.245
-0.28
-0.325
-0.28
-0.255
-0.205
-0.245
-0.27
-0.26
-0.28
-0.23
-0.225
-0.205
-0.205
-0.28
-0.24
-0.205
-0.27
-0.305
-0.33
-0.3
-0.28
-0.19
-0.17
-0.24
-0.265
-0.28
-0.29
-0.28
-0.24
-0.22
-0.225
-0.21
-0.245
-0.27
-0.24
-0.215
-0.22
-0.2
-0.2
-0.225
-0.21
-0.235
-0.24
-0.255
-0.215
-0.25
-0.215
-0.21
-0.265
-0.31
-0.265
-0.215
-0.165
-0.145
-0.08
-0.115
-0.165
-0.19
-0.18
-0.225
-0.17
-0.19
-0.34
-0.35
-0.265
-0.17
-0.16
-0.17
-0.195
-0.24
-0.26
-0.245
-0.245
-0.295
-0.295
-0.225
-0.21
-0.235
-0.22
-0.255
-0.275
-0.28
-0.285
-0.255
-0.245
-0.24
-0.275
-0.275
-0.25
-0.255
-0.28
-0.235
-0.295
-0.245
-0.235
-0.29
-0.24
-0.265
-0.26
-0.275
-0.3
-0.34
-0.285
-0.185
-0.15
-0.175
-0.095
0.02
0.115
0.23
0.385
0.44
0.415
0.47
0.465
0.505
0.49
0.515
0.175
-0.115
-0.28
-0.38
-0.46
-0.635
-0.775
-0.96
-0.97
-0.93
-0.855
-0.755
-0.69
-0.58
-0.525
-0.535
-0.465
-0.445
-0.35
-0.35
-0.33
-0.35
-0.265
-0.245
-0.28
-0.205
-0.18
-0.23
-0.24
-0.235
