# TIPE ECG 2021 - ECG-ID Database v1.0.0 par Physionet
# [Numéro de la personne, Période d'échantillonnage, Prénom, Age, Sexe, Date de l'enregistrement]
[67, 0.002, Jack, 39, H, 12.05.2005]
-0.315
-0.305
-0.31
-0.345
-0.31
-0.35
-0.315
-0.3
-0.305
-0.3
-0.29
-0.305
-0.325
-0.3
-0.27
-0.295
-0.315
-0.31
-0.33
-0.315
-0.31
-0.305
-0.285
-0.27
-0.32
-0.29
-0.285
-0.29
-0.295
-0.315
-0.295
-0.285
-0.255
-0.29
-0.305
-0.325
-0.325
-0.3
-0.31
-0.305
-0.31
-0.28
-0.29
-0.28
-0.275
-0.28
-0.24
-0.26
-0.295
-0.33
-0.325
-0.275
-0.27
-0.265
-0.26
-0.26
-0.295
-0.295
-0.295
-0.3
-0.285
-0.29
-0.275
-0.25
-0.305
-0.305
-0.3
-0.285
-0.29
-0.305
-0.27
-0.285
-0.295
-0.295
-0.285
-0.285
-0.29
-0.29
-0.3
-0.28
-0.315
-0.315
-0.325
-0.315
-0.29
-0.3
-0.315
-0.29
-0.31
-0.28
-0.275
-0.31
-0.32
-0.31
-0.285
-0.305
-0.28
-0.285
-0.305
-0.29
-0.31
-0.3
-0.295
-0.305
-0.29
-0.295
-0.305
-0.3
-0.315
-0.25
-0.285
-0.325
-0.34
-0.305
-0.285
-0.325
-0.315
-0.33
-0.315
-0.295
-0.3
-0.315
-0.305
-0.325
-0.32
-0.32
-0.315
-0.31
-0.315
-0.33
-0.31
-0.29
-0.29
-0.295
-0.28
-0.295
-0.295
-0.305
-0.32
-0.335
-0.34
-0.34
-0.33
-0.34
-0.33
-0.3
-0.315
-0.285
-0.275
-0.285
-0.3
-0.315
-0.315
-0.315
-0.315
-0.31
-0.3
-0.285
-0.28
-0.32
-0.325
-0.33
-0.36
-0.355
-0.325
-0.31
-0.295
-0.28
-0.305
-0.3
-0.305
-0.315
-0.305
-0.315
-0.345
-0.33
-0.295
-0.275
-0.29
-0.31
-0.305
-0.325
-0.29
-0.275
-0.305
-0.33
-0.3
-0.305
-0.305
-0.29
-0.285
-0.31
-0.295
-0.29
-0.31
-0.3
-0.3
-0.315
-0.3
-0.295
-0.31
-0.305
-0.305
-0.34
-0.31
-0.32
-0.305
-0.295
-0.315
-0.33
-0.315
-0.31
-0.305
-0.32
-0.31
-0.3
-0.29
-0.295
-0.305
-0.305
-0.31
-0.33
-0.31
-0.31
-0.285
-0.29
-0.3
-0.28
-0.285
-0.285
-0.305
-0.3
-0.285
-0.305
-0.32
-0.335
-0.315
-0.315
-0.305
-0.29
-0.26
-0.28
-0.305
-0.325
-0.325
-0.31
-0.315
-0.295
-0.31
-0.295
-0.315
-0.31
-0.32
-0.285
-0.31
-0.31
-0.3
-0.3
-0.285
-0.31
-0.325
-0.29
-0.275
-0.29
-0.28
-0.285
-0.265
-0.26
-0.275
-0.255
-0.275
-0.285
-0.28
-0.275
-0.26
-0.255
-0.235
-0.22
-0.2
-0.225
-0.235
-0.23
-0.195
-0.21
-0.21
-0.18
-0.2
-0.22
-0.225
-0.235
-0.215
-0.225
-0.195
-0.21
-0.175
-0.175
-0.185
-0.21
-0.24
-0.235
-0.265
-0.28
-0.265
-0.28
-0.245
-0.26
-0.325
-0.355
-0.36
-0.33
-0.335
-0.325
-0.32
-0.36
-0.365
-0.34
-0.335
-0.33
-0.33
-0.335
-0.345
-0.365
-0.35
-0.35
-0.345
-0.32
-0.335
-0.37
-0.36
-0.37
-0.36
-0.355
-0.375
-0.375
-0.335
-0.3
-0.275
-0.225
-0.135
-0.01
0.12
0.24
0.405
0.575
0.735
0.815
0.855
0.835
0.685
0.49
0.225
-0.05
-0.27
-0.485
-0.605
-0.675
-0.69
-0.695
-0.695
-0.675
-0.68
-0.62
-0.58
-0.57
-0.525
-0.495
-0.48
-0.455
-0.4
-0.375
-0.355
-0.335
-0.335
-0.32
-0.315
-0.325
-0.305
-0.325
-0.335
-0.315
-0.31
-0.31
-0.33
-0.335
-0.305
-0.32
-0.31
-0.305
-0.295
-0.32
-0.31
-0.305
-0.29
-0.29
-0.285
-0.275
-0.275
-0.28
-0.28
-0.265
-0.27
-0.29
-0.285
-0.31
-0.265
-0.275
-0.28
-0.28
-0.29
-0.28
-0.275
-0.23
-0.21
-0.255
-0.245
-0.24
-0.245
-0.26
-0.245
-0.235
-0.235
-0.235
-0.22
-0.225
-0.215
-0.23
-0.215
-0.19
-0.175
-0.19
-0.21
-0.21
-0.18
-0.18
-0.165
-0.165
-0.165
-0.165
-0.17
-0.14
-0.13
-0.11
-0.13
-0.125
-0.075
-0.115
-0.105
-0.065
-0.035
-0.04
-0.025
-0.015
-0.015
0.01
0.01
0.02
0.03
0.045
0.06
0.065
0.065
0.085
0.095
0.095
0.105
0.12
0.115
0.125
0.125
0.13
0.115
0.105
0.09
0.1
0.07
0.06
0.055
0.06
0.07
0.025
0.015
-0.01
-0.04
-0.075
-0.08
-0.09
-0.125
-0.15
-0.175
-0.2
-0.17
-0.195
-0.195
-0.2
-0.205
-0.245
-0.27
-0.27
-0.26
-0.29
-0.27
-0.26
-0.3
-0.325
-0.335
-0.335
-0.335
-0.33
-0.33
-0.33
-0.365
-0.345
-0.365
-0.375
-0.37
-0.345
-0.345
-0.325
-0.32
-0.355
-0.325
-0.335
-0.345
-0.325
-0.335
-0.345
-0.355
-0.35
-0.35
-0.345
-0.34
-0.335
-0.345
-0.33
-0.36
-0.36
-0.375
-0.365
-0.34
-0.325
-0.36
-0.37
-0.37
-0.335
-0.325
-0.375
-0.35
-0.35
-0.35
-0.375
-0.355
-0.35
-0.36
-0.355
-0.335
-0.345
-0.355
-0.355
-0.345
-0.305
-0.315
-0.335
-0.33
-0.315
-0.335
-0.335
-0.33
-0.345
-0.345
-0.32
-0.325
-0.32
-0.32
-0.305
-0.315
-0.325
-0.315
-0.335
-0.35
-0.305
-0.305
-0.33
-0.34
-0.34
-0.325
-0.32
-0.32
-0.325
-0.335
-0.33
-0.33
-0.345
-0.295
-0.325
-0.36
-0.335
-0.335
-0.33
-0.325
-0.325
-0.32
-0.35
-0.345
-0.345
-0.36
-0.345
-0.315
-0.345
-0.325
-0.34
-0.315
-0.34
-0.355
-0.32
-0.305
-0.335
-0.32
-0.345
-0.35
-0.345
-0.355
-0.35
-0.355
-0.355
-0.355
-0.35
-0.37
-0.345
-0.36
-0.335
-0.335
-0.33
-0.345
-0.36
-0.345
-0.35
-0.34
-0.345
-0.37
-0.345
-0.355
-0.345
-0.36
-0.375
-0.355
-0.325
-0.355
-0.39
-0.37
-0.37
-0.36
-0.38
-0.38
-0.34
-0.345
-0.36
-0.355
-0.35
-0.335
-0.325
-0.36
-0.365
-0.35
-0.335
-0.36
-0.37
-0.39
-0.37
-0.355
-0.355
-0.36
-0.355
-0.37
-0.37
-0.37
-0.37
-0.345
-0.35
-0.36
-0.345
-0.35
-0.375
-0.365
-0.38
-0.36
-0.335
-0.325
-0.37
-0.405
-0.385
-0.39
-0.395
-0.38
-0.345
-0.365
-0.405
-0.385
-0.385
-0.375
-0.415
-0.405
-0.38
-0.4
-0.41
-0.41
-0.395
-0.39
-0.4
-0.41
-0.415
-0.425
-0.41
-0.405
-0.42
-0.405
-0.415
-0.395
-0.405
-0.41
-0.41
-0.43
-0.4
-0.405
-0.42
-0.425
-0.425
-0.415
-0.435
-0.42
-0.415
-0.43
-0.42
-0.42
-0.44
-0.43
-0.42
-0.405
-0.415
-0.415
-0.41
-0.46
-0.43
-0.435
-0.46
-0.45
-0.415
-0.405
-0.375
-0.365
-0.38
-0.45
-0.465
-0.445
-0.44
-0.43
-0.42
-0.42
-0.43
-0.43
-0.435
-0.44
-0.43
-0.455
-0.45
-0.445
-0.435
-0.44
-0.445
-0.42
-0.395
-0.42
-0.455
-0.44
-0.43
-0.435
-0.43
-0.44
-0.44
-0.445
-0.43
-0.43
-0.43
-0.43
-0.45
-0.47
-0.45
-0.415
-0.445
-0.45
-0.445
-0.43
-0.435
-0.42
-0.405
-0.44
-0.43
-0.445
-0.42
-0.435
-0.415
-0.42
-0.405
-0.42
-0.43
-0.42
-0.41
-0.42
-0.4
-0.37
-0.385
-0.4
-0.41
-0.42
-0.395
-0.39
-0.39
-0.405
-0.395
-0.36
-0.34
-0.33
-0.33
-0.325
-0.335
-0.33
-0.32
-0.31
-0.34
-0.33
-0.32
-0.32
-0.35
-0.35
-0.315
-0.325
-0.315
-0.31
-0.34
-0.33
-0.335
-0.345
-0.375
-0.39
-0.38
-0.385
-0.435
-0.43
-0.44
-0.43
-0.445
-0.445
-0.455
-0.435
-0.44
-0.405
-0.42
-0.47
-0.465
-0.455
-0.45
-0.44
-0.435
-0.45
-0.455
-0.485
-0.47
-0.47
-0.475
-0.46
-0.475
-0.44
-0.42
-0.46
-0.51
-0.505
-0.5
-0.485
-0.46
-0.43
-0.365
-0.24
-0.125
0.0
0.15
0.34
0.48
0.65
0.73
0.76
0.755
0.62
0.41
0.125
-0.12
-0.32
-0.52
-0.66
-0.72
-0.755
-0.77
-0.77
-0.78
-0.73
-0.705
-0.69
-0.65
-0.625
-0.57
-0.52
-0.495
-0.48
-0.46
-0.45
-0.445
-0.435
-0.43
-0.435
-0.465
-0.44
-0.445
-0.445
-0.44
-0.41
-0.435
-0.42
-0.435
-0.425
-0.405
-0.42
-0.425
-0.415
-0.42
-0.42
-0.405
-0.415
-0.425
-0.395
-0.385
-0.42
-0.435
-0.45
-0.435
-0.42
-0.415
-0.405
-0.39
-0.395
-0.41
-0.425
-0.405
-0.37
-0.36
-0.355
-0.39
-0.37
-0.36
-0.39
-0.395
-0.375
-0.36
-0.395
-0.41
-0.39
-0.385
-0.37
-0.355
-0.345
-0.34
-0.325
-0.32
-0.295
-0.32
-0.315
-0.315
-0.305
-0.32
-0.305
-0.31
-0.29
-0.27
-0.265
-0.255
-0.255
-0.255
-0.245
-0.25
-0.23
-0.195
-0.18
-0.16
-0.165
-0.165
-0.18
-0.165
-0.135
-0.14
-0.11
-0.1
-0.085
-0.065
-0.05
-0.04
-0.06
-0.055
-0.06
-0.02
-0.03
-0.025
-0.025
-0.01
0.05
0.015
-0.025
-0.025
-0.02
-0.025
-0.035
-0.06
-0.065
-0.1
-0.085
-0.095
-0.1
-0.12
-0.155
-0.185
-0.165
-0.2
-0.26
-0.275
-0.255
-0.275
-0.27
-0.315
-0.325
-0.355
-0.34
-0.355
-0.37
-0.385
-0.395
-0.395
-0.375
-0.385
-0.435
-0.465
-0.435
-0.43
-0.46
-0.475
-0.46
-0.425
-0.435
-0.44
-0.46
-0.465
-0.445
-0.445
-0.455
-0.46
-0.42
-0.435
-0.485
-0.47
-0.46
-0.47
-0.455
-0.455
-0.455
-0.46
-0.46
-0.465
-0.475
-0.48
-0.465
-0.435
-0.475
-0.48
-0.46
-0.46
-0.455
-0.47
-0.47
-0.47
-0.475
-0.465
-0.46
-0.46
-0.475
-0.46
-0.46
-0.45
-0.465
-0.455
-0.45
-0.46
-0.48
-0.48
-0.455
-0.41
-0.4
-0.45
-0.495
-0.48
-0.465
-0.45
-0.43
-0.455
-0.455
-0.425
-0.42
-0.42
-0.42
-0.445
-0.48
-0.425
-0.435
-0.46
-0.475
-0.465
-0.46
-0.48
-0.455
-0.44
-0.435
-0.42
-0.445
-0.425
-0.445
-0.45
-0.455
-0.47
-0.465
-0.465
-0.47
-0.46
-0.44
-0.455
-0.46
-0.44
-0.435
-0.445
-0.435
-0.43
-0.445
-0.455
-0.455
-0.465
-0.48
-0.47
-0.47
-0.485
-0.47
-0.445
-0.435
-0.475
-0.475
-0.455
-0.425
-0.465
-0.495
-0.485
-0.44
-0.455
-0.46
-0.475
-0.46
-0.435
-0.48
-0.5
-0.48
-0.495
-0.52
-0.505
-0.5
-0.475
-0.485
-0.475
-0.455
-0.44
-0.46
-0.455
-0.47
-0.48
-0.475
-0.49
-0.485
-0.48
-0.485
-0.48
-0.49
-0.475
-0.475
-0.495
-0.485
-0.475
-0.46
-0.485
-0.475
-0.495
-0.5
-0.49
-0.475
-0.49
-0.485
-0.475
-0.475
-0.48
-0.47
-0.455
-0.46
-0.5
-0.51
-0.5
-0.49
-0.455
-0.495
-0.515
-0.49
-0.465
-0.485
-0.495
-0.49
-0.475
-0.47
-0.44
-0.48
-0.495
-0.495
-0.475
-0.51
-0.505
-0.495
-0.515
-0.525
-0.505
-0.495
-0.475
-0.49
-0.48
-0.48
-0.485
-0.46
-0.465
-0.48
-0.465
-0.49
-0.485
-0.485
-0.505
-0.49
-0.5
-0.49
-0.52
-0.5
-0.495
-0.49
-0.475
-0.48
-0.505
-0.49
-0.485
-0.475
-0.485
-0.475
-0.44
-0.485
-0.52
-0.505
-0.495
-0.485
-0.475
-0.51
-0.515
-0.52
-0.515
-0.51
-0.515
-0.5
-0.495
-0.495
-0.5
-0.5
-0.495
-0.485
-0.495
-0.515
-0.495
-0.485
-0.505
-0.51
-0.515
-0.515
-0.495
-0.47
-0.44
-0.47
-0.47
-0.52
-0.515
-0.5
-0.49
-0.475
-0.49
-0.505
-0.485
-0.495
-0.48
-0.495
-0.495
-0.51
-0.495
-0.525
-0.53
-0.505
-0.5
-0.505
-0.48
-0.515
-0.5
-0.5
-0.5
-0.52
-0.52
-0.515
-0.48
-0.46
-0.47
-0.5
-0.52
-0.525
-0.505
-0.49
-0.49
-0.475
-0.47
-0.485
-0.475
-0.48
-0.49
-0.51
-0.505
-0.535
-0.505
-0.5
-0.51
-0.48
-0.475
-0.475
-0.495
-0.48
-0.47
-0.445
-0.46
-0.475
-0.46
-0.465
-0.485
-0.465
-0.445
-0.435
-0.44
-0.445
-0.43
-0.45
-0.42
-0.405
-0.395
-0.395
-0.38
-0.37
-0.355
-0.375
-0.38
-0.365
-0.39
-0.395
-0.375
-0.41
-0.415
-0.4
-0.38
-0.375
-0.33
-0.395
-0.445
-0.43
-0.45
-0.45
-0.45
-0.44
-0.46
-0.455
-0.48
-0.475
-0.49
-0.5
-0.515
-0.54
-0.53
-0.515
-0.485
-0.485
-0.495
-0.52
-0.54
-0.52
-0.51
-0.5
-0.505
-0.515
-0.525
-0.52
-0.515
-0.53
-0.545
-0.545
-0.54
-0.565
-0.575
-0.56
-0.495
-0.475
-0.45
-0.39
-0.32
-0.17
-0.015
0.145
0.285
0.43
0.595
0.655
0.69
0.645
0.5
0.295
0.005
-0.25
-0.465
-0.665
-0.765
-0.84
-0.865
-0.87
-0.85
-0.84
-0.81
-0.79
-0.77
-0.735
-0.665
-0.65
-0.6
-0.54
-0.53
-0.54
-0.545
-0.525
-0.52
-0.495
-0.495
-0.51
-0.485
-0.49
-0.495
-0.505
-0.495
-0.49
-0.47
-0.485
-0.495
-0.495
-0.495
-0.49
-0.47
-0.47
-0.48
-0.47
-0.465
-0.47
-0.47
-0.435
-0.475
-0.48
-0.475
-0.465
-0.45
-0.465
-0.475
-0.485
-0.47
-0.425
-0.41
-0.41
-0.42
-0.415
-0.42
-0.44
-0.43
-0.43
-0.41
-0.395
-0.42
-0.42
-0.385
-0.395
-0.405
-0.425
-0.405
-0.395
-0.4
-0.38
-0.38
-0.38
-0.35
-0.33
-0.32
-0.345
-0.37
-0.34
-0.34
-0.345
-0.34
-0.335
-0.315
-0.3
-0.25
-0.25
-0.265
-0.275
-0.26
-0.235
-0.22
-0.235
-0.22
-0.19
-0.17
-0.125
-0.155
-0.185
-0.15
-0.13
-0.095
-0.1
-0.1
-0.08
-0.06
-0.06
-0.06
-0.045
-0.055
-0.035
-0.035
-0.025
-0.025
-0.02
-0.035
-0.045
-0.035
-0.045
-0.04
-0.065
-0.08
-0.09
-0.125
-0.125
-0.145
-0.195
-0.185
-0.17
-0.205
-0.235
-0.255
-0.305
-0.3
-0.315
-0.375
-0.365
-0.36
-0.4
-0.405
-0.395
-0.39
-0.42
-0.43
-0.45
-0.46
-0.465
-0.475
-0.47
-0.46
-0.485
-0.5
-0.515
-0.495
-0.48
-0.51
-0.535
-0.54
-0.51
-0.495
-0.505
-0.515
-0.52
-0.515
-0.525
-0.54
-0.52
-0.5
-0.495
-0.5
-0.51
-0.505
-0.48
-0.495
-0.51
-0.5
-0.52
-0.525
-0.515
-0.52
-0.485
-0.505
-0.525
-0.52
-0.52
-0.535
-0.545
-0.55
-0.52
-0.47
-0.49
-0.495
-0.51
-0.525
-0.505
-0.505
-0.51
-0.495
-0.49
-0.525
-0.505
-0.505
-0.5
-0.52
-0.525
-0.525
-0.495
-0.505
-0.525
-0.51
-0.515
-0.485
-0.475
-0.47
-0.49
-0.485
-0.485
-0.495
-0.49
-0.465
-0.49
-0.51
-0.51
-0.5
-0.49
-0.5
-0.49
-0.505
-0.5
-0.495
-0.495
-0.5
-0.505
-0.495
-0.485
-0.49
-0.505
-0.52
-0.525
-0.495
-0.5
-0.485
-0.505
-0.505
-0.49
-0.5
-0.495
-0.485
-0.505
-0.505
-0.515
-0.505
-0.49
-0.49
-0.495
-0.5
-0.51
-0.495
-0.5
-0.475
-0.46
-0.5
-0.525
-0.52
-0.515
-0.52
-0.525
-0.525
-0.52
-0.505
-0.53
-0.515
-0.515
-0.51
-0.52
-0.54
-0.535
-0.525
-0.54
-0.545
-0.55
-0.55
-0.515
-0.54
-0.505
-0.53
-0.52
-0.54
-0.535
-0.515
-0.5
-0.525
-0.53
-0.525
-0.535
-0.545
-0.535
-0.53
-0.54
-0.515
-0.5
-0.515
-0.535
-0.525
-0.555
-0.535
-0.525
-0.54
-0.525
-0.525
-0.53
-0.535
-0.545
-0.525
-0.545
-0.5
-0.525
-0.56
-0.57
-0.545
-0.54
-0.53
-0.535
-0.525
-0.51
-0.54
-0.565
-0.58
-0.565
-0.55
-0.55
-0.55
-0.54
-0.535
-0.53
-0.53
-0.53
-0.51
-0.55
-0.545
-0.555
-0.515
-0.545
-0.555
-0.55
-0.525
-0.525
-0.535
-0.555
-0.54
-0.535
-0.535
-0.53
-0.555
-0.535
-0.55
-0.56
-0.575
-0.565
-0.58
-0.57
-0.535
-0.54
-0.51
-0.53
-0.545
-0.575
-0.565
-0.545
-0.545
-0.55
-0.555
-0.56
-0.57
-0.575
-0.58
-0.56
-0.55
-0.56
-0.54
-0.52
-0.51
-0.54
-0.575
-0.57
-0.565
-0.555
-0.565
-0.555
-0.545
-0.555
-0.545
-0.545
-0.56
-0.575
-0.565
-0.58
-0.565
-0.535
-0.54
-0.56
-0.56
-0.575
-0.565
-0.57
-0.565
-0.555
-0.55
-0.565
-0.55
-0.57
-0.555
-0.555
-0.575
-0.56
-0.545
-0.52
-0.56
-0.575
-0.565
-0.545
-0.54
-0.545
-0.555
-0.57
-0.565
-0.57
-0.565
-0.545
-0.535
-0.56
-0.58
-0.57
-0.555
-0.58
-0.575
-0.57
-0.565
-0.54
-0.54
-0.545
-0.57
-0.56
-0.54
-0.535
-0.53
-0.515
-0.485
-0.495
-0.505
-0.54
-0.54
-0.53
-0.52
-0.515
-0.505
-0.525
-0.5
-0.505
-0.51
-0.485
-0.475
-0.45
-0.445
-0.45
-0.395
-0.425
-0.455
-0.445
-0.45
-0.45
-0.45
-0.455
-0.47
-0.47
-0.475
-0.515
-0.48
-0.455
-0.435
-0.47
-0.455
-0.485
-0.49
-0.525
-0.525
-0.555
-0.55
-0.56
-0.56
-0.57
-0.585
-0.555
-0.56
-0.585
-0.585
-0.565
-0.57
-0.575
-0.575
-0.595
-0.595
-0.61
-0.605
-0.595
-0.585
-0.57
-0.57
-0.575
-0.615
-0.6
-0.565
-0.605
-0.625
-0.625
-0.635
-0.65
-0.605
-0.565
-0.52
-0.49
-0.41
-0.29
-0.19
-0.045
0.155
0.33
0.52
0.615
0.64
0.62
0.48
0.3
0.06
-0.23
-0.425
-0.61
-0.79
-0.86
-0.93
-0.93
-0.925
-0.895
-0.88
-0.86
-0.845
-0.805
-0.75
-0.705
-0.665
-0.65
-0.6
-0.61
-0.575
-0.575
-0.58
-0.57
-0.57
-0.565
-0.59
-0.565
-0.565
-0.57
-0.565
-0.56
-0.545
-0.53
-0.555
-0.565
-0.56
-0.54
-0.565
-0.565
-0.57
-0.58
-0.565
-0.545
-0.535
-0.55
-0.56
-0.535
-0.535
-0.53
-0.53
-0.56
-0.535
-0.545
-0.505
-0.495
-0.525
-0.5
-0.495
-0.51
-0.51
-0.485
-0.515
-0.525
-0.525
-0.505
-0.51
-0.51
-0.48
-0.495
-0.5
-0.495
-0.5
-0.465
-0.465
-0.46
-0.475
-0.47
-0.455
-0.46
-0.47
-0.45
-0.46
-0.42
-0.405
-0.405
-0.385
-0.37
-0.405
-0.425
-0.4
-0.38
-0.38
-0.37
-0.365
-0.345
-0.315
-0.305
-0.3
-0.305
-0.27
-0.27
-0.275
-0.23
-0.215
-0.205
-0.195
-0.21
-0.195
-0.175
-0.16
-0.175
-0.155
-0.14
-0.14
-0.135
-0.145
-0.135
-0.12
-0.115
-0.115
-0.14
-0.17
-0.17
-0.135
-0.17
-0.18
-0.195
-0.25
-0.275
-0.25
-0.265
-0.275
-0.305
-0.315
-0.35
-0.365
-0.365
-0.41
-0.445
-0.425
-0.405
-0.455
-0.49
-0.495
-0.495
-0.5
-0.5
-0.505
-0.54
-0.545
-0.575
-0.575
-0.565
-0.53
-0.535
-0.565
-0.6
-0.605
-0.6
-0.575
-0.56
-0.6
-0.62
-0.61
-0.59
-0.58
-0.6
-0.61
-0.61
-0.605
-0.605
-0.595
-0.585
-0.605
-0.615
-0.62
-0.615
-0.605
-0.585
-0.585
-0.595
-0.595
-0.595
-0.595
-0.615
-0.625
-0.61
-0.62
-0.605
-0.6
-0.59
-0.605
-0.6
-0.6
-0.59
-0.6
-0.575
-0.6
-0.655
-0.625
-0.615
-0.605
-0.595
-0.6
-0.61
-0.605
-0.585
-0.59
-0.61
-0.63
-0.615
-0.575
-0.575
-0.59
-0.605
-0.6
-0.6
-0.605
-0.605
-0.605
-0.6
-0.585
-0.58
-0.595
-0.59
-0.595
-0.59
-0.595
-0.605
-0.6
-0.575
-0.6
-0.595
-0.585
-0.59
-0.595
-0.595
-0.595
-0.59
-0.59
-0.61
-0.61
-0.61
-0.605
-0.6
-0.58
-0.575
-0.615
-0.615
-0.625
-0.615
-0.585
-0.61
-0.625
-0.6
-0.59
-0.61
-0.615
-0.64
-0.61
-0.62
-0.625
-0.595
-0.57
-0.595
-0.615
-0.615
-0.64
-0.62
-0.615
-0.63
-0.61
-0.61
-0.61
-0.585
-0.59
-0.62
-0.65
-0.635
-0.645
-0.64
-0.615
-0.625
-0.64
-0.63
-0.625
-0.62
-0.62
-0.605
-0.58
-0.63
-0.62
-0.6
-0.63
-0.675
-0.65
-0.62
-0.63
-0.625
-0.635
-0.63
-0.635
-0.59
-0.625
-0.64
-0.64
-0.61
-0.63
-0.62
-0.615
-0.625
-0.625
-0.615
-0.61
-0.625
-0.635
-0.64
-0.64
-0.65
-0.645
-0.655
-0.65
-0.635
-0.615
-0.625
-0.625
-0.63
-0.64
-0.6
-0.62
-0.645
-0.65
-0.675
-0.645
-0.62
-0.645
-0.64
-0.635
-0.63
-0.615
-0.635
-0.655
-0.63
-0.64
-0.645
-0.64
-0.64
-0.655
-0.665
-0.645
-0.64
-0.615
-0.62
-0.63
-0.64
-0.65
-0.645
-0.65
-0.655
-0.64
-0.65
-0.63
-0.635
-0.635
-0.63
-0.61
-0.62
-0.605
-0.64
-0.66
-0.64
-0.68
-0.665
-0.625
-0.64
-0.63
-0.625
-0.625
-0.635
-0.66
-0.64
-0.625
-0.635
-0.655
-0.67
-0.67
-0.67
-0.655
-0.625
-0.625
-0.65
-0.66
-0.66
-0.66
-0.64
-0.635
-0.63
-0.63
-0.635
-0.655
-0.655
-0.615
-0.65
-0.665
-0.645
-0.64
-0.655
-0.645
-0.605
-0.64
-0.655
-0.64
-0.65
-0.65
-0.66
-0.64
-0.625
-0.63
-0.635
-0.66
-0.655
-0.625
-0.645
-0.655
-0.645
-0.65
-0.65
-0.655
-0.665
-0.65
-0.645
-0.64
-0.645
-0.62
-0.615
-0.635
-0.645
-0.655
-0.665
-0.665
-0.63
-0.615
-0.645
-0.635
-0.625
-0.635
-0.67
-0.675
-0.64
-0.645
-0.645
-0.62
-0.615
-0.605
-0.615
-0.615
-0.61
-0.605
-0.58
-0.62
-0.605
-0.6
-0.605
-0.62
-0.605
-0.58
-0.545
-0.545
-0.535
-0.525
-0.535
-0.495
-0.52
-0.515
-0.515
-0.54
-0.535
-0.505
-0.525
-0.55
-0.54
-0.555
-0.555
-0.56
-0.565
-0.55
-0.55
-0.55
-0.58
-0.56
-0.555
-0.6
-0.635
-0.615
-0.66
-0.65
-0.65
-0.635
-0.665
-0.675
-0.665
-0.64
-0.62
-0.645
-0.675
-0.665
-0.64
-0.67
-0.68
-0.685
-0.685
-0.68
-0.655
-0.675
-0.655
-0.66
-0.67
-0.655
-0.66
-0.695
-0.71
-0.74
-0.715
-0.675
-0.64
-0.615
-0.57
-0.495
-0.37
-0.24
-0.07
0.09
0.255
0.425
0.53
0.555
0.545
0.425
0.235
-0.015
-0.3
-0.49
-0.715
-0.855
-0.93
-0.99
-1.015
-1.025
-1.01
-1.005
-0.93
-0.885
-0.83
-0.795
-0.775
-0.765
-0.72
-0.675
-0.665
-0.66
-0.655
-0.655
-0.64
-0.65
-0.65
-0.65
-0.64
-0.655
-0.645
-0.645
-0.63
-0.63
-0.63
-0.625
-0.635
-0.63
-0.64
-0.63
-0.615
-0.615
-0.61
-0.625
-0.635
-0.625
-0.615
-0.605
-0.605
-0.61
-0.63
-0.62
-0.605
-0.61
-0.61
-0.59
-0.585
-0.565
-0.605
-0.64
-0.625
-0.615
-0.59
-0.585
-0.59
-0.565
-0.585
-0.59
-0.59
-0.58
-0.58
-0.565
-0.55
-0.56
-0.515
-0.505
-0.55
-0.595
-0.56
-0.54
-0.55
-0.55
-0.52
-0.53
-0.49
-0.48
-0.475
-0.48
-0.475
-0.485
-0.49
-0.495
-0.46
-0.435
-0.445
-0.435
-0.4
-0.4
-0.395
-0.4
-0.365
-0.37
-0.36
-0.345
-0.335
-0.325
-0.3
-0.3
-0.285
-0.285
-0.24
-0.24
-0.235
-0.215
-0.185
-0.21
-0.225
-0.215
-0.22
-0.195
-0.21
-0.2
-0.205
-0.205
-0.225
-0.235
-0.24
-0.255
-0.27
-0.275
-0.3
-0.295
-0.365
-0.375
-0.4
-0.425
-0.42
-0.425
-0.4
-0.445
-0.5
-0.52
-0.535
-0.55
-0.56
-0.55
-0.575
-0.57
-0.59
-0.625
-0.635
-0.605
-0.615
-0.61
-0.625
-0.625
-0.635
-0.64
-0.645
-0.635
-0.645
-0.635
-0.655
-0.635
-0.645
-0.66
-0.665
-0.68
-0.655
-0.66
-0.65
-0.64
-0.67
-0.67
-0.675
-0.66
-0.67
-0.685
-0.67
-0.7
-0.665
-0.67
-0.675
-0.67
-0.67
-0.67
-0.7
-0.695
-0.655
-0.67
-0.68
-0.65
-0.635
-0.645
-0.655
-0.655
-0.635
-0.635
-0.66
-0.705
-0.685
-0.655
-0.675
-0.655
-0.67
-0.68
-0.68
-0.67
-0.675
-0.675
-0.67
-0.66
-0.65
-0.65
-0.635
-0.645
-0.665
-0.67
-0.65
-0.655
-0.68
-0.665
-0.67
-0.67
-0.655
-0.65
-0.655
-0.66
-0.665
-0.675
-0.675
-0.66
-0.645
-0.63
-0.64
-0.655
-0.665
-0.655
-0.655
-0.67
-0.655
-0.655
-0.63
-0.66
-0.67
-0.655
-0.675
-0.655
-0.665
-0.665
-0.685
-0.675
-0.655
-0.66
-0.64
-0.63
-0.65
-0.695
-0.685
-0.67
-0.68
-0.675
-0.665
-0.68
-0.69
-0.68
-0.66
-0.655
-0.67
-0.71
-0.7
-0.715
-0.72
-0.705
-0.67
-0.67
-0.675
-0.68
-0.695
-0.675
-0.655
-0.665
-0.69
-0.695
-0.66
-0.69
-0.695
-0.7
-0.705
-0.685
-0.665
-0.69
-0.68
-0.675
-0.685
-0.71
-0.68
-0.685
-0.67
-0.68
-0.715
-0.72
-0.705
-0.68
-0.685
-0.705
-0.675
-0.67
-0.71
-0.735
-0.7
-0.7
-0.685
-0.7
-0.705
-0.705
-0.71
-0.735
-0.695
-0.705
-0.73
-0.705
-0.7
-0.705
-0.72
-0.705
-0.7
-0.71
-0.695
-0.695
-0.715
-0.7
-0.68
-0.69
-0.705
-0.715
-0.71
-0.705
-0.705
-0.705
-0.73
-0.725
-0.705
-0.71
-0.715
-0.735
-0.71
-0.695
-0.705
-0.715
-0.695
-0.725
-0.73
-0.7
-0.71
-0.68
-0.685
-0.7
-0.715
-0.75
-0.72
-0.705
-0.705
-0.71
-0.71
-0.685
-0.69
-0.735
-0.72
-0.71
-0.705
-0.69
-0.695
-0.715
-0.705
-0.675
-0.66
-0.67
-0.7
-0.705
-0.69
-0.695
-0.71
-0.7
-0.7
-0.69
-0.685
-0.675
-0.675
-0.675
-0.705
-0.725
-0.74
-0.73
-0.71
-0.68
-0.685
-0.7
-0.7
-0.69
-0.675
-0.67
-0.685
-0.69
-0.7
-0.7
-0.65
-0.66
-0.665
-0.685
-0.715
-0.735
-0.71
-0.695
-0.675
-0.69
-0.68
-0.685
-0.685
-0.68
-0.675
-0.65
-0.69
-0.71
-0.69
-0.685
-0.685
-0.71
-0.7
-0.675
-0.685
-0.68
-0.675
-0.645
-0.665
-0.675
-0.685
-0.665
-0.67
-0.685
-0.685
-0.69
-0.71
-0.69
-0.68
-0.665
-0.665
-0.68
-0.675
-0.655
-0.645
-0.655
-0.67
-0.65
-0.655
-0.64
-0.655
-0.66
-0.64
-0.64
-0.655
-0.655
-0.645
-0.64
-0.61
-0.6
-0.615
-0.615
-0.58
-0.575
-0.575
-0.555
-0.545
-0.565
-0.585
-0.575
-0.56
-0.595
-0.605
-0.6
-0.6
-0.6
-0.6
-0.605
-0.585
-0.565
-0.6
-0.62
-0.61
-0.63
-0.655
-0.665
-0.675
-0.655
-0.67
-0.695
-0.675
-0.67
-0.68
-0.69
-0.7
-0.7
-0.705
-0.705
-0.69
-0.695
-0.705
-0.7
-0.705
-0.685
-0.68
-0.65
-0.645
-0.69
-0.705
-0.695
-0.685
-0.68
-0.705
-0.705
-0.735
-0.745
-0.685
-0.625
-0.595
-0.59
-0.49
-0.355
-0.235
-0.095
0.055
0.22
0.375
0.465
0.52
0.495
0.365
0.15
-0.09
-0.375
-0.65
-0.87
-0.98
-1.055
-1.07
-1.065
-1.02
-0.975
-0.98
-0.975
-0.945
-0.89
-0.84
-0.825
-0.78
-0.76
-0.765
-0.71
-0.695
-0.69
-0.665
-0.635
-0.66
-0.675
-0.655
-0.65
-0.645
-0.655
-0.66
-0.625
-0.62
-0.625
-0.65
-0.65
-0.64
-0.63
-0.64
-0.64
-0.625
-0.655
-0.625
-0.62
-0.64
-0.595
-0.575
-0.585
-0.595
-0.585
-0.595
-0.615
-0.6
-0.595
-0.59
-0.595
-0.6
-0.6
-0.6
-0.585
-0.59
-0.57
-0.57
-0.57
-0.56
-0.57
-0.58
-0.56
-0.54
-0.545
-0.53
-0.535
-0.565
-0.545
-0.55
-0.54
-0.53
-0.515
-0.52
-0.51
-0.515
-0.53
-0.52
-0.495
-0.49
-0.48
-0.405
-0.4
-0.455
-0.51
-0.465
-0.43
-0.41
-0.4
-0.405
-0.41
-0.365
-0.355
-0.36
-0.335
-0.315
-0.335
-0.305
-0.3
-0.28
-0.27
-0.265
-0.27
-0.255
-0.23
-0.21
-0.195
-0.17
-0.19
-0.215
-0.195
-0.175
-0.185
-0.165
-0.16
-0.17
-0.17
-0.185
-0.205
-0.19
-0.215
-0.215
-0.255
-0.27
-0.27
-0.275
-0.305
-0.31
-0.34
-0.375
-0.39
-0.395
-0.42
-0.41
-0.435
-0.48
-0.5
-0.495
-0.475
-0.5
-0.55
-0.57
-0.565
-0.57
-0.59
-0.58
-0.58
-0.59
-0.595
-0.595
-0.615
-0.615
-0.645
-0.65
-0.635
-0.645
-0.625
-0.625
-0.635
-0.645
-0.615
-0.615
-0.625
-0.63
-0.635
-0.635
-0.63
-0.63
-0.625
-0.635
-0.635
-0.625
-0.605
-0.645
-0.665
-0.655
-0.655
-0.635
-0.615
-0.605
-0.59
-0.61
-0.645
-0.645
-0.65
-0.65
-0.635
-0.64
-0.62
-0.615
-0.625
-0.63
-0.64
-0.625
-0.64
-0.675
-0.615
-0.63
-0.625
-0.62
-0.605
-0.59
-0.62
-0.575
-0.58
-0.6
-0.605
-0.61
-0.615
-0.625
-0.62
-0.63
-0.61
-0.6
-0.595
-0.605
-0.605
-0.62
-0.635
-0.635
-0.59
-0.615
-0.62
-0.605
-0.61
-0.615
-0.6
-0.58
-0.59
-0.61
-0.615
-0.635
-0.63
-0.62
-0.615
-0.62
-0.62
-0.62
-0.61
-0.605
-0.61
-0.595
-0.62
-0.625
-0.625
-0.615
-0.63
-0.615
-0.605
-0.61
-0.62
-0.625
-0.64
-0.62
-0.615
-0.61
-0.61
-0.59
-0.625
-0.645
-0.65
-0.65
-0.64
-0.635
-0.615
-0.62
-0.61
-0.61
-0.62
-0.64
-0.625
-0.625
-0.62
-0.625
-0.605
-0.625
-0.62
-0.655
-0.65
-0.625
-0.64
-0.635
-0.625
-0.64
-0.65
-0.64
-0.6
-0.6
-0.625
-0.645
-0.63
-0.64
-0.65
-0.645
-0.645
-0.675
-0.655
-0.645
-0.61
-0.595
-0.59
-0.62
-0.65
-0.675
-0.65
-0.64
-0.645
-0.625
-0.64
-0.645
-0.655
-0.645
-0.64
-0.655
-0.655
-0.645
-0.64
-0.635
-0.615
-0.62
-0.63
-0.65
-0.665
-0.64
-0.635
-0.62
-0.615
-0.63
-0.665
-0.67
-0.655
-0.685
-0.655
-0.64
-0.645
-0.635
-0.65
-0.65
-0.655
-0.65
-0.65
-0.635
-0.62
-0.645
-0.675
-0.705
-0.665
-0.65
-0.67
-0.68
-0.65
-0.635
-0.65
-0.645
-0.66
-0.655
-0.645
-0.65
-0.635
-0.645
-0.655
-0.66
-0.655
-0.64
-0.625
-0.61
-0.645
-0.68
-0.665
-0.66
-0.64
-0.665
-0.665
-0.655
-0.65
-0.625
-0.64
-0.67
-0.67
-0.65
-0.655
-0.665
-0.685
-0.675
-0.665
-0.67
-0.635
-0.645
-0.655
-0.685
-0.67
-0.635
-0.63
-0.64
-0.655
-0.645
-0.66
-0.66
-0.67
-0.645
-0.64
-0.645
-0.665
-0.645
-0.635
-0.65
-0.625
-0.65
-0.65
-0.65
-0.665
-0.655
-0.645
-0.62
-0.65
-0.655
-0.67
-0.67
-0.67
-0.655
-0.655
-0.665
-0.66
-0.665
-0.66
-0.65
-0.655
-0.64
-0.635
-0.655
-0.67
-0.645
-0.625
-0.625
-0.64
-0.635
-0.61
-0.63
-0.615
-0.615
-0.64
-0.62
-0.63
-0.615
-0.605
-0.59
-0.595
-0.61
-0.555
-0.545
-0.545
-0.585
-0.55
-0.54
-0.54
-0.53
-0.535
-0.53
-0.555
-0.53
-0.545
-0.55
-0.565
-0.57
-0.56
-0.56
-0.565
-0.56
-0.545
-0.555
-0.575
-0.565
-0.585
-0.605
-0.635
-0.635
-0.635
-0.63
-0.625
-0.62
-0.66
-0.695
-0.675
-0.66
-0.675
-0.67
-0.68
-0.685
-0.685
-0.68
-0.685
-0.675
-0.67
-0.65
-0.665
-0.66
-0.675
-0.675
-0.695
-0.675
-0.665
-0.695
-0.7
-0.71
-0.715
-0.725
-0.71
-0.665
-0.635
-0.615
-0.52
-0.365
-0.255
-0.105
0.065
0.205
0.37
0.5
0.59
0.555
0.42
0.26
0.025
-0.25
-0.425
-0.625
-0.83
-0.91
-0.945
-0.99
-1.02
-1.02
-0.985
-0.96
-0.905
-0.845
-0.81
-0.765
-0.715
-0.67
-0.66
-0.67
-0.675
-0.65
-0.665
-0.66
-0.66
-0.68
-0.66
-0.645
-0.625
-0.645
-0.645
-0.645
-0.65
-0.6
-0.63
-0.635
-0.645
-0.62
-0.625
-0.63
-0.625
-0.625
-0.63
-0.625
-0.625
-0.6
-0.61
-0.635
-0.64
-0.62
-0.61
-0.635
-0.61
-0.59
-0.58
-0.58
-0.555
-0.595
-0.605
-0.63
-0.63
-0.61
-0.59
-0.585
-0.595
-0.59
-0.59
-0.585
-0.595
-0.58
-0.565
-0.575
-0.55
-0.58
-0.55
-0.545
-0.55
-0.535
-0.51
-0.535
-0.52
-0.53
-0.51
-0.53
-0.535
-0.53
-0.515
-0.475
-0.475
-0.48
-0.475
-0.445
-0.425
-0.45
-0.44
-0.42
-0.4
-0.42
-0.4
-0.38
-0.375
-0.365
-0.32
-0.33
-0.345
-0.335
-0.305
-0.265
-0.24
-0.245
-0.255
-0.275
-0.24
-0.235
-0.225
-0.22
-0.215
-0.205
-0.195
-0.185
-0.205
-0.21
-0.215
-0.225
-0.25
-0.22
-0.25
-0.29
-0.275
-0.285
-0.33
-0.35
-0.39
-0.39
-0.405
-0.42
-0.445
-0.445
-0.465
-0.475
-0.49
-0.51
-0.54
-0.57
-0.57
-0.58
-0.565
-0.585
-0.615
-0.61
-0.62
-0.615
-0.62
-0.64
-0.67
-0.685
-0.68
-0.635
-0.61
-0.63
-0.63
-0.67
-0.665
-0.68
-0.665
-0.66
-0.67
-0.63
-0.625
-0.67
-0.705
-0.69
-0.69
-0.675
-0.675
-0.68
-0.675
-0.66
-0.645
-0.665
-0.68
-0.695
-0.705
-0.68
-0.645
-0.64
-0.705
-0.705
-0.67
-0.675
-0.68
-0.7
-0.7
-0.695
-0.68
-0.67
-0.66
-0.645
-0.655
-0.685
-0.69
-0.7
-0.685
-0.685
-0.65
-0.665
-0.665
-0.645
-0.655
-0.685
-0.675
-0.665
-0.655
-0.655
-0.645
-0.67
-0.635
-0.595
-0.645
-0.68
-0.695
-0.665
-0.68
-0.675
-0.655
-0.66
-0.655
-0.66
-0.645
-0.67
-0.68
-0.63
-0.675
-0.7
-0.66
-0.625
-0.63
-0.645
-0.645
-0.655
-0.66
-0.655
-0.665
-0.67
-0.68
-0.66
-0.635
-0.65
-0.64
-0.67
-0.67
-0.66
-0.675
-0.68
-0.66
-0.665
-0.665
-0.655
-0.64
-0.64
-0.645
-0.62
-0.645
-0.655
-0.66
-0.675
-0.68
-0.64
-0.615
-0.625
-0.655
-0.69
-0.68
-0.685
-0.675
-0.675
-0.695
-0.69
-0.685
-0.675
-0.64
-0.665
-0.69
-0.685
-0.66
-0.66
-0.675
-0.675
-0.685
-0.69
-0.695
-0.645
-0.67
-0.695
-0.675
-0.69
-0.68
-0.655
-0.65
-0.685
-0.66
-0.66
-0.675
-0.7
-0.69
-0.655
-0.69
-0.685
-0.68
-0.695
-0.68
-0.68
-0.695
-0.69
-0.685
-0.72
-0.72
-0.715
-0.705
-0.7
-0.64
-0.63
-0.645
-0.675
-0.67
-0.685
-0.71
-0.725
-0.715
-0.7
-0.675
-0.675
-0.695
-0.7
-0.695
-0.695
-0.685
-0.68
-0.675
-0.68
-0.675
-0.67
-0.68
-0.685
-0.695
-0.7
-0.705
-0.69
-0.695
-0.7
-0.685
-0.685
-0.69
-0.675
-0.7
-0.685
-0.67
-0.665
-0.715
-0.725
-0.7
-0.695
-0.685
-0.65
-0.66
-0.675
-0.675
-0.715
-0.715
-0.7
-0.69
-0.7
-0.7
-0.675
-0.65
-0.65
-0.69
-0.685
-0.665
-0.675
-0.695
-0.72
-0.715
-0.705
-0.685
-0.69
-0.69
-0.695
-0.695
-0.72
-0.705
-0.69
-0.67
-0.695
-0.695
-0.695
-0.675
-0.67
-0.7
-0.7
-0.7
-0.7
-0.695
-0.705
-0.71
-0.67
-0.675
-0.685
-0.7
-0.695
-0.68
-0.705
-0.7
-0.695
-0.68
-0.69
-0.675
-0.68
-0.69
-0.695
-0.705
-0.71
-0.715
-0.675
-0.68
-0.69
-0.665
-0.655
-0.72
-0.715
-0.705
-0.695
-0.72
-0.665
-0.65
-0.68
-0.685
-0.675
-0.665
-0.68
-0.665
-0.65
-0.63
-0.65
-0.655
-0.65
-0.64
-0.625
-0.62
-0.65
-0.655
-0.665
-0.65
-0.64
-0.61
-0.595
-0.57
-0.585
-0.57
-0.56
-0.55
-0.575
-0.585
-0.565
-0.6
-0.605
-0.59
-0.6
-0.625
-0.61
-0.62
-0.625
-0.585
-0.57
-0.62
-0.605
-0.615
-0.64
-0.63
-0.655
-0.67
-0.665
-0.68
-0.685
-0.69
-0.67
-0.68
-0.675
-0.665
-0.695
-0.715
-0.705
-0.7
-0.71
-0.695
-0.705
-0.695
-0.675
-0.665
-0.68
-0.705
-0.71
-0.695
-0.695
-0.705
-0.67
-0.655
-0.69
-0.755
-0.78
-0.735
-0.69
-0.645
-0.63
-0.56
-0.445
-0.325
-0.175
0.01
0.175
0.34
0.475
0.525
0.515
0.455
0.305
0.07
-0.22
-0.46
-0.645
-0.86
-0.94
-0.99
-1.03
-1.025
-1.01
-0.985
-0.95
-0.94
-0.875
-0.85
-0.83
-0.79
-0.745
-0.715
-0.705
-0.685
-0.68
-0.65
-0.665
-0.66
-0.655
-0.655
-0.665
-0.645
-0.625
-0.655
-0.68
-0.62
-0.6
-0.635
-0.705
-0.675
-0.675
-0.65
-0.645
-0.625
-0.64
-0.625
-0.62
-0.62
-0.645
-0.64
-0.67
-0.655
-0.625
-0.615
-0.635
-0.6
-0.57
-0.58
-0.595
-0.595
-0.63
-0.635
-0.61
-0.61
-0.585
-0.575
-0.605
-0.6
-0.6
-0.59
-0.605
-0.58
-0.56
-0.565
-0.56
-0.575
-0.56
-0.55
-0.575
-0.56
-0.565
-0.555
-0.535
-0.53
-0.525
-0.52
-0.52
-0.52
-0.515
-0.495
-0.505
-0.505
-0.465
-0.465
-0.475
-0.45
-0.43
-0.395
-0.405
-0.4
-0.395
-0.37
-0.385
-0.375
-0.385
-0.35
-0.355
-0.33
-0.31
-0.29
-0.285
-0.23
-0.25
-0.275
-0.255
-0.235
-0.215
-0.24
-0.225
-0.195
-0.2
-0.21
-0.21
-0.195
-0.185
-0.18
-0.19
-0.215
-0.23
-0.26
-0.28
-0.285
-0.275
-0.31
-0.34
-0.36
-0.38
-0.39
-0.39
-0.395
-0.415
-0.465
-0.49
-0.49
-0.51
-0.54
-0.545
-0.57
-0.56
-0.555
-0.575
-0.56
-0.6
-0.62
-0.615
-0.63
-0.63
-0.645
-0.625
-0.61
-0.64
-0.64
-0.64
-0.655
-0.675
-0.635
-0.63
-0.64
-0.64
-0.665
-0.665
-0.645
-0.66
-0.67
-0.665
-0.655
-0.66
-0.67
-0.675
-0.66
-0.665
-0.67
-0.66
-0.665
-0.665
-0.65
-0.655
-0.645
-0.675
-0.67
-0.65
-0.645
-0.64
-0.67
-0.66
-0.655
-0.685
-0.67
-0.67
-0.65
-0.635
-0.655
-0.67
-0.67
-0.65
-0.64
-0.66
-0.645
-0.65
-0.655
-0.675
-0.675
-0.66
-0.66
-0.64
-0.655
-0.66
-0.65
-0.615
-0.64
-0.64
-0.63
-0.645
-0.68
-0.66
-0.67
-0.63
-0.615
-0.595
-0.62
-0.645
-0.645
-0.665
-0.655
-0.65
-0.645
-0.655
-0.65
-0.65
-0.63
-0.635
-0.635
-0.625
-0.64
-0.64
-0.66
-0.65
-0.665
-0.675
-0.66
-0.655
-0.645
-0.655
-0.63
-0.665
-0.65
-0.66
-0.645
-0.635
-0.64
-0.645
-0.635
-0.635
-0.66
-0.665
-0.645
-0.635
-0.64
-0.655
-0.655
-0.66
-0.655
-0.635
-0.635
-0.625
-0.645
-0.675
-0.69
-0.675
-0.675
-0.69
-0.68
-0.65
-0.64
-0.655
-0.655
-0.66
-0.66
-0.685
-0.67
-0.66
-0.66
-0.65
-0.67
-0.665
-0.69
-0.685
-0.67
-0.665
-0.685
-0.685
-0.65
-0.65
-0.67
-0.67
-0.67
-0.665
-0.66
-0.66
-0.665
-0.665
-0.65
-0.655
-0.655
-0.665
-0.67
-0.665
-0.675
-0.675
-0.68
-0.67
-0.655
-0.675
-0.665
-0.67
-0.67
-0.68
-0.665
-0.685
-0.68
-0.65
-0.655
-0.66
-0.675
-0.69
-0.69
-0.695
-0.68
-0.665
-0.65
-0.655
-0.66
-0.645
-0.64
-0.69
-0.685
-0.67
-0.67
-0.665
-0.665
-0.66
-0.665
-0.655
-0.67
-0.675
-0.675
-0.665
-0.665
-0.69
-0.69
-0.69
-0.69
-0.69
-0.69
-0.68
-0.665
-0.67
-0.67
-0.675
-0.675
-0.69
-0.685
-0.68
-0.635
-0.635
-0.67
-0.675
-0.68
-0.67
-0.67
-0.665
-0.665
-0.65
-0.66
-0.71
-0.72
-0.675
-0.67
-0.68
-0.69
-0.655
-0.655
-0.67
-0.67
-0.68
-0.675
-0.67
-0.675
-0.67
-0.66
-0.655
-0.66
-0.675
-0.635
-0.705
-0.68
-0.68
-0.675
-0.68
-0.66
-0.695
-0.675
-0.69
-0.705
-0.73
-0.695
-0.64
-0.69
-0.665
-0.63
-0.675
-0.68
-0.66
-0.68
-0.655
-0.67
-0.68
-0.69
-0.67
-0.67
-0.67
-0.665
-0.665
-0.685
-0.685
-0.675
-0.675
-0.655
-0.64
-0.645
-0.63
-0.645
-0.63
-0.63
-0.64
-0.63
-0.655
-0.645
-0.625
-0.635
-0.625
-0.61
-0.645
-0.625
-0.605
-0.59
-0.56
-0.55
-0.55
-0.54
-0.55
-0.565
-0.58
-0.575
-0.555
-0.55
-0.555
-0.56
-0.545
-0.565
-0.58
-0.575
-0.565
-0.595
-0.585
-0.585
-0.59
-0.605
-0.63
-0.61
-0.645
-0.685
-0.645
-0.665
-0.69
-0.695
-0.705
-0.705
-0.71
-0.725
-0.695
-0.705
-0.705
-0.715
-0.715
-0.68
-0.7
-0.7
-0.71
-0.71
-0.72
-0.755
-0.73
-0.74
-0.76
-0.76
-0.77
-0.77
-0.78
-0.785
-0.775
-0.75
-0.695
-0.65
-0.66
-0.595
-0.475
-0.37
-0.21
-0.02
0.165
0.315
0.405
0.43
0.42
0.33
0.135
-0.125
-0.4
-0.62
-0.82
-0.98
-1.03
-1.11
-1.125
-1.115
-1.105
-1.11
-1.08
-1.025
-0.96
-0.945
-0.91
-0.905
-0.865
-0.835
-0.77
-0.79
-0.82
-0.775
-0.75
-0.755
-0.765
-0.765
-0.775
-0.775
-0.765
-0.77
-0.755
-0.77
-0.77
-0.745
-0.765
-0.735
-0.735
-0.755
-0.77
-0.77
-0.785
-0.765
-0.765
-0.74
-0.73
-0.745
-0.745
-0.76
-0.735
-0.74
-0.76
-0.745
-0.735
-0.75
-0.7
-0.7
-0.735
-0.745
-0.78
-0.76
-0.725
-0.71
-0.71
-0.705
-0.695
-0.705
-0.73
-0.695
-0.71
-0.725
-0.715
-0.7
-0.705
-0.705
-0.695
-0.685
-0.69
-0.68
-0.695
-0.655
-0.665
-0.665
-0.62
-0.595
-0.615
-0.635
-0.63
-0.625
-0.61
-0.595
-0.58
-0.59
-0.585
-0.55
-0.535
-0.55
-0.535
-0.515
-0.5
-0.47
-0.5
-0.45
-0.44
-0.46
-0.47
-0.45
-0.4
-0.4
-0.405
-0.38
-0.37
-0.35
-0.34
-0.35
-0.345
-0.335
-0.34
-0.335
-0.325
-0.315
-0.3
-0.3
-0.325
-0.31
-0.335
-0.37
-0.38
-0.395
-0.415
-0.46
-0.49
-0.475
-0.48
-0.51
-0.545
-0.565
-0.59
-0.59
-0.6
-0.625
-0.625
-0.66
-0.675
-0.655
-0.69
-0.705
-0.725
-0.74
-0.77
-0.765
-0.77
-0.77
-0.755
-0.755
-0.76
-0.76
-0.77
-0.74
-0.75
-0.805
-0.8
-0.795
-0.795
-0.77
-0.79
-0.805
-0.815
-0.805
-0.795
-0.815
-0.78
-0.765
-0.785
-0.795
-0.805
-0.81
-0.8
-0.795
-0.81
-0.835
-0.805
-0.78
-0.79
-0.795
-0.805
-0.805
-0.795
-0.805
-0.8
-0.805
-0.825
-0.845
-0.825
-0.81
-0.8
-0.795
-0.795
-0.795
-0.8
-0.775
-0.75
-0.785
-0.815
-0.81
-0.805
-0.795
-0.79
-0.8
-0.795
-0.79
-0.78
-0.785
-0.8
-0.8
-0.78
-0.765
-0.78
-0.79
-0.78
-0.805
-0.78
-0.8
-0.8
-0.76
-0.805
-0.805
-0.77
-0.795
-0.785
-0.745
-0.77
-0.81
-0.8
-0.795
-0.8
-0.81
-0.775
-0.77
-0.78
-0.775
-0.775
-0.78
-0.79
-0.79
-0.785
-0.77
-0.76
-0.795
-0.795
-0.785
-0.775
-0.775
-0.785
-0.765
-0.77
-0.78
-0.775
-0.775
-0.805
-0.81
-0.805
-0.805
-0.805
-0.795
-0.785
-0.765
-0.785
-0.805
-0.805
-0.785
-0.81
-0.785
-0.795
-0.805
-0.805
-0.785
-0.78
-0.775
-0.81
-0.805
-0.8
-0.795
-0.79
-0.79
-0.795
-0.77
-0.79
-0.8
-0.78
-0.785
-0.805
-0.785
-0.765
-0.785
-0.8
-0.795
-0.795
-0.77
-0.8
-0.81
-0.81
-0.775
-0.775
-0.835
-0.845
-0.82
-0.79
-0.805
-0.79
-0.78
-0.77
-0.755
-0.785
-0.8
-0.815
-0.8
-0.795
-0.805
-0.8
-0.79
-0.77
-0.775
-0.82
-0.825
-0.82
-0.8
-0.815
-0.815
-0.81
-0.78
-0.79
-0.78
-0.79
-0.81
-0.805
-0.8
-0.815
-0.815
-0.795
-0.79
-0.81
-0.81
-0.815
-0.815
-0.77
-0.75
-0.8
-0.815
-0.765
-0.78
-0.805
-0.805
-0.805
-0.81
-0.815
-0.81
-0.805
-0.795
-0.775
-0.815
-0.805
-0.785
-0.785
-0.79
-0.79
-0.795
-0.805
-0.83
-0.805
-0.815
-0.785
-0.79
-0.795
-0.78
-0.775
-0.805
-0.825
-0.815
-0.795
-0.785
-0.795
-0.825
-0.825
-0.81
-0.805
-0.79
-0.795
-0.765
-0.765
-0.79
-0.775
-0.79
-0.815
-0.81
-0.775
-0.76
-0.775
-0.78
-0.745
-0.78
-0.825
-0.81
-0.81
-0.775
-0.8
-0.795
-0.815
-0.82
-0.815
-0.81
-0.805
-0.77
-0.725
-0.755
-0.775
-0.775
-0.775
-0.76
-0.74
-0.775
-0.765
-0.73
-0.735
-0.765
-0.735
-0.73
-0.74
-0.735
-0.71
-0.69
-0.67
-0.69
-0.68
-0.685
-0.64
-0.645
-0.635
-0.67
-0.67
-0.67
-0.69
-0.69
-0.7
-0.7
-0.705
-0.705
-0.69
-0.67
-0.695
-0.69
-0.72
-0.745
-0.75
-0.765
-0.755
-0.75
-0.755
-0.73
-0.77
-0.805
-0.795
-0.795
-0.805
-0.805
-0.795
-0.79
-0.805
-0.815
-0.805
-0.79
-0.815
-0.815
-0.795
-0.8
-0.8
-0.795
-0.79
-0.79
-0.815
-0.825
-0.81
-0.785
-0.79
-0.825
-0.855
-0.83
-0.795
-0.755
-0.715
-0.67
-0.58
-0.47
-0.325
-0.135
0.02
0.205
0.335
0.39
0.425
0.37
0.24
-0.005
-0.33
-0.615
-0.795
-0.99
-1.085
-1.13
-1.155
-1.135
-1.125
-1.115
-1.095
-1.075
-1.05
-1.015
-0.96
-0.965
-0.91
-0.855
-0.83
-0.795
-0.79
-0.78
-0.77
-0.75
-0.78
-0.77
-0.795
-0.76
-0.735
-0.76
-0.78
-0.775
-0.75
-0.775
-0.77
-0.755
-0.75
-0.72
-0.73
-0.735
-0.745
-0.745
-0.72
-0.715
-0.705
-0.725
-0.785
-0.76
-0.75
-0.745
-0.72
-0.71
-0.72
-0.725
-0.71
-0.74
-0.725
-0.735
-0.72
-0.725
-0.755
-0.745
-0.745
-0.71
-0.72
-0.72
-0.71
-0.72
-0.7
-0.7
-0.73
-0.705
-0.685
-0.71
-0.73
-0.695
-0.71
-0.685
-0.705
-0.695
-0.735
-0.68
-0.665
-0.675
-0.69
-0.68
-0.64
-0.64
-0.64
-0.63
-0.62
-0.57
-0.605
-0.625
-0.61
-0.58
-0.58
-0.58
-0.585
-0.58
-0.555
-0.53
-0.51
-0.49
-0.455
-0.45
-0.435
-0.43
-0.43
-0.415
-0.415
-0.425
-0.405
-0.41
-0.395
-0.39
-0.38
-0.37
-0.37
-0.38
-0.4
-0.39
-0.36
-0.365
-0.415
-0.415
-0.44
-0.46
-0.465
-0.525
-0.54
-0.565
-0.575
-0.59
-0.615
-0.62
-0.62
-0.64
-0.655
-0.695
-0.685
-0.68
-0.725
-0.725
-0.78
-0.79
-0.805
-0.805
-0.8
-0.81
-0.795
-0.805
-0.81
-0.82
-0.83
-0.84
-0.835
-0.835
-0.84
-0.815
-0.8
-0.83
-0.835
-0.84
-0.845
-0.835
-0.86
-0.85
-0.865
-0.875
-0.87
-0.85
-0.865
-0.86
-0.86
-0.845
-0.875
-0.845
-0.84
-0.885
-0.875
-0.835
-0.855
-0.85
-0.845
-0.88
-0.875
-0.815
-0.815
-0.835
-0.855
-0.865
-0.895
-0.89
-0.86
-0.835
-0.845
-0.835
-0.845
-0.845
-0.84
-0.825
-0.86
-0.87
-0.865
-0.825
-0.85
-0.86
-0.85
-0.845
-0.84
-0.85
-0.845
-0.845
-0.825
-0.82
-0.825
-0.81
-0.81
-0.84
-0.855
-0.845
-0.845
-0.84
-0.84
-0.83
-0.855
-0.835
-0.82
-0.82
-0.83
-0.83
-0.825
-0.82
-0.81
-0.83
-0.825
-0.815
-0.81
-0.805
-0.775
-0.815
-0.84
-0.8
-0.8
-0.84
-0.85
-0.85
-0.845
-0.845
-0.845
-0.8
-0.82
-0.84
-0.84
-0.83
-0.835
-0.84
-0.83
-0.835
-0.825
-0.83
-0.865
-0.86
-0.86
-0.84
-0.85
-0.855
-0.85
-0.86
-0.845
-0.825
-0.845
-0.86
-0.86
-0.865
-0.835
-0.855
-0.845
-0.835
-0.855
-0.85
-0.835
-0.85
-0.845
-0.855
-0.86
-0.805
-0.835
-0.83
-0.84
-0.88
-0.89
-0.895
-0.84
-0.85
-0.855
-0.845
-0.815
-0.85
-0.855
-0.875
-0.845
-0.87
-0.895
-0.88
-0.85
-0.84
-0.85
-0.83
-0.86
-0.88
-0.85
-0.85
-0.85
-0.86
-0.86
-0.84
-0.855
-0.85
-0.84
-0.84
-0.84
-0.84
-0.86
-0.825
-0.845
-0.845
-0.84
-0.835
-0.84
-0.79
-0.76
-0.825
-0.905
-0.89
-0.85
-0.85
-0.855
-0.83
-0.825
-0.85
-0.855
-0.835
-0.84
-0.85
-0.85
-0.855
-0.825
-0.81
-0.82
-0.845
-0.835
-0.835
-0.845
-0.82
-0.815
-0.825
-0.835
-0.835
-0.86
-0.875
-0.835
-0.845
-0.83
-0.81
-0.825
-0.835
-0.835
-0.83
-0.845
-0.84
-0.81
-0.83
-0.86
-0.82
-0.795
-0.805
-0.845
-0.83
-0.84
-0.83
-0.785
-0.79
-0.83
-0.835
-0.795
-0.805
-0.83
-0.835
-0.82
-0.82
-0.825
-0.8
-0.82
-0.82
-0.81
-0.8
-0.81
-0.82
-0.835
-0.805
-0.815
-0.835
-0.84
-0.82
-0.79
-0.815
-0.825
-0.8
-0.795
-0.805
-0.775
-0.795
-0.82
-0.795
-0.81
-0.82
-0.815
-0.805
-0.78
-0.815
-0.83
-0.81
-0.825
-0.82
-0.825
-0.825
-0.79
-0.765
-0.795
-0.815
-0.8
-0.8
-0.78
-0.75
-0.74
-0.75
-0.775
-0.795
-0.79
-0.775
-0.755
-0.745
-0.725
-0.725
-0.725
-0.72
-0.705
-0.7
-0.72
-0.7
-0.675
-0.69
-0.69
-0.67
-0.68
-0.685
-0.685
-0.71
-0.71
-0.72
-0.685
-0.695
-0.68
-0.695
-0.68
-0.695
-0.7
-0.725
-0.735
-0.75
-0.77
-0.79
-0.775
-0.78
-0.785
-0.8
-0.795
-0.815
-0.81
-0.78
-0.775
-0.795
-0.775
-0.775
-0.785
-0.825
-0.835
-0.805
-0.78
-0.815
-0.825
-0.785
-0.78
-0.795
-0.805
-0.83
-0.855
-0.825
-0.83
-0.855
-0.84
-0.82
-0.805
-0.785
-0.77
-0.71
-0.6
-0.515
-0.365
-0.18
-0.025
0.115
0.285
0.4
0.425
0.38
0.26
0.06
-0.19
-0.425
-0.68
-0.895
-1.06
-1.125
-1.165
-1.145
-1.095
-1.08
-1.065
-1.055
-1.02
-0.98
-0.96
-0.905
-0.885
-0.875
-0.86
-0.845
-0.81
-0.785
-0.765
-0.76
-0.785
-0.795
-0.775
-0.765
-0.76
-0.765
-0.76
-0.755
-0.74
-0.775
-0.75
-0.78
-0.765
-0.77
-0.735
-0.755
-0.755
-0.735
-0.725
-0.75
-0.73
-0.71
-0.72
-0.73
-0.745
-0.735
-0.71
-0.73
-0.725
-0.73
-0.715
-0.69
-0.71
-0.71
-0.715
-0.74
-0.695
-0.705
-0.695
-0.68
-0.68
-0.67
-0.695
-0.665
-0.645
-0.67
-0.71
-0.71
-0.71
-0.685
-0.67
-0.66
-0.64
-0.635
-0.615
-0.635
-0.62
-0.625
-0.62
-0.61
-0.61
-0.615
-0.615
-0.59
-0.565
-0.59
-0.555
-0.515
-0.515
-0.53
-0.525
-0.485
-0.45
-0.48
-0.48
-0.48
-0.465
-0.42
-0.41
-0.385
-0.385
-0.37
-0.385
-0.37
-0.365
-0.365
-0.34
-0.28
-0.315
-0.27
-0.27
-0.27
-0.29
-0.295
-0.26
-0.235
-0.275
-0.265
-0.265
-0.29
-0.305
-0.35
-0.35
-0.34
-0.36
-0.38
-0.395
-0.44
-0.455
-0.46
-0.495
-0.5
-0.495
-0.54
-0.555
-0.545
-0.575
-0.59
-0.625
-0.625
-0.595
-0.645
-0.68
-0.69
-0.68
-0.69
-0.685
-0.705
-0.705
-0.705
-0.69
-0.695
-0.71
-0.725
-0.705
-0.69
-0.68
-0.74
-0.76
-0.745
-0.725
-0.765
-0.75
-0.735
-0.735
-0.755
-0.755
-0.73
-0.715
-0.725
-0.735
-0.715
-0.735
-0.74
-0.745
-0.745
-0.76
-0.74
-0.725
-0.745
-0.71
-0.735
-0.725
-0.715
-0.75
-0.745
-0.72
-0.725
-0.7
-0.69
-0.715
-0.735
-0.74
-0.74
-0.75
-0.755
-0.75
-0.73
-0.725
-0.71
-0.74
-0.74
-0.73
-0.73
-0.69
-0.685
-0.715
-0.715
-0.685
-0.67
-0.71
-0.755
-0.75
-0.72
-0.7
-0.715
-0.715
-0.72
-0.685
-0.7
-0.72
-0.71
-0.685
-0.68
-0.715
-0.72
-0.715
-0.71
-0.7
-0.695
-0.715
-0.715
-0.7
-0.7
-0.715
-0.725
-0.67
-0.685
-0.695
-0.685
-0.7
-0.73
-0.71
-0.705
-0.71
-0.7
-0.705
-0.705
-0.715
-0.71
-0.7
-0.695
-0.69
-0.66
-0.695
-0.675
-0.695
-0.7
-0.725
-0.71
-0.72
-0.71
-0.69
-0.68
-0.7
-0.71
-0.705
-0.71
-0.685
-0.64
-0.66
-0.7
-0.73
-0.72
-0.715
-0.72
-0.715
-0.7
-0.705
-0.71
-0.715
-0.735
-0.71
-0.695
-0.7
-0.715
-0.7
-0.715
-0.675
-0.66
-0.695
-0.715
-0.72
-0.705
-0.705
-0.695
-0.695
-0.715
-0.73
-0.705
-0.71
-0.68
-0.66
-0.69
-0.7
-0.705
-0.72
-0.705
-0.695
-0.69
-0.69
-0.69
-0.695
-0.7
-0.695
-0.695
-0.68
-0.7
-0.695
-0.715
-0.72
-0.71
-0.7
-0.7
-0.695
-0.69
-0.73
-0.72
-0.685
-0.68
-0.675
-0.675
-0.695
-0.715
-0.68
-0.67
-0.705
-0.72
-0.7
-0.7
-0.71
-0.695
-0.695
-0.68
-0.69
-0.685
-0.68
-0.66
-0.68
-0.695
-0.68
-0.665
-0.675
-0.665
-0.65
-0.655
-0.7
-0.705
-0.715
-0.69
-0.68
-0.69
-0.68
-0.695
-0.68
-0.68
-0.67
-0.68
-0.65
-0.675
-0.685
-0.66
-0.685
-0.69
-0.695
-0.685
-0.705
-0.69
-0.69
-0.685
-0.705
-0.7
-0.675
-0.655
-0.67
-0.66
-0.64
-0.655
-0.695
-0.715
-0.695
-0.71
-0.665
-0.67
-0.665
-0.67
-0.685
-0.695
-0.675
-0.67
-0.675
-0.67
-0.685
-0.66
-0.685
-0.7
-0.7
-0.685
-0.68
-0.695
-0.665
-0.65
-0.665
-0.68
-0.69
-0.675
-0.675
-0.685
-0.68
-0.68
-0.695
-0.69
-0.68
-0.655
-0.625
-0.64
-0.625
-0.62
-0.625
-0.64
-0.63
-0.63
-0.66
-0.665
-0.635
-0.615
-0.595
-0.605
-0.585
-0.59
-0.58
-0.575
-0.57
-0.55
-0.545
-0.555
-0.56
-0.565
-0.545
-0.55
-0.575
-0.58
-0.595
-0.595
-0.59
-0.58
-0.57
-0.57
-0.555
-0.57
-0.59
-0.6
-0.645
-0.62
-0.65
-0.66
-0.66
-0.68
-0.665
-0.665
-0.685
-0.675
-0.685
-0.69
-0.675
-0.675
-0.67
-0.645
-0.64
-0.675
-0.695
-0.68
-0.685
-0.685
-0.69
-0.7
-0.695
-0.68
-0.69
-0.705
-0.71
-0.73
-0.745
-0.73
-0.73
-0.695
-0.645
-0.64
-0.59
-0.49
-0.365
-0.23
-0.1
0.055
0.215
0.375
0.465
0.52
0.48
0.35
0.19
-0.07
-0.385
-0.565
-0.76
-0.91
-0.97
-1.0
-0.985
-0.985
-0.995
-0.975
-0.96
-0.925
-0.885
-0.86
-0.81
-0.76
-0.7
-0.645
-0.665
-0.695
-0.68
-0.655
-0.655
-0.665
-0.66
-0.66
-0.66
-0.67
-0.665
-0.65
-0.65
-0.625
-0.63
-0.675
-0.66
-0.68
-0.655
-0.65
-0.66
-0.66
-0.63
-0.62
-0.64
-0.645
-0.62
-0.62
-0.655
-0.62
-0.63
-0.64
-0.65
-0.645
-0.605
-0.58
-0.6
-0.625
-0.615
-0.615
-0.605
-0.605
-0.615
-0.595
-0.575
-0.585
-0.56
-0.57
-0.58
-0.625
-0.615
-0.64
-0.62
-0.57
-0.57
-0.56
-0.56
-0.57
-0.56
-0.575
-0.53
-0.535
-0.58
-0.58
-0.535
-0.495
-0.49
-0.505
-0.5
-0.485
-0.485
-0.475
-0.475
-0.475
-0.45
-0.42
-0.41
-0.41
-0.39
-0.395
-0.39
-0.365
-0.345
-0.335
-0.34
-0.355
-0.31
-0.285
-0.3
-0.285
-0.24
-0.245
-0.235
-0.23
-0.235
-0.24
-0.225
-0.205
-0.175
-0.175
-0.215
-0.245
-0.26
-0.24
-0.235
-0.245
-0.23
-0.245
-0.275
-0.27
-0.255
-0.34
-0.395
-0.39
-0.405
-0.41
-0.44
-0.475
-0.47
-0.475
-0.49
-0.525
-0.54
-0.56
-0.57
-0.56
-0.565
-0.57
-0.59
-0.59
-0.6
-0.61
-0.625
-0.625
-0.61
-0.63
-0.63
-0.65
-0.65
-0.63
-0.645
-0.665
-0.67
-0.66
-0.645
-0.645
-0.64
-0.635
-0.66
-0.66
-0.67
-0.665
-0.62
-0.625
-0.675
-0.68
-0.66
-0.665
-0.67
-0.67
-0.695
-0.655
-0.615
-0.66
-0.67
-0.665
-0.655
-0.645
-0.68
-0.695
-0.665
-0.655
-0.615
-0.655
-0.66
-0.655
-0.665
-0.67
-0.655
-0.655
-0.665
-0.655
-0.665
-0.64
-0.645
-0.65
-0.66
-0.67
-0.655
-0.64
-0.63
-0.65
-0.66
-0.645
-0.645
-0.68
-0.64
-0.64
-0.64
-0.625
-0.645
-0.66
-0.635
-0.645
-0.63
-0.61
-0.65
-0.65
-0.665
-0.645
-0.66
-0.635
-0.62
-0.64
-0.63
-0.63
-0.64
-0.6
-0.635
-0.65
-0.66
-0.64
-0.62
-0.62
-0.63
-0.63
-0.63
-0.62
-0.635
-0.64
-0.65
-0.635
-0.63
-0.645
-0.665
-0.665
-0.63
-0.605
-0.64
-0.625
-0.63
-0.635
-0.655
-0.645
-0.635
-0.615
-0.61
-0.64
-0.665
-0.685
-0.64
-0.64
-0.65
-0.655
-0.635
-0.655
-0.635
-0.635
-0.61
-0.62
-0.675
-0.655
-0.655
-0.66
-0.665
-0.635
-0.64
-0.665
-0.67
-0.65
-0.63
-0.635
-0.65
-0.655
-0.67
-0.64
-0.655
-0.685
-0.645
-0.64
-0.65
-0.63
-0.625
-0.645
-0.645
-0.65
-0.655
-0.665
-0.635
-0.63
-0.62
-0.645
-0.63
-0.645
-0.675
-0.665
-0.655
-0.65
-0.635
-0.645
-0.65
-0.65
-0.66
-0.63
-0.645
-0.65
-0.655
-0.64
-0.61
-0.645
-0.675
-0.655
-0.635
-0.645
-0.635
-0.655
-0.64
-0.645
-0.62
-0.655
-0.655
-0.65
-0.635
-0.645
-0.65
-0.66
-0.65
-0.645
-0.66
-0.62
-0.64
-0.645
-0.64
-0.635
-0.61
-0.61
-0.635
-0.655
-0.64
-0.65
-0.64
-0.635
-0.64
-0.635
-0.635
-0.655
-0.65
-0.62
-0.655
-0.66
-0.66
-0.67
-0.65
-0.645
-0.62
-0.63
-0.64
-0.665
-0.665
-0.64
-0.65
-0.655
-0.635
-0.635
-0.635
-0.65
-0.61
-0.605
-0.635
-0.655
-0.655
-0.645
-0.63
-0.64
-0.635
-0.65
-0.65
-0.605
-0.625
-0.67
-0.68
-0.675
-0.66
-0.64
-0.625
-0.645
-0.65
-0.63
-0.635
-0.625
-0.645
-0.655
-0.655
-0.645
-0.635
-0.645
-0.665
-0.665
-0.66
-0.67
-0.655
-0.63
-0.615
-0.615
-0.615
-0.64
-0.655
-0.64
-0.62
-0.64
-0.64
-0.64
-0.65
-0.63
-0.625
-0.635
-0.64
-0.64
-0.64
-0.655
-0.63
-0.63
-0.65
-0.64
-0.63
-0.65
-0.64
-0.62
-0.665
-0.655
-0.645
-0.61
-0.61
-0.615
-0.605
-0.635
-0.63
-0.61
-0.59
-0.61
-0.6
-0.615
-0.625
-0.605
-0.585
-0.57
-0.585
-0.575
-0.575
-0.575
-0.56
-0.555
-0.53
-0.53
-0.515
-0.525
-0.51
-0.495
-0.505
-0.52
-0.49
-0.505
-0.545
-0.56
-0.56
-0.545
-0.555
-0.535
-0.54
-0.535
-0.545
-0.54
-0.57
-0.585
-0.6
-0.615
-0.625
-0.615
-0.58
-0.615
-0.635
-0.64
-0.61
-0.645
-0.67
-0.65
-0.645
-0.625
-0.65
-0.67
-0.66
-0.62
-0.635
-0.625
-0.645
-0.635
-0.655
-0.67
-0.655
-0.65
-0.625
-0.655
-0.67
-0.69
-0.69
-0.695
-0.7
-0.715
-0.655
-0.605
-0.57
-0.505
-0.43
-0.31
-0.13
0.085
0.245
0.37
0.48
0.53
0.545
0.49
0.33
0.11
-0.17
-0.41
-0.59
-0.775
-0.89
-0.92
-0.935
-0.985
-0.99
-0.965
-0.935
-0.91
-0.835
-0.775
-0.755
-0.725
-0.705
-0.68
-0.64
-0.615
-0.645
-0.63
-0.63
-0.635
-0.61
-0.61
-0.61
-0.615
-0.64
-0.63
-0.615
-0.615
-0.59
-0.615
-0.61
-0.59
-0.6
-0.615
-0.595
-0.605
-0.59
-0.6
-0.6
-0.57
-0.585
-0.57
-0.585
-0.625
-0.595
-0.575
-0.56
-0.535
-0.54
-0.56
-0.595
-0.6
-0.57
-0.545
-0.565
-0.59
-0.575
-0.54
-0.555
-0.535
-0.525
-0.515
-0.52
-0.535
-0.54
-0.52
-0.515
-0.54
-0.5
-0.515
-0.52
-0.52
-0.505
-0.5
-0.505
-0.47
-0.51
-0.49
-0.44
-0.475
-0.455
-0.455
-0.455
-0.445
-0.435
-0.415
-0.4
-0.39
-0.405
-0.39
-0.37
-0.37
-0.335
-0.325
-0.3
-0.3
-0.31
-0.3
-0.295
-0.265
-0.23
-0.23
-0.215
-0.225
-0.21
-0.21
-0.18
-0.16
-0.155
-0.13
-0.135
-0.15
-0.14
-0.155
-0.16
-0.15
-0.14
-0.13
-0.165
-0.16
-0.165
-0.2
-0.21
-0.225
-0.23
-0.235
-0.255
-0.275
-0.285
-0.33
-0.355
-0.35
-0.405
-0.42
-0.4
-0.41
-0.425
-0.455
-0.475
-0.48
-0.495
-0.515
-0.515
-0.525
-0.535
-0.555
-0.545
-0.56
-0.545
-0.54
-0.56
-0.56
-0.54
-0.55
-0.565
-0.575
-0.58
-0.57
-0.585
-0.575
-0.58
-0.585
-0.585
-0.59
-0.575
-0.565
-0.59
-0.6
-0.625
-0.615
-0.59
-0.565
-0.59
-0.605
-0.59
-0.595
-0.59
-0.575
-0.585
-0.57
-0.595
-0.605
-0.61
-0.585
-0.55
-0.58
-0.615
-0.57
-0.57
-0.6
-0.605
-0.585
-0.61
-0.61
-0.595
-0.575
-0.59
-0.595
-0.585
-0.595
-0.6
-0.57
-0.565
-0.53
-0.57
-0.6
-0.59
-0.585
-0.565
-0.585
-0.59
-0.575
-0.595
-0.605
-0.575
-0.575
-0.575
-0.58
-0.56
-0.575
-0.575
-0.595
-0.61
-0.575
-0.545
-0.55
-0.555
-0.55
-0.57
-0.57
-0.545
-0.56
-0.55
-0.57
-0.595
-0.59
-0.56
-0.58
-0.575
-0.555
-0.565
-0.555
-0.555
-0.57
-0.585
-0.58
-0.555
-0.555
-0.565
-0.585
-0.57
-0.55
-0.57
-0.565
-0.535
-0.52
-0.54
-0.585
-0.57
-0.565
-0.555
-0.555
-0.585
-0.575
-0.55
-0.57
-0.595
-0.59
-0.58
-0.58
-0.59
-0.565
-0.56
-0.565
-0.595
-0.585
-0.58
-0.575
-0.595
-0.59
-0.56
-0.525
-0.54
-0.55
-0.595
-0.605
-0.575
-0.585
-0.575
-0.55
-0.555
-0.54
-0.585
-0.555
-0.56
-0.575
-0.575
-0.595
-0.59
-0.6
-0.585
-0.585
-0.565
-0.595
-0.58
-0.575
-0.565
-0.575
-0.585
-0.56
-0.58
-0.58
-0.565
-0.58
-0.535
-0.59
-0.605
-0.59
-0.57
-0.57
-0.575
-0.58
-0.57
-0.585
-0.585
-0.595
-0.6
-0.57
-0.575
-0.575
-0.59
-0.585
-0.59
-0.585
-0.56
-0.55
-0.555
-0.55
-0.565
-0.565
-0.56
-0.57
-0.59
-0.585
-0.555
-0.53
-0.54
-0.6
-0.615
-0.605
-0.565
-0.56
-0.565
-0.595
-0.575
-0.575
-0.565
-0.61
-0.585
-0.595
-0.59
-0.575
-0.565
-0.56
-0.56
-0.565
-0.575
-0.575
-0.57
-0.56
-0.545
-0.555
-0.57
-0.56
-0.56
-0.6
-0.575
-0.57
-0.575
-0.56
-0.57
-0.575
-0.56
-0.565
-0.58
-0.595
-0.575
-0.57
-0.59
-0.57
-0.57
-0.55
-0.575
-0.565
-0.56
-0.555
-0.575
-0.55
-0.57
-0.545
-0.55
-0.59
-0.555
-0.56
-0.57
-0.56
-0.565
-0.575
-0.59
-0.58
-0.6
-0.595
-0.585
-0.555
-0.545
-0.56
-0.56
-0.56
-0.55
-0.58
-0.57
-0.575
-0.56
-0.565
-0.565
-0.575
-0.57
-0.555
-0.555
-0.565
-0.565
-0.555
-0.55
-0.585
-0.6
-0.59
-0.585
-0.585
-0.58
-0.565
-0.57
-0.575
-0.585
-0.565
-0.545
-0.555
-0.535
-0.545
-0.575
-0.57
-0.585
-0.57
-0.55
-0.555
-0.575
-0.585
-0.54
-0.53
-0.535
-0.55
-0.56
-0.54
-0.535
-0.525
-0.535
-0.53
-0.545
-0.55
-0.54
-0.515
-0.515
-0.51
-0.505
-0.52
-0.505
-0.475
-0.45
-0.44
-0.455
-0.415
-0.435
-0.41
-0.415
-0.44
-0.445
-0.445
-0.43
-0.44
-0.475
-0.47
-0.475
-0.455
-0.425
-0.445
-0.465
-0.455
-0.48
-0.48
-0.53
-0.535
-0.52
-0.525
-0.55
-0.525
-0.55
-0.57
-0.59
-0.61
-0.575
-0.535
-0.545
-0.56
-0.585
-0.565
-0.585
-0.57
-0.58
-0.565
-0.57
-0.58
-0.595
-0.58
-0.585
-0.575
-0.6
-0.59
-0.62
-0.595
-0.575
-0.62
-0.61
-0.595
-0.57
-0.5
-0.49
-0.485
-0.445
-0.3
-0.135
0.015
0.2
0.39
0.54
0.62
0.65
0.625
0.495
0.295
0.03
-0.24
-0.41
-0.63
-0.795
-0.87
-0.9
-0.9
-0.92
-0.905
-0.87
-0.85
-0.81
-0.785
-0.735
-0.695
-0.66
-0.63
-0.6
-0.61
-0.585
-0.585
-0.55
-0.555
-0.57
-0.585
-0.54
-0.555
-0.57
-0.56
-0.545
-0.545
-0.55
-0.53
-0.53
-0.53
-0.52
-0.535
-0.55
-0.555
-0.57
-0.56
-0.56
-0.575
-0.575
-0.54
-0.51
-0.51
-0.525
-0.535
-0.52
-0.515
-0.525
-0.54
-0.535
-0.505
-0.505
-0.455
-0.475
-0.505
-0.505
-0.48
-0.495
-0.5
-0.52
-0.535
-0.5
-0.49
-0.475
-0.45
-0.455
-0.455
-0.465
-0.45
-0.415
-0.435
-0.46
-0.43
-0.44
-0.46
-0.44
-0.405
-0.42
-0.395
-0.405
-0.395
-0.38
-0.4
-0.385
-0.38
-0.345
-0.345
-0.37
-0.37
-0.33
-0.32
-0.31
-0.28
-0.275
-0.275
-0.245
-0.235
-0.2
-0.2
-0.195
-0.195
-0.17
-0.165
-0.15
-0.145
-0.135
-0.155
-0.125
-0.09
-0.11
-0.11
-0.1
-0.115
-0.075
-0.075
-0.055
-0.045
-0.08
-0.11
-0.125
-0.13
-0.175
-0.19
-0.155
-0.19
-0.215
-0.21
-0.21
-0.255
-0.265
-0.255
-0.3
-0.37
-0.365
-0.375
-0.395
-0.405
-0.42
-0.435
-0.47
-0.465
-0.44
-0.45
-0.475
-0.49
-0.5
-0.495
-0.51
-0.535
-0.53
-0.53
-0.545
-0.545
-0.55
-0.565
-0.58
-0.555
-0.545
-0.58
-0.575
-0.54
-0.53
-0.525
-0.53
-0.57
-0.565
-0.57
-0.585
-0.57
-0.54
-0.54
-0.575
-0.57
-0.54
-0.54
-0.59
-0.6
-0.575
-0.58
-0.58
-0.595
-0.58
-0.575
-0.575
-0.54
-0.54
-0.54
-0.535
-0.56
-0.565
-0.58
-0.565
-0.555
-0.535
-0.535
-0.56
-0.59
-0.555
-0.55
-0.57
-0.55
-0.545
-0.56
-0.545
-0.525
-0.555
-0.555
-0.545
-0.555
-0.565
-0.555
-0.56
-0.565
-0.55
-0.56
-0.56
-0.54
-0.565
-0.545
-0.515
-0.515
-0.545
-0.54
-0.515
-0.52
-0.505
-0.525
-0.56
-0.565
-0.55
-0.525
-0.575
-0.57
-0.565
-0.55
-0.545
-0.52
-0.535
-0.545
-0.535
-0.54
-0.56
-0.565
-0.56
-0.565
-0.555
-0.54
-0.55
-0.54
-0.55
-0.525
-0.535
-0.56
-0.545
-0.54
-0.545
-0.53
-0.565
-0.55
-0.555
-0.555
-0.57
-0.55
-0.56
-0.54
-0.57
-0.56
-0.565
-0.585
-0.585
-0.56
-0.54
-0.56
-0.575
-0.59
-0.555
-0.535
-0.575
-0.595
-0.595
-0.58
-0.585
-0.58
-0.56
-0.58
-0.58
-0.585
-0.57
-0.57
-0.565
-0.56
-0.55
-0.565
-0.58
-0.595
-0.585
-0.57
-0.61
-0.57
-0.56
-0.565
-0.555
-0.565
-0.56
-0.575
-0.585
-0.575
-0.565
-0.58
-0.55
-0.57
-0.59
-0.575
-0.58
-0.595
-0.59
-0.575
-0.58
-0.58
-0.53
-0.57
-0.605
-0.635
-0.625
-0.61
-0.575
-0.565
-0.59
-0.6
-0.585
-0.575
-0.56
-0.6
-0.58
-0.58
-0.58
-0.575
-0.58
-0.595
-0.58
-0.59
-0.58
-0.57
-0.555
-0.615
-0.59
-0.595
-0.605
-0.565
-0.595
-0.6
-0.6
-0.61
-0.59
-0.58
-0.585
-0.585
-0.585
-0.575
-0.6
-0.59
-0.585
-0.595
-0.55
-0.535
-0.575
-0.62
-0.605
-0.615
-0.575
-0.58
-0.625
-0.615
-0.62
-0.61
-0.605
-0.585
-0.57
-0.585
-0.595
-0.57
-0.575
-0.57
-0.57
-0.605
-0.625
-0.605
-0.615
-0.64
-0.605
-0.59
-0.6
-0.595
-0.61
-0.59
-0.575
-0.595
-0.615
-0.605
-0.59
-0.59
-0.585
-0.58
-0.55
-0.56
-0.59
-0.61
-0.615
-0.605
-0.61
-0.615
-0.575
-0.585
-0.57
-0.58
-0.585
-0.595
-0.58
-0.53
-0.555
-0.585
-0.57
-0.595
-0.6
-0.59
-0.57
-0.59
-0.605
-0.585
-0.585
-0.59
-0.57
-0.58
-0.575
-0.605
-0.61
-0.605
-0.595
-0.575
-0.565
-0.58
-0.58
-0.585
-0.6
-0.595
-0.61
-0.575
-0.57
-0.595
-0.595
-0.59
-0.56
-0.58
-0.585
-0.585
-0.57
-0.565
-0.585
-0.575
-0.57
-0.52
-0.575
-0.55
-0.55
-0.535
-0.525
-0.505
-0.51
-0.495
-0.52
-0.505
-0.49
-0.515
-0.535
-0.505
-0.495
-0.515
-0.495
-0.47
-0.45
-0.455
-0.485
-0.44
-0.455
-0.47
-0.47
-0.465
-0.465
-0.46
-0.475
-0.475
-0.46
-0.43
-0.43
-0.47
-0.45
-0.475
-0.52
-0.515
-0.5
-0.52
-0.525
-0.585
-0.57
-0.56
-0.555
-0.575
-0.555
-0.545
-0.54
-0.51
-0.515
-0.535
-0.55
-0.56
-0.545
-0.535
-0.585
-0.59
-0.585
-0.565
-0.565
-0.585
-0.59
-0.555
-0.535
-0.54
-0.56
-0.575
-0.59
-0.56
-0.545
-0.51
-0.475
-0.405
-0.34
-0.215
-0.04
0.11
0.22
0.4
0.565
0.65
0.69
0.66
0.5
0.265
-0.015
-0.3
-0.545
-0.73
-0.81
-0.905
-0.875
-0.89
-0.89
-0.86
-0.845
-0.8
-0.765
-0.77
-0.765
-0.725
-0.68
-0.61
-0.605
-0.57
-0.535
-0.515
-0.52
-0.5
-0.5
-0.48
-0.5
-0.485
-0.49
-0.495
-0.48
-0.475
-0.505
-0.49
-0.475
-0.505
-0.51
-0.495
-0.5
-0.48
-0.5
-0.53
-0.52
-0.495
-0.48
-0.495
-0.465
-0.465
-0.48
-0.49
-0.47
-0.46
-0.49
-0.445
-0.415
-0.41
-0.42
-0.41
-0.455
-0.475
-0.445
-0.43
-0.47
-0.44
-0.39
-0.415
-0.425
-0.445
-0.445
-0.425
-0.425
-0.42
-0.405
-0.4
-0.41
-0.42
-0.405
-0.385
-0.375
-0.375
-0.39
-0.39
-0.385
-0.37
-0.37
-0.385
-0.35
-0.32
-0.33
-0.345
-0.33
-0.31
-0.29
-0.27
-0.28
-0.3
-0.285
-0.27
-0.245
-0.245
-0.225
-0.165
-0.165
-0.155
-0.14
-0.13
-0.105
-0.14
-0.095
-0.095
-0.09
-0.125
-0.13
-0.125
-0.095
-0.1
-0.09
-0.08
-0.06
-0.05
-0.025
-0.04
-0.05
-0.06
-0.06
-0.095
-0.12
-0.115
-0.105
-0.14
-0.165
-0.185
-0.18
-0.195
-0.255
-0.28
-0.275
-0.28
-0.28
-0.295
-0.325
-0.325
-0.35
-0.39
-0.375
-0.38
-0.4
-0.405
-0.415
-0.435
-0.4
-0.46
-0.49
-0.5
-0.46
-0.48
-0.52
-0.5
-0.475
-0.49
-0.51
-0.5
-0.49
-0.475
-0.49
-0.485
-0.455
-0.455
-0.48
-0.49
-0.51
-0.48
-0.48
-0.47
-0.48
-0.5
-0.495
-0.485
-0.49
-0.49
-0.48
-0.5
-0.495
-0.49
-0.495
-0.495
-0.49
-0.495
-0.47
-0.45
-0.49
-0.485
-0.48
-0.495
-0.48
-0.47
-0.465
-0.48
-0.46
-0.48
-0.45
-0.47
-0.465
-0.45
-0.45
-0.44
-0.445
-0.44
-0.46
-0.45
-0.445
-0.45
-0.465
-0.465
-0.445
-0.47
-0.445
-0.45
-0.445
-0.445
-0.465
-0.48
-0.46
-0.45
-0.47
-0.46
-0.455
-0.435
-0.435
-0.43
-0.415
-0.46
-0.465
-0.435
-0.41
-0.395
-0.45
-0.465
-0.455
-0.45
-0.455
-0.44
-0.445
-0.425
-0.43
-0.425
-0.44
-0.43
-0.41
-0.44
-0.445
-0.43
-0.395
-0.405
-0.435
-0.49
-0.495
-0.48
-0.485
-0.475
-0.5
-0.46
-0.47
-0.47
-0.46
-0.44
-0.465
-0.46
-0.44
-0.455
-0.45
-0.445
-0.455
-0.455
-0.445
-0.455
-0.455
-0.445
-0.445
-0.445
-0.46
-0.46
-0.445
-0.435
-0.47
-0.455
-0.46
-0.475
-0.465
-0.46
-0.48
-0.49
-0.485
-0.485
-0.49
-0.495
-0.485
-0.48
-0.48
-0.445
-0.455
-0.475
-0.475
-0.46
-0.475
-0.475
-0.475
-0.495
-0.5
-0.48
-0.465
-0.45
-0.44
-0.45
-0.455
-0.465
-0.48
-0.435
-0.44
-0.48
-0.5
-0.49
-0.46
-0.47
-0.485
-0.475
-0.46
-0.46
-0.45
-0.485
-0.495
-0.47
-0.445
-0.46
-0.49
-0.49
-0.51
-0.48
-0.455
-0.465
-0.48
-0.475
-0.465
-0.465
-0.495
-0.48
-0.475
-0.485
-0.47
-0.47
-0.47
-0.47
-0.465
-0.475
-0.455
-0.46
-0.455
-0.515
-0.505
-0.48
-0.485
-0.49
-0.48
-0.475
-0.455
-0.435
-0.42
-0.445
-0.5
-0.51
-0.48
-0.475
-0.475
-0.465
-0.515
-0.495
-0.485
-0.46
-0.465
-0.465
-0.465
-0.485
-0.48
-0.485
-0.485
-0.46
-0.48
-0.5
-0.505
-0.5
-0.52
-0.5
-0.49
-0.455
-0.46
-0.46
-0.485
-0.465
-0.46
-0.48
-0.485
-0.48
-0.48
-0.495
-0.49
-0.485
-0.48
-0.435
-0.455
-0.485
-0.485
-0.495
-0.48
-0.495
-0.445
-0.455
-0.505
-0.505
-0.48
-0.5
-0.48
-0.455
-0.495
-0.49
-0.49
-0.51
-0.495
-0.495
-0.49
-0.485
-0.465
-0.46
-0.48
-0.46
-0.46
-0.45
-0.465
-0.46
-0.43
-0.455
-0.44
-0.43
-0.43
-0.44
-0.415
-0.425
-0.43
-0.415
-0.39
-0.38
-0.385
-0.38
-0.375
-0.34
-0.345
-0.37
-0.36
-0.355
-0.37
-0.375
-0.405
-0.39
-0.395
-0.365
-0.365
-0.405
-0.385
-0.38
-0.375
-0.34
-0.385
-0.45
-0.475
-0.465
-0.47
-0.45
-0.475
-0.445
-0.465
-0.485
-0.48
-0.48
-0.485
-0.47
-0.445
-0.475
-0.49
-0.48
-0.475
-0.48
-0.48
-0.48
-0.49
-0.485
-0.495
-0.5
-0.51
-0.5
-0.495
-0.49
-0.475
-0.495
-0.495
-0.535
-0.51
-0.485
-0.455
-0.445
-0.405
-0.295
-0.125
0.01
0.14
0.335
0.51
0.63
0.695
0.73
0.705
0.54
0.285
0.025
-0.23
-0.415
-0.615
-0.735
-0.785
-0.815
-0.81
-0.785
-0.755
-0.77
-0.735
-0.7
-0.665
-0.605
-0.575
-0.55
-0.525
-0.49
-0.465
-0.435
-0.45
-0.445
-0.45
-0.45
-0.445
-0.465
-0.45
-0.465
-0.47
-0.46
-0.465
-0.465
-0.46
-0.445
-0.45
-0.445
-0.445
-0.44
-0.43
-0.43
-0.465
-0.45
-0.44
-0.45
-0.44
-0.445
-0.43
-0.38
-0.365
-0.415
-0.45
-0.435
-0.415
-0.395
-0.375
-0.39
-0.4
-0.44
-0.435
-0.41
-0.42
-0.395
-0.39
-0.38
-0.4
-0.395
-0.385
-0.37
-0.36
-0.39
-0.365
-0.38
-0.375
-0.375
-0.35
-0.375
-0.37
-0.35
-0.345
-0.36
-0.34
-0.325
-0.325
-0.325
-0.32
-0.31
-0.335
-0.3
-0.27
-0.265
-0.22
-0.21
-0.235
-0.24
-0.24
-0.225
-0.21
-0.205
-0.165
-0.135
-0.14
-0.165
-0.145
-0.12
-0.095
-0.085
-0.095
-0.105
-0.065
-0.05
-0.06
-0.045
-0.055
-0.05
-0.045
-0.065
-0.025
-0.04
-0.025
-0.045
-0.05
-0.055
-0.09
-0.095
-0.09
-0.095
-0.1
-0.115
-0.145
-0.165
-0.185
-0.18
-0.21
-0.255
-0.255
-0.295
-0.295
-0.28
-0.315
-0.345
-0.315
-0.33
-0.355
-0.375
-0.38
-0.395
-0.4
-0.43
-0.445
-0.43
-0.43
-0.42
-0.435
-0.48
-0.47
-0.46
-0.455
-0.475
-0.505
-0.505
-0.49
-0.48
-0.44
-0.45
-0.485
-0.53
-0.475
-0.485
-0.48
-0.505
-0.495
-0.49
-0.49
-0.5
-0.475
-0.47
-0.485
-0.48
-0.49
-0.48
-0.48
-0.48
-0.495
-0.51
-0.5
-0.48
-0.49
-0.47
-0.495
-0.49
-0.505
-0.505
-0.5
-0.48
-0.46
-0.485
-0.495
-0.455
-0.48
-0.48
-0.47
-0.48
-0.49
-0.47
-0.475
-0.47
-0.455
-0.47
-0.47
-0.45
-0.475
-0.475
-0.475
-0.465
-0.51
-0.495
-0.49
-0.48
-0.455
-0.455
-0.475
-0.495
-0.48
-0.46
-0.445
-0.455
-0.48
-0.495
-0.49
-0.465
-0.46
-0.46
-0.47
-0.455
-0.45
-0.46
-0.47
-0.47
-0.475
-0.49
-0.47
-0.475
-0.47
-0.455
-0.465
-0.465
-0.45
-0.455
-0.45
-0.48
-0.44
-0.455
-0.46
-0.48
-0.49
-0.49
-0.48
-0.47
-0.47
-0.45
-0.48
-0.435
-0.455
-0.495
-0.485
-0.49
-0.49
-0.51
-0.51
-0.495
-0.505
-0.52
-0.51
-0.5
-0.495
-0.485
-0.46
-0.455
-0.47
-0.485
-0.475
-0.51
-0.52
-0.495
-0.495
-0.495
-0.5
-0.495
-0.505
-0.505
-0.525
-0.525
-0.54
-0.525
-0.53
-0.49
-0.48
-0.5
-0.52
-0.49
-0.48
-0.485
-0.5
-0.525
-0.54
-0.535
-0.545
-0.515
-0.545
-0.57
-0.55
-0.515
-0.505
-0.505
-0.515
-0.555
-0.54
-0.545
-0.525
-0.525
-0.525
-0.53
-0.52
-0.55
-0.555
-0.555
-0.55
-0.555
-0.54
-0.535
-0.535
-0.555
-0.56
-0.535
-0.535
-0.49
-0.52
-0.55
-0.565
-0.555
-0.555
-0.53
-0.56
-0.575
-0.57
-0.545
-0.555
-0.545
-0.565
-0.545
-0.55
-0.545
-0.55
-0.565
-0.55
-0.555
-0.565
-0.55
-0.565
-0.525
-0.55
-0.57
-0.575
-0.55
-0.555
-0.565
-0.56
-0.565
-0.585
-0.575
-0.57
-0.565
-0.54
-0.55
-0.57
-0.57
-0.55
-0.555
-0.535
-0.53
-0.545
-0.56
-0.57
-0.545
-0.54
-0.54
-0.53
-0.55
-0.54
-0.565
-0.57
-0.565
-0.565
-0.57
-0.56
-0.565
-0.56
-0.555
-0.555
-0.565
-0.53
-0.555
-0.575
-0.555
-0.555
-0.555
-0.545
-0.555
-0.55
-0.525
-0.515
-0.55
-0.545
-0.55
-0.535
-0.53
-0.565
-0.59
-0.57
-0.56
-0.55
-0.555
-0.55
-0.555
-0.535
-0.535
-0.525
-0.535
-0.51
-0.515
-0.51
-0.53
-0.52
-0.52
-0.525
-0.495
-0.48
-0.485
-0.485
-0.485
-0.495
-0.485
-0.48
-0.495
-0.47
-0.47
-0.455
-0.415
-0.43
-0.45
-0.415
-0.415
-0.435
-0.445
-0.46
-0.45
-0.44
-0.45
-0.425
-0.415
-0.415
-0.445
-0.47
-0.455
-0.46
-0.475
-0.485
-0.5
-0.49
-0.5
-0.53
-0.535
-0.54
-0.555
-0.555
-0.57
-0.575
-0.575
-0.56
-0.57
-0.55
-0.57
-0.56
-0.57
-0.58
-0.565
-0.54
-0.56
-0.57
-0.605
-0.58
-0.55
-0.595
-0.595
-0.605
-0.585
-0.605
-0.64
-0.625
-0.625
-0.615
-0.545
-0.535
-0.52
-0.4
-0.255
-0.105
0.025
0.21
0.345
0.475
0.605
0.65
0.61
0.51
0.32
0.07
-0.2
-0.41
-0.605
-0.78
-0.855
-0.92
-0.925
-0.925
-0.895
-0.895
-0.88
-0.84
-0.8
-0.745
-0.705
-0.68
-0.655
-0.625
-0.575
-0.59
-0.6
-0.565
-0.555
-0.555
-0.55
-0.555
-0.57
-0.6
-0.535
-0.565
-0.56
-0.55
-0.555
-0.58
-0.525
-0.515
-0.525
-0.56
-0.585
-0.575
-0.545
-0.55
-0.54
-0.525
-0.475
-0.495
-0.56
-0.565
-0.535
-0.52
-0.525
-0.52
-0.515
-0.54
-0.52
-0.505
-0.52
-0.505
-0.485
-0.48
-0.5
-0.5
-0.505
-0.52
-0.49
-0.475
-0.48
-0.475
-0.485
-0.495
-0.49
-0.485
-0.465
-0.445
-0.43
-0.435
-0.46
-0.46
-0.455
-0.435
-0.425
-0.435
-0.415
-0.4
-0.395
-0.41
-0.37
-0.375
-0.37
-0.365
-0.335
-0.33
-0.34
-0.33
-0.335
-0.345
-0.325
-0.295
-0.27
-0.255
-0.26
-0.23
-0.205
-0.22
-0.21
-0.195
-0.165
-0.17
-0.15
-0.135
-0.155
-0.15
-0.115
-0.11
-0.105
-0.115
-0.12
-0.11
-0.075
-0.1
-0.09
-0.095
-0.085
-0.1
-0.125
-0.15
-0.135
-0.14
-0.155
-0.18
-0.21
-0.235
-0.245
-0.25
-0.27
-0.27
-0.295
-0.33
-0.375
-0.37
-0.36
-0.38
-0.41
-0.425
-0.47
-0.49
-0.475
-0.465
-0.475
-0.5
-0.5
-0.49
-0.495
-0.51
-0.525
-0.54
-0.53
-0.53
-0.525
-0.545
-0.52
-0.52
-0.525
-0.53
-0.53
-0.54
-0.54
-0.55
-0.55
-0.545
-0.525
-0.51
-0.54
-0.555
-0.545
-0.51
-0.535
-0.545
-0.58
-0.555
-0.565
-0.575
-0.56
-0.55
-0.56
-0.535
-0.555
-0.515
-0.515
-0.53
-0.565
-0.59
-0.55
-0.565
-0.575
-0.545
-0.53
-0.52
-0.535
-0.54
-0.535
-0.545
-0.55
-0.525
-0.55
-0.535
-0.525
-0.535
-0.55
-0.525
-0.53
-0.515
-0.53
-0.54
-0.535
-0.495
-0.51
-0.505
-0.52
-0.54
-0.565
-0.535
-0.54
-0.525
-0.535
-0.55
-0.55
-0.535
-0.535
-0.54
-0.51
-0.53
-0.555
-0.545
-0.53
-0.535
-0.53
-0.5
-0.5
-0.54
-0.53
-0.525
-0.555
-0.52
-0.535
-0.515
-0.525
-0.54
-0.56
-0.555
-0.55
-0.54
-0.535
-0.535
-0.525
-0.535
-0.525
-0.545
-0.55
-0.535
-0.55
-0.535
-0.555
-0.555
-0.56
-0.58
-0.575
-0.56
-0.535
-0.515
-0.55
-0.565
-0.55
-0.565
-0.57
-0.545
-0.55
-0.585
-0.56
-0.54
-0.52
-0.56
-0.57
-0.575
-0.555
-0.57
-0.555
-0.56
-0.555
-0.565
-0.535
-0.52
-0.535
-0.555
-0.555
-0.555
-0.56
-0.56
-0.57
-0.54
-0.57
-0.54
-0.545
-0.54
-0.565
-0.555
-0.56
-0.585
-0.56
-0.545
-0.565
-0.555
-0.56
-0.545
-0.52
-0.535
-0.565
-0.575
-0.59
-0.55
-0.56
-0.54
-0.565
-0.56
-0.55
-0.535
-0.52
-0.565
-0.585
-0.565
-0.555
-0.57
-0.555
-0.555
-0.54
-0.525
-0.54
-0.535
-0.555
-0.535
-0.55
-0.54
-0.56
-0.58
-0.57
-0.545
-0.55
-0.55
-0.56
-0.555
-0.53
-0.555
-0.58
-0.58
-0.54
-0.54
-0.555
-0.555
-0.54
-0.545
-0.52
-0.525
-0.56
-0.565
-0.56
-0.555
-0.55
-0.555
-0.555
-0.55
-0.565
-0.535
-0.525
-0.57
-0.545
-0.525
-0.595
-0.545
-0.55
-0.56
-0.54
-0.59
-0.565
-0.58
-0.565
-0.56
-0.55
-0.555
-0.545
-0.54
-0.525
-0.5
-0.535
-0.555
-0.555
-0.56
-0.555
-0.555
-0.545
-0.53
-0.56
-0.545
-0.55
-0.54
-0.555
-0.555
-0.565
-0.525
-0.54
-0.54
-0.53
-0.545
-0.545
-0.59
-0.555
-0.47
-0.49
-0.54
-0.525
-0.52
-0.525
-0.53
-0.51
-0.5
-0.515
-0.525
-0.535
-0.515
-0.475
-0.495
-0.505
-0.49
-0.47
-0.47
-0.455
-0.44
-0.44
-0.435
-0.43
-0.425
-0.425
-0.435
-0.405
-0.42
-0.445
-0.425
-0.43
-0.445
-0.45
-0.47
-0.47
-0.47
-0.44
-0.435
-0.445
-0.48
-0.49
-0.495
-0.51
-0.54
-0.545
-0.53
-0.535
-0.555
-0.54
-0.51
-0.52
-0.545
-0.61
-0.575
-0.575
-0.585
-0.58
-0.55
-0.565
-0.605
-0.605
-0.58
-0.56
-0.565
-0.55
-0.555
-0.575
-0.595
-0.58
-0.56
-0.59
-0.625
-0.605
-0.585
-0.57
-0.52
-0.47
-0.425
-0.31
-0.18
-0.035
0.15
0.285
0.465
0.605
0.635
0.62
0.495
0.33
0.09
-0.18
-0.425
-0.655
-0.82
-0.88
-0.93
-0.935
-0.925
-0.925
-0.91
-0.885
-0.86
-0.825
-0.765
-0.725
-0.705
-0.655
-0.615
-0.595
-0.605
-0.57
-0.545
-0.535
-0.565
-0.545
-0.49
-0.525
-0.555
-0.56
-0.57
-0.56
-0.55
-0.535
-0.515
-0.545
-0.54
-0.55
-0.54
-0.525
-0.56
-0.53
-0.525
-0.535
-0.535
-0.53
-0.53
-0.515
-0.505
-0.505
-0.505
-0.48
-0.505
-0.52
-0.52
-0.525
-0.51
-0.525
-0.49
-0.485
-0.505
-0.485
-0.485
-0.525
-0.525
-0.495
-0.505
-0.49
-0.465
-0.45
-0.485
-0.45
-0.42
-0.435
-0.47
-0.475
-0.47
-0.47
-0.445
-0.445
-0.43
-0.43
-0.41
-0.44
-0.45
-0.42
-0.395
-0.385
-0.37
-0.38
-0.395
-0.38
-0.375
-0.34
-0.34
-0.33
-0.295
-0.295
-0.31
-0.29
-0.26
-0.265
-0.22
-0.2
-0.195
-0.24
-0.215
-0.175
-0.16
-0.155
-0.17
-0.155
-0.14
-0.13
-0.135
-0.12
-0.125
-0.09
-0.085
-0.1
-0.09
-0.085
-0.11
-0.115
-0.145
-0.135
-0.125
-0.085
-0.135
-0.19
-0.195
-0.225
-0.26
-0.28
-0.28
-0.295
-0.3
-0.32
-0.345
-0.36
-0.36
-0.39
-0.42
-0.42
-0.445
-0.44
-0.445
-0.435
-0.46
-0.465
-0.48
-0.505
-0.525
-0.535
-0.53
-0.525
-0.525
-0.505
-0.525
-0.53
-0.515
-0.52
-0.53
-0.545
-0.53
-0.535
-0.54
-0.525
-0.55
-0.515
-0.54
-0.545
-0.555
-0.545
-0.55
-0.555
-0.565
-0.525
-0.535
-0.545
-0.535
-0.545
-0.545
-0.52
-0.525
-0.555
-0.555
-0.525
-0.525
-0.55
-0.58
-0.525
-0.525
-0.52
-0.54
-0.53
-0.525
-0.545
-0.51
-0.49
-0.52
-0.54
-0.55
-0.51
-0.53
-0.52
-0.54
-0.535
-0.525
-0.525
-0.515
-0.535
-0.545
-0.53
-0.53
-0.535
-0.55
-0.515
-0.495
-0.505
-0.485
-0.5
-0.535
-0.53
-0.53
-0.51
-0.53
-0.515
-0.52
-0.51
-0.505
-0.51
-0.485
-0.49
-0.51
-0.53
-0.525
-0.505
-0.515
-0.545
-0.54
-0.505
-0.49
-0.51
-0.525
-0.535
-0.515
-0.51
-0.515
-0.515
-0.485
-0.46
-0.505
-0.56
-0.53
-0.54
-0.54
-0.515
-0.505
-0.515
-0.53
-0.52
-0.52
-0.515
-0.525
-0.55
-0.515
-0.52
-0.52
-0.515
-0.515
-0.515
-0.535
-0.525
-0.51
-0.525
-0.51
-0.56
-0.545
-0.52
-0.505
-0.5
-0.51
-0.54
-0.54
-0.545
-0.535
-0.515
-0.52
-0.49
-0.48
-0.525
-0.545
-0.55
-0.53
-0.52
-0.53
-0.525
-0.545
-0.535
-0.54
-0.525
-0.545
-0.535
-0.525
-0.53
-0.52
-0.525
-0.515
-0.51
-0.51
-0.505
-0.525
-0.54
-0.51
-0.53
-0.555
-0.54
-0.54
-0.54
-0.51
-0.525
-0.535
-0.525
-0.54
-0.545
-0.53
-0.53
-0.53
-0.48
-0.49
-0.51
-0.515
-0.54
-0.52
-0.525
-0.525
-0.51
-0.54
-0.555
-0.525
-0.515
-0.515
-0.52
-0.535
-0.54
-0.515
-0.505
-0.54
-0.54
-0.53
-0.495
-0.535
-0.525
-0.53
-0.53
-0.515
-0.535
-0.55
-0.55
-0.505
-0.525
-0.525
-0.53
-0.545
-0.555
-0.54
-0.535
-0.54
-0.5
-0.49
-0.525
-0.565
-0.53
-0.495
-0.52
-0.51
-0.51
-0.505
-0.515
-0.51
-0.53
-0.535
-0.53
-0.52
-0.52
-0.525
-0.525
-0.52
-0.525
-0.515
-0.52
-0.51
-0.53
-0.54
-0.505
-0.51
-0.495
-0.46
-0.455
-0.485
-0.515
-0.485
-0.495
-0.495
-0.495
-0.505
-0.475
-0.46
-0.47
-0.475
-0.455
-0.445
-0.405
-0.4
-0.415
-0.4
-0.37
-0.385
-0.39
-0.385
-0.38
-0.4
-0.42
-0.455
-0.41
-0.425
-0.425
-0.415
-0.365
-0.365
-0.41
-0.45
-0.455
-0.465
-0.47
-0.51
-0.525
-0.515
-0.495
-0.495
-0.525
-0.545
-0.54
-0.52
-0.515
-0.515
-0.525
-0.535
-0.57
-0.58
-0.56
-0.525
-0.52
-0.54
-0.515
-0.52
-0.515
-0.535
-0.52
-0.55
-0.565
-0.53
-0.55
-0.585
-0.585
-0.585
-0.615
-0.59
-0.545
-0.5
-0.47
-0.38
-0.255
-0.175
-0.055
0.085
0.275
0.45
0.605
0.695
0.665
0.6
0.445
0.21
-0.05
-0.3
-0.51
-0.69
-0.835
-0.88
-0.9
-0.9
-0.89
-0.885
-0.845
-0.795
-0.775
-0.735
-0.67
-0.655
-0.59
-0.58
-0.55
-0.535
-0.525
-0.505
-0.53
-0.52
-0.53
-0.535
-0.51
-0.515
-0.505
-0.52
-0.52
-0.5
-0.52
-0.51
-0.48
-0.49
-0.53
-0.51
-0.49
-0.485
-0.505
-0.51
-0.5
-0.465
-0.49
-0.47
-0.47
-0.47
-0.47
-0.46
-0.48
-0.47
-0.475
-0.46
-0.465
-0.455
-0.465
-0.475
-0.45
-0.455
-0.455
-0.46
-0.44
-0.425
-0.43
-0.425
-0.43
-0.42
-0.39
-0.435
-0.48
-0.455
-0.435
-0.43
-0.39
-0.415
-0.395
-0.405
-0.41
-0.385
-0.375
-0.345
-0.345
-0.355
-0.385
-0.36
-0.345
-0.34
-0.3
-0.28
-0.31
-0.28
-0.27
-0.285
-0.285
-0.275
-0.27
-0.25
-0.245
-0.23
-0.195
-0.195
-0.185
-0.155
-0.14
-0.125
-0.165
-0.135
-0.12
-0.125
-0.095
-0.05
-0.045
-0.085
-0.105
-0.1
-0.085
-0.09
-0.07
-0.04
-0.06
-0.055
-0.055
-0.075
-0.13
-0.145
-0.12
-0.12
-0.135
-0.15
-0.175
-0.195
-0.195
-0.24
-0.295
-0.29
-0.265
-0.28
-0.31
-0.365
-0.36
-0.375
-0.38
-0.405
-0.415
-0.435
-0.405
-0.44
-0.445
-0.425
-0.47
-0.47
-0.425
-0.44
-0.52
-0.535
-0.52
