# TIPE ECG 2021 - ECG-ID Database v1.0.0 par Physionet
# [Numéro de la personne, Période d'échantillonnage, Prénom, Age, Sexe, Date de l'enregistrement]
[70, 0.002, Edith, 24, F, 12.05.2005]
-0.055
-0.035
-0.085
-0.05
-0.05
-0.075
-0.05
-0.075
-0.065
-0.045
-0.045
-0.06
-0.06
-0.05
-0.04
-0.07
-0.06
-0.05
-0.085
-0.095
-0.05
-0.065
-0.06
-0.065
-0.08
-0.065
-0.05
-0.06
-0.055
-0.07
-0.065
-0.09
-0.08
-0.075
-0.075
-0.09
-0.085
-0.085
-0.095
-0.105
-0.07
-0.075
-0.085
-0.07
-0.095
-0.12
-0.09
-0.08
-0.11
-0.075
-0.065
-0.09
-0.115
-0.1
-0.08
-0.08
-0.1
-0.12
-0.13
-0.115
-0.11
-0.12
-0.11
-0.105
-0.105
-0.11
-0.1
-0.11
-0.13
-0.125
-0.125
-0.13
-0.13
-0.125
-0.13
-0.13
-0.13
-0.135
-0.13
-0.11
-0.125
-0.135
-0.15
-0.12
-0.12
-0.135
-0.14
-0.085
-0.15
-0.125
-0.145
-0.135
-0.15
-0.12
-0.14
-0.14
-0.12
-0.14
-0.145
-0.15
-0.145
-0.14
-0.14
-0.135
-0.15
-0.16
-0.14
-0.135
-0.145
-0.16
-0.145
-0.16
-0.16
-0.155
-0.15
-0.155
-0.15
-0.165
-0.15
-0.15
-0.15
-0.165
-0.155
-0.165
-0.17
-0.175
-0.155
-0.155
-0.16
-0.18
-0.165
-0.155
-0.17
-0.165
-0.175
-0.16
-0.175
-0.165
-0.17
-0.155
-0.165
-0.195
-0.195
-0.17
-0.165
-0.165
-0.165
-0.15
-0.16
-0.18
-0.165
-0.185
-0.195
-0.17
-0.17
-0.165
-0.17
-0.165
-0.165
-0.145
-0.145
-0.16
-0.145
-0.165
-0.16
-0.15
-0.135
-0.12
-0.13
-0.125
-0.125
-0.105
-0.13
-0.115
-0.13
-0.12
-0.145
-0.13
-0.13
-0.115
-0.14
-0.135
-0.15
-0.15
-0.155
-0.16
-0.175
-0.205
-0.195
-0.195
-0.205
-0.205
-0.205
-0.17
-0.19
-0.195
-0.19
-0.21
-0.185
-0.185
-0.19
-0.2
-0.195
-0.16
-0.2
-0.195
-0.185
-0.21
-0.185
-0.185
-0.18
-0.2
-0.195
-0.17
-0.19
-0.185
-0.175
-0.2
-0.2
-0.19
-0.19
-0.21
-0.185
-0.18
-0.18
-0.21
-0.205
-0.23
-0.25
-0.22
-0.185
-0.115
0.0
0.05
0.1
0.095
0.1
0.1
0.09
0.08
0.055
0.07
0.05
0.075
0.07
0.035
-0.01
-0.155
-0.215
-0.24
-0.25
-0.25
-0.255
-0.23
-0.23
-0.215
-0.2
-0.22
-0.2
-0.195
-0.205
-0.215
-0.18
-0.17
-0.175
-0.175
-0.175
-0.185
-0.16
-0.19
-0.17
-0.18
-0.18
-0.17
-0.18
-0.165
-0.15
-0.165
-0.175
-0.175
-0.18
-0.17
-0.13
-0.165
-0.16
-0.155
-0.165
-0.16
-0.165
-0.185
-0.16
-0.17
-0.155
-0.165
-0.15
-0.145
-0.125
-0.16
-0.15
-0.135
-0.15
-0.145
-0.125
-0.15
-0.155
-0.125
-0.13
-0.145
-0.145
-0.13
-0.125
-0.115
-0.115
-0.13
-0.135
-0.115
-0.12
-0.13
-0.125
-0.115
-0.115
-0.105
-0.1
-0.115
-0.105
-0.075
-0.08
-0.1
-0.085
-0.07
-0.08
-0.08
-0.07
-0.08
-0.06
-0.055
-0.065
-0.06
-0.045
-0.045
-0.05
-0.045
0.0
-0.015
-0.01
0.005
-0.005
0.015
0.01
0.015
0.02
0.06
0.065
0.05
0.06
0.08
0.085
0.085
0.075
0.085
0.105
0.11
0.105
0.1
0.105
0.09
0.12
0.12
0.1
0.095
0.125
0.13
0.1
0.09
0.11
0.1
0.07
0.07
0.075
0.065
0.05
0.04
0.035
0.02
0.02
0.0
-0.01
-0.025
-0.035
-0.045
-0.06
-0.05
-0.07
-0.075
-0.075
-0.08
-0.115
-0.105
-0.11
-0.145
-0.135
-0.125
-0.135
-0.14
-0.15
-0.14
-0.125
-0.13
-0.17
-0.155
-0.155
-0.145
-0.14
-0.15
-0.155
-0.155
-0.14
-0.15
-0.145
-0.155
-0.17
-0.135
-0.125
-0.155
-0.145
-0.135
-0.12
-0.15
-0.145
-0.13
-0.14
-0.135
-0.135
-0.145
-0.145
-0.135
-0.145
-0.125
-0.13
-0.135
-0.13
-0.13
-0.14
-0.135
-0.125
-0.125
-0.135
-0.125
-0.12
-0.125
-0.115
-0.135
-0.14
-0.11
-0.13
-0.125
-0.12
-0.125
-0.125
-0.115
-0.135
-0.13
-0.125
-0.125
-0.14
-0.12
-0.125
-0.125
-0.13
-0.13
-0.135
-0.115
-0.13
-0.12
-0.16
-0.14
-0.135
-0.12
-0.1
-0.12
-0.13
-0.125
-0.125
-0.13
-0.14
-0.13
-0.135
-0.11
-0.105
-0.14
-0.115
-0.135
-0.12
-0.12
-0.12
-0.13
-0.135
-0.13
-0.105
-0.14
-0.12
-0.11
-0.115
-0.12
-0.12
-0.145
-0.125
-0.15
-0.13
-0.135
-0.115
-0.125
-0.13
-0.12
-0.12
-0.13
-0.13
-0.12
-0.13
-0.12
-0.12
-0.125
-0.12
-0.13
-0.145
-0.135
-0.135
-0.13
-0.12
-0.135
-0.13
-0.115
-0.125
-0.105
-0.115
-0.145
-0.125
-0.11
-0.125
-0.16
-0.145
-0.11
-0.11
-0.125
-0.12
-0.125
-0.14
-0.12
-0.15
-0.1
-0.13
-0.135
-0.125
-0.11
-0.12
-0.13
-0.14
-0.12
-0.145
-0.12
-0.115
-0.135
-0.13
-0.12
-0.11
-0.135
-0.13
-0.11
-0.125
-0.125
-0.095
-0.095
-0.105
-0.09
-0.1
-0.09
-0.09
-0.09
-0.085
-0.09
-0.07
-0.055
-0.055
-0.055
-0.045
-0.07
-0.055
-0.055
-0.065
-0.075
-0.09
-0.06
-0.075
-0.075
-0.075
-0.085
-0.08
-0.09
-0.105
-0.11
-0.09
-0.115
-0.13
-0.14
-0.145
-0.14
-0.125
-0.135
-0.135
-0.135
-0.14
-0.135
-0.13
-0.125
-0.125
-0.125
-0.135
-0.135
-0.115
-0.12
-0.125
-0.14
-0.135
-0.145
-0.145
-0.135
-0.125
-0.14
-0.135
-0.135
-0.13
-0.145
-0.15
-0.12
-0.11
-0.14
-0.135
-0.145
-0.15
-0.17
-0.175
-0.16
-0.165
-0.08
0.01
0.105
0.135
0.205
0.205
0.21
0.185
0.22
0.23
0.205
0.155
0.145
0.175
0.14
0.125
0.055
-0.035
-0.08
-0.135
-0.155
-0.175
-0.17
-0.16
-0.15
-0.15
-0.15
-0.13
-0.145
-0.135
-0.125
-0.12
-0.12
-0.125
-0.135
-0.13
-0.105
-0.105
-0.125
-0.115
-0.11
-0.13
-0.125
-0.115
-0.115
-0.115
-0.105
-0.105
-0.11
-0.11
-0.11
-0.105
-0.09
-0.11
-0.115
-0.11
-0.12
-0.09
-0.105
-0.1
-0.12
-0.115
-0.11
-0.07
-0.105
-0.11
-0.085
-0.09
-0.1
-0.085
-0.07
-0.075
-0.075
-0.08
-0.105
-0.09
-0.08
-0.08
-0.095
-0.08
-0.065
-0.07
-0.105
-0.07
-0.075
-0.07
-0.08
-0.065
-0.065
-0.07
-0.055
-0.065
-0.05
-0.05
-0.06
-0.06
-0.05
-0.04
-0.025
-0.045
-0.04
-0.045
-0.03
-0.015
-0.01
-0.01
-0.02
-0.02
0.0
-0.005
0.005
0.015
0.03
-0.01
0.02
0.05
0.04
0.045
0.06
0.08
0.075
0.075
0.105
0.125
0.1
0.115
0.14
0.135
0.135
0.175
0.15
0.16
0.2
0.17
0.175
0.19
0.2
0.185
0.19
0.2
0.17
0.185
0.195
0.195
0.185
0.185
0.18
0.185
0.185
0.18
0.165
0.15
0.145
0.13
0.13
0.12
0.115
0.095
0.09
0.11
0.07
0.06
0.07
0.065
0.05
0.07
0.06
0.02
0.045
0.055
0.04
0.015
0.02
0.025
0.02
0.035
0.04
0.04
0.035
0.04
0.03
0.035
0.035
0.03
0.04
0.02
0.045
0.035
0.05
0.04
0.055
0.06
0.05
0.05
0.05
0.055
0.065
0.055
0.08
0.065
0.06
0.065
0.075
0.07
0.065
0.09
0.07
0.095
0.1
0.095
0.085
0.09
0.1
0.095
0.09
0.095
0.1
0.115
0.105
0.095
0.095
0.115
0.1
0.1
0.095
0.11
0.11
0.11
0.095
0.12
0.115
0.125
0.115
0.11
0.1
0.1
0.135
0.13
0.11
0.125
0.125
0.13
0.125
0.12
0.13
0.125
0.11
0.14
0.12
0.155
0.125
0.13
0.14
0.125
0.155
0.16
0.105
0.135
0.155
0.135
0.13
0.135
0.135
0.145
0.145
0.125
0.125
0.155
0.155
0.14
0.12
0.15
0.145
0.14
0.16
0.15
0.15
0.145
0.145
0.15
0.14
0.15
0.14
0.15
0.16
0.155
0.145
0.14
0.16
0.165
0.13
0.155
0.155
0.16
0.155
0.15
0.145
0.17
0.165
0.15
0.145
0.155
0.16
0.17
0.165
0.15
0.145
0.15
0.16
0.165
0.145
0.165
0.15
0.165
0.16
0.175
0.155
0.155
0.165
0.13
0.135
0.165
0.14
0.18
0.155
0.165
0.16
0.17
0.155
0.15
0.16
0.16
0.16
0.16
0.175
0.165
0.165
0.17
0.175
0.15
0.155
0.175
0.155
0.175
0.165
0.165
0.155
0.175
0.165
0.15
0.16
0.165
0.155
0.19
0.155
0.165
0.17
0.175
0.17
0.16
0.195
0.165
0.14
0.155
0.17
0.185
0.155
0.165
0.155
0.185
0.16
0.18
0.17
0.195
0.175
0.195
0.19
0.2
0.195
0.195
0.175
0.215
0.225
0.22
0.22
0.22
0.205
0.21
0.205
0.215
0.225
0.22
0.2
0.21
0.2
0.205
0.215
0.2
0.185
0.165
0.19
0.17
0.155
0.14
0.15
0.13
0.15
0.16
0.165
0.165
0.135
0.145
0.145
0.15
0.17
0.125
0.135
0.135
0.135
0.12
0.15
0.16
0.12
0.125
0.15
0.115
0.15
0.135
0.11
0.12
0.125
0.13
0.095
0.125
0.09
0.085
0.095
0.09
0.075
0.055
0.025
0.03
0.015
0.07
0.12
0.245
0.315
0.355
0.375
0.39
0.36
0.355
0.37
0.37
0.355
0.34
0.345
0.345
0.325
0.275
0.17
0.055
0.015
-0.01
-0.005
-0.025
-0.02
-0.005
-0.005
-0.015
-0.005
0.02
0.025
0.02
0.0
0.0
0.02
0.02
0.025
0.015
-0.01
0.03
0.01
0.0
0.02
0.0
0.015
0.04
0.015
-0.015
0.005
0.0
0.01
-0.025
-0.01
0.02
0.005
0.0
0.02
-0.015
0.0
-0.005
0.0
0.005
0.01
0.0
0.0
0.005
0.01
-0.01
0.01
0.0
0.01
-0.005
0.005
-0.025
-0.005
0.01
-0.005
-0.005
-0.015
0.01
-0.005
-0.005
-0.01
0.005
0.005
0.01
0.01
0.0
0.0
0.005
-0.005
0.005
0.0
0.005
0.01
0.01
-0.005
0.06
0.02
0.01
0.015
0.015
0.0
0.01
0.02
0.04
0.03
0.045
0.04
0.025
0.05
0.08
0.045
0.055
0.075
0.08
0.06
0.08
0.075
0.075
0.08
0.095
0.095
0.11
0.12
0.1
0.11
0.115
0.135
0.17
0.14
0.145
0.13
0.15
0.15
0.145
0.14
0.155
0.16
0.175
0.16
0.14
0.14
0.15
0.165
0.165
0.145
0.135
0.125
0.125
0.125
0.125
0.095
0.085
0.07
0.07
0.05
0.055
0.035
0.005
0.03
0.015
-0.02
-0.015
-0.02
-0.04
-0.04
-0.06
-0.055
-0.05
-0.05
-0.06
-0.07
-0.05
-0.095
-0.1
-0.1
-0.09
-0.075
-0.125
-0.11
-0.09
-0.095
-0.11
-0.125
-0.115
-0.115
-0.115
-0.12
-0.115
-0.105
-0.1
-0.11
-0.085
-0.105
-0.11
-0.1
-0.1
-0.13
-0.1
-0.115
-0.1
-0.095
-0.095
-0.1
-0.11
-0.105
-0.1
-0.1
-0.08
-0.115
-0.09
-0.095
-0.085
-0.095
-0.085
-0.09
-0.07
-0.115
-0.125
-0.11
-0.125
-0.1
-0.09
-0.08
-0.105
-0.095
-0.1
-0.09
-0.115
-0.11
-0.1
-0.11
-0.1
-0.105
-0.115
-0.105
-0.09
-0.115
-0.125
-0.12
-0.13
-0.12
-0.11
-0.105
-0.13
-0.095
-0.105
-0.125
-0.12
-0.135
-0.125
-0.11
-0.11
-0.13
-0.14
-0.11
-0.11
-0.155
-0.125
-0.115
-0.135
-0.12
-0.12
-0.12
-0.155
-0.12
-0.135
-0.14
-0.125
-0.13
-0.14
-0.135
-0.115
-0.14
-0.14
-0.125
-0.115
-0.125
-0.125
-0.13
-0.125
-0.155
-0.155
-0.15
-0.135
-0.12
-0.12
-0.135
-0.13
-0.125
-0.14
-0.145
-0.155
-0.16
-0.17
-0.125
-0.12
-0.15
-0.16
-0.14
-0.145
-0.11
-0.14
-0.15
-0.145
-0.15
-0.14
-0.145
-0.135
-0.145
-0.135
-0.12
-0.1
-0.145
-0.13
-0.115
-0.135
-0.145
-0.11
-0.095
-0.11
-0.12
-0.12
-0.11
-0.105
-0.095
-0.11
-0.095
-0.09
-0.085
-0.09
-0.06
-0.1
-0.095
-0.1
-0.11
-0.105
-0.095
-0.09
-0.1
-0.115
-0.075
-0.11
-0.11
-0.135
-0.155
-0.165
-0.155
-0.145
-0.145
-0.125
-0.17
-0.145
-0.155
-0.15
-0.145
-0.16
-0.17
-0.19
-0.15
-0.145
-0.145
-0.14
-0.12
-0.15
-0.12
-0.16
-0.15
-0.185
-0.175
-0.165
-0.145
-0.15
-0.175
-0.175
-0.165
-0.19
-0.155
-0.165
-0.165
-0.18
-0.185
-0.165
-0.135
-0.155
-0.195
-0.195
-0.15
-0.145
-0.08
0.0
0.08
0.13
0.115
0.14
0.12
0.095
0.05
0.06
0.075
0.08
0.115
0.105
0.03
-0.065
-0.23
-0.265
-0.26
-0.24
-0.24
-0.215
-0.2
-0.19
-0.2
-0.2
-0.2
-0.195
-0.18
-0.165
-0.18
-0.175
-0.14
-0.145
-0.165
-0.13
-0.12
-0.12
-0.13
-0.145
-0.14
-0.145
-0.15
-0.145
-0.14
-0.16
-0.16
-0.135
-0.085
-0.125
-0.15
-0.14
-0.14
-0.14
-0.155
-0.125
-0.12
-0.155
-0.095
-0.12
-0.165
-0.17
-0.14
-0.125
-0.11
-0.09
-0.13
-0.12
-0.13
-0.125
-0.14
-0.11
-0.035
-0.07
-0.09
-0.145
-0.14
-0.085
-0.02
-0.055
-0.095
-0.145
-0.16
-0.15
-0.135
-0.135
-0.115
-0.075
-0.06
-0.07
-0.09
-0.085
-0.09
-0.07
-0.055
-0.06
-0.1
-0.08
-0.085
-0.06
-0.025
0.005
-0.03
-0.035
-0.06
-0.025
-0.06
-0.005
0.015
-0.01
-0.005
-0.03
-0.01
-0.035
-0.025
0.0
0.03
0.035
0.035
0.095
0.1
0.09
0.1
0.065
0.055
0.085
0.105
0.095
0.1
0.09
0.085
0.12
0.13
0.16
0.175
0.125
0.13
0.13
0.11
0.095
0.075
0.125
0.08
0.1
0.095
0.135
0.095
0.095
0.06
0.055
0.06
0.04
0.035
0.015
0.04
0.085
0.015
-0.065
-0.135
-0.095
-0.085
-0.11
-0.06
-0.065
-0.1
-0.125
-0.12
-0.095
-0.07
-0.1
-0.15
-0.11
-0.09
-0.13
-0.08
-0.125
-0.15
-0.145
-0.13
-0.105
-0.09
-0.075
-0.125
-0.14
-0.16
-0.15
-0.145
-0.085
-0.135
-0.145
-0.165
-0.15
-0.155
-0.135
-0.125
-0.13
-0.125
-0.13
-0.105
-0.11
-0.11
-0.13
-0.095
-0.13
-0.105
-0.1
-0.16
-0.125
-0.14
-0.1
-0.09
-0.1
-0.14
-0.14
-0.145
-0.08
-0.06
-0.055
-0.08
-0.145
-0.135
-0.15
-0.175
-0.13
-0.11
-0.09
-0.12
-0.09
-0.085
-0.11
-0.115
-0.105
-0.12
-0.12
-0.12
-0.11
-0.115
-0.13
-0.1
-0.1
-0.145
-0.14
-0.15
-0.15
-0.12
-0.09
-0.095
-0.055
-0.07
-0.1
-0.13
-0.165
-0.125
-0.115
-0.125
-0.14
-0.14
-0.125
-0.11
-0.13
-0.13
-0.11
-0.115
-0.085
-0.09
-0.08
-0.12
-0.105
-0.1
-0.11
-0.115
-0.15
-0.14
-0.14
-0.1
-0.095
-0.125
-0.13
-0.11
-0.145
-0.12
-0.11
-0.125
-0.14
-0.135
-0.145
-0.13
-0.135
-0.11
-0.095
-0.11
-0.095
-0.115
-0.125
-0.115
-0.13
-0.135
-0.12
-0.12
-0.125
-0.115
-0.135
-0.12
-0.12
-0.13
-0.15
-0.135
-0.115
-0.12
-0.105
-0.095
-0.07
-0.12
-0.11
-0.12
-0.085
-0.065
-0.06
-0.105
-0.12
-0.13
-0.09
-0.07
-0.055
-0.045
-0.065
-0.065
-0.04
-0.055
-0.065
-0.04
-0.08
-0.065
-0.05
-0.065
-0.08
-0.035
-0.08
-0.095
-0.045
-0.075
-0.105
-0.115
-0.125
-0.115
-0.125
-0.135
-0.13
-0.125
-0.13
-0.11
-0.145
-0.155
-0.15
-0.14
-0.135
-0.13
-0.1
-0.13
-0.135
-0.115
-0.115
-0.14
-0.13
-0.145
-0.135
-0.125
-0.14
-0.1
-0.115
-0.12
-0.12
-0.13
-0.12
-0.135
-0.13
-0.15
-0.135
-0.11
-0.14
-0.13
-0.185
-0.21
-0.19
-0.185
-0.145
-0.035
0.085
0.15
0.18
0.17
0.18
0.175
0.165
0.19
0.185
0.16
0.155
0.16
0.12
0.13
0.105
-0.005
-0.08
-0.135
-0.145
-0.145
-0.185
-0.18
-0.175
-0.155
-0.16
-0.175
-0.135
-0.115
-0.145
-0.12
-0.14
-0.155
-0.12
-0.125
-0.135
-0.115
-0.12
-0.13
-0.15
-0.12
-0.105
-0.105
-0.1
-0.095
-0.09
-0.12
-0.115
-0.12
-0.12
-0.125
-0.09
-0.11
-0.12
-0.13
-0.14
-0.12
-0.125
-0.12
-0.105
-0.12
-0.125
-0.11
-0.105
-0.095
-0.11
-0.075
-0.08
-0.11
-0.08
-0.075
-0.11
-0.07
-0.105
-0.08
-0.06
-0.075
-0.08
-0.105
-0.1
-0.07
-0.105
-0.08
-0.075
-0.095
-0.065
-0.045
-0.065
-0.08
-0.105
-0.08
-0.08
-0.07
-0.045
-0.04
-0.055
-0.05
-0.055
-0.04
-0.035
-0.015
-0.055
-0.05
-0.045
-0.04
-0.03
-0.03
-0.03
-0.01
-0.01
0.0
0.02
0.025
0.02
0.015
0.025
0.015
0.04
0.025
0.03
0.065
0.065
0.09
0.09
0.095
0.09
0.085
0.095
0.095
0.075
0.11
0.12
0.11
0.105
0.105
0.11
0.11
0.13
0.125
0.12
0.12
0.11
0.105
0.105
0.09
0.11
0.095
0.08
0.06
0.055
0.04
0.025
0.035
0.015
0.0
-0.01
-0.025
-0.04
-0.02
-0.03
-0.06
-0.05
-0.055
-0.065
-0.075
-0.07
-0.095
-0.095
-0.095
-0.09
-0.075
-0.105
-0.08
-0.07
-0.115
-0.105
-0.095
-0.105
-0.1
-0.125
-0.11
-0.1
-0.13
-0.115
-0.115
-0.1
-0.115
-0.15
-0.145
-0.12
-0.11
-0.13
-0.11
-0.11
-0.115
-0.11
-0.1
-0.12
-0.11
-0.11
-0.12
-0.11
-0.105
-0.105
-0.11
-0.105
-0.08
-0.125
-0.095
-0.11
-0.11
-0.115
-0.105
-0.09
-0.115
-0.095
-0.105
-0.105
-0.1
-0.105
-0.12
-0.12
-0.105
-0.08
-0.14
-0.095
-0.11
-0.13
-0.115
-0.115
-0.15
-0.125
-0.115
-0.12
-0.13
-0.11
-0.1
-0.1
-0.125
-0.105
-0.12
-0.1
-0.11
-0.135
-0.115
-0.13
-0.12
-0.115
-0.1
-0.115
-0.09
-0.105
-0.15
-0.155
-0.155
-0.13
-0.14
-0.14
-0.145
-0.12
-0.125
-0.125
-0.12
-0.125
-0.155
-0.12
-0.115
-0.14
-0.125
-0.13
-0.13
-0.15
-0.13
-0.175
-0.145
-0.14
-0.14
-0.135
-0.12
-0.135
-0.14
-0.13
-0.12
-0.115
-0.165
-0.15
-0.15
-0.145
-0.145
-0.165
-0.145
-0.135
-0.145
-0.155
-0.145
-0.15
-0.135
-0.16
-0.16
-0.14
-0.165
-0.135
-0.155
-0.155
-0.155
-0.15
-0.155
-0.16
-0.145
-0.17
-0.155
-0.135
-0.12
-0.135
-0.15
-0.15
-0.15
-0.13
-0.1
-0.11
-0.11
-0.135
-0.11
-0.11
-0.095
-0.09
-0.115
-0.11
-0.1
-0.115
-0.105
-0.105
-0.1
-0.13
-0.105
-0.08
-0.095
-0.11
-0.12
-0.125
-0.13
-0.13
-0.11
-0.15
-0.15
-0.175
-0.19
-0.175
-0.16
-0.135
-0.135
-0.18
-0.17
-0.175
-0.195
-0.17
-0.205
-0.155
-0.185
-0.17
-0.175
-0.17
-0.15
-0.165
-0.205
-0.175
-0.17
-0.175
-0.18
-0.195
-0.185
-0.18
-0.165
-0.18
-0.185
-0.18
-0.19
-0.165
-0.17
-0.18
-0.175
-0.2
-0.18
-0.19
-0.225
-0.225
-0.215
-0.175
-0.06
0.01
0.06
0.13
0.12
0.1
0.095
0.095
0.07
0.06
0.055
0.06
0.08
0.07
0.01
-0.07
-0.18
-0.21
-0.26
-0.225
-0.25
-0.245
-0.225
-0.23
-0.215
-0.215
-0.2
-0.225
-0.23
-0.215
-0.18
-0.155
-0.17
-0.195
-0.17
-0.165
-0.17
-0.16
-0.165
-0.145
-0.11
-0.185
-0.2
-0.22
-0.21
-0.2
-0.16
-0.17
-0.19
-0.18
-0.16
-0.17
-0.15
-0.145
-0.165
-0.18
-0.18
-0.15
-0.165
-0.145
-0.15
-0.16
-0.16
-0.17
-0.155
-0.15
-0.155
-0.145
-0.165
-0.165
-0.15
-0.155
-0.18
-0.135
-0.125
-0.145
-0.145
-0.165
-0.155
-0.13
-0.15
-0.16
-0.16
-0.125
-0.135
-0.12
-0.12
-0.135
-0.16
-0.125
-0.115
-0.115
-0.155
-0.125
-0.13
-0.13
-0.105
-0.09
-0.1
-0.095
-0.1
-0.105
-0.095
-0.08
-0.09
-0.075
-0.06
-0.07
-0.05
-0.015
-0.055
-0.045
-0.055
-0.01
-0.03
-0.035
-0.02
-0.015
-0.015
-0.005
0.015
0.015
0.03
0.03
-0.015
0.005
0.025
0.04
0.01
0.01
0.025
0.005
0.03
0.03
-0.005
-0.01
0.015
0.005
0.005
0.015
-0.005
-0.045
-0.02
-0.03
-0.08
-0.07
-0.055
-0.085
-0.135
-0.14
-0.13
-0.115
-0.16
-0.13
-0.16
-0.16
-0.155
-0.17
-0.2
-0.135
-0.125
-0.125
-0.17
-0.185
-0.19
-0.18
-0.18
-0.19
-0.215
-0.185
-0.2
-0.215
-0.19
-0.195
-0.215
-0.21
-0.18
-0.2
-0.21
-0.255
-0.21
-0.23
-0.2
-0.2
-0.2
-0.22
-0.23
-0.215
-0.21
-0.18
-0.185
-0.23
-0.19
-0.205
-0.2
-0.2
-0.185
-0.205
-0.19
-0.175
-0.2
-0.215
-0.205
-0.185
-0.195
-0.16
-0.165
-0.19
-0.2
-0.225
-0.23
-0.2
-0.2
-0.165
-0.225
-0.18
-0.165
-0.175
-0.21
-0.215
-0.185
-0.225
-0.19
-0.18
-0.16
-0.185
-0.195
-0.145
-0.2
-0.225
-0.2
-0.185
-0.17
-0.17
-0.23
-0.175
-0.185
-0.175
-0.205
-0.215
-0.215
-0.19
-0.205
-0.17
-0.185
-0.17
-0.19
-0.21
-0.215
-0.15
-0.155
-0.16
-0.205
-0.23
-0.225
-0.195
-0.185
-0.15
-0.175
-0.18
-0.26
-0.2
-0.2
-0.2
-0.175
-0.21
-0.23
-0.235
-0.165
-0.205
-0.195
-0.17
-0.16
-0.215
-0.19
-0.185
-0.18
-0.19
-0.185
-0.165
-0.175
-0.205
-0.2
-0.22
-0.17
-0.16
-0.16
-0.185
-0.135
-0.165
-0.165
-0.16
-0.135
-0.12
-0.14
-0.15
-0.115
-0.135
-0.165
-0.15
-0.13
-0.12
-0.11
-0.135
-0.17
-0.14
-0.12
-0.135
-0.12
-0.15
-0.145
-0.13
-0.135
-0.165
-0.205
-0.18
-0.17
-0.18
-0.18
-0.205
-0.21
-0.2
-0.19
-0.185
-0.175
-0.165
-0.17
-0.15
-0.185
-0.185
-0.165
-0.18
-0.16
-0.18
-0.19
-0.195
-0.2
-0.215
-0.165
-0.155
-0.185
-0.18
-0.155
-0.2
-0.225
-0.18
-0.17
-0.195
-0.175
-0.175
-0.16
-0.16
-0.185
-0.205
-0.185
-0.225
-0.23
-0.18
-0.16
-0.115
-0.035
0.03
0.07
0.045
0.02
0.02
-0.085
-0.105
-0.1
-0.04
-0.09
-0.07
-0.065
-0.09
-0.155
-0.235
-0.3
-0.335
-0.29
-0.25
-0.275
-0.245
-0.235
-0.21
-0.205
-0.16
-0.15
-0.19
-0.185
-0.175
-0.165
-0.185
-0.195
-0.21
-0.215
-0.18
-0.245
-0.19
-0.155
-0.155
-0.16
-0.16
-0.18
-0.175
-0.2
-0.16
-0.185
-0.18
-0.165
-0.17
-0.19
-0.18
-0.15
-0.195
-0.13
-0.19
-0.185
-0.155
-0.145
-0.17
-0.13
-0.185
-0.195
-0.16
-0.185
-0.155
-0.13
-0.165
-0.16
-0.145
-0.18
-0.19
-0.165
-0.165
-0.155
-0.13
-0.165
-0.13
-0.135
-0.17
-0.175
-0.18
-0.135
-0.145
-0.145
-0.115
-0.17
-0.14
-0.17
-0.17
-0.15
-0.13
-0.115
-0.09
-0.11
-0.15
-0.145
-0.13
-0.125
-0.105
-0.09
-0.09
-0.12
-0.09
-0.095
-0.09
-0.11
-0.06
-0.09
-0.06
-0.05
-0.055
-0.045
-0.055
-0.04
-0.05
-0.035
-0.015
0.025
-0.015
-0.05
0.0
0.015
0.01
0.015
0.04
0.025
0.025
0.05
0.04
0.055
0.065
0.01
0.0
0.015
0.025
0.025
0.045
-0.005
0.01
0.005
0.025
0.015
-0.025
-0.01
-0.06
-0.04
-0.025
-0.025
-0.085
-0.045
-0.07
-0.075
-0.115
-0.105
-0.115
-0.14
-0.15
-0.14
-0.17
-0.175
-0.165
-0.225
-0.175
-0.16
-0.18
-0.205
-0.195
-0.21
-0.2
-0.195
-0.21
-0.22
-0.195
-0.185
-0.205
-0.225
-0.2
-0.195
-0.2
-0.2
-0.215
-0.23
-0.16
-0.19
-0.185
-0.18
-0.22
-0.205
-0.19
-0.185
-0.195
-0.19
-0.155
-0.185
-0.19
-0.185
-0.175
-0.18
-0.195
-0.195
-0.19
-0.19
-0.175
-0.14
-0.175
-0.17
-0.165
-0.18
-0.185
-0.165
-0.175
-0.165
-0.17
-0.16
-0.17
-0.155
-0.175
-0.18
-0.18
-0.125
-0.145
-0.18
-0.14
-0.115
-0.15
-0.135
-0.13
-0.15
-0.155
-0.125
-0.11
-0.135
-0.125
-0.14
-0.13
-0.115
-0.125
-0.135
-0.12
-0.105
-0.155
-0.105
-0.13
-0.12
-0.145
-0.12
-0.1
-0.115
-0.11
-0.12
-0.135
-0.12
-0.115
-0.13
-0.11
-0.095
-0.115
-0.12
-0.115
-0.105
-0.105
-0.115
-0.1
-0.105
-0.11
-0.105
-0.105
-0.09
-0.08
-0.085
-0.11
-0.085
-0.075
-0.095
-0.08
-0.08
-0.07
-0.065
-0.06
-0.085
-0.045
-0.045
-0.02
-0.055
-0.045
-0.025
-0.02
-0.02
0.01
0.01
0.01
0.035
0.015
0.01
0.025
0.0
0.005
-0.01
0.015
0.025
0.02
0.015
-0.01
-0.01
-0.015
-0.015
-0.005
-0.005
-0.03
-0.035
-0.03
-0.015
-0.005
-0.03
-0.05
-0.025
-0.06
-0.03
-0.025
-0.02
-0.045
-0.015
-0.03
-0.025
-0.035
-0.02
-0.03
-0.025
-0.02
-0.025
-0.03
-0.02
-0.015
-0.04
-0.04
-0.025
-0.03
-0.02
-0.01
0.01
-0.03
-0.025
-0.02
-0.015
-0.015
-0.025
-0.01
-0.01
-0.005
-0.055
-0.055
-0.01
0.055
0.16
0.235
0.275
0.265
0.26
0.27
0.245
0.235
0.24
0.245
0.215
0.235
0.215
0.165
0.165
0.1
0.01
-0.025
-0.035
-0.025
-0.035
-0.03
-0.02
-0.02
0.0
0.01
0.0
0.005
0.055
0.005
0.015
0.02
0.04
0.015
0.025
0.05
0.04
0.03
0.035
0.03
0.025
0.02
0.025
0.04
0.08
0.05
0.025
0.03
0.065
0.055
0.05
0.055
0.05
0.045
0.065
0.08
0.045
0.045
0.05
0.05
0.04
0.06
0.06
0.065
0.06
0.065
0.055
0.055
0.085
0.065
0.065
0.085
0.065
0.095
0.065
0.065
0.065
0.1
0.105
0.08
0.085
0.11
0.095
0.095
0.09
0.11
0.11
0.12
0.08
0.11
0.125
0.125
0.125
0.12
0.12
0.125
0.115
0.15
0.14
0.13
0.15
0.145
0.145
0.14
0.155
0.16
0.155
0.175
0.175
0.17
0.18
0.185
0.165
0.185
0.205
0.245
0.23
0.235
0.26
0.25
0.27
0.265
0.255
0.275
0.275
0.265
0.29
0.3
0.295
0.3
0.31
0.305
0.305
0.29
0.31
0.31
0.295
0.305
0.325
0.315
0.34
0.33
0.305
0.31
0.295
0.3
0.295
0.3
0.285
0.28
0.265
0.255
0.25
0.23
0.225
0.215
0.2
0.205
0.185
0.165
0.19
0.175
0.155
0.19
0.16
0.145
0.155
0.155
0.155
0.145
0.16
0.155
0.16
0.17
0.15
0.155
0.17
0.155
0.13
0.135
0.15
0.145
0.145
0.15
0.16
0.135
0.14
0.145
0.155
0.155
0.15
0.17
0.14
0.125
0.13
0.14
0.16
0.18
0.18
0.17
0.185
0.16
0.18
0.145
0.15
0.155
0.155
0.17
0.15
0.17
0.16
0.155
0.15
0.175
0.17
0.165
0.14
0.17
0.17
0.17
0.165
0.175
0.16
0.175
0.175
0.16
0.175
0.175
0.16
0.155
0.155
0.16
0.16
0.155
0.175
0.16
0.16
0.155
0.165
0.17
0.145
0.16
0.155
0.17
0.15
0.16
0.16
0.175
0.155
0.155
0.155
0.15
0.14
0.15
0.155
0.145
0.155
0.175
0.155
0.16
0.17
0.165
0.155
0.175
0.17
0.165
0.155
0.17
0.225
0.23
0.22
0.225
0.22
0.23
0.2
0.2
0.2
0.205
0.205
0.205
0.21
0.2
0.205
0.17
0.215
0.21
0.2
0.205
0.2
0.205
0.21
0.185
0.185
0.2
0.21
0.205
0.21
0.195
0.205
0.215
0.205
0.18
0.205
0.21
0.19
0.205
0.215
0.2
0.195
0.215
0.21
0.185
0.19
0.185
0.2
0.21
0.21
0.215
0.21
0.21
0.21
0.21
0.22
0.225
0.22
0.23
0.225
0.23
0.215
0.255
0.25
0.245
0.26
0.265
0.255
0.255
0.265
0.23
0.235
0.265
0.23
0.245
0.245
0.24
0.23
0.22
0.215
0.235
0.21
0.23
0.22
0.185
0.2
0.2
0.17
0.19
0.2
0.185
0.195
0.2
0.195
0.215
0.21
0.195
0.215
0.19
0.2
0.185
0.2
0.17
0.2
0.18
0.185
0.19
0.21
0.2
0.195
0.19
0.18
0.195
0.2
0.185
0.18
0.195
0.2
0.185
0.185
0.18
0.19
0.17
0.15
0.11
0.165
0.18
0.265
0.35
0.445
0.475
0.485
0.49
0.47
0.505
0.51
0.55
0.485
0.46
0.44
0.445
0.45
0.43
0.36
0.27
0.215
0.195
0.165
0.16
0.16
0.185
0.185
0.2
0.19
0.195
0.195
0.2
0.2
0.2
0.195
0.2
0.195
0.21
0.195
0.205
0.195
0.195
0.2
0.21
0.215
0.225
0.21
0.195
0.215
0.195
0.23
0.21
0.195
0.21
0.23
0.215
0.235
0.215
0.215
0.21
0.22
0.21
0.22
0.22
0.215
0.215
0.25
0.23
0.23
0.215
0.21
0.22
0.215
0.235
0.215
0.215
0.24
0.24
0.22
0.23
0.23
0.23
0.24
0.24
0.225
0.225
0.24
0.23
0.25
0.255
0.255
0.245
0.25
0.265
0.215
0.245
0.265
0.27
0.285
0.28
0.31
0.275
0.3
0.31
0.31
0.315
0.315
0.33
0.33
0.33
0.345
0.36
0.365
0.395
0.355
0.38
0.385
0.375
0.385
0.405
0.425
0.425
0.43
0.435
0.45
0.44
0.445
0.465
0.465
0.475
0.495
0.485
0.485
0.5
0.49
0.49
0.5
0.51
0.495
0.51
0.515
0.52
0.505
0.52
0.515
0.505
0.505
0.5
0.5
0.49
0.48
0.465
0.49
0.465
0.43
0.455
0.43
0.4
0.425
0.415
0.42
0.395
0.4
0.385
0.385
0.38
0.37
0.365
0.365
0.365
0.355
0.35
0.375
0.355
0.375
0.345
0.34
0.375
0.355
0.345
0.34
0.33
0.38
0.365
0.365
0.37
0.38
0.36
0.355
0.365
0.375
0.385
0.36
0.36
0.365
0.37
0.38
0.365
0.37
0.375
0.37
0.38
0.38
0.385
0.38
0.38
0.39
0.38
0.405
0.39
0.37
0.4
0.4
0.4
0.385
0.405
0.41
0.405
0.4
0.405
0.4
0.405
0.4
0.42
0.405
0.415
0.41
0.4
0.405
0.41
0.395
0.4
0.405
0.4
0.405
0.41
0.4
0.41
0.41
0.415
0.385
0.41
0.425
0.43
0.405
0.4
0.41
0.415
0.425
0.43
0.395
0.43
0.425
0.405
0.405
0.425
0.42
0.39
0.425
0.43
0.415
0.415
0.435
0.42
0.425
0.415
0.415
0.44
0.425
0.42
0.405
0.43
0.435
0.42
0.415
0.43
0.425
0.425
0.42
0.435
0.43
0.44
0.435
0.42
0.42
0.41
0.415
0.4
0.425
0.44
0.46
0.425
0.44
0.435
0.415
0.44
0.415
0.42
0.44
0.42
0.44
0.435
0.44
0.435
0.425
0.435
0.425
0.43
0.45
0.435
0.44
0.42
0.405
0.425
0.44
0.435
0.435
0.43
0.44
0.44
0.435
0.44
0.425
0.425
0.43
0.455
0.435
0.445
0.435
0.44
0.445
0.435
0.44
0.41
0.44
0.45
0.44
0.435
0.445
0.435
0.44
0.45
0.44
0.455
0.44
0.45
0.44
0.455
0.43
0.45
0.445
0.435
0.42
0.44
0.44
0.465
0.45
0.45
0.445
0.445
0.44
0.445
0.46
0.44
0.46
0.45
0.43
0.45
0.455
0.435
0.45
0.45
0.445
0.455
0.455
0.46
0.45
0.465
0.475
0.465
0.48
0.495
0.475
0.475
0.49
0.51
0.485
0.505
0.495
0.5
0.515
0.505
0.52
0.51
0.505
0.51
0.515
0.53
0.51
0.49
0.49
0.51
0.49
0.485
0.485
0.505
0.47
0.45
0.46
0.43
0.46
0.47
0.435
0.435
0.445
0.43
0.46
0.445
0.465
0.45
0.445
0.455
0.44
0.445
0.44
0.44
0.44
0.455
0.44
0.445
0.455
0.455
0.465
0.455
0.45
0.455
0.465
0.455
0.465
0.45
0.47
0.47
0.44
0.44
0.44
0.445
0.43
0.42
0.405
0.385
0.405
0.43
0.505
0.61
0.71
0.74
0.75
0.78
0.76
0.78
0.83
0.825
0.775
0.73
0.745
0.755
0.73
0.705
0.65
0.525
0.49
0.46
0.42
0.405
0.45
0.42
0.46
0.45
0.45
0.445
0.46
0.47
0.45
0.45
0.46
0.455
0.455
0.46
0.46
0.45
0.485
0.43
0.455
0.465
0.47
0.455
0.465
0.48
0.45
0.465
0.475
0.465
0.475
0.475
0.47
0.47
0.475
0.475
0.47
0.475
0.475
0.475
0.47
0.49
0.475
0.48
0.48
0.485
0.49
0.47
0.49
0.485
0.465
0.49
0.485
0.49
0.475
0.495
0.49
0.475
0.5
0.49
0.485
0.49
0.495
0.49
0.51
0.495
0.495
0.505
0.51
0.51
0.5
0.52
0.52
0.505
0.5
0.525
0.51
0.515
0.52
0.51
0.53
0.56
0.54
0.535
0.555
0.55
0.545
0.555
0.575
0.56
0.555
0.58
0.58
0.59
0.595
0.595
0.595
0.6
0.625
0.615
0.615
0.63
0.63
0.605
0.655
0.655
0.645
0.645
0.67
0.66
0.665
0.68
0.675
0.695
0.695
0.665
0.68
0.69
0.685
0.68
0.685
0.69
0.68
0.67
0.665
0.67
0.67
0.655
0.635
0.635
0.64
0.63
0.615
0.595
0.595
0.585
0.58
0.6
0.57
0.55
0.54
0.55
0.52
0.515
0.52
0.51
0.5
0.495
0.49
0.5
0.485
0.475
0.485
0.49
0.505
0.485
0.5
0.47
0.48
0.51
0.5
0.505
0.49
0.495
0.52
0.5
0.495
0.52
0.505
0.505
0.51
0.515
0.49
0.505
0.505
0.505
0.51
0.51
0.515
0.505
0.515
0.52
0.505
0.495
0.515
0.515
0.51
0.525
0.52
0.515
0.51
0.525
0.5
0.515
0.515
0.5
0.515
0.53
0.505
0.51
0.53
0.5
0.495
0.5
0.51
0.515
0.525
0.535
0.51
0.495
0.53
0.52
0.5
0.48
0.51
0.51
0.505
0.515
0.51
0.495
0.51
0.5
0.5
0.505
0.505
0.51
0.505
0.505
0.505
0.505
0.515
0.495
0.495
0.505
0.495
0.495
0.5
0.505
0.515
0.5
0.5
0.495
0.505
0.51
0.51
0.5
0.505
0.495
0.495
0.495
0.515
0.5
0.485
0.52
0.515
0.495
0.505
0.51
0.5
0.5
0.505
0.515
0.505
0.49
0.51
0.5
0.505
0.5
0.5
0.495
0.505
0.495
0.5
0.495
0.5
0.495
0.5
0.495
0.5
0.5
0.49
0.495
0.485
0.51
0.49
0.49
0.495
0.51
0.49
0.485
0.495
0.495
0.49
0.485
0.485
0.505
0.495
0.5
0.49
0.495
0.47
0.475
0.485
0.49
0.49
0.485
0.5
0.51
0.485
0.485
0.47
0.5
0.485
0.45
0.48
0.515
0.505
0.485
0.485
0.48
0.485
0.475
0.475
0.49
0.485
0.475
0.49
0.48
0.475
0.49
0.485
0.46
0.48
0.5
0.49
0.48
0.49
0.48
0.47
0.485
0.48
0.485
0.475
0.5
0.49
0.485
0.475
0.49
0.47
0.475
0.475
0.485
0.485
0.48
0.465
0.5
0.49
0.485
0.47
0.475
0.49
0.465
0.48
0.47
0.47
0.49
0.47
0.47
0.47
0.48
0.48
0.465
0.485
0.475
0.475
0.475
0.465
0.48
0.48
0.465
0.475
0.475
0.485
0.48
0.46
0.47
0.47
0.465
0.45
0.485
0.48
0.46
0.475
0.475
0.47
0.455
0.485
0.485
0.48
0.49
0.465
0.465
0.48
0.485
0.485
0.5
0.515
0.495
0.485
0.49
0.49
0.49
0.515
0.53
0.53
0.535
0.53
0.52
0.515
0.52
0.49
0.5
0.52
0.53
0.52
0.515
0.515
0.49
0.5
0.465
0.48
0.5
0.49
0.49
0.47
0.47
0.465
0.44
0.44
0.465
0.445
0.455
0.46
0.465
0.455
0.45
0.455
0.45
0.445
0.455
0.445
0.445
0.455
0.445
0.45
0.455
0.435
0.45
0.44
0.45
0.44
0.435
0.455
0.455
0.445
0.45
0.465
0.445
0.44
0.43
0.435
0.43
0.42
0.405
0.415
0.39
0.385
0.435
0.54
0.66
0.725
0.745
0.77
0.755
0.755
0.78
0.835
0.8
0.765
0.725
0.74
0.74
0.72
0.67
0.575
0.485
0.45
0.405
0.41
0.395
0.395
0.435
0.43
0.41
0.415
0.445
0.445
0.435
0.435
0.445
0.455
0.445
0.44
0.43
0.455
0.44
0.43
0.435
0.445
0.44
0.445
0.445
0.45
0.43
0.445
0.45
0.44
0.45
0.46
0.455
0.445
0.455
0.46
0.445
0.455
0.46
0.45
0.45
0.455
0.45
0.445
0.455
0.46
0.455
0.46
0.46
0.445
0.445
0.455
0.465
0.45
0.455
0.5
0.46
0.45
0.47
0.48
0.445
0.465
0.47
0.475
0.48
0.485
0.48
0.485
0.475
0.475
0.485
0.48
0.47
0.495
0.49
0.485
0.485
0.49
0.485
0.495
0.49
0.5
0.51
0.515
0.53
0.51
0.505
0.52
0.525
0.525
0.52
0.555
0.55
0.545
0.555
0.565
0.565
0.58
0.58
0.58
0.59
0.585
0.59
0.595
0.615
0.62
0.615
0.625
0.625
0.65
0.63
0.645
0.625
0.65
0.65
0.655
0.645
0.65
0.645
0.64
0.655
0.66
0.635
0.655
0.645
0.645
0.64
0.635
0.615
0.605
0.625
0.61
0.6
0.58
0.56
0.575
0.565
0.565
0.555
0.52
0.505
0.525
0.5
0.515
0.51
0.47
0.475
0.48
0.475
0.46
0.475
0.455
0.45
0.445
0.45
0.435
0.435
0.445
0.425
0.43
0.445
0.435
0.435
0.44
0.44
0.435
0.435
0.44
0.445
0.44
0.425
0.45
0.44
0.44
0.435
0.445
0.435
0.435
0.44
0.43
0.44
0.44
0.45
0.45
0.45
0.43
0.445
0.45
0.435
0.44
0.45
0.455
0.43
0.45
0.45
0.44
0.45
0.455
0.455
0.425
0.425
0.43
0.44
0.45
0.45
0.435
0.445
0.44
0.45
0.435
0.44
0.44
0.45
0.44
0.435
0.435
0.435
0.435
0.43
0.425
0.455
0.435
0.425
0.45
0.425
0.43
0.42
0.435
0.425
0.435
0.41
0.425
0.42
0.415
0.41
0.42
0.42
0.425
0.405
0.435
0.39
0.405
0.42
0.42
0.415
0.415
0.42
0.42
0.425
0.42
0.41
0.39
0.415
0.405
0.41
0.4
0.415
0.42
0.395
0.4
0.395
0.4
0.4
0.39
0.395
0.39
0.4
0.405
0.365
0.4
0.42
0.38
0.38
0.395
0.38
0.37
0.385
0.385
0.39
0.395
0.395
0.385
0.385
0.38
0.39
0.375
0.385
0.395
0.38
0.385
0.395
0.385
0.36
0.39
0.385
0.365
0.395
0.37
0.37
0.375
0.365
0.37
0.385
0.395
0.385
0.375
0.385
0.375
0.39
0.365
0.37
0.36
0.355
0.39
0.37
0.36
0.39
0.375
0.355
0.38
0.375
0.37
0.38
0.38
0.365
0.375
0.365
0.36
0.355
0.385
0.365
0.375
0.37
0.36
0.355
0.35
0.37
0.365
0.36
0.36
0.36
0.345
0.365
0.355
0.355
0.34
0.34
0.355
0.33
0.34
0.335
0.325
0.355
0.345
0.325
0.33
0.335
0.355
0.325
0.32
0.345
0.335
0.35
0.34
0.335
0.34
0.34
0.345
0.33
0.335
0.32
0.325
0.315
0.345
0.325
0.335
0.32
0.335
0.33
0.335
0.33
0.335
0.32
0.325
0.31
0.325
0.35
0.32
0.325
0.315
0.325
0.325
0.345
0.325
0.325
0.335
0.345
0.35
0.33
0.34
0.33
0.34
0.345
0.36
0.355
0.385
0.37
0.365
0.375
0.37
0.365
0.35
0.38
0.36
0.355
0.38
0.365
0.355
0.35
0.35
0.33
0.33
0.31
0.32
0.31
0.305
0.3
0.29
0.28
0.28
0.275
0.285
0.29
0.28
0.3
0.3
0.29
0.285
0.28
0.29
0.275
0.285
0.27
0.285
0.275
0.285
0.275
0.29
0.275
0.275
0.28
0.275
0.275
0.265
0.255
0.265
0.27
0.28
0.275
0.27
0.255
0.25
0.285
0.265
0.23
0.22
0.205
0.245
0.33
0.44
0.53
0.565
0.575
0.575
0.59
0.585
0.595
0.585
0.55
0.545
0.555
0.54
0.525
0.46
0.345
0.26
0.225
0.205
0.2
0.18
0.175
0.19
0.21
0.195
0.195
0.2
0.21
0.205
0.23
0.23
0.195
0.19
0.205
0.22
0.205
0.215
0.185
0.195
0.205
0.21
0.19
0.21
0.215
0.2
0.205
0.195
0.195
0.195
0.205
0.19
0.18
0.2
0.2
0.18
0.175
0.195
0.195
0.19
0.195
0.185
0.17
0.185
0.19
0.185
0.18
0.17
0.175
0.175
0.18
0.18
0.17
0.185
0.185
0.165
0.17
0.2
0.18
0.165
0.175
0.15
0.16
0.17
0.185
0.18
0.18
0.175
0.18
0.14
0.165
0.17
0.19
0.2
0.185
0.17
0.21
0.185
0.175
0.18
0.19
0.18
0.2
0.21
0.215
0.195
0.205
0.205
0.2
0.215
0.215
0.19
0.21
0.23
0.225
0.23
0.25
0.25
0.25
0.26
0.26
0.255
0.29
0.265
0.26
0.295
0.3
0.28
0.29
0.29
0.295
0.295
0.295
0.295
0.3
0.29
0.31
0.3
0.28
0.31
0.3
0.285
0.29
0.285
0.275
0.285
0.275
0.26
0.245
0.245
0.235
0.24
0.22
0.21
0.2
0.19
0.19
0.155
0.12
0.145
0.14
0.1
0.11
0.11
0.085
0.08
0.07
0.075
0.055
0.07
0.05
0.055
0.06
0.06
0.05
0.06
0.045
0.0
0.035
0.0
0.01
0.025
0.03
0.035
0.015
0.03
0.02
0.015
0.01
0.01
0.01
0.0
0.01
0.01
-0.01
0.01
0.005
0.005
0.005
0.005
0.015
-0.005
0.0
0.0
0.01
0.005
0.015
-0.005
-0.005
0.0
0.01
0.0
-0.005
0.01
0.005
0.005
0.005
0.0
-0.02
0.005
0.005
-0.005
0.015
0.02
-0.01
0.005
0.0
0.005
-0.015
-0.015
-0.005
-0.01
0.0
0.01
-0.015
-0.02
0.01
0.01
-0.005
-0.02
-0.03
-0.02
-0.01
-0.01
-0.025
-0.005
-0.015
-0.01
-0.015
-0.015
-0.02
-0.035
-0.005
-0.025
-0.035
-0.035
-0.02
-0.015
-0.04
-0.025
-0.03
-0.03
-0.035
-0.03
-0.03
-0.02
-0.03
-0.03
-0.04
-0.025
-0.05
-0.05
-0.035
-0.03
-0.03
-0.02
-0.04
-0.045
-0.03
-0.005
-0.045
-0.045
-0.05
-0.05
-0.035
-0.01
-0.015
-0.045
-0.045
-0.035
-0.04
-0.02
-0.045
-0.04
-0.045
-0.04
-0.025
-0.045
-0.045
-0.055
-0.065
-0.04
-0.04
-0.04
-0.05
-0.04
-0.035
-0.045
-0.04
-0.03
-0.055
-0.05
-0.03
-0.05
-0.055
-0.045
-0.055
-0.04
-0.03
-0.04
-0.065
-0.05
-0.05
-0.05
-0.055
-0.04
-0.06
-0.055
-0.04
-0.045
-0.055
-0.055
-0.045
-0.055
-0.045
-0.04
-0.04
-0.075
-0.055
-0.06
-0.055
-0.045
-0.035
-0.06
-0.04
-0.05
-0.075
-0.04
-0.035
-0.06
-0.055
-0.055
-0.065
-0.055
-0.05
-0.055
-0.07
-0.055
-0.04
-0.06
-0.055
-0.03
-0.05
-0.035
-0.02
-0.035
-0.03
-0.045
-0.035
-0.03
-0.025
0.0
0.005
0.0
0.005
0.025
0.0
-0.005
-0.01
-0.025
-0.01
-0.005
0.005
-0.02
0.0
-0.01
-0.025
-0.02
-0.03
-0.05
-0.045
-0.04
-0.055
-0.055
-0.05
-0.07
-0.08
-0.085
-0.055
-0.07
-0.065
-0.09
-0.045
-0.035
-0.06
-0.07
-0.08
-0.06
-0.075
-0.1
-0.07
-0.075
-0.065
-0.07
-0.06
-0.06
-0.065
-0.06
-0.075
-0.065
-0.07
-0.075
-0.075
-0.07
-0.065
-0.065
-0.085
-0.09
-0.075
-0.08
-0.095
-0.12
-0.125
-0.115
-0.07
0.035
0.145
0.215
0.235
0.25
0.25
0.245
0.23
0.24
0.25
0.22
0.22
0.23
0.195
0.17
0.11
0.005
-0.08
-0.12
-0.115
-0.12
-0.12
-0.115
-0.1
-0.105
-0.095
-0.08
-0.115
-0.11
-0.075
-0.06
-0.085
-0.06
-0.075
-0.075
-0.065
-0.055
-0.055
-0.08
-0.08
-0.075
-0.075
-0.06
-0.065
-0.055
-0.055
-0.06
-0.07
-0.055
-0.055
-0.07
-0.065
-0.05
-0.05
-0.07
-0.055
-0.055
-0.05
-0.04
-0.065
-0.07
-0.07
-0.035
-0.045
-0.055
-0.04
-0.05
-0.055
-0.055
-0.03
-0.035
-0.065
-0.055
-0.045
-0.03
-0.035
-0.035
-0.045
-0.03
-0.03
-0.05
-0.03
-0.015
-0.035
-0.04
-0.025
-0.035
-0.015
-0.025
-0.015
-0.01
-0.015
-0.02
-0.04
-0.015
-0.01
-0.01
0.005
0.01
-0.005
0.0
0.005
0.02
0.015
0.02
0.03
0.03
0.045
0.055
0.06
0.045
0.05
0.055
0.07
0.065
0.08
0.08
0.085
0.105
0.11
0.115
0.115
0.125
0.135
0.145
0.14
0.14
0.145
0.165
0.18
0.155
0.175
0.185
0.165
0.185
0.19
0.16
0.18
0.19
0.185
0.175
0.17
0.175
0.165
0.165
0.165
0.145
0.14
0.145
0.14
0.13
0.095
0.1
0.085
0.07
0.075
0.055
0.04
0.04
0.045
0.02
0.015
0.01
-0.025
-0.025
-0.015
-0.035
-0.04
-0.025
-0.03
-0.05
-0.05
-0.055
-0.065
-0.07
-0.055
-0.08
-0.075
-0.05
-0.06
-0.08
-0.06
-0.065
-0.07
-0.07
-0.055
-0.065
-0.07
-0.075
-0.07
-0.065
-0.05
-0.065
-0.06
-0.06
-0.065
-0.065
-0.055
-0.06
-0.065
-0.045
-0.055
-0.045
-0.06
-0.07
-0.045
-0.05
-0.045
-0.04
-0.065
-0.065
-0.045
-0.045
-0.05
-0.05
-0.045
-0.05
-0.045
-0.04
-0.055
-0.05
-0.04
-0.05
-0.04
-0.035
-0.05
-0.04
-0.05
-0.05
-0.045
-0.06
-0.04
-0.035
-0.055
-0.045
-0.04
-0.045
-0.04
-0.05
-0.06
-0.06
-0.05
-0.065
-0.06
-0.05
-0.035
-0.05
-0.04
-0.04
-0.055
-0.045
-0.07
-0.05
-0.045
-0.04
-0.055
-0.05
-0.045
-0.035
-0.04
-0.045
-0.045
-0.055
-0.06
-0.05
-0.065
-0.055
-0.035
-0.045
-0.05
-0.045
-0.05
-0.055
-0.06
-0.04
-0.06
-0.055
-0.04
-0.075
-0.05
-0.035
-0.03
-0.045
-0.055
-0.055
-0.035
-0.06
-0.055
-0.05
-0.05
-0.05
-0.06
-0.06
-0.065
-0.055
-0.055
-0.065
-0.05
-0.035
-0.04
-0.06
-0.06
-0.06
-0.055
-0.065
-0.075
-0.08
-0.055
-0.065
-0.065
-0.05
-0.055
-0.06
-0.06
-0.065
-0.08
-0.06
-0.055
-0.06
-0.05
-0.035
-0.065
-0.065
-0.065
-0.07
-0.07
-0.065
-0.05
-0.055
-0.065
-0.055
-0.06
-0.055
-0.065
-0.065
-0.06
-0.05
-0.055
-0.07
-0.07
-0.05
-0.055
-0.06
-0.065
-0.06
-0.055
-0.085
-0.055
-0.065
-0.075
-0.04
-0.065
-0.065
-0.065
-0.06
-0.06
-0.065
-0.055
-0.07
-0.065
-0.06
-0.055
-0.05
-0.045
-0.05
-0.07
-0.06
-0.06
-0.06
-0.06
-0.065
-0.05
-0.065
-0.045
-0.05
-0.07
-0.045
-0.045
-0.045
-0.075
-0.065
-0.045
-0.055
-0.045
-0.035
-0.06
-0.05
-0.05
-0.065
-0.05
-0.05
-0.04
-0.05
-0.055
-0.035
-0.06
-0.04
-0.065
-0.055
-0.045
-0.035
-0.045
-0.05
-0.03
-0.03
-0.025
-0.005
-0.03
-0.03
-0.01
-0.015
-0.01
0.01
0.015
0.035
0.015
0.03
0.03
-0.01
-0.01
-0.005
-0.01
-0.01
0.02
0.015
0.0
-0.005
-0.01
-0.005
-0.015
-0.02
-0.035
-0.055
-0.055
-0.055
-0.055
-0.05
-0.065
-0.05
-0.05
-0.055
-0.065
-0.05
-0.05
-0.05
-0.055
-0.05
-0.06
-0.06
-0.045
-0.045
-0.065
-0.045
-0.045
-0.06
-0.06
-0.04
-0.055
-0.06
-0.045
-0.045
-0.06
-0.065
-0.05
-0.065
-0.06
-0.045
-0.07
-0.085
-0.09
-0.105
-0.105
-0.08
-0.03
0.07
0.155
0.245
0.27
0.26
0.295
0.285
0.295
0.315
0.3
0.26
0.24
0.265
0.24
0.21
0.17
0.06
-0.025
-0.055
-0.085
-0.1
-0.095
-0.08
-0.09
-0.085
-0.09
-0.055
-0.055
-0.03
-0.045
-0.07
-0.06
-0.05
-0.03
-0.055
-0.045
-0.045
-0.045
-0.03
-0.04
-0.05
-0.035
-0.035
-0.045
-0.055
-0.04
-0.035
-0.01
-0.04
-0.025
-0.035
-0.03
-0.01
-0.035
-0.035
-0.03
-0.025
-0.03
-0.03
-0.03
-0.035
-0.005
-0.025
-0.035
-0.035
-0.035
-0.015
-0.03
-0.01
-0.015
-0.015
-0.01
-0.01
-0.02
-0.015
-0.01
-0.015
-0.03
-0.01
-0.025
-0.005
0.01
0.015
0.01
0.015
0.01
0.0
0.015
0.015
0.015
-0.01
0.03
0.01
0.035
0.035
0.015
0.02
0.035
0.025
0.05
0.03
0.05
0.07
0.065
0.05
0.05
0.04
0.075
0.08
0.06
0.095
0.09
0.085
0.095
0.125
0.12
0.105
0.115
0.145
0.135
0.13
0.165
0.165
0.155
0.165
0.17
0.17
0.185
0.195
0.18
0.195
0.21
0.205
0.21
0.21
0.195
0.18
0.21
0.235
0.205
0.21
0.215
0.21
0.2
0.205
0.205
0.2
0.19
0.17
0.165
0.15
0.155
0.15
0.15
0.14
0.115
0.125
0.085
0.1
0.075
0.07
0.075
0.05
0.035
0.06
0.025
0.015
0.025
0.025
0.015
0.025
0.015
0.005
-0.015
0.005
0.005
-0.005
-0.015
-0.025
-0.02
-0.01
-0.015
-0.02
-0.025
-0.025
-0.02
-0.005
0.0
-0.01
-0.005
-0.01
0.0
0.005
-0.03
-0.005
0.0
-0.02
0.0
0.025
0.005
-0.015
0.005
0.0
0.005
0.01
0.015
0.01
0.015
0.0
0.025
0.01
0.015
0.02
0.01
0.005
0.0
0.005
-0.01
0.01
0.02
0.01
0.025
0.005
0.005
0.015
0.0
0.0
0.02
0.015
0.02
0.01
0.015
0.0
0.005
0.01
0.0
0.01
0.01
0.015
0.005
0.015
0.01
0.02
0.01
0.025
0.0
0.0
0.005
0.015
0.01
0.015
0.005
0.005
-0.015
0.005
-0.01
0.015
0.02
-0.015
-0.005
0.005
0.015
0.025
0.02
0.0
-0.005
0.005
-0.005
0.005
0.02
0.0
0.01
0.01
0.01
0.02
-0.005
0.01
0.02
0.02
0.03
0.005
0.015
0.0
0.01
0.02
-0.01
0.01
-0.015
-0.01
0.015
0.015
0.02
0.01
0.01
0.005
-0.01
0.015
0.015
0.005
0.015
0.015
0.015
-0.015
0.01
0.015
0.0
-0.01
0.005
-0.015
0.005
-0.01
0.0
-0.01
0.0
-0.01
-0.005
0.005
-0.005
-0.01
0.005
-0.01
-0.005
0.01
0.005
0.0
-0.005
0.005
-0.01
-0.02
-0.005
-0.005
-0.015
-0.015
-0.005
0.035
-0.02
-0.005
-0.005
-0.005
0.0
-0.03
-0.03
0.005
-0.01
0.01
-0.015
0.005
0.005
-0.005
0.0
0.0
0.0
0.0
-0.03
-0.015
-0.01
0.01
-0.015
-0.02
0.01
0.0
-0.05
0.0
-0.01
-0.02
0.005
-0.015
-0.005
-0.02
0.005
-0.015
-0.01
-0.025
-0.025
-0.015
-0.025
-0.02
-0.005
-0.01
-0.005
-0.015
-0.02
-0.025
-0.025
-0.03
-0.02
-0.015
-0.005
-0.02
-0.01
-0.01
-0.025
-0.02
-0.015
-0.02
-0.005
-0.005
-0.01
-0.015
0.0
-0.02
-0.04
-0.02
-0.025
-0.015
-0.02
-0.01
-0.01
-0.02
-0.025
0.01
-0.035
-0.01
-0.02
-0.02
-0.01
-0.01
-0.01
0.005
0.015
0.01
0.015
0.005
0.005
0.03
0.035
0.05
0.035
0.035
0.03
0.03
0.03
0.01
0.03
0.03
0.04
0.025
0.025
0.02
0.015
0.01
-0.01
-0.025
-0.01
-0.035
-0.04
-0.03
-0.06
-0.045
-0.04
-0.055
-0.035
-0.04
-0.055
-0.055
-0.04
-0.045
-0.055
-0.045
-0.045
-0.04
-0.07
-0.035
-0.045
-0.055
-0.055
-0.05
-0.045
-0.04
-0.055
-0.055
-0.06
-0.05
-0.04
-0.075
-0.055
-0.03
-0.06
-0.04
-0.05
-0.055
-0.09
-0.1
-0.11
-0.12
-0.095
-0.03
0.09
0.185
0.255
0.29
0.265
0.27
0.255
0.26
0.28
0.255
0.235
0.25
0.265
0.22
0.195
0.105
-0.005
-0.09
-0.09
-0.095
-0.115
-0.115
-0.105
-0.085
-0.07
-0.07
-0.075
-0.075
-0.065
-0.045
-0.05
-0.075
-0.05
-0.05
-0.07
-0.06
-0.055
-0.06
-0.045
-0.025
-0.06
-0.05
-0.035
-0.055
-0.055
-0.045
-0.05
-0.045
-0.055
-0.035
-0.045
-0.045
-0.035
-0.04
-0.04
-0.04
-0.035
-0.045
-0.05
-0.025
-0.03
-0.045
-0.035
-0.015
-0.035
-0.03
-0.05
-0.045
-0.045
-0.04
-0.035
-0.015
-0.03
-0.03
-0.035
-0.015
-0.045
-0.05
-0.04
-0.025
-0.025
-0.005
-0.005
-0.04
-0.025
-0.02
-0.02
-0.015
0.005
-0.005
-0.005
-0.005
0.005
-0.005
0.005
0.02
0.01
0.01
0.01
0.01
0.02
0.02
0.025
0.04
0.045
0.03
0.035
0.05
0.055
0.045
0.065
0.06
0.055
0.06
0.1
0.095
0.08
0.125
0.115
0.095
0.11
0.125
0.13
0.125
0.13
0.135
0.145
0.16
0.155
0.15
0.145
0.165
0.165
0.165
0.195
0.17
0.17
0.175
0.19
0.16
0.175
0.165
0.17
0.155
0.16
0.155
0.155
0.155
0.15
0.13
0.115
0.11
0.085
0.09
0.09
0.085
0.08
0.05
0.055
0.03
0.04
0.01
0.0
-0.005
-0.01
-0.02
-0.055
-0.02
-0.015
-0.05
-0.06
-0.065
-0.065
-0.05
-0.065
-0.07
-0.07
-0.075
-0.065
-0.06
-0.065
-0.06
-0.09
-0.08
-0.085
-0.08
-0.09
-0.07
-0.075
-0.075
-0.09
-0.075
-0.08
-0.085
-0.07
-0.085
-0.08
-0.065
-0.085
-0.075
-0.04
-0.06
-0.075
-0.075
-0.065
-0.08
-0.065
-0.085
-0.07
-0.065
-0.05
-0.06
-0.065
-0.085
-0.09
-0.08
-0.075
-0.05
-0.095
-0.085
-0.05
-0.07
-0.085
-0.06
-0.06
-0.09
-0.07
-0.065
-0.08
-0.08
-0.07
-0.07
-0.095
-0.08
-0.075
-0.08
-0.085
-0.08
-0.08
-0.085
-0.08
-0.095
-0.09
-0.085
-0.065
-0.105
-0.095
-0.095
-0.1
-0.08
-0.08
-0.09
-0.095
-0.105
-0.105
-0.095
-0.1
-0.11
-0.085
-0.1
-0.095
-0.12
-0.115
-0.085
-0.08
-0.11
-0.095
-0.1
-0.11
-0.1
-0.1
-0.1
-0.1
-0.1
-0.095
-0.105
-0.085
-0.085
-0.11
-0.11
-0.105
-0.1
-0.115
-0.09
-0.1
-0.12
-0.11
-0.13
-0.1
-0.1
-0.1
-0.1
-0.1
-0.09
-0.12
-0.105
-0.115
-0.1
-0.095
-0.125
-0.11
-0.115
-0.125
-0.105
-0.105
-0.105
-0.115
-0.115
-0.11
-0.105
-0.105
-0.115
-0.115
-0.12
-0.105
-0.125
-0.115
-0.11
-0.125
-0.105
-0.105
-0.1
-0.11
-0.115
-0.115
-0.115
-0.105
-0.1
-0.11
-0.1
-0.085
-0.115
-0.09
-0.075
-0.085
-0.09
-0.08
-0.065
-0.08
-0.075
-0.055
-0.035
-0.055
-0.04
-0.045
-0.05
-0.055
-0.05
-0.04
-0.02
-0.04
-0.055
-0.05
-0.04
-0.045
-0.065
-0.07
-0.07
-0.09
-0.095
-0.115
-0.125
-0.115
-0.105
-0.115
-0.125
-0.085
-0.125
-0.12
-0.1
-0.1
-0.105
-0.115
-0.12
-0.125
-0.11
-0.115
-0.11
-0.115
-0.115
-0.105
-0.11
-0.125
-0.115
-0.12
-0.11
-0.11
-0.125
-0.11
-0.1
-0.11
-0.11
-0.11
-0.1
-0.11
-0.13
-0.115
-0.145
-0.105
-0.12
-0.165
-0.155
-0.11
-0.06
0.02
0.11
0.175
0.215
0.2
0.195
0.2
0.175
0.165
0.18
0.165
0.18
0.19
0.15
0.1
0.01
-0.11
-0.16
-0.16
-0.14
-0.165
-0.155
-0.155
-0.135
-0.135
-0.125
-0.115
-0.12
-0.105
-0.12
-0.11
-0.11
-0.095
-0.1
-0.09
-0.09
-0.085
-0.105
-0.1
-0.07
-0.085
-0.1
-0.1
-0.085
-0.085
-0.075
-0.09
-0.09
-0.07
-0.07
-0.08
-0.065
-0.07
-0.085
-0.09
-0.085
-0.07
-0.065
-0.07
-0.07
-0.07
-0.055
-0.065
-0.075
-0.065
-0.04
-0.06
-0.07
-0.05
-0.045
-0.045
-0.07
-0.03
-0.04
-0.06
-0.045
-0.045
-0.055
-0.03
-0.04
-0.04
-0.02
-0.03
-0.035
-0.035
-0.03
-0.03
-0.035
-0.03
-0.02
-0.03
-0.02
-0.025
-0.025
0.005
0.0
0.0
0.0
0.005
0.005
0.015
0.015
0.01
0.02
0.025
0.035
0.035
0.025
0.045
0.06
0.06
0.055
0.065
0.065
0.09
0.08
0.095
0.11
0.11
0.1
0.125
0.135
0.135
0.145
0.17
0.16
0.155
0.185
0.17
0.18
0.155
0.185
0.18
0.19
0.19
0.2
0.195
0.19
0.19
0.19
0.2
0.18
0.17
0.18
0.18
0.165
0.16
0.135
0.15
0.145
0.125
0.12
0.09
0.085
0.085
0.065
0.055
0.04
0.035
0.01
0.015
0.0
-0.02
-0.015
-0.01
-0.015
-0.06
-0.035
-0.03
-0.055
-0.045
-0.05
-0.075
-0.06
-0.055
-0.065
-0.07
-0.05
-0.065
-0.06
-0.07
-0.055
-0.08
-0.075
-0.06
-0.075
-0.085
-0.065
-0.065
-0.08
-0.055
-0.06
-0.075
-0.07
-0.06
-0.065
-0.06
-0.055
-0.055
-0.07
-0.055
-0.055
-0.065
-0.06
-0.055
-0.065
-0.06
-0.035
-0.035
-0.06
-0.05
-0.035
-0.04
-0.04
-0.04
-0.04
-0.06
-0.045
-0.055
-0.055
-0.04
-0.04
-0.065
-0.045
-0.055
-0.055
-0.06
-0.055
-0.055
-0.045
-0.04
-0.05
-0.055
-0.065
-0.05
-0.03
-0.045
-0.055
-0.055
-0.06
-0.07
-0.04
-0.055
-0.055
-0.045
-0.055
-0.06
-0.055
-0.06
-0.06
-0.04
-0.065
-0.04
-0.035
-0.06
-0.065
-0.055
-0.055
-0.07
-0.065
-0.055
-0.055
-0.07
-0.04
-0.04
-0.06
-0.075
-0.06
-0.065
-0.06
-0.06
-0.06
-0.06
-0.055
-0.05
-0.055
-0.065
-0.045
-0.065
-0.07
-0.035
-0.07
-0.065
-0.055
-0.04
-0.055
-0.085
-0.035
-0.08
-0.07
-0.04
-0.065
-0.075
-0.045
-0.065
-0.05
-0.08
-0.06
-0.05
-0.06
-0.07
-0.075
-0.07
-0.04
-0.07
-0.07
-0.065
-0.07
-0.08
-0.07
-0.045
-0.07
-0.06
-0.055
-0.07
-0.06
-0.06
-0.045
-0.07
-0.065
-0.045
-0.065
-0.06
-0.06
-0.06
-0.065
-0.07
-0.045
-0.06
-0.055
-0.05
-0.06
-0.045
-0.06
-0.075
-0.07
-0.04
-0.065
-0.065
-0.065
-0.065
-0.07
-0.065
-0.04
-0.08
-0.045
-0.03
-0.02
-0.065
-0.045
-0.035
-0.02
-0.025
-0.03
-0.025
-0.045
-0.04
0.0
0.0
0.015
0.005
-0.01
0.005
0.0
0.0
0.0
0.005
-0.015
-0.01
0.025
0.02
0.01
-0.01
-0.01
-0.03
-0.03
-0.025
-0.025
-0.045
-0.065
-0.045
-0.07
-0.065
-0.04
-0.06
-0.08
-0.07
-0.06
-0.085
-0.06
-0.06
-0.07
-0.07
-0.065
-0.075
-0.07
-0.065
-0.065
-0.07
-0.075
-0.065
-0.065
-0.05
-0.055
-0.065
-0.065
-0.065
-0.065
-0.07
-0.07
-0.085
-0.045
-0.04
-0.07
-0.07
-0.105
-0.09
-0.08
-0.135
-0.125
-0.105
-0.025
0.095
0.185
0.24
0.26
0.28
0.245
0.27
0.3
0.305
0.265
0.235
0.245
0.26
0.21
0.19
0.1
0.005
-0.07
-0.085
-0.1
-0.1
-0.1
-0.1
-0.085
-0.07
-0.065
-0.08
-0.06
-0.075
-0.07
-0.055
-0.06
-0.065
-0.045
-0.05
-0.065
-0.04
-0.05
-0.06
-0.045
-0.055
-0.065
-0.06
-0.045
-0.03
-0.07
-0.055
-0.045
-0.05
-0.07
-0.04
-0.035
-0.035
-0.04
-0.04
-0.06
-0.04
-0.035
-0.075
-0.035
-0.035
-0.03
-0.03
-0.03
-0.04
-0.04
-0.045
-0.025
-0.03
-0.035
-0.02
-0.025
-0.04
-0.015
-0.025
-0.03
-0.01
-0.025
-0.03
-0.03
-0.01
-0.04
-0.035
-0.005
-0.01
-0.02
-0.015
-0.005
-0.015
-0.01
-0.005
0.005
-0.015
0.0
-0.01
0.005
0.015
0.015
0.01
0.01
0.02
0.015
0.02
0.015
0.035
0.03
0.03
0.07
0.05
0.07
0.06
0.06
0.07
0.07
0.07
0.07
0.09
0.095
0.09
0.12
0.13
0.115
0.125
0.135
0.14
0.14
0.145
0.135
0.16
0.17
0.17
0.16
0.155
0.17
0.16
0.175
0.17
0.175
0.165
0.185
0.195
0.17
0.135
0.15
0.145
0.16
0.165
0.14
0.13
0.105
0.13
0.125
0.09
0.09
0.065
0.06
0.07
0.035
0.03
0.02
0.015
0.015
-0.005
0.005
-0.015
-0.03
-0.015
-0.015
-0.035
-0.03
-0.04
-0.055
-0.04
-0.04
-0.055
-0.07
-0.05
-0.05
-0.065
-0.065
-0.045
-0.045
-0.075
-0.05
-0.075
-0.075
-0.08
-0.06
-0.07
-0.04
-0.065
-0.055
-0.05
-0.055
-0.055
-0.08
-0.05
-0.055
-0.07
-0.06
-0.05
-0.075
-0.075
-0.04
-0.06
-0.06
-0.03
-0.04
-0.055
-0.03
-0.045
-0.05
-0.04
-0.05
-0.055
-0.055
-0.06
-0.055
-0.055
-0.05
-0.07
-0.055
-0.065
-0.06
-0.07
-0.07
-0.055
-0.07
-0.065
-0.05
-0.08
-0.07
-0.05
-0.065
-0.08
-0.065
-0.065
-0.065
-0.065
-0.055
-0.065
-0.075
-0.065
-0.07
-0.09
-0.07
-0.075
-0.08
-0.075
-0.08
-0.095
-0.105
-0.085
-0.075
-0.075
-0.075
-0.115
-0.085
-0.075
-0.08
-0.095
-0.09
-0.09
-0.09
-0.085
-0.085
-0.1
-0.115
-0.06
-0.085
-0.085
-0.1
-0.1
-0.11
-0.09
-0.085
-0.09
-0.1
-0.09
-0.09
-0.095
-0.115
-0.1
-0.1
-0.085
-0.09
-0.1
-0.08
-0.075
-0.115
-0.08
-0.1
-0.12
-0.115
-0.11
-0.11
-0.105
-0.105
-0.105
-0.105
-0.105
-0.105
-0.095
-0.11
-0.11
-0.1
-0.125
-0.11
-0.095
-0.11
-0.115
-0.115
-0.11
-0.095
-0.13
-0.125
-0.115
-0.12
-0.11
-0.105
-0.11
-0.105
-0.105
-0.115
-0.105
-0.09
-0.1
-0.1
-0.095
-0.1
-0.085
-0.08
-0.09
-0.09
-0.075
-0.065
-0.07
-0.06
-0.045
-0.045
-0.045
-0.08
-0.055
-0.06
-0.035
-0.065
-0.06
-0.075
-0.065
-0.09
-0.08
-0.095
-0.09
-0.115
-0.135
-0.115
-0.13
-0.13
-0.115
-0.125
-0.14
-0.125
-0.135
-0.145
-0.13
-0.12
-0.14
-0.145
-0.14
-0.145
-0.15
-0.125
-0.145
-0.14
-0.15
-0.13
-0.145
-0.15
-0.13
-0.14
-0.16
-0.13
-0.135
-0.14
-0.15
-0.15
-0.14
-0.13
-0.135
-0.14
-0.15
-0.145
-0.14
-0.135
-0.155
-0.18
-0.18
-0.165
-0.14
-0.04
0.05
0.135
0.15
0.15
0.145
0.125
0.115
0.11
0.085
0.085
0.1
0.115
0.06
0.055
-0.04
-0.16
-0.215
-0.23
-0.195
-0.2
-0.215
-0.21
-0.195
-0.185
-0.165
-0.18
-0.175
-0.165
-0.155
-0.15
-0.14
-0.16
-0.145
-0.16
-0.155
-0.145
-0.13
-0.13
-0.125
-0.135
-0.14
-0.125
-0.13
-0.14
-0.135
-0.125
-0.12
-0.12
-0.13
-0.125
-0.12
-0.13
-0.14
-0.135
-0.145
-0.14
-0.11
-0.105
-0.115
-0.125
-0.115
-0.11
-0.125
-0.125
-0.135
-0.115
-0.11
-0.11
-0.12
-0.09
-0.12
-0.11
-0.12
-0.115
-0.105
-0.105
-0.11
-0.105
-0.105
-0.11
-0.1
-0.095
-0.1
-0.1
-0.095
-0.07
-0.085
-0.065
-0.1
-0.095
-0.08
-0.095
-0.065
-0.055
-0.075
-0.08
-0.065
-0.055
-0.06
-0.065
-0.04
-0.015
-0.05
-0.04
-0.02
-0.04
-0.03
-0.015
-0.01
-0.005
0.01
0.03
0.02
0.01
0.025
0.04
0.035
0.05
0.05
0.06
0.07
0.07
0.08
0.095
0.115
0.11
0.115
0.115
0.115
0.115
0.145
0.14
0.13
0.125
0.14
0.135
0.13
0.13
0.135
0.13
0.135
0.125
0.125
0.13
0.13
0.11
0.1
0.095
0.085
0.06
0.06
0.07
0.04
0.05
0.025
0.005
0.005
-0.01
-0.03
-0.035
-0.045
-0.05
-0.05
-0.055
-0.06
-0.085
-0.07
-0.055
-0.09
-0.07
-0.09
-0.12
-0.07
-0.08
-0.105
-0.105
-0.11
-0.085
-0.095
-0.095
-0.09
-0.1
-0.1
-0.105
-0.09
-0.095
-0.1
-0.09
-0.09
-0.085
-0.09
-0.105
-0.1
-0.1
-0.075
-0.085
-0.085
-0.075
-0.085
-0.085
-0.08
-0.09
-0.09
-0.08
-0.07
-0.085
-0.06
-0.065
-0.085
-0.09
-0.075
-0.08
-0.075
-0.05
-0.08
-0.095
-0.07
-0.095
-0.075
-0.08
-0.07
-0.085
-0.08
-0.085
-0.09
-0.075
-0.065
-0.06
-0.09
-0.085
-0.085
-0.095
-0.075
-0.085
-0.08
-0.08
-0.07
-0.08
-0.085
-0.09
-0.06
-0.085
-0.085
-0.085
-0.085
-0.09
-0.08
-0.085
-0.07
-0.065
-0.07
-0.085
-0.06
-0.095
-0.1
-0.095
-0.085
-0.065
-0.09
-0.065
-0.08
-0.09
-0.1
-0.08
-0.085
-0.085
-0.085
-0.085
-0.09
-0.095
-0.07
-0.085
-0.075
-0.075
-0.085
-0.095
-0.085
-0.085
-0.105
-0.07
-0.065
-0.07
-0.08
-0.085
-0.09
-0.085
-0.085
-0.09
-0.105
-0.085
-0.075
-0.095
-0.08
-0.08
-0.085
-0.085
-0.075
-0.1
-0.095
-0.075
-0.09
-0.105
-0.09
-0.085
-0.09
-0.08
-0.09
-0.07
-0.08
-0.09
-0.08
-0.065
-0.085
-0.08
-0.085
-0.075
-0.045
-0.05
-0.06
-0.05
-0.055
-0.045
-0.025
-0.02
-0.025
-0.025
-0.025
-0.025
-0.015
-0.01
-0.035
-0.03
-0.025
-0.02
-0.02
-0.015
-0.025
-0.03
-0.03
-0.045
-0.05
-0.05
-0.055
-0.045
-0.08
-0.08
-0.075
-0.095
-0.09
-0.09
-0.105
-0.095
-0.09
-0.09
-0.08
-0.085
-0.095
-0.09
-0.09
-0.085
-0.1
-0.09
-0.09
-0.09
-0.09
-0.075
-0.085
-0.09
-0.075
-0.055
-0.11
-0.1
-0.095
-0.095
-0.09
-0.085
-0.065
-0.075
-0.075
-0.1
-0.105
-0.1
-0.1
-0.1
-0.14
-0.145
-0.125
-0.125
-0.05
0.055
0.14
0.215
0.245
0.23
0.235
0.235
0.265
0.285
0.255
0.22
0.21
0.225
0.205
0.17
0.095
-0.025
-0.08
-0.095
-0.125
-0.12
-0.13
-0.1
-0.105
-0.115
-0.1
-0.085
-0.08
-0.085
-0.055
-0.075
-0.075
-0.07
-0.095
-0.08
-0.08
-0.065
-0.09
-0.08
-0.075
-0.07
-0.08
-0.08
-0.055
-0.075
-0.08
-0.075
-0.075
-0.065
-0.045
-0.05
-0.06
-0.055
-0.05
-0.055
-0.075
-0.055
-0.065
-0.06
-0.06
-0.035
-0.045
-0.045
-0.025
-0.06
-0.035
-0.02
-0.055
-0.07
-0.05
-0.045
-0.045
-0.025
-0.03
-0.03
-0.045
-0.035
-0.035
-0.05
-0.045
-0.03
-0.035
-0.025
-0.03
-0.025
-0.025
-0.025
-0.03
-0.025
-0.015
-0.015
-0.02
-0.005
0.005
-0.02
-0.005
0.005
-0.005
0.0
0.01
0.01
0.01
0.025
0.03
0.025
0.02
0.04
0.03
0.045
0.05
0.055
0.055
0.05
0.08
0.08
0.1
0.09
0.09
0.09
0.115
0.115
0.125
0.125
0.135
0.155
0.155
0.16
0.16
0.15
0.15
0.16
0.165
0.16
0.17
0.175
0.165
0.19
0.155
0.175
0.175
0.165
0.16
0.175
0.17
0.16
0.165
0.155
0.14
0.12
0.12
0.105
0.1
0.085
0.075
0.07
0.08
0.06
0.06
0.005
0.02
0.035
0.02
0.01
-0.01
-0.005
-0.005
-0.01
-0.015
-0.01
-0.025
-0.025
0.0
-0.025
-0.025
-0.04
-0.015
-0.045
-0.04
-0.02
-0.045
-0.04
-0.05
-0.015
-0.04
-0.04
-0.055
-0.03
-0.04
-0.035
-0.02
-0.03
-0.035
-0.02
-0.04
-0.035
-0.025
-0.025
-0.035
-0.015
-0.025
-0.02
-0.03
-0.015
-0.03
-0.04
-0.02
-0.02
-0.015
0.015
-0.03
-0.03
-0.005
-0.015
-0.02
-0.025
-0.01
-0.015
-0.03
-0.005
-0.015
-0.02
-0.025
0.0
-0.005
-0.02
-0.01
-0.03
-0.025
-0.02
-0.03
-0.035
-0.005
-0.02
-0.015
-0.025
-0.005
-0.025
-0.02
-0.02
-0.03
-0.01
-0.01
-0.01
-0.025
-0.015
-0.005
-0.02
-0.025
-0.03
-0.015
-0.025
-0.015
-0.02
-0.005
0.0
-0.035
-0.025
-0.025
-0.035
-0.025
-0.01
-0.02
-0.025
-0.01
-0.015
-0.015
-0.025
-0.025
-0.025
-0.035
-0.04
-0.02
-0.02
-0.015
-0.02
-0.015
-0.035
-0.02
-0.025
-0.035
-0.025
-0.02
-0.02
-0.02
-0.015
-0.025
-0.015
-0.02
-0.03
-0.04
-0.025
-0.01
-0.04
-0.02
-0.01
-0.025
-0.03
-0.02
-0.03
-0.035
-0.02
-0.025
-0.03
-0.025
-0.025
-0.025
-0.035
-0.02
-0.005
-0.035
0.0
-0.015
-0.035
-0.035
-0.015
-0.02
-0.05
-0.02
-0.02
-0.025
-0.03
-0.025
-0.035
-0.03
-0.02
-0.03
-0.035
-0.025
-0.02
-0.055
-0.035
-0.01
-0.02
-0.035
-0.035
-0.025
-0.035
-0.01
-0.045
-0.03
-0.005
-0.015
-0.03
-0.045
-0.02
-0.03
-0.035
-0.035
-0.025
-0.03
-0.03
-0.01
-0.025
-0.03
-0.015
-0.02
-0.015
0.0
0.015
0.0
0.01
0.005
-0.02
0.03
0.015
0.02
0.03
0.05
0.03
0.035
0.035
0.035
0.025
0.035
0.035
0.03
0.03
0.035
0.03
0.03
0.02
0.015
0.005
0.005
0.0
-0.025
-0.04
-0.02
-0.055
-0.03
-0.025
-0.03
-0.03
-0.03
-0.035
-0.015
-0.035
-0.05
-0.04
-0.045
-0.035
-0.03
-0.025
-0.025
-0.035
-0.045
-0.035
-0.025
-0.035
-0.04
-0.03
-0.03
-0.035
-0.03
-0.04
-0.04
-0.055
-0.03
-0.045
-0.04
-0.035
-0.03
-0.03
-0.05
-0.03
-0.085
-0.11
-0.095
-0.08
-0.05
0.065
0.18
0.24
0.29
0.29
0.295
0.29
0.295
0.345
0.325
0.28
0.27
0.285
0.28
0.245
0.195
0.09
-0.005
-0.035
-0.06
-0.09
-0.095
-0.08
-0.05
-0.045
-0.045
-0.045
-0.015
-0.055
-0.055
-0.04
-0.035
-0.03
-0.025
-0.01
-0.025
-0.035
-0.03
-0.04
-0.025
-0.025
-0.025
-0.025
-0.025
-0.015
-0.04
-0.02
-0.025
-0.04
-0.025
-0.02
-0.045
-0.03
-0.02
-0.03
-0.015
-0.02
-0.015
-0.025
-0.025
-0.01
-0.02
-0.02
-0.01
-0.005
-0.02
-0.005
-0.005
-0.015
-0.015
-0.015
-0.02
-0.015
-0.01
-0.02
-0.035
-0.005
-0.01
0.0
-0.015
-0.01
-0.015
-0.015
0.0
0.005
-0.015
-0.015
0.0
-0.01
-0.005
0.015
0.0
0.005
0.0
0.0
0.015
0.03
0.02
0.01
0.0
0.04
0.015
0.04
0.045
0.025
0.05
0.045
0.045
0.055
0.065
0.065
0.065
0.06
0.075
0.085
0.06
0.095
0.095
0.1
0.11
0.12
0.105
0.125
0.135
0.13
0.135
0.16
0.16
0.14
0.155
0.16
0.17
0.175
0.18
0.14
0.175
0.18
0.165
0.15
0.175
0.165
0.155
0.17
0.165
0.145
0.145
0.135
0.13
0.125
0.13
0.12
0.11
0.1
0.09
0.075
0.06
0.055
0.035
0.03
0.02
0.005
0.0
0.0
0.0
0.005
-0.01
-0.02
-0.03
-0.04
-0.025
-0.005
-0.05
-0.065
-0.06
-0.03
-0.03
-0.055
-0.05
-0.045
-0.05
-0.06
-0.055
-0.04
-0.045
-0.055
-0.055
-0.055
-0.06
-0.05
-0.055
-0.055
-0.06
-0.05
-0.065
-0.055
-0.045
-0.05
-0.06
-0.06
-0.05
-0.055
-0.05
-0.05
-0.045
-0.055
-0.045
-0.055
-0.05
-0.045
-0.045
-0.04
-0.04
-0.055
-0.05
-0.055
-0.04
-0.045
-0.05
-0.045
-0.05
-0.08
-0.045
-0.035
-0.05
-0.065
-0.055
-0.045
-0.05
-0.05
-0.04
-0.07
-0.065
-0.055
-0.05
-0.045
-0.07
-0.06
-0.06
-0.07
-0.035
-0.06
-0.07
-0.065
-0.065
-0.08
-0.05
-0.07
-0.055
-0.065
-0.055
-0.075
-0.075
-0.065
-0.065
-0.09
-0.07
-0.065
-0.07
-0.055
-0.06
-0.075
-0.075
-0.07
-0.075
-0.085
-0.08
-0.08
-0.075
-0.065
-0.07
-0.085
-0.065
-0.07
-0.085
-0.085
-0.09
-0.07
-0.08
-0.075
-0.07
-0.09
-0.065
-0.065
-0.105
-0.095
-0.085
-0.09
-0.095
-0.08
-0.085
-0.07
-0.075
-0.095
-0.09
-0.1
-0.075
-0.1
-0.08
-0.09
-0.11
-0.095
-0.07
-0.07
-0.105
-0.085
-0.1
-0.105
-0.11
-0.1
-0.105
-0.1
-0.085
-0.095
-0.1
-0.11
-0.115
-0.1
-0.09
-0.095
-0.085
-0.105
-0.1
-0.1
-0.105
-0.1
-0.09
-0.11
-0.11
-0.1
-0.095
-0.1
-0.095
-0.085
-0.085
-0.09
-0.07
-0.075
-0.08
-0.085
-0.085
-0.07
-0.05
-0.07
-0.035
-0.04
-0.03
-0.04
-0.06
-0.03
-0.045
-0.04
-0.035
-0.05
-0.045
-0.035
-0.03
-0.05
-0.06
-0.065
-0.08
-0.095
-0.07
-0.1
-0.12
-0.11
-0.1
-0.105
-0.125
-0.115
-0.125
-0.125
-0.115
-0.115
-0.12
-0.11
-0.115
-0.115
-0.12
-0.11
-0.125
-0.13
-0.11
-0.125
-0.13
-0.125
-0.115
-0.11
-0.115
-0.115
-0.125
-0.12
-0.12
-0.125
-0.12
-0.12
-0.1
-0.11
-0.125
-0.135
-0.12
-0.11
-0.115
-0.125
-0.135
-0.145
-0.165
-0.16
-0.12
-0.02
0.065
0.11
0.175
0.155
0.155
0.165
0.145
0.12
0.12
0.12
0.12
0.14
0.125
0.085
0.02
-0.1
-0.17
-0.195
-0.18
-0.175
-0.175
-0.17
-0.155
-0.14
-0.145
-0.13
-0.14
-0.135
-0.115
-0.115
-0.115
-0.115
-0.11
-0.105
-0.11
-0.115
-0.115
-0.105
-0.085
-0.095
-0.095
-0.08
-0.08
-0.105
-0.12
-0.085
-0.085
-0.11
-0.09
-0.085
-0.085
-0.07
-0.07
-0.075
-0.08
-0.06
-0.085
-0.065
-0.065
-0.065
-0.075
-0.075
-0.055
-0.075
-0.08
-0.06
-0.06
-0.055
-0.055
-0.065
-0.035
-0.05
-0.06
-0.055
-0.055
-0.055
-0.055
-0.065
-0.045
-0.035
-0.055
-0.03
-0.02
-0.035
-0.03
-0.03
-0.035
-0.025
-0.015
-0.02
-0.025
-0.005
-0.01
-0.025
0.0
-0.015
-0.01
-0.005
0.005
0.01
0.015
0.01
0.035
0.03
0.035
0.035
0.035
0.04
0.055
0.055
0.055
0.075
0.075
0.055
0.08
0.11
0.115
0.11
0.125
0.125
0.115
0.145
0.14
0.145
0.145
0.16
0.15
0.17
0.19
0.165
0.19
0.2
0.185
0.185
0.195
0.185
0.18
0.19
0.19
0.195
0.195
0.195
0.18
0.175
0.17
0.17
0.155
0.16
0.15
0.13
0.115
0.12
0.08
0.08
0.09
0.075
0.06
0.05
0.045
0.025
0.02
0.015
-0.01
-0.005
-0.01
-0.02
-0.02
-0.01
-0.025
-0.03
-0.03
-0.035
-0.04
-0.05
-0.025
-0.03
-0.06
-0.045
-0.03
-0.06
-0.06
-0.05
-0.06
-0.04
-0.05
-0.025
-0.04
-0.045
-0.03
-0.06
-0.045
-0.05
-0.04
-0.05
-0.03
-0.05
-0.045
-0.025
-0.02
-0.04
-0.03
-0.02
-0.03
-0.035
-0.025
-0.035
-0.04
-0.025
-0.03
-0.03
-0.025
-0.01
-0.03
-0.02
-0.025
-0.04
-0.035
-0.03
-0.025
-0.02
-0.025
-0.015
-0.02
-0.025
-0.015
-0.03
-0.03
-0.02
-0.02
-0.03
-0.03
-0.045
-0.04
-0.015
-0.04
-0.04
-0.025
-0.04
-0.03
-0.035
-0.02
-0.035
-0.035
-0.02
-0.025
-0.04
-0.035
-0.03
-0.05
-0.05
-0.025
-0.025
-0.045
-0.03
-0.025
-0.04
-0.04
-0.03
-0.035
-0.05
-0.03
-0.04
-0.04
-0.03
-0.035
-0.04
-0.025
-0.035
-0.045
-0.04
-0.04
-0.03
-0.04
-0.03
-0.025
-0.02
-0.04
-0.045
-0.05
-0.035
-0.045
-0.025
-0.03
-0.03
-0.04
-0.035
-0.01
-0.02
-0.035
-0.015
-0.035
-0.03
-0.035
-0.015
-0.035
-0.04
-0.025
-0.025
-0.035
-0.03
-0.03
-0.035
-0.02
-0.03
-0.045
-0.06
-0.02
-0.015
-0.04
-0.055
-0.03
-0.04
-0.04
-0.04
-0.045
-0.03
-0.025
-0.02
-0.025
-0.035
-0.02
-0.035
-0.05
-0.025
-0.025
-0.055
-0.015
-0.035
-0.025
-0.025
-0.02
-0.025
-0.045
-0.03
-0.03
-0.035
-0.02
-0.035
-0.04
-0.03
-0.03
-0.035
-0.045
-0.025
-0.025
-0.03
-0.01
-0.01
-0.015
-0.005
0.01
-0.005
0.0
-0.01
-0.005
0.02
0.03
0.045
0.025
0.04
0.04
0.035
0.04
0.025
0.02
0.02
0.035
0.025
0.04
0.025
0.025
0.01
0.01
0.015
-0.01
-0.005
-0.015
-0.03
-0.03
-0.02
-0.055
-0.03
-0.02
-0.015
-0.03
-0.035
-0.04
-0.04
-0.035
-0.02
-0.015
-0.035
-0.04
-0.015
-0.025
-0.03
-0.02
-0.005
-0.01
-0.005
-0.005
-0.015
-0.01
-0.02
-0.015
-0.045
-0.015
-0.015
-0.025
0.0
-0.025
-0.01
-0.01
-0.035
-0.03
-0.045
-0.05
-0.075
-0.08
-0.07
-0.025
0.065
0.195
0.25
0.28
0.315
0.315
0.295
0.32
0.335
0.345
0.28
0.28
0.29
0.28
0.255
0.21
0.095
0.02
-0.01
-0.035
-0.055
-0.06
-0.06
-0.035
-0.05
-0.03
-0.015
-0.015
-0.02
-0.025
-0.02
-0.015
-0.015
-0.015
0.0
0.0
-0.005
-0.01
-0.015
0.005
-0.02
-0.005
-0.005
-0.005
-0.01
0.01
-0.005
-0.005
0.005
-0.005
-0.005
-0.005
-0.005
0.0
0.01
-0.005
0.005
0.005
0.005
0.01
-0.005
0.01
0.01
-0.005
0.01
0.015
0.025
0.01
0.01
0.015
0.015
0.015
0.015
0.01
0.02
0.01
0.025
0.02
0.015
0.02
0.03
0.035
0.03
0.03
0.025
0.025
0.015
0.035
0.055
0.04
0.035
0.04
0.04
0.04
0.035
0.065
0.075
0.07
0.05
0.065
0.065
0.07
0.07
0.07
0.08
0.08
0.08
0.095
0.1
0.095
0.1
0.105
0.11
0.125
0.115
0.125
0.14
0.15
0.18
0.155
0.16
0.155
0.17
0.175
0.205
0.195
0.17
0.205
0.215
0.205
0.225
0.22
0.21
0.21
0.215
0.215
0.22
0.23
0.225
0.22
0.215
0.225
0.23
0.215
0.205
0.19
0.2
0.2
0.195
0.19
0.17
0.16
0.15
0.155
0.13
0.115
0.105
0.11
0.085
0.09
0.085
0.07
0.065
0.05
0.055
0.03
0.02
0.04
0.035
0.03
0.025
0.035
0.01
0.01
0.025
0.01
0.005
0.02
0.02
0.005
0.015
0.02
0.015
0.0
0.02
0.01
0.005
0.035
0.02
0.005
0.02
0.005
0.02
0.015
0.015
0.02
0.015
0.02
0.005
-0.01
0.025
0.02
0.015
0.035
0.03
0.02
0.025
0.03
0.025
0.02
0.02
0.03
0.02
0.04
0.015
0.025
0.025
0.025
0.025
0.02
0.015
0.04
0.025
0.02
0.045
0.02
0.04
0.02
0.02
0.015
0.045
0.035
0.02
0.04
0.025
0.025
0.025
0.035
0.045
0.025
0.025
0.015
0.025
0.04
0.03
0.025
0.01
0.025
0.015
0.015
0.005
0.015
0.01
0.02
0.02
0.015
0.035
0.005
0.015
0.015
0.025
0.03
0.01
0.015
0.01
0.025
0.025
0.02
0.01
0.01
0.01
0.015
0.015
0.015
0.025
0.025
0.0
-0.005
0.01
0.01
0.015
-0.005
-0.015
0.015
0.0
0.005
0.02
0.025
0.01
0.01
0.015
0.015
0.005
0.02
0.02
-0.005
0.005
0.025
0.01
0.01
0.015
0.0
0.005
0.015
0.0
-0.01
0.0
0.0
-0.005
-0.005
-0.01
-0.015
0.0
0.005
0.005
0.005
-0.005
-0.01
-0.015
0.01
0.005
-0.015
0.0
0.005
-0.025
-0.01
0.0
-0.015
-0.01
0.01
-0.01
-0.01
-0.005
0.005
-0.01
-0.01
0.005
-0.025
-0.01
-0.005
-0.01
0.0
0.0
-0.01
0.005
-0.025
-0.01
0.01
-0.015
-0.02
-0.015
-0.015
0.005
-0.01
-0.01
-0.01
-0.01
-0.005
-0.015
0.02
0.005
0.01
0.025
0.04
0.02
0.01
0.02
0.03
0.04
0.055
0.05
0.045
0.05
0.045
0.065
0.04
0.055
0.045
0.04
0.055
0.045
0.02
0.035
0.025
0.025
0.015
0.005
0.0
-0.025
-0.015
-0.025
-0.03
-0.03
-0.035
-0.025
-0.02
-0.03
-0.025
-0.015
-0.025
-0.015
-0.03
-0.005
-0.035
-0.05
-0.04
-0.03
-0.03
-0.03
-0.015
-0.045
-0.04
-0.015
-0.02
-0.04
-0.025
-0.03
-0.03
-0.035
-0.035
-0.055
-0.04
-0.025
-0.04
-0.04
-0.04
-0.025
-0.035
-0.055
-0.085
-0.1
-0.09
-0.04
0.04
0.135
0.225
0.27
0.275
0.28
0.27
0.265
0.275
0.285
0.25
0.22
0.255
0.24
0.22
0.175
0.055
-0.05
-0.075
-0.09
-0.095
-0.1
-0.085
-0.075
-0.085
-0.05
-0.055
-0.065
-0.05
-0.05
-0.055
-0.075
-0.045
-0.025
-0.03
-0.025
-0.045
-0.025
-0.03
-0.015
-0.03
-0.045
-0.03
-0.04
-0.05
-0.02
-0.02
-0.035
-0.04
-0.025
-0.03
-0.025
-0.02
-0.03
-0.05
-0.02
-0.03
-0.035
-0.03
-0.015
-0.03
-0.02
-0.035
-0.05
-0.02
-0.02
-0.03
-0.045
-0.02
-0.015
-0.025
-0.03
-0.035
-0.04
-0.03
-0.025
-0.025
-0.02
-0.02
-0.02
-0.02
-0.015
-0.03
-0.015
-0.025
-0.015
-0.025
-0.02
-0.01
-0.01
0.0
0.01
0.015
0.015
-0.01
0.01
-0.01
0.0
0.03
0.02
0.015
0.03
0.035
0.015
0.025
0.03
0.04
0.035
0.05
0.06
0.06
0.06
0.07
0.075
0.085
0.085
0.09
0.085
0.105
0.09
0.11
0.125
0.115
0.12
0.135
0.15
0.12
0.155
0.16
0.155
0.165
0.165
0.175
0.16
0.165
0.17
0.145
0.165
0.185
0.17
0.185
0.165
0.155
0.17
0.145
0.155
0.15
0.135
0.13
0.125
0.12
0.115
0.115
0.085
0.09
0.08
0.065
0.025
0.045
0.025
0.015
0.01
0.01
-0.01
-0.01
-0.015
-0.025
-0.02
-0.03
-0.03
-0.03
-0.055
-0.04
-0.06
-0.05
-0.055
-0.06
-0.06
-0.05
-0.055
-0.055
-0.07
-0.065
-0.065
-0.06
-0.06
-0.07
-0.065
-0.055
-0.065
-0.065
-0.05
-0.065
-0.085
-0.06
-0.05
-0.055
-0.06
-0.035
-0.055
-0.065
-0.07
-0.065
-0.065
-0.045
-0.055
-0.05
-0.05
-0.055
-0.06
-0.04
-0.045
-0.07
-0.065
-0.06
-0.045
-0.06
-0.045
-0.045
-0.055
-0.04
-0.03
-0.055
-0.055
-0.06
-0.055
-0.06
-0.045
-0.05
-0.065
-0.06
-0.045
-0.055
-0.06
-0.05
-0.05
-0.05
-0.055
-0.06
-0.05
-0.055
-0.05
-0.06
-0.045
-0.06
-0.07
-0.07
-0.065
-0.04
-0.05
-0.06
-0.025
-0.065
-0.07
-0.07
-0.085
-0.075
-0.065
-0.06
-0.07
-0.055
-0.055
-0.06
-0.06
-0.065
-0.075
-0.065
-0.055
-0.055
-0.065
-0.055
-0.055
-0.06
-0.07
-0.06
-0.06
-0.06
-0.055
-0.06
-0.06
-0.065
-0.06
-0.06
-0.07
-0.065
-0.055
-0.07
-0.06
-0.06
-0.065
-0.055
-0.065
-0.055
-0.06
-0.05
-0.06
-0.07
-0.06
-0.06
-0.065
-0.065
-0.07
-0.055
-0.05
-0.06
-0.07
-0.05
-0.06
-0.065
-0.055
-0.04
-0.06
-0.06
-0.055
-0.06
-0.05
-0.06
-0.05
-0.07
-0.04
-0.065
-0.065
-0.085
-0.035
-0.035
-0.055
-0.05
-0.035
-0.055
-0.045
-0.04
-0.04
-0.035
-0.02
-0.025
-0.025
-0.015
-0.02
-0.035
-0.025
0.005
0.005
0.02
0.02
0.015
0.005
0.015
0.015
0.005
0.0
0.02
0.0
0.03
0.02
-0.005
0.0
0.0
-0.005
-0.015
-0.015
-0.02
-0.04
-0.06
-0.045
-0.045
-0.065
-0.05
-0.035
-0.065
-0.05
-0.04
-0.045
-0.055
-0.045
-0.04
-0.045
-0.045
-0.045
-0.04
-0.045
-0.05
-0.055
-0.05
-0.055
-0.045
-0.025
-0.05
-0.04
-0.04
-0.045
-0.04
-0.045
-0.05
-0.05
-0.05
-0.04
-0.03
-0.035
-0.035
-0.045
-0.04
-0.065
-0.09
-0.1
-0.1
-0.07
0.01
0.095
0.2
0.26
0.28
0.255
0.265
0.26
0.27
0.265
0.25
0.235
0.23
0.25
0.22
0.165
0.075
-0.02
-0.065
-0.09
-0.085
-0.1
-0.085
-0.06
-0.065
-0.055
-0.05
-0.055
-0.055
-0.06
-0.035
-0.03
-0.035
-0.02
-0.025
-0.02
-0.05
-0.015
-0.03
-0.03
-0.025
-0.04
-0.05
-0.01
-0.015
-0.02
-0.03
-0.02
-0.015
-0.025
-0.02
-0.02
-0.015
-0.005
-0.02
-0.025
0.0
-0.005
-0.02
-0.005
-0.005
-0.02
-0.01
-0.015
0.01
-0.015
0.0
0.005
-0.005
-0.01
0.005
0.0
-0.005
0.0
0.005
-0.005
0.005
0.01
0.005
0.01
0.01
0.0
0.015
0.01
0.015
0.01
0.02
0.02
0.005
0.04
0.04
0.035
0.035
0.04
0.035
0.04
0.06
0.045
