# TIPE ECG 2021 - ECG-ID Database v1.0.0 par Physionet
# [Numéro de la personne, Période d'échantillonnage, Prénom, Age, Sexe, Date de l'enregistrement]
[71, 0.002, Felicia, 23, F, 12.05.2005]
-0.415
-0.425
-0.515
-0.5
-0.455
-0.455
-0.435
-0.505
-0.425
-0.5
-0.485
-0.48
-0.445
-0.395
-0.53
-0.505
-0.495
-0.51
-0.45
-0.435
-0.49
-0.505
-0.415
-0.495
-0.51
-0.44
-0.47
-0.525
-0.515
-0.4
-0.44
-0.425
-0.435
-0.42
-0.455
-0.47
-0.475
-0.485
-0.39
-0.36
-0.46
-0.465
-0.48
-0.45
-0.48
-0.46
-0.48
-0.54
-0.495
-0.445
-0.455
-0.49
-0.515
-0.49
-0.405
-0.475
-0.475
-0.47
-0.5
-0.48
-0.495
-0.53
-0.435
-0.425
-0.52
-0.48
-0.47
-0.52
-0.51
-0.515
-0.485
-0.495
-0.435
-0.42
-0.485
-0.445
-0.55
-0.52
-0.45
-0.54
-0.545
-0.42
-0.41
-0.47
-0.42
-0.465
-0.405
-0.42
-0.485
-0.49
-0.55
-0.475
-0.48
-0.45
-0.52
-0.505
-0.49
-0.45
-0.475
-0.57
-0.485
-0.485
-0.52
-0.45
-0.435
-0.445
-0.58
-0.52
-0.485
-0.49
-0.525
-0.435
-0.43
-0.43
-0.495
-0.425
-0.425
-0.475
-0.47
-0.425
-0.445
-0.395
-0.465
-0.46
-0.515
-0.375
-0.46
-0.37
-0.4
-0.35
-0.38
-0.37
-0.415
-0.44
-0.485
-0.45
-0.44
-0.425
-0.42
-0.4
-0.43
-0.5
-0.515
-0.485
-0.49
-0.5
-0.53
-0.58
-0.545
-0.46
-0.53
-0.485
-0.52
-0.485
-0.58
-0.49
-0.42
-0.495
-0.505
-0.515
-0.58
-0.52
-0.58
-0.505
-0.53
-0.52
-0.45
-0.505
-0.465
-0.54
-0.555
-0.455
-0.525
-0.515
-0.47
-0.5
-0.53
-0.47
-0.45
-0.54
-0.61
-0.52
-0.465
-0.47
-0.5
-0.405
-0.425
-0.47
-0.345
-0.35
-0.315
-0.34
-0.385
-0.34
-0.265
-0.15
-0.04
0.03
0.015
-0.065
0.0
-0.02
-0.21
-0.26
-0.37
-0.455
-0.59
-0.63
-0.75
-0.75
-0.765
-0.72
-0.64
-0.64
-0.55
-0.495
-0.54
-0.42
-0.45
-0.455
-0.485
-0.56
-0.52
-0.55
-0.49
-0.475
-0.5
-0.54
-0.575
-0.505
-0.535
-0.49
-0.42
-0.465
-0.5
-0.46
-0.49
-0.475
-0.46
-0.45
-0.5
-0.53
-0.495
-0.5
-0.525
-0.47
-0.485
-0.515
-0.495
-0.415
-0.515
-0.48
-0.485
-0.505
-0.48
-0.51
-0.45
-0.425
-0.43
-0.51
-0.49
-0.48
-0.395
-0.495
-0.485
-0.48
-0.5
-0.46
-0.44
-0.445
-0.505
-0.455
-0.42
-0.37
-0.395
-0.465
-0.42
-0.41
-0.41
-0.465
-0.43
-0.42
-0.465
-0.45
-0.415
-0.445
-0.425
-0.44
-0.385
-0.415
-0.29
-0.375
-0.35
-0.345
-0.325
-0.345
-0.355
-0.28
-0.28
-0.275
-0.345
-0.265
-0.21
-0.215
-0.235
-0.255
-0.275
-0.3
-0.31
-0.195
-0.13
-0.125
-0.205
-0.165
-0.225
-0.21
-0.19
-0.2
-0.225
-0.27
-0.255
-0.235
-0.285
-0.285
-0.325
-0.335
-0.32
-0.355
-0.54
-0.42
-0.465
-0.395
-0.4
-0.43
-0.43
-0.545
-0.37
-0.455
-0.51
-0.53
-0.495
-0.51
-0.535
-0.54
-0.585
-0.495
-0.52
-0.58
-0.61
-0.505
-0.5
-0.52
-0.505
-0.54
-0.54
-0.575
-0.55
-0.505
-0.545
-0.535
-0.55
-0.53
-0.62
-0.615
-0.47
-0.56
-0.48
-0.53
-0.525
-0.55
-0.515
-0.57
-0.57
-0.575
-0.54
-0.51
-0.565
-0.49
-0.43
-0.54
-0.54
-0.48
-0.47
-0.54
-0.56
-0.55
-0.57
-0.57
-0.56
-0.55
-0.48
-0.47
-0.52
-0.51
-0.515
-0.495
-0.5
-0.51
-0.565
-0.595
-0.525
-0.53
-0.465
-0.46
-0.49
-0.475
-0.5
-0.44
-0.505
-0.53
-0.475
-0.515
-0.5
-0.52
-0.5
-0.435
-0.49
-0.49
-0.44
-0.43
-0.515
-0.515
-0.575
-0.55
-0.47
-0.49
-0.515
-0.53
-0.495
-0.48
-0.435
-0.495
-0.47
-0.425
-0.43
-0.46
-0.52
-0.455
-0.52
-0.555
-0.51
-0.485
-0.53
-0.535
-0.57
-0.45
-0.445
-0.535
-0.495
-0.49
-0.52
-0.49
-0.505
-0.565
-0.485
-0.465
-0.415
-0.52
-0.465
-0.52
-0.51
-0.5
-0.45
-0.445
-0.485
-0.505
-0.475
-0.515
-0.545
-0.535
-0.49
-0.49
-0.505
-0.52
-0.485
-0.51
-0.525
-0.43
-0.475
-0.48
-0.49
-0.495
-0.47
-0.45
-0.5
-0.505
-0.495
-0.53
-0.46
-0.46
-0.525
-0.535
-0.475
-0.49
-0.44
-0.445
-0.525
-0.48
-0.455
-0.455
-0.525
-0.46
-0.49
-0.4
-0.45
-0.515
-0.435
-0.395
-0.44
-0.52
-0.515
-0.365
-0.415
-0.49
-0.475
-0.355
-0.35
-0.35
-0.4
-0.4
-0.355
-0.37
-0.41
-0.435
-0.39
-0.395
-0.49
-0.47
-0.51
-0.54
-0.485
-0.49
-0.455
-0.5
-0.47
-0.43
-0.525
-0.505
-0.465
-0.51
-0.5
-0.495
-0.505
-0.54
-0.445
-0.485
-0.505
-0.515
-0.485
-0.595
-0.49
-0.445
-0.505
-0.435
-0.48
-0.525
-0.535
-0.53
-0.425
-0.455
-0.48
-0.515
-0.47
-0.475
-0.49
-0.505
-0.535
-0.5
-0.46
-0.535
-0.5
-0.425
-0.39
-0.375
-0.345
-0.42
-0.335
-0.325
-0.3
-0.31
-0.325
-0.24
-0.18
-0.14
-0.085
0.015
0.005
0.12
0.085
-0.115
-0.15
-0.215
-0.365
-0.47
-0.515
-0.67
-0.605
-0.63
-0.575
-0.5
-0.505
-0.47
-0.515
-0.55
-0.515
-0.46
-0.475
-0.525
-0.42
-0.455
-0.43
-0.43
-0.45
-0.485
-0.505
-0.405
-0.49
-0.53
-0.5
-0.44
-0.49
-0.48
-0.44
-0.435
-0.445
-0.425
-0.435
-0.38
-0.45
-0.475
-0.5
-0.44
-0.43
-0.32
-0.455
-0.495
-0.5
-0.525
-0.455
-0.41
-0.485
-0.425
-0.445
-0.395
-0.42
-0.395
-0.46
-0.515
-0.39
-0.44
-0.455
-0.41
-0.34
-0.405
-0.445
-0.46
-0.37
-0.41
-0.415
-0.465
-0.445
-0.46
-0.425
-0.395
-0.385
-0.36
-0.375
-0.365
-0.39
-0.35
-0.415
-0.41
-0.435
-0.465
-0.475
-0.385
-0.28
-0.26
-0.31
-0.385
-0.285
-0.23
-0.285
-0.29
-0.17
-0.225
-0.31
-0.26
-0.26
-0.32
-0.26
-0.145
-0.23
-0.285
-0.21
-0.19
-0.255
-0.27
-0.135
-0.125
-0.265
-0.25
-0.155
-0.19
-0.16
-0.185
-0.2
-0.235
-0.23
-0.275
-0.335
-0.285
-0.26
-0.21
-0.295
-0.27
-0.33
-0.385
-0.31
-0.345
-0.36
-0.36
-0.385
-0.385
-0.45
-0.39
-0.37
-0.41
-0.525
-0.455
-0.44
-0.515
-0.455
-0.44
-0.41
-0.465
-0.5
-0.405
-0.48
-0.46
-0.495
-0.435
-0.49
-0.53
-0.51
-0.44
-0.49
-0.485
-0.49
-0.485
-0.39
-0.485
-0.495
-0.445
-0.42
-0.48
-0.495
-0.42
-0.46
-0.41
-0.435
-0.405
-0.455
-0.44
-0.42
-0.51
-0.495
-0.415
-0.47
-0.545
-0.47
-0.425
-0.465
-0.48
-0.455
-0.415
-0.535
-0.53
-0.43
-0.45
-0.405
-0.45
-0.49
-0.465
-0.52
-0.365
-0.405
-0.48
-0.425
-0.525
-0.515
-0.4
-0.45
-0.465
-0.42
-0.485
-0.46
-0.52
-0.425
-0.4
-0.41
-0.51
-0.465
-0.435
-0.465
-0.465
-0.49
-0.47
-0.415
-0.48
-0.485
-0.375
-0.4
-0.515
-0.44
-0.445
-0.405
-0.425
-0.46
-0.565
-0.565
-0.455
-0.44
-0.435
-0.435
-0.44
-0.415
-0.425
-0.435
-0.405
-0.415
-0.425
-0.54
-0.545
-0.56
-0.455
-0.385
-0.4
-0.395
-0.485
-0.555
-0.48
-0.405
-0.385
-0.41
-0.445
-0.5
-0.465
-0.455
-0.465
-0.47
-0.495
-0.465
-0.52
-0.475
-0.475
-0.43
-0.485
-0.485
-0.475
-0.425
-0.515
-0.515
-0.43
-0.46
-0.445
-0.46
-0.49
-0.445
-0.465
-0.435
-0.47
-0.495
-0.345
-0.4
-0.49
-0.47
-0.515
-0.475
-0.44
-0.46
-0.515
-0.445
-0.455
-0.535
-0.45
-0.49
-0.515
-0.45
-0.365
-0.475
-0.415
-0.43
-0.43
-0.46
-0.455
-0.41
-0.435
-0.505
-0.47
-0.42
-0.375
-0.455
-0.455
-0.44
-0.405
-0.375
-0.35
-0.355
-0.41
-0.455
-0.365
-0.38
-0.27
-0.38
-0.455
-0.37
-0.33
-0.435
-0.385
-0.34
-0.455
-0.46
-0.51
-0.54
-0.465
-0.495
-0.47
-0.48
-0.475
-0.46
-0.45
-0.57
-0.46
-0.37
-0.445
-0.4
-0.46
-0.54
-0.45
-0.485
-0.49
-0.47
-0.5
-0.475
-0.52
-0.52
-0.48
-0.455
-0.43
-0.405
-0.38
-0.485
-0.53
-0.5
-0.515
-0.475
-0.475
-0.44
-0.395
-0.455
-0.49
-0.465
-0.565
-0.53
-0.45
-0.45
-0.55
-0.52
-0.31
-0.35
-0.365
-0.355
-0.315
-0.28
-0.23
-0.27
-0.3
-0.21
-0.095
-0.035
-0.015
0.01
0.16
0.13
0.03
-0.05
-0.22
-0.4
-0.43
-0.475
-0.585
-0.555
-0.57
-0.63
-0.585
-0.46
-0.465
-0.43
-0.465
-0.505
-0.53
-0.46
-0.505
-0.565
-0.46
-0.475
-0.4
-0.415
-0.37
-0.43
-0.48
-0.545
-0.465
-0.495
-0.44
-0.425
-0.445
-0.505
-0.435
-0.425
-0.47
-0.495
-0.46
-0.445
-0.475
-0.435
-0.415
-0.445
-0.41
-0.445
-0.46
-0.44
-0.435
-0.46
-0.445
-0.41
-0.445
-0.42
-0.465
-0.46
-0.365
-0.44
-0.485
-0.445
-0.385
-0.43
-0.455
-0.43
-0.42
-0.37
-0.375
-0.445
-0.41
-0.5
-0.465
-0.375
-0.385
-0.405
-0.44
-0.44
-0.385
-0.395
-0.395
-0.415
-0.355
-0.405
-0.425
-0.34
-0.405
-0.34
-0.345
-0.37
-0.39
-0.28
-0.3
-0.32
-0.335
-0.265
-0.325
-0.315
-0.3
-0.28
-0.24
-0.235
-0.22
-0.24
-0.265
-0.235
-0.195
-0.22
-0.275
-0.105
-0.15
-0.235
-0.18
-0.225
-0.145
-0.195
-0.26
-0.185
-0.17
-0.255
-0.27
-0.235
-0.2
-0.31
-0.275
-0.21
-0.305
-0.28
-0.345
-0.37
-0.345
-0.295
-0.365
-0.375
-0.355
-0.395
-0.34
-0.435
-0.45
-0.47
-0.44
-0.48
-0.45
-0.485
-0.445
-0.47
-0.475
-0.455
-0.475
-0.425
-0.49
-0.565
-0.45
-0.445
-0.37
-0.41
-0.535
-0.515
-0.47
-0.485
-0.495
-0.48
-0.475
-0.5
-0.495
-0.475
-0.5
-0.5
-0.46
-0.46
-0.48
-0.46
-0.495
-0.5
-0.45
-0.42
-0.465
-0.49
-0.54
-0.37
-0.4
-0.5
-0.58
-0.445
-0.475
-0.535
-0.47
-0.49
-0.415
-0.42
-0.415
-0.465
-0.46
-0.515
-0.565
-0.47
-0.45
-0.445
-0.45
-0.5
-0.465
-0.465
-0.45
-0.43
-0.55
-0.435
-0.495
-0.49
-0.43
-0.455
-0.445
-0.495
-0.48
-0.56
-0.425
-0.36
-0.46
-0.495
-0.425
-0.46
-0.53
-0.54
-0.48
-0.415
-0.37
-0.37
-0.47
-0.475
-0.465
-0.51
-0.495
-0.445
-0.49
-0.425
-0.46
-0.44
-0.475
-0.465
-0.51
-0.445
-0.41
-0.42
-0.54
-0.505
-0.475
-0.475
-0.47
-0.45
-0.43
-0.475
-0.455
-0.485
-0.465
-0.425
-0.565
-0.47
-0.42
-0.435
-0.45
-0.49
-0.45
-0.425
-0.49
-0.49
-0.455
-0.515
-0.445
-0.375
-0.395
-0.49
-0.535
-0.505
-0.435
-0.495
-0.435
-0.41
-0.45
-0.495
-0.58
-0.5
-0.455
-0.325
-0.455
-0.49
-0.465
-0.445
-0.56
-0.51
-0.45
-0.49
-0.44
-0.415
-0.52
-0.505
-0.485
-0.43
-0.42
-0.435
-0.495
-0.44
-0.435
-0.54
-0.435
-0.495
-0.465
-0.5
-0.545
-0.46
-0.46
-0.385
-0.42
-0.465
-0.545
-0.48
-0.415
-0.475
-0.475
-0.49
-0.475
-0.46
-0.35
-0.45
-0.48
-0.465
-0.46
-0.48
-0.51
-0.45
-0.5
-0.43
-0.465
-0.53
-0.49
-0.395
-0.445
-0.495
-0.485
-0.5
-0.465
-0.5
-0.455
-0.425
-0.435
-0.47
-0.51
-0.445
-0.315
-0.425
-0.45
-0.53
-0.51
-0.425
-0.445
-0.46
-0.45
-0.59
-0.5
-0.41
-0.45
-0.465
-0.555
-0.46
-0.46
-0.425
-0.445
-0.425
-0.475
-0.53
-0.475
-0.53
-0.43
-0.38
-0.43
-0.43
-0.46
-0.455
-0.495
-0.485
-0.48
-0.47
-0.465
-0.43
-0.325
-0.45
-0.505
-0.435
-0.45
-0.37
-0.49
-0.48
-0.425
-0.42
-0.43
-0.4
-0.41
-0.46
-0.45
-0.48
-0.4
-0.31
-0.39
-0.38
-0.375
-0.38
-0.355
-0.39
-0.275
-0.35
-0.44
-0.49
-0.415
-0.32
-0.37
-0.475
-0.4
-0.475
-0.48
-0.445
-0.455
-0.535
-0.46
-0.485
-0.525
-0.465
-0.415
-0.48
-0.375
-0.455
-0.51
-0.455
-0.48
-0.47
-0.445
-0.445
-0.45
-0.49
-0.54
-0.475
-0.515
-0.51
-0.555
-0.415
-0.365
-0.435
-0.45
-0.45
-0.43
-0.415
-0.51
-0.555
-0.425
-0.45
-0.485
-0.47
-0.48
-0.49
-0.485
-0.43
-0.395
-0.41
-0.455
-0.36
-0.31
-0.26
-0.28
-0.405
-0.27
-0.225
-0.265
-0.145
-0.185
0.02
0.095
0.075
0.16
0.13
-0.01
-0.14
-0.21
-0.24
-0.375
-0.545
-0.655
-0.635
-0.68
-0.6
-0.5
-0.545
-0.52
-0.445
-0.43
-0.485
-0.48
-0.455
-0.425
-0.465
-0.435
-0.49
-0.575
-0.53
-0.405
-0.405
-0.42
-0.42
-0.485
-0.47
-0.41
-0.445
-0.535
-0.42
-0.385
-0.4
-0.405
-0.525
-0.45
-0.42
-0.425
-0.455
-0.48
-0.475
-0.425
-0.455
-0.41
-0.41
-0.415
-0.385
-0.4
-0.38
-0.345
-0.44
-0.495
-0.535
-0.445
-0.37
-0.465
-0.415
-0.36
-0.515
-0.435
-0.405
-0.405
-0.525
-0.44
-0.395
-0.35
-0.405
-0.405
-0.365
-0.43
-0.395
-0.4
-0.385
-0.395
-0.4
-0.38
-0.385
-0.325
-0.305
-0.43
-0.465
-0.415
-0.375
-0.365
-0.28
-0.335
-0.27
-0.31
-0.41
-0.385
-0.26
-0.275
-0.325
-0.33
-0.285
-0.23
-0.24
-0.295
-0.23
-0.15
-0.245
-0.24
-0.235
-0.25
-0.17
-0.15
-0.19
-0.19
-0.16
-0.145
-0.08
-0.16
-0.245
-0.265
-0.195
-0.255
-0.265
-0.13
-0.26
-0.21
-0.25
-0.295
-0.27
-0.27
-0.385
-0.365
-0.37
-0.385
-0.355
-0.35
-0.385
-0.375
-0.365
-0.385
-0.405
-0.43
-0.46
-0.48
-0.515
-0.48
-0.45
-0.485
-0.49
-0.425
-0.395
-0.49
-0.525
-0.495
-0.465
-0.6
-0.555
-0.465
-0.51
-0.45
-0.53
-0.425
-0.415
-0.53
-0.5
-0.525
-0.46
-0.505
-0.505
-0.55
-0.55
-0.47
-0.385
-0.475
-0.485
-0.45
-0.425
-0.475
-0.465
-0.525
-0.535
-0.41
-0.475
-0.54
-0.485
-0.51
-0.53
-0.455
-0.51
-0.465
-0.47
-0.51
-0.565
-0.575
-0.53
-0.51
-0.39
-0.43
-0.465
-0.455
-0.515
-0.555
-0.415
-0.525
-0.6
-0.63
-0.49
-0.45
-0.445
-0.345
-0.53
-0.56
-0.55
-0.44
-0.485
-0.48
-0.53
-0.515
-0.53
-0.515
-0.575
-0.49
-0.475
-0.49
-0.55
-0.485
-0.44
-0.49
-0.53
-0.49
-0.47
-0.48
-0.495
-0.505
-0.54
-0.51
-0.515
-0.47
-0.565
-0.59
-0.52
-0.43
-0.56
-0.53
-0.52
-0.55
-0.535
-0.57
-0.525
-0.545
-0.455
-0.505
-0.625
-0.555
-0.49
-0.52
-0.585
-0.615
-0.46
-0.46
-0.535
-0.54
-0.55
-0.47
-0.49
-0.52
-0.525
-0.575
-0.585
-0.565
-0.485
-0.56
-0.57
-0.55
-0.525
-0.485
-0.565
-0.595
-0.58
-0.6
-0.57
-0.445
-0.455
-0.45
-0.49
-0.535
-0.515
-0.605
-0.61
-0.52
-0.545
-0.565
-0.545
-0.585
-0.55
-0.535
-0.58
-0.54
-0.48
-0.525
-0.51
-0.51
-0.555
-0.575
-0.49
-0.51
-0.555
-0.485
-0.535
-0.535
-0.48
-0.435
-0.495
-0.535
-0.485
-0.52
-0.57
-0.46
-0.45
-0.51
-0.485
-0.52
-0.44
-0.48
-0.475
-0.485
-0.5
-0.45
-0.45
-0.525
-0.595
-0.585
-0.56
-0.565
-0.495
-0.6
-0.53
-0.485
-0.525
-0.565
-0.585
-0.525
-0.45
-0.55
-0.62
-0.595
-0.62
-0.58
-0.545
-0.635
-0.54
-0.545
-0.59
-0.505
-0.535
-0.56
-0.575
-0.62
-0.565
-0.535
-0.53
-0.525
-0.58
-0.63
-0.585
-0.545
-0.57
-0.58
-0.55
-0.59
-0.58
-0.545
-0.505
-0.57
-0.535
-0.535
-0.52
-0.54
-0.53
-0.425
-0.43
-0.38
-0.305
-0.35
-0.375
-0.35
-0.26
-0.175
-0.085
-0.065
-0.035
0.03
-0.065
-0.18
-0.26
-0.35
-0.42
-0.55
-0.595
-0.695
-0.745
-0.82
-0.68
-0.625
-0.66
-0.615
-0.605
-0.655
-0.565
-0.51
-0.51
-0.565
-0.56
-0.5
-0.535
-0.595
-0.54
-0.55
-0.5
-0.515
-0.48
-0.515
-0.525
-0.505
-0.53
-0.535
-0.53
-0.47
-0.485
-0.46
-0.48
-0.42
-0.53
-0.515
-0.485
-0.51
-0.5
-0.55
-0.52
-0.42
-0.47
-0.505
-0.485
-0.45
-0.44
-0.535
-0.555
-0.48
-0.505
-0.445
-0.435
-0.455
-0.42
-0.485
-0.455
-0.48
-0.5
-0.49
-0.475
-0.46
-0.45
-0.445
-0.5
-0.485
-0.465
-0.4
-0.425
-0.415
-0.485
-0.45
-0.41
-0.415
-0.41
-0.46
-0.465
-0.37
-0.335
-0.355
-0.315
-0.375
-0.385
-0.41
-0.365
-0.39
-0.41
-0.36
-0.4
-0.36
-0.36
-0.35
-0.37
-0.39
-0.28
-0.36
-0.325
-0.305
-0.29
-0.265
-0.23
-0.25
-0.28
-0.255
-0.24
-0.245
-0.23
-0.155
-0.21
-0.2
-0.115
-0.18
-0.31
-0.28
-0.32
-0.23
-0.345
-0.385
-0.285
-0.29
-0.32
-0.33
-0.325
-0.395
-0.5
-0.385
-0.36
-0.42
-0.435
-0.45
-0.51
-0.46
-0.47
-0.5
-0.42
-0.44
-0.495
-0.485
-0.495
-0.535
-0.505
-0.48
-0.495
-0.5
-0.555
-0.525
-0.545
-0.53
-0.45
-0.49
-0.515
-0.505
-0.475
-0.48
-0.485
-0.485
-0.555
-0.485
-0.46
-0.525
-0.545
-0.425
-0.495
-0.575
-0.47
-0.46
-0.49
-0.38
-0.485
-0.54
-0.47
-0.53
-0.495
-0.475
-0.505
-0.525
-0.52
-0.525
-0.465
-0.47
-0.51
-0.475
-0.55
-0.515
-0.5
-0.485
-0.505
-0.57
-0.55
-0.48
-0.51
-0.415
-0.505
-0.46
-0.395
-0.44
-0.5
-0.515
-0.52
-0.585
-0.435
-0.5
-0.45
-0.44
-0.47
-0.475
-0.49
-0.455
-0.48
-0.45
-0.445
-0.47
-0.465
-0.45
-0.5
-0.46
-0.46
-0.42
-0.455
-0.435
-0.48
-0.375
-0.405
-0.505
-0.47
-0.44
-0.5
-0.49
-0.45
-0.485
-0.42
-0.425
-0.4
-0.45
-0.44
-0.47
-0.53
-0.515
-0.54
-0.435
-0.505
-0.475
-0.49
-0.55
-0.47
-0.435
-0.44
-0.475
-0.46
-0.47
-0.485
-0.51
-0.47
-0.44
-0.46
-0.365
-0.475
-0.46
-0.425
-0.425
-0.495
-0.485
-0.49
-0.535
-0.44
-0.4
-0.41
-0.41
-0.495
-0.465
-0.385
-0.5
-0.45
-0.45
-0.475
-0.525
-0.495
-0.455
-0.45
-0.48
-0.43
-0.43
-0.455
-0.465
-0.505
-0.5
-0.425
-0.44
-0.415
-0.46
-0.415
-0.435
-0.47
-0.47
-0.44
-0.385
-0.41
-0.4
-0.455
-0.4
-0.435
-0.42
-0.425
-0.405
-0.435
-0.445
-0.4
-0.405
-0.37
-0.36
-0.3
-0.33
-0.335
-0.34
-0.375
-0.405
-0.41
-0.34
-0.37
-0.405
-0.345
-0.43
-0.4
-0.41
-0.44
-0.42
-0.485
-0.475
-0.455
-0.43
-0.415
-0.42
-0.43
-0.41
-0.385
-0.475
-0.475
-0.445
-0.425
-0.455
-0.445
-0.47
-0.43
-0.475
-0.465
-0.455
-0.485
-0.41
-0.395
-0.415
-0.47
-0.45
-0.51
-0.45
-0.45
-0.48
-0.475
-0.395
-0.445
-0.42
-0.42
-0.465
-0.505
-0.505
-0.42
-0.32
-0.345
-0.43
-0.455
-0.375
-0.28
-0.335
-0.395
-0.25
-0.25
-0.265
-0.135
-0.15
-0.155
-0.145
-0.025
0.065
0.085
0.19
0.105
0.005
-0.16
-0.205
-0.31
-0.395
-0.47
-0.55
-0.585
-0.59
-0.57
-0.545
-0.48
-0.445
-0.465
-0.49
-0.435
-0.48
-0.455
-0.355
-0.425
-0.44
-0.43
-0.43
-0.385
-0.365
-0.425
-0.455
-0.38
-0.38
-0.375
-0.405
-0.485
-0.44
-0.44
-0.35
-0.465
-0.475
-0.415
-0.4
-0.385
-0.37
-0.375
-0.38
-0.395
-0.395
-0.375
-0.36
-0.385
-0.34
-0.38
-0.385
-0.445
-0.35
-0.43
-0.33
-0.31
-0.42
-0.41
-0.435
-0.38
-0.49
-0.37
-0.3
-0.365
-0.295
-0.34
-0.355
-0.355
-0.39
-0.39
-0.395
-0.42
-0.4
-0.375
-0.4
-0.35
-0.385
-0.405
-0.32
-0.285
-0.31
-0.305
-0.32
-0.37
-0.32
-0.315
-0.285
-0.315
-0.275
-0.275
-0.37
-0.26
-0.24
-0.195
-0.2
-0.24
-0.215
-0.19
-0.275
-0.23
-0.225
-0.12
-0.105
-0.125
-0.22
-0.27
-0.165
-0.095
-0.155
-0.13
-0.125
-0.105
-0.11
-0.07
-0.055
-0.09
-0.185
-0.21
-0.145
-0.2
-0.13
-0.235
-0.205
-0.195
-0.315
-0.255
-0.265
-0.245
-0.305
-0.375
-0.31
-0.255
-0.3
-0.38
-0.34
-0.375
-0.395
-0.305
-0.385
-0.415
-0.35
-0.44
-0.395
-0.345
-0.34
-0.425
-0.51
-0.365
-0.365
-0.425
-0.415
-0.345
-0.39
-0.41
-0.39
-0.41
-0.455
-0.37
-0.36
-0.41
-0.4
-0.37
-0.4
-0.46
-0.41
-0.42
-0.46
-0.43
-0.46
-0.445
-0.39
-0.375
-0.32
-0.32
-0.45
-0.445
-0.445
-0.4
-0.34
-0.405
-0.445
-0.405
-0.4
-0.4
-0.38
-0.4
-0.365
-0.395
-0.435
-0.38
-0.355
-0.425
-0.38
-0.305
-0.385
-0.445
-0.405
-0.395
-0.435
-0.39
-0.425
-0.415
-0.415
-0.4
-0.45
-0.44
-0.36
-0.315
-0.31
-0.37
-0.38
-0.395
-0.405
-0.355
-0.405
-0.365
-0.36
-0.325
-0.42
-0.41
-0.325
-0.34
-0.415
-0.385
-0.395
-0.36
-0.355
-0.335
-0.34
-0.415
-0.425
-0.415
-0.365
-0.355
-0.365
-0.385
-0.31
-0.385
-0.405
-0.47
-0.4
-0.37
-0.4
-0.35
-0.345
-0.41
-0.395
-0.35
-0.36
-0.33
-0.43
-0.445
-0.385
-0.415
-0.405
-0.355
-0.39
-0.48
-0.405
-0.305
-0.385
-0.335
-0.345
-0.44
-0.385
-0.355
-0.335
-0.38
-0.5
-0.375
-0.395
-0.395
-0.355
-0.33
-0.36
-0.375
-0.385
-0.42
-0.34
-0.335
-0.39
-0.425
-0.35
-0.365
-0.42
-0.375
-0.295
-0.33
-0.4
-0.41
-0.405
-0.45
-0.395
-0.455
-0.405
-0.345
-0.305
-0.37
-0.465
-0.425
-0.385
-0.35
-0.335
-0.365
-0.365
-0.4
-0.46
-0.325
-0.335
-0.385
-0.46
-0.435
-0.31
-0.34
-0.385
-0.32
-0.27
-0.295
-0.345
-0.44
-0.47
-0.415
-0.32
-0.33
-0.355
-0.325
-0.265
-0.335
-0.35
-0.34
-0.355
-0.365
-0.295
-0.325
-0.325
-0.28
-0.375
-0.31
-0.315
-0.305
-0.25
-0.325
-0.33
-0.385
-0.315
-0.275
-0.285
-0.23
-0.31
-0.33
-0.395
-0.35
-0.47
-0.38
-0.43
-0.36
-0.32
-0.38
-0.42
-0.365
-0.39
-0.385
-0.415
-0.395
-0.43
-0.375
-0.375
-0.36
-0.345
-0.31
-0.445
-0.465
-0.315
-0.415
-0.375
-0.355
-0.345
-0.47
-0.445
-0.375
-0.465
-0.385
-0.425
-0.4
-0.335
-0.335
-0.325
-0.43
-0.405
-0.405
-0.41
-0.34
-0.37
-0.425
-0.385
-0.35
-0.335
-0.3
-0.255
-0.225
-0.23
-0.185
-0.195
-0.24
-0.19
-0.125
-0.115
-0.05
0.085
0.08
0.185
0.21
0.165
0.05
-0.075
-0.09
-0.225
-0.325
-0.49
-0.505
-0.48
-0.485
-0.51
-0.48
-0.475
-0.44
-0.395
-0.425
-0.35
-0.31
-0.37
-0.32
-0.35
-0.39
-0.36
-0.415
-0.345
-0.335
-0.365
-0.34
-0.345
-0.405
-0.375
-0.325
-0.35
-0.39
-0.35
-0.4
-0.395
-0.395
-0.345
-0.29
-0.315
-0.34
-0.36
-0.405
-0.41
-0.365
-0.33
-0.3
-0.3
-0.38
-0.385
-0.45
-0.395
-0.34
-0.36
-0.315
-0.36
-0.395
-0.33
-0.245
-0.33
-0.425
-0.35
-0.255
-0.4
-0.325
-0.28
-0.31
-0.28
-0.3
-0.365
-0.355
-0.305
-0.29
-0.235
-0.305
-0.32
-0.31
-0.305
-0.35
-0.24
-0.35
-0.375
-0.275
-0.32
-0.285
-0.205
-0.27
-0.325
-0.245
-0.23
-0.235
-0.26
-0.235
-0.225
-0.215
-0.175
-0.135
-0.175
-0.28
-0.19
-0.06
-0.12
-0.15
-0.12
-0.095
-0.105
-0.095
-0.14
-0.07
-0.055
-0.11
-0.08
-0.04
-0.075
-0.135
-0.045
-0.025
-0.105
-0.06
-0.025
-0.11
-0.1
-0.09
-0.2
-0.25
-0.22
-0.24
-0.235
-0.24
-0.27
-0.23
-0.235
-0.29
-0.31
-0.325
-0.4
-0.33
-0.325
-0.31
-0.365
-0.325
-0.28
-0.3
-0.255
-0.3
-0.4
-0.39
-0.365
-0.42
-0.32
-0.34
-0.325
-0.38
-0.315
-0.31
-0.26
-0.365
-0.38
-0.395
-0.415
-0.425
-0.38
-0.315
-0.47
-0.39
-0.31
-0.33
-0.27
-0.365
-0.41
-0.375
-0.42
-0.37
-0.44
-0.34
-0.355
-0.365
-0.325
-0.305
-0.37
-0.325
-0.29
-0.37
-0.395
-0.375
-0.315
-0.36
-0.345
-0.42
-0.35
-0.37
-0.27
-0.28
-0.195
-0.275
-0.415
-0.445
-0.39
-0.43
-0.4
-0.335
-0.325
-0.39
-0.4
-0.395
-0.335
-0.335
-0.31
-0.395
-0.34
-0.315
-0.335
-0.315
-0.335
-0.335
-0.33
-0.365
-0.29
-0.33
-0.355
-0.355
-0.365
-0.375
-0.335
-0.4
-0.365
-0.25
-0.315
-0.32
-0.415
-0.395
-0.35
-0.405
-0.39
-0.315
-0.34
-0.345
-0.455
-0.36
-0.365
-0.28
-0.275
-0.315
-0.35
-0.355
-0.335
-0.27
-0.285
-0.255
-0.31
-0.355
-0.29
-0.41
-0.43
-0.415
-0.355
-0.32
-0.36
-0.375
-0.335
-0.325
-0.45
-0.42
-0.3
-0.37
-0.37
-0.4
-0.435
-0.295
-0.28
-0.325
-0.31
-0.37
-0.4
-0.29
-0.285
-0.365
-0.365
-0.34
-0.385
-0.365
-0.395
-0.325
-0.315
-0.42
-0.375
-0.325
-0.34
-0.35
-0.355
-0.3
-0.26
-0.34
-0.415
-0.375
-0.31
-0.365
-0.365
-0.415
-0.395
-0.335
-0.37
-0.34
-0.35
-0.285
-0.39
-0.32
-0.285
-0.345
-0.33
-0.38
-0.355
-0.31
-0.325
-0.46
-0.44
-0.32
-0.36
-0.405
-0.405
-0.26
-0.325
-0.31
-0.365
-0.39
-0.31
-0.275
-0.29
-0.315
-0.31
-0.34
-0.325
-0.375
-0.19
-0.285
-0.335
-0.285
-0.345
-0.27
-0.28
-0.305
-0.27
-0.3
-0.27
-0.245
-0.28
-0.22
-0.31
-0.345
-0.395
-0.38
-0.235
-0.28
-0.24
-0.335
-0.315
-0.315
-0.345
-0.36
-0.375
-0.29
-0.37
-0.295
-0.315
-0.345
-0.355
-0.36
-0.385
-0.335
-0.34
-0.29
-0.46
-0.33
-0.38
-0.335
-0.35
-0.395
-0.51
-0.37
-0.38
-0.29
-0.25
-0.32
-0.33
-0.35
-0.37
-0.325
-0.35
-0.385
-0.345
-0.315
-0.365
-0.355
-0.355
-0.36
-0.39
-0.42
-0.36
-0.34
-0.385
-0.345
-0.215
-0.18
-0.175
-0.24
-0.215
-0.245
-0.215
-0.21
-0.115
-0.14
-0.08
0.08
0.13
0.21
0.205
0.24
0.1
-0.09
-0.28
-0.27
-0.155
-0.355
-0.41
-0.49
-0.585
-0.56
-0.54
-0.51
-0.415
-0.375
-0.39
-0.325
-0.28
-0.35
-0.35
-0.375
-0.41
-0.395
-0.445
-0.505
-0.335
-0.34
-0.325
-0.305
-0.33
-0.305
-0.265
-0.33
-0.425
-0.5
-0.365
-0.28
-0.32
-0.325
-0.335
-0.335
-0.385
-0.405
-0.315
-0.325
-0.33
-0.325
-0.33
-0.415
-0.31
-0.325
-0.34
-0.34
-0.33
-0.305
-0.335
-0.31
-0.315
-0.365
-0.355
-0.465
-0.35
-0.345
-0.33
-0.265
-0.295
-0.31
-0.35
-0.34
-0.32
-0.23
-0.315
-0.4
-0.375
-0.29
-0.385
-0.325
-0.34
-0.32
-0.265
-0.32
-0.355
-0.26
-0.27
-0.385
-0.255
-0.175
-0.325
-0.34
-0.15
-0.165
-0.18
-0.26
-0.335
-0.265
-0.25
-0.175
-0.18
-0.15
-0.195
-0.17
-0.08
-0.095
-0.155
-0.195
-0.17
-0.135
-0.12
-0.13
-0.12
-0.065
-0.085
-0.175
-0.1
-0.11
-0.06
-0.17
-0.13
-0.07
-0.12
-0.125
-0.135
-0.175
-0.195
-0.255
-0.22
-0.285
-0.24
-0.27
-0.215
-0.205
-0.325
-0.345
-0.35
-0.4
-0.38
-0.355
-0.365
-0.4
-0.3
-0.43
-0.49
-0.425
-0.395
-0.395
-0.39
-0.39
-0.445
-0.46
-0.49
-0.48
-0.45
-0.4
-0.395
-0.465
-0.475
-0.465
-0.32
-0.355
-0.395
-0.465
-0.51
-0.465
-0.455
-0.42
-0.435
-0.46
-0.475
-0.465
-0.475
-0.43
-0.5
-0.465
-0.5
-0.465
-0.385
-0.43
-0.44
-0.425
-0.475
-0.45
-0.535
-0.425
-0.435
-0.45
-0.4
-0.43
-0.485
-0.45
-0.37
-0.42
-0.395
-0.515
-0.48
-0.675
-0.58
-0.395
-0.4
-0.535
-0.43
-0.39
-0.455
-0.42
-0.385
-0.435
-0.495
-0.48
-0.46
-0.47
-0.425
-0.435
-0.45
-0.515
-0.465
-0.46
-0.425
-0.47
-0.44
-0.39
-0.45
-0.48
-0.44
-0.445
-0.445
-0.46
-0.48
-0.425
-0.425
-0.425
-0.44
-0.43
-0.405
-0.45
-0.425
-0.43
-0.525
-0.55
-0.445
-0.51
-0.465
-0.37
-0.415
-0.45
-0.505
-0.48
-0.455
-0.425
-0.435
-0.42
-0.46
-0.45
-0.42
-0.47
-0.545
-0.445
-0.37
-0.45
-0.5
-0.42
-0.375
-0.42
-0.465
-0.45
-0.495
-0.505
-0.455
-0.37
-0.42
-0.465
-0.475
-0.375
-0.435
-0.54
-0.56
-0.465
-0.485
-0.365
-0.39
-0.39
-0.405
-0.47
-0.425
-0.41
-0.38
-0.365
-0.4
-0.415
-0.455
-0.395
-0.415
-0.465
-0.46
-0.35
-0.36
-0.475
-0.295
-0.33
-0.375
-0.365
-0.315
-0.39
-0.34
-0.33
-0.365
-0.345
-0.37
-0.385
-0.375
-0.395
-0.37
-0.35
-0.37
-0.335
-0.37
-0.41
-0.395
-0.425
-0.44
-0.435
-0.47
-0.44
-0.495
-0.43
-0.495
-0.41
-0.365
-0.33
-0.37
-0.345
-0.39
-0.465
-0.505
-0.48
-0.37
-0.445
-0.435
-0.475
-0.47
-0.38
-0.385
-0.45
-0.555
-0.46
-0.395
-0.38
-0.39
-0.395
-0.41
-0.375
-0.395
-0.415
-0.435
-0.46
-0.445
-0.46
-0.395
-0.435
-0.34
-0.405
-0.355
-0.33
-0.31
-0.335
-0.285
-0.21
-0.285
-0.215
-0.175
-0.22
-0.08
-0.04
0.1
-0.02
-0.055
0.215
0.075
-0.09
-0.12
-0.27
-0.37
-0.42
-0.525
-0.575
-0.615
-0.55
-0.515
-0.525
-0.48
-0.45
-0.44
-0.5
-0.505
-0.49
-0.47
-0.38
-0.36
-0.41
-0.375
-0.35
-0.38
-0.45
-0.42
-0.445
-0.465
-0.35
-0.38
-0.435
-0.53
-0.38
-0.315
-0.38
-0.35
-0.39
-0.38
-0.475
-0.4
-0.395
-0.36
-0.425
-0.38
-0.36
-0.375
-0.415
-0.42
-0.47
-0.41
-0.355
-0.405
-0.365
-0.35
-0.37
-0.375
-0.385
-0.395
-0.415
-0.305
-0.345
-0.33
-0.345
-0.39
-0.37
-0.375
-0.37
-0.295
-0.375
-0.445
-0.385
-0.315
-0.345
-0.32
-0.265
-0.28
-0.355
-0.335
-0.36
-0.33
-0.36
-0.26
-0.32
-0.33
-0.245
-0.265
-0.28
-0.235
-0.21
-0.265
-0.245
-0.275
-0.285
-0.2
-0.2
-0.225
-0.22
-0.19
-0.08
-0.135
-0.16
-0.1
-0.115
-0.085
-0.13
-0.17
-0.175
-0.055
-0.105
-0.04
-0.065
-0.03
-0.12
-0.14
-0.155
-0.15
-0.155
-0.115
-0.07
-0.15
-0.22
-0.205
-0.165
-0.165
-0.17
-0.12
-0.23
-0.28
-0.305
-0.285
-0.325
-0.315
-0.33
-0.37
-0.31
-0.34
-0.315
-0.31
-0.35
-0.36
-0.315
-0.365
-0.37
-0.48
-0.41
-0.33
-0.325
-0.425
-0.37
-0.475
-0.365
-0.37
-0.385
-0.405
-0.34
-0.315
-0.35
-0.385
-0.43
-0.42
-0.38
-0.375
-0.375
-0.4
-0.365
-0.4
-0.44
-0.375
-0.38
-0.37
-0.37
-0.365
-0.315
-0.345
-0.375
-0.355
-0.365
-0.35
-0.35
-0.46
-0.455
-0.485
-0.335
-0.365
-0.35
-0.375
-0.36
-0.345
-0.345
-0.33
-0.355
-0.355
-0.385
-0.37
-0.385
-0.39
-0.34
-0.28
-0.415
-0.4
-0.345
-0.425
-0.45
-0.395
-0.305
-0.385
-0.385
-0.305
-0.345
-0.37
-0.25
-0.315
-0.37
-0.385
-0.355
-0.42
-0.3
-0.345
-0.395
-0.415
-0.315
-0.335
-0.37
-0.32
-0.34
-0.365
-0.295
-0.315
-0.365
-0.355
-0.355
-0.37
-0.28
-0.395
-0.425
-0.34
-0.315
-0.265
-0.325
-0.39
-0.34
-0.335
-0.34
-0.37
-0.315
-0.385
-0.325
-0.365
-0.335
-0.31
-0.365
-0.355
-0.375
-0.335
-0.355
-0.335
-0.325
-0.315
-0.29
-0.365
-0.38
-0.375
-0.37
-0.355
-0.36
-0.375
-0.345
-0.375
-0.35
-0.32
-0.35
-0.34
-0.37
-0.32
-0.325
-0.355
-0.38
-0.305
-0.28
-0.28
-0.28
-0.42
-0.365
-0.235
-0.295
-0.47
-0.385
-0.34
-0.3
-0.315
-0.33
-0.295
-0.31
-0.31
-0.345
-0.33
-0.295
-0.38
-0.35
-0.305
-0.245
-0.305
-0.34
-0.29
-0.29
-0.315
-0.305
-0.33
-0.275
-0.295
-0.31
-0.265
-0.25
-0.24
-0.28
-0.33
-0.255
-0.195
-0.16
-0.18
-0.265
-0.335
-0.34
-0.215
-0.235
-0.23
-0.27
-0.235
-0.305
-0.315
-0.38
-0.345
-0.335
-0.3
-0.31
-0.3
-0.37
-0.405
-0.365
-0.305
-0.25
-0.36
-0.4
-0.335
-0.3
-0.365
-0.345
-0.32
-0.33
-0.355
-0.35
-0.385
-0.465
-0.29
-0.355
-0.23
-0.185
-0.325
-0.33
-0.355
-0.375
-0.37
-0.325
-0.295
-0.34
-0.35
-0.295
-0.295
-0.305
-0.36
-0.37
-0.34
-0.245
-0.27
-0.235
-0.22
-0.19
-0.195
-0.18
-0.135
-0.14
-0.19
-0.03
-0.02
0.06
0.18
0.185
0.225
0.28
0.15
0.07
-0.02
0.0
-0.19
-0.24
-0.43
-0.445
-0.425
-0.535
-0.485
-0.435
-0.41
-0.385
-0.41
-0.31
-0.335
-0.28
-0.35
-0.31
-0.27
-0.29
-0.28
-0.32
-0.345
-0.275
-0.29
-0.305
-0.265
-0.32
-0.365
-0.29
-0.36
-0.385
-0.34
-0.345
-0.205
-0.25
-0.375
-0.255
-0.21
-0.255
-0.275
-0.34
-0.36
-0.27
-0.285
-0.26
-0.3
-0.315
-0.315
-0.345
-0.345
-0.285
-0.35
-0.23
-0.25
-0.245
-0.32
-0.24
-0.175
-0.215
-0.26
-0.295
-0.335
-0.275
-0.36
-0.365
-0.275
-0.22
-0.19
-0.23
-0.29
-0.235
-0.21
-0.23
-0.275
-0.215
-0.275
-0.265
-0.205
-0.245
-0.235
-0.24
-0.2
-0.25
-0.275
-0.21
-0.2
-0.19
-0.185
-0.095
-0.11
-0.15
-0.13
-0.075
-0.125
-0.12
-0.155
-0.09
-0.075
-0.05
-0.07
-0.08
-0.11
-0.01
-0.13
-0.055
-0.04
-0.035
-0.055
0.0
-0.01
0.005
-0.09
-0.05
-0.03
0.015
-0.07
-0.09
-0.03
-0.095
-0.11
-0.065
-0.11
-0.275
-0.075
-0.16
-0.215
-0.17
-0.2
-0.285
-0.12
-0.135
-0.2
-0.205
-0.215
-0.255
-0.325
-0.375
-0.3
-0.24
-0.31
-0.355
-0.325
-0.3
-0.305
-0.275
-0.255
-0.325
-0.295
-0.27
-0.29
-0.325
-0.28
-0.32
-0.235
-0.27
-0.305
-0.305
-0.355
-0.37
-0.34
-0.24
-0.29
-0.31
-0.255
-0.32
-0.335
-0.315
-0.315
-0.295
-0.25
-0.28
-0.325
-0.42
-0.31
-0.355
-0.29
-0.29
-0.31
-0.265
-0.35
-0.38
-0.275
-0.28
-0.26
-0.305
-0.255
-0.265
-0.28
-0.255
-0.315
-0.35
-0.33
-0.31
-0.34
-0.28
-0.295
-0.265
-0.295
-0.31
-0.305
-0.28
-0.29
-0.335
-0.3
-0.345
-0.25
-0.235
-0.285
-0.28
-0.28
-0.325
-0.36
-0.28
-0.295
-0.31
-0.3
-0.315
-0.235
-0.32
-0.29
-0.245
-0.26
-0.305
-0.315
-0.24
-0.285
-0.34
-0.19
-0.33
-0.275
-0.31
-0.35
-0.33
-0.22
-0.25
-0.29
-0.36
-0.285
-0.265
-0.27
-0.265
-0.28
-0.27
-0.28
-0.355
-0.325
-0.31
-0.31
-0.25
-0.325
-0.34
-0.255
-0.28
-0.31
-0.3
-0.22
-0.27
-0.295
-0.325
-0.345
-0.3
-0.285
-0.315
-0.28
-0.275
-0.25
-0.305
-0.31
-0.24
-0.3
-0.35
-0.295
-0.305
-0.395
-0.31
-0.215
-0.26
-0.325
-0.29
-0.32
-0.255
-0.25
-0.29
-0.33
-0.27
-0.305
-0.32
-0.29
-0.285
-0.305
-0.34
-0.305
-0.325
-0.29
-0.3
-0.285
-0.285
-0.27
-0.275
-0.285
-0.31
-0.27
-0.235
-0.265
-0.265
-0.29
-0.26
-0.28
-0.36
-0.31
-0.17
-0.13
-0.18
-0.335
-0.33
-0.23
-0.2
-0.125
-0.25
-0.39
-0.3
-0.205
-0.195
-0.28
-0.33
-0.25
-0.185
-0.15
-0.195
-0.2
-0.14
-0.23
-0.225
-0.245
-0.27
-0.325
-0.315
-0.285
-0.305
-0.305
-0.385
-0.31
-0.245
-0.28
-0.25
-0.26
-0.33
-0.295
-0.28
-0.34
-0.285
-0.285
-0.305
-0.23
-0.285
-0.3
-0.36
-0.325
-0.34
-0.355
-0.315
-0.33
-0.31
-0.305
-0.245
-0.31
-0.325
-0.37
-0.31
-0.285
-0.395
-0.255
-0.285
-0.34
-0.24
-0.245
-0.265
-0.315
-0.32
-0.325
-0.37
-0.305
-0.17
-0.12
-0.185
-0.155
-0.18
-0.095
-0.145
-0.15
-0.145
-0.005
0.03
0.07
0.195
0.21
0.26
0.345
0.225
-0.015
-0.025
-0.02
-0.175
-0.36
-0.375
-0.34
-0.39
-0.42
-0.45
-0.385
-0.295
-0.295
-0.32
-0.305
-0.35
-0.255
-0.3
-0.305
-0.3
-0.355
-0.28
-0.345
-0.335
-0.285
-0.285
-0.27
-0.25
-0.29
-0.335
-0.325
-0.25
-0.23
-0.255
-0.255
-0.26
-0.375
-0.22
-0.24
-0.29
-0.275
-0.295
-0.27
-0.24
-0.285
-0.27
-0.29
-0.295
-0.24
-0.31
-0.29
-0.27
-0.25
-0.295
-0.28
-0.23
-0.265
-0.29
-0.33
-0.225
-0.235
-0.245
-0.23
-0.255
-0.235
-0.255
-0.23
-0.255
-0.325
-0.255
-0.265
-0.235
-0.215
-0.24
-0.175
-0.225
-0.285
-0.26
-0.18
-0.215
-0.26
-0.18
-0.13
-0.165
-0.215
-0.205
-0.2
-0.165
-0.17
-0.185
-0.245
-0.12
-0.125
-0.115
-0.18
-0.12
-0.2
-0.105
-0.09
0.025
-0.045
-0.15
-0.055
0.025
-0.045
-0.14
-0.09
0.055
0.035
-0.065
0.0
-0.05
-0.03
-0.03
-0.045
-0.015
-0.025
0.0
-0.055
-0.095
-0.155
-0.06
-0.035
-0.11
-0.11
-0.11
-0.13
-0.14
-0.205
-0.255
-0.245
-0.17
-0.185
-0.265
-0.175
-0.195
-0.355
-0.36
-0.285
-0.22
-0.245
-0.375
-0.28
-0.235
-0.26
-0.19
-0.27
-0.285
-0.27
-0.31
-0.33
-0.345
-0.315
-0.3
-0.35
-0.335
-0.305
-0.315
-0.24
-0.305
-0.265
-0.265
-0.29
-0.29
-0.29
-0.315
-0.32
-0.32
-0.31
-0.35
-0.345
-0.34
-0.385
-0.315
-0.305
-0.225
-0.28
-0.34
-0.31
-0.24
-0.34
-0.29
-0.33
-0.3
-0.265
-0.32
-0.27
-0.275
-0.295
-0.3
-0.38
-0.25
-0.24
-0.43
-0.315
-0.26
-0.345
-0.32
-0.275
-0.32
-0.315
-0.32
-0.36
-0.27
-0.29
-0.32
-0.255
-0.25
-0.345
-0.36
-0.245
-0.325
-0.355
-0.265
-0.295
-0.29
-0.305
-0.275
-0.275
-0.29
-0.3
-0.36
-0.325
-0.285
-0.32
-0.36
-0.295
-0.25
-0.27
-0.315
-0.32
-0.27
-0.28
-0.28
-0.28
-0.33
-0.33
-0.35
-0.325
-0.27
-0.31
-0.365
-0.285
-0.265
-0.315
-0.33
-0.27
-0.25
-0.325
-0.41
-0.325
-0.305
-0.255
-0.245
-0.285
-0.33
-0.35
-0.305
-0.26
-0.295
-0.325
-0.27
-0.28
-0.345
-0.3
-0.315
-0.39
-0.355
-0.23
-0.275
-0.255
-0.25
-0.245
-0.315
-0.375
-0.345
-0.34
-0.235
-0.275
-0.355
-0.39
-0.31
-0.26
-0.315
-0.26
-0.355
-0.32
-0.355
-0.36
-0.275
-0.29
-0.31
-0.37
-0.28
-0.31
-0.34
-0.365
-0.275
-0.315
-0.275
-0.355
-0.365
-0.33
-0.275
-0.215
-0.25
-0.295
-0.36
-0.275
-0.295
-0.28
-0.28
-0.33
-0.375
-0.405
-0.375
-0.295
-0.275
-0.335
-0.25
-0.345
-0.335
-0.36
-0.3
-0.32
-0.425
-0.44
-0.25
-0.21
-0.325
-0.31
-0.29
-0.38
-0.295
-0.28
-0.315
-0.3
-0.315
-0.28
-0.375
-0.335
-0.285
-0.32
-0.3
-0.28
-0.32
-0.365
-0.225
-0.295
-0.275
-0.34
-0.31
-0.305
-0.285
-0.325
-0.305
-0.285
-0.275
-0.275
-0.425
-0.37
-0.315
-0.295
-0.34
-0.375
-0.31
-0.28
-0.315
-0.38
-0.3
-0.315
-0.385
-0.33
-0.28
-0.31
-0.335
-0.275
-0.315
-0.285
-0.28
-0.27
-0.275
-0.355
-0.315
-0.29
-0.275
-0.3
-0.31
-0.355
-0.31
-0.36
-0.35
-0.265
-0.25
-0.27
-0.29
-0.33
-0.28
-0.36
-0.31
-0.33
-0.27
-0.33
-0.425
-0.245
-0.265
-0.345
-0.405
-0.195
-0.255
-0.27
-0.3
-0.36
-0.28
-0.295
-0.33
-0.345
-0.305
-0.265
-0.275
-0.305
-0.33
-0.275
-0.365
-0.33
-0.285
-0.265
-0.35
-0.31
-0.29
-0.385
-0.295
-0.27
-0.27
-0.365
-0.3
-0.29
-0.315
-0.315
-0.24
-0.16
-0.245
-0.25
-0.275
-0.25
-0.225
-0.28
-0.27
-0.26
-0.32
-0.27
-0.235
-0.215
-0.22
-0.295
-0.215
-0.15
-0.245
-0.25
-0.24
-0.225
-0.265
-0.245
-0.265
-0.295
-0.255
-0.25
-0.295
-0.275
-0.215
-0.225
-0.305
-0.28
-0.295
-0.34
-0.285
-0.32
-0.325
-0.27
-0.215
-0.28
-0.33
-0.28
-0.285
-0.285
-0.315
-0.36
-0.34
-0.275
-0.305
-0.295
-0.265
-0.25
-0.295
-0.305
-0.33
-0.32
-0.32
-0.39
-0.31
-0.255
-0.33
-0.275
-0.26
-0.26
-0.3
-0.245
-0.34
-0.32
-0.32
-0.385
-0.35
-0.18
-0.175
-0.19
-0.22
-0.24
-0.135
-0.1
-0.11
-0.14
0.065
0.15
0.04
0.17
0.215
0.27
0.35
0.28
0.19
-0.015
-0.125
-0.265
-0.285
-0.385
-0.48
-0.47
-0.44
-0.415
-0.375
-0.425
-0.295
-0.295
-0.36
-0.31
-0.265
-0.385
-0.375
-0.275
-0.26
-0.23
-0.205
-0.235
-0.275
-0.23
-0.295
-0.32
-0.26
-0.26
-0.345
-0.25
-0.275
-0.315
-0.275
-0.255
-0.235
-0.29
-0.225
-0.285
-0.215
-0.375
-0.24
-0.295
-0.365
-0.225
-0.285
-0.345
-0.27
-0.295
-0.305
-0.365
-0.31
-0.23
-0.26
-0.21
-0.335
-0.29
-0.2
-0.305
-0.25
-0.255
-0.29
-0.3
-0.26
-0.255
-0.32
-0.4
-0.205
-0.195
-0.28
-0.21
-0.22
-0.17
-0.195
-0.245
-0.24
-0.27
-0.26
-0.265
-0.24
-0.19
-0.19
-0.23
-0.18
-0.145
-0.185
-0.165
-0.185
-0.21
-0.275
-0.14
-0.205
-0.225
-0.12
-0.18
-0.1
-0.04
-0.155
-0.085
-0.105
-0.2
-0.015
0.025
-0.035
-0.065
-0.09
-0.035
0.0
0.055
0.005
-0.03
-0.105
-0.075
-0.08
-0.04
-0.025
0.05
0.035
-0.08
-0.085
-0.085
-0.06
-0.055
-0.14
-0.205
-0.18
-0.12
-0.065
-0.125
-0.2
-0.205
-0.165
-0.215
-0.27
-0.22
-0.265
-0.31
-0.195
-0.21
-0.31
-0.315
-0.255
-0.245
-0.23
-0.25
-0.35
-0.275
-0.3
-0.325
-0.35
-0.295
-0.225
-0.255
-0.4
-0.325
-0.36
-0.32
-0.29
-0.235
-0.31
-0.42
-0.36
-0.32
-0.235
-0.285
-0.32
-0.345
-0.27
-0.215
-0.35
-0.36
-0.315
-0.31
-0.385
-0.32
-0.385
-0.35
-0.265
-0.32
-0.3
-0.3
-0.295
-0.27
-0.295
-0.3
-0.34
-0.335
-0.315
-0.335
-0.325
-0.315
-0.355
-0.33
-0.34
-0.225
-0.26
-0.34
-0.39
-0.27
-0.23
-0.285
-0.315
-0.32
-0.335
-0.315
-0.255
-0.35
-0.27
-0.3
-0.385
-0.29
-0.385
-0.33
-0.315
-0.32
-0.33
-0.325
-0.31
-0.33
-0.32
-0.245
-0.255
-0.31
-0.315
-0.27
-0.34
-0.265
-0.31
-0.375
-0.385
-0.295
-0.385
-0.26
-0.32
-0.34
-0.34
-0.305
-0.28
-0.32
-0.345
-0.335
-0.38
-0.225
-0.26
-0.285
-0.355
-0.415
-0.305
-0.25
-0.295
-0.36
-0.315
-0.35
-0.33
-0.345
-0.325
-0.365
-0.34
-0.325
-0.29
-0.25
-0.34
-0.33
-0.315
-0.325
-0.36
-0.34
-0.37
-0.385
-0.35
-0.27
-0.31
-0.305
-0.32
-0.35
-0.32
-0.36
-0.375
-0.31
-0.31
-0.31
-0.365
-0.38
-0.305
-0.29
-0.305
-0.265
-0.3
-0.365
-0.33
-0.33
-0.325
-0.335
-0.34
-0.305
-0.38
-0.345
-0.34
-0.305
-0.22
-0.33
-0.28
-0.29
-0.395
-0.305
-0.35
-0.345
-0.325
-0.315
-0.26
-0.295
-0.34
-0.315
-0.29
-0.285
-0.34
-0.26
-0.245
-0.33
-0.26
-0.235
-0.3
-0.305
-0.26
-0.27
-0.275
-0.3
-0.265
-0.235
-0.31
-0.305
-0.275
-0.25
-0.285
-0.325
-0.34
-0.335
-0.34
-0.325
-0.325
-0.385
-0.345
-0.325
-0.36
-0.39
-0.41
-0.325
-0.285
-0.4
-0.31
-0.27
-0.32
-0.37
-0.32
-0.35
-0.37
-0.345
-0.335
-0.36
-0.39
-0.405
-0.34
-0.33
-0.325
-0.25
-0.315
-0.365
-0.345
-0.425
-0.355
-0.37
-0.37
-0.35
-0.37
-0.38
-0.315
-0.33
-0.335
-0.375
-0.29
-0.415
-0.255
-0.21
-0.155
-0.21
-0.23
-0.14
-0.12
-0.13
-0.09
0.0
0.075
0.15
0.21
0.215
0.165
-0.01
-0.075
-0.38
-0.205
-0.15
-0.37
-0.505
-0.505
-0.505
-0.465
-0.515
-0.525
-0.41
-0.38
-0.35
-0.375
-0.38
-0.27
-0.345
-0.335
-0.31
-0.34
-0.39
-0.385
-0.375
-0.325
-0.35
-0.31
-0.28
-0.355
-0.365
-0.34
-0.3
-0.36
-0.385
-0.41
-0.32
-0.3
-0.295
-0.305
-0.335
-0.345
-0.31
-0.275
-0.275
-0.37
-0.335
-0.375
-0.265
-0.345
-0.36
-0.26
-0.29
-0.345
-0.285
-0.3
-0.325
-0.31
-0.325
-0.34
-0.255
-0.285
-0.36
-0.275
-0.255
-0.315
-0.295
-0.27
-0.18
-0.26
-0.305
-0.29
-0.35
-0.24
-0.23
-0.33
-0.27
-0.285
-0.295
-0.195
-0.32
-0.23
-0.145
-0.22
-0.225
-0.245
-0.18
-0.195
-0.235
-0.18
-0.135
-0.17
-0.15
-0.175
-0.145
-0.11
-0.155
-0.085
-0.055
-0.11
-0.125
-0.12
-0.07
-0.04
-0.08
-0.015
-0.04
-0.04
-0.015
-0.05
-0.025
0.025
0.045
0.025
0.045
0.025
-0.035
-0.02
-0.045
-0.025
-0.05
-0.07
0.0
-0.165
-0.235
-0.125
-0.095
-0.09
-0.18
-0.28
-0.255
-0.175
-0.22
-0.245
-0.255
-0.29
-0.185
-0.24
-0.265
-0.305
-0.36
-0.34
-0.31
-0.3
-0.265
-0.355
-0.395
-0.295
-0.285
-0.31
-0.29
-0.35
-0.355
-0.285
-0.285
-0.345
-0.32
-0.305
-0.31
-0.36
-0.395
-0.34
-0.345
-0.365
-0.315
-0.285
-0.305
-0.335
-0.375
-0.345
-0.345
-0.38
-0.325
-0.325
-0.29
-0.33
-0.275
-0.335
-0.345
-0.245
-0.33
-0.34
-0.39
-0.385
-0.33
-0.34
-0.32
-0.295
-0.35
-0.35
-0.32
-0.315
-0.295
-0.36
-0.385
-0.29
-0.32
-0.31
-0.23
-0.305
-0.295
-0.325
-0.37
-0.305
-0.32
-0.35
-0.31
-0.32
-0.295
-0.335
-0.3
-0.28
-0.305
-0.305
-0.365
-0.375
-0.315
-0.315
-0.32
-0.285
-0.315
-0.27
-0.32
-0.315
-0.315
-0.315
-0.305
-0.305
-0.295
-0.27
-0.305
-0.31
-0.325
-0.31
-0.285
-0.3
-0.35
-0.315
-0.31
-0.385
-0.285
-0.29
-0.245
-0.29
-0.325
-0.325
-0.305
-0.335
-0.32
-0.325
-0.295
-0.28
-0.285
-0.31
-0.28
-0.27
-0.32
-0.35
-0.325
-0.37
-0.41
-0.29
-0.18
-0.315
-0.335
-0.3
-0.275
-0.33
-0.315
-0.295
-0.23
-0.325
-0.345
-0.3
-0.27
-0.29
-0.37
-0.33
-0.335
-0.435
-0.32
-0.21
-0.31
-0.23
-0.26
-0.29
-0.16
-0.235
-0.225
-0.235
-0.295
-0.27
-0.295
-0.275
-0.3
-0.18
-0.17
-0.205
-0.21
-0.26
-0.145
-0.18
-0.225
-0.255
-0.255
-0.305
-0.235
-0.305
-0.295
-0.3
-0.34
-0.36
-0.33
-0.3
-0.235
-0.295
-0.37
-0.31
-0.265
-0.375
-0.305
-0.275
-0.305
-0.305
-0.355
-0.26
-0.275
-0.38
-0.355
-0.35
-0.34
-0.28
-0.3
-0.315
-0.31
-0.325
-0.33
-0.295
-0.265
-0.355
-0.315
-0.335
-0.33
-0.345
-0.265
-0.27
-0.305
-0.295
-0.28
-0.335
-0.34
-0.34
-0.315
-0.315
-0.26
-0.225
-0.23
-0.225
-0.175
-0.12
-0.1
-0.09
-0.115
-0.02
0.035
0.12
0.18
0.26
0.31
0.26
0.11
-0.035
-0.145
-0.22
-0.225
-0.39
-0.445
-0.47
-0.42
-0.425
-0.37
-0.345
-0.335
-0.29
-0.37
-0.315
-0.305
-0.275
-0.28
-0.355
-0.31
-0.24
-0.265
-0.255
-0.305
-0.32
-0.265
-0.225
-0.335
-0.35
-0.335
-0.345
-0.375
-0.34
-0.23
-0.265
-0.32
-0.26
-0.245
-0.32
-0.36
-0.335
-0.32
-0.27
-0.285
-0.36
-0.255
-0.24
-0.305
-0.32
-0.285
-0.285
-0.23
-0.275
-0.31
-0.285
-0.285
-0.275
-0.275
-0.29
-0.215
-0.255
-0.275
-0.275
-0.23
-0.27
-0.28
-0.295
-0.28
-0.28
-0.245
-0.26
-0.285
-0.275
-0.185
-0.235
-0.255
-0.255
-0.25
-0.265
-0.225
-0.23
-0.215
-0.2
-0.22
-0.225
-0.23
-0.18
-0.215
-0.16
-0.14
-0.26
-0.145
-0.145
-0.135
-0.195
-0.19
-0.11
-0.095
-0.155
-0.035
-0.06
-0.105
-0.05
-0.025
-0.1
-0.11
0.035
-0.005
-0.01
-0.045
-0.055
-0.09
-0.03
0.005
0.02
-0.085
-0.09
0.015
0.0
-0.08
-0.09
-0.18
-0.115
-0.135
-0.125
-0.11
-0.195
-0.2
-0.155
-0.28
-0.3
-0.265
-0.22
-0.25
-0.24
-0.315
-0.28
-0.225
-0.26
-0.29
-0.345
-0.295
-0.315
-0.29
-0.305
-0.285
-0.31
-0.3
-0.285
-0.32
-0.355
-0.32
-0.315
-0.325
-0.285
-0.37
-0.315
-0.26
-0.31
-0.295
-0.355
-0.32
-0.3
-0.31
-0.38
-0.265
-0.28
-0.305
-0.325
-0.305
-0.28
-0.335
-0.3
-0.24
-0.25
-0.27
-0.41
-0.395
-0.32
-0.275
-0.305
-0.35
-0.38
-0.295
-0.32
-0.375
-0.345
-0.28
-0.23
-0.225
-0.355
-0.44
-0.42
-0.39
-0.27
-0.275
-0.295
-0.26
-0.265
-0.33
-0.325
-0.295
-0.3
-0.275
-0.295
-0.375
-0.315
-0.255
-0.275
-0.36
-0.3
-0.305
-0.29
-0.37
-0.365
-0.28
-0.275
-0.325
-0.32
-0.3
-0.285
-0.28
-0.29
-0.25
-0.245
-0.29
-0.29
-0.3
-0.34
-0.27
-0.335
-0.305
-0.38
-0.3
-0.305
-0.255
-0.36
-0.365
-0.365
-0.36
-0.29
-0.325
-0.345
-0.29
-0.23
-0.255
-0.305
-0.3
-0.305
-0.295
-0.315
-0.315
-0.34
-0.4
-0.315
-0.295
-0.295
-0.3
-0.34
-0.37
-0.33
-0.26
-0.28
-0.335
-0.295
-0.23
-0.33
-0.335
-0.26
-0.335
-0.33
-0.275
-0.28
-0.335
-0.345
-0.37
-0.345
-0.28
-0.285
-0.285
-0.21
-0.345
-0.34
-0.265
-0.27
-0.28
-0.325
-0.365
-0.305
-0.3
-0.285
-0.355
-0.27
-0.305
-0.305
-0.285
-0.275
-0.29
-0.22
-0.275
-0.27
-0.29
-0.32
-0.36
-0.295
-0.225
-0.235
-0.255
-0.28
-0.21
-0.275
-0.22
-0.295
-0.28
-0.18
-0.17
-0.26
-0.19
-0.21
-0.295
-0.245
-0.245
-0.28
-0.295
-0.265
-0.26
-0.31
-0.33
-0.285
-0.335
-0.305
-0.255
-0.34
-0.3
-0.185
-0.2
-0.275
-0.36
-0.35
-0.305
-0.345
-0.37
-0.3
-0.365
-0.335
-0.26
-0.315
-0.255
-0.3
-0.305
-0.32
-0.31
-0.37
-0.32
-0.335
-0.29
-0.33
-0.315
-0.335
-0.27
-0.3
-0.3
-0.275
-0.36
-0.315
-0.315
-0.35
-0.215
-0.26
-0.315
-0.235
-0.275
-0.345
-0.23
-0.11
-0.135
-0.145
-0.135
-0.125
-0.035
-0.035
0.075
0.195
0.22
0.31
0.275
0.265
0.16
0.045
-0.075
-0.14
-0.255
-0.38
-0.435
-0.375
-0.39
-0.395
-0.4
-0.36
-0.305
-0.29
-0.34
-0.415
-0.325
-0.29
-0.33
-0.28
-0.295
-0.325
-0.37
-0.205
-0.23
-0.305
-0.29
-0.29
-0.29
-0.35
-0.33
-0.34
-0.325
-0.275
-0.295
-0.215
-0.28
-0.26
-0.275
-0.26
-0.3
-0.3
-0.32
-0.28
-0.285
-0.265
-0.27
-0.275
-0.29
-0.305
-0.29
-0.29
-0.2
-0.22
-0.31
-0.3
-0.27
-0.21
-0.27
-0.24
-0.265
-0.29
-0.29
-0.23
-0.255
-0.32
-0.27
-0.305
-0.29
-0.26
-0.19
-0.29
-0.27
-0.195
-0.215
-0.25
-0.195
-0.2
-0.255
-0.195
-0.255
-0.23
-0.22
-0.205
-0.25
-0.125
-0.195
-0.25
-0.17
-0.155
-0.105
-0.15
-0.14
-0.085
-0.145
-0.175
-0.22
-0.075
-0.085
-0.11
-0.055
-0.075
-0.06
0.0
-0.03
0.0
-0.025
-0.03
-0.085
-0.01
-0.01
-0.03
-0.01
-0.06
-0.025
-0.06
-0.015
-0.045
-0.03
-0.07
-0.005
-0.08
-0.145
-0.12
-0.14
-0.11
-0.145
-0.175
-0.115
-0.175
-0.21
-0.21
-0.25
-0.235
-0.2
-0.245
-0.275
-0.255
-0.255
-0.255
-0.275
-0.27
-0.295
-0.225
-0.35
-0.34
-0.3
-0.23
-0.29
-0.265
-0.27
-0.285
-0.25
-0.29
-0.295
-0.35
-0.31
-0.42
-0.3
-0.245
-0.3
-0.32
-0.225
-0.23
-0.265
-0.33
-0.4
-0.29
-0.32
-0.31
-0.34
-0.31
-0.265
-0.225
-0.31
-0.295
-0.32
-0.33
-0.265
-0.25
-0.29
-0.365
-0.31
-0.31
-0.29
-0.265
-0.25
-0.33
-0.25
-0.27
-0.32
-0.275
-0.285
-0.335
-0.365
-0.31
-0.26
-0.25
-0.295
-0.25
-0.31
-0.305
-0.33
-0.185
-0.3
-0.33
-0.26
-0.28
-0.31
-0.175
-0.295
-0.305
-0.305
-0.28
-0.285
-0.2
-0.275
-0.32
-0.27
-0.225
-0.305
-0.28
-0.3
-0.335
-0.315
-0.255
-0.235
-0.31
-0.315
-0.235
-0.24
-0.325
-0.27
-0.275
-0.28
-0.33
-0.32
-0.265
-0.265
-0.305
-0.315
-0.375
-0.28
-0.245
-0.27
-0.255
-0.37
-0.275
-0.21
-0.29
-0.315
-0.3
-0.21
-0.235
-0.385
-0.305
-0.22
-0.29
-0.25
-0.225
-0.25
-0.295
-0.235
-0.285
-0.345
-0.29
-0.29
-0.305
-0.28
-0.3
-0.31
-0.3
-0.24
-0.28
-0.39
-0.29
-0.305
-0.32
-0.245
-0.275
-0.295
-0.205
-0.225
-0.27
-0.355
-0.29
-0.3
-0.36
-0.265
-0.19
-0.25
-0.295
-0.235
-0.325
-0.29
-0.31
-0.265
-0.29
-0.285
-0.34
-0.365
-0.275
-0.27
-0.22
-0.255
-0.285
-0.26
-0.365
-0.275
-0.285
-0.245
-0.3
-0.22
-0.195
-0.27
-0.255
-0.225
-0.205
-0.27
-0.315
-0.265
-0.23
-0.245
-0.235
-0.18
-0.16
-0.225
-0.265
-0.2
-0.195
-0.2
-0.185
-0.18
-0.245
-0.25
-0.15
-0.195
-0.215
-0.29
-0.295
-0.365
-0.27
-0.265
-0.355
-0.305
-0.235
-0.325
-0.255
-0.27
-0.27
-0.235
-0.295
-0.285
-0.3
-0.28
-0.22
-0.23
-0.28
-0.335
-0.335
-0.375
-0.415
-0.315
-0.32
-0.3
-0.29
-0.27
-0.28
-0.315
-0.335
-0.265
-0.315
-0.305
-0.17
-0.29
-0.33
-0.37
-0.31
-0.21
-0.39
-0.235
-0.2
-0.265
-0.295
-0.295
-0.195
-0.19
-0.125
-0.165
-0.16
-0.13
-0.13
-0.09
-0.07
-0.025
0.08
0.22
0.285
0.3
0.275
0.235
0.185
0.04
-0.025
-0.195
-0.225
-0.335
-0.37
-0.46
-0.405
-0.4
-0.45
-0.45
-0.405
-0.3
-0.325
-0.25
-0.25
-0.26
-0.265
-0.255
-0.265
-0.25
-0.31
-0.32
-0.295
-0.29
-0.26
-0.385
-0.34
-0.32
-0.225
-0.305
-0.255
-0.295
-0.285
-0.325
-0.37
-0.25
-0.235
-0.215
-0.245
-0.285
-0.34
-0.335
-0.295
-0.295
-0.385
-0.26
-0.27
-0.29
-0.3
-0.295
-0.28
-0.38
-0.285
-0.265
-0.28
-0.335
-0.32
-0.32
-0.29
-0.3
-0.305
-0.215
-0.285
-0.325
-0.245
-0.29
-0.33
-0.285
-0.375
-0.31
-0.305
-0.34
-0.3
-0.265
-0.325
-0.245
-0.34
-0.275
-0.345
-0.435
-0.3
-0.215
-0.265
-0.29
-0.225
-0.255
-0.265
-0.3
-0.32
-0.29
-0.22
-0.155
-0.29
-0.225
-0.23
-0.22
-0.275
-0.305
-0.225
-0.175
-0.15
-0.26
-0.26
-0.19
-0.205
-0.185
-0.155
-0.21
-0.215
-0.15
-0.1
-0.16
-0.2
-0.14
-0.18
-0.165
-0.18
-0.205
-0.275
-0.31
-0.27
-0.26
-0.24
-0.385
-0.36
-0.365
-0.345
-0.385
-0.385
-0.41
-0.455
-0.425
-0.34
-0.31
-0.465
-0.455
-0.47
-0.53
-0.53
-0.44
-0.535
-0.5
-0.55
-0.59
-0.515
-0.5
-0.545
-0.495
-0.515
-0.55
-0.59
-0.46
-0.555
-0.565
-0.495
-0.57
-0.57
-0.505
-0.505
-0.505
-0.525
-0.54
-0.63
-0.635
-0.565
-0.6
-0.645
-0.44
-0.545
-0.65
-0.525
-0.52
-0.635
-0.615
-0.535
-0.575
-0.575
-0.59
-0.6
-0.63
-0.57
-0.665
-0.56
-0.58
-0.53
-0.55
-0.57
-0.585
-0.62
-0.6
-0.715
-0.55
-0.57
-0.615
-0.57
-0.615
-0.615
-0.56
-0.57
-0.695
-0.61
-0.635
-0.675
-0.645
-0.595
-0.645
-0.615
-0.72
-0.655
-0.66
-0.545
-0.59
-0.64
-0.58
-0.61
-0.595
-0.56
-0.635
-0.66
-0.635
-0.555
-0.545
-0.61
-0.62
-0.66
-0.675
-0.685
-0.46
-0.59
-0.655
-0.68
-0.645
-0.64
-0.66
-0.63
-0.63
-0.59
-0.61
-0.64
-0.665
-0.615
-0.68
-0.645
-0.6
-0.595
-0.635
-0.58
-0.695
-0.72
-0.645
-0.56
-0.615
-0.585
-0.645
-0.62
-0.595
-0.555
-0.605
-0.665
-0.635
-0.635
-0.615
-0.635
-0.575
-0.565
-0.65
-0.575
-0.675
-0.58
-0.585
-0.615
-0.525
-0.55
-0.57
-0.625
-0.57
-0.545
-0.545
-0.565
-0.59
-0.615
-0.52
-0.515
-0.605
-0.585
-0.515
-0.49
-0.57
-0.62
-0.515
-0.495
-0.53
-0.555
-0.5
-0.405
-0.525
-0.59
-0.63
-0.525
-0.47
-0.57
-0.485
-0.485
-0.54
-0.59
-0.55
-0.58
-0.54
-0.575
-0.56
-0.545
-0.645
-0.585
-0.555
-0.595
-0.58
-0.595
-0.575
-0.6
-0.535
-0.53
-0.56
-0.67
-0.525
-0.6
-0.595
-0.545
-0.545
-0.53
-0.53
-0.635
-0.565
-0.56
-0.595
-0.545
-0.535
-0.54
-0.545
-0.54
-0.565
-0.53
-0.6
-0.625
-0.52
-0.495
-0.505
-0.535
-0.46
-0.505
-0.515
-0.445
-0.45
-0.39
-0.395
-0.34
-0.355
-0.4
-0.32
-0.375
-0.34
-0.28
-0.025
0.035
0.03
0.075
0.045
-0.12
-0.175
-0.25
-0.355
-0.42
-0.555
-0.69
-0.665
-0.745
-0.72
-0.57
-0.6
-0.545
-0.505
-0.545
-0.5
-0.435
-0.46
-0.485
-0.54
-0.525
-0.55
-0.42
-0.415
-0.49
-0.415
-0.43
-0.485
-0.48
-0.445
-0.4
-0.41
-0.46
-0.46
-0.435
-0.435
-0.46
-0.425
-0.43
-0.46
-0.41
-0.46
-0.41
-0.435
-0.465
-0.425
-0.33
-0.465
-0.425
-0.375
-0.46
-0.445
-0.385
-0.375
-0.4
-0.365
-0.39
-0.395
-0.385
-0.335
-0.375
-0.405
-0.435
-0.36
-0.405
-0.39
-0.31
-0.355
-0.485
-0.36
-0.27
-0.36
-0.345
-0.375
-0.33
-0.325
-0.305
-0.335
-0.345
-0.295
-0.435
-0.27
-0.215
-0.25
-0.23
-0.285
-0.28
-0.245
-0.235
-0.26
-0.19
-0.165
-0.3
-0.24
-0.11
-0.19
-0.215
-0.16
-0.095
-0.08
-0.075
-0.15
-0.225
-0.245
0.035
-0.025
0.005
0.0
-0.07
-0.06
-0.025
0.02
0.0
-0.07
-0.025
-0.025
-0.06
0.0
-0.07
-0.13
-0.07
-0.06
-0.115
-0.105
-0.16
-0.135
-0.16
-0.205
-0.16
-0.185
-0.24
-0.265
-0.22
-0.32
-0.275
-0.275
-0.24
-0.26
-0.28
-0.275
-0.275
-0.29
-0.34
-0.345
-0.34
-0.25
-0.28
-0.3
-0.345
-0.305
-0.33
-0.325
-0.275
-0.32
-0.33
-0.275
-0.31
-0.33
-0.32
-0.31
-0.255
-0.28
-0.31
-0.32
-0.295
-0.31
-0.255
-0.305
-0.28
-0.3
-0.25
-0.26
-0.31
-0.35
-0.34
-0.295
-0.325
-0.26
-0.295
-0.355
-0.325
-0.295
-0.25
-0.285
-0.415
-0.25
-0.2
-0.26
-0.28
-0.335
-0.265
-0.29
-0.345
-0.28
-0.245
-0.245
-0.255
-0.265
-0.27
-0.25
-0.255
-0.275
-0.26
-0.255
-0.24
-0.235
-0.265
-0.25
-0.255
-0.26
-0.285
-0.29
-0.225
-0.27
-0.265
-0.175
-0.28
-0.28
-0.225
-0.255
-0.255
-0.205
-0.21
-0.24
-0.205
-0.21
-0.265
-0.215
-0.19
-0.25
-0.26
-0.235
-0.34
-0.25
-0.235
-0.25
-0.21
-0.17
-0.105
-0.23
-0.21
-0.275
-0.26
-0.28
-0.27
-0.16
-0.21
-0.245
-0.22
-0.275
-0.27
-0.205
-0.255
-0.215
-0.18
-0.245
-0.3
-0.21
-0.175
-0.205
-0.275
-0.21
-0.21
-0.215
-0.135
-0.185
-0.23
-0.185
-0.225
-0.305
-0.26
-0.245
-0.335
-0.24
-0.175
-0.18
-0.21
-0.2
-0.2
-0.16
-0.185
-0.23
-0.29
-0.295
-0.16
-0.165
-0.14
-0.165
-0.255
-0.24
-0.24
-0.175
-0.18
-0.23
-0.18
-0.14
-0.135
-0.11
-0.12
-0.135
-0.17
-0.11
-0.145
-0.21
-0.185
-0.18
-0.135
-0.095
-0.165
-0.12
-0.165
-0.145
-0.08
-0.095
-0.12
-0.155
-0.195
-0.255
-0.16
-0.155
-0.125
-0.24
-0.205
-0.145
-0.195
-0.22
-0.215
-0.265
-0.24
-0.22
-0.2
-0.155
-0.175
-0.21
-0.245
-0.215
-0.195
-0.23
-0.225
-0.24
-0.15
-0.19
-0.255
-0.23
-0.205
-0.21
-0.185
-0.225
-0.29
-0.21
-0.07
-0.125
-0.08
-0.115
-0.23
-0.265
-0.225
-0.175
-0.205
-0.175
-0.22
-0.25
-0.175
-0.145
-0.135
-0.145
-0.115
-0.04
0.01
0.025
-0.07
0.005
0.02
0.065
0.09
0.085
0.245
0.34
0.35
0.405
0.39
0.295
0.21
0.03
0.07
-0.03
-0.25
-0.375
-0.345
-0.285
-0.26
-0.215
-0.23
-0.21
-0.195
-0.17
-0.2
-0.16
-0.14
-0.045
-0.125
-0.215
-0.265
-0.2
-0.16
-0.18
-0.19
-0.19
-0.19
-0.205
-0.16
-0.185
-0.185
-0.195
-0.095
-0.145
-0.135
-0.185
-0.105
-0.115
-0.11
-0.135
-0.145
-0.13
-0.135
-0.195
-0.22
-0.14
-0.145
-0.185
-0.145
-0.105
-0.145
-0.09
-0.145
-0.16
-0.16
-0.185
-0.16
-0.08
-0.025
-0.135
-0.145
-0.07
-0.065
-0.145
-0.125
-0.125
-0.1
-0.135
-0.13
-0.15
-0.135
-0.115
-0.115
-0.13
-0.18
-0.045
0.035
0.01
-0.16
-0.115
-0.105
-0.02
-0.01
-0.115
-0.045
-0.03
-0.055
-0.08
-0.04
-0.075
-0.03
-0.015
0.015
0.09
0.095
0.035
0.07
0.045
0.05
0.035
0.085
0.065
0.095
0.05
0.16
0.085
0.095
0.085
0.09
0.16
0.14
0.125
0.13
0.19
0.09
0.065
0.06
0.07
0.07
0.085
0.06
0.115
0.12
0.05
0.03
0.005
0.0
-0.015
0.005
0.01
-0.03
-0.09
-0.105
-0.035
-0.09
-0.145
-0.125
-0.16
-0.16
-0.11
-0.095
-0.15
-0.07
-0.07
-0.14
-0.135
-0.14
-0.135
-0.135
-0.165
-0.16
-0.14
-0.125
-0.11
-0.135
-0.215
-0.225
-0.3
-0.045
-0.09
-0.13
-0.14
-0.06
-0.135
-0.11
-0.155
-0.155
-0.135
-0.155
-0.165
-0.19
-0.19
-0.115
-0.115
-0.12
-0.15
-0.12
-0.115
-0.205
-0.08
-0.17
-0.185
-0.16
-0.105
-0.14
-0.175
-0.135
-0.12
-0.105
-0.09
-0.16
-0.1
-0.085
-0.1
-0.195
-0.22
-0.215
-0.145
-0.22
-0.125
-0.08
-0.085
-0.14
-0.21
-0.085
-0.15
-0.09
-0.055
-0.12
-0.13
-0.06
0.02
-0.095
-0.16
-0.165
-0.165
-0.16
-0.165
-0.165
-0.165
-0.19
-0.145
-0.115
-0.08
-0.15
-0.13
-0.12
-0.14
-0.135
-0.11
-0.06
-0.1
-0.19
-0.1
-0.095
-0.155
-0.075
-0.145
-0.205
-0.185
-0.14
-0.12
-0.125
-0.1
-0.105
-0.155
-0.195
-0.16
-0.165
-0.01
-0.04
-0.12
-0.21
-0.1
-0.15
-0.19
-0.125
-0.105
-0.135
-0.145
-0.135
-0.17
-0.145
-0.075
-0.085
-0.14
-0.105
-0.125
-0.125
-0.13
-0.155
-0.18
-0.16
-0.145
-0.14
-0.16
-0.12
-0.095
-0.095
-0.14
-0.075
-0.095
-0.095
-0.215
-0.19
-0.1
-0.11
-0.175
-0.06
-0.095
-0.13
-0.16
-0.16
-0.14
-0.16
-0.115
-0.2
-0.215
-0.065
-0.095
-0.11
-0.125
-0.165
-0.13
-0.13
-0.12
-0.17
-0.13
-0.075
-0.145
-0.075
-0.065
-0.09
-0.13
-0.09
-0.105
-0.055
-0.07
-0.09
-0.04
-0.065
-0.17
-0.085
-0.055
-0.08
-0.13
-0.055
-0.065
-0.015
0.01
-0.015
-0.06
-0.095
-0.015
0.01
-0.045
-0.12
-0.095
-0.01
-0.15
-0.13
-0.18
-0.165
-0.17
-0.155
-0.08
-0.145
-0.12
-0.11
-0.1
-0.095
-0.14
-0.075
-0.17
-0.15
-0.155
-0.155
-0.1
-0.115
-0.185
-0.25
-0.125
-0.155
-0.125
-0.18
-0.145
-0.1
-0.17
-0.13
-0.195
-0.17
-0.125
-0.125
-0.19
-0.11
-0.13
-0.115
-0.09
-0.105
-0.17
-0.17
-0.18
-0.24
-0.14
-0.065
-0.09
-0.12
-0.08
-0.025
-0.04
0.08
0.05
0.05
0.145
0.185
0.105
0.235
0.365
0.41
0.37
0.48
0.44
0.315
0.22
0.085
0.01
-0.11
-0.195
-0.23
-0.2
-0.275
-0.29
-0.185
-0.195
-0.195
-0.14
-0.095
-0.165
-0.185
-0.12
-0.12
-0.1
-0.095
-0.14
-0.15
-0.16
-0.09
-0.125
-0.095
-0.13
-0.14
-0.12
-0.06
-0.065
-0.095
-0.11
-0.07
-0.11
-0.17
-0.05
-0.09
-0.07
-0.015
-0.115
-0.1
-0.06
-0.085
-0.18
-0.155
-0.165
-0.125
-0.095
-0.065
-0.095
-0.135
-0.095
-0.05
-0.13
-0.065
-0.09
-0.125
-0.185
-0.14
-0.025
-0.06
-0.13
-0.075
-0.07
-0.04
-0.09
-0.1
-0.055
-0.085
-0.09
-0.13
-0.08
-0.2
-0.085
-0.01
-0.09
-0.07
-0.045
-0.04
-0.065
-0.135
0.025
0.02
0.005
0.02
0.03
0.025
0.03
0.02
0.04
-0.05
-0.115
0.005
0.085
0.08
0.095
0.045
0.13
0.11
0.085
0.075
0.105
0.15
0.16
0.16
0.19
0.165
0.11
0.115
0.195
0.11
0.095
0.15
0.09
0.07
0.2
0.135
0.095
0.05
0.01
0.035
0.125
0.145
0.065
0.045
-0.005
0.03
-0.02
-0.095
-0.085
-0.045
-0.03
-0.09
-0.1
-0.1
-0.13
-0.13
-0.09
-0.14
-0.07
-0.045
-0.08
-0.12
-0.135
-0.1
-0.17
-0.155
-0.14
-0.11
-0.13
-0.12
-0.195
-0.175
-0.23
-0.125
-0.01
-0.095
-0.1
-0.135
-0.17
-0.12
-0.185
-0.06
-0.12
-0.155
-0.115
-0.185
-0.115
-0.15
-0.065
-0.125
-0.2
-0.13
-0.09
-0.045
-0.12
-0.135
-0.13
-0.165
-0.17
-0.04
-0.135
-0.19
-0.15
-0.145
-0.13
-0.04
-0.065
-0.065
-0.155
-0.16
-0.115
-0.145
-0.125
-0.135
-0.115
-0.19
-0.105
-0.085
-0.07
-0.075
-0.08
-0.17
-0.245
-0.145
-0.07
-0.105
-0.205
-0.14
-0.055
-0.13
-0.095
-0.115
-0.085
-0.1
-0.13
-0.12
-0.13
-0.07
-0.115
-0.135
-0.115
-0.02
-0.045
-0.18
-0.15
-0.12
-0.095
-0.14
-0.14
-0.11
-0.095
-0.075
-0.07
-0.075
-0.17
-0.14
-0.13
-0.06
-0.19
-0.245
-0.155
-0.145
-0.135
-0.05
0.01
-0.03
-0.11
-0.155
-0.165
-0.1
-0.035
-0.125
-0.105
-0.11
-0.14
-0.135
-0.09
-0.045
-0.075
-0.115
-0.155
-0.16
-0.075
-0.105
-0.145
-0.17
-0.15
-0.075
-0.105
-0.16
-0.12
-0.16
-0.12
-0.085
-0.13
-0.105
-0.035
-0.13
-0.15
-0.135
-0.045
-0.105
-0.075
-0.15
-0.165
-0.075
-0.11
-0.08
-0.18
-0.125
-0.105
-0.195
-0.12
-0.01
-0.125
-0.11
-0.12
-0.155
-0.09
-0.065
-0.13
-0.135
-0.145
-0.105
-0.065
-0.17
-0.115
-0.16
-0.1
-0.095
-0.07
-0.085
-0.07
-0.09
-0.12
-0.06
-0.095
-0.05
-0.03
-0.105
-0.075
-0.025
-0.05
-0.11
-0.065
0.075
0.0
-0.12
-0.04
-0.04
-0.03
-0.12
-0.145
-0.12
0.08
-0.02
-0.12
-0.13
-0.11
-0.095
-0.175
-0.175
-0.095
-0.12
-0.07
-0.145
-0.13
-0.095
-0.27
-0.155
-0.06
-0.1
-0.15
-0.125
-0.19
-0.125
-0.105
-0.095
-0.105
-0.105
-0.145
-0.085
-0.11
-0.09
-0.11
-0.125
-0.195
-0.14
-0.13
-0.12
-0.16
-0.15
-0.105
-0.145
-0.155
-0.135
-0.23
-0.145
-0.095
-0.145
-0.035
-0.04
-0.095
-0.115
-0.105
-0.065
-0.015
-0.015
0.005
0.045
-0.005
0.055
0.11
0.19
0.265
0.34
0.4
0.345
0.425
0.355
0.24
0.15
0.035
0.01
-0.07
-0.265
-0.345
-0.37
-0.38
-0.335
-0.38
-0.26
-0.17
-0.2
-0.135
-0.165
-0.11
-0.135
-0.11
-0.09
-0.14
-0.105
-0.06
-0.15
-0.175
-0.235
-0.22
-0.095
-0.095
-0.14
-0.13
-0.135
-0.1
-0.155
-0.17
-0.195
-0.155
-0.115
-0.06
-0.12
-0.165
-0.165
-0.135
-0.175
-0.22
-0.16
-0.13
-0.15
-0.11
-0.135
-0.195
-0.105
-0.14
-0.115
-0.185
-0.225
-0.215
-0.185
-0.14
-0.085
-0.03
-0.065
-0.145
-0.185
-0.195
-0.175
-0.165
-0.12
-0.05
-0.125
-0.17
-0.15
-0.13
-0.14
-0.16
-0.145
-0.13
-0.2
-0.14
-0.03
-0.085
-0.18
-0.065
-0.065
-0.15
-0.13
-0.075
-0.145
-0.14
-0.03
-0.03
-0.045
-0.01
-0.065
-0.135
-0.025
0.02
0.02
-0.05
0.075
-0.045
0.08
0.11
0.065
0.11
0.06
-0.06
0.09
0.155
0.065
0.085
0.085
0.065
0.13
0.15
0.055
0.085
0.05
0.06
0.075
-0.01
-0.05
0.03
-0.045
-0.065
-0.055
-0.15
-0.065
-0.08
-0.08
-0.035
-0.105
-0.215
-0.175
-0.11
-0.295
-0.225
-0.115
-0.205
-0.2
-0.185
-0.185
-0.255
-0.24
-0.29
-0.315
-0.28
-0.21
-0.23
-0.22
-0.195
-0.295
-0.255
-0.265
-0.225
-0.265
-0.295
-0.215
-0.25
-0.155
-0.205
-0.24
-0.265
-0.235
-0.295
-0.26
-0.25
-0.205
-0.28
-0.245
-0.23
-0.275
-0.36
-0.255
-0.25
-0.225
-0.225
-0.19
-0.265
-0.27
-0.23
-0.24
-0.265
-0.23
-0.28
-0.265
-0.205
-0.27
-0.295
-0.265
-0.265
-0.32
-0.255
-0.205
-0.27
-0.285
-0.27
-0.18
-0.27
-0.275
-0.19
-0.235
-0.22
-0.195
-0.3
-0.24
-0.26
-0.205
-0.25
-0.215
-0.225
-0.23
-0.285
-0.22
-0.21
-0.18
-0.225
-0.215
-0.175
-0.195
-0.235
-0.275
-0.225
-0.21
-0.235
-0.225
-0.245
-0.235
-0.24
-0.25
-0.22
-0.205
-0.245
-0.24
-0.255
-0.225
-0.23
-0.185
-0.125
-0.215
-0.26
-0.24
-0.235
-0.24
-0.285
-0.18
-0.275
-0.295
-0.22
-0.135
-0.215
-0.24
-0.185
-0.36
-0.26
-0.175
-0.25
-0.24
-0.23
-0.195
-0.25
-0.27
-0.255
-0.25
-0.215
-0.265
-0.27
-0.23
-0.2
-0.23
-0.28
-0.265
-0.25
-0.185
-0.245
-0.275
-0.21
-0.205
-0.265
-0.235
-0.225
-0.235
-0.24
-0.23
-0.29
-0.21
-0.165
-0.24
-0.23
-0.255
-0.27
-0.27
-0.205
-0.175
-0.155
-0.23
-0.195
-0.21
-0.195
-0.22
-0.215
-0.195
-0.16
-0.22
-0.23
-0.145
-0.195
-0.275
-0.185
-0.13
-0.145
-0.17
-0.225
-0.17
-0.16
-0.11
-0.18
-0.25
-0.165
-0.15
-0.26
-0.245
-0.25
-0.24
-0.255
-0.225
-0.28
-0.23
-0.23
-0.175
-0.205
-0.27
-0.245
-0.26
-0.28
-0.275
-0.23
-0.275
-0.265
-0.26
-0.305
-0.375
-0.3
-0.195
-0.235
-0.255
-0.27
-0.275
-0.23
-0.245
-0.235
-0.255
-0.255
-0.36
-0.3
-0.3
-0.23
-0.185
-0.18
-0.225
-0.205
-0.275
-0.26
-0.21
-0.245
-0.26
-0.305
-0.26
-0.195
-0.175
-0.055
-0.08
-0.105
-0.1
-0.04
0.0
-0.01
0.03
0.12
0.175
0.315
0.295
0.31
0.2
0.15
0.095
-0.07
-0.095
-0.21
-0.33
-0.375
-0.34
-0.35
-0.405
-0.325
-0.325
-0.31
-0.285
-0.3
-0.275
-0.245
-0.21
-0.155
-0.19
-0.19
-0.225
-0.21
-0.245
-0.28
-0.285
-0.28
-0.225
-0.165
-0.225
-0.23
-0.255
-0.255
-0.185
-0.21
-0.23
-0.25
-0.225
-0.195
-0.165
-0.145
-0.205
-0.24
-0.18
-0.21
-0.255
-0.155
-0.18
-0.23
-0.36
-0.15
-0.1
-0.25
-0.155
-0.14
-0.185
-0.245
-0.205
-0.19
-0.2
-0.205
-0.19
-0.215
-0.125
-0.125
-0.155
-0.21
-0.235
-0.24
-0.175
-0.18
-0.165
-0.14
-0.22
-0.18
-0.175
-0.115
-0.125
-0.175
-0.11
-0.195
-0.155
-0.13
-0.075
-0.11
-0.115
-0.205
-0.07
-0.06
-0.135
-0.07
-0.085
-0.175
-0.16
-0.075
0.025
0.005
0.035
-0.015
0.01
0.0
0.09
-0.02
-0.055
-0.05
0.01
0.07
-0.04
0.085
0.095
0.03
0.01
0.13
0.14
0.085
0.045
0.07
0.065
0.0
0.075
0.095
-0.03
0.0
-0.025
-0.09
-0.03
-0.015
-0.055
-0.06
-0.09
-0.1
-0.07
-0.215
-0.18
-0.175
-0.16
-0.135
-0.19
-0.15
-0.175
-0.215
-0.305
-0.225
-0.16
-0.12
-0.2
-0.365
-0.265
-0.27
-0.23
-0.155
-0.18
-0.275
-0.23
-0.23
-0.235
-0.22
-0.21
-0.235
-0.215
-0.2
-0.215
-0.215
-0.27
-0.305
-0.145
-0.15
-0.255
-0.28
-0.24
-0.19
-0.205
-0.185
-0.165
-0.165
-0.29
-0.265
-0.22
-0.245
-0.325
-0.285
-0.225
-0.19
-0.215
-0.185
-0.185
-0.265
-0.245
-0.19
-0.26
-0.17
-0.18
-0.22
-0.23
-0.27
-0.225
-0.275
-0.27
-0.175
-0.19
-0.255
-0.185
-0.205
-0.205
-0.265
-0.215
-0.18
-0.205
-0.18
-0.235
-0.195
-0.205
-0.21
-0.28
-0.235
-0.215
-0.2
-0.255
-0.24
-0.235
-0.24
-0.255
-0.195
-0.23
-0.28
-0.27
-0.205
-0.1
-0.17
-0.205
-0.22
-0.19
-0.215
-0.225
-0.25
-0.24
-0.17
-0.275
-0.265
-0.265
-0.305
-0.23
-0.215
-0.335
-0.375
-0.37
-0.43
-0.49
-0.5
-0.62
-0.805
-1.055
-1.305
-1.57
-1.85
-1.945
-2.065
-2.03
-1.93
-1.87
-1.755
-1.79
-1.64
-1.565
-1.505
-1.365
-1.205
-1.19
-1.075
-1.035
-0.995
-1.035
-0.91
-0.94
-0.855
-0.805
-0.86
-0.84
-0.8
-0.795
-0.805
-0.74
-0.78
-0.8
-0.69
-0.7
-0.695
-0.65
-0.685
-0.615
-0.65
-0.6
-0.555
-0.625
-0.65
-0.625
-0.6
-0.62
-0.63
-0.68
-0.64
-0.54
-0.615
-0.615
-0.6
-0.545
-0.51
-0.525
-0.465
-0.505
-0.495
-0.57
-0.56
-0.515
-0.55
-0.515
-0.44
-0.455
-0.51
-0.51
-0.555
-0.45
-0.395
-0.51
-0.47
-0.48
-0.515
-0.42
-0.47
-0.46
-0.435
-0.46
-0.43
-0.44
-0.465
-0.405
-0.435
-0.425
-0.44
-0.36
-0.34
-0.42
-0.35
-0.41
-0.47
-0.42
-0.375
-0.42
-0.4
-0.33
-0.39
-0.35
-0.33
-0.38
-0.345
-0.36
-0.34
-0.375
-0.365
-0.29
-0.285
-0.335
-0.275
-0.275
-0.325
-0.275
-0.285
-0.3
-0.28
-0.21
-0.305
-0.345
-0.325
-0.34
-0.425
-0.42
-0.375
-0.315
-0.335
-0.365
-0.38
-0.37
-0.305
-0.29
-0.3
-0.44
-0.305
-0.285
-0.365
-0.335
-0.37
-0.34
-0.345
-0.345
-0.35
-0.275
-0.24
-0.465
-0.46
-0.31
-0.39
-0.35
-0.3
-0.37
-0.33
-0.33
-0.34
-0.31
-0.33
-0.325
-0.37
-0.235
-0.33
-0.305
-0.345
-0.315
-0.335
-0.38
-0.355
-0.27
-0.15
-0.175
-0.215
-0.17
-0.18
-0.175
-0.07
-0.025
-0.09
-0.07
-0.05
0.12
0.25
0.245
0.295
0.335
0.07
0.025
-0.065
-0.135
-0.255
-0.315
-0.425
-0.415
-0.445
-0.455
-0.375
-0.385
-0.31
-0.325
-0.35
-0.245
-0.24
-0.235
-0.32
-0.335
-0.32
-0.28
-0.27
-0.32
-0.22
-0.28
-0.31
-0.285
-0.265
-0.205
-0.235
-0.25
-0.34
-0.3
-0.245
-0.21
-0.32
-0.325
-0.245
-0.25
-0.28
-0.235
-0.295
-0.27
-0.2
-0.22
-0.115
-0.295
-0.215
-0.28
-0.275
-0.21
-0.225
-0.28
-0.35
-0.23
-0.23
-0.265
-0.235
-0.265
-0.275
-0.255
-0.22
-0.17
-0.255
-0.24
-0.27
-0.255
-0.2
-0.195
-0.225
-0.22
-0.145
-0.175
-0.21
-0.2
-0.175
-0.24
-0.185
-0.205
-0.225
-0.21
-0.15
-0.13
-0.18
-0.185
-0.125
-0.18
-0.2
-0.155
-0.14
-0.09
-0.15
-0.12
-0.055
-0.01
-0.07
-0.125
-0.155
-0.1
-0.045
-0.085
-0.045
0.035
0.02
0.02
0.0
-0.025
-0.035
-0.015
0.02
0.03
0.015
0.03
0.075
0.045
-0.04
-0.045
-0.025
0.025
0.015
-0.055
0.0
-0.01
-0.135
0.005
-0.045
-0.07
-0.065
-0.09
-0.15
-0.235
-0.16
-0.17
-0.185
-0.23
-0.125
-0.175
-0.195
-0.25
-0.215
-0.19
-0.23
-0.285
-0.275
-0.17
-0.205
-0.22
-0.225
-0.175
-0.2
-0.27
-0.24
-0.285
-0.235
-0.285
-0.28
-0.24
-0.235
-0.225
-0.24
-0.265
-0.305
-0.21
-0.205
-0.21
-0.23
-0.265
-0.25
-0.315
-0.275
-0.2
-0.22
-0.285
-0.28
-0.295
-0.28
-0.24
-0.18
-0.185
-0.235
-0.265
-0.27
-0.29
-0.28
-0.25
-0.215
-0.22
-0.22
-0.295
-0.255
-0.205
-0.265
-0.27
-0.145
-0.2
-0.27
-0.215
-0.165
-0.2
-0.285
-0.28
-0.255
-0.25
-0.21
-0.17
-0.255
-0.245
-0.215
-0.235
-0.215
-0.25
-0.27
-0.23
-0.185
-0.23
-0.255
-0.285
-0.22
-0.22
-0.27
-0.24
-0.16
-0.24
-0.33
-0.205
-0.2
-0.31
-0.195
-0.225
-0.21
-0.245
-0.18
-0.245
-0.245
-0.22
-0.225
-0.235
-0.265
-0.31
-0.22
-0.225
-0.205
-0.195
-0.2
-0.27
-0.265
-0.195
-0.225
-0.295
-0.265
-0.275
-0.2
-0.28
-0.185
-0.15
-0.205
-0.27
-0.315
-0.33
-0.23
-0.235
-0.215
-0.17
-0.25
-0.325
-0.28
-0.245
-0.205
-0.23
-0.23
-0.215
-0.225
-0.22
-0.235
-0.235
-0.275
-0.235
-0.235
-0.205
-0.195
-0.31
-0.245
-0.2
-0.24
-0.265
-0.195
-0.235
-0.24
-0.33
-0.295
-0.3
-0.2
-0.24
-0.18
-0.215
-0.295
-0.25
-0.39
-0.305
-0.27
-0.205
-0.195
-0.225
-0.23
-0.285
-0.2
-0.225
-0.245
-0.22
-0.195
-0.25
-0.295
-0.245
-0.235
-0.28
-0.28
-0.27
-0.24
-0.195
-0.175
-0.255
-0.295
-0.225
-0.19
-0.315
-0.2
-0.27
-0.27
-0.195
-0.225
-0.235
-0.3
-0.295
-0.285
-0.23
-0.235
-0.205
-0.22
-0.255
-0.28
-0.225
-0.245
-0.295
-0.265
-0.19
-0.16
-0.23
-0.215
-0.245
-0.19
-0.175
-0.335
-0.275
-0.27
-0.265
-0.295
-0.23
-0.23
-0.3
-0.205
-0.19
-0.21
-0.23
-0.25
-0.24
-0.26
-0.26
-0.23
-0.2
-0.21
-0.28
-0.295
-0.24
-0.295
-0.25
-0.22
-0.265
-0.225
-0.24
-0.215
-0.23
-0.21
-0.245
-0.255
-0.28
-0.245
-0.23
-0.21
-0.185
-0.215
-0.225
-0.21
-0.25
-0.305
-0.215
-0.165
-0.255
-0.245
-0.2
-0.31
-0.235
-0.275
-0.265
-0.25
-0.265
-0.265
-0.24
-0.215
-0.25
-0.235
-0.24
-0.31
-0.25
-0.225
-0.245
-0.25
-0.215
-0.24
-0.205
-0.295
-0.235
-0.21
-0.2
-0.25
-0.265
-0.18
-0.18
-0.24
-0.195
-0.28
-0.27
-0.29
-0.22
-0.225
-0.205
-0.175
-0.215
-0.19
-0.22
-0.19
-0.175
-0.205
-0.155
-0.19
-0.245
-0.22
-0.185
-0.24
-0.19
-0.17
-0.115
-0.18
-0.125
-0.195
-0.205
-0.075
-0.145
-0.31
-0.18
-0.145
-0.16
-0.17
-0.18
-0.185
-0.235
-0.225
-0.27
-0.24
-0.205
-0.22
-0.175
-0.25
-0.29
-0.255
-0.245
-0.245
-0.27
-0.225
-0.22
-0.295
-0.27
-0.255
-0.165
-0.205
-0.225
-0.27
-0.205
-0.22
-0.27
-0.255
-0.29
-0.25
-0.295
-0.285
-0.24
-0.215
-0.245
-0.25
-0.225
-0.16
-0.15
-0.205
-0.225
-0.295
-0.28
-0.275
-0.275
-0.27
-0.255
-0.285
-0.115
-0.16
-0.18
-0.11
-0.075
-0.035
-0.045
-0.06
0.015
0.08
0.12
0.205
0.25
0.285
0.28
0.28
0.175
0.07
0.01
-0.07
-0.18
-0.215
-0.31
-0.355
-0.305
-0.285
-0.365
-0.32
-0.285
-0.24
-0.22
-0.29
-0.245
-0.245
-0.265
-0.3
-0.22
-0.27
-0.225
-0.235
-0.25
-0.25
-0.2
-0.155
-0.215
-0.24
-0.2
-0.205
-0.265
-0.21
-0.225
-0.195
-0.185
-0.22
-0.185
-0.145
-0.32
-0.275
-0.22
-0.205
-0.175
-0.18
-0.175
-0.265
-0.265
-0.205
-0.22
-0.16
-0.215
-0.245
-0.18
-0.225
-0.215
-0.2
-0.19
-0.2
-0.255
-0.23
-0.225
-0.23
-0.18
-0.19
-0.23
-0.15
-0.15
-0.215
-0.22
-0.145
-0.135
-0.13
-0.21
-0.18
-0.11
-0.2
-0.18
-0.14
-0.155
-0.215
-0.15
-0.135
-0.065
-0.165
-0.15
-0.115
-0.15
-0.155
-0.135
-0.08
-0.075
-0.115
-0.145
-0.14
-0.05
-0.02
-0.125
-0.08
0.015
0.0
0.005
0.07
0.005
-0.035
-0.115
0.0
0.075
0.08
0.065
0.02
0.005
-0.02
0.135
0.14
0.01
-0.005
0.11
0.045
0.055
0.05
-0.04
-0.005
0.0
-0.045
-0.1
-0.06
-0.04
-0.09
-0.015
-0.085
-0.115
-0.12
-0.15
-0.195
-0.16
-0.17
-0.165
-0.2
-0.185
-0.185
-0.23
-0.305
-0.205
-0.185
-0.155
-0.145
-0.16
-0.24
-0.185
-0.22
-0.225
-0.265
-0.22
-0.185
-0.185
-0.275
-0.265
-0.205
-0.245
-0.225
-0.235
-0.25
-0.195
-0.225
-0.19
-0.215
-0.225
-0.25
-0.195
-0.25
-0.275
-0.205
-0.205
-0.235
-0.26
-0.28
-0.165
-0.27
-0.295
-0.205
-0.265
-0.27
-0.21
-0.225
-0.285
-0.27
-0.215
-0.21
-0.23
-0.18
-0.165
-0.095
-0.195
-0.185
-0.095
-0.215
-0.295
-0.145
-0.2
-0.17
-0.26
-0.26
-0.28
-0.305
-0.32
-0.115
-0.245
-0.23
-0.205
-0.185
-0.23
-0.33
-0.29
-0.23
-0.195
-0.34
-0.255
-0.16
-0.18
-0.145
-0.175
-0.29
-0.21
-0.195
-0.155
-0.175
-0.27
-0.285
-0.225
-0.215
-0.17
-0.22
-0.3
-0.285
-0.33
-0.185
-0.205
-0.18
-0.17
-0.25
-0.29
-0.37
-0.21
-0.155
-0.245
-0.27
-0.19
-0.165
-0.21
-0.22
-0.195
-0.2
-0.21
-0.255
-0.23
-0.165
-0.235
-0.165
-0.2
-0.245
-0.235
-0.215
-0.265
-0.32
-0.21
-0.175
-0.265
-0.195
-0.215
-0.3
-0.29
-0.255
-0.195
-0.255
-0.25
-0.18
-0.27
-0.26
-0.21
-0.2
-0.285
-0.265
-0.21
-0.15
-0.24
-0.31
-0.225
-0.205
-0.27
-0.27
-0.17
-0.195
-0.17
-0.23
-0.275
-0.345
-0.31
-0.21
-0.255
-0.22
-0.19
-0.2
-0.205
-0.255
-0.22
-0.23
-0.265
-0.24
-0.23
-0.26
-0.28
-0.225
-0.28
-0.235
-0.22
-0.27
-0.22
-0.21
-0.245
-0.195
-0.23
-0.225
-0.3
-0.39
-0.235
-0.125
-0.155
-0.155
-0.27
-0.24
-0.25
-0.19
-0.2
-0.32
-0.18
-0.21
-0.275
-0.265
-0.225
-0.25
-0.255
-0.335
-0.26
-0.19
-0.22
-0.19
-0.245
-0.14
-0.155
-0.16
-0.16
-0.175
-0.23
-0.305
-0.15
-0.205
-0.22
-0.24
-0.215
-0.14
-0.125
-0.095
-0.12
-0.135
-0.115
-0.195
-0.245
-0.17
-0.19
-0.225
-0.21
-0.225
-0.195
-0.205
-0.305
-0.42
-0.285
-0.18
-0.215
-0.25
-0.23
-0.17
-0.175
-0.285
-0.205
-0.3
-0.235
-0.255
-0.225
-0.275
-0.26
-0.145
-0.23
-0.335
-0.29
-0.26
-0.26
-0.275
-0.42
-0.21
-0.24
-0.25
-0.255
-0.205
-0.225
-0.27
-0.255
-0.285
-0.205
-0.255
-0.245
-0.225
-0.255
-0.26
-0.35
-0.23
-0.165
-0.215
-0.135
-0.195
-0.125
-0.11
-0.135
-0.11
0.0
0.035
-0.015
0.095
0.27
0.28
0.305
0.335
0.14
0.1
-0.035
0.01
-0.135
-0.235
-0.295
-0.44
-0.435
-0.495
-0.425
-0.435
-0.375
-0.315
-0.31
-0.31
-0.22
-0.23
-0.27
-0.235
-0.255
-0.32
-0.41
-0.24
-0.245
-0.26
-0.26
-0.195
-0.21
-0.27
-0.205
-0.24
-0.205
-0.21
-0.295
-0.26
-0.225
-0.265
-0.265
-0.295
-0.275
-0.29
-0.295
-0.225
-0.185
-0.165
-0.225
-0.23
-0.2
-0.29
-0.29
-0.23
-0.235
-0.19
-0.28
-0.23
-0.115
-0.18
-0.2
-0.205
-0.33
-0.29
-0.205
-0.235
-0.145
-0.24
-0.225
-0.215
-0.2
-0.25
-0.17
-0.185
-0.26
-0.22
-0.21
-0.22
-0.16
-0.205
-0.23
-0.21
-0.16
-0.21
-0.22
-0.225
-0.145
-0.115
-0.175
-0.22
-0.13
-0.085
-0.16
-0.175
-0.115
-0.08
-0.09
-0.11
-0.045
-0.065
-0.045
-0.055
0.01
0.035
-0.135
-0.125
0.005
0.0
0.025
0.055
-0.01
-0.04
-0.015
0.075
0.1
0.095
0.005
0.055
0.055
0.07
0.015
0.01
-0.01
0.0
0.055
-0.01
-0.01
-0.065
-0.06
-0.16
-0.09
-0.075
-0.1
-0.13
-0.175
-0.18
-0.175
-0.245
-0.235
-0.19
-0.155
-0.2
-0.235
-0.25
-0.3
-0.225
-0.26
-0.31
-0.26
-0.285
-0.29
-0.265
-0.32
-0.305
-0.3
-0.165
-0.21
-0.315
-0.34
-0.305
-0.27
-0.34
-0.29
-0.31
-0.28
-0.295
-0.275
-0.29
-0.3
-0.33
-0.36
-0.36
-0.39
-0.28
-0.21
-0.25
-0.3
-0.32
-0.28
-0.275
-0.305
-0.275
-0.335
-0.325
-0.31
-0.31
-0.3
-0.335
-0.36
-0.3
-0.28
-0.33
-0.31
-0.315
-0.335
-0.215
-0.265
-0.26
-0.26
-0.22
-0.3
-0.365
-0.375
-0.3
-0.335
-0.285
-0.325
-0.37
-0.355
-0.27
-0.225
-0.25
-0.345
-0.3
-0.265
-0.295
-0.175
-0.335
-0.34
-0.22
-0.275
-0.285
-0.295
-0.36
-0.3
-0.305
-0.305
-0.305
-0.3
-0.315
-0.3
-0.295
-0.305
-0.315
-0.345
-0.27
-0.275
-0.295
-0.265
-0.28
-0.345
-0.34
-0.31
-0.32
-0.3
-0.26
-0.23
-0.3
-0.285
-0.32
-0.34
-0.33
-0.295
-0.345
-0.355
-0.31
-0.26
-0.37
-0.16
-0.16
-0.335
-0.355
-0.38
-0.375
-0.26
-0.275
-0.34
-0.38
-0.335
-0.335
-0.285
-0.29
-0.35
-0.3
-0.295
-0.325
-0.34
-0.32
-0.35
-0.24
-0.29
-0.265
-0.255
-0.295
-0.345
-0.315
-0.305
-0.305
-0.34
-0.315
-0.27
-0.38
-0.37
-0.3
-0.205
-0.275
-0.21
-0.26
-0.385
-0.33
-0.32
-0.365
-0.3
-0.36
-0.33
-0.305
-0.335
-0.275
-0.2
-0.26
-0.24
-0.25
-0.255
-0.295
-0.28
-0.275
-0.235
-0.245
-0.255
-0.245
-0.205
-0.205
-0.24
-0.225
-0.2
-0.21
-0.255
-0.29
-0.26
-0.225
-0.24
-0.205
-0.29
-0.325
-0.35
-0.385
-0.315
-0.245
-0.29
-0.37
-0.315
-0.36
-0.27
-0.22
-0.27
-0.25
