# TIPE ECG 2021 - ECG-ID Database v1.0.0 par Physionet
# [Numéro de la personne, Période d'échantillonnage, Prénom, Age, Sexe, Date de l'enregistrement]
[72, 0.002, William, 39, H, 12.05.2005]
0.005
0.015
-0.005
0.0
0.01
0.005
-0.005
0.01
0.005
0.04
0.0
0.01
-0.01
0.015
0.01
0.005
-0.015
0.0
0.02
0.005
0.015
0.02
0.025
0.01
0.01
0.015
-0.015
0.0
0.0
0.02
0.03
0.015
0.0
0.01
0.02
0.0
-0.005
0.005
-0.005
0.025
0.0
-0.005
0.025
0.0
0.01
0.01
0.0
-0.005
0.015
0.01
-0.035
0.005
-0.01
-0.005
0.01
0.0
0.0
-0.025
-0.015
-0.015
0.01
-0.005
-0.01
-0.02
0.0
0.0
-0.04
-0.02
0.01
-0.02
-0.005
0.0
-0.015
-0.04
-0.045
0.01
0.0
-0.015
-0.02
-0.01
-0.025
-0.035
-0.025
-0.02
-0.015
-0.01
-0.03
-0.02
-0.025
-0.025
-0.02
-0.035
-0.05
-0.035
0.0
-0.015
-0.01
-0.04
-0.03
-0.045
-0.045
-0.015
-0.025
-0.01
-0.005
-0.015
-0.04
-0.035
-0.035
-0.015
-0.02
-0.035
-0.03
-0.05
-0.05
-0.035
-0.01
-0.01
-0.01
-0.015
-0.015
0.0
0.01
-0.005
0.005
0.015
0.02
-0.005
0.0
-0.01
0.01
0.04
0.02
0.05
0.06
0.065
0.065
0.095
0.1
0.05
0.045
0.06
0.07
0.05
0.06
0.07
0.065
0.06
0.035
0.04
0.045
0.06
0.03
0.03
0.045
0.025
0.015
0.01
0.005
0.0
-0.02
-0.035
-0.04
-0.045
-0.035
-0.06
-0.04
-0.025
-0.035
-0.04
-0.04
-0.05
-0.055
-0.035
-0.055
-0.05
-0.03
-0.01
-0.04
-0.07
-0.05
-0.035
-0.07
-0.05
-0.025
-0.045
-0.045
-0.025
-0.005
-0.035
-0.01
0.01
0.06
0.12
0.225
0.31
0.355
0.495
0.575
0.715
0.795
0.835
0.88
0.88
0.805
0.725
0.64
0.475
0.3
0.145
0.045
-0.04
-0.17
-0.305
-0.325
-0.3
-0.26
-0.17
-0.15
-0.105
-0.07
-0.045
-0.06
-0.04
-0.01
-0.01
-0.025
0.0
0.005
-0.03
-0.04
-0.025
-0.03
0.005
-0.01
-0.025
0.0
0.0
0.01
0.0
-0.01
-0.015
0.01
-0.01
-0.005
0.01
-0.01
0.0
0.03
0.02
0.0
0.01
0.0
0.06
0.045
0.025
0.03
0.06
0.05
0.05
0.04
0.05
0.055
0.05
0.075
0.065
0.065
0.05
0.06
0.09
0.065
0.075
0.08
0.09
0.095
0.12
0.1
0.105
0.115
0.125
0.115
0.115
0.13
0.115
0.135
0.15
0.17
0.175
0.175
0.155
0.19
0.195
0.205
0.22
0.23
0.22
0.25
0.26
0.27
0.285
0.29
0.29
0.255
0.32
0.345
0.37
0.355
0.385
0.365
0.375
0.36
0.4
0.43
0.435
0.405
0.42
0.435
0.465
0.455
0.43
0.425
0.46
0.44
0.42
0.43
0.43
0.425
0.425
0.43
0.405
0.405
0.38
0.375
0.35
0.315
0.31
0.3
0.29
0.26
0.23
0.2
0.2
0.205
0.175
0.145
0.155
0.105
0.12
0.09
0.085
0.095
0.085
0.06
0.05
0.045
0.04
0.04
0.02
0.015
0.045
0.01
0.02
0.02
0.04
0.02
-0.01
-0.005
-0.01
-0.01
0.005
0.01
-0.015
-0.01
-0.01
-0.015
0.005
0.02
-0.01
-0.025
-0.015
0.02
-0.02
0.0
0.0
0.02
0.01
0.015
0.0
-0.02
-0.015
-0.015
-0.015
0.005
-0.015
0.005
0.025
0.005
-0.005
0.01
-0.005
-0.02
-0.01
-0.015
-0.02
0.0
0.03
-0.01
0.005
0.01
0.0
-0.025
-0.01
-0.01
-0.005
0.01
-0.005
-0.005
-0.03
-0.01
0.01
0.02
0.01
-0.01
-0.01
0.0
0.03
0.01
-0.015
-0.015
-0.01
-0.01
-0.025
0.03
0.02
-0.015
-0.01
0.005
-0.01
0.0
0.0
-0.02
-0.01
0.0
-0.025
-0.02
-0.01
-0.01
0.0
-0.015
-0.04
-0.025
-0.04
-0.015
-0.015
-0.02
-0.005
-0.03
-0.025
-0.015
-0.03
-0.01
-0.005
-0.015
-0.04
-0.04
-0.035
-0.005
-0.015
-0.03
-0.03
-0.02
-0.015
-0.02
-0.03
-0.025
-0.05
-0.01
-0.03
-0.035
-0.03
-0.025
-0.04
-0.04
-0.035
-0.025
-0.02
-0.04
-0.04
-0.035
-0.03
-0.06
-0.045
-0.01
-0.025
-0.025
-0.035
-0.055
-0.045
-0.02
-0.035
-0.03
-0.01
-0.015
-0.04
-0.06
-0.025
-0.03
-0.015
-0.025
-0.025
-0.015
-0.01
0.01
0.0
0.02
0.015
-0.01
0.01
0.015
0.005
0.01
0.02
0.05
0.04
0.065
0.08
0.06
0.065
0.065
0.06
0.065
0.05
0.045
0.04
0.075
0.08
0.07
0.05
0.03
0.035
0.055
0.055
0.04
0.035
0.025
-0.005
0.02
0.0
-0.03
-0.035
-0.04
-0.035
-0.03
-0.02
-0.04
-0.05
-0.045
-0.055
-0.04
-0.04
-0.06
-0.065
-0.065
-0.055
-0.03
-0.05
-0.055
-0.045
-0.03
-0.015
-0.05
-0.06
-0.06
-0.045
-0.01
-0.045
-0.035
-0.02
-0.03
-0.045
0.0
0.065
0.11
0.19
0.275
0.37
0.47
0.585
0.69
0.77
0.815
0.875
0.91
0.805
0.78
0.715
0.565
0.34
0.195
0.065
-0.015
-0.135
-0.315
-0.36
-0.315
-0.285
-0.21
-0.125
-0.065
-0.06
-0.045
-0.04
-0.025
-0.02
-0.015
-0.025
0.005
-0.005
-0.02
-0.01
0.01
0.01
-0.045
-0.005
-0.005
-0.015
0.005
0.005
0.005
0.005
-0.015
0.045
0.005
-0.01
-0.045
-0.02
0.0
0.04
0.015
0.035
0.025
0.005
0.02
0.005
0.055
0.07
0.035
0.035
0.02
0.025
0.05
0.075
0.045
0.065
0.055
0.065
0.05
0.055
0.065
0.095
0.085
0.1
0.11
0.075
0.115
0.09
0.095
0.09
0.1
0.145
0.14
0.16
0.135
0.145
0.155
0.16
0.145
0.16
0.16
0.155
0.185
0.195
0.215
0.215
0.24
0.225
0.245
0.26
0.28
0.31
0.295
0.305
0.32
0.335
0.35
0.335
0.32
0.365
0.375
0.395
0.39
0.42
0.395
0.425
0.45
0.425
0.415
0.435
0.445
0.455
0.435
0.445
0.43
0.45
0.445
0.435
0.42
0.41
0.385
0.355
0.345
0.36
0.36
0.34
0.34
0.31
0.295
0.275
0.22
0.235
0.2
0.16
0.145
0.17
0.14
0.12
0.13
0.11
0.08
0.07
0.065
0.05
0.04
0.03
0.05
0.03
0.04
0.0
0.01
-0.005
0.01
0.005
-0.015
0.01
0.005
-0.02
-0.005
0.01
-0.01
-0.035
-0.015
-0.015
-0.01
0.0
-0.02
-0.005
-0.03
-0.04
-0.03
-0.025
-0.015
-0.02
-0.01
-0.02
-0.025
-0.03
-0.01
-0.045
-0.02
-0.01
0.005
-0.005
-0.035
-0.005
-0.025
-0.01
-0.01
-0.025
-0.025
-0.01
-0.035
-0.01
-0.005
-0.015
-0.03
-0.04
-0.015
-0.005
-0.04
0.01
0.02
-0.02
-0.035
-0.015
-0.01
-0.015
-0.02
-0.035
-0.035
-0.005
-0.025
-0.01
-0.025
-0.01
-0.02
-0.02
0.005
-0.025
-0.04
-0.06
-0.025
-0.02
0.0
-0.015
-0.03
-0.04
-0.03
-0.05
-0.02
-0.025
-0.035
-0.03
-0.025
-0.045
-0.02
-0.03
0.005
-0.005
-0.035
-0.045
-0.055
-0.06
-0.025
-0.02
-0.02
-0.045
-0.05
-0.055
-0.055
-0.045
-0.025
-0.04
-0.045
-0.055
-0.05
-0.05
-0.03
-0.03
-0.035
-0.045
-0.045
-0.035
-0.04
-0.06
-0.065
-0.03
-0.025
-0.05
-0.085
-0.04
-0.07
-0.07
-0.05
-0.04
-0.045
-0.05
-0.05
-0.06
-0.075
-0.05
-0.025
-0.02
-0.045
-0.06
-0.06
-0.065
-0.06
-0.06
-0.055
-0.055
-0.07
-0.035
-0.04
-0.035
-0.055
-0.04
-0.035
0.005
-0.015
-0.04
-0.035
-0.005
-0.015
-0.03
-0.025
-0.01
-0.03
0.005
-0.005
-0.015
-0.01
0.02
0.045
0.09
0.04
0.05
0.015
0.045
0.05
0.015
0.04
0.03
0.055
0.05
0.025
-0.01
0.025
0.03
0.025
0.03
0.005
0.005
-0.005
-0.025
-0.05
-0.015
-0.035
-0.06
-0.05
-0.07
-0.075
-0.065
-0.06
-0.06
-0.07
-0.08
-0.085
-0.08
-0.085
-0.09
-0.09
-0.11
-0.1
-0.08
-0.07
-0.08
-0.08
-0.08
-0.07
-0.08
-0.08
-0.06
-0.075
-0.075
-0.085
-0.07
-0.055
-0.045
-0.05
-0.02
0.04
0.16
0.23
0.31
0.42
0.515
0.63
0.735
0.845
0.865
0.91
0.845
0.785
0.7
0.555
0.37
0.21
0.1
0.0
-0.125
-0.295
-0.36
-0.34
-0.32
-0.25
-0.165
-0.15
-0.12
-0.08
-0.085
-0.07
-0.05
-0.055
-0.04
-0.02
-0.05
-0.06
-0.065
-0.025
-0.045
-0.055
-0.035
-0.065
-0.05
-0.025
-0.045
-0.06
-0.05
-0.065
-0.075
-0.035
-0.05
-0.045
-0.035
-0.04
-0.05
-0.015
-0.015
-0.005
-0.03
-0.025
-0.01
-0.01
-0.02
0.0
0.005
-0.015
0.0
0.005
0.01
0.02
0.015
0.0
-0.005
0.025
0.01
0.025
0.02
0.015
0.035
0.055
0.08
0.055
0.03
0.05
0.075
0.075
0.075
0.085
0.075
0.08
0.105
0.09
0.095
0.115
0.115
0.1
0.12
0.175
0.14
0.13
0.175
0.175
0.19
0.21
0.22
0.225
0.24
0.235
0.235
0.265
0.285
0.26
0.295
0.3
0.305
0.325
0.32
0.34
0.365
0.35
0.355
0.38
0.385
0.41
0.38
0.375
0.39
0.38
0.38
0.39
0.37
0.385
0.38
0.365
0.37
0.34
0.31
0.335
0.295
0.285
0.26
0.25
0.23
0.22
0.195
0.155
0.16
0.155
0.14
0.13
0.09
0.035
0.04
0.06
0.03
0.025
0.01
-0.01
0.0
-0.02
-0.005
-0.005
-0.04
-0.06
-0.045
-0.04
-0.04
-0.05
-0.075
-0.04
-0.05
-0.055
-0.09
-0.09
-0.09
-0.075
-0.08
-0.065
-0.065
-0.055
-0.08
-0.07
-0.07
-0.07
-0.06
-0.04
-0.065
-0.105
-0.08
-0.085
-0.085
-0.095
-0.1
-0.085
-0.1
-0.085
-0.06
-0.08
-0.095
-0.07
-0.06
-0.08
-0.08
-0.09
-0.095
-0.095
-0.07
-0.06
-0.075
-0.08
-0.08
-0.08
-0.07
-0.075
-0.065
-0.04
-0.065
-0.08
-0.065
-0.085
-0.065
-0.06
-0.08
-0.085
-0.06
-0.075
-0.12
-0.055
-0.06
-0.085
-0.085
-0.1
-0.07
-0.07
-0.09
-0.09
-0.08
-0.08
-0.095
-0.08
-0.1
-0.11
-0.08
-0.095
-0.095
-0.085
-0.075
-0.085
-0.1
-0.08
-0.11
-0.09
-0.105
-0.09
-0.09
-0.09
-0.085
-0.07
-0.11
-0.14
-0.105
-0.09
-0.075
-0.105
-0.125
-0.1
-0.115
-0.105
-0.105
-0.11
-0.115
-0.105
-0.095
-0.085
-0.125
-0.115
-0.105
-0.095
-0.1
-0.125
-0.135
-0.115
-0.105
-0.115
-0.115
-0.115
-0.11
-0.125
-0.105
-0.1
-0.095
-0.105
-0.095
-0.13
-0.125
-0.115
-0.085
-0.095
-0.09
-0.075
-0.065
-0.09
-0.07
-0.06
-0.065
-0.095
-0.075
-0.1
-0.08
-0.1
-0.07
-0.075
-0.05
-0.04
-0.025
-0.015
-0.01
0.01
0.01
-0.045
-0.045
-0.03
-0.03
-0.02
-0.015
-0.015
-0.02
-0.03
-0.025
-0.025
-0.02
-0.025
-0.045
-0.075
-0.06
-0.02
-0.075
-0.09
-0.1
-0.07
-0.115
-0.11
-0.125
-0.135
-0.115
-0.12
-0.145
-0.125
-0.115
-0.115
-0.14
-0.155
-0.135
-0.13
-0.135
-0.145
-0.125
-0.115
-0.12
-0.12
-0.13
-0.13
-0.135
-0.125
-0.135
-0.125
-0.145
-0.14
-0.105
-0.105
-0.11
-0.075
-0.025
0.03
0.14
0.2
0.31
0.395
0.49
0.625
0.72
0.795
0.815
0.775
0.7
0.63
0.535
0.35
0.195
0.035
-0.075
-0.21
-0.36
-0.46
-0.475
-0.395
-0.355
-0.305
-0.26
-0.19
-0.155
-0.14
-0.11
-0.12
-0.115
-0.08
-0.085
-0.1
-0.08
-0.08
-0.105
-0.11
-0.125
-0.12
-0.1
-0.105
-0.1
-0.095
-0.09
-0.105
-0.09
-0.07
-0.09
-0.09
-0.065
-0.065
-0.085
-0.08
-0.08
-0.08
-0.045
-0.045
-0.065
-0.055
-0.04
-0.025
-0.055
-0.035
-0.035
-0.02
-0.03
-0.035
-0.045
-0.04
-0.015
0.01
-0.035
-0.01
0.005
0.005
0.005
0.01
0.02
0.02
0.03
0.025
0.0
0.065
0.055
0.055
0.05
0.075
0.05
0.075
0.07
0.09
0.085
0.08
0.075
0.12
0.145
0.14
0.155
0.16
0.17
0.155
0.175
0.2
0.205
0.22
0.225
0.245
0.25
0.245
0.29
0.29
0.29
0.305
0.31
0.3
0.355
0.365
0.365
0.365
0.36
0.385
0.405
0.41
0.395
0.355
0.38
0.385
0.39
0.4
0.38
0.375
0.375
0.375
0.37
0.35
0.32
0.27
0.27
0.27
0.255
0.225
0.215
0.18
0.16
0.145
0.145
0.15
0.095
0.085
0.07
0.06
0.035
0.065
0.055
0.01
0.0
0.005
-0.02
-0.035
-0.02
-0.05
-0.015
-0.05
-0.045
-0.055
-0.05
-0.05
-0.075
-0.035
-0.03
-0.06
-0.07
-0.07
-0.065
-0.075
-0.06
-0.065
-0.065
-0.07
-0.085
-0.07
-0.085
-0.075
-0.04
-0.065
-0.095
-0.075
-0.08
-0.075
-0.09
-0.07
-0.065
-0.055
-0.06
-0.065
-0.05
-0.1
-0.085
-0.04
-0.05
-0.05
-0.05
-0.075
-0.08
-0.07
-0.065
-0.07
-0.065
-0.06
-0.045
-0.06
-0.04
-0.075
-0.055
-0.045
-0.055
-0.07
-0.06
-0.04
-0.045
-0.055
-0.065
-0.025
-0.04
-0.055
-0.06
-0.055
-0.045
-0.035
-0.07
-0.04
-0.055
-0.05
-0.05
-0.075
-0.05
-0.06
-0.025
-0.035
-0.065
-0.09
-0.07
-0.05
-0.055
-0.07
-0.06
-0.065
-0.035
-0.05
-0.05
-0.055
-0.02
-0.065
-0.045
-0.015
-0.06
-0.08
-0.08
-0.09
-0.065
-0.055
-0.055
-0.05
-0.085
-0.07
-0.04
-0.06
-0.06
-0.045
-0.085
-0.08
-0.035
-0.065
-0.075
-0.055
-0.08
-0.1
-0.07
-0.06
-0.065
-0.07
-0.075
-0.075
-0.06
-0.075
-0.045
-0.075
-0.055
-0.05
-0.075
-0.08
-0.065
-0.08
-0.085
-0.075
-0.05
-0.07
-0.07
-0.05
-0.09
-0.065
-0.075
-0.09
-0.095
-0.065
-0.045
-0.06
-0.06
-0.025
-0.045
-0.04
0.0
-0.025
-0.025
-0.03
-0.04
-0.05
-0.015
0.005
-0.025
-0.01
0.06
0.05
0.055
0.07
0.06
0.04
0.03
0.04
0.035
0.045
0.055
0.025
0.01
0.035
0.02
0.01
-0.01
0.01
0.0
0.025
0.025
0.0
-0.005
-0.045
-0.035
-0.05
-0.07
-0.055
-0.075
-0.06
-0.07
-0.075
-0.08
-0.075
-0.07
-0.075
-0.06
-0.06
-0.075
-0.09
-0.06
-0.075
-0.095
-0.09
-0.04
-0.03
-0.085
-0.095
-0.09
-0.045
-0.09
-0.09
-0.075
-0.055
-0.06
-0.075
-0.035
0.01
0.06
0.145
0.24
0.32
0.39
0.5
0.64
0.745
0.81
0.86
0.905
0.855
0.775
0.69
0.63
0.37
0.195
0.07
-0.01
-0.09
-0.245
-0.36
-0.375
-0.295
-0.245
-0.2
-0.14
-0.095
-0.08
-0.07
-0.075
-0.07
-0.045
-0.03
-0.03
-0.045
-0.03
-0.04
-0.06
-0.045
-0.045
-0.05
-0.055
-0.05
-0.04
-0.04
-0.045
-0.04
-0.05
-0.04
-0.035
-0.02
-0.025
-0.035
-0.045
-0.02
-0.02
-0.02
-0.01
-0.02
-0.005
0.035
0.025
0.0
-0.015
0.005
0.005
0.01
0.025
0.025
0.04
0.015
0.02
0.035
0.025
0.03
0.025
0.035
0.015
0.025
0.035
0.07
0.075
0.09
0.075
0.065
0.075
0.08
0.09
0.055
0.11
0.12
0.11
0.1
0.12
0.125
0.14
0.15
0.155
0.17
0.18
0.19
0.175
0.205
0.245
0.225
0.23
0.24
0.255
0.27
0.275
0.28
0.29
0.305
0.32
0.34
0.34
0.36
0.365
0.365
0.38
0.365
0.41
0.395
0.39
0.405
0.395
0.39
0.4
0.4
0.405
0.405
0.415
0.405
0.365
0.36
0.345
0.345
0.34
0.33
0.3
0.3
0.28
0.24
0.215
0.22
0.195
0.205
0.155
0.125
0.135
0.1
0.075
0.07
0.045
0.03
0.025
0.035
0.015
-0.01
0.01
0.005
-0.01
-0.005
-0.01
-0.03
-0.025
-0.03
-0.06
-0.045
-0.03
-0.05
-0.07
-0.05
-0.06
-0.055
-0.025
-0.075
-0.065
-0.07
-0.055
-0.065
-0.075
-0.07
-0.055
-0.09
-0.07
-0.065
-0.05
-0.065
-0.07
-0.065
-0.08
-0.075
-0.065
-0.09
-0.065
-0.05
-0.08
-0.045
-0.075
-0.07
-0.09
-0.055
-0.05
-0.065
-0.045
-0.05
-0.065
-0.085
-0.035
-0.07
-0.09
-0.06
-0.06
-0.095
-0.08
-0.06
-0.07
-0.08
-0.085
-0.07
-0.05
-0.03
-0.095
-0.08
-0.03
-0.045
-0.06
-0.08
-0.065
-0.06
-0.04
-0.05
-0.08
-0.085
-0.075
-0.07
-0.065
-0.055
-0.065
-0.06
-0.06
-0.11
-0.075
-0.065
-0.055
-0.075
-0.07
-0.08
-0.065
-0.07
-0.07
-0.08
-0.095
-0.105
-0.085
-0.085
-0.07
-0.07
-0.09
-0.08
-0.08
-0.1
-0.08
-0.07
-0.085
-0.09
-0.065
-0.085
-0.1
-0.06
-0.06
-0.055
-0.105
-0.1
-0.075
-0.085
-0.1
-0.09
-0.08
-0.08
-0.1
-0.075
-0.085
-0.115
-0.1
-0.095
-0.1
-0.095
-0.09
-0.08
-0.075
-0.1
-0.125
-0.11
-0.095
-0.115
-0.115
-0.085
-0.115
-0.095
-0.095
-0.105
-0.095
-0.08
-0.09
-0.11
-0.08
-0.09
-0.11
-0.1
-0.06
-0.06
-0.08
-0.06
-0.065
-0.06
-0.055
-0.065
-0.07
-0.065
-0.05
-0.065
-0.07
-0.025
-0.04
-0.03
0.015
0.015
0.0
0.0
0.005
0.05
-0.03
0.0
-0.01
0.0
0.0
-0.005
0.01
0.0
-0.015
-0.005
-0.035
-0.05
0.005
-0.025
-0.025
-0.025
-0.05
-0.07
-0.075
-0.07
-0.09
-0.095
-0.08
-0.105
-0.095
-0.1
-0.1
-0.13
-0.1
-0.105
-0.11
-0.095
-0.105
-0.115
-0.075
-0.105
-0.115
-0.11
-0.14
-0.135
-0.12
-0.125
-0.095
-0.115
-0.125
-0.11
-0.115
-0.085
-0.085
-0.1
-0.09
-0.045
-0.025
0.04
0.14
0.235
0.325
0.42
0.525
0.62
0.73
0.83
0.89
0.89
0.83
0.75
0.685
0.535
0.31
0.175
0.06
-0.01
-0.15
-0.355
-0.395
-0.36
-0.32
-0.28
-0.19
-0.14
-0.15
-0.145
-0.11
-0.085
-0.08
-0.07
-0.065
-0.065
-0.09
-0.095
-0.085
-0.07
-0.08
-0.08
-0.08
-0.08
-0.08
-0.085
-0.065
-0.105
-0.095
-0.045
-0.07
-0.065
-0.065
-0.07
-0.055
-0.05
-0.065
-0.035
-0.055
-0.055
-0.055
-0.05
-0.015
-0.045
-0.035
-0.045
-0.025
-0.045
-0.01
-0.015
-0.03
-0.005
0.03
0.005
-0.015
0.005
-0.005
0.02
0.025
0.02
-0.005
0.025
0.015
0.03
0.025
0.045
0.04
0.07
0.07
0.06
0.05
0.06
0.11
0.11
0.09
0.1
0.095
0.11
0.11
0.16
0.15
0.135
0.175
0.185
0.17
0.215
0.195
0.2
0.21
0.215
0.24
0.255
0.255
0.28
0.3
0.325
0.34
0.345
0.325
0.34
0.35
0.375
0.335
0.37
0.375
0.375
0.395
0.405
0.405
0.4
0.395
0.37
0.345
0.345
0.375
0.385
0.36
0.33
0.33
0.31
0.315
0.27
0.27
0.225
0.23
0.2
0.155
0.17
0.16
0.135
0.095
0.1
0.08
0.06
0.05
0.045
0.02
-0.01
0.04
0.015
-0.02
-0.025
-0.02
-0.03
-0.04
-0.025
-0.06
-0.05
-0.055
-0.065
-0.07
-0.05
-0.04
-0.075
-0.105
-0.095
-0.07
-0.075
-0.08
-0.075
-0.07
-0.09
-0.09
-0.1
-0.07
-0.095
-0.07
-0.065
-0.1
-0.09
-0.095
-0.095
-0.09
-0.07
-0.08
-0.07
-0.065
-0.08
-0.08
-0.11
-0.07
-0.08
-0.08
-0.09
-0.09
-0.105
-0.085
-0.095
-0.085
-0.07
-0.08
-0.065
-0.075
-0.05
-0.07
-0.085
-0.095
-0.095
-0.085
-0.095
-0.085
-0.07
-0.08
-0.085
-0.085
-0.095
-0.065
-0.065
-0.09
-0.105
-0.1
-0.085
-0.075
-0.08
-0.105
-0.12
-0.09
-0.105
-0.095
-0.095
-0.065
-0.075
-0.085
-0.075
-0.095
-0.11
-0.105
-0.11
-0.09
-0.1
-0.09
-0.08
-0.08
-0.09
-0.13
-0.11
-0.125
-0.11
-0.105
-0.055
-0.11
-0.145
-0.11
-0.1
-0.095
-0.09
-0.1
-0.115
-0.115
-0.085
-0.11
-0.115
-0.105
-0.115
-0.12
-0.1
-0.105
-0.11
-0.11
-0.095
-0.115
-0.13
-0.1
-0.09
-0.09
-0.1
-0.12
-0.11
-0.11
-0.12
-0.13
-0.115
-0.115
-0.105
-0.12
-0.105
-0.105
-0.13
-0.105
-0.1
-0.105
-0.12
-0.095
-0.115
-0.095
-0.07
-0.09
-0.105
-0.085
-0.075
-0.085
-0.065
-0.095
-0.06
-0.065
-0.065
-0.06
-0.045
-0.055
-0.01
-0.02
-0.01
-0.01
0.005
-0.02
-0.02
-0.035
-0.04
-0.015
-0.015
-0.025
-0.015
-0.02
-0.045
-0.06
-0.055
-0.05
-0.015
-0.045
-0.055
-0.07
-0.065
-0.09
-0.085
-0.095
-0.095
-0.12
-0.125
-0.135
-0.13
-0.14
-0.145
-0.12
-0.115
-0.14
-0.14
-0.145
-0.14
-0.125
-0.135
-0.13
-0.115
-0.115
-0.13
-0.14
-0.14
-0.165
-0.145
-0.13
-0.125
-0.105
-0.12
-0.12
-0.125
-0.125
-0.115
-0.11
-0.045
0.07
0.15
0.22
0.285
0.395
0.505
0.64
0.74
0.795
0.825
0.83
0.785
0.69
0.62
0.42
0.21
0.095
-0.035
-0.18
-0.315
-0.405
-0.375
-0.38
-0.36
-0.29
-0.23
-0.205
-0.17
-0.15
-0.14
-0.15
-0.115
-0.1
-0.1
-0.11
-0.11
-0.115
-0.105
-0.11
-0.115
-0.125
-0.11
-0.11
-0.1
-0.105
-0.125
-0.11
-0.11
-0.115
-0.08
-0.095
-0.105
-0.1
-0.105
-0.12
-0.105
-0.095
-0.09
-0.08
-0.06
-0.07
-0.06
-0.08
-0.055
-0.055
-0.08
-0.065
-0.045
-0.09
-0.04
-0.055
-0.045
-0.035
-0.06
-0.05
-0.045
-0.025
-0.025
-0.01
-0.01
-0.01
-0.035
-0.005
0.015
0.025
-0.01
0.01
0.02
0.035
0.07
0.06
0.005
0.01
0.04
0.055
0.07
0.105
0.07
0.06
0.085
0.11
0.135
0.13
0.145
0.155
0.155
0.175
0.175
0.185
0.21
0.235
0.24
0.245
0.27
0.275
0.255
0.27
0.315
0.325
0.315
0.31
0.315
0.335
0.34
0.34
0.36
0.35
0.355
0.345
0.33
0.33
0.33
0.31
0.355
0.31
0.27
0.305
0.29
0.26
0.26
0.215
0.205
0.19
0.165
0.13
0.12
0.11
0.08
0.08
0.07
0.035
0.015
0.01
0.025
-0.005
0.015
-0.025
-0.04
-0.06
-0.05
-0.08
-0.085
-0.055
-0.05
-0.095
-0.105
-0.11
-0.11
-0.105
-0.11
-0.13
-0.125
-0.075
-0.11
-0.12
-0.115
-0.1
-0.12
-0.11
-0.125
-0.12
-0.125
-0.13
-0.125
-0.15
-0.13
-0.135
-0.125
-0.13
-0.125
-0.135
-0.14
-0.105
-0.11
-0.13
-0.125
-0.12
-0.135
-0.115
-0.11
-0.125
-0.115
-0.105
-0.125
-0.135
-0.145
-0.105
-0.105
-0.115
-0.075
-0.11
-0.125
-0.085
-0.095
-0.12
-0.11
-0.105
-0.125
-0.105
-0.08
-0.12
-0.135
-0.105
-0.115
-0.11
-0.085
-0.105
-0.105
-0.11
-0.09
-0.115
-0.1
-0.07
-0.06
-0.125
-0.14
-0.125
-0.11
-0.08
-0.095
-0.1
-0.085
-0.09
-0.12
-0.12
-0.105
-0.125
-0.12
-0.125
-0.105
-0.105
-0.12
-0.115
-0.12
-0.105
-0.095
-0.11
-0.13
-0.11
-0.1
-0.1
-0.105
-0.13
-0.11
-0.145
-0.12
-0.125
-0.14
-0.135
-0.125
-0.135
-0.105
-0.115
-0.12
-0.13
-0.13
-0.155
-0.125
-0.09
-0.115
-0.145
-0.12
-0.125
-0.12
-0.1
-0.14
-0.125
-0.135
-0.11
-0.13
-0.135
-0.11
-0.105
-0.14
-0.125
-0.13
-0.135
-0.135
-0.125
-0.125
-0.11
-0.105
-0.115
-0.115
-0.095
-0.1
-0.1
-0.11
-0.12
-0.09
-0.1
-0.07
-0.06
-0.075
-0.085
-0.075
-0.085
-0.08
-0.03
-0.055
-0.05
0.005
-0.04
-0.035
-0.015
-0.025
-0.04
-0.025
-0.045
-0.05
-0.04
0.02
-0.01
-0.015
-0.065
-0.035
-0.07
-0.05
-0.03
-0.045
-0.06
-0.065
-0.075
-0.065
-0.08
-0.07
-0.105
-0.12
-0.1
-0.12
-0.135
-0.12
-0.115
-0.145
-0.1
-0.115
-0.13
-0.11
-0.105
-0.14
-0.135
-0.105
-0.1
-0.125
-0.145
-0.17
-0.125
-0.115
-0.095
-0.11
-0.12
-0.13
-0.095
-0.125
-0.12
-0.09
-0.12
-0.095
-0.035
0.01
0.085
0.185
0.27
0.355
0.455
0.57
0.69
0.755
0.805
0.83
0.775
0.73
0.655
0.515
0.335
0.165
0.055
-0.075
-0.18
-0.38
-0.425
-0.37
-0.35
-0.335
-0.23
-0.18
-0.14
-0.125
-0.125
-0.115
-0.1
-0.06
-0.08
-0.1
-0.085
-0.09
-0.09
-0.1
-0.085
-0.075
-0.075
-0.085
-0.07
-0.08
-0.065
-0.05
-0.09
-0.085
-0.055
-0.075
-0.075
-0.045
-0.04
-0.07
-0.07
-0.065
-0.035
-0.045
-0.03
-0.015
-0.015
-0.015
-0.07
-0.045
-0.03
-0.04
-0.015
-0.02
-0.015
0.0
-0.005
0.0
-0.015
0.025
0.015
0.0
0.02
0.035
0.01
0.01
0.05
0.05
0.025
0.025
0.03
0.04
0.045
0.08
0.075
0.045
0.1
0.1
0.125
0.085
0.085
0.085
0.1
0.125
0.125
0.145
0.16
0.18
0.145
0.16
0.2
0.2
0.205
0.225
0.23
0.23
0.255
0.255
0.27
0.305
0.33
0.33
0.33
0.355
0.345
0.355
0.365
0.365
0.365
0.365
0.395
0.395
0.385
0.395
0.37
0.365
0.37
0.385
0.365
0.365
0.36
0.34
0.34
0.31
0.28
0.25
0.265
0.22
0.22
0.175
0.155
0.155
0.14
0.12
0.075
0.1
0.08
0.05
0.03
0.025
0.01
0.005
0.01
0.02
-0.03
-0.035
-0.04
-0.055
-0.025
-0.04
-0.02
-0.04
-0.055
-0.065
-0.065
-0.08
-0.06
-0.06
-0.07
-0.095
-0.09
-0.1
-0.075
-0.055
-0.08
-0.055
-0.085
-0.09
-0.09
-0.075
-0.08
-0.09
-0.085
-0.085
-0.085
-0.095
-0.105
-0.085
-0.1
-0.08
-0.08
-0.105
-0.08
-0.065
-0.095
-0.085
-0.075
-0.095
-0.075
-0.09
-0.095
-0.09
-0.09
-0.07
-0.08
-0.05
-0.07
-0.095
-0.09
-0.085
-0.075
-0.1
-0.08
-0.06
-0.085
-0.07
-0.07
-0.06
-0.08
-0.08
-0.085
-0.095
-0.07
-0.065
-0.075
-0.045
-0.055
-0.075
-0.055
-0.11
-0.07
-0.07
-0.09
-0.055
-0.055
-0.07
-0.1
-0.075
-0.065
-0.075
-0.08
-0.06
-0.07
-0.09
-0.07
-0.06
-0.08
-0.08
-0.09
-0.08
-0.095
-0.095
-0.09
-0.095
-0.095
-0.085
-0.08
-0.08
-0.09
-0.09
-0.09
-0.065
-0.085
-0.075
-0.08
-0.095
-0.09
-0.095
-0.11
-0.09
-0.095
-0.105
-0.105
-0.085
-0.08
-0.095
-0.085
-0.095
-0.105
-0.11
-0.085
-0.095
-0.095
-0.1
-0.085
-0.08
-0.095
-0.11
-0.09
-0.1
-0.1
-0.115
-0.115
-0.085
-0.085
-0.065
-0.08
-0.085
-0.1
-0.1
-0.095
-0.09
-0.075
-0.12
-0.11
-0.12
-0.105
-0.105
-0.11
-0.09
-0.095
-0.1
-0.085
-0.09
-0.09
-0.09
-0.09
-0.09
-0.095
-0.1
-0.11
-0.085
-0.08
-0.08
-0.07
-0.065
-0.085
-0.07
-0.04
-0.055
-0.045
-0.05
-0.065
-0.07
-0.08
-0.05
-0.02
-0.005
0.0
0.015
-0.005
0.0
0.03
-0.015
-0.01
0.0
0.005
-0.01
0.005
-0.03
-0.005
-0.01
-0.005
-0.015
-0.015
-0.005
-0.005
-0.03
-0.045
-0.045
-0.03
-0.03
-0.06
-0.095
-0.065
-0.06
-0.08
-0.085
-0.085
-0.11
-0.125
-0.08
-0.105
-0.105
-0.105
-0.11
-0.11
-0.12
-0.105
-0.105
-0.105
-0.145
-0.105
-0.095
-0.115
-0.08
-0.08
-0.1
-0.105
-0.11
-0.11
-0.095
-0.1
-0.105
-0.095
-0.105
-0.065
-0.005
0.07
0.155
0.22
0.33
0.395
0.53
0.67
0.755
0.8
0.83
0.86
0.775
0.72
0.66
0.475
0.305
0.155
0.035
-0.04
-0.145
-0.355
-0.405
-0.35
-0.29
-0.265
-0.2
-0.13
-0.135
-0.105
-0.11
-0.1
-0.08
-0.085
-0.07
-0.08
-0.065
-0.08
-0.1
-0.12
-0.09
-0.065
-0.07
-0.06
-0.07
-0.07
-0.085
-0.05
-0.045
-0.08
-0.075
-0.09
-0.075
-0.045
-0.04
-0.035
-0.06
-0.07
-0.06
-0.045
-0.07
-0.04
-0.01
-0.005
-0.025
-0.02
-0.025
-0.005
-0.01
-0.035
-0.03
-0.03
-0.005
0.0
0.01
-0.02
-0.005
0.02
0.015
0.0
0.015
0.005
0.035
0.07
0.05
0.045
0.055
0.045
0.045
0.045
0.06
0.085
0.075
0.075
0.08
0.105
0.125
0.115
0.11
0.11
0.12
0.14
0.155
0.18
0.17
0.195
0.2
0.205
0.215
0.225
0.225
0.235
0.26
0.265
0.275
0.305
0.28
0.315
0.32
0.34
0.37
0.375
0.34
0.37
0.365
0.355
0.4
0.4
0.405
0.405
0.395
0.365
0.37
0.37
0.365
0.355
0.355
0.355
0.335
0.29
0.285
0.295
0.285
0.25
0.235
0.19
0.19
0.185
0.15
0.145
0.125
0.11
0.105
0.085
0.06
0.035
0.07
0.04
0.0
0.015
-0.005
-0.015
0.0
-0.015
-0.035
-0.03
-0.04
-0.045
-0.05
-0.065
-0.065
-0.05
-0.055
-0.035
-0.055
-0.085
-0.065
-0.07
-0.08
-0.04
-0.05
-0.07
-0.055
-0.06
-0.075
-0.07
-0.075
-0.045
-0.065
-0.07
-0.055
-0.065
-0.08
-0.07
-0.085
-0.08
-0.065
-0.065
-0.065
-0.07
-0.08
-0.06
-0.075
-0.065
-0.07
-0.055
-0.045
-0.085
-0.05
-0.08
-0.105
-0.095
-0.085
-0.065
-0.085
-0.05
-0.085
-0.07
-0.055
-0.06
-0.06
-0.045
-0.075
-0.07
-0.055
-0.07
-0.045
-0.05
-0.075
-0.04
-0.075
-0.08
-0.075
-0.055
-0.07
-0.075
-0.035
-0.06
-0.04
-0.045
-0.07
-0.055
-0.095
-0.095
-0.095
-0.07
-0.04
-0.06
-0.065
-0.045
-0.065
-0.06
-0.08
-0.03
-0.075
-0.055
-0.065
-0.075
-0.1
-0.075
-0.08
-0.085
-0.08
-0.065
-0.06
-0.08
-0.085
-0.08
-0.065
-0.05
-0.09
-0.07
-0.06
-0.1
-0.075
-0.09
-0.07
-0.065
-0.085
-0.09
-0.09
-0.055
-0.065
-0.085
-0.1
-0.09
-0.075
-0.09
-0.055
-0.05
-0.135
-0.095
-0.085
-0.05
-0.06
-0.095
-0.065
-0.085
-0.075
-0.08
-0.085
-0.115
-0.085
-0.095
-0.085
-0.06
-0.065
-0.105
-0.11
-0.055
-0.055
-0.11
-0.075
-0.085
-0.095
-0.085
-0.11
-0.115
-0.085
-0.085
-0.085
-0.075
-0.07
-0.08
-0.085
-0.09
-0.07
-0.085
-0.07
-0.07
-0.095
-0.07
-0.065
-0.09
-0.085
-0.105
-0.095
-0.04
-0.065
-0.08
-0.07
-0.045
-0.03
-0.05
-0.03
-0.045
-0.04
-0.065
-0.045
-0.07
-0.045
-0.02
-0.045
0.005
0.04
0.035
0.035
0.025
0.025
-0.01
0.01
0.025
0.025
0.01
0.02
0.025
0.025
0.005
-0.015
0.0
-0.01
0.0
0.005
-0.005
-0.01
0.0
-0.04
-0.04
-0.02
-0.055
-0.095
-0.045
-0.06
-0.095
-0.095
-0.095
-0.1
-0.115
-0.085
-0.08
-0.09
-0.075
-0.08
-0.09
-0.075
-0.09
-0.085
-0.08
-0.075
-0.08
-0.125
-0.085
-0.085
-0.095
-0.08
-0.1
-0.09
-0.085
-0.075
-0.085
-0.05
-0.035
-0.015
0.045
0.13
0.23
0.31
0.405
0.485
0.595
0.705
0.785
0.86
0.885
0.85
0.785
0.715
0.615
0.41
0.215
0.1
0.045
-0.05
-0.215
-0.345
-0.355
-0.315
-0.24
-0.21
-0.14
-0.115
-0.09
-0.08
-0.08
-0.05
-0.055
-0.06
-0.07
-0.065
-0.055
-0.06
-0.075
-0.09
-0.045
-0.055
-0.06
-0.075
-0.055
-0.06
-0.05
-0.045
-0.04
-0.065
-0.055
-0.065
-0.06
-0.03
-0.03
-0.035
-0.03
-0.015
0.0
-0.025
-0.015
-0.005
-0.02
-0.025
-0.01
-0.01
-0.005
-0.01
-0.015
0.02
0.035
0.025
0.04
0.045
0.03
0.015
0.02
0.015
0.005
0.02
0.015
0.045
0.05
0.035
0.07
0.065
0.07
0.065
0.065
0.055
0.085
0.13
0.115
0.11
0.1
0.135
0.135
0.12
0.14
0.145
0.145
0.155
0.17
0.21
0.2
0.2
0.215
0.245
0.27
0.25
0.29
0.285
0.275
0.3
0.33
0.32
0.34
0.355
0.37
0.345
0.365
0.37
0.385
0.41
0.41
0.405
0.395
0.41
0.415
0.39
0.405
0.44
0.415
0.405
0.375
0.38
0.375
0.385
0.37
0.34
0.345
0.315
0.28
0.245
0.25
0.22
0.205
0.23
0.15
0.155
0.145
0.115
0.11
0.075
0.06
0.08
0.065
0.035
0.0
0.025
0.025
0.02
-0.01
-0.015
-0.02
-0.035
0.005
-0.005
-0.04
-0.02
0.03
-0.055
-0.06
-0.04
-0.06
-0.035
-0.015
-0.02
-0.055
-0.025
-0.035
-0.045
-0.08
-0.06
-0.06
-0.06
-0.055
-0.055
-0.04
-0.055
-0.03
-0.065
-0.045
-0.05
-0.05
-0.05
-0.07
-0.05
-0.055
-0.045
-0.065
-0.065
-0.06
-0.06
-0.05
-0.055
-0.045
-0.055
-0.075
-0.03
-0.015
-0.07
-0.085
-0.07
-0.045
-0.05
-0.055
-0.06
-0.035
-0.045
-0.035
-0.03
-0.055
-0.055
-0.035
-0.055
-0.075
-0.05
-0.045
-0.04
-0.035
-0.035
-0.03
-0.07
-0.06
-0.06
-0.045
-0.055
-0.05
-0.07
-0.05
-0.05
-0.035
-0.01
-0.07
-0.055
-0.06
-0.035
-0.025
-0.03
-0.04
-0.04
-0.055
-0.045
-0.065
-0.05
-0.045
-0.075
-0.045
-0.045
-0.05
-0.04
-0.03
-0.045
-0.055
-0.06
-0.035
-0.065
-0.07
-0.065
-0.06
-0.065
-0.075
-0.05
-0.07
-0.07
-0.055
-0.055
-0.08
-0.07
-0.065
-0.05
-0.075
-0.06
-0.075
-0.045
-0.055
-0.045
-0.05
-0.055
-0.08
-0.07
-0.065
-0.055
-0.06
-0.06
-0.08
-0.085
-0.04
-0.06
-0.075
-0.065
-0.055
-0.06
-0.075
-0.07
-0.04
-0.07
-0.09
-0.055
-0.075
-0.085
-0.085
-0.04
-0.035
-0.055
-0.085
-0.07
-0.065
-0.06
-0.09
-0.065
-0.075
-0.045
-0.03
-0.065
-0.07
-0.075
-0.07
-0.04
-0.07
-0.075
-0.055
-0.07
-0.075
-0.06
-0.065
-0.07
-0.065
-0.075
-0.08
-0.07
-0.06
-0.07
-0.055
-0.065
-0.06
-0.07
-0.055
-0.04
-0.085
-0.07
-0.065
-0.065
-0.045
-0.02
-0.025
-0.03
-0.025
-0.005
-0.005
-0.015
-0.025
-0.03
-0.035
-0.025
0.015
0.0
0.025
0.02
0.045
0.055
0.07
0.035
0.05
0.04
0.04
0.015
0.055
0.04
0.04
0.045
0.025
-0.035
0.02
0.03
0.025
0.0
0.02
0.01
0.005
-0.02
-0.015
-0.015
-0.035
-0.06
-0.09
-0.095
-0.065
-0.08
-0.095
-0.05
-0.055
-0.075
-0.08
-0.085
-0.07
-0.09
-0.06
-0.065
-0.09
-0.085
-0.08
-0.085
-0.105
-0.085
-0.065
-0.085
-0.06
-0.07
-0.075
-0.05
-0.1
-0.08
-0.06
-0.07
-0.065
-0.005
0.085
0.145
0.225
0.35
0.44
0.525
0.655
0.76
0.82
0.88
0.895
0.84
0.775
0.71
0.57
0.37
0.205
0.075
0.045
-0.08
-0.265
-0.35
-0.345
-0.32
-0.275
-0.2
-0.13
-0.08
-0.1
-0.085
-0.08
-0.07
-0.055
-0.005
-0.01
-0.05
-0.065
-0.05
-0.05
-0.035
-0.045
-0.055
-0.08
-0.07
-0.03
-0.03
-0.03
-0.035
-0.045
-0.045
-0.025
-0.035
-0.015
-0.025
-0.03
-0.015
-0.01
-0.005
-0.015
-0.015
-0.025
-0.035
0.0
0.02
0.0
-0.01
0.015
0.02
0.02
0.03
0.04
0.025
0.03
0.03
0.05
0.045
0.05
0.04
0.03
0.04
0.08
0.075
0.07
0.06
0.07
0.055
0.115
0.095
0.095
0.105
0.135
0.12
0.105
0.095
0.13
0.135
0.16
0.15
0.155
0.18
0.175
0.185
0.185
0.23
0.215
0.21
0.22
0.27
0.275
0.275
0.28
0.3
0.305
0.315
0.325
0.335
0.355
0.36
0.365
0.375
0.385
0.395
0.425
0.415
0.39
0.41
0.435
0.42
0.435
0.41
0.42
0.42
0.45
0.4
0.395
0.4
0.38
0.395
0.37
0.365
0.355
0.33
0.3
0.28
0.26
0.245
0.22
0.21
0.19
0.195
0.16
0.125
0.13
0.105
0.095
0.11
0.06
0.045
0.06
0.06
0.005
0.02
0.035
0.025
-0.005
0.005
-0.01
-0.01
0.02
0.005
-0.035
-0.045
-0.015
-0.03
-0.02
-0.025
-0.04
-0.045
-0.06
-0.055
-0.035
-0.045
-0.025
-0.03
-0.035
-0.065
-0.06
-0.055
-0.05
-0.03
-0.045
-0.05
-0.025
-0.045
-0.06
-0.045
-0.04
-0.055
-0.04
-0.05
-0.065
-0.055
-0.045
-0.035
-0.035
-0.06
-0.055
-0.035
-0.015
-0.03
-0.05
-0.045
-0.04
-0.05
-0.035
-0.035
-0.05
-0.065
-0.035
-0.035
-0.025
-0.045
-0.03
-0.06
-0.04
-0.025
-0.025
-0.04
-0.01
-0.04
-0.045
-0.06
-0.01
-0.045
-0.045
-0.015
-0.015
-0.05
-0.045
-0.035
-0.07
-0.075
-0.055
-0.025
-0.04
-0.03
-0.05
-0.04
-0.035
-0.045
-0.065
-0.05
-0.05
-0.065
-0.055
-0.05
-0.075
-0.06
-0.05
-0.03
-0.055
-0.04
-0.05
-0.05
-0.065
-0.05
-0.04
-0.06
-0.045
-0.04
-0.07
-0.07
-0.085
-0.06
-0.065
-0.07
-0.055
-0.08
-0.05
-0.055
-0.05
-0.015
-0.05
-0.07
-0.09
-0.065
-0.05
-0.06
-0.09
-0.075
-0.095
-0.07
-0.065
-0.08
-0.09
-0.07
-0.07
-0.07
-0.07
-0.07
-0.07
-0.075
-0.075
-0.095
-0.065
-0.075
-0.075
-0.08
-0.075
-0.045
-0.09
-0.075
-0.06
-0.07
-0.085
-0.06
-0.095
-0.07
-0.06
-0.07
-0.085
-0.08
-0.09
-0.07
-0.065
-0.075
-0.085
-0.075
-0.07
-0.06
-0.075
-0.085
-0.06
-0.045
-0.03
-0.035
-0.04
-0.04
-0.03
-0.045
-0.04
-0.02
-0.03
-0.025
-0.01
0.0
0.02
0.015
0.035
0.045
0.045
0.025
0.025
0.01
0.02
0.04
0.045
0.05
0.04
-0.005
-0.015
0.0
-0.015
-0.01
-0.03
-0.04
-0.04
-0.03
0.01
-0.02
-0.015
-0.065
-0.065
-0.075
-0.075
-0.085
-0.07
-0.08
-0.095
-0.105
-0.075
-0.065
-0.075
-0.08
-0.09
-0.08
-0.065
-0.08
-0.08
-0.09
-0.08
-0.08
-0.08
-0.09
-0.055
-0.1
-0.075
-0.065
-0.07
-0.06
-0.065
-0.08
-0.065
-0.005
0.04
0.085
0.16
0.255
0.345
0.455
0.55
0.665
0.73
0.795
0.855
0.845
0.745
0.67
0.615
0.425
0.23
0.12
-0.015
-0.15
-0.31
-0.4
-0.395
-0.355
-0.305
-0.255
-0.2
-0.155
-0.115
-0.105
-0.06
-0.05
-0.065
-0.03
-0.045
-0.06
-0.045
-0.055
-0.06
-0.03
-0.02
-0.035
-0.065
-0.05
-0.04
-0.045
-0.045
-0.04
-0.05
-0.045
-0.035
-0.035
-0.015
-0.02
-0.015
-0.035
-0.03
-0.025
-0.03
0.0
-0.025
-0.01
0.0
0.01
-0.01
-0.015
-0.015
-0.02
0.025
0.03
0.0
0.025
0.035
0.0
0.015
0.055
0.05
0.025
0.045
0.035
0.06
0.075
0.06
0.06
0.045
0.065
0.06
0.085
0.085
0.085
0.105
0.1
0.095
0.115
0.115
0.12
0.135
0.135
0.17
0.16
0.165
0.18
0.175
0.21
0.2
0.2
0.235
0.245
0.24
0.26
0.24
0.27
0.31
0.295
0.335
0.32
0.35
0.365
0.34
0.37
0.365
0.4
0.41
0.41
0.395
0.365
0.41
0.435
0.415
0.42
0.425
0.405
0.41
0.405
0.395
0.4
0.395
0.37
0.35
0.345
0.315
0.305
0.27
0.28
0.265
0.25
0.24
0.19
0.18
0.15
0.135
0.125
0.105
0.11
0.11
0.06
0.03
0.02
0.035
0.025
-0.005
0.005
-0.01
-0.01
-0.035
-0.02
-0.03
-0.035
-0.025
-0.015
-0.01
-0.015
-0.03
-0.06
-0.08
-0.065
-0.07
-0.07
-0.03
-0.03
-0.055
-0.055
-0.03
-0.075
-0.065
-0.05
-0.07
-0.065
-0.07
-0.08
-0.07
-0.065
-0.065
-0.055
-0.035
-0.06
-0.065
-0.06
-0.07
-0.055
-0.08
-0.065
-0.03
-0.035
-0.05
-0.045
-0.075
-0.06
-0.015
-0.015
-0.045
-0.045
-0.065
-0.07
-0.07
-0.05
-0.055
-0.035
-0.035
-0.02
-0.045
-0.035
0.0
-0.02
-0.01
-0.02
-0.055
-0.035
-0.035
-0.035
-0.025
-0.035
-0.025
-0.05
-0.03
-0.03
-0.03
-0.055
-0.01
0.01
-0.025
-0.03
-0.01
-0.05
-0.025
-0.04
-0.03
-0.04
-0.035
-0.03
-0.045
-0.04
-0.02
-0.03
-0.04
-0.035
-0.045
-0.045
-0.055
-0.03
-0.055
-0.02
-0.02
-0.055
-0.045
-0.035
-0.05
-0.075
-0.07
-0.045
-0.03
-0.025
-0.045
-0.055
-0.035
-0.04
-0.04
-0.07
-0.065
-0.04
-0.035
-0.035
-0.04
-0.035
-0.055
-0.04
-0.045
-0.04
-0.06
-0.08
-0.06
-0.055
-0.05
-0.045
-0.035
-0.04
-0.055
-0.05
-0.06
-0.06
-0.04
-0.045
-0.035
-0.03
-0.035
-0.035
-0.06
-0.085
-0.045
-0.05
-0.045
-0.045
-0.07
-0.08
-0.045
-0.03
-0.05
-0.025
-0.01
-0.03
-0.025
-0.015
0.0
-0.02
0.0
-0.005
-0.015
0.0
0.015
0.015
0.025
0.015
0.03
0.04
0.055
0.05
0.025
0.04
0.06
0.065
0.065
0.045
0.03
0.05
0.045
0.035
0.04
0.015
0.04
0.025
0.0
0.01
-0.01
0.015
0.01
-0.01
-0.035
-0.04
-0.055
-0.035
-0.06
-0.045
-0.075
-0.065
-0.055
-0.055
-0.045
-0.055
-0.05
-0.07
-0.065
-0.045
-0.065
-0.05
-0.045
-0.06
-0.08
-0.075
-0.06
-0.045
-0.045
-0.05
-0.055
-0.045
-0.085
-0.065
-0.035
-0.015
0.0
0.03
0.105
0.19
0.275
0.355
0.44
0.545
0.64
0.75
0.815
0.835
0.835
0.77
0.71
0.64
0.485
0.305
0.145
0.015
-0.08
-0.195
-0.325
-0.355
-0.335
-0.295
-0.23
-0.185
-0.145
-0.08
-0.06
-0.065
-0.045
-0.015
-0.015
-0.02
-0.025
-0.025
-0.04
-0.025
-0.015
-0.035
-0.015
-0.01
-0.03
-0.03
-0.035
-0.03
-0.03
-0.015
0.02
0.0
0.0
-0.03
-0.035
-0.02
0.0
-0.015
0.005
0.015
0.0
0.015
0.03
0.015
0.02
0.04
0.04
0.04
0.03
0.035
0.04
0.04
0.035
0.03
0.05
0.04
0.05
0.07
0.085
0.05
0.06
0.08
0.1
0.095
0.08
0.085
0.09
0.07
0.085
0.115
0.09
0.1
0.11
0.14
0.145
0.15
0.14
0.145
0.17
0.19
0.17
0.185
0.205
0.205
0.215
0.225
0.225
0.225
0.26
0.28
0.28
0.28
0.28
0.29
0.325
0.325
0.35
0.36
0.36
0.36
0.38
0.41
0.425
0.445
0.42
0.42
0.39
0.415
0.42
0.44
0.425
0.43
0.425
0.415
0.43
0.42
0.405
0.41
0.395
0.39
0.35
0.33
0.34
0.33
0.295
0.28
0.245
0.235
0.23
0.2
0.205
0.195
0.175
0.155
0.13
0.11
0.09
0.09
0.09
0.075
0.065
0.065
0.04
0.02
0.03
0.02
0.015
-0.015
0.005
0.02
0.005
0.005
-0.015
-0.025
0.0
-0.025
-0.015
-0.035
0.005
-0.02
-0.005
-0.025
-0.025
-0.005
0.0
-0.03
-0.03
-0.04
-0.04
-0.02
0.005
-0.02
-0.015
-0.02
-0.01
-0.035
-0.045
-0.03
-0.035
-0.035
-0.045
-0.03
-0.005
-0.035
-0.015
-0.035
-0.02
-0.02
0.0
-0.01
-0.015
0.005
-0.035
-0.03
-0.025
-0.01
-0.01
-0.015
-0.005
0.0
-0.03
-0.01
-0.02
0.0
-0.01
-0.015
0.01
0.015
-0.01
-0.025
-0.02
-0.02
-0.015
-0.015
0.015
0.0
0.0
-0.02
-0.02
-0.01
-0.025
-0.03
-0.015
-0.005
-0.02
-0.035
-0.015
0.0
-0.01
-0.03
-0.005
0.0
0.01
-0.01
-0.015
-0.04
-0.05
-0.01
0.01
-0.03
-0.025
-0.035
-0.045
-0.02
-0.02
-0.01
-0.025
-0.04
-0.035
-0.02
-0.005
-0.03
-0.045
-0.02
-0.04
-0.025
-0.035
-0.045
-0.03
-0.01
-0.005
0.005
-0.025
-0.02
-0.045
-0.06
-0.07
-0.045
-0.025
-0.01
-0.01
-0.02
-0.025
-0.025
-0.025
-0.055
-0.055
-0.035
-0.055
-0.035
-0.025
-0.05
-0.04
-0.015
-0.035
-0.04
-0.025
-0.01
-0.03
-0.035
-0.02
-0.015
-0.025
-0.05
-0.055
-0.05
-0.045
-0.04
-0.03
-0.04
-0.025
-0.045
-0.06
-0.015
-0.02
-0.045
-0.035
-0.03
-0.035
-0.005
-0.005
-0.01
-0.025
-0.015
0.015
0.025
0.03
-0.015
0.01
-0.015
0.0
0.005
0.025
0.025
0.05
0.07
0.09
0.08
0.07
0.065
0.055
0.055
0.04
0.06
0.055
0.04
0.07
0.075
0.06
0.06
0.045
0.02
0.045
0.045
0.04
0.02
0.02
0.015
0.015
-0.005
-0.005
-0.02
-0.05
-0.03
-0.04
-0.06
-0.045
-0.03
-0.025
-0.03
-0.045
-0.06
-0.055
-0.04
-0.045
-0.005
-0.035
-0.05
-0.04
-0.05
-0.045
-0.06
-0.065
-0.055
-0.045
-0.035
-0.04
-0.045
-0.01
-0.01
-0.05
-0.02
0.025
0.045
0.12
0.215
0.33
0.425
0.53
0.61
0.715
0.785
0.855
0.885
0.865
0.765
0.73
0.645
0.445
0.26
0.135
0.025
-0.04
-0.19
-0.32
-0.34
-0.295
-0.255
-0.195
-0.12
-0.105
-0.065
-0.035
-0.045
-0.06
-0.015
-0.015
-0.01
0.01
-0.01
-0.005
-0.03
-0.02
0.01
-0.025
-0.03
-0.005
-0.02
-0.015
-0.01
0.01
0.005
0.025
0.005
0.005
-0.01
0.005
-0.005
0.03
0.03
0.02
0.035
0.015
-0.015
0.01
0.015
0.04
0.035
0.01
0.015
0.045
0.04
0.05
0.055
0.055
0.055
0.085
0.06
0.045
0.08
0.07
0.08
0.09
0.11
0.085
0.07
0.09
0.085
0.1
0.135
0.125
0.115
0.105
0.135
0.11
0.125
0.15
0.145
0.165
0.16
0.175
0.18
0.185
0.195
0.205
0.215
0.205
0.21
0.25
0.265
0.27
0.27
0.28
0.3
0.32
0.315
0.32
0.335
0.345
0.375
0.38
0.385
0.37
0.4
0.39
0.43
0.415
0.415
0.425
0.435
0.43
0.43
0.445
0.425
0.425
0.45
0.45
0.425
0.425
0.42
0.4
0.37
0.38
0.35
0.31
0.325
0.29
0.29
0.29
0.255
0.225
0.21
0.205
0.185
0.185
0.145
0.14
0.14
0.13
0.09
0.09
0.075
0.07
0.065
0.05
0.025
0.04
0.04
0.075
0.0
0.0
0.01
0.015
0.015
0.01
-0.015
0.0
0.015
0.0
0.005
0.01
0.005
-0.005
-0.04
-0.005
0.0
-0.035
-0.025
-0.005
0.0
-0.01
-0.015
-0.02
-0.005
-0.025
-0.015
-0.03
-0.03
-0.03
0.01
-0.02
-0.02
-0.025
-0.01
0.005
-0.01
-0.025
-0.03
-0.005
0.0
-0.025
-0.02
-0.025
-0.03
-0.005
-0.01
-0.005
-0.005
-0.01
0.005
-0.035
-0.025
0.01
0.01
0.02
0.005
-0.015
-0.02
-0.03
0.005
0.005
-0.005
0.0
0.0
0.015
0.005
-0.01
0.0
-0.005
0.01
0.005
0.005
0.035
-0.005
-0.005
-0.01
-0.015
-0.03
-0.035
-0.01
-0.04
0.015
-0.015
-0.02
0.005
-0.01
-0.01
0.015
0.0
-0.015
-0.015
-0.03
-0.015
-0.02
0.005
0.0
-0.035
-0.025
-0.01
-0.015
-0.015
-0.02
-0.01
0.01
-0.02
-0.03
-0.04
-0.035
-0.01
-0.02
-0.005
-0.06
-0.02
-0.03
-0.02
-0.03
-0.015
-0.025
-0.005
-0.02
-0.03
-0.04
-0.04
-0.04
-0.01
-0.025
-0.03
-0.03
-0.04
-0.03
-0.045
-0.02
-0.02
-0.03
-0.03
-0.04
-0.015
-0.015
-0.045
-0.03
-0.01
-0.035
-0.035
-0.015
-0.025
-0.025
-0.035
-0.03
-0.025
-0.015
-0.02
-0.025
-0.025
-0.05
-0.035
-0.04
-0.04
-0.02
-0.04
-0.03
-0.045
-0.045
-0.07
-0.01
-0.005
-0.01
-0.03
-0.01
0.01
-0.005
0.0
-0.01
0.015
0.02
0.01
0.0
0.015
0.005
-0.005
-0.01
0.01
0.04
0.065
0.085
0.08
0.07
0.09
0.09
0.04
0.025
0.045
0.08
0.055
0.055
0.055
0.055
0.045
0.055
0.055
0.04
0.035
0.03
0.045
0.025
0.025
0.015
0.03
0.015
0.0
-0.01
-0.04
-0.03
-0.05
-0.04
-0.04
-0.045
-0.025
-0.035
-0.05
-0.055
-0.035
-0.025
-0.035
-0.035
-0.035
-0.05
-0.095
-0.055
-0.045
-0.055
-0.045
-0.04
-0.045
-0.04
-0.015
-0.05
-0.05
-0.03
-0.03
-0.05
-0.04
0.005
0.05
0.18
0.27
0.315
0.41
0.53
0.63
0.725
0.805
0.86
0.875
0.85
0.765
0.725
0.625
0.445
0.245
0.13
0.03
-0.095
-0.23
-0.345
-0.325
-0.27
-0.245
-0.2
-0.095
-0.085
-0.075
-0.075
-0.07
-0.025
0.0
0.02
-0.005
-0.035
-0.01
0.0
-0.015
-0.025
-0.03
-0.005
-0.02
-0.03
-0.01
-0.01
-0.02
-0.01
-0.01
-0.02
-0.02
-0.015
-0.01
-0.01
0.025
-0.01
0.005
-0.01
0.015
0.0
-0.01
0.02
0.01
0.04
0.015
0.04
0.025
0.035
0.035
0.045
0.06
0.02
0.01
0.045
0.07
0.07
0.075
0.065
0.065
0.05
0.07
0.115
0.105
0.075
0.065
0.09
0.085
0.1
0.12
0.11
0.135
0.125
0.105
0.115
0.135
0.16
0.18
0.165
0.18
0.185
0.19
0.205
0.17
0.21
0.21
0.22
0.23
0.25
0.255
0.285
0.3
0.3
0.3
0.31
0.345
0.36
0.355
0.35
0.36
0.375
0.405
0.395
0.405
0.385
0.405
0.415
0.42
0.43
0.425
0.445
0.415
0.42
0.42
0.42
0.41
0.41
0.4
0.405
0.375
0.345
0.345
0.34
0.315
0.295
0.255
0.275
0.25
0.22
0.175
0.205
0.17
0.165
0.135
0.16
0.12
0.105
0.04
0.065
0.075
0.05
0.035
0.045
0.045
0.03
0.01
0.025
0.02
0.02
-0.01
0.005
0.005
-0.03
-0.015
-0.025
-0.015
-0.015
-0.015
-0.01
-0.045
-0.04
-0.045
-0.025
-0.04
-0.02
-0.03
-0.02
-0.015
-0.03
-0.045
-0.02
-0.05
-0.025
-0.005
0.0
-0.04
-0.055
-0.04
-0.055
-0.04
-0.045
-0.055
-0.045
-0.035
-0.015
-0.015
-0.01
-0.015
-0.045
-0.02
-0.015
-0.04
-0.035
-0.02
-0.025
-0.01
-0.02
-0.035
-0.02
-0.025
-0.03
-0.025
-0.035
0.015
-0.015
-0.02
-0.02
-0.03
-0.01
-0.035
-0.03
-0.005
-0.03
-0.045
0.0
0.005
-0.035
-0.025
-0.025
-0.045
-0.025
-0.005
-0.02
-0.025
-0.025
-0.045
-0.06
-0.03
-0.04
-0.04
-0.035
-0.045
-0.025
-0.03
-0.015
-0.03
-0.06
-0.01
-0.015
-0.025
-0.035
-0.04
-0.035
-0.01
-0.035
-0.04
-0.065
-0.035
-0.04
-0.05
-0.045
-0.035
-0.05
-0.045
-0.045
-0.045
-0.08
-0.045
-0.02
-0.05
-0.08
-0.055
-0.06
-0.055
-0.03
-0.055
-0.055
-0.065
-0.07
-0.065
-0.07
-0.06
-0.06
-0.05
-0.04
-0.03
-0.025
-0.05
-0.055
-0.05
-0.075
-0.075
-0.055
-0.065
-0.06
-0.05
-0.065
-0.085
-0.055
-0.06
-0.025
-0.045
-0.07
-0.055
-0.05
-0.06
-0.07
-0.055
-0.05
-0.03
-0.03
-0.025
-0.025
-0.01
-0.02
-0.005
-0.02
-0.025
-0.025
-0.01
-0.02
-0.015
0.01
0.02
0.025
0.05
0.055
0.065
0.015
-0.01
0.015
0.04
0.03
0.04
0.035
0.035
0.04
0.035
-0.01
-0.01
0.01
0.02
0.01
0.025
0.01
0.0
0.0
-0.015
-0.04
-0.015
-0.065
-0.065
-0.07
-0.065
-0.05
-0.06
-0.06
-0.07
-0.09
-0.05
-0.07
-0.075
-0.065
-0.105
-0.085
-0.095
-0.065
-0.065
-0.085
-0.03
-0.05
-0.07
-0.045
-0.07
-0.08
-0.07
-0.06
-0.035
-0.055
-0.035
-0.02
-0.005
0.025
0.09
0.17
0.255
0.34
0.425
0.525
0.61
0.72
0.77
0.82
0.835
0.725
0.66
0.6
0.405
0.255
0.13
0.015
-0.125
-0.255
-0.365
-0.375
-0.305
-0.305
-0.285
-0.215
-0.165
-0.11
-0.085
-0.085
-0.055
-0.035
-0.045
-0.03
-0.02
-0.04
-0.035
-0.04
-0.02
-0.015
-0.015
-0.005
-0.04
-0.02
-0.02
0.005
-0.015
-0.01
-0.005
0.01
0.015
0.005
0.025
0.02
0.025
0.0
0.005
0.04
0.03
0.045
0.045
0.03
0.035
0.05
0.06
0.07
0.015
0.03
0.03
0.075
0.045
0.06
0.08
0.085
0.045
0.05
0.045
0.07
0.105
0.11
0.11
0.105
0.1
0.1
0.115
0.115
0.095
0.085
0.12
0.165
0.145
0.145
0.165
0.18
0.15
0.165
0.16
0.195
0.195
0.2
0.21
0.195
0.235
0.255
0.235
0.255
0.265
0.295
0.295
0.305
0.31
0.305
0.335
0.37
0.365
0.36
0.395
0.39
0.395
0.405
0.4
0.385
0.42
0.45
0.405
0.43
0.455
0.44
0.45
0.455
0.42
0.445
0.445
0.45
0.43
0.405
0.42
0.395
0.35
0.355
0.32
0.325
0.31
0.27
0.255
0.255
0.235
0.23
0.22
0.2
0.18
0.16
0.15
0.12
0.1
0.105
0.11
0.06
0.075
0.06
0.05
0.05
0.045
0.04
0.025
0.035
0.01
0.025
0.045
0.045
-0.01
0.0
0.005
-0.005
-0.01
-0.01
-0.03
0.01
-0.02
-0.025
-0.005
0.01
-0.01
0.015
-0.015
-0.01
-0.015
0.01
-0.035
0.005
-0.02
-0.02
-0.02
-0.015
0.0
-0.02
-0.005
-0.005
0.0
0.025
-0.01
-0.055
-0.04
-0.015
0.015
0.01
0.03
0.015
-0.01
0.005
0.01
0.025
0.025
0.025
-0.03
0.0
0.005
0.02
0.015
0.015
-0.005
-0.005
0.0
-0.015
0.015
0.0
-0.005
0.015
0.015
-0.015
0.0
0.0
0.02
-0.01
0.0
0.015
0.01
0.025
0.0
-0.01
-0.03
-0.01
0.025
0.005
-0.005
-0.005
-0.015
-0.005
0.02
-0.005
0.0
0.0
-0.005
-0.02
-0.01
-0.01
0.0
-0.005
-0.005
-0.005
0.0
-0.02
-0.005
-0.02
0.01
-0.015
-0.035
-0.025
-0.015
-0.015
-0.035
-0.01
-0.015
-0.035
-0.065
-0.025
-0.03
0.015
-0.015
-0.04
-0.04
-0.005
-0.005
-0.01
-0.045
-0.015
-0.035
-0.045
0.0
-0.035
-0.03
-0.015
-0.025
-0.03
-0.015
-0.015
-0.01
-0.035
-0.055
-0.045
-0.04
-0.025
-0.01
-0.03
-0.045
-0.05
-0.035
-0.05
-0.065
-0.03
-0.04
-0.02
-0.015
-0.02
-0.045
-0.01
-0.035
0.005
0.025
-0.005
-0.015
0.0
0.02
0.0
0.005
0.0
-0.015
0.005
0.02
0.035
0.055
0.08
0.065
0.065
0.085
0.07
0.05
0.05
0.05
0.055
0.065
0.03
0.03
0.05
0.05
0.05
0.035
0.025
0.025
0.005
0.015
0.04
0.02
0.02
0.025
0.0
0.01
-0.005
-0.015
-0.05
-0.055
-0.025
-0.045
-0.02
-0.02
-0.05
-0.045
-0.045
-0.05
-0.045
-0.025
-0.05
-0.055
-0.06
-0.08
-0.07
-0.05
-0.03
-0.06
-0.055
-0.045
-0.05
-0.06
-0.045
-0.05
-0.05
-0.045
-0.045
0.03
0.025
0.145
0.225
0.315
0.37
0.455
0.54
0.655
0.76
0.785
0.805
0.81
0.74
0.665
0.605
0.475
0.265
0.13
0.07
-0.02
-0.17
-0.29
-0.315
-0.33
-0.27
-0.22
-0.195
-0.13
-0.09
-0.09
-0.055
-0.055
-0.065
-0.05
-0.03
-0.01
-0.01
-0.015
-0.025
-0.02
-0.035
-0.07
-0.025
-0.005
-0.04
-0.005
-0.015
-0.025
-0.03
-0.03
-0.01
-0.02
-0.04
-0.04
-0.01
-0.005
0.0
-0.01
0.03
0.01
0.03
-0.005
0.015
0.015
0.02
0.025
0.005
0.04
0.015
0.02
0.03
0.03
0.035
0.055
0.045
0.075
0.065
0.06
0.06
0.065
0.08
0.075
0.075
0.065
0.105
0.095
0.105
0.105
0.11
0.105
0.115
0.1
0.09
0.13
0.15
0.14
0.175
0.18
0.2
0.175
0.175
0.175
0.21
0.2
0.205
0.225
0.24
0.25
0.25
0.25
0.275
0.295
0.285
0.335
0.325
0.34
0.335
0.335
0.355
0.4
0.4
0.425
0.4
0.4
0.4
0.4
0.42
0.415
0.405
0.43
0.42
0.405
0.395
0.41
0.41
0.4
0.385
0.395
0.36
0.345
0.375
0.34
0.31
0.285
0.265
0.24
0.195
0.235
0.215
0.185
0.16
0.165
0.135
0.12
0.13
0.1
0.1
0.07
0.055
0.055
0.065
0.045
0.035
0.045
0.025
0.02
0.03
0.02
0.015
0.005
-0.02
-0.005
-0.025
0.005
0.0
-0.015
-0.01
0.01
-0.025
-0.035
-0.02
-0.04
-0.03
-0.02
-0.035
-0.035
0.0
-0.015
-0.03
-0.02
-0.015
-0.025
-0.05
-0.03
-0.005
-0.01
-0.02
0.005
-0.025
-0.03
-0.01
-0.025
-0.02
-0.005
0.0
-0.02
-0.015
-0.02
-0.025
-0.035
-0.015
-0.02
-0.045
-0.025
-0.035
-0.02
-0.015
-0.015
-0.015
-0.015
-0.01
-0.015
-0.015
-0.005
0.005
-0.01
-0.02
-0.025
-0.01
-0.005
-0.035
-0.03
-0.025
-0.025
-0.035
-0.015
-0.01
-0.03
-0.005
0.005
-0.02
-0.025
-0.01
-0.02
-0.035
-0.005
-0.015
-0.045
-0.02
-0.02
-0.03
-0.05
-0.04
-0.035
-0.02
-0.055
0.005
-0.025
-0.01
-0.035
-0.04
-0.03
-0.025
-0.025
-0.045
-0.04
-0.025
-0.025
-0.03
-0.025
-0.045
-0.02
-0.035
-0.04
-0.035
-0.05
-0.04
-0.05
-0.06
-0.045
-0.05
-0.025
-0.045
-0.035
-0.055
-0.06
-0.025
-0.035
-0.06
-0.04
-0.045
-0.06
-0.065
-0.055
-0.035
-0.035
-0.03
-0.035
-0.06
-0.045
-0.07
-0.065
-0.05
-0.055
-0.055
-0.05
-0.04
-0.045
-0.06
-0.035
-0.04
-0.05
-0.05
-0.03
-0.035
-0.02
-0.01
-0.03
-0.04
-0.04
-0.03
-0.005
-0.005
-0.01
-0.01
0.005
0.01
0.0
0.03
0.06
0.085
0.065
0.03
0.045
0.045
0.05
0.04
0.03
0.04
0.035
0.04
0.04
0.03
0.06
0.02
0.02
0.015
0.03
0.01
0.03
-0.01
0.005
-0.04
-0.04
-0.065
-0.03
-0.055
-0.045
-0.06
-0.08
-0.07
-0.085
-0.08
-0.07
-0.07
-0.045
-0.075
-0.065
-0.07
-0.07
-0.075
-0.055
-0.075
-0.07
-0.075
-0.05
-0.075
-0.08
-0.075
-0.04
-0.075
-0.08
-0.065
-0.025
-0.01
-0.005
0.01
0.035
0.12
0.185
0.285
0.4
0.49
0.57
0.685
0.79
0.83
0.875
0.81
0.74
0.68
0.61
0.455
0.225
0.1
0.03
-0.055
-0.22
-0.345
-0.345
-0.325
-0.28
-0.21
-0.15
-0.125
-0.085
-0.08
-0.085
-0.06
-0.03
-0.045
-0.045
-0.05
-0.05
-0.055
-0.025
-0.045
-0.06
-0.075
-0.065
-0.065
-0.035
-0.035
-0.045
-0.045
-0.035
-0.035
-0.02
-0.03
-0.04
-0.03
-0.03
-0.005
-0.035
-0.04
-0.025
-0.005
0.0
0.01
-0.01
0.005
0.02
-0.005
0.01
0.0
-0.01
0.005
0.0
0.01
0.05
0.025
0.02
0.02
0.025
0.035
0.05
0.035
0.04
0.06
0.06
0.035
0.07
0.08
0.07
0.08
0.09
0.08
0.07
0.09
0.11
0.1
0.15
0.135
0.11
0.135
0.14
0.13
0.175
0.19
0.17
0.195
0.215
0.22
0.225
0.225
0.23
0.235
0.235
0.26
0.295
0.305
0.335
0.34
0.335
0.335
0.36
0.345
0.36
0.365
0.38
0.355
0.38
0.405
0.41
0.41
0.41
0.385
0.395
0.37
0.375
0.395
0.38
0.38
0.38
0.385
0.335
0.335
0.3
0.3
0.255
0.245
0.235
0.22
0.2
0.21
0.185
0.175
0.11
0.11
0.11
0.105
0.09
0.04
0.045
0.035
0.03
0.025
0.025
0.025
0.015
-0.01
-0.04
-0.05
-0.055
-0.01
0.01
-0.015
-0.02
-0.055
-0.085
-0.09
-0.055
-0.045
-0.025
-0.04
-0.05
-0.06
-0.05
-0.045
-0.025
-0.085
-0.09
-0.06
-0.05
-0.055
-0.045
-0.055
-0.045
-0.07
-0.075
-0.06
-0.055
-0.05
-0.055
-0.055
-0.07
-0.075
-0.08
-0.06
-0.035
-0.04
-0.05
-0.055
-0.055
-0.03
-0.055
-0.08
-0.05
-0.05
-0.055
-0.06
-0.04
-0.05
-0.055
-0.035
-0.05
-0.08
-0.085
-0.055
-0.06
-0.015
-0.035
-0.045
-0.025
-0.065
-0.04
-0.05
-0.06
-0.06
-0.04
-0.035
-0.04
-0.05
-0.075
-0.05
-0.065
-0.055
-0.06
-0.07
-0.055
-0.065
-0.055
-0.055
-0.045
-0.05
-0.08
-0.06
-0.065
-0.07
-0.085
-0.08
-0.065
-0.065
-0.08
-0.06
-0.05
-0.06
-0.08
-0.055
-0.05
-0.045
-0.065
-0.07
-0.065
-0.08
-0.08
-0.065
-0.08
-0.095
-0.075
-0.075
-0.08
-0.06
-0.05
-0.08
-0.075
-0.08
-0.065
-0.08
-0.1
-0.09
-0.075
-0.075
-0.065
-0.07
-0.075
-0.085
-0.085
-0.1
-0.09
-0.07
-0.11
-0.1
-0.075
-0.1
-0.09
-0.075
-0.095
-0.08
-0.06
-0.085
-0.09
-0.085
-0.09
-0.095
-0.095
-0.08
-0.105
-0.105
-0.06
-0.08
-0.085
-0.07
-0.085
-0.1
-0.095
-0.07
-0.055
-0.085
-0.045
-0.03
-0.035
-0.045
-0.07
-0.06
-0.055
-0.035
-0.025
-0.035
-0.04
-0.02
-0.025
-0.015
0.015
0.035
0.015
-0.025
0.005
0.015
0.02
0.005
0.005
0.01
-0.015
-0.03
-0.035
-0.04
-0.015
-0.005
-0.015
-0.02
-0.035
-0.04
-0.025
-0.05
-0.065
-0.095
-0.085
-0.08
-0.105
-0.105
-0.125
-0.11
-0.12
-0.12
-0.135
-0.125
-0.11
-0.12
-0.125
-0.1
-0.105
-0.105
-0.095
-0.11
-0.12
-0.13
-0.14
-0.135
-0.125
-0.105
-0.095
-0.115
-0.135
-0.085
-0.09
-0.1
-0.1
-0.065
-0.01
0.05
0.125
0.23
0.325
0.395
0.485
0.63
0.715
0.775
0.805
0.8
0.745
0.72
0.62
0.44
0.25
0.11
-0.005
-0.11
-0.235
-0.395
-0.42
-0.36
-0.37
-0.295
-0.225
-0.17
-0.165
-0.125
-0.125
-0.1
-0.08
-0.08
-0.1
-0.11
-0.08
-0.08
-0.11
-0.085
-0.1
-0.105
-0.085
-0.085
-0.08
-0.09
-0.06
-0.09
-0.12
-0.1
-0.085
-0.09
-0.08
-0.055
-0.085
-0.07
-0.04
-0.07
-0.08
-0.08
-0.07
-0.03
-0.04
-0.06
-0.065
-0.05
-0.04
-0.03
-0.06
-0.05
-0.06
-0.02
-0.015
-0.025
-0.02
-0.035
0.0
-0.01
-0.035
-0.015
-0.01
-0.025
-0.005
0.005
0.025
0.025
0.03
0.01
0.015
0.035
0.05
0.05
0.075
0.045
0.045
0.025
0.085
0.095
0.085
0.105
0.105
0.125
0.135
0.135
0.15
0.175
0.18
0.165
0.19
0.18
0.19
0.2
0.24
0.25
0.265
0.265
0.265
0.255
0.28
0.29
0.3
0.33
0.335
0.305
0.335
0.335
0.31
0.33
0.345
0.34
0.345
0.335
0.315
0.315
0.33
0.305
0.32
0.31
0.285
0.24
0.275
0.25
0.23
0.205
0.19
0.165
0.145
0.13
0.125
0.07
0.075
0.065
0.085
0.06
0.07
0.025
0.025
0.015
0.01
-0.005
-0.02
0.005
-0.025
-0.035
-0.06
-0.06
-0.075
-0.06
-0.065
-0.085
-0.07
-0.085
-0.055
-0.09
-0.07
-0.07
-0.065
-0.095
-0.085
-0.095
-0.09
-0.085
-0.07
-0.07
-0.1
-0.095
-0.11
-0.12
-0.095
-0.075
-0.095
-0.085
-0.08
-0.07
-0.12
-0.115
-0.1
-0.11
-0.09
-0.07
-0.095
-0.1
-0.09
-0.085
-0.1
-0.08
-0.09
-0.105
-0.095
-0.075
-0.08
-0.09
-0.105
-0.12
-0.09
-0.065
-0.075
-0.09
-0.06
-0.09
-0.075
-0.09
-0.11
-0.11
-0.09
-0.085
-0.085
-0.07
-0.1
-0.08
-0.09
-0.085
-0.08
-0.105
-0.125
-0.11
-0.095
-0.08
-0.085
-0.1
-0.11
-0.075
-0.08
-0.12
-0.09
-0.095
-0.095
-0.09
-0.105
-0.12
-0.1
-0.12
-0.11
-0.11
-0.085
-0.1
-0.1
-0.085
-0.09
-0.115
-0.12
-0.095
-0.095
-0.1
-0.115
-0.12
-0.125
-0.12
-0.1
-0.1
-0.115
-0.1
-0.09
-0.12
-0.14
-0.12
-0.115
-0.13
-0.1
-0.105
-0.095
-0.13
-0.135
-0.11
-0.12
-0.145
-0.155
-0.12
-0.09
-0.09
-0.13
-0.105
-0.14
-0.1
-0.13
-0.11
-0.14
-0.125
-0.125
-0.125
-0.1
-0.12
-0.115
-0.115
-0.14
-0.14
-0.125
-0.11
-0.1
-0.115
-0.125
-0.08
-0.085
-0.1
-0.105
-0.07
-0.09
-0.08
-0.075
-0.085
-0.105
-0.065
-0.075
-0.08
-0.06
-0.05
-0.055
-0.035
-0.015
-0.02
-0.025
-0.025
-0.015
-0.055
-0.005
-0.02
-0.02
-0.06
-0.045
-0.04
-0.07
-0.06
-0.04
-0.06
-0.03
-0.06
-0.075
-0.08
-0.075
-0.09
-0.11
-0.075
-0.11
-0.095
-0.12
-0.125
-0.135
-0.13
-0.13
-0.16
-0.13
-0.125
-0.11
-0.11
-0.11
-0.13
-0.135
-0.115
-0.11
-0.155
-0.145
-0.13
-0.145
-0.12
-0.12
-0.125
-0.135
-0.1
-0.115
-0.125
-0.13
-0.105
-0.115
-0.08
-0.05
0.015
0.1
0.16
0.255
0.35
0.44
0.56
0.655
0.725
0.755
0.785
0.71
0.685
0.615
0.485
0.26
0.135
0.0
-0.155
-0.245
-0.405
-0.435
-0.38
-0.355
-0.34
-0.265
-0.23
-0.185
-0.155
-0.145
-0.13
-0.105
-0.095
-0.085
-0.085
-0.055
-0.095
-0.11
-0.105
-0.09
-0.1
-0.1
-0.09
-0.08
-0.1
-0.07
-0.08
-0.09
-0.07
-0.085
-0.095
-0.08
-0.07
-0.075
-0.055
-0.06
-0.065
-0.055
-0.05
-0.05
-0.05
-0.05
-0.05
-0.055
-0.035
-0.035
-0.02
-0.05
-0.01
-0.04
-0.03
-0.005
0.01
0.0
0.0
-0.01
-0.005
0.015
0.035
0.04
0.03
0.035
0.035
0.055
0.055
0.08
0.09
0.045
0.06
0.095
0.095
0.085
0.085
0.085
0.105
0.135
0.16
0.135
0.135
0.145
0.15
0.18
0.2
0.175
0.22
0.22
0.225
0.245
0.255
0.275
0.28
0.31
0.35
0.31
0.3
0.325
0.355
0.35
0.38
0.385
0.405
0.39
0.375
0.42
0.405
0.42
0.415
0.445
0.445
0.42
0.415
0.43
0.41
0.41
0.39
0.41
0.37
0.365
0.355
0.33
0.315
0.315
0.28
0.25
0.22
0.225
0.195
0.155
0.15
0.13
0.135
0.115
0.11
0.1
0.09
0.065
0.05
0.03
0.02
0.01
0.01
0.01
-0.005
-0.01
0.015
-0.005
-0.015
-0.025
-0.02
-0.04
-0.025
-0.035
-0.05
-0.025
-0.03
-0.04
-0.055
-0.04
-0.02
-0.065
-0.045
-0.055
-0.05
-0.04
-0.05
-0.06
-0.05
-0.04
-0.035
-0.06
-0.065
-0.05
-0.04
-0.045
-0.02
-0.05
-0.06
-0.035
-0.03
-0.055
-0.07
-0.08
-0.025
-0.02
-0.005
-0.015
-0.035
-0.025
-0.03
-0.04
-0.03
-0.025
-0.045
-0.04
-0.01
-0.01
-0.01
-0.03
-0.005
-0.03
-0.015
-0.03
-0.04
-0.03
0.015
-0.025
0.0
-0.015
-0.015
-0.015
-0.025
-0.03
-0.005
-0.005
-0.01
-0.015
-0.02
0.005
-0.02
-0.03
0.0
-0.02
-0.035
-0.01
0.0
-0.02
-0.035
-0.04
-0.045
-0.02
0.005
-0.005
-0.035
-0.025
-0.02
-0.045
-0.055
-0.045
-0.03
-0.005
-0.02
-0.02
-0.025
-0.03
-0.025
-0.035
-0.03
-0.03
-0.025
-0.05
-0.025
-0.02
-0.01
-0.05
-0.03
-0.03
-0.03
-0.03
-0.02
-0.05
-0.04
-0.03
-0.01
-0.035
-0.03
-0.03
0.0
-0.01
-0.03
-0.04
-0.025
-0.025
-0.04
-0.035
-0.005
0.0
-0.04
-0.02
-0.02
-0.06
-0.03
-0.02
-0.03
-0.015
-0.04
-0.035
-0.04
-0.055
-0.05
-0.05
-0.015
-0.03
-0.035
-0.01
-0.015
-0.03
-0.045
-0.03
-0.035
-0.04
-0.01
-0.01
0.01
0.015
0.005
0.03
0.035
0.025
0.01
0.0
0.005
0.005
0.02
0.04
0.04
0.045
0.07
0.07
0.09
0.095
0.08
0.075
0.085
0.08
0.065
0.075
0.06
0.075
0.075
0.045
0.055
0.06
0.06
0.06
0.055
0.055
0.04
0.04
0.02
0.045
0.035
-0.005
-0.04
-0.025
-0.01
-0.025
-0.025
-0.025
-0.045
-0.03
-0.03
-0.05
-0.035
-0.04
-0.04
-0.025
-0.025
-0.025
-0.05
-0.045
-0.06
-0.03
-0.055
-0.03
-0.035
-0.03
-0.02
-0.025
-0.005
-0.035
0.005
-0.01
-0.035
0.02
0.065
0.13
0.25
0.31
0.4
0.5
0.61
0.715
0.82
0.89
0.95
0.93
0.855
0.785
0.705
0.56
0.355
0.175
0.1
0.02
-0.095
-0.295
-0.335
-0.295
-0.245
-0.185
-0.115
-0.095
-0.035
-0.025
-0.05
-0.045
0.01
0.025
0.005
0.0
0.0
0.0
0.0
0.015
0.015
-0.005
-0.005
-0.01
-0.025
-0.02
-0.005
0.0
0.005
-0.005
0.015
0.0
0.01
0.01
0.025
-0.005
0.01
0.05
0.045
0.035
0.035
0.04
0.035
0.04
0.055
0.025
0.07
0.05
0.06
0.055
0.055
0.08
0.055
0.065
0.055
0.085
0.085
0.095
0.105
0.095
0.07
0.11
0.09
0.085
0.12
0.14
0.135
0.12
0.13
0.135
0.125
0.16
0.17
0.17
0.15
0.16
0.18
0.18
0.22
0.23
0.23
0.22
0.245
0.25
0.265
0.275
0.235
0.26
0.295
0.3
0.335
0.35
0.345
0.345
0.365
0.365
0.39
0.405
0.415
0.425
0.43
0.43
0.445
0.425
0.43
0.45
0.445
0.475
0.485
0.455
0.47
0.46
0.445
0.435
0.46
0.44
0.42
0.43
0.435
0.405
0.385
0.375
0.35
0.325
0.325
0.295
0.26
0.23
0.24
0.235
0.2
0.21
0.17
0.15
0.145
0.145
0.12
0.095
0.105
0.08
0.05
0.05
0.06
0.05
0.065
0.045
0.05
0.03
0.04
0.02
0.025
0.03
0.02
0.03
0.025
0.04
0.015
0.02
0.01
0.005
0.015
0.025
0.015
0.015
0.015
0.0
-0.01
0.015
0.02
0.01
0.01
0.035
0.01
-0.005
0.015
0.02
0.015
0.01
0.015
-0.01
-0.01
-0.01
-0.005
0.015
0.015
0.015
-0.01
0.01
-0.015
0.025
0.015
-0.015
0.02
0.01
0.04
0.025
0.01
0.04
0.04
0.01
0.005
0.025
0.01
0.02
0.02
0.015
0.01
0.01
0.025
-0.005
0.005
0.02
0.02
0.0
0.0
0.015
0.015
0.045
0.025
0.005
0.015
0.02
-0.005
0.0
0.015
0.03
0.03
0.03
0.015
0.0
0.0
0.0
0.0
-0.005
0.035
-0.01
-0.02
0.0
0.025
0.0
0.0
0.005
0.01
-0.01
0.015
0.015
0.0
0.01
0.005
-0.005
0.015
0.01
0.02
0.01
-0.025
0.005
0.005
0.015
0.01
-0.015
-0.02
0.025
0.02
0.01
0.015
-0.01
-0.01
-0.01
-0.005
0.0
-0.005
-0.01
-0.005
0.01
0.005
0.005
-0.015
0.0
0.0
0.01
0.0
-0.005
-0.02
-0.005
-0.015
-0.03
-0.025
0.01
0.015
0.005
0.01
-0.005
-0.005
0.015
-0.01
-0.01
-0.025
-0.015
-0.025
0.015
0.01
-0.01
0.015
0.005
0.0
0.025
0.015
0.04
0.005
0.025
0.025
0.035
0.04
0.05
0.035
0.04
0.055
0.05
0.05
0.04
0.055
0.085
0.105
0.11
0.11
0.095
0.12
0.09
0.06
0.095
0.125
0.105
0.095
0.09
0.115
0.105
0.075
0.07
0.07
0.095
0.09
0.08
0.09
0.075
0.07
0.045
0.06
0.04
0.005
0.015
0.0
0.0
0.01
-0.025
-0.01
0.0
0.02
0.005
-0.005
-0.01
0.0
-0.01
-0.02
-0.015
-0.005
-0.015
-0.01
0.01
-0.02
-0.005
0.01
-0.005
0.01
-0.005
-0.03
0.015
0.0
0.025
0.0
0.035
0.065
0.09
0.175
0.275
0.36
0.44
0.59
0.68
0.79
0.9
0.935
0.96
0.945
0.89
0.835
0.74
0.545
0.365
0.205
0.11
0.04
-0.125
-0.28
-0.275
-0.23
-0.21
-0.17
-0.1
-0.06
0.005
0.045
0.01
0.025
0.025
0.025
0.04
0.03
0.015
0.02
0.03
0.035
0.04
0.015
0.025
0.03
0.065
0.055
0.015
0.01
0.035
0.045
0.045
0.03
0.045
0.035
0.005
0.065
0.06
0.055
0.085
0.07
0.085
0.075
0.09
0.09
0.09
0.09
0.09
0.11
0.095
0.105
0.095
0.1
0.095
0.13
0.105
0.13
0.115
0.135
0.15
0.175
0.15
0.165
0.155
0.14
0.145
0.16
0.16
0.19
0.165
0.185
0.19
0.2
0.185
0.19
0.21
0.21
0.215
0.27
0.285
0.27
0.26
0.27
0.28
0.29
0.31
0.325
0.31
0.32
0.355
0.355
0.375
0.395
0.4
0.4
0.415
0.43
0.465
0.45
0.46
0.47
0.48
0.5
0.47
0.505
0.545
0.515
0.525
0.52
0.505
0.49
0.51
0.53
0.505
0.515
0.525
0.49
0.475
0.45
0.445
0.46
0.44
0.435
0.39
0.365
0.38
0.34
0.335
0.29
0.275
0.275
0.25
0.255
0.225
0.22
0.2
0.17
0.155
0.175
0.155
0.12
0.135
0.1
0.105
0.12
0.08
0.095
0.055
0.095
0.08
0.06
0.09
0.085
0.06
0.035
0.06
0.06
0.095
0.055
0.055
0.035
0.055
0.07
0.06
0.05
0.055
0.055
0.04
0.05
0.05
0.055
0.06
0.065
0.04
0.055
0.045
0.055
0.065
0.06
0.045
0.035
0.045
0.07
0.05
0.075
0.07
0.045
0.03
0.055
0.065
0.055
0.05
0.055
0.06
0.035
0.045
0.055
0.05
0.085
0.06
0.055
0.05
0.035
0.06
0.08
0.065
0.04
0.04
0.05
0.05
0.075
0.055
0.065
0.065
0.045
0.065
0.055
0.05
0.075
0.045
0.065
0.06
0.055
0.05
0.06
0.055
0.02
0.045
0.06
0.02
0.045
0.045
0.075
0.065
0.045
0.035
0.07
0.05
0.06
0.055
0.025
0.0
0.02
0.045
0.05
0.075
0.035
0.045
0.035
0.035
0.04
0.02
0.02
0.025
0.04
0.035
0.04
0.015
0.04
0.055
0.02
0.055
0.03
0.02
0.035
0.04
0.025
0.035
0.005
0.02
0.03
0.03
0.03
0.04
0.015
0.015
0.01
0.01
0.03
0.01
0.025
0.01
0.015
0.025
0.03
0.03
0.01
0.03
0.02
0.02
0.02
0.025
0.01
0.015
0.02
0.03
0.005
0.015
0.005
-0.01
0.005
0.04
0.015
0.005
0.01
0.01
0.015
-0.005
0.02
0.01
0.025
0.05
-0.015
0.0
0.015
-0.005
-0.005
0.005
0.02
0.055
0.03
0.025
0.045
0.045
0.05
0.055
0.065
0.065
0.025
0.01
0.05
0.07
0.055
0.065
0.07
0.095
0.12
0.125
0.12
0.145
0.11
0.085
0.09
0.095
0.095
0.085
0.07
0.095
0.085
0.085
0.07
0.07
0.06
0.085
0.08
0.075
0.06
0.045
0.03
0.06
0.04
0.055
0.005
0.015
-0.01
-0.015
-0.015
-0.005
0.01
-0.04
0.005
0.025
-0.005
-0.025
0.005
-0.025
-0.015
0.0
-0.025
-0.02
-0.02
-0.03
-0.03
-0.01
-0.02
-0.01
-0.035
-0.025
-0.015
-0.04
-0.03
-0.005
-0.01
0.05
0.085
0.14
0.245
0.335
0.415
0.515
0.605
0.7
0.84
0.91
0.935
0.91
0.84
0.8
0.735
0.55
0.365
0.225
0.07
-0.07
-0.19
-0.325
-0.295
-0.275
-0.255
-0.195
-0.09
-0.065
-0.015
-0.025
-0.035
-0.01
0.01
-0.025
0.005
0.01
0.0
0.03
0.025
0.025
0.01
0.005
-0.005
-0.005
0.01
-0.01
-0.015
-0.005
0.01
0.03
0.05
-0.005
0.01
0.03
0.045
0.02
0.02
0.025
0.035
0.04
0.035
0.02
0.045
0.04
0.075
0.075
0.06
0.04
0.05
0.055
0.06
0.065
0.085
0.085
0.065
0.075
0.075
0.085
0.1
0.09
0.095
0.085
0.085
0.085
0.1
0.1
0.11
0.1
0.115
0.13
0.13
0.105
0.12
0.135
0.14
0.14
0.165
0.165
0.165
0.18
0.17
0.165
0.205
0.195
0.23
0.255
0.24
0.275
0.295
0.275
0.28
0.285
0.29
0.28
0.345
0.37
0.36
0.38
0.375
0.39
0.405
0.405
0.415
0.415
0.42
0.4
0.41
0.425
0.395
0.44
0.415
0.405
0.435
0.42
0.405
0.41
0.385
0.375
0.37
0.365
0.34
0.33
0.325
0.285
0.27
0.225
0.2
0.19
0.2
0.205
0.185
0.135
0.13
0.1
0.105
0.095
0.055
0.055
0.06
0.045
0.03
0.03
0.015
-0.01
-0.025
0.015
0.01
-0.01
-0.005
-0.025
-0.035
-0.035
0.0
-0.02
-0.045
-0.035
-0.045
-0.045
-0.015
-0.03
-0.05
-0.06
-0.06
-0.055
-0.035
-0.045
-0.04
-0.05
-0.045
-0.035
-0.06
-0.06
-0.06
-0.06
-0.075
-0.06
-0.045
-0.025
-0.04
-0.06
-0.045
-0.055
-0.03
-0.05
-0.045
-0.07
-0.035
-0.025
-0.05
-0.045
-0.045
-0.04
-0.065
-0.06
-0.035
-0.045
-0.03
-0.015
-0.03
-0.075
-0.08
-0.06
-0.015
-0.065
-0.05
-0.045
-0.035
-0.045
-0.035
-0.045
-0.05
-0.05
-0.055
-0.05
-0.07
-0.04
-0.065
-0.07
-0.05
-0.065
-0.045
-0.04
-0.06
-0.06
-0.06
-0.04
-0.055
-0.075
-0.08
-0.07
-0.085
-0.065
-0.095
-0.08
-0.075
-0.055
-0.05
-0.08
-0.08
-0.055
-0.07
-0.07
-0.075
-0.085
-0.11
-0.105
-0.1
-0.08
-0.09
-0.095
-0.09
-0.085
-0.085
-0.095
-0.1
-0.08
-0.075
-0.07
-0.085
-0.085
-0.095
-0.1
-0.105
-0.1
-0.095
-0.12
-0.085
-0.05
-0.075
-0.11
-0.09
-0.115
-0.135
-0.12
-0.075
-0.08
-0.095
-0.095
-0.1
-0.115
-0.09
-0.115
-0.095
-0.08
-0.085
-0.09
-0.115
-0.12
-0.125
-0.105
-0.11
-0.105
-0.115
-0.105
-0.09
-0.08
-0.085
-0.08
-0.07
-0.08
-0.04
-0.04
-0.08
-0.085
-0.05
-0.06
-0.07
-0.065
-0.04
-0.035
-0.025
0.015
0.025
0.005
-0.025
-0.045
-0.035
-0.015
-0.02
-0.005
-0.005
0.0
-0.01
-0.005
-0.005
-0.025
-0.02
-0.02
-0.05
-0.07
-0.05
-0.045
-0.07
-0.04
-0.055
-0.075
-0.09
-0.105
-0.11
-0.115
-0.13
-0.12
-0.11
-0.105
-0.115
-0.105
-0.11
-0.12
-0.135
-0.12
-0.12
-0.11
-0.135
-0.11
-0.105
-0.11
-0.11
-0.095
-0.075
-0.1
-0.105
-0.11
-0.09
-0.1
-0.105
-0.085
-0.075
-0.025
0.005
0.065
0.125
0.19
0.27
0.39
0.495
0.58
0.695
0.77
0.82
0.81
0.735
0.685
0.585
0.44
0.24
0.115
-0.005
-0.13
-0.225
-0.35
-0.365
-0.335
-0.31
-0.255
-0.225
-0.175
-0.125
-0.1
-0.1
-0.075
-0.065
-0.06
-0.045
-0.04
-0.03
-0.075
-0.065
-0.055
-0.055
-0.05
-0.035
-0.055
-0.095
-0.07
-0.05
-0.055
-0.035
-0.02
-0.035
-0.025
-0.03
-0.045
-0.01
-0.005
-0.02
-0.02
-0.005
-0.01
-0.025
-0.005
-0.02
0.0
0.0
-0.005
-0.005
0.0
0.015
0.015
-0.01
-0.01
0.015
0.04
0.03
0.06
0.035
0.035
0.035
0.05
0.05
0.04
0.05
0.085
0.085
0.05
0.06
0.075
0.1
0.085
0.09
0.095
0.11
0.13
0.135
0.125
0.155
0.15
0.185
0.15
0.16
0.165
0.18
0.2
0.195
0.21
0.22
0.235
0.25
0.26
0.265
0.285
0.295
0.3
0.31
0.33
0.345
0.35
0.365
0.345
0.375
0.38
0.39
0.415
0.41
0.41
0.415
0.395
0.41
0.405
0.425
0.4
0.4
0.415
0.385
0.38
0.37
0.365
0.335
0.33
0.305
0.305
0.28
0.255
0.25
0.235
0.195
0.185
0.165
0.14
0.115
0.1
0.09
0.08
0.085
0.075
0.055
0.055
0.03
0.03
0.005
0.025
-0.01
-0.01
-0.03
-0.03
-0.03
-0.03
-0.05
-0.035
-0.035
-0.06
-0.05
-0.05
-0.05
-0.025
-0.05
-0.045
-0.075
-0.065
-0.085
-0.085
-0.07
-0.045
-0.015
-0.055
-0.06
-0.055
-0.07
-0.07
-0.095
-0.07
-0.06
-0.035
-0.08
-0.075
-0.07
-0.02
-0.055
-0.075
-0.075
-0.08
-0.06
-0.065
-0.08
-0.055
-0.04
-0.06
-0.045
-0.085
-0.065
-0.055
-0.045
-0.04
-0.055
-0.07
-0.05
-0.04
-0.045
-0.075
-0.05
-0.06
-0.065
-0.065
-0.035
-0.035
-0.045
-0.055
-0.07
-0.07
-0.045
-0.055
-0.05
-0.035
-0.05
-0.06
-0.065
-0.07
-0.08
-0.075
-0.05
-0.07
-0.05
-0.06
-0.06
-0.075
-0.065
-0.055
-0.05
-0.045
-0.075
-0.095
-0.075
-0.075
-0.06
-0.06
-0.045
-0.045
-0.06
-0.075
-0.065
-0.075
-0.095
-0.08
-0.085
-0.06
-0.06
-0.08
-0.06
-0.09
-0.07
-0.06
-0.06
-0.06
-0.08
-0.085
-0.065
-0.08
-0.07
-0.08
-0.075
-0.08
-0.09
-0.085
-0.085
-0.095
-0.08
-0.075
-0.09
-0.1
-0.09
-0.08
-0.075
-0.105
-0.085
-0.08
-0.08
-0.085
-0.1
-0.095
-0.07
-0.095
-0.08
-0.08
-0.105
-0.125
-0.075
-0.06
-0.105
-0.08
-0.095
-0.1
-0.06
-0.085
-0.075
-0.09
-0.09
-0.085
-0.09
-0.09
-0.08
-0.09
-0.07
-0.08
-0.1
-0.075
-0.095
-0.08
-0.105
-0.08
-0.08
-0.075
-0.075
-0.07
-0.065
-0.06
-0.055
-0.05
-0.03
-0.065
-0.045
-0.05
-0.05
-0.05
-0.05
-0.02
-0.015
0.01
0.005
0.02
0.025
0.02
0.02
0.015
0.0
0.02
0.005
0.005
-0.015
0.01
0.01
-0.005
0.0
-0.025
-0.02
-0.03
-0.03
-0.02
-0.02
-0.02
-0.025
-0.045
-0.055
-0.08
-0.07
-0.095
-0.09
-0.09
-0.095
-0.095
-0.11
-0.115
-0.1
-0.08
-0.06
-0.09
-0.08
-0.085
-0.125
-0.115
-0.085
-0.12
-0.135
-0.105
-0.09
-0.08
-0.095
-0.1
-0.09
-0.085
-0.14
-0.095
-0.085
-0.08
-0.05
-0.04
0.005
0.065
0.16
0.245
0.34
0.43
0.525
0.63
0.73
0.795
0.865
0.82
0.74
0.68
0.61
0.41
0.245
0.095
0.015
-0.06
-0.185
-0.335
-0.375
-0.335
-0.285
-0.24
-0.19
-0.15
-0.105
-0.085
-0.11
-0.105
-0.08
-0.06
-0.075
-0.09
-0.085
-0.075
-0.085
-0.07
-0.085
-0.055
-0.045
-0.07
-0.065
-0.065
-0.09
-0.075
-0.065
-0.03
-0.045
-0.08
-0.055
-0.04
-0.045
-0.06
-0.065
-0.075
-0.04
-0.04
-0.025
-0.015
-0.035
-0.025
-0.025
-0.02
-0.01
-0.025
-0.015
-0.025
-0.04
-0.02
-0.005
0.005
0.04
0.04
0.01
0.01
0.03
0.02
0.01
0.015
0.035
0.025
0.03
0.05
0.05
0.04
0.04
0.055
0.065
0.07
0.09
0.075
0.085
0.095
0.105
0.11
0.105
0.115
0.135
0.15
0.165
0.145
0.155
0.205
0.205
0.205
0.215
0.22
0.25
0.245
0.235
0.275
0.275
0.3
0.29
0.3
0.33
0.35
0.34
0.355
0.355
0.36
0.345
0.39
0.37
0.375
0.375
0.39
0.38
0.365
0.37
0.38
0.37
0.37
0.355
0.345
0.3
0.315
0.31
0.275
0.27
0.275
0.245
0.21
0.205
0.185
0.16
0.13
0.12
0.13
0.105
0.085
0.06
0.03
0.035
0.02
0.04
0.015
-0.015
-0.02
-0.01
-0.025
-0.035
-0.025
-0.035
-0.035
-0.055
-0.055
-0.045
-0.06
-0.07
-0.035
-0.06
-0.08
-0.085
-0.065
-0.065
-0.08
-0.085
-0.07
-0.07
-0.065
-0.08
-0.08
-0.08
-0.055
-0.04
-0.075
-0.07
-0.06
-0.055
-0.095
-0.08
-0.085
-0.08
-0.09
-0.055
-0.05
-0.09
-0.1
-0.085
-0.075
-0.065
-0.075
-0.085
-0.065
-0.07
-0.075
-0.06
-0.05
-0.085
-0.08
-0.075
-0.085
-0.065
-0.08
-0.085
-0.09
-0.08
-0.065
-0.06
-0.08
-0.065
-0.07
-0.09
-0.07
-0.06
-0.075
-0.095
-0.07
-0.09
-0.07
-0.055
-0.08
-0.085
-0.08
-0.075
-0.075
-0.08
-0.04
-0.075
-0.095
-0.08
-0.05
-0.1
-0.075
-0.07
-0.07
-0.09
-0.095
-0.09
-0.08
-0.075
-0.085
-0.065
-0.085
-0.09
-0.11
-0.085
-0.08
-0.085
-0.09
-0.08
-0.085
-0.085
-0.075
-0.08
-0.085
-0.095
-0.08
-0.095
-0.09
-0.11
-0.075
-0.11
-0.1
-0.1
-0.1
-0.125
-0.09
-0.1
-0.12
-0.1
-0.1
-0.095
-0.085
-0.075
-0.08
-0.09
-0.12
-0.115
-0.1
-0.105
-0.105
-0.11
-0.1
-0.1
-0.105
-0.1
-0.08
-0.1
-0.125
-0.135
-0.105
-0.095
-0.105
-0.085
-0.09
-0.115
-0.12
-0.11
-0.135
-0.11
-0.095
-0.1
-0.095
-0.09
-0.105
-0.11
-0.105
-0.105
-0.08
-0.09
-0.12
-0.1
-0.11
-0.1
-0.1
-0.115
-0.095
-0.09
-0.09
-0.105
-0.115
-0.1
-0.11
