# TIPE ECG 2021 - ECG-ID Database v1.0.0 par Physionet
# [Numéro de la personne, Période d'échantillonnage, Prénom, Age, Sexe, Date de l'enregistrement]
[72, 0.002, William, 39, H, 12.05.2005]
0.005
0.06
0.08
0.085
0.06
0.045
0.06
0.04
0.065
0.08
0.06
0.055
0.05
0.055
0.05
0.04
0.045
0.04
0.085
0.075
0.055
0.07
0.105
0.05
0.005
0.065
0.12
0.045
0.045
0.07
0.06
0.085
0.085
0.1
0.045
-0.06
-0.015
0.02
-0.015
0.05
0.095
0.045
0.045
0.115
0.06
0.025
0.06
0.05
0.04
0.0
-0.01
0.0
0.01
0.025
0.035
0.045
0.06
0.035
0.055
0.04
0.035
0.08
0.055
0.095
0.08
0.035
0.025
0.03
0.03
0.005
-0.005
0.025
0.02
0.065
0.025
0.0
0.005
0.0
0.0
0.03
0.02
0.015
-0.01
-0.01
0.015
-0.015
-0.005
-0.055
-0.015
-0.025
0.075
0.05
0.045
0.045
0.055
0.035
-0.005
0.005
0.005
0.01
0.03
0.015
0.025
0.025
0.025
0.04
0.03
0.0
0.005
-0.005
-0.025
-0.01
0.005
0.02
0.03
0.025
0.005
-0.055
-0.04
0.025
0.055
0.065
0.01
0.005
-0.03
0.015
-0.015
-0.015
0.01
0.005
-0.03
-0.005
-0.005
0.01
-0.015
-0.02
-0.05
-0.09
-0.09
0.01
0.02
0.05
0.04
0.015
0.04
0.06
0.015
0.05
0.035
0.055
0.09
0.095
0.045
0.04
0.025
0.035
0.085
0.095
0.1
0.13
0.095
0.105
0.07
0.1
0.15
0.155
0.15
0.07
0.105
0.115
0.145
0.065
0.035
0.045
0.075
0.055
0.075
0.045
0.05
0.045
0.055
0.065
0.065
0.02
0.06
0.005
-0.06
0.005
-0.015
-0.005
0.015
-0.005
0.005
-0.055
-0.025
-0.015
0.005
-0.03
-0.035
-0.055
-0.035
-0.03
-0.03
-0.055
-0.065
0.025
0.045
0.01
-0.005
-0.005
-0.005
0.0
0.025
0.0
-0.045
-0.005
0.0
-0.015
0.0
0.045
0.065
0.13
0.15
0.19
0.315
0.39
0.535
0.61
0.735
0.825
0.79
0.82
0.74
0.715
0.725
0.675
0.49
0.29
0.18
0.115
0.06
-0.06
-0.215
-0.285
-0.29
-0.255
-0.26
-0.13
-0.075
-0.05
-0.025
0.03
0.03
-0.005
0.005
0.065
0.015
-0.015
-0.005
0.025
0.035
0.03
-0.02
-0.04
0.015
-0.01
-0.04
0.0
-0.035
0.0
0.03
0.03
0.065
0.04
0.06
0.075
0.045
0.06
0.035
0.03
0.02
0.005
0.02
0.05
0.08
0.065
0.065
0.08
0.07
0.07
0.06
0.08
0.09
0.125
0.11
0.07
0.055
0.085
0.13
0.125
0.11
0.04
0.04
0.085
0.155
0.165
0.135
0.125
0.195
0.195
0.16
0.16
0.145
0.195
0.22
0.2
0.19
0.22
0.22
0.21
0.255
0.23
0.28
0.285
0.305
0.33
0.31
0.305
0.275
0.335
0.38
0.375
0.325
0.345
0.42
0.405
0.41
0.4
0.36
0.375
0.39
0.455
0.39
0.395
0.445
0.435
0.405
0.39
0.37
0.37
0.35
0.33
0.395
0.37
0.395
0.35
0.345
0.315
0.315
0.325
0.275
0.255
0.22
0.175
0.175
0.22
0.26
0.19
0.16
0.15
0.135
0.14
0.065
0.025
0.05
0.105
0.095
0.05
0.06
0.04
0.055
0.04
0.035
0.06
0.025
-0.005
0.025
0.025
0.005
0.025
0.01
0.045
0.005
0.0
-0.015
-0.01
0.035
0.055
-0.03
-0.025
0.01
-0.005
-0.055
-0.035
-0.005
-0.015
0.02
0.035
0.01
-0.005
0.01
-0.025
-0.025
-0.03
0.0
0.015
0.04
0.04
0.035
0.025
-0.005
0.01
0.015
-0.01
0.0
0.01
0.01
0.01
-0.01
-0.005
-0.015
0.015
0.01
0.01
0.0
-0.04
-0.05
-0.045
0.02
0.035
0.02
0.01
0.02
-0.005
0.015
0.025
0.005
-0.03
-0.01
-0.005
-0.015
0.015
-0.015
-0.035
-0.015
0.01
0.0
-0.045
-0.05
-0.02
-0.025
-0.025
0.01
-0.005
0.045
0.01
-0.06
-0.055
-0.035
0.015
0.005
0.035
0.035
-0.01
-0.035
-0.03
0.015
-0.01
-0.03
-0.03
0.02
-0.025
-0.035
-0.005
-0.045
-0.075
-0.055
-0.035
-0.025
0.0
0.01
-0.03
-0.005
-0.015
-0.05
-0.015
-0.005
-0.005
-0.03
-0.045
-0.045
-0.065
-0.075
-0.09
-0.105
-0.065
-0.045
-0.03
-0.01
-0.05
0.015
0.005
0.0
0.015
0.035
-0.02
-0.02
-0.01
-0.035
-0.04
-0.055
-0.05
-0.015
-0.035
-0.05
-0.05
-0.08
-0.05
-0.005
0.005
0.01
-0.02
-0.035
-0.08
-0.06
-0.02
-0.045
-0.035
-0.02
0.0
-0.03
-0.045
-0.015
-0.035
-0.05
-0.04
-0.02
-0.025
-0.015
0.025
0.025
0.015
0.02
0.015
-0.01
-0.01
0.035
0.015
0.015
0.04
0.045
0.04
0.04
0.015
0.04
0.05
0.09
0.06
0.125
0.1
0.07
0.055
0.03
0.04
0.055
0.05
0.045
0.04
0.025
-0.01
0.03
0.04
0.04
-0.005
-0.045
-0.01
0.01
-0.02
-0.05
0.0
0.01
-0.05
-0.055
-0.035
-0.015
-0.045
-0.045
-0.045
-0.045
-0.045
-0.045
-0.055
-0.075
-0.045
-0.005
-0.065
-0.075
-0.03
0.0
-0.02
-0.025
-0.035
-0.005
-0.015
-0.05
-0.015
0.01
0.045
0.045
0.05
0.09
0.19
0.24
0.33
0.475
0.58
0.665
0.71
0.755
0.725
0.715
0.69
0.635
0.51
0.39
0.22
0.125
-0.03
-0.18
-0.33
-0.43
-0.44
-0.335
-0.245
-0.235
-0.165
-0.09
-0.065
-0.065
-0.065
-0.055
0.005
0.01
0.025
0.015
-0.045
-0.07
-0.055
0.01
-0.02
-0.035
-0.025
-0.06
-0.03
-0.045
-0.02
0.005
0.05
0.03
0.04
0.06
0.03
-0.04
-0.01
0.03
0.04
0.075
0.085
0.045
0.07
0.03
0.025
0.045
0.01
0.04
0.075
0.085
0.09
0.075
0.055
0.06
0.1
0.07
0.06
0.085
0.105
0.08
0.065
0.105
0.085
0.095
0.13
0.16
0.13
0.15
0.145
0.135
0.14
0.16
0.135
0.125
0.125
0.17
0.23
0.21
0.195
0.2
0.225
0.225
0.215
0.24
0.21
0.205
0.23
0.25
0.27
0.285
0.305
0.34
0.34
0.35
0.38
0.355
0.37
0.38
0.35
0.38
0.365
0.39
0.385
0.36
0.365
0.4
0.42
0.4
0.405
0.395
0.415
0.415
0.36
0.32
0.33
0.3
0.325
0.315
0.28
0.265
0.285
0.235
0.17
0.205
0.22
0.18
0.155
0.165
0.13
0.14
0.15
0.13
0.12
0.065
0.08
0.075
0.08
0.065
0.065
-0.02
0.025
0.03
0.01
0.0
0.01
0.045
0.035
0.035
0.0
-0.015
-0.015
-0.02
-0.015
-0.015
-0.06
-0.04
0.02
0.005
0.005
-0.005
0.02
0.025
0.025
-0.005
-0.04
-0.025
-0.035
-0.035
-0.035
-0.055
0.005
0.0
0.03
0.035
0.0
0.0
0.03
0.03
0.04
0.055
0.005
-0.025
-0.02
0.0
0.01
0.04
0.025
0.025
0.035
0.045
0.065
0.1
0.05
-0.025
0.01
0.03
0.03
0.02
0.015
0.015
-0.04
-0.015
0.01
0.03
0.04
0.03
-0.015
0.0
0.035
0.02
0.01
-0.025
0.035
0.05
0.045
0.015
0.025
0.005
-0.005
0.01
-0.005
-0.005
-0.04
0.0
-0.045
-0.04
-0.02
0.015
0.06
0.03
-0.04
-0.08
-0.05
-0.005
-0.02
0.0
-0.01
-0.02
-0.06
-0.045
-0.045
-0.03
-0.04
0.015
0.02
0.025
0.005
0.025
0.025
-0.01
-0.025
-0.035
-0.035
-0.035
-0.035
-0.035
-0.065
-0.05
-0.07
-0.06
-0.04
-0.045
-0.035
-0.03
0.015
0.035
0.025
-0.005
0.01
0.035
0.03
0.03
-0.05
-0.02
-0.07
-0.075
-0.03
-0.025
-0.015
-0.015
-0.01
-0.015
-0.055
-0.05
-0.065
-0.04
-0.03
-0.02
-0.015
-0.03
-0.05
-0.04
-0.045
-0.025
-0.04
-0.04
-0.02
0.0
-0.03
-0.025
-0.01
-0.01
-0.015
0.025
-0.005
0.01
0.02
0.02
0.03
0.015
0.02
0.01
0.035
0.05
0.055
0.06
0.085
0.07
0.06
0.095
0.02
0.0
-0.01
-0.02
0.01
0.015
0.03
0.02
-0.005
0.0
0.01
0.045
0.09
0.05
0.035
0.035
0.015
-0.015
-0.025
-0.05
-0.075
-0.065
-0.08
-0.05
-0.035
-0.03
0.0
-0.02
-0.045
-0.045
-0.045
-0.03
-0.035
-0.035
-0.035
0.0
-0.035
-0.065
-0.115
-0.1
-0.075
-0.065
-0.065
-0.1
-0.06
-0.04
-0.02
-0.025
0.02
0.04
0.07
0.125
0.19
0.275
0.355
0.395
0.44
0.55
0.62
0.685
0.69
0.68
0.595
0.58
0.54
0.47
0.295
0.17
0.05
-0.02
-0.09
-0.275
-0.36
-0.365
-0.3
-0.26
-0.205
-0.185
-0.12
-0.095
-0.08
-0.005
-0.015
0.0
0.0
-0.02
-0.01
0.025
0.0
-0.055
-0.065
-0.035
-0.02
-0.035
-0.055
-0.055
-0.055
-0.035
0.02
0.0
-0.02
-0.015
-0.03
-0.03
-0.015
0.0
-0.025
-0.02
-0.01
-0.03
-0.02
-0.03
-0.03
-0.015
-0.01
0.025
0.01
0.03
0.0
0.005
-0.015
0.02
-0.01
-0.035
0.005
0.005
0.02
0.05
0.035
0.065
0.04
-0.005
0.07
0.14
0.13
0.135
0.11
0.11
0.115
0.125
0.12
0.13
0.17
0.11
0.14
0.15
0.145
0.19
0.225
0.22
0.22
0.205
0.2
0.18
0.175
0.235
0.205
0.235
0.245
0.235
0.27
0.3
0.3
0.305
0.295
0.265
0.32
0.345
0.335
0.37
0.355
0.35
0.34
0.355
0.355
0.375
0.35
0.345
0.335
0.29
0.29
0.28
0.295
0.335
0.33
0.32
0.24
0.17
0.17
0.185
0.2
0.19
0.135
0.14
0.115
0.145
0.125
0.075
0.1
0.11
0.09
0.02
0.03
0.0
0.015
0.01
0.0
-0.04
-0.03
0.0
0.01
-0.01
-0.03
-0.04
-0.03
-0.01
-0.05
0.015
0.0
-0.02
-0.02
-0.04
-0.045
-0.03
-0.055
-0.025
-0.025
-0.005
-0.01
-0.025
-0.005
-0.025
0.015
-0.045
-0.045
-0.075
-0.08
-0.015
-0.015
-0.02
-0.035
-0.045
-0.035
-0.015
-0.03
-0.015
-0.03
-0.02
-0.05
-0.055
-0.025
-0.065
-0.075
-0.03
-0.05
-0.015
-0.015
-0.03
-0.035
0.01
0.005
0.01
-0.035
0.005
-0.005
0.025
-0.015
-0.055
-0.05
-0.055
-0.075
-0.075
-0.07
-0.05
-0.04
-0.035
0.005
-0.005
-0.03
0.0
-0.01
-0.01
-0.02
-0.025
-0.015
-0.04
-0.045
-0.035
-0.045
-0.07
-0.075
-0.075
-0.08
-0.105
-0.095
-0.08
-0.055
-0.065
-0.04
-0.055
-0.06
-0.025
-0.01
-0.01
0.005
-0.04
-0.055
-0.02
-0.065
-0.08
-0.055
-0.065
-0.06
-0.08
-0.05
-0.04
-0.03
-0.045
-0.03
-0.035
-0.025
-0.055
-0.06
-0.06
-0.06
-0.065
-0.04
-0.065
-0.065
-0.08
-0.07
-0.055
-0.065
-0.055
-0.06
-0.07
-0.09
-0.09
-0.105
-0.07
-0.055
-0.055
-0.05
-0.04
-0.095
-0.065
-0.045
0.0
-0.045
-0.06
-0.095
-0.125
-0.12
-0.1
-0.1
-0.095
-0.03
-0.045
-0.06
-0.055
-0.08
-0.04
-0.035
-0.015
-0.025
-0.04
-0.03
-0.005
-0.015
-0.025
-0.005
-0.015
-0.015
-0.01
-0.01
0.01
-0.005
0.0
-0.005
-0.005
0.025
0.035
0.055
0.06
0.07
0.065
0.035
0.01
-0.005
-0.015
-0.025
-0.025
-0.03
0.015
0.015
0.035
0.055
0.015
0.025
0.015
0.01
0.035
0.0
-0.035
-0.035
-0.12
-0.09
-0.08
-0.08
-0.055
-0.085
-0.115
-0.1
-0.085
-0.07
-0.09
-0.075
-0.13
-0.095
-0.09
-0.09
-0.08
-0.035
-0.005
-0.035
-0.02
-0.045
-0.035
-0.05
-0.045
-0.09
-0.06
-0.04
-0.03
0.015
0.06
0.045
0.12
0.17
0.23
0.335
0.415
0.51
0.625
0.695
0.74
0.765
0.75
0.67
0.62
0.555
0.42
0.24
0.14
-0.01
-0.065
-0.12
-0.275
-0.355
-0.35
-0.355
-0.31
-0.225
-0.09
-0.05
-0.055
-0.03
-0.045
-0.055
-0.035
-0.055
-0.055
0.005
0.0
-0.02
-0.025
-0.02
-0.04
-0.045
-0.045
-0.07
-0.06
-0.055
-0.015
0.0
-0.025
-0.035
-0.035
-0.05
-0.025
-0.06
-0.01
0.0
-0.01
-0.015
0.015
0.01
0.01
0.03
-0.005
0.015
0.025
-0.055
0.015
0.015
0.02
0.01
-0.015
-0.01
0.015
-0.005
0.01
0.065
0.065
0.075
0.055
0.045
0.055
0.075
0.065
0.075
0.11
0.09
0.09
0.05
0.105
0.115
0.105
0.085
0.12
0.125
0.12
0.14
0.15
0.14
0.195
0.19
0.195
0.27
0.27
0.265
0.24
0.265
0.265
0.28
0.25
0.295
0.3
0.305
0.3
0.295
0.275
0.305
0.3
0.36
0.35
0.31
0.295
0.355
0.345
0.36
0.37
0.365
0.335
0.345
0.305
0.3
0.285
0.28
0.265
0.275
0.255
0.245
0.265
0.26
0.235
0.21
0.195
0.155
0.165
0.17
0.13
0.14
0.085
0.11
0.06
0.06
0.055
0.07
0.05
0.055
0.035
0.03
-0.06
-0.035
-0.035
-0.015
0.025
-0.005
-0.015
-0.02
-0.05
-0.09
-0.12
-0.075
-0.05
-0.07
-0.055
-0.025
-0.025
0.01
-0.015
-0.025
-0.01
0.005
-0.01
-0.03
-0.045
-0.025
-0.025
0.0
0.025
0.02
-0.045
-0.015
-0.03
0.0
-0.01
0.02
0.0
-0.005
-0.05
-0.01
-0.04
-0.015
-0.045
-0.055
-0.05
0.0
-0.015
-0.04
-0.035
-0.03
-0.02
-0.005
-0.055
-0.055
-0.055
-0.085
-0.055
-0.05
0.0
0.01
-0.01
-0.005
0.01
-0.03
-0.04
-0.07
-0.06
-0.065
-0.03
-0.01
0.015
-0.01
-0.05
-0.045
-0.055
-0.04
-0.025
0.01
0.0
0.01
-0.005
-0.025
-0.015
-0.04
-0.05
-0.04
-0.085
-0.125
-0.03
-0.035
-0.035
-0.025
-0.055
-0.06
-0.065
-0.07
-0.085
-0.075
-0.06
-0.03
-0.04
-0.07
-0.04
-0.03
-0.025
-0.045
-0.045
-0.06
-0.075
-0.045
-0.055
-0.085
-0.055
-0.045
-0.03
-0.04
-0.055
-0.075
-0.105
-0.115
-0.115
-0.1
-0.095
-0.085
-0.095
-0.095
-0.08
-0.02
-0.04
-0.015
-0.035
-0.065
-0.085
-0.06
-0.1
-0.05
-0.03
-0.045
-0.025
-0.035
-0.03
-0.005
-0.045
-0.085
-0.085
-0.05
-0.075
-0.055
-0.015
-0.08
-0.095
-0.105
-0.09
-0.065
-0.01
-0.03
-0.02
-0.01
-0.04
-0.035
-0.03
-0.01
0.005
-0.005
-0.065
-0.02
-0.03
-0.04
0.015
-0.005
0.025
0.035
0.025
0.05
0.035
0.04
0.03
0.065
0.08
0.065
0.065
0.045
-0.03
0.015
0.03
0.0
0.015
0.025
0.045
0.09
0.005
-0.045
-0.04
-0.035
-0.05
-0.035
-0.015
-0.03
-0.04
-0.035
-0.035
-0.05
-0.05
-0.06
-0.09
-0.1
-0.085
-0.085
-0.055
-0.05
-0.015
-0.045
-0.09
-0.07
-0.075
-0.07
-0.065
-0.095
-0.085
-0.08
-0.09
-0.055
-0.025
0.0
-0.025
-0.045
-0.035
-0.025
0.01
0.03
0.155
0.22
0.355
0.43
0.495
0.575
0.7
0.805
0.83
0.86
0.81
0.75
0.73
0.68
0.49
0.295
0.195
0.08
-0.04
-0.175
-0.33
-0.33
-0.29
-0.245
-0.23
-0.175
-0.115
-0.06
-0.075
-0.035
-0.02
0.005
0.01
-0.01
-0.03
-0.065
-0.055
-0.04
-0.04
-0.035
-0.035
-0.045
-0.05
-0.065
-0.02
-0.06
-0.045
-0.015
0.055
0.07
0.02
0.0
-0.045
0.0
0.005
0.01
-0.01
-0.005
-0.015
0.005
-0.015
0.035
0.015
-0.07
-0.05
-0.02
0.04
0.04
0.035
0.06
0.055
-0.015
-0.02
-0.03
0.06
0.06
0.07
0.09
0.095
0.045
0.065
0.075
0.085
0.105
0.12
0.045
0.06
0.09
0.06
0.04
0.07
0.125
0.17
0.21
0.195
0.195
0.23
0.17
0.17
0.205
0.2
0.24
0.27
0.245
0.24
0.25
0.315
0.325
0.31
0.315
0.32
0.345
0.295
0.345
0.355
0.395
0.35
0.355
0.365
0.37
0.35
0.36
0.345
0.335
0.33
0.31
0.295
0.33
0.31
0.28
0.265
0.27
0.245
0.26
0.28
0.285
0.285
0.255
0.185
0.165
0.205
0.17
0.155
0.115
0.115
0.155
0.115
0.115
0.145
0.155
0.13
0.07
0.08
0.035
0.015
-0.03
-0.02
-0.025
-0.005
0.055
0.0
-0.01
-0.025
-0.04
-0.02
-0.05
-0.03
-0.055
-0.055
-0.025
-0.025
-0.035
-0.005
-0.02
-0.015
-0.005
0.06
0.02
-0.02
-0.045
-0.025
-0.025
0.005
-0.035
-0.045
-0.07
-0.07
-0.095
-0.03
-0.04
-0.01
0.025
0.01
0.02
-0.045
-0.055
-0.06
-0.04
-0.005
-0.015
-0.055
-0.055
-0.015
-0.015
-0.03
-0.035
-0.035
-0.05
-0.095
-0.07
-0.02
-0.02
-0.04
-0.015
-0.055
-0.055
-0.07
-0.075
-0.035
-0.01
-0.02
-0.02
-0.025
-0.02
0.025
-0.01
0.005
-0.015
0.015
0.025
-0.025
-0.06
-0.01
0.0
-0.065
-0.06
0.0
-0.06
-0.045
-0.02
-0.045
-0.03
-0.045
-0.095
-0.025
-0.045
-0.035
-0.07
-0.055
-0.03
-0.02
0.0
-0.055
-0.08
-0.06
-0.065
-0.1
-0.075
-0.07
-0.025
-0.045
-0.08
-0.085
-0.04
-0.025
-0.05
-0.06
-0.055
-0.055
-0.055
-0.06
-0.01
-0.03
-0.03
-0.075
-0.095
-0.115
-0.04
-0.02
-0.02
-0.02
-0.045
-0.08
-0.065
-0.085
-0.04
-0.045
-0.095
-0.09
-0.045
-0.01
-0.015
0.005
-0.005
-0.015
-0.03
-0.015
-0.045
-0.035
-0.01
-0.04
-0.03
-0.045
-0.035
-0.025
0.035
0.045
0.065
0.03
0.005
0.01
0.045
-0.025
0.0
0.005
0.025
0.015
0.045
0.06
0.035
0.0
0.025
0.035
-0.005
-0.01
0.03
0.045
0.035
0.02
-0.03
-0.06
-0.05
-0.045
-0.005
-0.025
-0.025
-0.035
-0.005
-0.025
-0.045
-0.06
-0.09
-0.1
-0.075
-0.085
-0.05
-0.055
-0.045
-0.07
-0.055
-0.03
-0.065
-0.065
-0.065
-0.07
-0.085
-0.05
-0.045
-0.035
-0.025
-0.02
-0.055
-0.08
-0.035
-0.01
0.0
0.02
0.075
0.11
0.165
0.25
0.345
0.465
0.52
0.6
0.67
0.725
0.74
0.7
0.66
0.595
0.505
0.325
0.195
0.12
-0.035
-0.19
-0.37
-0.415
-0.38
-0.295
-0.275
-0.265
-0.165
-0.145
-0.115
-0.09
-0.05
-0.04
-0.055
-0.025
-0.07
-0.055
-0.025
0.005
0.015
0.02
-0.02
-0.015
-0.05
-0.065
-0.065
-0.05
-0.05
-0.02
-0.065
-0.07
-0.04
0.0
0.01
0.01
0.015
0.02
-0.01
0.04
0.025
-0.02
0.0
-0.035
-0.045
-0.035
-0.03
0.015
0.02
0.02
0.015
-0.04
-0.07
0.03
0.065
0.05
0.03
0.05
0.03
0.08
0.07
0.045
0.05
0.05
0.06
0.05
0.09
0.105
0.075
0.075
0.115
0.095
0.155
0.15
0.165
0.17
0.085
0.115
0.13
0.125
0.08
0.155
0.205
0.245
0.235
0.225
0.26
0.27
0.305
0.26
0.29
0.29
0.29
0.33
0.315
0.275
0.31
0.325
0.31
0.305
0.33
0.35
0.385
0.38
0.365
0.375
0.35
0.345
0.335
0.265
0.32
0.3
0.275
0.345
0.28
0.235
0.245
0.215
0.19
0.155
0.17
0.135
0.125
0.155
0.185
0.12
0.105
0.095
0.1
0.11
0.12
0.08
0.07
-0.01
0.02
-0.01
0.02
-0.055
-0.045
-0.04
-0.045
-0.04
-0.065
-0.05
-0.055
-0.05
-0.06
-0.01
-0.07
-0.065
-0.075
-0.105
-0.07
-0.08
-0.1
-0.115
-0.19
-0.08
-0.06
-0.07
-0.045
-0.005
-0.045
-0.025
-0.035
-0.03
-0.06
-0.04
-0.05
-0.07
-0.08
-0.055
-0.035
-0.03
-0.075
-0.045
-0.035
-0.04
-0.05
-0.05
-0.075
-0.05
-0.055
-0.025
0.0
0.005
0.03
-0.02
-0.02
-0.065
-0.105
-0.095
-0.095
-0.035
-0.035
-0.025
-0.025
-0.03
-0.055
-0.065
-0.045
-0.065
-0.095
-0.075
-0.04
-0.03
-0.02
-0.1
-0.085
-0.13
-0.095
-0.045
-0.075
-0.105
-0.035
-0.05
-0.025
-0.03
-0.05
-0.055
-0.06
-0.04
-0.07
-0.05
-0.045
-0.05
-0.055
-0.075
-0.085
-0.085
-0.095
-0.08
-0.095
-0.085
-0.075
-0.045
-0.045
-0.025
-0.025
-0.025
-0.06
-0.065
-0.08
-0.09
-0.07
-0.07
-0.085
-0.07
-0.06
-0.08
-0.07
-0.065
-0.1
-0.11
-0.14
-0.105
-0.105
-0.115
-0.09
-0.09
-0.085
-0.07
-0.07
-0.06
-0.045
-0.03
-0.03
-0.065
-0.035
-0.04
-0.055
-0.04
-0.015
-0.03
-0.03
-0.055
-0.035
0.005
0.0
-0.025
-0.01
-0.03
0.01
0.015
0.025
0.015
0.05
0.035
-0.02
-0.01
0.02
0.015
0.015
0.03
0.025
0.0
-0.035
-0.03
-0.03
-0.05
-0.03
-0.01
-0.025
0.0
-0.045
-0.045
-0.085
-0.06
-0.08
-0.06
-0.05
-0.065
-0.03
-0.035
-0.09
-0.085
-0.1
-0.1
-0.105
-0.1
-0.08
-0.06
-0.07
-0.05
-0.085
-0.155
-0.105
-0.075
-0.06
-0.09
-0.095
-0.135
-0.13
-0.085
-0.055
-0.05
-0.075
-0.09
-0.005
0.0
0.045
0.125
0.205
0.245
0.31
0.42
0.535
0.615
0.65
0.665
0.665
0.635
0.635
0.58
0.475
0.37
0.24
0.155
-0.015
-0.18
-0.345
-0.415
-0.335
-0.245
-0.23
-0.24
-0.18
-0.095
-0.11
-0.095
-0.08
-0.1
-0.07
-0.065
0.0
-0.035
-0.065
-0.065
-0.065
-0.07
-0.07
-0.055
-0.04
-0.05
-0.05
-0.065
-0.105
-0.075
-0.05
-0.045
-0.065
-0.055
-0.055
-0.03
-0.04
0.0
-0.02
-0.06
-0.06
-0.02
-0.015
-0.035
-0.03
-0.035
0.0
0.005
-0.01
0.005
-0.015
-0.02
-0.03
-0.035
0.005
0.035
0.04
0.035
0.095
0.08
0.05
0.01
0.035
0.02
0.075
0.085
0.06
0.095
0.12
0.12
0.09
0.115
0.11
0.095
0.1
0.12
0.12
0.115
0.095
0.105
0.15
0.16
0.185
0.23
0.245
0.265
0.26
0.245
0.215
0.22
0.27
0.275
0.285
0.28
0.26
0.305
0.325
0.4
0.32
0.325
0.35
0.315
0.265
0.285
0.335
0.345
0.31
0.335
0.32
0.27
0.275
0.26
0.28
0.255
0.25
0.265
0.2
0.23
0.195
0.155
0.17
0.155
0.15
0.125
0.12
0.115
0.12
0.11
0.09
0.015
0.055
0.05
0.03
-0.025
-0.03
-0.015
-0.005
0.035
0.01
0.01
-0.06
-0.06
-0.03
-0.035
-0.06
-0.04
-0.05
-0.09
-0.065
-0.09
-0.07
-0.05
-0.07
-0.1
-0.07
-0.075
-0.05
-0.045
-0.05
-0.045
-0.05
-0.03
-0.015
0.0
-0.005
-0.02
-0.025
-0.08
-0.09
-0.045
-0.07
-0.06
-0.065
-0.095
-0.09
-0.025
-0.04
-0.04
-0.03
-0.115
-0.07
-0.035
-0.065
-0.045
-0.045
-0.035
-0.065
-0.03
-0.06
-0.06
-0.045
-0.15
-0.105
-0.04
-0.05
-0.095
-0.09
-0.055
-0.025
-0.055
-0.01
0.005
0.005
-0.04
-0.015
-0.045
-0.02
-0.02
-0.045
-0.015
-0.005
-0.07
-0.04
-0.055
-0.06
-0.04
-0.075
-0.06
-0.04
-0.06
-0.09
-0.065
-0.045
-0.065
-0.03
-0.035
-0.08
-0.03
-0.06
-0.085
-0.095
-0.075
-0.14
-0.06
-0.065
-0.075
-0.055
-0.08
-0.07
-0.13
-0.15
-0.1
-0.045
-0.055
-0.06
-0.07
-0.065
-0.12
-0.105
-0.115
-0.14
-0.065
-0.07
-0.05
-0.05
-0.05
-0.045
-0.04
-0.01
-0.06
-0.035
-0.03
-0.08
-0.055
-0.05
-0.01
0.005
-0.015
-0.02
-0.02
-0.065
-0.08
-0.02
-0.025
-0.035
-0.005
-0.055
-0.03
-0.05
-0.045
-0.055
-0.06
-0.035
0.01
0.0
-0.015
-0.005
-0.025
0.03
0.025
0.015
0.005
-0.03
-0.005
-0.01
0.01
0.005
0.06
0.01
-0.045
-0.06
-0.095
-0.07
-0.08
-0.075
-0.09
-0.075
-0.08
-0.125
-0.13
-0.1
-0.035
-0.055
-0.085
-0.07
-0.115
-0.08
-0.095
-0.12
-0.145
-0.16
-0.095
-0.095
-0.11
-0.105
-0.14
-0.125
-0.14
-0.13
-0.145
-0.085
-0.085
-0.045
-0.085
-0.065
-0.065
-0.06
-0.08
-0.02
0.025
0.045
0.11
0.22
0.3
0.395
0.44
0.49
0.615
0.625
0.59
0.61
0.665
0.6
0.57
0.495
0.33
0.18
0.09
0.035
-0.01
-0.135
-0.31
-0.335
-0.31
-0.265
-0.225
-0.165
-0.14
-0.12
-0.09
-0.065
-0.07
-0.055
-0.02
-0.06
-0.055
-0.05
-0.05
-0.105
-0.075
-0.09
-0.095
-0.055
-0.06
-0.08
-0.075
-0.095
-0.065
-0.08
-0.105
-0.065
-0.08
-0.07
-0.015
-0.015
0.02
-0.045
-0.105
-0.07
-0.07
-0.075
-0.065
-0.085
-0.1
-0.04
-0.01
0.0
0.005
0.025
0.055
0.03
0.035
0.01
0.02
0.015
0.025
0.065
0.005
0.05
0.05
0.085
0.09
0.07
0.045
0.025
0.07
0.07
0.05
0.085
0.105
0.105
0.11
0.09
0.12
0.09
0.1
0.12
0.125
0.11
0.14
0.135
0.135
0.145
0.21
0.24
0.25
0.245
0.24
0.23
0.235
0.235
0.22
0.29
0.27
0.26
0.305
0.32
0.28
0.305
0.31
0.34
0.31
0.305
0.26
0.265
0.28
0.27
0.255
0.245
0.265
0.285
0.185
0.235
0.27
0.235
0.22
0.195
0.155
0.185
0.17
0.17
0.165
0.06
0.08
0.05
0.055
0.14
0.11
0.055
0.0
-0.025
-0.005
-0.025
0.025
-0.035
-0.05
-0.06
-0.005
0.0
0.0
-0.05
-0.035
-0.035
-0.05
-0.04
-0.06
-0.04
-0.055
-0.065
-0.065
-0.065
-0.075
-0.05
-0.02
-0.045
-0.06
-0.035
-0.055
-0.1
-0.11
-0.08
-0.035
-0.07
-0.06
-0.06
-0.08
-0.115
-0.1
-0.08
-0.1
-0.095
-0.075
-0.065
-0.09
-0.075
-0.045
-0.065
-0.04
-0.095
-0.09
-0.09
-0.08
-0.08
-0.065
-0.065
-0.07
-0.07
-0.065
-0.07
-0.075
-0.06
-0.055
-0.1
-0.055
-0.025
-0.05
-0.03
-0.05
-0.06
-0.095
-0.06
-0.03
-0.04
-0.045
-0.025
-0.02
-0.025
-0.08
-0.085
-0.145
-0.095
-0.06
-0.06
-0.07
-0.06
-0.045
-0.045
-0.1
-0.115
-0.075
-0.005
-0.03
-0.075
-0.07
-0.105
-0.13
-0.145
-0.065
-0.075
-0.105
-0.095
-0.1
-0.14
-0.11
-0.095
-0.055
-0.085
-0.06
-0.145
-0.12
-0.08
-0.045
-0.055
-0.08
-0.075
-0.08
-0.16
-0.09
-0.085
-0.115
-0.09
-0.11
-0.14
-0.135
-0.09
-0.09
-0.075
-0.06
-0.035
-0.03
-0.08
-0.115
-0.095
-0.06
-0.065
-0.09
-0.075
-0.02
-0.01
-0.045
-0.01
-0.045
-0.065
0.02
0.01
0.01
-0.015
-0.04
-0.045
-0.04
-0.035
-0.025
-0.01
-0.015
-0.015
-0.07
-0.07
-0.05
-0.02
-0.025
-0.04
0.0
0.0
-0.055
-0.085
-0.055
-0.045
-0.105
-0.145
-0.155
-0.15
-0.1
-0.075
-0.085
-0.085
-0.08
-0.075
-0.11
-0.105
-0.105
-0.09
-0.105
-0.095
-0.085
-0.095
-0.13
-0.135
-0.11
-0.095
-0.115
-0.14
-0.175
-0.155
-0.105
-0.09
-0.065
-0.07
-0.12
-0.115
-0.135
-0.11
-0.075
-0.08
-0.07
-0.03
0.015
0.115
0.24
0.29
0.305
0.455
0.555
0.615
0.67
0.72
0.695
0.665
0.63
0.625
0.535
0.315
0.12
0.04
0.03
-0.03
-0.17
-0.325
-0.35
-0.32
-0.26
-0.235
-0.19
-0.13
-0.1
-0.095
-0.08
-0.13
-0.045
-0.03
-0.075
-0.105
-0.085
-0.04
-0.055
-0.05
-0.075
-0.105
-0.05
-0.075
-0.115
-0.105
-0.095
-0.07
-0.055
-0.05
-0.075
-0.065
-0.07
-0.095
-0.075
-0.055
-0.09
-0.07
-0.04
-0.055
-0.09
-0.04
-0.015
-0.04
-0.005
-0.015
-0.05
-0.02
-0.035
-0.005
0.005
0.01
-0.06
-0.095
0.005
0.035
0.035
0.005
0.0
0.005
0.04
0.075
0.06
0.03
0.025
0.045
0.035
0.02
0.07
0.04
0.04
0.07
0.07
0.095
0.075
0.09
0.085
0.115
0.12
0.105
0.16
0.19
0.21
0.21
0.21
0.195
0.15
0.21
0.195
0.185
0.255
0.27
0.305
0.335
0.28
0.315
0.32
0.275
0.28
0.275
0.285
0.29
0.265
0.285
0.27
0.255
0.26
0.25
0.265
0.285
0.22
0.235
0.23
0.2
0.195
0.21
0.22
0.185
0.17
0.16
0.12
0.08
0.115
0.11
-0.005
0.055
0.07
-0.025
-0.005
-0.05
-0.07
-0.02
0.0
-0.02
-0.01
-0.03
-0.015
-0.01
-0.05
-0.05
-0.055
-0.095
-0.07
-0.025
-0.04
-0.075
-0.12
-0.09
-0.11
-0.075
-0.045
-0.115
-0.135
-0.15
-0.075
-0.03
-0.03
-0.035
-0.015
-0.085
-0.15
-0.085
-0.12
-0.095
-0.09
-0.055
-0.055
-0.055
-0.07
-0.09
-0.09
-0.09
-0.095
-0.105
-0.09
-0.08
-0.065
-0.07
-0.13
-0.055
-0.07
-0.09
-0.085
-0.085
-0.075
-0.09
-0.13
-0.085
-0.08
-0.11
-0.1
-0.1
-0.055
-0.105
-0.125
-0.085
-0.05
-0.065
-0.11
-0.155
-0.075
-0.075
-0.085
-0.1
-0.095
-0.07
-0.06
-0.02
-0.04
-0.065
-0.085
-0.09
-0.075
-0.06
-0.03
-0.075
-0.11
-0.115
-0.12
-0.07
-0.095
-0.085
-0.085
-0.065
-0.025
-0.085
-0.095
-0.085
-0.065
-0.14
-0.145
-0.13
-0.06
-0.075
-0.09
-0.105
-0.075
-0.075
-0.07
-0.09
-0.09
-0.08
-0.055
-0.075
-0.065
-0.08
-0.12
-0.105
-0.08
-0.115
-0.11
-0.105
-0.115
-0.145
-0.105
-0.1
-0.075
-0.105
-0.105
-0.085
-0.11
-0.16
-0.095
-0.04
-0.11
-0.135
-0.12
-0.11
-0.115
-0.115
-0.13
-0.085
-0.11
-0.15
-0.145
-0.08
-0.065
-0.065
-0.06
-0.1
-0.1
-0.07
-0.07
-0.045
-0.015
0.0
-0.025
-0.09
-0.045
-0.035
-0.06
-0.04
-0.025
-0.02
-0.045
-0.025
-0.025
-0.05
-0.105
-0.02
-0.04
-0.06
-0.03
-0.02
-0.06
-0.07
-0.045
-0.03
-0.04
-0.01
-0.055
-0.04
-0.055
-0.025
-0.025
-0.005
-0.03
-0.03
-0.035
-0.075
-0.075
-0.13
-0.14
-0.145
-0.15
-0.12
-0.125
-0.11
-0.095
-0.08
-0.08
-0.125
-0.135
-0.125
-0.11
-0.14
-0.115
-0.14
-0.105
-0.105
-0.115
-0.095
-0.135
-0.14
-0.08
-0.06
-0.08
-0.07
-0.095
-0.09
-0.085
-0.065
-0.075
-0.075
-0.115
-0.105
-0.09
-0.09
-0.065
-0.045
0.01
0.145
0.215
0.315
0.37
0.455
0.555
0.63
0.685
0.69
0.72
0.675
0.6
0.56
0.495
0.325
0.15
0.03
-0.03
-0.03
-0.19
-0.335
-0.37
-0.31
-0.275
-0.225
-0.15
-0.15
-0.115
-0.105
-0.085
-0.08
-0.14
-0.055
-0.065
-0.11
-0.07
-0.075
-0.095
-0.04
-0.05
-0.12
-0.145
-0.15
-0.095
-0.075
-0.055
-0.09
-0.11
-0.095
-0.105
-0.085
-0.07
-0.07
-0.04
0.005
-0.075
-0.105
-0.075
-0.065
-0.035
0.0
-0.015
-0.03
-0.02
-0.01
-0.01
-0.025
-0.03
-0.015
-0.015
-0.02
-0.04
-0.015
-0.01
0.04
0.02
0.025
0.045
0.045
0.035
0.04
0.1
0.03
-0.01
0.055
0.04
0.065
0.085
0.11
0.085
0.05
0.06
0.075
0.08
0.12
0.14
0.09
0.125
0.14
0.1
0.18
0.175
0.17
0.155
0.185
0.22
0.265
0.28
0.295
0.305
0.28
0.24
0.275
0.335
0.32
0.295
0.295
0.305
0.3
0.31
0.305
0.315
0.325
0.3
0.325
0.33
0.295
0.28
0.3
0.28
0.255
0.255
0.205
0.2
0.19
0.215
0.165
0.175
0.19
0.17
0.115
0.1
0.06
0.06
0.105
0.095
0.08
0.08
0.015
0.035
0.005
-0.03
0.0
0.025
-0.025
0.0
-0.08
-0.1
-0.065
-0.08
-0.06
-0.02
-0.04
-0.035
-0.045
-0.03
-0.04
-0.085
-0.06
-0.105
-0.07
-0.045
-0.025
-0.015
-0.045
0.02
0.005
-0.005
-0.065
-0.045
-0.01
-0.025
-0.06
-0.11
-0.075
-0.04
-0.06
-0.07
-0.085
-0.07
-0.05
-0.05
-0.115
-0.07
-0.07
-0.085
-0.065
-0.09
-0.07
-0.06
-0.065
-0.05
-0.045
-0.055
-0.045
-0.095
-0.095
-0.055
-0.09
-0.075
-0.07
-0.055
-0.045
-0.075
-0.05
-0.065
-0.115
-0.12
-0.09
-0.06
-0.045
-0.08
-0.06
-0.03
-0.07
-0.055
-0.005
-0.025
-0.055
-0.05
-0.095
-0.075
-0.055
-0.04
-0.02
-0.025
-0.045
-0.035
-0.075
-0.055
-0.065
-0.08
-0.07
-0.055
-0.09
-0.07
-0.055
-0.065
-0.075
-0.065
-0.03
-0.02
-0.06
-0.125
-0.065
-0.055
-0.095
-0.105
-0.065
-0.07
-0.075
-0.09
-0.055
-0.04
-0.065
-0.095
-0.095
-0.07
-0.065
-0.01
-0.035
-0.085
-0.085
-0.06
-0.11
-0.1
-0.075
-0.105
-0.06
-0.06
-0.08
-0.085
-0.07
-0.07
-0.1
-0.08
-0.085
-0.09
-0.07
-0.03
-0.06
-0.05
-0.085
-0.045
-0.035
-0.05
-0.055
-0.08
-0.06
-0.07
-0.09
-0.09
-0.135
-0.145
-0.14
-0.075
-0.06
-0.11
-0.06
-0.05
-0.035
-0.005
-0.075
-0.055
-0.04
-0.075
-0.05
-0.08
-0.125
-0.075
0.015
0.0
-0.025
-0.06
-0.085
-0.055
-0.01
-0.03
-0.005
0.04
0.01
0.035
0.075
0.075
0.04
0.025
0.025
0.01
0.02
0.01
0.02
0.045
0.045
0.01
-0.015
-0.025
-0.03
0.01
0.03
0.025
0.02
-0.065
-0.08
-0.06
-0.08
-0.035
-0.05
-0.035
-0.02
-0.03
-0.02
-0.02
-0.07
-0.12
-0.085
-0.1
-0.105
-0.08
-0.055
-0.085
-0.075
-0.04
-0.045
-0.05
-0.07
-0.045
-0.035
-0.065
-0.1
-0.08
-0.075
-0.085
-0.045
-0.06
-0.085
-0.09
-0.06
-0.065
-0.035
-0.035
0.005
0.06
0.13
0.2
0.275
0.35
0.445
0.54
0.635
0.735
0.78
0.81
0.795
0.735
0.68
0.62
0.45
0.3
0.2
0.05
-0.1
-0.235
-0.32
-0.335
-0.295
-0.285
-0.225
-0.22
-0.185
-0.14
-0.11
-0.085
-0.07
-0.035
-0.06
-0.025
-0.02
-0.055
-0.005
0.005
0.005
-0.03
-0.05
-0.075
-0.03
-0.055
-0.05
-0.015
-0.025
-0.055
-0.04
-0.015
-0.015
0.0
-0.04
-0.07
-0.03
0.0
-0.06
-0.065
0.02
0.035
0.02
0.03
0.025
0.0
-0.01
0.025
-0.025
0.005
0.015
0.045
0.03
0.04
0.055
0.035
0.04
0.045
0.05
0.06
0.08
0.05
0.055
0.08
0.095
0.065
0.06
0.125
0.09
0.075
0.085
0.095
0.095
0.09
0.135
0.145
0.14
0.14
0.14
0.155
0.165
0.18
0.15
0.2
0.28
0.225
0.27
0.27
0.295
0.285
0.325
0.345
0.325
0.34
0.36
0.345
0.355
0.31
0.32
0.33
0.32
0.355
0.37
0.35
0.375
0.365
0.325
0.325
0.335
0.36
0.355
0.29
0.27
0.255
0.23
0.24
0.245
0.235
0.26
0.26
0.185
0.18
0.19
0.19
0.17
0.155
0.115
0.08
0.12
0.13
0.115
0.05
0.07
0.03
0.035
0.055
0.03
-0.005
0.01
-0.01
-0.04
-0.035
-0.03
0.01
0.035
-0.015
-0.015
-0.085
-0.075
-0.065
-0.085
-0.085
-0.065
-0.065
-0.055
-0.045
-0.03
-0.1
-0.1
-0.065
-0.065
-0.015
0.015
-0.015
-0.065
-0.05
-0.055
-0.045
-0.05
-0.06
-0.005
-0.015
-0.045
-0.05
-0.035
-0.02
-0.03
-0.035
-0.03
-0.035
0.005
0.035
0.01
-0.02
-0.03
-0.04
-0.065
-0.06
-0.05
0.01
0.035
-0.005
-0.015
-0.03
-0.02
-0.05
-0.04
-0.015
-0.005
-0.005
-0.035
-0.06
-0.015
-0.035
-0.01
-0.06
-0.06
-0.045
-0.05
-0.015
0.03
-0.045
-0.03
-0.045
-0.055
-0.065
-0.015
-0.055
-0.005
0.03
-0.03
-0.01
0.005
-0.065
-0.07
-0.08
-0.035
-0.02
-0.005
-0.04
-0.03
0.0
0.0
-0.02
-0.045
-0.08
-0.1
-0.07
-0.06
-0.035
-0.025
-0.025
-0.04
-0.04
-0.035
-0.05
-0.07
-0.095
-0.1
-0.035
-0.03
-0.04
-0.08
-0.08
-0.05
-0.03
-0.04
-0.035
-0.07
-0.045
0.0
-0.025
-0.08
-0.035
-0.04
-0.07
-0.05
-0.04
-0.015
-0.05
-0.075
-0.02
-0.055
-0.05
-0.03
-0.06
-0.015
-0.045
-0.11
-0.11
-0.11
-0.05
-0.07
-0.065
-0.07
-0.075
-0.04
-0.04
-0.075
-0.06
-0.04
-0.025
-0.065
-0.09
-0.045
0.05
0.005
0.005
0.005
0.045
0.025
0.04
0.025
0.03
0.06
-0.025
-0.015
0.025
0.03
-0.005
-0.045
0.005
0.04
-0.005
-0.015
-0.025
-0.02
0.025
-0.005
0.02
0.045
0.01
-0.02
-0.02
-0.055
0.0
-0.02
-0.065
-0.06
-0.065
-0.08
-0.08
-0.06
-0.085
-0.085
-0.085
-0.045
-0.02
-0.03
-0.055
-0.08
-0.075
-0.085
-0.08
-0.095
-0.065
-0.065
-0.085
-0.025
-0.1
-0.085
-0.08
-0.085
-0.02
-0.01
-0.055
-0.025
0.0
-0.005
0.015
0.01
0.05
0.065
0.11
0.15
0.255
0.345
0.425
0.545
0.68
0.71
0.675
0.685
0.64
0.605
0.53
0.48
0.32
0.2
0.08
-0.06
-0.155
-0.295
-0.41
-0.36
-0.275
-0.265
-0.25
-0.175
-0.12
-0.135
-0.075
-0.1
-0.06
-0.045
-0.03
-0.015
-0.035
-0.035
-0.045
-0.025
-0.04
-0.06
-0.04
-0.02
-0.075
-0.055
0.01
-0.005
-0.005
-0.035
-0.02
-0.03
-0.07
-0.08
0.005
0.0
0.02
0.05
0.06
0.095
0.085
-0.03
-0.05
0.015
0.03
0.03
0.045
-0.005
-0.01
0.025
0.0
0.04
0.085
0.06
0.055
0.02
-0.015
0.01
0.06
0.09
0.09
0.11
0.12
0.115
0.14
0.115
0.08
0.09
0.095
0.105
0.115
0.13
0.14
0.19
0.17
0.085
0.14
0.17
0.195
0.215
0.16
0.185
0.22
0.22
0.24
0.225
0.255
0.305
0.265
0.29
0.29
0.31
0.365
0.31
0.3
0.3
0.335
0.355
0.335
0.35
0.37
0.37
0.37
0.34
0.335
0.335
0.32
0.315
0.345
0.355
0.325
0.3
0.295
0.285
0.275
0.205
0.235
0.24
0.23
0.23
0.225
0.225
0.225
0.195
0.155
0.115
0.075
0.075
0.05
0.04
0.04
0.045
0.015
-0.02
-0.025
-0.005
0.035
0.005
0.05
0.025
-0.005
-0.005
-0.055
-0.055
0.01
0.04
-0.02
-0.01
-0.005
-0.03
0.0
-0.015
-0.075
-0.07
-0.095
-0.08
-0.1
-0.07
-0.025
-0.025
-0.005
0.015
-0.07
-0.035
-0.025
-0.01
-0.025
-0.025
-0.045
-0.08
-0.115
-0.105
-0.065
-0.065
-0.005
0.03
-0.005
0.005
0.015
-0.01
-0.045
-0.065
-0.01
0.01
0.015
-0.005
0.01
0.01
0.0
-0.075
-0.06
-0.01
-0.015
-0.045
-0.04
0.005
0.005
-0.005
-0.035
-0.05
-0.06
-0.02
-0.06
-0.04
-0.005
-0.035
-0.005
-0.02
-0.01
0.005
0.02
0.01
-0.035
-0.08
-0.065
-0.01
-0.045
-0.015
-0.04
-0.05
-0.02
-0.13
-0.045
-0.095
-0.09
-0.07
-0.07
-0.055
-0.015
-0.01
-0.04
-0.025
0.01
0.035
0.01
-0.03
-0.03
-0.04
-0.07
-0.04
-0.025
-0.01
-0.04
-0.055
-0.015
-0.055
-0.105
-0.09
-0.08
-0.1
-0.08
-0.05
-0.06
-0.06
-0.06
-0.03
-0.01
-0.03
-0.04
-0.03
-0.075
-0.12
-0.095
-0.08
-0.09
-0.08
-0.07
-0.07
-0.075
-0.075
-0.115
-0.075
-0.085
-0.085
-0.05
-0.055
-0.04
-0.05
-0.065
-0.045
-0.12
-0.15
-0.145
-0.12
-0.045
-0.075
0.01
-0.01
-0.03
-0.015
-0.01
-0.05
-0.075
-0.095
-0.065
-0.04
-0.015
-0.01
-0.035
-0.085
-0.045
0.005
-0.005
-0.025
-0.055
-0.045
-0.015
0.02
0.015
-0.01
-0.02
0.03
0.035
0.015
0.03
0.04
0.015
-0.015
-0.03
0.01
0.015
0.01
0.015
-0.045
0.005
-0.025
-0.075
-0.085
-0.065
-0.045
-0.045
-0.07
-0.12
-0.075
0.01
0.005
-0.05
-0.055
-0.025
-0.045
-0.035
-0.07
-0.065
-0.035
-0.025
-0.085
-0.105
-0.175
-0.11
-0.125
-0.07
-0.09
-0.09
-0.055
-0.11
-0.105
-0.065
-0.06
-0.075
-0.105
-0.11
-0.065
-0.055
-0.04
-0.06
-0.06
-0.01
0.01
0.095
0.2
0.27
0.35
0.385
0.42
0.545
0.645
0.665
0.68
0.595
0.585
0.585
0.48
0.335
0.16
0.005
-0.07
-0.075
-0.18
-0.3
-0.305
-0.265
-0.235
-0.185
-0.135
-0.095
-0.05
-0.025
-0.055
-0.08
-0.185
-0.125
-0.06
-0.045
-0.075
-0.055
-0.04
-0.06
-0.035
-0.06
-0.085
-0.1
-0.105
-0.075
-0.075
-0.09
-0.075
-0.095
-0.07
-0.05
-0.06
-0.09
-0.11
-0.03
-0.025
-0.02
-0.02
-0.025
-0.03
-0.065
-0.055
-0.025
0.015
-0.035
-0.085
-0.09
-0.055
-0.05
-0.05
0.01
0.02
0.0
0.0
0.025
0.01
0.005
0.03
0.02
0.015
-0.02
0.045
0.065
0.08
0.095
0.025
0.04
0.05
0.095
0.115
0.12
0.1
0.06
0.07
0.125
0.145
0.135
0.145
0.13
0.165
0.11
0.165
0.195
0.2
0.2
0.205
0.185
0.23
0.21
0.265
0.295
0.28
0.295
0.275
0.28
0.215
0.215
0.305
0.28
0.285
0.32
0.31
0.27
0.27
0.29
0.32
0.29
0.225
0.26
0.265
0.26
0.225
0.22
0.22
0.23
0.175
0.165
0.15
0.12
0.115
0.1
0.1
0.03
-0.035
0.005
0.005
0.025
0.07
0.09
0.025
0.005
0.005
-0.02
-0.03
0.055
0.03
0.025
-0.01
-0.075
-0.045
-0.085
-0.065
0.0
-0.005
0.0
-0.055
-0.04
-0.065
-0.095
-0.09
-0.065
-0.07
-0.065
-0.065
-0.07
-0.075
-0.095
-0.125
-0.095
-0.09
-0.105
-0.08
-0.065
-0.045
-0.075
-0.09
-0.075
-0.095
-0.075
-0.075
0.015
-0.055
-0.08
-0.095
-0.12
-0.1
-0.09
-0.08
-0.075
-0.07
-0.11
-0.125
-0.1
-0.13
-0.14
-0.075
-0.08
-0.085
-0.12
-0.07
-0.025
-0.03
-0.045
-0.01
-0.05
-0.045
-0.08
-0.115
-0.065
-0.02
-0.02
-0.055
-0.075
-0.09
-0.075
-0.125
-0.175
-0.12
-0.025
-0.045
-0.05
-0.06
-0.03
-0.035
-0.06
-0.06
-0.05
-0.095
-0.085
-0.09
-0.12
-0.07
-0.045
-0.005
-0.07
-0.075
-0.075
-0.085
-0.065
-0.07
-0.05
-0.075
-0.185
-0.15
-0.04
-0.085
-0.1
-0.1
-0.17
-0.1
-0.12
-0.105
-0.075
-0.105
-0.09
-0.07
-0.11
-0.155
-0.155
-0.125
-0.04
-0.035
-0.065
-0.07
-0.065
-0.08
-0.16
-0.12
-0.11
-0.075
-0.065
-0.105
-0.11
-0.115
-0.11
-0.125
-0.075
-0.07
-0.05
-0.055
-0.09
-0.135
-0.095
-0.065
-0.075
-0.05
-0.05
-0.075
-0.08
-0.1
-0.075
-0.09
-0.085
-0.07
-0.06
-0.04
-0.07
-0.095
-0.135
-0.12
-0.085
-0.135
-0.1
-0.085
-0.105
-0.12
-0.09
-0.065
-0.09
-0.06
-0.05
-0.07
-0.09
-0.03
-0.02
-0.02
-0.05
-0.045
-0.04
-0.05
-0.055
-0.1
-0.095
-0.105
-0.04
0.005
-0.04
-0.01
0.065
0.025
-0.015
-0.01
-0.005
-0.02
-0.02
-0.025
-0.105
-0.085
-0.06
-0.065
-0.04
-0.015
0.01
0.0
-0.02
-0.025
-0.075
-0.045
-0.07
-0.065
-0.04
-0.05
-0.08
-0.055
-0.03
-0.065
-0.09
-0.11
-0.09
-0.07
-0.06
-0.105
-0.105
-0.075
-0.08
-0.115
-0.11
-0.11
-0.07
-0.075
-0.045
-0.02
-0.05
-0.08
-0.095
-0.12
-0.15
-0.195
-0.16
-0.105
-0.085
-0.08
-0.055
-0.09
-0.05
-0.045
-0.005
0.09
0.135
0.185
0.205
0.255
0.405
0.545
0.6
0.695
0.73
0.645
0.65
0.64
0.555
0.46
0.29
0.195
0.095
0.015
0.015
-0.1
-0.265
-0.335
-0.32
-0.265
-0.21
-0.12
-0.08
-0.045
-0.055
-0.1
-0.155
-0.1
-0.07
-0.08
-0.04
-0.055
-0.095
-0.05
-0.015
-0.075
-0.105
-0.12
-0.1
-0.055
-0.05
-0.055
-0.065
-0.065
-0.03
-0.06
-0.085
-0.085
-0.065
-0.045
-0.07
-0.04
-0.02
-0.015
-0.015
-0.03
-0.035
-0.04
-0.06
-0.055
-0.035
-0.095
-0.085
-0.06
-0.015
0.045
0.055
-0.025
-0.015
-0.01
0.035
0.025
-0.005
-0.01
-0.015
-0.01
0.005
0.015
0.05
0.02
0.0
0.005
0.06
0.055
0.04
0.085
0.055
0.04
0.095
0.115
0.115
0.09
0.105
0.16
0.185
0.185
0.13
0.16
0.22
0.24
0.21
0.22
0.18
0.175
0.19
0.195
0.205
0.215
0.265
0.29
0.29
0.265
0.28
0.305
0.28
0.305
0.28
0.305
0.33
0.255
0.245
0.25
0.265
0.305
0.29
0.31
0.245
0.255
0.28
0.275
0.225
0.195
0.205
0.185
0.16
0.165
0.165
0.115
0.055
0.05
0.035
0.035
0.075
0.03
0.01
0.035
0.015
-0.025
-0.045
-0.01
0.015
0.02
-0.015
-0.015
-0.02
-0.05
-0.035
-0.05
-0.08
-0.09
-0.11
-0.095
-0.1
-0.11
-0.07
-0.04
-0.035
-0.055
-0.1
-0.095
-0.085
-0.055
-0.075
-0.035
-0.045
-0.1
-0.095
-0.115
-0.135
-0.05
-0.035
-0.035
-0.04
-0.06
-0.115
-0.055
-0.1
-0.115
-0.115
-0.07
-0.09
-0.11
-0.115
-0.085
-0.045
-0.05
-0.065
-0.03
-0.08
-0.05
-0.065
-0.105
-0.155
-0.085
-0.075
-0.09
-0.12
-0.08
-0.065
-0.045
-0.05
-0.065
-0.025
-0.08
-0.06
-0.06
-0.075
-0.105
-0.075
-0.05
-0.055
-0.095
-0.065
-0.095
-0.12
-0.115
-0.135
-0.12
-0.075
-0.11
-0.105
-0.105
-0.08
-0.075
-0.06
-0.1
-0.095
-0.04
-0.03
-0.045
-0.125
-0.12
-0.105
-0.07
-0.065
-0.115
-0.075
-0.055
-0.07
-0.075
-0.09
-0.06
-0.075
-0.085
-0.07
-0.135
-0.135
-0.1
-0.085
-0.11
-0.105
-0.09
-0.115
-0.09
-0.055
0.015
-0.02
-0.09
-0.11
-0.1
-0.115
-0.105
-0.13
-0.12
-0.105
-0.15
-0.155
-0.065
-0.035
-0.075
-0.055
-0.08
-0.16
-0.11
-0.075
-0.07
-0.09
-0.075
-0.06
-0.08
-0.105
-0.065
-0.07
-0.11
-0.18
-0.145
-0.14
-0.155
-0.105
-0.07
-0.045
-0.03
-0.03
0.0
-0.065
-0.12
-0.095
-0.095
-0.095
-0.1
-0.13
-0.17
-0.135
-0.1
-0.085
-0.1
-0.11
-0.055
-0.07
-0.065
-0.095
-0.1
-0.065
-0.115
-0.16
-0.105
-0.065
-0.03
-0.07
-0.095
-0.105
-0.08
-0.085
-0.075
-0.035
-0.035
-0.005
-0.02
-0.025
-0.04
-0.045
0.005
0.0
-0.01
-0.055
-0.065
-0.085
-0.05
0.0
0.02
0.07
-0.01
-0.035
-0.025
-0.03
0.01
-0.015
-0.075
-0.055
-0.035
0.015
0.005
0.0
0.0
0.005
0.0
0.025
0.01
0.015
0.015
-0.03
-0.075
-0.05
-0.04
-0.07
-0.11
-0.09
-0.065
-0.045
-0.025
-0.02
-0.02
-0.085
-0.12
-0.11
-0.125
-0.115
-0.09
-0.08
-0.105
-0.115
-0.085
-0.105
-0.105
-0.11
-0.11
-0.07
-0.04
-0.095
-0.06
-0.045
-0.055
-0.08
-0.085
-0.08
-0.015
0.08
0.115
0.175
0.275
0.35
0.425
0.48
0.555
0.61
0.64
0.675
0.7
0.685
0.685
0.655
0.51
0.32
0.16
0.095
0.095
-0.015
-0.165
-0.305
-0.285
-0.185
-0.215
-0.14
-0.14
-0.125
-0.075
-0.09
-0.06
-0.04
-0.065
-0.03
-0.02
-0.025
-0.015
-0.04
-0.1
-0.08
-0.04
-0.05
-0.04
-0.035
-0.055
-0.07
-0.095
-0.135
-0.08
-0.025
-0.015
-0.025
-0.035
-0.025
-0.02
-0.025
-0.035
-0.01
-0.02
-0.05
-0.02
-0.05
-0.01
0.04
0.0
-0.025
0.005
0.01
-0.005
0.01
-0.02
0.035
-0.01
0.005
-0.015
-0.035
0.04
0.025
0.035
0.07
0.08
0.115
0.115
0.115
0.125
0.085
0.08
0.065
0.08
0.095
0.13
0.08
0.13
0.155
0.125
0.185
0.17
0.15
0.155
0.235
0.24
0.215
0.225
0.225
0.255
0.26
0.275
0.31
0.265
0.245
0.245
0.28
0.285
0.345
0.305
0.325
0.33
0.32
0.355
0.37
0.38
0.4
0.365
0.36
0.355
0.365
0.31
0.29
0.335
0.355
0.365
0.34
0.28
0.32
0.305
0.3
0.265
0.31
0.25
0.23
0.215
0.165
0.165
0.125
0.16
0.145
0.12
0.075
0.08
0.06
0.095
-0.005
0.015
0.035
0.02
0.04
0.025
0.01
0.015
0.02
0.045
0.005
0.01
0.015
0.025
0.0
-0.01
-0.01
0.01
0.02
-0.01
0.005
-0.01
-0.025
-0.025
-0.095
-0.055
-0.005
0.005
-0.01
-0.05
-0.035
0.015
-0.02
-0.02
-0.055
-0.055
0.005
-0.025
-0.08
-0.045
-0.045
-0.05
-0.045
-0.045
-0.05
-0.045
-0.055
-0.03
-0.01
-0.01
-0.025
-0.045
-0.08
-0.075
-0.025
-0.045
-0.02
-0.02
-0.02
-0.025
-0.02
-0.03
-0.055
-0.07
-0.055
-0.06
-0.085
-0.04
-0.08
-0.025
-0.02
-0.025
-0.065
-0.055
-0.11
-0.075
-0.07
-0.02
-0.02
-0.085
-0.055
0.0
0.02
0.005
-0.055
-0.095
-0.04
-0.065
-0.015
0.01
0.01
0.0
-0.01
-0.015
0.0
0.015
-0.025
-0.04
-0.045
-0.04
-0.05
-0.05
-0.05
0.005
-0.02
-0.045
-0.06
-0.04
-0.06
-0.04
-0.075
-0.09
-0.075
-0.065
-0.08
-0.065
-0.065
-0.06
-0.055
-0.03
-0.03
-0.05
-0.09
-0.09
-0.035
0.0
-0.01
-0.015
-0.03
-0.06
-0.075
-0.075
-0.05
-0.05
-0.055
-0.02
0.0
0.0
-0.055
-0.05
-0.095
-0.07
-0.055
-0.075
-0.045
-0.02
-0.085
-0.105
-0.12
-0.095
-0.065
-0.045
-0.06
-0.075
-0.065
-0.06
-0.02
-0.06
-0.125
-0.07
-0.055
-0.065
-0.07
-0.08
-0.035
-0.045
-0.035
-0.02
-0.015
0.01
0.035
-0.01
-0.035
-0.02
-0.035
-0.05
-0.055
-0.05
-0.1
-0.095
-0.07
-0.06
-0.05
-0.05
-0.04
-0.025
-0.035
-0.01
-0.04
-0.005
0.015
-0.03
-0.055
-0.06
-0.005
0.02
0.045
0.025
0.0
-0.005
0.005
0.045
0.095
0.09
0.045
0.035
0.05
0.06
0.035
0.04
0.03
0.015
0.015
0.035
0.06
0.055
0.035
0.005
0.01
0.025
0.045
0.02
0.0
-0.015
-0.01
-0.015
-0.025
-0.055
-0.075
-0.06
-0.055
-0.04
-0.025
-0.025
-0.055
-0.025
-0.055
-0.05
-0.025
-0.07
-0.04
-0.01
-0.01
-0.05
-0.025
0.0
-0.015
-0.065
-0.05
-0.02
-0.065
-0.055
-0.015
-0.03
-0.065
-0.06
-0.05
-0.03
-0.02
-0.01
0.01
0.045
0.065
0.155
0.225
0.32
0.38
0.355
0.495
0.6
0.665
0.75
0.785
0.72
0.745
0.695
0.585
0.37
0.245
0.135
0.04
-0.03
-0.205
-0.31
-0.31
-0.325
-0.28
-0.19
-0.13
-0.075
-0.065
-0.015
0.015
0.03
0.01
0.01
-0.01
-0.015
-0.035
-0.005
-0.025
-0.01
0.03
-0.01
-0.01
-0.01
0.0
0.005
-0.055
-0.055
-0.025
-0.035
0.015
0.015
-0.005
0.01
0.05
0.0
-0.005
-0.04
0.0
0.0
0.03
-0.005
0.01
0.015
0.07
0.08
0.02
0.04
0.075
0.09
0.07
0.06
0.06
0.07
0.09
0.08
0.065
0.095
0.06
0.075
0.09
0.095
0.085
0.09
0.11
0.155
0.185
0.175
0.145
0.13
0.13
0.085
0.115
0.175
0.215
0.25
0.195
0.225
0.265
0.235
0.19
0.16
0.205
0.215
0.23
0.23
0.24
0.3
0.31
0.35
0.37
0.315
0.315
0.33
0.365
0.36
0.365
0.375
0.35
0.37
0.39
0.395
0.36
0.395
0.4
0.375
0.385
0.425
0.39
0.365
0.405
0.41
0.405
0.355
0.3
0.245
0.275
0.27
0.285
0.235
0.19
0.205
0.245
0.2
0.175
0.195
0.155
0.165
0.125
0.115
0.105
0.1
0.115
0.095
0.05
0.065
0.06
0.065
0.055
0.035
0.035
0.015
0.01
0.03
0.06
0.06
0.06
0.04
-0.03
0.015
0.02
0.02
0.005
0.015
0.025
0.025
0.03
-0.03
0.02
0.025
0.025
-0.005
0.01
0.05
0.015
-0.035
0.01
-0.01
0.035
0.005
0.02
0.0
-0.005
0.02
0.005
-0.015
0.02
-0.025
-0.005
0.06
0.045
0.085
0.03
0.03
0.0
0.035
0.02
-0.015
-0.01
-0.02
-0.02
-0.005
0.03
0.065
0.035
0.055
0.075
0.065
0.015
0.075
0.025
0.035
0.05
0.065
0.055
0.045
0.02
0.02
0.065
0.05
0.04
0.02
-0.005
0.005
0.015
0.015
-0.045
0.005
0.0
0.02
0.025
0.02
0.06
0.035
-0.005
0.0
0.045
0.03
0.015
0.01
0.025
0.035
0.02
-0.015
-0.005
0.035
0.025
0.04
0.025
-0.005
0.035
-0.005
-0.005
0.0
0.01
-0.015
-0.025
-0.02
-0.02
-0.055
-0.03
-0.015
-0.02
0.015
0.04
0.02
0.0
-0.035
-0.03
0.03
-0.01
-0.02
0.01
0.015
-0.01
-0.02
-0.02
-0.03
-0.02
-0.005
0.03
0.005
-0.005
0.0
0.01
0.015
0.0
-0.02
-0.02
0.005
-0.015
0.055
0.02
-0.045
-0.095
0.02
0.035
-0.035
-0.03
-0.025
-0.02
-0.035
-0.015
-0.005
0.005
0.005
0.01
-0.045
-0.01
-0.015
-0.04
-0.04
-0.02
-0.005
-0.03
-0.01
-0.005
-0.04
-0.04
-0.02
-0.015
-0.025
-0.035
-0.035
-0.045
-0.055
-0.05
-0.015
-0.005
-0.02
-0.03
0.01
0.04
0.035
0.06
0.055
0.03
0.025
0.035
0.01
0.02
0.07
0.045
0.085
0.115
0.065
0.06
0.055
0.1
0.1
0.045
0.04
0.015
0.025
0.04
0.05
0.05
0.07
0.105
0.11
0.09
0.085
0.055
0.035
0.025
0.015
0.005
0.0
-0.005
-0.01
-0.03
0.0
-0.025
-0.035
-0.025
-0.005
-0.015
-0.03
-0.065
-0.05
-0.045
-0.06
-0.035
-0.005
0.015
-0.005
-0.005
-0.05
-0.03
0.005
-0.02
-0.035
-0.02
-0.01
-0.02
-0.035
-0.005
0.01
0.03
0.04
0.055
0.05
0.075
0.075
0.085
0.19
0.32
0.415
0.52
0.635
0.74
0.78
0.78
0.785
0.76
0.735
0.62
0.57
0.42
0.27
0.165
0.015
-0.09
-0.205
-0.335
-0.29
-0.265
-0.21
-0.18
-0.125
-0.15
-0.12
-0.035
-0.075
-0.005
0.035
0.02
0.025
0.035
0.02
0.015
0.015
-0.01
0.015
0.035
0.045
0.015
0.01
0.035
0.025
0.025
0.02
0.06
0.065
0.06
0.09
0.07
0.075
0.055
0.03
0.025
0.06
0.115
0.125
0.105
0.07
0.02
-0.01
0.02
0.04
0.045
0.07
0.095
0.1
0.125
0.11
0.085
0.115
0.055
0.055
0.07
0.105
0.15
0.135
0.145
0.14
0.14
0.145
0.14
0.195
0.19
0.2
0.215
0.23
0.24
0.175
0.15
0.215
0.225
0.21
0.24
0.25
0.28
0.3
0.305
0.27
0.26
0.3
0.335
0.33
0.325
0.325
0.345
0.395
0.385
0.405
0.375
0.43
0.38
0.41
0.425
0.375
0.405
0.445
0.45
0.44
0.465
0.435
0.415
0.43
0.42
0.43
0.41
0.4
0.29
0.305
0.355
0.335
0.38
0.38
0.33
0.255
0.27
0.27
0.28
0.235
0.245
0.22
0.24
0.24
0.205
0.205
0.185
0.165
0.135
0.13
0.125
0.145
0.12
0.105
0.075
0.09
0.08
0.07
0.075
0.05
0.07
0.05
0.035
0.055
0.025
0.075
0.065
0.03
0.01
0.02
0.03
0.035
0.05
0.095
0.13
0.075
0.005
0.01
-0.01
0.01
0.04
0.045
0.045
0.05
0.06
0.035
0.065
0.075
0.08
0.07
0.06
0.04
0.035
0.035
0.01
0.02
0.035
0.055
0.045
0.025
0.05
-0.005
0.05
0.025
0.015
0.02
0.08
0.115
0.105
0.045
0.095
0.075
0.005
0.015
0.03
0.025
0.03
0.07
0.095
0.13
0.085
-0.02
0.035
0.04
0.085
0.075
0.105
0.095
0.12
0.095
0.08
0.045
0.055
0.045
0.0
-0.005
0.04
0.04
0.06
0.065
0.08
0.075
0.04
0.005
-0.005
0.01
0.065
0.05
0.095
0.11
0.065
-0.015
0.005
0.02
0.02
-0.005
0.01
0.0
-0.055
-0.04
-0.02
0.06
0.05
0.025
0.045
0.085
0.055
0.02
0.02
0.02
-0.02
0.0
-0.015
-0.035
-0.01
0.005
0.035
0.08
0.04
0.035
0.04
0.015
0.05
0.05
0.005
-0.005
0.025
0.03
0.035
0.08
0.11
0.045
0.0
0.025
0.01
0.0
0.04
0.03
0.015
-0.02
-0.005
0.065
0.045
0.015
0.01
0.005
0.025
0.03
0.005
-0.045
0.015
0.04
-0.025
0.025
0.01
-0.03
-0.02
-0.005
0.0
0.01
0.03
0.03
0.06
0.055
0.01
0.065
0.08
0.065
0.06
0.05
0.045
0.06
0.055
0.015
0.04
0.045
0.075
0.065
0.08
0.065
0.045
0.085
0.085
0.04
0.085
0.105
0.125
0.15
0.17
0.17
0.12
0.065
0.065
0.1
0.06
0.11
0.165
0.105
0.115
0.115
0.065
0.045
0.08
0.115
0.105
0.075
0.055
0.03
0.015
0.04
0.03
-0.02
-0.01
0.04
0.04
0.04
0.045
0.045
0.025
-0.005
-0.04
-0.02
-0.02
-0.035
0.01
0.005
-0.015
-0.005
0.0
0.0
0.035
-0.015
-0.005
0.005
0.03
0.085
0.08
0.07
0.03
0.04
0.045
0.07
0.105
0.2
0.23
0.315
0.36
0.5
0.545
0.67
0.79
0.82
0.84
0.85
0.82
0.76
0.68
0.53
0.385
0.245
0.15
0.02
-0.12
-0.275
-0.31
-0.27
-0.195
-0.2
-0.135
-0.1
-0.06
-0.025
-0.005
0.05
0.045
0.055
0.075
0.04
0.05
0.01
0.015
0.01
0.03
0.025
0.04
0.035
0.01
0.03
0.06
0.005
0.04
0.02
0.02
0.055
0.115
0.065
0.085
0.075
0.075
0.07
0.02
0.04
0.055
0.045
0.045
0.085
0.1
0.09
0.085
0.12
0.095
0.1
0.095
0.125
0.155
0.1
0.06
0.075
0.1
0.09
0.105
0.105
0.12
0.11
0.14
0.175
0.165
0.2
0.18
0.215
0.19
0.165
0.175
0.215
0.235
0.205
0.17
0.185
0.235
0.22
0.245
0.245
0.295
0.28
0.265
0.3
0.29
0.3
0.345
0.385
0.36
0.39
0.38
0.39
0.375
0.4
0.405
0.375
0.385
0.38
0.355
0.365
0.39
0.405
0.445
0.46
0.43
0.38
0.41
0.4
0.43
0.385
0.41
0.37
0.415
0.375
0.355
0.365
0.345
0.33
0.305
0.24
0.24
0.255
0.285
0.285
0.24
0.22
0.2
0.155
0.19
0.165
0.185
0.15
0.105
0.135
0.08
0.04
0.025
0.055
0.045
0.08
0.11
0.105
0.085
0.09
0.045
0.015
0.03
0.05
0.02
0.015
0.03
0.045
0.075
0.115
0.06
0.055
0.0
0.01
0.03
0.03
-0.005
0.055
0.06
0.01
0.005
0.02
0.045
0.08
0.095
0.045
0.03
0.0
0.0
0.005
0.03
0.005
0.0
0.07
0.06
0.035
0.025
0.02
0.045
0.05
0.04
0.005
0.055
0.05
0.035
0.045
0.04
0.045
0.085
0.055
0.045
0.015
0.015
0.04
0.03
0.085
0.08
0.08
0.065
0.035
0.035
0.04
0.05
0.05
0.065
0.105
0.14
0.085
0.03
0.045
0.015
0.0
0.025
0.04
0.02
0.05
0.045
0.075
0.05
0.055
0.06
0.015
0.025
0.01
0.015
0.005
0.005
0.0
0.0
0.015
0.03
-0.005
0.04
0.065
0.03
0.03
0.075
0.035
0.04
0.015
0.03
0.025
0.005
-0.005
-0.02
0.025
0.0
0.01
0.04
0.04
-0.015
0.005
0.0
0.03
0.01
0.005
-0.005
-0.035
-0.04
-0.005
0.01
-0.005
-0.025
-0.015
0.02
0.04
0.02
0.05
0.07
0.065
0.065
0.045
0.015
0.075
0.055
0.03
0.025
0.065
0.035
0.065
0.02
0.02
0.055
0.04
0.03
0.055
0.05
-0.015
0.005
0.055
0.085
0.1
0.085
0.065
0.08
0.1
0.115
0.11
0.095
0.045
0.065
0.04
0.065
0.095
0.135
0.1
0.105
0.11
0.145
0.075
0.03
0.075
0.07
0.04
0.04
0.02
0.04
0.075
0.045
0.045
0.0
0.0
0.0
-0.035
-0.07
-0.03
-0.06
-0.02
0.0
0.045
0.045
0.03
0.02
-0.005
0.01
-0.025
0.015
-0.005
-0.03
-0.025
-0.07
-0.05
0.03
0.015
0.025
0.055
0.065
0.05
0.01
0.005
0.08
0.135
0.24
0.32
0.34
0.415
0.515
0.595
0.66
0.7
0.695
0.715
0.66
0.64
0.565
0.445
0.265
0.18
0.095
-0.075
-0.2
-0.315
-0.32
-0.26
-0.245
-0.185
-0.155
-0.085
-0.085
-0.02
0.0
0.04
0.025
-0.01
0.03
0.04
0.09
0.035
-0.025
-0.005
0.03
0.065
0.06
-0.02
-0.025
0.01
0.045
0.07
0.035
0.05
0.07
0.08
0.105
0.06
0.065
0.085
0.125
0.11
0.025
0.045
0.04
0.015
0.03
0.09
0.08
0.105
0.07
0.07
0.03
0.02
0.06
0.08
0.08
0.095
0.12
0.155
0.175
0.135
0.155
0.095
0.095
0.135
0.15
0.125
0.115
0.135
0.15
0.18
0.205
0.21
0.22
0.165
0.215
0.235
0.2
0.21
0.255
0.24
0.225
0.25
0.245
0.235
0.245
0.325
0.305
0.285
0.315
0.335
0.35
0.395
0.39
0.38
0.42
0.345
0.39
0.4
0.44
0.37
0.385
0.395
0.43
0.44
0.42
0.455
0.455
0.455
0.445
0.455
0.445
0.415
0.4
0.4
0.405
0.37
0.35
0.32
0.325
0.325
0.26
0.215
0.285
0.265
0.25
0.22
0.225
0.225
0.205
0.225
0.18
0.12
0.09
0.065
0.09
0.125
0.085
0.115
0.08
0.04
0.025
0.02
-0.01
-0.005
0.015
0.095
0.105
0.055
0.025
0.065
0.06
0.02
-0.015
0.0
0.03
0.03
0.03
0.01
0.06
0.05
0.075
0.025
0.02
-0.025
-0.04
-0.025
-0.015
0.01
0.06
0.065
0.055
0.055
0.03
0.01
0.025
0.04
-0.01
-0.01
0.005
0.01
0.015
0.03
0.045
0.005
-0.02
0.005
-0.02
0.0
0.005
0.02
0.015
-0.03
0.005
0.025
0.06
0.08
0.02
0.065
0.065
0.055
0.08
0.02
0.02
0.08
0.08
0.07
0.03
0.025
0.04
0.03
-0.005
-0.005
0.025
0.055
0.06
-0.005
0.04
0.05
0.03
0.005
0.035
0.03
0.005
0.03
0.005
0.01
0.005
0.04
0.005
-0.015
-0.02
-0.03
-0.005
0.07
0.08
0.055
0.02
0.025
0.07
0.075
0.035
-0.05
-0.005
0.015
0.045
0.0
-0.02
0.0
-0.045
-0.045
-0.05
-0.025
-0.055
0.005
0.005
0.01
0.005
-0.01
0.01
0.03
0.0
-0.02
0.025
0.03
0.01
0.01
0.02
0.02
0.0
-0.015
-0.035
0.01
0.01
0.01
0.005
0.07
0.0
-0.035
-0.01
0.02
0.025
-0.03
0.015
0.05
0.04
0.065
0.025
-0.005
0.02
0.015
0.025
0.08
0.13
0.105
0.085
0.065
0.07
0.065
0.04
0.05
0.085
0.09
0.075
0.105
0.095
0.07
0.05
0.03
0.02
0.07
0.04
0.055
0.04
0.06
0.04
0.055
0.03
-0.015
-0.03
-0.025
-0.015
-0.015
-0.02
0.005
0.015
0.025
0.025
-0.03
-0.07
-0.055
-0.025
-0.025
-0.015
0.025
-0.04
-0.005
-0.01
-0.02
-0.005
-0.04
-0.05
-0.07
-0.04
-0.015
-0.015
-0.03
-0.01
-0.04
0.01
0.03
-0.02
0.025
0.02
0.085
0.115
0.18
0.235
0.28
0.36
0.43
0.525
0.585
0.69
0.665
0.745
0.665
0.655
0.59
0.52
0.4
0.28
0.215
0.125
-0.05
-0.225
-0.295
-0.295
-0.205
-0.2
-0.08
-0.095
-0.105
-0.055
-0.08
-0.085
-0.03
-0.045
-0.015
-0.025
-0.01
0.0
-0.005
-0.03
0.01
0.015
0.015
0.03
0.04
-0.005
-0.01
0.01
0.025
-0.025
0.015
0.015
0.02
0.015
0.0
-0.04
0.02
0.03
0.055
0.02
-0.035
-0.025
0.005
0.035
0.04
0.1
0.085
0.05
0.045
0.015
0.05
0.115
0.12
0.1
0.08
0.1
0.04
0.055
0.085
0.075
0.08
0.105
0.145
0.12
0.075
0.055
0.055
0.11
0.13
0.115
0.175
0.165
0.165
0.145
0.13
0.175
0.16
0.185
0.19
0.205
0.24
0.225
0.225
0.23
0.2
0.21
0.255
0.305
0.33
0.29
0.31
0.335
0.385
0.39
0.345
0.33
0.37
0.38
0.375
0.4
0.375
0.345
0.4
0.35
0.365
0.355
0.36
0.35
0.355
0.305
0.34
0.36
0.36
0.355
0.33
0.34
0.3
0.25
0.23
0.235
0.22
0.205
0.205
0.175
0.185
0.205
0.17
0.14
0.125
0.13
0.1
0.105
0.085
0.1
0.125
0.12
0.035
-0.04
0.0
-0.01
-0.01
0.01
0.005
-0.05
-0.05
-0.04
-0.055
-0.01
-0.03
-0.015
-0.005
-0.025
-0.03
-0.05
-0.015
-0.025
-0.01
-0.025
-0.015
-0.02
-0.035
-0.085
-0.06
-0.075
-0.08
-0.05
-0.055
-0.08
-0.07
-0.055
-0.045
-0.07
-0.05
-0.01
-0.02
0.01
0.015
-0.005
-0.015
0.015
0.01
-0.035
-0.035
-0.06
-0.055
-0.05
-0.025
-0.005
-0.015
-0.04
-0.025
-0.095
-0.055
-0.035
-0.055
-0.035
-0.03
-0.04
-0.02
0.0
0.01
-0.01
-0.015
-0.045
-0.02
-0.015
-0.005
-0.03
-0.025
-0.04
-0.045
-0.03
-0.025
-0.04
0.015
-0.01
-0.025
-0.015
-0.015
-0.02
-0.01
0.005
-0.045
-0.015
-0.01
-0.055
-0.07
-0.035
-0.02
-0.015
-0.02
-0.015
-0.035
-0.03
-0.055
-0.035
-0.065
-0.055
-0.075
-0.09
-0.09
-0.025
-0.035
-0.035
-0.05
-0.075
-0.04
-0.01
-0.075
-0.09
-0.1
-0.095
-0.09
-0.09
-0.055
-0.07
-0.055
-0.03
-0.03
-0.015
-0.01
-0.01
-0.085
-0.065
-0.065
-0.035
-0.015
-0.055
-0.005
-0.01
-0.02
-0.005
-0.02
-0.045
-0.015
-0.03
-0.025
-0.025
0.01
0.035
0.0
-0.01
-0.04
-0.075
-0.035
0.0
0.015
-0.03
-0.005
0.025
0.045
0.085
0.095
0.07
0.05
0.035
0.06
0.015
0.02
0.015
0.025
0.06
0.055
0.025
0.02
0.01
-0.01
-0.02
-0.05
-0.04
-0.03
-0.035
-0.005
-0.01
-0.04
-0.05
-0.075
-0.025
-0.065
-0.025
-0.055
-0.09
-0.095
-0.08
-0.1
-0.105
-0.105
-0.055
-0.04
-0.02
-0.045
-0.075
-0.085
-0.105
-0.1
-0.1
-0.14
-0.07
-0.04
-0.05
-0.08
-0.015
0.0
-0.02
-0.03
-0.02
0.035
0.065
0.07
0.1
0.205
0.245
0.34
0.415
0.5
0.605
0.67
0.72
0.755
0.745
0.72
0.635
0.555
0.39
0.27
0.16
0.06
-0.02
-0.12
-0.29
-0.34
-0.32
-0.275
-0.225
-0.16
-0.105
-0.08
-0.05
-0.02
0.01
-0.015
-0.09
-0.095
-0.045
-0.02
-0.04
-0.025
-0.025
0.0
0.005
0.0
-0.06
-0.075
-0.07
-0.06
-0.045
-0.015
-0.065
-0.045
-0.025
0.01
-0.02
-0.025
-0.04
0.0
0.02
0.015
-0.025
-0.01
-0.015
0.02
0.02
0.045
0.02
-0.04
-0.035
-0.005
0.015
0.015
0.035
0.04
0.055
0.055
0.08
0.035
0.075
0.055
0.095
0.06
0.005
0.05
0.025
0.06
0.075
0.045
0.06
0.07
0.075
0.1
0.105
0.125
0.15
0.135
0.145
0.175
0.19
0.195
0.21
0.195
0.205
0.21
0.25
0.28
0.295
0.285
0.285
0.295
0.3
0.295
0.32
0.335
0.37
0.355
0.36
0.37
0.38
0.33
0.355
0.38
0.41
0.385
0.385
0.355
0.34
0.325
0.365
0.39
0.36
0.325
0.34
0.37
0.345
0.26
0.275
0.265
0.26
0.285
0.245
0.215
0.225
0.21
0.185
0.15
0.125
0.125
0.085
0.11
0.08
0.04
0.05
0.04
0.03
0.03
0.05
0.045
0.005
-0.025
-0.01
-0.015
0.035
0.045
0.03
0.04
0.045
-0.01
-0.055
-0.025
-0.01
-0.035
-0.03
-0.02
-0.03
-0.03
-0.015
-0.01
-0.04
-0.02
-0.04
-0.02
0.0
-0.025
-0.025
-0.05
-0.06
-0.085
-0.055
-0.035
-0.04
-0.02
-0.025
-0.055
-0.01
-0.035
-0.035
-0.01
0.0
-0.015
-0.06
-0.025
-0.025
-0.02
-0.005
0.01
0.025
0.0
0.005
-0.015
-0.055
-0.03
-0.035
-0.025
-0.04
-0.035
-0.04
-0.05
-0.03
-0.03
-0.01
-0.01
0.01
-0.01
-0.04
-0.045
0.0
-0.005
-0.035
-0.035
-0.03
-0.03
-0.075
-0.04
-0.015
-0.015
-0.01
-0.025
0.02
0.005
0.0
0.0
-0.005
-0.015
-0.04
-0.035
-0.05
-0.055
-0.015
0.015
0.005
-0.015
-0.03
-0.035
-0.025
-0.015
-0.01
-0.055
-0.04
-0.01
-0.03
-0.045
-0.04
-0.04
-0.03
-0.045
-0.045
-0.025
-0.065
-0.075
-0.055
-0.045
-0.005
-0.02
-0.015
-0.03
-0.03
-0.02
-0.025
-0.03
-0.075
-0.045
-0.07
-0.095
-0.085
-0.075
-0.07
-0.045
-0.02
-0.02
-0.03
-0.02
-0.055
-0.045
-0.07
-0.05
-0.03
-0.035
-0.05
-0.035
-0.03
-0.055
-0.05
-0.015
0.0
0.0
0.0
0.0
-0.015
-0.025
0.01
0.015
0.015
0.01
0.005
0.05
0.07
0.065
0.07
0.045
0.06
0.03
0.02
0.025
0.03
0.045
0.05
0.025
0.06
0.055
0.03
0.04
0.02
0.025
0.01
0.02
0.02
0.055
0.04
-0.005
-0.02
-0.025
-0.025
-0.015
-0.04
-0.045
-0.07
-0.115
-0.075
-0.08
-0.085
-0.08
-0.055
-0.07
0.0
0.015
0.005
-0.04
-0.055
-0.075
-0.07
-0.02
-0.06
-0.05
-0.055
-0.09
-0.095
-0.11
-0.09
-0.09
-0.055
-0.035
-0.015
-0.015
0.08
0.105
0.115
0.2
0.315
0.385
0.42
0.485
0.62
0.69
0.755
0.78
0.795
0.735
0.655
0.65
0.565
0.37
0.255
0.145
0.08
0.035
-0.11
-0.26
-0.315
-0.265
-0.235
-0.14
-0.12
-0.12
-0.095
-0.045
-0.04
-0.04
-0.01
-0.005
0.0
-0.01
0.025
0.04
0.01
-0.055
-0.065
-0.03
-0.03
-0.02
-0.035
0.005
-0.02
-0.03
-0.02
-0.035
0.0
0.005
-0.005
0.005
0.025
0.03
0.005
-0.005
0.015
-0.005
0.0
0.02
0.045
0.03
0.005
0.04
0.005
-0.015
0.01
0.065
0.06
0.06
0.06
0.04
0.065
0.045
0.01
0.005
0.035
0.01
0.03
0.045
0.075
0.115
0.135
0.13
0.15
0.14
0.13
0.125
0.14
0.155
0.16
0.16
0.14
0.155
0.175
0.16
0.21
0.24
0.22
0.265
0.245
0.22
0.25
0.255
0.28
0.28
0.31
0.33
0.35
0.35
0.35
0.315
0.34
0.345
0.36
0.355
0.345
0.33
0.38
0.43
0.41
0.38
0.405
0.39
0.38
0.385
0.375
0.35
0.38
0.38
0.385
0.365
0.335
0.305
0.275
0.29
0.315
0.275
0.29
0.245
0.21
0.19
0.19
0.17
0.115
0.13
0.135
0.095
0.1
0.115
0.065
0.055
0.09
0.08
0.06
0.05
0.065
0.01
0.015
0.015
-0.01
0.03
0.04
0.015
-0.005
0.045
0.055
0.05
0.05
0.04
0.035
0.025
0.025
0.035
0.055
0.065
0.03
0.01
0.01
0.01
0.01
0.015
0.035
0.025
0.0
0.015
0.02
0.03
0.045
0.015
0.03
0.04
0.0
-0.005
0.035
0.045
0.065
0.075
0.09
0.06
0.02
-0.015
-0.005
-0.005
-0.01
0.0
-0.01
-0.005
0.015
0.04
0.03
0.045
-0.005
0.01
0.03
0.01
0.02
0.015
0.045
0.055
0.085
0.05
0.02
0.02
0.025
0.03
0.0
0.025
0.02
0.025
0.025
0.02
0.055
0.05
0.04
0.025
0.04
-0.005
-0.015
0.015
0.05
0.05
0.025
-0.005
0.01
0.035
0.055
0.065
0.035
0.035
0.015
0.005
0.0
0.005
0.015
0.005
0.025
0.015
0.015
0.03
0.04
0.01
0.0
-0.01
-0.005
0.0
0.0
-0.015
0.05
0.035
0.0
-0.005
0.03
0.015
-0.005
0.015
0.05
0.03
0.07
0.085
0.035
0.025
0.005
-0.005
-0.005
0.005
-0.005
0.0
0.02
0.0
0.0
0.0
0.03
0.02
0.045
-0.02
-0.035
-0.035
-0.03
-0.025
-0.035
-0.015
-0.035
-0.065
-0.015
0.03
-0.015
0.01
0.03
0.06
0.09
0.055
0.015
0.015
0.045
0.055
0.025
0.08
0.08
0.085
0.105
0.115
0.11
0.105
0.1
0.11
0.075
0.095
0.13
0.11
0.105
0.095
0.065
0.04
0.01
0.04
0.03
0.03
0.1
0.1
0.09
0.08
0.055
0.065
0.085
0.045
-0.01
0.03
0.035
0.015
0.005
0.005
0.02
-0.005
-0.015
-0.005
-0.01
0.015
-0.015
0.005
0.0
-0.04
-0.03
-0.02
-0.035
-0.025
-0.035
-0.01
-0.005
-0.015
-0.05
-0.055
-0.025
-0.02
-0.02
-0.01
-0.03
0.025
0.02
-0.02
0.015
0.1
0.165
0.195
0.26
0.37
0.45
0.53
0.67
0.765
0.835
0.855
0.86
0.835
0.785
0.76
0.735
0.59
0.375
0.23
0.185
0.13
-0.005
-0.13
-0.205
-0.185
-0.145
-0.105
-0.065
-0.045
-0.045
-0.045
0.0
0.015
0.015
0.0
-0.015
0.03
0.025
0.005
-0.015
0.01
0.035
0.03
0.015
-0.015
-0.005
0.01
0.005
0.02
0.005
0.015
0.035
0.02
0.005
-0.005
-0.04
0.01
0.04
0.09
0.06
0.01
0.04
0.065
0.06
0.08
0.065
0.05
0.065
0.07
0.08
0.095
0.085
0.105
0.09
0.065
0.06
0.05
0.06
0.08
0.105
0.1
0.08
0.095
0.115
0.145
0.14
0.11
0.135
0.165
0.115
0.11
0.105
0.15
0.2
0.185
0.18
0.175
0.15
0.165
0.165
0.155
0.21
0.265
0.25
0.26
0.31
0.305
0.325
0.35
0.31
0.305
0.32
0.375
0.345
0.345
0.35
0.35
0.415
0.395
0.405
0.41
0.405
0.395
0.39
0.38
0.375
0.365
0.39
0.4
0.385
0.42
0.37
0.32
0.37
0.38
0.35
0.345
0.315
0.29
0.28
0.25
0.235
0.2
0.215
0.195
0.165
0.155
0.175
0.18
0.14
0.16
0.08
0.065
0.08
0.075
0.095
0.08
0.075
0.105
0.095
0.09
0.045
0.045
-0.025
0.03
0.035
0.03
-0.015
0.0
0.02
0.01
0.045
0.045
0.01
-0.065
-0.04
-0.035
0.01
0.035
0.05
0.015
-0.015
0.02
-0.015
-0.015
0.035
0.025
0.06
0.015
0.0
0.015
0.015
-0.03
-0.01
0.01
0.025
0.005
-0.005
0.04
0.0
0.005
-0.015
0.005
0.025
0.005
-0.02
-0.045
0.015
0.045
0.005
-0.025
-0.035
-0.05
-0.075
-0.025
0.03
0.045
0.025
-0.01
0.05
0.045
0.02
-0.005
-0.02
-0.01
0.01
0.035
0.0
-0.015
0.015
0.02
0.02
0.025
0.035
0.04
0.01
0.01
-0.005
-0.005
-0.005
0.015
-0.01
-0.015
-0.005
0.01
0.045
0.085
0.11
0.005
0.005
-0.02
-0.04
-0.04
-0.01
-0.01
-0.015
-0.02
0.035
0.04
-0.03
-0.005
0.01
-0.025
0.0
0.01
0.035
0.015
0.0
0.02
0.015
0.005
-0.03
-0.03
-0.03
0.035
0.025
-0.005
-0.01
-0.015
-0.03
-0.01
0.01
0.0
-0.01
-0.04
-0.015
0.01
0.015
-0.01
-0.01
-0.01
-0.005
-0.015
-0.015
-0.025
0.025
0.025
0.035
0.02
0.03
0.02
0.025
0.02
0.03
0.055
0.02
0.02
0.07
0.065
0.065
0.09
0.065
0.075
0.09
0.075
0.14
0.145
0.115
0.105
0.1
0.1
0.12
0.08
0.085
0.035
0.095
0.09
0.055
0.05
0.05
0.065
0.055
0.055
0.045
0.065
0.005
0.025
0.005
-0.015
-0.01
0.035
0.025
-0.01
0.03
0.04
0.02
0.025
0.03
0.015
-0.02
0.005
0.005
-0.06
-0.025
-0.015
-0.005
0.02
0.01
0.035
0.005
0.035
-0.015
-0.005
0.015
0.0
0.005
-0.03
-0.01
-0.005
0.02
0.01
0.04
0.065
0.065
0.145
0.26
0.325
0.425
0.495
0.565
0.65
0.695
0.76
0.765
0.795
0.74
0.67
0.64
0.53
0.38
0.295
0.2
0.045
-0.025
-0.14
-0.23
-0.17
-0.135
-0.135
-0.12
-0.08
-0.04
-0.02
0.01
0.045
0.035
0.025
0.01
0.025
0.02
0.035
-0.015
-0.01
-0.01
0.035
0.055
0.045
0.045
0.075
0.065
0.05
0.04
0.075
0.1
0.105
0.1
0.115
0.1
0.11
0.085
0.075
0.05
0.05
0.055
0.06
0.045
0.085
0.045
0.07
0.06
0.065
0.07
0.05
0.09
0.125
0.105
0.12
0.095
0.16
0.13
0.155
0.135
0.14
0.135
0.13
0.09
0.1
0.12
0.16
0.16
0.155
0.155
0.15
0.19
0.215
0.255
0.265
0.245
0.24
0.24
0.235
0.245
0.285
0.245
0.24
0.275
0.325
0.365
0.37
0.35
0.39
0.38
0.42
0.395
0.38
0.4
0.385
0.4
0.43
0.425
0.43
0.445
0.45
0.45
0.44
0.455
0.475
0.455
0.455
0.47
0.41
0.415
0.425
0.445
0.39
0.38
0.35
0.39
0.38
0.35
0.345
0.345
0.285
0.28
0.25
0.255
0.26
0.22
0.21
0.195
0.17
0.19
0.15
0.11
0.125
0.095
0.07
0.065
0.095
0.12
0.09
0.055
0.03
0.085
0.085
0.025
0.045
0.055
0.0
0.01
0.03
0.025
0.035
0.035
0.055
0.03
0.05
0.085
0.085
0.045
0.015
0.02
0.015
0.045
0.035
0.005
0.035
0.04
0.035
0.035
0.03
0.055
0.045
0.0
0.02
0.025
0.015
0.035
0.005
-0.005
0.02
0.03
0.015
0.01
0.01
0.025
0.045
0.035
0.035
0.035
0.005
0.035
0.005
0.02
0.015
0.015
0.04
0.0
0.075
0.045
0.06
0.04
0.035
0.055
0.055
0.065
0.03
0.035
-0.005
0.075
0.055
0.05
0.05
0.045
0.075
0.085
0.055
0.065
0.07
0.06
0.025
0.04
-0.005
0.03
0.055
0.03
0.02
0.0
0.0
0.02
0.02
0.04
0.005
0.03
0.07
0.06
0.01
0.04
0.045
0.04
0.02
0.0
0.03
0.025
0.0
0.005
-0.005
0.005
0.035
0.0
0.01
0.04
0.06
0.025
0.045
0.03
0.02
-0.035
0.0
0.005
-0.005
-0.01
-0.01
-0.025
0.025
0.02
-0.005
0.0
-0.01
0.0
-0.005
-0.02
-0.025
0.0
-0.005
0.005
0.025
0.015
0.015
-0.02
-0.025
-0.02
0.025
0.045
0.075
0.095
0.055
0.055
0.06
0.06
0.065
0.05
0.07
0.105
0.09
0.065
0.055
0.075
0.08
0.02
0.04
0.075
0.1
0.09
0.125
0.17
0.105
0.145
0.15
0.09
0.11
0.11
0.11
0.09
0.06
0.095
0.09
0.06
0.025
0.07
0.105
0.105
0.11
0.06
0.045
-0.015
-0.03
-0.02
0.0
0.015
-0.09
-0.035
-0.02
0.0
0.02
0.025
0.02
-0.01
0.005
0.035
0.025
0.035
-0.025
-0.015
-0.01
-0.025
-0.055
-0.01
0.02
-0.015
-0.045
-0.015
-0.015
-0.01
-0.005
-0.02
0.005
-0.005
0.005
0.015
0.03
-0.025
0.065
0.125
0.17
0.23
0.305
0.445
0.52
0.625
0.585
0.675
0.72
0.78
0.75
0.74
0.66
0.62
0.425
0.33
0.275
0.005
-0.04
-0.095
-0.225
-0.19
-0.13
-0.105
-0.16
-0.235
-0.155
-0.01
0.05
0.06
0.04
0.04
0.045
0.075
0.06
0.015
0.035
0.025
0.0
0.0
0.0
0.025
-0.04
0.035
0.025
-0.01
0.03
-0.01
0.02
-0.005
-0.05
-0.03
0.05
0.035
-0.01
0.005
0.02
0.05
0.005
-0.035
-0.02
0.025
0.03
0.035
0.07
0.14
0.09
0.075
0.07
0.08
0.08
0.085
0.15
0.095
0.11
0.01
0.03
0.035
0.085
0.13
0.13
0.075
0.095
0.1
0.095
0.1
0.13
0.125
0.165
0.225
0.21
0.115
0.12
0.145
0.205
0.15
0.18
0.2
0.2
0.24
0.27
0.255
0.22
0.24
0.255
0.27
0.28
0.305
0.305
0.315
0.335
0.34
0.345
0.34
0.335
0.375
0.395
0.35
0.405
0.365
0.385
0.34
0.36
0.37
0.38
0.37
0.32
0.33
0.35
0.37
0.315
0.29
0.3
0.3
0.31
0.285
0.27
0.285
0.225
0.23
0.19
0.165
0.125
0.085
0.08
0.08
0.1
0.15
0.17
0.155
0.065
0.04
0.01
0.04
0.02
-0.005
-0.015
0.0
-0.015
0.005
-0.015
-0.065
-0.05
-0.03
-0.01
-0.025
-0.01
-0.005
-0.005
0.015
-0.005
0.005
0.04
-0.02
-0.055
-0.06
-0.05
-0.055
-0.06
-0.04
-0.045
-0.055
-0.025
-0.045
-0.03
-0.015
-0.01
-0.01
-0.025
0.005
-0.01
-0.07
-0.05
-0.025
-0.015
-0.015
-0.025
-0.02
0.01
0.025
0.015
-0.035
-0.045
-0.055
-0.085
-0.07
-0.03
-0.035
-0.05
-0.075
-0.08
-0.085
-0.055
-0.05
0.015
0.035
-0.015
-0.025
-0.06
-0.025
0.01
-0.005
-0.035
-0.045
-0.01
0.0
-0.025
-0.02
-0.03
0.0
0.005
-0.03
-0.045
-0.04
-0.01
-0.03
-0.005
0.005
0.015
0.0
-0.055
-0.105
-0.085
-0.055
-0.01
-0.025
0.005
0.015
0.01
-0.07
-0.105
-0.09
-0.055
-0.075
-0.025
-0.07
-0.1
-0.08
-0.03
0.025
-0.005
-0.035
-0.025
-0.035
-0.01
0.015
0.015
-0.02
-0.02
0.01
0.01
-0.04
-0.055
-0.085
-0.065
-0.045
-0.045
-0.07
-0.025
-0.045
-0.045
0.005
-0.005
-0.05
-0.05
-0.03
-0.005
-0.01
-0.01
0.045
-0.035
-0.08
-0.09
-0.06
-0.09
-0.065
-0.045
-0.02
-0.025
-0.04
-0.045
-0.025
-0.075
-0.065
-0.025
-0.025
-0.035
-0.07
-0.05
-0.03
-0.005
-0.035
-0.035
-0.025
0.005
-0.03
-0.05
0.01
0.025
-0.005
-0.05
-0.015
0.0
-0.015
-0.01
-0.025
0.035
0.065
0.055
0.025
0.015
0.045
0.03
0.05
0.025
0.06
0.045
0.04
0.02
0.03
0.0
0.0
0.025
0.06
0.055
0.04
0.03
0.02
-0.025
0.03
-0.005
-0.025
0.0
0.005
0.025
0.01
0.015
0.0
-0.025
-0.055
-0.08
-0.115
-0.125
-0.05
-0.03
-0.03
0.0
0.0
0.01
0.015
0.005
0.01
-0.02
-0.07
-0.075
-0.035
-0.065
-0.065
-0.045
-0.055
-0.05
-0.065
-0.05
-0.03
-0.04
-0.05
-0.07
-0.075
-0.06
-0.065
-0.095
-0.09
0.005
0.12
0.165
0.24
0.345
0.425
0.505
0.58
0.675
0.735
0.79
0.815
0.745
0.705
0.695
0.63
0.41
0.27
0.17
0.095
0.035
-0.045
-0.16
-0.215
-0.205
-0.18
-0.175
-0.105
-0.095
-0.065
-0.065
-0.045
-0.03
-0.02
-0.005
-0.005
0.015
0.005
0.015
0.0
-0.045
-0.045
-0.06
-0.06
0.015
0.055
0.02
0.005
0.005
0.01
0.015
0.005
0.005
0.03
0.01
0.085
0.09
0.05
0.02
0.005
0.005
0.005
0.075
0.08
0.07
0.045
0.04
0.02
0.035
0.065
0.07
0.005
0.045
0.095
0.075
0.065
0.07
0.065
0.06
0.1
0.085
0.08
0.1
0.095
0.095
0.095
0.065
0.085
0.09
0.135
0.13
0.155
0.18
0.17
0.13
0.125
0.18
0.185
0.2
0.215
0.235
0.24
0.23
0.21
0.24
0.265
0.265
0.28
0.315
0.335
0.33
0.325
0.335
0.33
0.33
0.375
0.39
0.4
0.38
0.35
0.36
0.345
0.365
0.405
0.4
0.385
0.36
0.355
0.38
0.395
0.365
0.365
0.385
0.39
0.36
0.33
0.295
0.245
0.26
0.265
0.25
0.225
0.195
0.175
0.16
0.185
0.18
0.155
0.13
0.135
0.115
0.11
0.08
0.045
0.035
0.02
0.015
0.035
0.04
0.025
0.005
0.01
0.01
0.015
0.03
0.04
0.04
0.05
0.035
0.03
0.015
0.025
0.02
0.03
0.005
0.01
0.015
-0.01
0.03
0.06
0.02
-0.01
-0.02
-0.03
-0.045
