# TIPE ECG 2021 - ECG-ID Database v1.0.0 par Physionet
# [Numéro de la personne, Période d'échantillonnage, Prénom, Age, Sexe, Date de l'enregistrement]
[72, 0.002, William, 39, H, 12.05.2005]
-0.015
-0.05
-0.03
-0.01
0.005
-0.045
-0.04
-0.03
-0.07
-0.065
-0.06
-0.09
-0.06
-0.015
-0.035
-0.085
-0.09
-0.09
-0.08
-0.075
-0.05
-0.085
-0.065
-0.06
-0.085
-0.065
-0.05
-0.115
-0.145
-0.14
-0.14
-0.11
-0.075
-0.085
-0.145
-0.14
-0.11
-0.12
-0.125
-0.14
-0.11
-0.12
-0.11
-0.11
-0.125
-0.12
-0.145
-0.12
-0.12
-0.1
-0.12
-0.12
-0.115
-0.11
-0.1
-0.135
-0.125
-0.115
-0.08
-0.11
-0.145
-0.21
-0.205
-0.14
-0.115
-0.155
-0.11
-0.1
-0.185
-0.125
-0.165
-0.175
-0.145
-0.12
-0.165
-0.21
-0.205
-0.175
-0.165
-0.14
-0.13
-0.14
-0.17
-0.18
-0.155
-0.155
-0.16
-0.17
-0.155
-0.17
-0.15
-0.155
-0.15
-0.175
-0.165
-0.185
-0.185
-0.195
-0.19
-0.145
-0.17
-0.155
-0.15
-0.175
-0.15
-0.13
-0.145
-0.175
-0.205
-0.185
-0.18
-0.16
-0.155
-0.18
-0.16
-0.185
-0.18
-0.205
-0.185
-0.16
-0.18
-0.175
-0.17
-0.16
-0.17
-0.17
-0.205
-0.185
-0.175
-0.17
-0.155
-0.19
-0.165
-0.145
-0.16
-0.19
-0.195
-0.175
-0.2
-0.19
-0.16
-0.15
-0.195
-0.18
-0.16
-0.165
-0.17
-0.165
-0.16
-0.175
-0.16
-0.13
-0.13
-0.14
-0.13
-0.125
-0.13
-0.165
-0.15
-0.135
-0.135
-0.16
-0.125
-0.12
-0.13
-0.13
-0.09
-0.055
-0.055
-0.065
-0.06
-0.08
-0.085
-0.08
-0.07
-0.06
-0.08
-0.09
-0.075
-0.085
-0.1
-0.07
-0.09
-0.1
-0.07
-0.08
-0.095
-0.095
-0.09
-0.115
-0.1
-0.13
-0.165
-0.15
-0.16
-0.14
-0.14
-0.175
-0.195
-0.16
-0.155
-0.17
-0.14
-0.165
-0.165
-0.14
-0.15
-0.17
-0.155
-0.135
-0.16
-0.16
-0.17
-0.185
-0.17
-0.175
-0.17
-0.18
-0.185
-0.165
-0.08
-0.12
-0.105
-0.1
-0.065
-0.04
0.03
0.12
0.205
0.265
0.345
0.49
0.57
0.62
0.67
0.71
0.665
0.595
0.535
0.46
0.235
0.09
-0.01
-0.075
-0.135
-0.315
-0.425
-0.395
-0.34
-0.315
-0.27
-0.215
-0.18
-0.175
-0.18
-0.185
-0.18
-0.155
-0.13
-0.13
-0.13
-0.13
-0.13
-0.145
-0.115
-0.175
-0.2
-0.145
-0.14
-0.12
-0.14
-0.14
-0.12
-0.13
-0.145
-0.15
-0.14
-0.12
-0.125
-0.11
-0.115
-0.11
-0.11
-0.14
-0.11
-0.13
-0.125
-0.09
-0.1
-0.115
-0.105
-0.08
-0.055
-0.07
-0.07
-0.105
-0.115
-0.07
-0.065
-0.05
-0.045
-0.045
-0.045
-0.07
-0.04
-0.02
-0.05
-0.04
-0.025
-0.025
-0.035
-0.06
-0.035
-0.005
0.005
0.02
-0.015
-0.005
0.02
-0.01
0.03
0.03
0.045
0.05
0.055
0.065
0.075
0.06
0.095
0.125
0.13
0.115
0.12
0.115
0.15
0.16
0.17
0.185
0.195
0.21
0.225
0.255
0.265
0.275
0.28
0.295
0.265
0.3
0.3
0.3
0.32
0.3
0.31
0.32
0.31
0.29
0.3
0.31
0.28
0.295
0.305
0.285
0.28
0.275
0.25
0.255
0.215
0.19
0.165
0.135
0.105
0.095
0.085
0.085
0.105
0.085
0.06
0.035
0.035
0.04
0.02
-0.02
-0.025
-0.025
-0.04
-0.065
-0.075
-0.08
-0.06
-0.06
-0.095
-0.075
-0.08
-0.09
-0.085
-0.085
-0.07
-0.095
-0.12
-0.075
-0.085
-0.095
-0.1
-0.1
-0.135
-0.12
-0.09
-0.11
-0.12
-0.08
-0.065
-0.095
-0.095
-0.1
-0.115
-0.12
-0.115
-0.1
-0.11
-0.09
-0.12
-0.125
-0.08
-0.075
-0.105
-0.105
-0.065
-0.06
-0.075
-0.1
-0.07
-0.115
-0.11
-0.1
-0.085
-0.09
-0.085
-0.11
-0.09
-0.075
-0.085
-0.105
-0.09
-0.065
-0.065
-0.08
-0.1
-0.075
-0.075
-0.09
-0.1
-0.08
-0.075
-0.075
-0.045
-0.065
-0.095
-0.07
-0.07
-0.07
-0.055
-0.055
-0.08
-0.065
-0.075
-0.07
-0.1
-0.06
-0.065
-0.075
-0.055
-0.03
-0.07
-0.075
-0.065
-0.075
-0.065
-0.08
-0.09
-0.085
-0.04
-0.05
-0.06
-0.035
-0.035
-0.04
-0.055
-0.045
-0.055
-0.075
-0.08
-0.095
-0.065
-0.03
-0.035
-0.07
-0.045
-0.045
-0.07
-0.05
-0.055
-0.07
-0.06
-0.04
-0.045
-0.095
-0.08
-0.07
-0.04
-0.02
-0.055
-0.05
-0.055
-0.04
-0.085
-0.06
-0.065
-0.06
-0.045
-0.045
-0.07
-0.035
-0.02
-0.03
-0.04
-0.08
-0.05
-0.045
-0.02
0.0
-0.045
-0.06
-0.01
-0.055
-0.065
-0.02
-0.075
-0.01
-0.05
-0.095
-0.06
-0.085
-0.025
-0.02
-0.075
-0.035
-0.07
-0.055
-0.055
-0.055
-0.025
-0.04
-0.05
-0.055
-0.065
-0.02
-0.01
0.0
0.01
0.035
-0.01
0.0
-0.025
-0.015
0.015
0.005
-0.04
-0.02
0.025
0.035
0.04
0.04
0.05
0.035
0.03
0.02
0.035
0.045
0.025
0.03
0.035
0.06
0.065
0.09
0.08
0.125
0.155
0.1
0.095
0.09
0.11
0.1
0.09
0.09
0.1
0.095
0.11
0.09
0.065
0.11
0.1
0.07
0.095
0.065
0.075
0.075
0.08
0.055
0.06
0.045
0.04
0.035
-0.03
0.025
0.04
0.0
0.025
-0.02
-0.005
-0.015
-0.015
0.02
0.005
-0.01
-0.005
0.01
0.015
0.015
0.03
0.005
0.02
0.01
0.04
0.015
0.015
-0.005
0.02
0.04
0.015
0.06
0.075
0.11
0.235
0.31
0.395
0.465
0.58
0.71
0.78
0.88
0.94
1.04
1.05
0.995
0.91
0.83
0.68
0.47
0.33
0.215
0.11
-0.005
-0.185
-0.23
-0.175
-0.14
-0.06
0.015
0.025
0.075
0.075
0.05
0.06
0.115
0.115
0.16
0.15
0.135
0.175
0.145
0.14
0.15
0.21
0.18
0.19
0.195
0.155
0.165
0.185
0.185
0.195
0.165
0.165
0.16
0.18
0.195
0.225
0.175
0.21
0.19
0.21
0.225
0.215
0.22
0.21
0.22
0.205
0.21
0.275
0.245
0.235
0.255
0.26
0.245
0.265
0.285
0.27
0.31
0.3
0.315
0.29
0.265
0.26
0.29
0.275
0.29
0.31
0.315
0.37
0.33
0.33
0.35
0.37
0.365
0.36
0.415
0.43
0.41
0.42
0.435
0.39
0.405
0.415
0.44
0.495
0.525
0.53
0.575
0.5
0.52
0.51
0.575
0.58
0.59
0.6
0.64
0.615
0.625
0.655
0.67
0.695
0.705
0.73
0.715
0.7
0.725
0.725
0.75
0.74
0.735
0.735
0.735
0.745
0.74
0.74
0.73
0.73
0.71
0.685
0.695
0.665
0.64
0.65
0.625
0.61
0.58
0.555
0.545
0.515
0.525
0.51
0.475
0.43
0.43
0.425
0.405
0.38
0.375
0.35
0.36
0.335
0.315
0.315
0.3
0.305
0.265
0.3
0.295
0.255
0.235
0.245
0.225
0.27
0.265
0.26
0.285
0.215
0.27
0.27
0.21
0.22
0.26
0.205
0.24
0.225
0.23
0.265
0.245
0.235
0.26
0.265
0.28
0.24
0.175
0.215
0.245
0.255
0.22
0.24
0.195
0.23
0.245
0.275
0.245
0.255
0.27
0.29
0.285
0.275
0.27
0.26
0.26
0.235
0.255
0.27
0.29
0.26
0.275
0.28
0.305
0.275
0.285
0.27
0.27
0.27
0.265
0.295
0.295
0.255
0.29
0.32
0.335
0.305
0.29
0.34
0.31
0.33
0.36
0.33
0.325
0.345
0.345
0.325
0.33
0.34
0.37
0.345
0.355
0.345
0.345
0.35
0.325
0.36
0.37
0.38
0.36
0.39
0.4
0.385
0.365
0.4
0.375
0.37
0.385
0.365
0.37
0.375
0.38
0.385
0.365
0.385
0.36
0.355
0.37
0.395
0.37
0.385
0.38
0.39
0.385
0.4
0.395
0.35
0.335
0.375
0.375
0.375
0.375
0.36
0.365
0.38
0.32
0.365
0.39
0.37
0.37
0.34
0.355
0.36
0.305
0.335
0.3
0.33
0.335
0.34
0.335
0.32
0.345
0.35
0.36
0.36
0.375
0.35
0.36
0.42
0.395
0.41
0.375
0.455
0.395
0.42
0.395
0.43
0.425
0.435
0.45
0.485
0.53
0.51
0.455
0.49
0.475
0.48
0.49
0.47
0.435
0.435
0.45
0.43
0.43
0.44
0.44
0.44
0.43
0.45
0.415
0.425
0.4
0.38
0.365
0.375
0.355
0.335
0.355
0.35
0.34
0.34
0.315
0.32
0.335
0.335
0.335
0.32
0.325
0.295
0.31
0.345
0.32
0.315
0.33
0.33
0.305
0.295
0.345
0.31
0.325
0.32
0.35
0.345
0.35
0.355
0.34
0.35
0.39
0.435
0.535
0.66
0.78
0.885
1.06
1.21
1.365
1.525
1.64
1.72
1.66
1.555
1.45
1.215
0.97
0.735
0.53
0.355
0.11
-0.03
-0.04
-0.02
-0.01
0.03
0.11
0.18
0.245
0.33
0.37
0.325
0.29
0.375
0.39
0.375
0.34
0.365
0.365
0.39
0.35
0.355
0.375
0.36
0.385
0.4
0.395
0.38
0.375
0.37
0.375
0.395
0.37
0.38
0.41
0.4
0.415
0.4
0.42
0.44
0.46
0.42
0.41
0.42
0.44
0.43
0.415
0.435
0.445
0.45
0.455
0.46
0.45
0.485
0.495
0.48
0.455
0.47
0.465
0.48
0.485
0.525
0.535
0.53
0.525
0.5
0.52
0.525
0.535
0.53
0.565
0.56
0.58
0.6
0.595
0.59
0.585
0.605
0.625
0.635
0.645
0.675
0.695
0.67
0.655
0.685
0.705
0.71
0.755
0.765
0.78
0.775
0.815
0.81
0.81
0.83
0.845
0.855
0.86
0.885
0.92
0.895
0.905
0.915
0.925
0.925
0.93
0.92
0.915
0.925
0.915
0.92
0.945
0.935
0.96
0.91
0.88
0.91
0.875
0.85
0.885
0.845
0.805
0.8
0.76
0.735
0.695
0.7
0.665
0.655
0.62
0.585
0.615
0.56
0.55
0.575
0.505
0.485
0.5
0.485
0.445
0.485
0.42
0.425
0.415
0.415
0.435
0.41
0.39
0.375
0.38
0.39
0.41
0.38
0.375
0.39
0.375
0.36
0.38
0.39
0.36
0.365
0.375
0.34
0.365
0.375
0.39
0.385
0.39
0.345
0.34
0.37
0.37
0.355
0.38
0.365
0.36
0.36
0.355
0.365
0.36
0.37
0.36
0.36
0.355
0.375
0.36
0.36
0.365
0.37
0.365
0.365
0.375
0.38
0.365
0.365
0.37
0.38
0.4
0.41
0.385
0.4
0.39
0.375
0.345
0.335
0.355
0.39
0.39
0.37
0.355
0.34
0.365
0.38
0.36
0.355
0.35
0.325
0.355
0.355
0.36
0.365
0.345
0.34
0.32
0.35
0.355
0.345
0.31
0.345
0.34
0.36
0.35
0.32
0.31
0.345
0.35
0.31
0.325
0.335
0.335
0.295
0.34
0.35
0.355
0.35
0.31
0.285
0.275
0.31
0.3
0.33
0.34
0.28
0.305
0.29
0.295
0.295
0.305
0.32
0.31
0.29
0.32
0.31
0.28
0.34
0.33
0.31
0.34
0.33
0.32
0.335
0.35
0.35
0.35
0.335
0.35
0.345
0.35
0.4
0.36
0.365
0.41
0.395
0.395
0.44
0.445
0.44
0.445
0.405
0.435
0.42
0.41
0.395
0.405
0.385
0.395
0.39
0.36
0.35
0.37
0.375
0.39
0.325
0.355
0.35
0.325
0.32
0.3
0.28
0.285
0.315
0.29
0.255
0.26
0.265
0.235
0.28
0.265
0.265
0.285
0.295
0.29
0.29
0.285
0.245
0.27
0.28
0.275
0.25
0.28
0.27
0.26
0.255
0.275
0.255
0.28
0.28
0.305
0.305
0.31
0.35
0.405
0.53
0.635
0.75
0.865
1.015
1.215
1.355
1.465
1.52
1.575
1.53
1.435
1.24
1.025
0.755
0.605
0.445
0.26
0.04
-0.17
-0.14
-0.125
-0.02
-0.005
0.075
0.175
0.185
0.24
0.24
0.29
0.275
0.3
0.315
0.3
0.3
0.33
0.325
0.325
0.27
0.31
0.3
0.34
0.25
0.3
0.31
0.3
0.275
0.31
0.3
0.31
0.305
0.32
0.335
0.35
0.345
0.335
0.31
0.345
0.345
0.335
0.335
0.36
0.355
0.37
0.38
0.37
0.37
0.39
0.34
0.365
0.375
0.4
0.41
0.39
0.39
0.385
0.425
0.39
0.4
0.39
0.42
0.42
0.43
0.415
0.41
0.42
0.46
0.475
0.46
0.5
0.5
0.48
0.485
0.495
0.525
0.51
0.505
0.535
0.56
0.54
0.585
0.595
0.615
0.585
0.61
0.64
0.63
0.65
0.675
0.645
0.655
0.67
0.73
0.73
0.73
0.715
0.76
0.79
0.78
0.775
0.78
0.775
0.785
0.77
0.82
0.795
0.78
0.82
0.785
0.78
0.775
0.765
0.755
0.745
0.76
0.715
0.715
0.71
0.675
0.635
0.63
0.585
0.555
0.55
0.555
0.545
0.52
0.485
0.465
0.43
0.435
0.435
0.38
0.355
0.365
0.335
0.345
0.345
0.305
0.275
0.31
0.29
0.245
0.25
0.31
0.29
0.285
0.25
0.235
0.23
0.255
0.225
0.23
0.25
0.235
0.24
0.215
0.24
0.23
0.25
0.25
0.195
0.215
0.24
0.25
0.22
0.215
0.225
0.235
0.235
0.23
0.195
0.24
0.235
0.225
0.235
0.21
0.22
0.18
0.245
0.245
0.235
0.23
0.2
0.23
0.18
0.195
0.215
0.195
0.2
0.19
0.21
0.195
0.195
0.185
0.205
0.215
0.21
0.23
0.195
0.195
0.19
0.185
0.2
0.2
0.195
0.2
0.185
0.18
0.2
0.21
0.165
0.2
0.18
0.17
0.185
0.18
0.185
0.175
0.17
0.155
0.15
0.18
0.2
0.15
0.155
0.195
0.215
0.17
0.18
0.19
0.175
0.175
0.175
0.15
0.17
0.17
0.185
0.17
0.17
0.17
0.125
0.17
0.175
0.16
0.165
0.175
0.16
0.15
0.195
0.175
0.18
0.18
0.16
0.175
0.2
0.195
0.195
0.165
0.18
0.185
0.18
0.205
0.215
0.255
0.255
0.29
0.285
0.245
0.235
0.275
0.245
0.245
0.24
0.215
0.225
0.245
0.235
0.215
0.215
0.22
0.205
0.22
0.23
0.195
0.225
0.17
0.17
0.16
0.135
0.12
0.115
0.13
0.135
0.135
0.125
0.115
0.095
0.07
0.125
0.125
0.115
0.095
0.12
0.13
0.11
0.125
0.105
0.1
0.095
0.075
0.085
0.09
0.1
0.1
0.11
0.105
0.115
0.135
0.12
0.15
0.185
0.25
0.33
0.435
0.53
0.615
0.68
0.815
0.945
1.0
1.025
1.06
0.99
0.93
0.865
0.74
0.49
0.365
0.255
0.065
-0.04
-0.185
-0.225
-0.2
-0.13
-0.095
-0.045
0.02
0.06
0.08
0.07
0.08
0.13
0.135
0.135
0.115
0.125
0.115
0.105
0.09
0.09
0.105
0.1
0.115
0.14
0.12
0.09
0.11
0.125
0.105
0.095
0.15
0.13
0.125
0.13
0.15
0.135
0.12
0.135
0.14
0.16
0.155
0.135
0.16
0.17
0.17
0.13
0.155
0.185
0.16
0.155
0.18
0.175
0.145
0.195
0.2
0.18
0.19
0.2
0.2
0.2
0.23
0.23
0.225
0.215
0.205
0.215
0.21
0.255
0.25
0.27
0.265
0.25
0.275
0.26
0.285
0.275
0.29
0.295
0.325
0.32
0.33
0.31
0.35
0.38
0.345
0.365
0.39
0.415
0.41
0.44
0.44
0.42
0.45
0.45
0.435
0.475
0.5
0.485
0.5
0.54
0.525
0.53
0.55
0.545
0.52
0.545
0.545
0.54
0.55
0.54
0.535
0.555
0.535
0.52
0.49
0.47
0.455
0.445
0.435
0.445
0.415
0.4
0.39
0.4
0.345
0.315
0.31
0.265
0.28
0.265
0.255
0.205
0.21
0.23
0.225
0.195
0.155
0.145
0.17
0.16
0.145
0.13
0.14
0.145
0.135
0.12
0.095
0.105
0.09
0.105
0.105
0.065
0.07
0.095
0.105
0.095
0.09
0.1
0.07
0.08
0.09
0.11
0.115
0.08
0.065
0.12
0.105
0.105
0.095
0.09
0.065
0.065
0.1
0.105
0.1
0.125
0.09
0.065
0.085
0.1
0.08
0.09
0.09
0.09
0.085
0.105
0.105
0.085
0.08
0.085
0.08
0.1
0.13
0.09
0.08
0.085
0.11
0.085
0.1
0.1
0.085
0.08
0.09
0.1
0.075
0.115
0.13
0.13
0.105
0.12
0.115
0.105
0.095
0.095
0.1
0.09
0.095
0.075
0.08
0.075
0.08
0.08
0.11
0.1
0.085
0.075
0.07
0.065
0.075
0.08
0.075
0.1
0.1
0.055
0.055
0.085
0.09
0.08
0.07
0.09
0.095
0.11
0.105
0.1
0.11
0.125
0.13
0.095
0.08
0.11
0.095
0.1
0.125
0.155
0.14
0.16
0.16
0.155
0.165
0.17
0.15
0.15
0.155
0.175
0.135
0.135
0.155
0.155
0.14
0.125
0.125
0.13
0.115
0.14
0.14
0.13
0.06
0.08
0.075
0.085
0.085
0.07
0.045
0.02
0.005
0.04
0.045
0.05
0.055
0.05
0.04
0.05
0.015
0.02
0.03
0.04
0.02
0.02
0.02
0.035
0.03
0.045
0.02
0.025
0.045
0.02
0.025
0.04
0.04
0.05
0.095
0.125
0.18
0.245
0.34
0.41
0.55
0.63
0.72
0.835
0.935
0.945
0.96
0.88
0.8
0.755
0.61
0.395
0.27
0.13
0.0
-0.115
-0.21
-0.245
-0.23
-0.155
-0.165
-0.07
-0.035
-0.025
0.01
0.01
0.005
0.045
0.065
0.035
0.055
0.045
0.035
0.05
0.045
0.075
0.03
-0.015
-0.005
0.025
0.055
0.05
0.035
0.035
0.045
0.055
0.05
0.045
0.045
0.045
0.045
0.06
0.075
0.07
0.065
0.075
0.05
0.065
0.085
0.095
0.095
0.07
0.09
0.06
0.08
0.09
0.07
0.125
0.12
0.1
0.11
0.11
0.115
0.13
0.125
0.125
0.115
0.125
0.155
0.155
0.125
0.17
0.155
0.145
0.175
0.155
0.19
0.19
0.18
0.18
0.195
0.195
0.23
0.245
0.255
0.25
0.25
0.255
0.28
0.285
0.305
0.3
0.32
0.32
0.335
0.34
0.365
0.38
0.4
0.385
0.385
0.41
0.41
0.405
0.435
0.455
0.455
0.46
0.47
0.425
0.48
0.48
0.45
0.45
0.46
0.46
0.46
0.445
0.425
0.435
0.415
0.4
0.385
0.385
0.37
0.3
0.32
0.31
0.29
0.275
0.25
0.23
0.205
0.205
0.205
0.17
0.145
0.125
0.125
0.095
0.095
0.1
0.065
0.09
0.095
0.075
0.05
0.07
0.035
0.035
0.03
0.04
0.045
0.03
0.03
0.015
0.01
0.02
0.015
-0.01
-0.015
0.055
0.035
0.035
0.0
0.015
0.01
-0.005
-0.015
-0.005
0.015
0.035
0.02
-0.015
0.015
-0.005
-0.005
-0.01
-0.02
-0.005
0.015
0.015
0.02
0.005
-0.01
0.015
0.005
0.02
0.015
-0.01
0.005
0.015
0.015
0.0
0.005
0.02
-0.005
0.0
-0.005
0.0
0.0
0.02
0.02
0.015
0.04
-0.015
-0.005
-0.02
0.035
0.01
0.01
-0.005
0.01
0.0
0.02
0.025
0.04
0.025
0.05
0.015
0.02
-0.005
0.005
-0.005
0.025
0.015
0.01
0.015
0.0
0.02
0.015
0.015
0.01
0.02
0.01
0.02
0.03
0.04
0.015
0.03
0.06
0.08
0.045
0.045
0.045
0.035
0.02
0.025
0.045
0.065
0.08
0.07
0.08
0.1
0.105
0.085
0.07
0.065
0.09
0.1
0.1
0.07
0.055
0.09
0.075
0.085
0.09
0.045
0.09
0.065
0.05
0.045
0.05
0.055
0.025
0.015
0.03
-0.015
-0.03
-0.02
-0.025
-0.045
-0.02
-0.02
-0.03
-0.025
-0.025
-0.035
-0.03
-0.015
-0.035
-0.04
-0.04
-0.01
-0.025
-0.04
-0.025
-0.025
0.0
0.02
-0.015
-0.045
-0.015
-0.005
-0.015
-0.025
0.015
0.085
0.095
0.195
0.28
0.37
0.45
0.555
0.66
0.785
0.82
0.85
0.87
0.825
0.785
0.725
0.57
0.38
0.24
0.135
0.005
-0.105
-0.22
-0.255
-0.215
-0.215
-0.175
-0.1
-0.095
-0.065
-0.01
-0.03
-0.025
0.015
0.01
0.0
-0.01
0.0
0.0
0.0
-0.01
-0.015
0.0
0.045
0.015
-0.02
-0.025
0.015
0.03
0.03
-0.025
0.0
0.015
0.015
0.015
0.02
0.035
0.025
0.035
0.02
0.005
0.025
0.045
0.06
0.065
0.015
0.035
0.035
0.025
0.04
0.085
0.075
0.055
0.045
0.03
0.065
0.09
0.09
0.075
0.065
0.08
0.09
0.1
0.1
0.1
0.095
0.11
0.135
0.115
0.115
0.125
0.12
0.135
0.14
0.12
0.16
0.17
0.16
0.155
0.17
0.19
0.215
0.21
0.24
0.245
0.255
0.26
0.27
0.27
0.295
0.315
0.3
0.325
0.35
0.35
0.355
0.385
0.41
0.38
0.395
0.39
0.41
0.44
0.445
0.425
0.435
0.45
0.425
0.415
0.4
0.43
0.44
0.44
0.4
0.42
0.405
0.37
0.36
0.33
0.325
0.33
0.33
0.3
0.265
0.25
0.22
0.17
0.175
0.175
0.15
0.145
0.135
0.125
0.085
0.1
0.12
0.105
0.07
0.075
0.055
0.06
0.03
0.025
0.045
0.045
0.035
0.045
0.0
0.005
-0.02
0.03
0.015
0.01
0.035
0.005
-0.03
-0.01
0.0
0.01
-0.04
-0.015
0.025
0.005
0.0
-0.005
0.035
0.005
-0.015
-0.01
-0.015
0.005
-0.01
-0.02
0.0
-0.01
-0.025
0.005
0.01
-0.005
-0.01
-0.01
0.02
0.0
-0.005
-0.025
-0.005
0.02
0.045
0.015
0.005
-0.015
-0.015
0.0
0.01
0.01
0.02
0.02
0.01
0.01
0.015
0.005
0.01
0.025
0.015
0.01
0.015
0.025
0.005
0.025
0.03
0.035
0.015
0.0
0.005
0.06
0.025
0.01
0.035
0.055
0.04
0.0
0.02
0.025
0.04
0.04
0.05
0.05
0.06
0.055
0.065
0.075
0.05
0.065
0.075
0.07
0.055
0.07
0.08
0.085
0.09
0.09
0.065
0.075
0.1
0.075
0.105
0.11
0.13
0.11
0.085
0.055
0.1
0.11
0.09
0.085
0.11
0.09
0.115
0.12
0.1
0.12
0.095
0.12
0.1
0.075
0.06
0.075
0.045
0.015
0.02
0.02
0.02
0.005
0.0
-0.01
-0.01
0.005
0.005
0.025
0.01
0.01
0.0
-0.005
-0.03
-0.025
0.025
0.015
-0.02
-0.01
0.0
-0.01
0.015
-0.015
-0.02
-0.02
0.015
0.015
0.005
0.02
0.04
0.085
0.125
0.23
0.3
0.375
0.475
0.555
0.665
0.76
0.84
0.87
0.905
0.84
0.81
0.755
0.615
0.42
0.255
0.155
0.055
-0.01
-0.15
-0.235
-0.195
-0.175
-0.115
-0.075
-0.045
-0.035
-0.005
0.0
-0.015
0.015
0.02
0.03
0.025
0.06
0.055
0.025
0.0
0.015
0.03
0.04
0.035
0.055
0.015
0.02
0.025
0.05
0.015
0.04
0.025
0.02
0.035
0.05
0.07
0.07
0.055
0.06
0.04
0.045
0.07
0.07
0.075
0.075
0.07
0.07
0.08
0.08
0.075
0.09
0.085
0.095
0.095
0.11
0.11
0.115
0.125
0.09
0.09
0.115
0.135
0.115
0.145
0.135
0.1
0.1
0.16
0.17
0.16
0.155
0.185
0.175
0.185
0.18
0.165
0.205
0.21
0.2
0.235
0.23
0.265
0.245
0.27
0.27
0.27
0.295
0.3
0.315
0.34
0.355
0.37
0.355
0.36
0.39
0.415
0.42
0.405
0.405
0.44
0.45
0.465
0.45
0.465
0.46
0.465
0.465
0.46
0.445
0.46
0.45
0.43
0.45
0.415
0.395
0.37
0.38
0.385
0.35
0.325
0.325
0.315
0.315
0.265
0.25
0.215
0.205
0.205
0.19
0.175
0.165
0.135
0.115
0.13
0.135
0.105
0.075
0.085
0.095
0.07
0.07
0.07
0.065
0.045
0.055
0.06
0.04
0.04
0.04
0.035
0.04
0.05
0.04
0.035
0.07
0.035
0.025
0.04
0.03
0.025
0.015
0.025
0.06
0.045
0.05
0.04
0.03
0.045
0.025
0.015
0.01
0.045
0.015
0.035
0.03
0.025
0.025
0.055
0.035
0.025
0.03
0.025
0.03
0.015
0.04
0.035
0.035
0.04
0.03
0.035
0.025
0.02
0.04
0.06
0.05
0.02
0.045
0.035
0.02
0.015
0.005
0.045
0.06
0.065
0.05
0.05
0.025
0.05
0.045
0.015
0.02
0.01
0.03
0.02
0.035
0.025
0.025
0.005
0.01
0.045
0.055
0.025
0.03
0.035
0.02
0.025
0.045
0.04
0.02
0.035
0.035
0.025
0.025
0.04
0.03
0.025
0.015
0.005
0.005
0.0
0.035
0.03
0.02
0.01
0.025
0.0
0.02
0.005
0.01
0.035
0.03
0.05
0.045
0.055
0.03
0.03
0.04
0.05
0.02
0.04
0.04
0.065
0.06
0.055
0.04
0.025
0.035
0.075
0.08
0.065
0.085
0.075
0.09
0.11
0.08
0.08
0.09
0.08
0.09
0.085
0.08
0.06
0.08
0.09
0.075
0.06
0.04
0.04
0.055
0.065
0.07
0.055
0.02
0.015
-0.005
-0.045
-0.02
-0.01
-0.03
-0.065
-0.02
-0.01
-0.02
-0.05
-0.05
-0.015
-0.025
-0.015
-0.04
-0.045
-0.03
-0.04
-0.02
-0.02
-0.05
-0.055
-0.045
-0.03
-0.04
-0.02
-0.03
-0.02
-0.005
-0.005
0.015
0.055
0.13
0.205
0.31
0.42
0.49
0.61
0.725
0.8
0.835
0.87
0.895
0.815
0.79
0.715
0.53
0.355
0.19
0.09
0.045
-0.04
-0.2
-0.24
-0.235
-0.23
-0.19
-0.14
-0.065
-0.045
-0.045
-0.025
-0.045
-0.04
-0.005
-0.01
-0.02
-0.015
-0.025
-0.05
-0.05
-0.03
0.005
0.01
-0.005
-0.015
-0.02
-0.035
-0.005
0.01
0.0
-0.025
-0.01
0.02
-0.005
-0.01
0.005
0.02
-0.01
0.0
0.01
0.01
0.005
0.025
0.005
0.025
0.01
0.03
0.045
0.035
0.005
0.02
0.025
0.025
0.035
0.06
0.065
0.075
0.05
0.06
0.05
0.08
0.085
0.07
0.08
0.08
0.09
0.095
0.09
0.115
0.115
0.09
0.115
0.125
0.14
0.135
0.165
0.165
0.195
0.175
0.16
0.2
0.215
0.215
0.195
0.205
0.225
0.275
0.28
0.275
0.265
0.3
0.305
0.305
0.325
0.365
0.345
0.39
0.39
0.36
0.365
0.41
0.395
0.395
0.41
0.435
0.405
0.47
0.45
0.415
0.385
0.425
0.425
0.4
0.41
0.38
0.355
0.34
0.355
0.34
0.33
0.305
0.28
0.255
0.255
0.225
0.21
0.21
0.205
0.175
0.165
0.12
0.09
0.115
0.11
0.08
0.075
0.075
0.1
0.085
0.07
0.06
0.04
0.03
0.05
0.025
0.04
0.03
0.045
0.035
0.05
0.02
0.025
0.0
0.025
0.04
0.025
0.05
0.01
0.005
0.03
0.045
0.025
0.04
0.02
0.0
0.01
0.045
0.035
0.015
0.04
0.045
0.04
0.03
0.055
0.02
0.035
0.04
0.03
0.015
0.05
0.035
0.03
0.015
0.045
0.025
0.03
0.025
0.065
0.06
0.02
0.03
0.035
0.035
0.045
0.03
0.02
0.03
0.03
0.025
0.045
0.025
0.025
0.03
0.015
0.025
0.015
0.045
0.065
0.04
0.03
0.015
0.015
0.03
0.05
0.055
0.06
0.03
0.035
0.035
0.045
0.035
0.02
0.06
0.045
0.045
0.045
0.03
0.03
0.045
0.045
0.03
0.045
0.045
0.055
0.02
0.04
0.065
0.045
0.005
0.025
0.04
0.02
0.01
0.035
0.01
0.04
0.035
0.025
0.015
0.04
0.025
0.02
0.035
0.025
0.02
0.03
0.025
0.025
0.0
0.015
0.015
0.025
0.035
0.015
0.005
0.0
-0.015
0.01
0.025
0.03
0.01
0.01
0.0
0.005
-0.005
0.015
0.03
0.02
0.015
0.01
-0.005
0.03
0.02
0.02
0.0
0.015
0.005
0.015
0.045
0.02
-0.01
-0.01
0.015
0.025
0.03
0.04
0.025
0.0
0.015
-0.005
0.0
0.015
0.025
-0.005
0.0
0.015
0.035
0.02
0.01
0.01
0.0
0.0
0.015
0.005
0.01
0.005
-0.005
-0.015
0.005
0.035
0.01
0.0
0.0
0.0
0.025
0.015
0.01
-0.015
0.005
0.005
0.015
0.025
0.02
0.03
0.045
0.035
0.025
0.03
0.02
0.055
0.045
0.04
0.055
0.05
0.07
0.04
0.045
0.07
0.08
0.105
0.125
0.125
0.11
0.12
0.12
0.12
0.105
0.095
0.085
0.05
0.075
0.07
0.075
0.06
0.07
0.105
0.1
0.07
0.045
0.045
0.05
0.055
0.025
0.015
0.03
0.025
0.015
0.015
-0.005
-0.005
0.005
0.005
0.0
-0.015
-0.015
-0.005
-0.015
0.0
0.015
0.005
-0.02
-0.015
-0.005
0.01
0.0
-0.005
-0.025
0.005
0.015
-0.025
-0.01
0.01
-0.015
-0.01
0.02
0.02
0.005
0.05
0.09
0.14
0.27
0.335
0.425
0.475
0.61
0.735
0.84
0.89
0.905
0.905
0.885
0.845
0.765
0.605
0.415
0.265
0.185
0.13
-0.01
-0.145
-0.205
-0.18
-0.155
-0.1
-0.035
0.01
0.0
0.01
-0.005
-0.02
0.005
0.035
0.04
0.03
0.04
0.01
0.015
0.01
0.01
0.005
0.02
0.015
0.02
0.035
0.025
0.025
0.0
0.04
0.04
0.025
0.045
0.07
0.05
0.04
0.06
0.05
0.05
0.05
0.05
0.065
0.04
0.075
0.075
0.085
0.05
0.06
0.07
0.095
0.08
0.08
0.095
0.075
0.095
0.115
0.075
0.09
0.11
0.11
0.1
0.1
0.105
0.14
0.12
0.14
0.15
0.135
0.145
0.14
0.15
0.155
0.165
0.18
0.195
0.2
0.185
0.185
0.195
0.205
0.23
0.26
0.25
0.27
0.235
0.28
0.3
0.305
0.295
0.315
0.31
0.345
0.37
0.355
0.36
0.38
0.42
0.41
0.425
0.435
0.45
0.435
0.435
0.46
0.46
0.47
0.48
0.46
0.46
0.47
0.465
0.48
0.495
0.45
0.45
0.45
0.435
0.43
0.42
0.41
0.365
0.355
0.335
0.335
0.325
0.325
0.28
0.265
0.24
0.225
0.21
0.195
0.195
0.17
0.17
0.145
0.15
0.13
0.12
0.11
0.12
0.11
0.09
0.09
0.1
0.1
0.08
0.07
0.085
0.08
0.07
0.08
0.075
0.06
0.07
0.07
0.065
0.055
0.045
0.055
0.085
0.065
0.075
0.06
0.03
0.065
0.07
0.04
0.075
0.075
0.055
0.04
0.06
0.06
0.07
0.065
0.06
0.07
0.065
0.045
0.035
0.045
0.02
0.035
0.085
0.065
0.045
0.04
0.05
0.055
0.045
0.04
0.04
0.06
0.035
0.045
0.04
0.02
0.06
0.035
0.055
0.06
0.055
0.045
0.035
0.045
0.04
0.05
0.05
0.05
0.045
0.05
0.025
0.055
0.05
0.05
0.02
0.045
0.06
0.06
0.085
0.07
0.06
0.06
0.08
0.055
0.04
0.07
0.08
0.03
0.06
0.04
0.035
0.06
0.06
0.075
0.05
0.045
0.06
0.055
0.06
0.065
0.075
0.055
0.045
0.06
0.05
0.05
0.05
0.05
0.07
0.035
0.04
0.04
0.065
0.04
0.04
0.04
0.035
0.04
0.04
0.05
0.035
0.05
0.045
0.06
0.05
0.025
0.05
0.03
0.03
0.045
0.065
0.06
0.045
0.05
0.025
0.035
0.05
0.05
0.035
0.065
0.05
0.035
0.04
0.03
0.055
0.045
0.025
0.04
0.055
0.055
0.04
0.05
0.045
0.04
0.04
0.06
0.055
0.05
0.035
0.05
0.045
0.025
0.05
0.035
0.02
0.065
0.03
0.04
0.045
0.05
0.045
0.045
0.045
0.065
0.025
0.04
0.04
0.03
0.045
0.05
0.035
0.035
0.035
0.05
0.055
0.06
0.035
0.025
0.025
0.04
0.065
0.07
0.055
0.04
0.035
0.05
0.04
0.045
0.085
0.085
0.085
0.09
0.085
0.065
0.075
0.095
0.1
0.08
0.085
0.11
0.115
0.145
0.17
0.18
0.135
0.125
0.12
0.135
0.16
0.145
0.12
0.125
0.115
0.12
0.12
0.11
0.1
0.095
0.115
0.085
0.12
0.11
0.115
0.115
0.075
0.075
0.075
0.06
0.05
0.065
0.065
0.06
0.065
0.04
0.035
0.05
0.04
0.055
0.045
0.045
0.06
0.06
0.025
0.045
0.04
0.03
0.035
0.035
0.035
0.015
0.035
0.055
0.055
0.035
0.04
0.03
0.03
0.055
0.055
0.06
0.055
0.06
0.065
0.08
0.115
0.195
0.275
0.375
0.455
0.56
0.665
0.745
0.855
0.925
0.975
0.965
0.935
0.9
0.82
0.65
0.445
0.32
0.225
0.17
0.07
-0.115
-0.185
-0.13
-0.105
-0.095
-0.015
0.045
0.075
0.05
0.04
0.045
0.065
0.08
0.09
0.07
0.085
0.07
0.085
0.08
0.085
0.085
0.065
0.085
0.1
0.08
0.085
0.11
0.115
0.085
0.08
0.085
0.08
0.08
0.105
0.145
0.13
0.09
0.1
0.1
0.125
0.09
0.105
0.11
0.1
0.105
0.18
0.165
0.135
0.125
0.135
0.145
0.15
0.14
0.13
0.155
0.19
0.17
0.19
0.16
0.16
0.185
0.185
0.19
0.2
0.195
0.2
0.195
0.205
0.195
0.19
0.215
0.215
0.225
0.29
0.225
0.285
0.3
0.295
0.285
0.31
0.34
0.33
0.35
0.36
0.375
0.375
0.4
0.41
0.42
0.415
0.42
0.445
0.47
0.485
0.48
0.49
0.51
0.525
0.495
0.525
0.54
0.54
0.55
0.58
0.58
0.575
0.56
0.575
0.55
0.565
0.545
0.54
0.57
0.505
0.545
0.54
0.54
0.52
0.485
0.475
0.445
0.43
0.435
0.4
0.34
0.355
0.365
0.31
0.3
0.28
0.28
0.255
0.255
0.225
0.22
0.21
0.22
0.19
0.19
0.185
0.18
0.18
0.165
0.165
0.155
0.15
0.135
0.145
0.155
0.15
0.14
0.11
0.145
0.155
0.15
0.16
0.135
0.14
0.15
0.145
0.12
0.13
0.14
0.14
0.125
0.12
0.135
0.135
0.135
0.115
0.115
0.135
0.135
0.11
0.125
0.115
0.125
0.12
0.14
0.125
0.11
0.105
0.125
0.13
0.125
0.13
0.12
0.135
0.125
0.105
0.125
0.12
0.135
0.12
0.12
0.12
0.13
0.12
0.1
0.15
0.125
0.125
0.14
0.13
0.135
0.135
0.125
0.135
0.14
0.13
0.12
0.15
0.155
0.145
0.14
0.135
0.13
0.135
0.145
0.155
0.13
0.17
0.145
0.14
0.15
0.15
0.13
0.085
0.14
0.145
0.15
0.145
0.135
0.125
0.14
0.15
0.135
0.14
0.145
0.11
0.135
0.135
0.14
0.115
0.12
0.145
0.16
0.145
0.11
0.1
0.105
0.15
0.17
0.15
0.135
0.11
0.16
0.14
0.135
0.14
0.11
0.13
0.13
0.125
0.12
0.14
0.14
0.12
0.13
0.12
0.125
0.135
0.13
0.125
0.135
0.15
0.135
0.16
0.12
0.12
0.11
0.13
0.135
0.13
0.14
0.145
0.14
0.12
0.12
0.13
0.11
0.165
0.16
0.145
0.135
0.12
0.12
0.14
0.13
0.125
0.125
0.145
0.115
0.13
0.13
0.125
0.12
0.105
0.125
0.125
0.125
0.13
0.125
0.115
0.125
0.13
0.14
0.155
0.13
0.13
0.11
0.13
0.125
0.14
0.15
0.125
0.125
0.13
0.12
0.115
0.135
0.125
0.125
0.125
0.13
0.14
0.145
0.13
0.125
0.13
0.14
0.12
0.125
0.13
0.135
0.12
0.125
0.125
0.1
0.14
0.165
0.14
0.125
0.145
0.13
0.115
0.115
0.165
0.13
0.125
0.125
0.14
0.16
0.175
0.175
0.185
0.175
0.15
0.15
0.145
0.155
0.15
0.175
0.205
0.2
0.205
0.21
0.225
0.22
0.215
0.22
0.24
0.24
0.245
0.24
0.225
0.215
0.215
0.2
0.195
0.2
0.2
0.22
0.235
0.215
0.22
0.2
0.2
0.16
0.17
0.17
0.16
0.125
0.135
0.145
0.13
0.15
0.13
0.15
0.135
0.145
0.145
0.11
0.15
0.135
0.12
0.115
0.125
0.125
0.115
0.12
0.12
0.13
0.155
0.135
0.125
0.11
0.105
0.1
0.11
0.13
0.11
0.125
0.13
0.12
0.14
0.145
0.125
0.14
0.145
0.185
0.235
0.33
0.43
0.51
0.57
0.68
0.805
0.925
0.965
1.02
1.065
1.0
0.955
0.915
0.77
0.61
0.4
0.315
0.295
0.195
0.01
-0.085
-0.095
-0.03
0.005
0.025
0.085
0.11
0.13
0.135
0.13
0.125
0.165
0.195
0.195
0.175
0.16
0.14
0.15
0.16
0.15
0.155
0.185
0.155
0.155
0.175
0.16
0.165
0.165
0.2
0.18
0.155
0.18
0.19
0.185
0.19
0.2
0.195
0.2
0.195
0.195
0.205
0.225
0.205
0.22
0.225
0.195
0.2
0.23
0.205
0.235
0.225
0.22
0.215
0.22
0.215
0.225
0.22
0.265
0.275
0.25
0.22
0.24
0.275
0.26
0.285
0.27
0.28
0.275
0.275
0.275
0.28
0.3
0.325
0.33
0.315
0.315
0.325
0.34
0.34
0.35
0.375
0.375
0.395
0.41
0.44
0.435
0.445
0.445
0.47
0.465
0.505
0.485
0.52
0.485
0.505
0.565
0.565
0.555
0.56
0.585
0.595
0.59
0.595
0.595
0.6
0.6
0.6
0.61
0.61
0.605
0.64
0.61
0.595
0.595
0.59
0.555
0.555
0.545
0.53
0.515
0.47
0.43
0.46
0.45
0.45
0.42
0.38
0.375
0.375
0.335
0.315
0.3
0.295
0.29
0.265
0.275
0.26
0.25
0.245
0.225
0.215
0.23
0.21
0.195
0.2
0.19
0.19
0.205
0.18
0.175
0.175
0.2
0.18
0.165
0.155
0.18
0.19
0.205
0.17
0.19
0.185
0.175
0.165
0.195
0.17
0.165
0.135
0.17
0.175
0.185
0.175
0.185
0.165
0.18
0.155
0.155
0.155
0.165
0.175
0.165
0.175
0.195
0.155
0.165
0.17
0.17
0.175
0.155
0.165
0.185
0.17
0.165
0.155
0.155
0.17
0.18
0.175
0.18
0.175
0.19
0.185
0.195
0.185
0.19
0.19
0.18
0.19
0.185
0.18
0.21
0.18
0.155
0.19
0.195
0.205
0.195
0.205
0.185
0.175
0.22
0.205
0.195
0.22
0.19
0.175
0.19
0.21
0.21
0.19
0.21
0.175
0.205
0.18
0.205
0.18
0.18
0.205
0.19
0.17
0.185
0.175
0.175
0.19
0.205
0.19
0.185
0.18
0.185
0.165
0.185
0.195
0.21
0.195
0.195
0.18
0.175
0.2
0.19
0.18
0.15
0.18
0.19
0.195
0.17
0.15
0.16
0.185
0.15
0.185
0.19
0.185
0.17
0.195
0.16
0.175
0.185
0.175
0.155
0.18
0.19
0.16
0.165
0.185
0.185
0.175
0.175
0.185
0.16
0.175
0.185
0.17
0.155
0.175
0.15
0.135
0.16
0.185
0.185
0.17
0.165
0.17
0.155
0.145
0.175
0.15
0.155
0.16
0.17
0.195
0.175
0.17
0.165
0.175
0.16
0.12
0.16
0.16
0.17
0.17
0.15
0.165
0.175
0.175
0.165
0.17
0.175
0.175
0.175
0.18
0.15
0.165
0.175
0.155
0.13
0.16
0.17
0.17
0.18
0.185
0.2
0.14
0.115
0.16
0.145
0.16
0.17
0.2
0.16
0.175
0.15
0.165
0.165
0.175
0.165
0.145
0.14
0.16
0.15
0.19
0.185
0.175
0.155
0.165
0.155
0.15
0.135
0.16
0.165
0.175
0.18
0.175
0.17
0.15
0.155
0.185
0.195
0.19
0.175
0.2
0.195
0.18
0.175
0.185
0.18
0.205
0.215
0.205
0.23
0.24
0.26
0.26
0.26
0.24
0.255
0.24
0.265
0.25
0.245
0.24
0.24
0.225
0.215
0.225
0.22
0.22
0.225
0.215
0.225
0.21
0.21
0.195
0.19
0.185
0.165
0.165
0.16
0.125
0.12
0.145
0.155
0.14
0.155
0.14
0.14
0.125
0.13
0.135
0.125
0.115
0.145
0.155
0.135
0.135
0.115
0.14
0.14
0.115
0.15
0.135
0.105
0.105
0.105
0.14
0.12
0.125
0.125
0.15
0.135
0.14
0.16
0.215
0.3
0.345
0.44
0.535
0.625
0.77
0.85
0.94
1.01
1.04
1.06
1.0
0.98
0.9
0.72
0.535
0.38
0.3
0.24
0.095
-0.07
-0.13
-0.075
-0.035
0.015
0.065
0.12
0.14
0.11
0.115
0.14
0.145
0.14
0.16
0.15
0.145
0.175
0.175
0.145
0.16
0.155
0.15
0.13
0.155
0.16
0.175
0.18
0.18
0.18
0.17
0.165
0.155
0.17
0.19
0.185
0.2
0.18
0.185
0.175
0.205
0.2
0.185
0.215
0.22
0.19
0.215
0.215
0.225
0.22
0.195
0.235
0.235
0.23
0.24
0.23
0.225
0.25
0.23
0.26
0.27
0.23
0.24
0.26
0.26
0.26
0.255
0.265
0.29
0.285
0.3
0.32
0.315
0.31
0.325
0.3
0.325
0.35
0.34
0.345
0.34
0.335
0.37
0.395
0.4
0.4
0.41
0.435
0.45
0.465
0.48
0.495
0.49
0.49
0.515
0.535
0.535
0.55
0.555
0.56
0.6
0.59
0.58
0.6
0.62
0.595
0.615
0.63
0.615
0.585
0.625
0.645
0.645
0.62
0.58
0.585
0.56
0.6
0.58
0.56
0.54
0.5
0.485
0.48
0.49
0.46
0.445
0.425
0.38
0.38
0.37
0.35
0.34
0.325
0.3
0.295
0.29
0.28
0.26
0.215
0.235
0.235
0.23
0.225
0.205
0.215
0.205
0.185
0.2
0.2
0.18
0.19
0.17
0.205
0.2
0.175
0.16
0.175
0.195
0.19
0.19
0.18
0.18
0.16
0.175
0.165
0.17
0.165
0.165
0.185
0.16
0.165
0.17
0.175
0.165
0.185
0.165
0.17
0.175
0.17
0.16
0.16
0.175
0.19
0.165
0.17
0.185
0.195
0.175
0.16
0.185
0.2
0.17
0.165
0.185
0.17
0.19
0.18
0.175
0.18
0.17
0.175
0.18
0.195
0.19
0.195
0.185
0.195
0.21
0.19
0.195
0.17
0.185
0.195
0.185
0.18
0.18
0.18
0.185
0.2
0.235
0.195
0.205
0.19
0.195
0.225
0.215
0.205
0.165
0.175
0.19
0.205
0.195
0.19
0.185
0.195
0.2
0.2
0.18
0.195
0.18
0.17
0.195
0.185
0.175
0.2
0.195
0.185
0.165
0.16
0.175
0.175
0.205
0.2
0.195
0.19
0.205
0.17
0.155
0.175
0.17
0.17
0.175
0.18
0.175
0.165
0.18
0.195
0.185
0.155
0.17
0.18
0.16
0.175
0.175
0.18
0.17
0.2
0.165
0.16
0.16
0.18
0.175
0.2
0.185
0.18
0.18
0.175
0.17
0.175
0.175
0.185
0.175
0.18
0.18
0.175
0.18
0.165
0.17
0.165
0.16
0.19
0.19
0.175
0.175
0.175
0.2
0.145
0.165
0.18
0.175
0.165
0.175
0.165
0.175
0.185
0.2
0.18
0.155
0.185
0.17
0.195
0.17
0.19
0.19
0.19
0.18
0.17
0.175
0.205
0.18
0.18
0.165
0.16
0.18
0.17
0.18
0.16
0.155
0.195
0.18
0.175
0.165
0.18
0.2
0.21
0.165
0.155
0.17
0.18
0.195
0.17
0.19
0.19
0.17
0.2
0.19
0.18
0.185
0.17
0.19
0.2
0.22
0.185
0.165
0.15
0.175
0.165
0.18
0.195
0.19
0.18
0.195
0.18
0.19
0.215
0.185
0.175
0.185
0.175
0.17
0.16
0.19
0.19
0.2
0.21
0.17
0.155
0.18
0.185
0.205
0.205
0.2
0.19
0.185
0.21
0.2
0.205
0.215
0.205
0.21
0.215
0.235
0.225
0.21
0.22
0.215
0.265
0.28
0.29
0.29
0.285
0.26
0.285
0.305
0.3
0.29
0.305
0.285
0.27
0.255
0.255
0.25
0.26
0.275
0.275
0.265
0.24
0.25
0.245
0.21
0.23
0.235
0.215
0.205
0.17
0.17
0.17
0.205
0.18
0.17
0.165
0.17
0.17
0.175
0.165
0.18
0.205
0.205
0.175
0.16
0.16
0.17
0.205
0.21
0.175
0.135
0.17
0.17
0.18
0.165
0.18
0.165
0.185
0.2
0.195
0.18
0.225
0.25
0.305
0.395
0.505
0.555
0.67
0.81
0.945
1.015
1.075
1.105
1.115
1.07
1.02
0.96
0.81
0.615
0.465
0.35
0.26
0.17
0.01
-0.05
0.005
0.025
0.075
0.12
0.145
0.175
0.19
0.15
0.18
0.19
0.235
0.225
0.245
0.22
0.195
0.215
0.22
0.205
0.22
0.23
0.215
0.22
0.245
0.205
0.22
0.225
0.24
0.235
0.235
0.22
0.22
0.24
0.275
0.27
0.24
0.25
0.25
0.255
0.27
0.275
0.255
0.275
0.265
0.285
0.275
0.285
0.25
0.275
0.26
0.27
0.305
0.28
0.31
0.32
0.31
0.275
0.295
0.32
0.33
0.31
0.33
0.32
0.33
0.345
0.35
0.345
0.34
0.35
0.34
0.34
0.37
0.4
0.365
0.37
0.42
0.415
0.4
0.415
0.42
0.455
0.465
0.445
0.455
0.485
0.495
0.485
0.515
0.52
0.525
0.525
0.56
0.565
0.585
0.595
0.595
0.62
0.615
0.625
0.64
0.665
0.66
0.655
0.67
0.68
0.665
0.66
0.69
0.675
0.675
0.67
0.68
0.675
0.665
0.66
0.645
0.605
0.61
0.605
0.585
0.58
0.565
0.545
0.535
0.52
0.47
0.46
0.45
0.4
0.4
0.38
0.365
0.38
0.395
0.36
0.345
0.295
0.3
0.29
0.285
0.31
0.27
0.27
0.28
0.265
0.26
0.23
0.24
0.22
0.195
0.24
0.235
0.25
0.27
0.26
0.23
0.25
0.25
0.23
0.21
0.215
0.25
0.21
0.21
0.24
0.22
0.2
0.215
0.22
0.195
0.21
0.225
0.215
0.265
0.245
0.22
0.2
0.2
0.2
0.215
0.235
0.205
0.23
0.235
0.225
0.225
0.24
0.245
0.23
0.23
0.225
0.245
0.245
0.24
0.235
0.24
0.245
0.235
0.225
0.215
0.225
0.245
0.25
0.26
0.24
0.235
0.245
0.245
0.24
0.25
0.26
0.245
0.235
0.24
0.235
0.24
0.25
0.25
0.22
0.25
0.25
0.255
0.255
0.255
0.23
0.24
0.245
0.235
0.235
0.245
0.24
0.235
0.245
0.245
0.24
0.225
0.255
0.22
0.225
0.225
0.24
0.22
0.245
0.235
0.205
0.22
0.23
0.245
0.235
0.225
0.225
0.21
0.22
0.25
0.23
0.215
0.225
0.215
0.22
0.22
0.24
0.225
0.24
0.22
0.205
0.23
0.225
0.23
0.215
0.21
0.215
0.205
0.235
0.225
0.215
0.2
0.205
0.21
0.22
0.215
0.195
0.215
0.21
0.185
0.22
0.21
0.215
0.21
0.22
0.225
0.2
0.205
0.23
0.245
0.215
0.22
0.22
0.175
0.185
0.185
0.195
0.22
0.21
0.2
0.19
0.215
0.22
0.21
0.175
0.19
0.21
0.195
0.205
0.22
0.19
0.21
0.205
0.21
0.2
0.205
0.21
0.19
0.195
0.19
0.195
0.205
0.195
0.205
0.21
0.215
0.185
0.205
0.205
0.23
0.215
0.215
0.195
0.175
0.195
0.22
0.205
0.215
0.2
0.21
0.195
0.205
0.18
0.205
0.18
0.21
0.21
0.23
0.2
0.185
0.175
0.2
0.195
0.215
0.215
0.22
0.215
0.18
0.215
0.22
0.19
0.185
0.215
0.19
0.22
0.22
0.21
0.21
0.195
0.21
0.22
0.22
0.22
0.235
0.25
0.255
0.25
0.26
0.245
0.255
0.215
0.23
0.245
0.24
0.28
0.3
0.275
0.32
0.335
0.3
0.325
0.32
0.305
0.285
0.285
0.295
0.29
0.31
0.285
0.27
0.27
0.27
0.295
0.295
0.28
0.275
0.265
0.25
0.25
0.215
0.215
0.205
0.17
0.195
0.22
0.185
0.175
0.22
0.22
0.175
0.19
0.2
0.21
0.185
0.175
0.195
0.205
0.205
0.185
0.175
0.195
0.2
0.17
0.185
0.16
0.155
0.21
0.185
0.195
0.2
0.215
0.215
0.225
0.28
0.345
0.405
0.495
0.585
0.665
0.75
0.9
1.005
1.02
1.055
1.08
1.01
0.97
0.92
0.77
0.57
0.43
0.305
0.19
0.12
-0.025
-0.065
-0.055
-0.01
0.005
0.095
0.155
0.17
0.14
0.16
0.2
0.19
0.21
0.21
0.2
0.2
0.22
0.21
0.2
0.195
0.2
0.2
0.2
0.23
0.22
0.21
0.225
0.22
0.215
0.235
0.225
0.235
0.245
0.235
0.245
0.245
0.25
0.23
0.235
0.265
0.245
0.255
0.265
0.265
0.25
0.25
0.27
0.255
0.265
0.265
0.265
0.28
0.27
0.28
0.285
0.29
0.31
0.295
0.265
0.28
0.305
0.31
0.325
0.315
0.32
0.315
0.335
0.36
0.335
0.34
0.36
0.345
0.355
0.375
0.375
0.37
0.395
0.38
0.395
0.4
0.41
0.405
0.44
0.47
0.45
0.455
0.48
0.46
0.485
0.515
0.52
0.535
0.565
0.55
0.535
0.57
0.59
0.62
0.62
0.6
0.625
0.645
0.65
0.66
0.67
0.675
0.675
0.65
0.67
0.68
0.645
0.675
0.705
0.65
0.645
0.665
0.635
0.625
0.605
0.605
0.6
0.58
0.545
0.52
0.495
0.51
0.48
0.435
0.44
0.435
0.405
0.42
0.39
0.345
0.36
0.34
0.33
0.32
0.31
0.285
0.28
0.3
0.245
0.255
0.27
0.27
0.265
0.25
0.24
0.265
0.24
0.24
0.24
0.225
0.215
0.25
0.225
0.215
0.215
0.22
0.215
0.215
0.22
0.215
0.21
0.205
0.225
0.245
0.235
0.245
0.215
0.2
0.22
0.22
0.205
0.215
0.195
0.2
0.2
0.21
0.22
0.21
0.21
0.2
0.22
0.215
0.215
0.22
0.235
0.25
0.225
0.215
0.225
0.23
0.22
0.205
0.215
0.225
0.225
0.225
0.225
0.225
0.235
0.235
0.22
0.225
0.225
0.23
0.245
0.25
0.245
0.24
0.24
0.21
0.21
0.235
0.24
0.235
0.26
0.24
0.235
0.23
0.235
0.23
0.235
0.235
0.22
0.215
0.215
0.21
0.22
0.235
0.23
0.23
0.215
0.205
0.195
0.22
0.25
0.225
0.21
0.22
0.225
0.23
0.215
0.235
0.205
0.185
0.215
0.2
0.195
0.23
0.245
0.23
0.205
0.215
0.195
0.2
0.2
0.2
0.205
0.225
0.21
0.22
0.205
0.2
0.185
0.205
0.21
0.215
0.21
0.2
0.22
0.2
0.175
0.17
0.185
0.205
0.205
0.205
0.215
0.205
0.195
0.18
0.17
0.175
0.19
0.2
0.19
0.19
0.185
0.21
0.2
0.155
0.18
0.185
0.19
0.195
0.21
0.19
0.18
0.185
0.185
0.175
0.18
0.17
0.2
0.195
0.185
0.18
0.18
0.195
0.19
0.175
0.18
0.195
0.17
0.18
0.175
0.175
0.18
0.185
0.175
0.175
0.175
0.175
0.175
0.2
0.19
0.16
0.175
0.195
0.165
0.18
0.18
0.16
0.185
0.155
0.15
0.17
0.175
0.175
0.165
0.165
0.2
0.185
0.16
0.17
0.17
0.18
0.18
0.185
0.165
0.175
0.17
0.17
0.175
0.2
0.185
0.165
0.185
0.18
0.175
0.155
0.205
0.165
0.165
0.165
0.175
0.17
0.18
0.19
0.175
0.175
0.19
0.18
0.165
0.18
0.185
0.18
0.175
0.175
0.17
0.185
0.185
0.17
0.17
0.18
0.15
0.18
0.195
0.195
0.2
0.195
0.18
0.21
0.2
0.205
0.22
0.2
0.25
0.23
0.225
0.22
0.23
0.23
0.24
0.245
0.255
0.27
0.265
0.28
0.295
0.28
0.295
0.28
0.265
0.265
0.25
0.25
0.25
0.25
0.25
0.275
0.255
0.225
0.24
0.27
0.255
0.215
0.225
0.225
0.21
0.2
0.205
0.18
0.155
0.18
0.19
0.175
0.175
0.175
0.145
0.18
0.165
0.155
0.155
0.15
0.18
0.18
0.175
0.165
0.16
0.165
0.145
0.155
0.165
0.175
0.165
0.17
0.195
0.18
0.16
0.195
0.245
0.25
0.365
0.475
0.565
0.605
0.72
0.825
0.93
1.005
1.045
1.08
1.035
0.96
0.905
0.815
0.62
0.455
0.32
0.255
0.165
-0.015
-0.08
-0.09
-0.035
-0.005
0.06
0.105
0.115
0.145
0.17
0.145
0.165
0.185
0.18
0.185
0.2
0.185
0.17
0.2
0.185
0.165
0.175
0.195
0.19
0.195
0.175
0.2
0.18
0.2
0.19
0.2
0.2
0.21
0.23
0.19
0.185
0.205
0.205
0.21
0.205
0.22
0.22
0.23
0.225
0.255
0.255
0.225
0.195
0.2
0.225
0.245
0.28
0.27
0.25
0.245
0.255
0.24
0.27
0.26
0.25
0.255
0.28
0.285
0.285
0.3
0.295
0.285
0.295
0.315
0.3
0.285
0.305
0.305
0.325
0.35
0.335
0.345
0.355
0.37
0.395
0.375
0.355
0.405
0.415
0.41
0.43
0.435
0.455
0.445
0.435
0.445
0.485
0.485
0.5
0.55
0.54
0.545
0.57
0.565
0.575
0.57
0.605
0.6
0.61
0.625
0.6
0.625
0.63
0.64
0.61
0.64
0.645
0.605
0.635
0.625
0.615
0.6
0.605
0.6
0.585
0.57
0.575
0.54
0.515
0.495
0.485
0.45
0.445
0.43
0.41
0.39
0.37
0.355
0.335
0.36
0.335
0.31
0.3
0.29
0.275
0.26
0.28
0.265
0.235
0.245
0.23
0.215
0.23
0.22
0.2
0.205
0.195
0.205
0.205
0.205
0.21
0.195
0.21
0.2
0.19
0.19
0.195
0.19
0.18
0.19
0.17
0.14
0.215
0.175
0.17
0.175
0.185
0.195
0.205
0.2
0.19
0.18
0.185
0.185
0.18
0.165
0.165
0.18
0.205
0.205
0.175
0.205
0.145
0.16
0.19
0.17
0.185
0.19
0.22
0.215
0.185
0.19
0.185
0.175
0.175
0.195
0.19
0.17
0.21
0.19
0.2
0.19
0.195
0.19
0.175
0.19
0.19
0.205
0.215
0.19
0.19
0.22
0.19
0.195
0.19
0.195
0.17
0.185
0.205
0.195
0.19
0.205
0.195
0.175
0.175
0.185
0.185
0.19
0.205
0.18
0.16
0.19
0.18
0.165
0.17
0.19
0.18
0.17
0.165
0.175
0.19
0.185
0.165
0.17
0.17
0.16
0.185
0.18
0.19
0.17
0.165
0.17
0.165
0.16
0.18
0.175
0.15
0.17
0.17
0.15
0.16
0.17
0.14
0.135
0.155
0.185
0.165
0.16
0.175
0.17
0.17
0.145
0.16
0.145
0.14
0.16
0.155
0.145
0.155
0.175
0.165
0.155
0.14
0.15
0.145
0.14
0.15
0.145
0.155
0.175
0.165
0.18
0.145
0.115
0.13
0.14
0.16
0.16
0.155
0.14
0.145
0.13
0.135
0.165
0.16
0.12
0.16
0.13
0.16
0.145
0.15
0.155
0.15
0.145
0.13
0.13
0.135
0.15
0.145
0.16
0.145
0.135
0.135
0.16
0.14
0.14
0.14
0.16
0.14
0.175
0.155
0.155
0.155
0.145
0.13
0.16
0.135
0.145
0.16
0.15
0.15
0.17
0.125
0.12
0.135
0.155
0.145
0.145
0.135
0.14
0.14
0.145
0.135
0.14
0.135
0.12
0.12
0.145
0.145
0.135
0.15
0.14
0.14
0.145
0.155
0.17
0.165
0.15
0.135
0.15
0.185
0.16
0.145
0.145
0.14
0.115
0.145
0.16
0.13
0.14
0.14
0.12
0.155
0.13
0.165
0.17
0.165
0.18
0.17
0.155
0.18
0.17
0.19
0.17
0.19
0.18
0.195
0.21
0.2
0.18
0.225
0.235
0.245
0.25
0.27
0.235
0.235
0.275
0.27
0.26
0.255
0.24
0.24
0.225
0.26
0.24
0.23
0.205
0.21
0.205
0.215
0.215
0.175
0.195
0.19
0.18
0.18
0.15
0.135
0.13
0.13
0.16
0.135
0.15
0.135
0.155
0.155
0.145
0.125
0.135
0.12
0.13
0.135
0.14
0.115
0.12
0.125
0.13
0.145
0.135
0.135
0.125
0.12
0.155
0.14
0.145
0.17
0.215
0.23
0.335
0.41
0.485
0.625
0.725
0.815
0.9
0.98
0.995
1.02
0.995
0.945
0.88
0.765
0.56
0.4
0.265
0.205
0.12
-0.055
-0.165
-0.13
-0.1
-0.05
0.015
0.06
0.1
0.12
0.105
0.105
0.12
0.125
0.145
0.16
0.16
0.155
0.135
0.145
0.17
0.165
0.165
0.155
0.12
0.14
0.14
0.145
0.165
0.18
0.165
0.16
0.165
0.16
0.16
0.16
0.18
0.17
0.155
0.17
0.19
0.175
0.19
0.195
0.19
0.185
0.19
0.18
0.19
0.195
0.235
0.2
0.215
0.215
0.225
0.22
0.24
0.225
0.21
0.235
0.22
0.235
0.235
0.255
0.26
0.245
0.24
0.25
0.29
0.265
0.285
0.28
0.295
0.28
0.285
0.285
0.305
0.3
0.31
0.32
0.355
0.335
0.33
0.345
0.37
0.385
0.395
0.41
0.405
0.43
0.425
0.45
0.48
0.475
0.45
0.475
0.515
0.53
0.525
0.535
0.55
0.53
0.555
0.555
0.555
0.6
0.615
0.595
0.595
0.6
0.595
0.6
0.6
0.575
0.585
0.595
0.58
0.6
0.565
0.575
0.565
0.535
0.51
0.495
0.475
0.465
0.46
0.465
0.41
0.4
0.375
0.35
0.33
0.33
0.31
0.285
0.28
0.295
0.29
0.255
0.24
0.225
0.215
0.2
0.19
0.205
0.2
0.17
0.185
0.165
0.175
0.19
0.17
0.145
0.145
0.16
0.18
0.165
0.155
0.135
0.16
0.18
0.155
0.135
0.12
0.16
0.16
0.14
0.125
0.135
0.13
0.15
0.14
0.11
0.125
0.14
0.145
0.15
0.165
0.145
0.145
0.155
0.155
0.145
0.13
0.125
0.13
0.16
0.145
0.135
0.12
0.185
0.18
0.145
0.15
0.145
0.11
0.16
0.18
0.155
0.125
0.16
0.155
0.115
0.15
0.155
0.165
0.14
0.115
0.145
0.155
0.165
0.17
0.14
0.135
0.17
0.17
0.15
0.145
0.16
0.12
0.145
0.155
0.15
0.155
0.165
0.15
0.15
0.155
0.145
0.135
0.14
0.13
0.125
0.14
0.145
0.155
0.15
0.14
0.14
0.135
0.14
0.14
0.125
0.11
0.14
0.15
0.11
0.105
0.15
0.145
0.125
0.1
0.12
0.13
0.155
0.135
0.14
0.135
0.13
0.125
0.13
0.125
0.14
0.125
0.125
0.095
0.13
0.135
0.115
0.09
0.115
0.125
0.11
0.1
0.105
0.12
0.155
0.13
0.095
0.105
0.125
0.13
0.1
0.11
0.11
0.09
0.115
0.105
0.105
0.075
0.105
0.105
0.14
0.115
0.11
0.09
0.105
0.11
0.13
0.11
0.1
0.075
0.095
0.125
0.105
0.1
0.11
0.1
0.115
0.115
0.1
0.1
0.1
0.11
0.12
0.115
0.115
0.105
0.11
0.115
0.11
0.095
0.1
0.085
0.1
0.105
0.095
0.11
0.1
0.11
0.085
0.1
0.1
0.105
0.12
0.1
0.105
0.105
0.1
0.085
0.085
0.1
0.12
0.09
0.1
0.115
0.11
0.1
0.11
0.09
0.105
0.125
0.115
0.1
0.09
0.115
0.085
0.12
0.1
0.095
0.11
0.085
0.095
0.095
0.11
0.115
0.125
0.14
0.105
0.125
0.14
0.115
0.155
0.16
0.135
0.135
0.145
0.145
0.14
0.12
0.165
0.16
0.16
0.155
0.15
0.205
0.225
0.205
0.205
0.215
0.225
0.195
0.2
0.19
0.195
0.185
0.19
0.165
0.2
0.185
0.155
0.19
0.215
0.2
0.185
0.17
0.155
0.145
0.15
0.135
0.135
0.125
0.13
0.09
0.12
0.1
0.115
0.105
0.095
0.09
0.085
0.075
0.09
0.11
0.1
0.11
0.115
0.065
0.06
0.075
0.06
0.075
0.075
0.095
0.115
0.105
0.09
0.1
0.08
0.075
0.09
0.11
0.09
0.105
0.115
0.175
0.2
0.275
0.375
0.435
0.5
0.62
0.73
0.845
0.905
0.96
1.01
0.97
0.86
0.805
0.725
0.515
0.375
0.255
0.125
0.02
-0.115
-0.19
-0.19
-0.17
-0.12
-0.07
-0.005
0.01
0.06
0.09
0.075
0.105
0.12
0.125
0.1
0.115
0.125
0.12
0.115
0.115
0.105
0.095
0.14
0.135
0.115
0.105
0.1
0.105
0.13
0.145
0.135
0.135
0.155
0.155
0.135
0.12
0.155
0.16
0.145
0.15
0.15
0.145
0.16
0.16
0.165
0.17
0.18
0.165
0.155
0.17
0.15
0.175
0.195
0.205
0.19
0.19
0.2
0.195
0.2
0.225
0.215
0.21
0.2
0.2
0.21
0.225
0.22
0.22
0.245
0.25
0.265
0.27
0.27
0.265
0.255
0.295
0.295
0.31
0.31
0.31
0.315
0.32
0.335
0.335
0.335
0.385
0.38
0.405
0.42
0.4
0.405
0.465
0.465
0.45
0.44
0.47
0.49
0.505
0.52
0.515
0.525
0.545
0.54
0.555
0.55
0.57
0.57
0.565
0.595
0.595
0.58
0.565
0.595
0.58
0.56
0.555
0.57
0.56
0.55
0.54
0.515
0.5
0.495
0.445
0.435
0.43
0.445
0.41
0.395
0.365
0.325
0.315
0.29
0.28
0.265
0.265
0.255
0.25
0.225
0.235
0.23
0.19
0.185
0.175
0.16
0.15
0.16
0.15
0.155
0.14
0.14
0.175
0.165
0.13
0.12
0.11
0.12
0.145
0.115
0.135
0.105
0.11
0.135
0.12
0.12
0.11
0.115
0.12
0.12
0.115
0.11
0.115
0.13
0.125
0.11
0.125
0.12
0.12
0.115
0.13
0.13
0.115
0.125
0.135
0.115
0.105
0.11
0.11
0.11
0.125
0.115
0.14
0.15
0.105
0.12
0.13
0.145
0.145
0.165
0.12
0.115
0.13
0.13
0.135
0.14
0.13
0.11
0.12
0.115
0.13
0.14
0.14
0.15
0.13
0.135
0.125
0.135
0.135
0.15
0.12
0.135
0.145
0.125
0.14
0.1
0.125
0.125
0.145
0.145
0.11
0.135
0.1
0.125
0.13
0.115
0.125
0.145
0.11
0.1
0.115
0.115
0.09
0.1
0.14
0.13
0.105
0.095
0.125
0.125
0.12
0.105
0.11
0.095
0.115
0.125
0.1
0.11
0.115
0.115
0.115
0.105
0.11
0.11
0.09
0.08
0.08
0.14
0.14
0.105
0.085
0.095
0.105
0.1
0.12
0.09
0.11
0.09
0.1
0.11
0.095
0.1
0.115
0.075
0.08
0.08
0.08
0.1
0.1
0.095
0.095
0.085
0.1
0.095
0.095
0.105
0.1
0.12
0.11
0.1
0.09
0.105
0.115
0.085
0.08
0.09
0.095
0.1
0.1
0.09
0.125
0.11
0.105
0.085
0.11
0.115
0.115
0.085
0.085
0.075
0.09
0.095
0.12
0.065
0.095
0.095
0.09
0.12
0.115
0.095
0.1
0.075
0.07
0.09
0.095
0.105
0.09
0.085
0.105
0.11
0.11
0.115
0.105
0.09
0.12
0.105
0.085
0.105
0.13
0.135
0.13
0.125
0.135
0.105
0.14
0.13
0.14
0.155
0.15
0.155
0.15
0.125
0.15
0.18
0.195
0.215
0.215
0.23
0.225
0.205
0.185
0.21
0.195
0.155
0.185
0.205
0.2
0.215
0.195
0.165
0.17
0.18
0.16
0.18
0.17
0.185
0.145
0.17
0.16
0.12
0.145
0.12
0.1
0.11
0.085
0.105
0.09
0.11
0.11
0.105
0.09
0.075
0.09
0.07
0.065
0.07
0.07
0.095
0.105
0.095
0.07
0.08
0.08
0.08
0.055
0.075
0.1
0.095
0.085
0.085
0.085
0.115
0.125
0.125
0.16
0.205
0.29
0.375
0.445
0.525
0.63
0.73
0.825
0.915
0.955
0.975
0.945
0.885
0.825
0.715
0.52
0.365
0.225
0.1
0.04
-0.085
-0.185
-0.21
-0.17
-0.1
-0.06
0.015
0.05
0.05
0.08
0.085
0.07
0.125
0.125
0.085
0.115
0.14
0.125
0.12
0.105
0.115
0.115
0.11
0.105
0.095
0.135
0.13
0.125
0.115
0.115
0.135
0.14
0.11
0.145
0.135
0.135
0.12
0.12
0.145
0.135
0.15
0.145
0.185
0.17
0.155
0.16
0.165
0.165
0.145
0.155
0.165
0.16
0.21
0.2
0.19
0.2
0.195
0.19
0.21
0.195
0.18
0.185
0.235
0.23
0.2
0.195
0.22
0.225
0.25
0.225
0.245
0.275
0.255
0.26
0.275
0.3
0.28
0.285
0.295
0.305
0.31
0.345
0.335
0.335
0.33
0.345
0.365
0.405
0.405
0.405
0.415
0.435
0.44
0.445
0.44
0.49
0.5
0.495
0.515
0.525
0.515
0.53
0.555
0.55
0.545
0.555
0.56
0.55
0.565
0.59
0.58
0.565
0.575
0.575
0.57
0.555
0.53
0.525
0.53
0.51
0.49
0.5
0.465
0.46
0.435
0.41
0.39
0.4
0.38
0.355
0.33
0.32
0.295
0.305
0.28
0.25
0.23
0.205
0.195
0.21
0.205
0.21
0.205
0.19
0.175
0.145
0.15
0.165
0.14
0.13
0.13
0.15
0.16
0.16
0.13
0.11
0.12
0.135
0.145
0.115
0.1
0.11
0.11
0.11
0.12
0.14
0.11
0.115
0.115
0.115
0.12
0.11
0.115
0.085
0.11
0.13
0.095
0.08
0.12
0.13
0.125
0.12
0.1
0.085
0.125
0.115
0.14
0.13
0.135
0.145
0.14
0.145
0.13
0.115
0.13
0.12
0.125
0.115
0.125
0.14
0.125
0.14
0.12
0.135
0.135
0.135
0.135
0.115
0.12
0.13
0.13
0.135
0.13
0.135
0.125
0.13
0.125
0.135
0.12
0.12
0.135
0.135
0.12
0.11
0.15
0.13
0.115
0.12
0.11
0.105
0.13
0.13
0.11
0.13
0.13
0.115
0.11
0.12
0.155
0.125
0.115
0.12
0.115
0.105
0.095
0.105
0.125
0.11
0.115
0.11
0.11
0.105
0.11
0.12
0.105
0.09
0.09
0.09
0.09
0.11
0.115
0.11
0.115
0.105
0.085
0.09
0.095
0.085
0.11
0.1
0.105
0.1
0.09
0.095
0.09
0.085
0.105
0.11
0.085
0.095
0.105
0.095
0.095
0.1
0.1
0.095
0.065
0.08
0.095
0.11
0.105
0.085
0.075
0.08
0.095
0.09
0.11
0.1
0.08
0.085
0.1
0.11
0.085
0.045
0.06
0.055
0.065
0.095
0.09
0.095
0.085
0.08
0.09
0.075
0.085
0.09
0.085
0.095
0.065
0.095
0.095
0.055
0.085
0.11
0.085
0.075
0.075
0.1
0.105
0.07
0.085
0.085
0.075
0.08
0.09
0.05
0.08
0.08
0.105
0.09
0.09
0.105
0.095
0.115
0.1
0.115
0.135
0.145
0.115
0.11
0.13
0.125
0.095
0.135
0.12
0.13
0.135
0.15
0.175
0.175
0.195
0.21
0.21
0.21
0.195
0.17
0.17
0.17
0.18
0.185
0.18
0.16
0.13
0.195
0.16
0.165
0.145
0.15
0.16
0.15
0.125
0.15
0.135
0.135
0.115
0.095
0.08
0.11
0.105
0.095
0.08
0.05
0.065
0.07
0.07
0.06
0.055
0.07
0.09
0.08
0.075
0.05
0.08
0.065
0.055
0.075
0.055
0.065
0.07
0.1
0.07
0.06
0.06
0.085
0.085
0.09
0.1
0.155
0.19
0.275
0.355
0.44
0.54
0.61
0.745
0.845
0.88
0.95
0.98
0.94
0.875
0.79
0.69
0.5
0.325
0.21
0.11
0.03
-0.14
-0.23
-0.195
-0.155
-0.1
-0.075
-0.02
0.035
0.04
0.04
0.08
0.11
0.1
0.08
0.1
0.12
0.1
0.09
0.1
0.075
0.065
0.09
0.1
0.095
0.09
0.125
0.11
0.115
0.125
0.095
0.09
0.11
0.12
0.11
0.115
0.12
0.125
0.105
0.145
0.12
0.135
0.135
0.145
0.13
0.125
0.175
0.155
0.175
0.16
0.15
0.14
0.17
0.145
0.18
0.185
0.18
0.16
0.19
0.18
0.18
0.175
0.205
0.19
0.225
0.225
0.225
0.215
0.21
0.22
0.22
0.225
0.25
0.25
0.26
0.265
0.255
0.265
0.285
0.3
0.315
0.295
0.31
0.305
0.29
0.34
0.355
0.36
0.38
0.385
0.385
0.405
0.435
0.435
0.42
0.42
0.44
0.495
0.49
0.505
0.495
0.53
0.535
0.5
0.53
0.54
0.515
0.55
0.56
0.57
0.56
0.57
0.555
0.56
0.555
0.53
0.52
0.505
0.54
0.53
0.49
0.49
0.49
0.475
0.445
0.4
0.395
0.38
0.37
0.345
0.3
0.335
0.32
0.29
0.27
0.245
0.215
0.21
0.2
0.225
0.215
0.195
0.18
0.165
0.165
0.195
0.135
0.15
0.15
0.125
0.13
0.14
0.13
0.115
0.12
0.12
0.125
0.12
0.08
0.1
0.115
0.13
0.115
0.085
0.1
0.085
0.11
0.095
0.1
0.1
0.115
0.115
0.12
0.115
0.12
0.105
0.11
0.11
0.11
0.08
0.115
0.105
0.11
0.115
0.12
0.11
0.11
0.115
0.125
0.11
0.11
0.115
0.12
0.135
0.135
0.11
0.125
0.125
0.11
0.095
0.13
0.125
0.13
0.135
0.14
0.1
0.12
0.12
0.13
0.105
0.13
0.11
0.11
0.115
0.135
0.15
0.13
0.12
0.125
0.115
0.115
0.135
0.14
0.13
0.12
0.115
0.125
0.12
0.13
0.115
0.12
0.115
0.1
0.105
0.115
0.095
0.105
0.1
0.12
0.125
0.145
0.105
0.11
0.105
0.095
0.08
0.11
0.105
0.095
0.1
0.13
0.105
0.105
0.105
0.08
0.075
0.1
0.125
0.08
0.08
0.105
0.12
0.12
0.115
0.11
0.08
0.095
0.115
0.09
0.1
0.11
0.11
0.09
0.09
0.085
0.085
0.075
0.09
0.11
0.08
0.105
0.105
0.075
0.065
0.095
0.075
0.095
0.09
0.1
0.11
0.1
0.07
0.07
0.09
0.08
0.07
0.075
0.085
0.075
0.095
0.095
0.065
0.09
0.09
0.09
0.085
0.09
0.11
0.07
0.085
0.1
0.09
0.075
0.09
0.075
0.085
0.085
0.11
0.085
0.075
0.06
0.095
0.1
0.075
0.1
0.1
0.095
0.115
0.09
0.075
0.1
0.075
0.07
0.08
0.065
0.105
0.1
0.095
0.09
0.11
0.1
0.09
0.135
0.17
0.145
0.145
0.14
0.12
0.105
0.135
0.15
0.145
0.145
0.175
0.175
0.18
0.21
0.195
0.175
0.175
0.19
0.205
0.185
0.17
0.19
0.185
0.205
0.165
0.185
0.185
0.17
0.155
0.155
0.15
0.15
0.135
0.13
0.12
0.125
0.115
0.115
0.09
0.075
0.075
0.1
0.08
0.09
0.08
0.065
0.11
0.105
0.07
0.075
0.09
0.06
0.07
0.08
0.105
0.1
0.095
0.08
0.07
0.065
0.08
0.095
0.07
0.09
0.11
0.11
0.125
0.16
0.18
0.27
0.36
0.445
0.515
0.615
0.72
0.85
0.91
0.945
0.985
0.955
0.88
0.82
0.71
0.53
0.35
0.215
0.1
0.03
-0.11
-0.215
-0.195
-0.195
-0.13
-0.065
-0.02
0.005
0.065
0.06
0.065
0.09
0.095
0.11
0.11
0.09
0.1
0.1
0.11
0.135
0.11
0.08
0.1
0.095
0.105
0.11
0.1
0.12
0.12
0.12
0.105
0.11
0.115
0.115
0.13
0.115
0.12
0.13
0.125
0.13
0.125
0.145
0.135
0.125
0.155
0.155
0.14
0.165
0.18
0.14
0.15
0.165
0.165
0.155
0.17
0.185
0.185
0.19
0.195
0.155
0.18
0.19
0.2
0.2
0.225
0.23
0.21
0.23
0.23
0.235
0.215
0.25
0.225
0.24
0.275
0.285
0.255
0.29
0.295
0.3
0.3
0.305
0.305
0.33
0.34
0.355
0.36
0.355
0.385
0.4
0.4
0.415
0.42
0.425
0.44
0.45
0.475
0.49
0.475
0.5
0.51
0.525
0.515
0.525
0.53
0.57
0.565
0.565
0.57
0.54
0.52
0.53
0.54
0.545
0.555
0.545
0.515
0.525
0.51
0.5
0.49
0.475
0.435
0.42
0.41
0.385
0.4
0.37
0.335
0.3
0.3
0.32
0.27
0.25
0.24
0.235
0.23
0.225
0.195
0.195
0.185
0.16
0.15
0.185
0.13
0.14
0.15
0.135
0.135
0.145
0.135
0.115
0.105
0.11
0.12
0.1
0.11
0.105
0.1
0.1
0.095
0.095
0.08
0.08
0.115
0.095
0.1
0.105
0.11
0.07
0.09
0.08
0.085
0.115
0.1
0.095
0.1
0.11
0.1
0.105
0.12
0.125
0.095
0.085
0.1
0.08
0.115
0.11
0.11
0.08
0.08
0.12
0.105
0.12
0.115
0.095
0.1
0.12
0.115
0.08
0.085
0.095
0.12
0.12
0.11
0.105
0.105
0.125
0.105
0.11
0.1
0.095
0.11
0.11
0.09
0.1
0.1
0.11
0.095
0.1
0.11
0.095
0.085
0.105
0.105
0.11
0.12
0.11
0.09
0.065
0.105
0.125
0.095
0.095
0.12
0.095
0.09
0.1
0.085
0.085
0.11
0.085
0.09
0.06
0.085
0.1
0.1
0.09
0.07
0.075
0.07
0.08
0.075
0.08
0.095
0.075
0.095
0.095
0.085
0.09
0.07
0.07
0.09
0.075
0.09
0.085
0.085
0.075
0.085
0.045
0.05
0.055
0.065
0.08
0.085
0.08
0.105
0.085
0.075
0.07
0.085
0.04
0.075
0.05
0.045
0.075
0.1
0.08
0.065
0.1
0.09
0.08
0.075
0.075
0.065
0.06
0.075
0.065
0.065
0.035
0.075
0.08
0.07
0.095
0.055
0.07
0.06
0.07
0.06
0.055
0.065
0.06
0.08
0.07
0.045
0.065
0.09
0.085
0.08
0.075
0.075
0.065
0.065
0.08
0.075
0.055
0.06
0.06
0.06
0.06
0.095
0.1
0.09
0.085
0.105
0.095
0.09
0.09
0.115
0.125
0.11
0.115
0.105
0.105
0.11
0.115
0.13
0.135
0.145
0.17
0.165
0.16
0.18
0.2
0.175
0.165
0.15
0.19
0.16
0.175
0.18
0.16
0.155
0.155
0.175
0.17
0.14
0.13
0.13
0.15
0.135
0.12
0.125
0.1
0.1
0.105
0.095
0.075
0.055
0.055
0.055
0.05
0.085
0.065
0.06
0.065
0.075
0.075
0.05
0.065
0.055
0.035
0.055
0.07
0.065
0.07
0.065
0.065
0.055
0.035
0.045
0.07
0.085
0.08
0.115
0.135
0.185
0.24
0.325
0.41
0.47
0.6
0.685
0.785
0.875
0.915
0.96
0.945
0.875
0.825
0.745
0.57
0.37
0.25
0.125
0.05
-0.075
-0.225
-0.22
-0.195
-0.18
-0.12
-0.05
-0.005
0.045
0.055
0.045
0.06
0.1
0.105
0.1
0.085
0.09
0.105
0.06
0.1
0.07
0.075
0.09
0.1
0.1
0.1
0.11
0.1
0.105
0.12
0.09
0.1
0.13
0.12
0.135
0.115
0.135
0.125
0.105
0.11
0.12
0.12
0.135
0.14
0.12
0.14
0.145
0.15
0.16
0.155
0.16
0.155
0.155
0.175
0.18
0.18
0.15
0.155
0.17
0.185
0.17
0.185
0.21
0.235
0.2
0.185
0.235
0.22
0.225
0.215
0.235
0.235
0.24
0.27
0.265
0.26
0.29
0.275
0.27
0.3
0.305
0.32
0.34
0.33
0.33
0.355
0.38
0.37
0.385
0.39
0.405
0.42
0.435
0.43
0.425
0.46
0.475
0.47
0.455
0.52
0.5
0.53
0.535
0.54
0.545
0.56
0.525
0.565
0.57
0.565
0.575
0.55
0.555
0.565
0.555
0.53
0.515
0.515
0.52
0.535
0.52
0.465
0.465
0.435
0.42
0.41
0.395
0.355
0.355
0.35
0.32
0.295
0.295
0.26
0.245
0.26
0.235
0.22
0.21
0.19
0.2
0.185
0.175
0.16
0.14
0.17
0.15
0.135
0.135
0.15
0.13
0.115
0.105
0.095
0.09
0.115
0.095
0.115
0.135
0.12
0.115
0.115
0.09
0.1
0.11
0.095
0.09
0.1
0.1
0.065
0.125
0.105
0.115
0.11
0.11
0.115
0.11
0.11
0.12
0.09
0.09
0.095
0.105
0.115
0.12
0.11
0.095
0.125
0.11
0.085
0.07
0.115
0.11
0.135
0.095
0.11
0.125
0.12
0.115
0.09
0.11
0.115
0.115
0.09
0.105
0.125
0.135
0.12
0.12
0.115
0.09
0.075
0.105
0.105
0.095
0.1
0.11
0.12
0.125
0.105
0.115
0.11
0.09
0.075
0.085
0.11
0.115
0.115
0.115
0.08
0.08
0.07
0.095
0.105
0.095
0.08
0.1
0.07
0.11
0.08
0.07
0.1
0.1
0.105
0.095
0.075
0.065
0.09
0.085
0.095
0.085
0.085
0.06
0.075
0.075
0.07
0.06
0.095
0.1
0.07
0.06
0.075
0.09
0.065
0.04
0.065
0.065
0.08
0.05
0.05
0.085
0.065
0.045
0.045
0.07
0.06
0.065
0.06
0.08
0.055
0.065
0.06
0.075
0.06
0.055
0.05
0.05
0.055
0.08
0.065
0.06
0.05
0.065
0.06
0.1
0.065
0.06
0.075
0.055
0.035
0.05
0.06
0.05
0.045
0.065
0.055
0.045
0.06
0.07
0.045
0.06
0.07
0.055
0.05
0.08
0.045
0.05
0.05
0.07
0.06
0.055
0.07
0.04
0.055
0.07
0.05
0.055
0.085
0.07
0.03
0.06
0.03
0.045
0.055
0.08
0.06
0.065
0.07
0.085
0.085
0.08
0.1
0.1
0.12
0.125
0.09
0.11
0.125
0.11
0.08
0.12
0.11
0.125
0.15
0.17
0.175
0.185
0.175
0.17
0.15
0.15
0.155
0.145
0.15
0.14
0.165
0.15
0.155
0.14
0.135
0.13
0.12
0.13
0.14
0.135
0.115
0.105
0.095
0.095
0.07
0.07
0.065
0.055
0.045
0.055
0.055
0.07
0.055
0.045
0.05
0.06
0.035
0.035
0.085
0.08
0.025
0.045
0.06
0.04
0.005
0.04
0.025
0.06
0.035
0.09
0.055
0.05
0.085
0.09
0.07
0.11
0.15
0.25
0.345
0.43
0.5
0.6
0.695
0.805
0.89
0.93
0.95
0.92
0.855
0.79
0.675
0.485
0.32
0.185
0.055
-0.01
-0.155
-0.245
-0.245
-0.2
-0.16
-0.105
-0.045
-0.025
0.015
0.045
0.045
0.055
0.065
0.06
0.055
0.09
0.095
0.06
0.065
0.055
0.08
0.055
0.09
0.065
0.075
0.085
0.09
0.08
0.09
0.09
0.08
0.085
0.09
0.1
0.095
0.095
0.08
0.07
0.095
0.13
0.13
0.115
0.145
0.11
0.095
0.145
0.13
0.11
0.13
0.125
0.13
0.13
0.145
0.15
0.135
0.15
0.15
0.145
0.165
0.15
0.155
0.18
0.18
0.19
0.195
0.19
0.18
0.19
0.21
0.215
0.225
0.215
0.215
0.23
0.25
0.25
0.26
0.255
0.25
0.255
0.275
0.29
0.315
0.29
0.315
0.325
0.335
0.35
0.355
0.36
0.39
0.415
0.42
0.395
0.425
0.425
0.445
0.445
0.465
0.47
0.48
0.48
0.51
0.535
0.525
0.54
0.54
0.52
0.54
0.53
0.545
0.535
0.545
0.53
0.525
0.515
0.515
0.485
0.475
0.46
0.51
0.46
0.44
0.42
0.405
0.38
0.375
0.35
0.345
0.3
0.28
0.26
0.24
0.245
0.25
0.225
0.23
0.205
0.185
0.18
0.165
0.145
0.15
0.135
0.13
0.13
0.125
0.115
0.115
0.115
0.125
0.09
0.095
0.11
0.085
0.09
0.095
0.06
0.08
0.09
0.09
0.085
0.07
0.08
0.115
0.095
0.115
0.09
0.075
0.055
0.09
0.085
0.09
0.085
0.06
0.11
0.085
0.08
0.075
0.085
0.095
0.09
0.075
0.09
0.1
0.08
0.085
0.105
0.085
0.06
0.07
0.095
0.095
0.11
0.085
0.095
0.075
0.1
0.095
0.08
0.09
0.1
0.095
0.095
0.09
0.08
0.08
0.085
0.105
0.11
0.095
0.085
0.09
0.08
0.09
0.12
0.09
0.055
0.08
0.075
0.09
0.095
0.075
0.09
0.08
0.07
0.065
0.08
0.115
0.075
0.095
0.09
0.09
0.085
0.085
0.075
0.075
0.06
0.055
0.05
0.065
0.07
0.055
0.085
0.08
0.06
0.09
0.05
0.045
0.065
0.07
0.07
0.05
0.065
0.05
0.07
0.07
0.08
0.07
0.04
0.045
0.08
0.065
0.07
0.06
0.065
0.06
0.06
0.07
0.065
0.075
0.04
0.045
0.065
0.065
0.075
0.015
0.05
0.055
0.065
0.045
0.04
0.035
0.05
0.055
0.07
0.04
0.07
0.035
0.02
0.035
0.065
0.06
0.055
0.05
0.045
0.045
0.045
0.035
0.05
0.045
0.03
0.06
0.075
0.07
0.035
0.065
0.055
0.03
0.045
0.05
0.045
0.03
0.055
0.055
0.07
0.045
0.02
0.055
0.075
0.055
0.05
0.055
0.05
0.035
0.045
0.06
0.06
0.04
0.045
0.05
0.045
0.045
0.065
0.08
0.06
0.08
0.085
0.085
0.08
0.12
0.105
0.065
0.09
0.09
0.085
0.085
0.105
0.11
0.15
0.15
0.15
0.165
0.19
0.175
0.115
0.13
0.125
0.12
0.115
0.145
0.135
0.155
0.135
0.14
0.14
0.125
0.15
0.145
0.1
0.1
0.1
0.12
0.11
0.1
0.07
0.045
0.04
0.06
0.07
0.06
0.03
0.04
0.06
0.045
0.055
0.05
0.05
0.045
0.035
0.055
0.065
0.055
0.065
0.035
0.035
0.025
0.005
0.045
0.06
0.055
0.065
0.08
0.075
0.065
0.06
0.105
0.135
0.21
0.3
0.405
0.475
0.575
0.64
0.755
0.86
0.93
0.965
0.97
0.875
0.835
0.765
0.6
0.4
0.29
0.14
0.015
-0.105
-0.25
-0.25
-0.205
-0.185
-0.135
-0.06
-0.01
0.02
0.02
0.025
0.07
0.065
0.06
0.07
0.095
0.085
0.08
0.07
0.075
0.09
0.075
0.09
0.07
0.08
0.08
0.09
0.07
0.085
0.095
0.085
0.08
0.09
0.095
0.1
0.115
0.105
0.085
0.12
0.1
0.105
0.1
0.135
0.115
0.105
0.12
0.125
0.13
0.145
0.15
0.135
0.16
0.165
0.14
0.155
0.14
0.15
0.155
0.17
0.175
0.17
0.19
0.18
0.18
0.19
0.21
0.18
0.19
0.195
0.18
0.225
0.23
0.25
0.255
0.24
0.235
0.245
0.26
0.255
0.285
0.285
0.3
0.32
0.33
0.325
0.34
0.325
0.345
0.375
0.375
0.375
0.38
0.41
0.425
0.455
0.455
0.465
0.475
0.475
0.495
0.485
0.515
0.53
0.51
0.53
0.52
0.54
0.54
0.52
0.55
0.555
0.555
0.555
0.53
0.555
0.56
0.5
0.475
0.49
0.495
0.49
0.465
0.46
0.43
0.42
0.385
0.37
0.355
0.35
0.315
0.3
0.3
0.29
0.265
0.25
0.24
0.2
0.19
0.18
0.175
0.16
0.165
0.15
0.13
0.15
0.125
0.115
0.125
0.12
0.1
