# TIPE ECG 2021 - ECG-ID Database v1.0.0 par Physionet
# [Numéro de la personne, Période d'échantillonnage, Prénom, Age, Sexe, Date de l'enregistrement]
[74, 0.002, Dustin, 36, H, 12.05.2005]
-0.82
-0.85
-0.795
-0.79
-0.875
-0.845
-0.83
-0.85
-0.895
-0.91
-0.79
-0.845
-0.825
-0.745
-0.63
-0.81
-0.79
-0.905
-0.805
-0.795
-0.89
-0.875
-0.84
-0.985
-0.81
-0.765
-0.79
-0.85
-0.745
-0.795
-0.96
-0.77
-0.645
-0.765
-0.855
-0.82
-0.785
-0.84
-0.79
-0.77
-0.67
-0.84
-0.825
-0.81
-0.915
-0.81
-0.765
-0.8
-0.88
-0.885
-0.79
-0.885
-0.945
-0.745
-0.785
-0.82
-0.83
-0.83
-0.81
-0.78
-0.765
-0.94
-0.85
-0.63
-0.785
-0.93
-0.86
-0.79
-0.795
-0.745
-0.79
-0.8
-0.715
-0.725
-0.815
-0.85
-0.67
-0.71
-0.805
-0.93
-0.79
-0.735
-0.865
-0.825
-0.795
-0.82
-0.93
-0.935
-0.825
-0.805
-0.85
-0.84
-0.81
-0.8
-0.845
-0.845
-0.865
-0.805
-0.825
-0.86
-0.74
-0.695
-0.77
-0.825
-0.805
-0.875
-0.88
-0.92
-0.91
-0.815
-0.815
-0.88
-0.88
-0.93
-0.745
-0.81
-0.82
-0.78
-0.775
-0.66
-0.775
-0.76
-0.78
-0.785
-0.795
-0.84
-0.84
-0.835
-0.82
-0.865
-0.89
-0.905
-0.895
-0.935
-0.895
-0.875
-0.905
-0.765
-0.695
-0.84
-0.825
-0.84
-0.85
-0.84
-0.87
-0.78
-0.81
-0.89
-0.855
-0.79
-0.845
-0.9
-0.93
-0.96
-0.94
-0.775
-0.78
-0.74
-0.815
-0.855
-0.8
-0.775
-0.85
-0.825
-0.845
-0.855
-0.815
-0.795
-0.74
-0.835
-0.815
-0.835
-0.85
-0.82
-0.89
-0.87
-0.785
-0.84
-0.865
-0.835
-0.88
-0.94
-0.835
-0.84
-0.885
-0.97
-0.93
-0.96
-0.955
-0.84
-0.725
-0.72
-0.71
-0.815
-0.825
-0.94
-0.82
-0.775
-0.705
-0.845
-0.78
-0.795
-0.875
-0.865
-0.885
-0.86
-0.785
-0.865
-0.86
-0.955
-0.79
-0.815
-0.82
-0.835
-0.655
-0.77
-0.94
-0.89
-0.93
-0.825
-0.86
-0.935
-0.955
-0.855
-0.78
-0.81
-0.955
-0.92
-0.955
-0.96
-0.71
-0.775
-0.76
-0.91
-0.935
-1.02
-0.795
-0.805
-0.755
-0.715
-0.795
-0.81
-0.815
-0.84
-0.915
-0.805
-0.795
-0.875
-0.8
-0.715
-0.775
-0.875
-0.945
-0.87
-0.8
-0.74
-0.75
-0.85
-0.855
-0.875
-0.955
-0.86
-0.81
-0.795
-0.865
-0.875
-0.865
-0.935
-0.985
-0.895
-0.85
-0.895
-0.85
-0.745
-0.895
-0.945
-0.95
-0.81
-0.825
-0.91
-0.765
-0.96
-0.88
-0.805
-0.79
-0.825
-0.855
-0.785
-0.77
-0.815
-0.81
-0.9
-0.825
-0.85
-0.855
-0.765
-0.785
-0.85
-0.88
-0.81
-0.805
-0.77
-0.83
-0.845
-0.82
-0.87
-0.71
-0.66
-0.765
-0.89
-0.875
-0.84
-0.84
-0.83
-0.8
-0.755
-0.735
-0.675
-0.855
-0.83
-0.865
-0.93
-0.86
-0.965
-0.89
-0.875
-0.91
-0.83
-0.825
-0.855
-0.895
-0.83
-0.925
-0.85
-0.725
-0.77
-0.745
-0.67
-0.785
-0.87
-0.855
-0.885
-0.81
-0.775
-0.83
-0.83
-0.875
-0.925
-0.92
-0.885
-0.995
-1.02
-1.005
-0.875
-0.91
-0.895
-0.765
-0.715
-0.74
-0.71
-0.695
-0.74
-0.9
-1.0
-1.0
-0.845
-0.765
-0.785
-0.86
-0.71
-0.49
-0.4
-0.395
-0.2
0.0
-0.105
-0.13
-0.17
-0.13
-0.18
-0.21
-0.4
-0.615
-0.675
-0.785
-0.87
-0.935
-0.895
-0.89
-0.935
-0.94
-0.875
-0.92
-0.905
-0.94
-1.005
-0.945
-0.925
-0.85
-0.915
-1.05
-0.935
-0.865
-0.94
-1.005
-0.91
-0.725
-0.795
-0.965
-0.915
-0.89
-0.78
-0.685
-0.705
-0.735
-0.78
-0.805
-0.905
-0.915
-0.85
-0.865
-0.93
-0.78
-0.745
-0.785
-0.875
-0.91
-0.795
-0.795
-0.78
-0.815
-0.78
-0.855
-0.865
-0.785
-0.825
-0.845
-0.865
-0.895
-0.935
-0.88
-0.89
-0.905
-0.88
-0.91
-0.74
-0.635
-0.6
-0.695
-0.735
-0.82
-0.92
-0.935
-0.865
-0.81
-0.89
-0.75
-0.825
-0.875
-0.775
-0.815
-0.875
-0.91
-0.765
-0.67
-0.765
-0.685
-0.73
-0.67
-0.735
-0.68
-0.765
-0.845
-0.87
-0.795
-0.775
-0.8
-0.725
-0.8
-0.785
-0.73
-0.775
-0.795
-0.735
-0.7
-0.675
-0.645
-0.575
-0.645
-0.78
-0.775
-0.725
-0.7
-0.67
-0.65
-0.58
-0.665
-0.64
-0.605
-0.64
-0.665
-0.63
-0.675
-0.58
-0.57
-0.545
-0.525
-0.445
-0.52
-0.645
-0.645
-0.485
-0.485
-0.465
-0.62
-0.565
-0.57
-0.575
-0.585
-0.535
-0.54
-0.525
-0.6
-0.555
-0.57
-0.735
-0.69
-0.635
-0.575
-0.635
-0.685
-0.67
-0.69
-0.675
-0.715
-0.725
-0.765
-0.765
-0.75
-0.73
-0.76
-0.745
-0.755
-0.695
-0.795
-0.795
-0.83
-0.86
-0.73
-0.895
-0.835
-0.625
-0.735
-0.91
-0.86
-0.82
-0.82
-0.8
-0.86
-0.865
-0.865
-0.855
-0.895
-0.815
-0.77
-0.83
-1.02
-0.835
-0.775
-0.825
-0.8
-0.74
-0.815
-0.855
-0.935
-0.955
-0.79
-0.81
-0.945
-0.905
-0.92
-0.89
-0.675
-0.745
-0.875
-0.925
-0.89
-0.88
-0.815
-0.88
-0.855
-0.78
-0.83
-0.92
-0.9
-0.87
-0.98
-0.855
-0.845
-0.86
-0.845
-0.855
-0.85
-0.855
-0.715
-0.905
-0.865
-0.84
-0.805
-0.795
-0.865
-0.85
-0.785
-0.895
-0.845
-0.855
-0.82
-0.765
-0.78
-0.8
-0.83
-0.915
-0.85
-0.82
-0.835
-0.95
-0.89
-0.835
-0.79
-0.715
-0.86
-0.84
-0.86
-0.835
-0.775
-0.85
-1.0
-0.795
-0.645
-0.74
-0.85
-0.9
-0.895
-0.93
-0.92
-0.845
-0.79
-0.815
-0.83
-0.865
-0.84
-0.835
-0.85
-0.88
-0.82
-0.85
-0.83
-0.82
-0.715
-0.865
-0.885
-0.835
-0.845
-0.84
-0.925
-0.87
-0.87
-0.775
-0.87
-0.92
-0.74
-0.76
-0.81
-0.885
-0.855
-0.9
-0.82
-0.815
-0.925
-0.92
-0.925
-0.91
-0.915
-0.935
-0.86
-0.73
-0.775
-0.875
-0.905
-0.87
-0.805
-0.73
-0.795
-0.895
-0.92
-1.0
-0.98
-0.83
-0.935
-0.955
-0.885
-0.815
-0.835
-0.88
-0.86
-0.81
-0.835
-0.78
-0.86
-0.91
-0.895
-0.8
-0.89
-0.93
-0.855
-0.84
-0.86
-0.885
-0.855
-0.85
-0.93
-0.945
-0.855
-0.825
-0.89
-0.755
-0.73
-0.96
-0.945
-0.935
-0.925
-0.885
-0.92
-0.88
-0.845
-0.925
-0.84
-0.84
-1.095
-0.99
-0.765
-0.81
-0.9
-0.88
-0.88
-0.97
-0.8
-0.785
-0.93
-0.88
-0.9
-0.98
-0.88
-0.805
-0.81
-0.855
-0.905
-0.865
-0.81
-0.84
-0.85
-0.82
-1.01
-0.915
-0.845
-0.865
-0.9
-0.95
-0.755
-0.735
-0.88
-0.975
-0.87
-0.84
-0.83
-0.89
-0.9
-1.01
-1.055
-0.835
-0.88
-0.92
-0.895
-0.885
-0.895
-0.9
-0.915
-0.955
-0.855
-0.845
-0.845
-0.85
-0.805
-0.82
-0.935
-0.845
-0.775
-0.735
-0.755
-0.815
-0.89
-0.925
-0.925
-0.87
-0.8
-0.945
-0.94
-0.91
-0.995
-0.88
-0.91
-0.92
-0.92
-0.95
-0.81
-0.78
-0.92
-0.88
-0.875
-0.91
-0.87
-0.835
-0.92
-0.83
-0.8
-0.89
-0.935
-1.105
-0.935
-0.91
-0.905
-0.925
-0.88
-0.835
-0.81
-0.78
-0.895
-0.845
-0.845
-0.855
-0.8
-0.76
-0.895
-0.95
-0.91
-0.895
-0.74
-0.72
-0.765
-0.785
-0.745
-0.73
-0.765
-0.835
-0.83
-0.885
-0.895
-0.82
-0.835
-0.905
-0.89
-0.835
-0.86
-0.93
-0.93
-0.865
-0.815
-0.85
-0.91
-0.86
-0.845
-0.86
-0.925
-0.89
-0.955
-0.88
-0.85
-0.945
-0.84
-0.825
-0.84
-0.885
-0.93
-0.94
-1.0
-0.94
-0.75
-0.925
-1.095
-0.925
-0.775
-0.71
-0.695
-0.78
-0.93
-0.84
-0.85
-0.895
-0.88
-0.84
-0.86
-0.845
-0.88
-0.865
-0.93
-0.965
-0.8
-0.89
-0.92
-1.035
-0.965
-0.815
-0.785
-0.75
-0.695
-0.725
-0.55
-0.405
-0.315
-0.24
-0.32
-0.295
-0.36
-0.31
-0.26
-0.335
-0.47
-0.65
-0.78
-0.97
-1.04
-1.035
-1.135
-0.96
-0.93
-0.94
-0.905
-1.065
-1.06
-0.92
-0.91
-0.925
-0.96
-0.93
-0.965
-0.975
-1.0
-0.87
-0.865
-0.9
-0.95
-0.95
-0.855
-0.905
-0.89
-0.965
-0.965
-0.85
-0.69
-0.79
-0.99
-0.85
-0.87
-0.905
-1.005
-0.955
-0.825
-0.94
-0.84
-0.77
-0.83
-0.84
-0.77
-0.755
-0.725
-0.77
-0.815
-0.785
-0.545
-0.88
-1.06
-0.945
-0.83
-0.785
-0.74
-0.765
-0.895
-0.805
-0.8
-0.945
-0.91
-0.895
-0.85
-0.85
-0.985
-0.865
-0.915
-0.875
-0.81
-0.795
-0.845
-0.87
-0.81
-0.85
-0.835
-0.795
-0.785
-0.75
-0.805
-0.775
-0.785
-0.82
-0.765
-0.755
-0.9
-0.855
-0.85
-0.67
-0.655
-0.755
-0.71
-0.74
-0.525
-0.59
-0.72
-0.825
-0.77
-0.725
-0.625
-0.735
-0.73
-0.665
-0.705
-0.71
-0.72
-0.675
-0.65
-0.605
-0.64
-0.615
-0.58
-0.57
-0.685
-0.665
-0.535
-0.5
-0.565
-0.705
-0.69
-0.53
-0.51
-0.445
-0.33
-0.345
-0.32
-0.4
-0.445
-0.38
-0.36
-0.41
-0.52
-0.56
-0.56
-0.405
-0.46
-0.39
-0.44
-0.36
-0.535
-0.575
-0.575
-0.465
-0.545
-0.51
-0.46
-0.5
-0.485
-0.625
-0.555
-0.63
-0.595
-0.625
-0.53
-0.645
-0.565
-0.675
-0.655
-0.605
-0.705
-0.685
-0.655
-0.635
-0.54
-0.515
-0.61
-0.705
-0.755
-0.685
-0.595
-0.755
-0.75
-0.65
-0.655
-0.535
-0.615
-0.725
-0.79
-0.635
-0.75
-0.8
-0.75
-0.66
-0.725
-0.755
-0.72
-0.625
-0.635
-0.73
-0.715
-0.715
-0.685
-0.78
-0.695
-0.705
-0.745
-0.68
-0.745
-0.715
-0.63
-0.66
-0.735
-0.745
-0.655
-0.635
-0.64
-0.585
-0.68
-0.665
-0.64
-0.65
-0.695
-0.595
-0.66
-0.755
-0.69
-0.62
-0.72
-0.72
-0.715
-0.665
-0.645
-0.675
-0.725
-0.61
-0.62
-0.615
-0.7
-0.745
-0.85
-0.74
-0.5
-0.56
-0.595
-0.715
-0.66
-0.62
-0.565
-0.73
-0.665
-0.595
-0.66
-0.595
-0.535
-0.65
-0.535
-0.605
-0.545
-0.535
-0.635
-0.645
-0.675
-0.69
-0.64
-0.605
-0.59
-0.575
-0.65
-0.665
-0.605
-0.655
-0.66
-0.655
-0.725
-0.655
-0.63
-0.64
-0.645
-0.715
-0.71
-0.515
-0.575
-0.58
-0.65
-0.66
-0.5
-0.505
-0.595
-0.615
-0.68
-0.65
-0.65
-0.59
-0.605
-0.65
-0.63
-0.64
-0.63
-0.56
-0.7
-0.72
-0.625
-0.685
-0.595
-0.595
-0.62
-0.635
-0.645
-0.685
-0.71
-0.605
-0.645
-0.625
-0.68
-0.7
-0.735
-0.755
-0.72
-0.65
-0.51
-0.61
-0.635
-0.57
-0.565
-0.61
-0.61
-0.585
-0.595
-0.605
-0.68
-0.725
-0.71
-0.62
-0.705
-0.65
-0.515
-0.53
-0.615
-0.66
-0.61
-0.625
-0.645
-0.605
-0.58
-0.695
-0.665
-0.6
-0.66
-0.66
-0.69
-0.65
-0.69
-0.645
-0.55
-0.61
-0.66
-0.685
-0.605
-0.6
-0.725
-0.63
-0.7
-0.675
-0.72
-0.71
-0.65
-0.53
-0.54
-0.57
-0.61
-0.545
-0.57
-0.57
-0.575
-0.605
-0.575
-0.58
-0.64
-0.635
-0.58
-0.65
-0.59
-0.715
-0.655
-0.615
-0.655
-0.62
-0.695
-0.56
-0.625
-0.56
-0.585
-0.585
-0.645
-0.665
-0.59
-0.56
-0.645
-0.75
-0.77
-0.825
-0.75
-0.615
-0.55
-0.485
-0.51
-0.545
-0.66
-0.58
-0.65
-0.625
-0.595
-0.64
-0.675
-0.61
-0.58
-0.65
-0.66
-0.69
-0.655
-0.65
-0.525
-0.52
-0.53
-0.53
-0.65
-0.585
-0.685
-0.745
-0.605
-0.505
-0.595
-0.71
-0.525
-0.545
-0.595
-0.61
-0.63
-0.585
-0.64
-0.655
-0.595
-0.67
-0.76
-0.605
-0.69
-0.71
-0.615
-0.57
-0.55
-0.62
-0.715
-0.735
-0.655
-0.54
-0.585
-0.48
-0.49
-0.555
-0.595
-0.65
-0.685
-0.615
-0.69
-0.705
-0.58
-0.58
-0.645
-0.505
-0.55
-0.605
-0.585
-0.56
-0.53
-0.55
-0.66
-0.685
-0.78
-0.645
-0.53
-0.615
-0.675
-0.625
-0.51
-0.52
-0.565
-0.75
-0.61
-0.625
-0.585
-0.47
-0.43
-0.47
-0.555
-0.51
-0.525
-0.51
-0.575
-0.62
-0.6
-0.59
-0.46
-0.455
-0.55
-0.59
-0.7
-0.715
-0.745
-0.735
-0.665
-0.595
-0.615
-0.545
-0.59
-0.75
-0.795
-0.615
-0.565
-0.53
-0.64
-0.58
-0.61
-0.64
-0.665
-0.635
-0.555
-0.545
-0.535
-0.6
-0.62
-0.62
-0.64
-0.66
-0.65
-0.68
-0.585
-0.515
-0.61
-0.565
-0.625
-0.75
-0.615
-0.5
-0.46
-0.535
-0.645
-0.585
-0.655
-0.585
-0.585
-0.575
-0.47
-0.46
-0.46
-0.39
-0.24
-0.085
0.005
0.08
0.17
0.165
0.07
-0.065
-0.09
-0.31
-0.43
-0.295
-0.32
-0.535
-0.6
-0.715
-0.615
-0.595
-0.595
-0.59
-0.625
-0.63
-0.65
-0.725
-0.64
-0.615
-0.62
-0.525
-0.57
-0.54
-0.555
-0.665
-0.7
-0.74
-0.605
-0.47
-0.54
-0.67
-0.7
-0.58
-0.53
-0.525
-0.575
-0.66
-0.565
-0.505
-0.625
-0.645
-0.565
-0.63
-0.54
-0.52
-0.565
-0.37
-0.47
-0.56
-0.425
-0.495
-0.615
-0.645
-0.585
-0.57
-0.55
-0.505
-0.445
-0.535
-0.56
-0.565
-0.56
-0.535
-0.575
-0.495
-0.5
-0.565
-0.635
-0.545
-0.47
-0.425
-0.525
-0.63
-0.515
-0.6
-0.58
-0.475
-0.47
-0.49
-0.48
-0.485
-0.395
-0.55
-0.63
-0.585
-0.555
-0.47
-0.455
-0.425
-0.45
-0.46
-0.45
-0.58
-0.535
-0.54
-0.545
-0.435
-0.395
-0.455
-0.53
-0.565
-0.515
-0.445
-0.48
-0.425
-0.34
-0.45
-0.475
-0.425
-0.385
-0.385
-0.27
-0.38
-0.37
-0.405
-0.56
-0.4
-0.4
-0.23
-0.19
-0.305
-0.415
-0.305
-0.285
-0.34
-0.345
-0.285
-0.205
-0.22
-0.26
-0.21
-0.3
-0.28
-0.125
-0.175
-0.32
-0.205
-0.275
-0.23
-0.235
-0.31
-0.27
-0.25
-0.3
-0.31
-0.265
-0.26
-0.375
-0.395
-0.33
-0.285
-0.285
-0.365
-0.39
-0.255
-0.205
-0.375
-0.465
-0.35
-0.515
-0.42
-0.525
-0.495
-0.5
-0.5
-0.45
-0.465
-0.43
-0.485
-0.43
-0.39
-0.55
-0.57
-0.49
-0.525
-0.535
-0.555
-0.43
-0.52
-0.51
-0.515
-0.55
-0.565
-0.63
-0.655
-0.535
-0.53
-0.515
-0.485
-0.55
-0.515
-0.475
-0.53
-0.665
-0.64
-0.765
-0.695
-0.63
-0.545
-0.46
-0.46
-0.515
-0.375
-0.525
-0.645
-0.705
-0.525
-0.4
-0.6
-0.68
-0.495
-0.545
-0.495
-0.545
-0.57
-0.615
-0.58
-0.495
-0.625
-0.53
-0.47
-0.535
-0.54
-0.47
-0.66
-0.62
-0.625
-0.6
-0.51
-0.565
-0.49
-0.495
-0.54
-0.57
-0.565
-0.615
-0.66
-0.66
-0.66
-0.54
-0.485
-0.555
-0.465
-0.51
-0.59
-0.41
-0.475
-0.665
-0.605
-0.56
-0.555
-0.545
-0.53
-0.49
-0.455
-0.62
-0.565
-0.52
-0.515
-0.535
-0.525
-0.51
-0.545
-0.52
-0.47
-0.49
-0.54
-0.595
-0.615
-0.64
-0.58
-0.53
-0.58
-0.47
-0.465
-0.61
-0.63
-0.605
-0.49
-0.53
-0.5
-0.5
-0.68
-0.715
-0.635
-0.635
-0.585
-0.61
-0.65
-0.46
-0.555
-0.555
-0.48
-0.5
-0.505
-0.51
-0.455
-0.54
-0.505
-0.535
-0.61
-0.545
-0.49
-0.62
-0.65
-0.625
-0.65
-0.59
-0.535
-0.525
-0.51
-0.535
-0.49
-0.545
-0.605
-0.63
-0.625
-0.64
-0.44
-0.43
-0.535
-0.575
-0.635
-0.65
-0.655
-0.53
-0.57
-0.645
-0.675
-0.6
-0.61
-0.665
-0.57
-0.655
-0.645
-0.69
-0.66
-0.565
-0.56
-0.515
-0.47
-0.415
-0.615
-0.665
-0.545
-0.515
-0.575
-0.55
-0.585
-0.605
-0.615
-0.615
-0.67
-0.665
-0.605
-0.595
-0.675
-0.475
-0.485
-0.445
-0.47
-0.53
-0.51
-0.565
-0.64
-0.605
-0.585
-0.655
-0.645
-0.52
-0.635
-0.765
-0.655
-0.555
-0.38
-0.5
-0.74
-0.71
-0.66
-0.615
-0.58
-0.515
-0.575
-0.615
-0.71
-0.625
-0.785
-0.745
-0.66
-0.595
-0.56
-0.53
-0.59
-0.615
-0.56
-0.625
-0.535
-0.52
-0.585
-0.585
-0.625
-0.615
-0.63
-0.605
-0.33
-0.46
-0.705
-0.655
-0.64
-0.615
-0.535
-0.555
-0.635
-0.695
-0.615
-0.6
-0.65
-0.675
-0.635
-0.715
-0.71
-0.53
-0.75
-0.77
-0.63
-0.545
-0.65
-0.58
-0.535
-0.475
-0.645
-0.625
-0.565
-0.575
-0.605
-0.73
-0.63
-0.605
-0.695
-0.67
-0.66
-0.635
-0.685
-0.74
-0.455
-0.375
-0.775
-0.73
-0.655
-0.605
-0.6
-0.56
-0.55
-0.63
-0.575
-0.65
-0.585
-0.58
-0.66
-0.7
-0.685
-0.695
-0.645
-0.52
-0.59
-0.655
-0.63
-0.58
-0.57
-0.585
-0.58
-0.535
-0.66
-0.72
-0.745
-0.61
-0.625
-0.635
-0.615
-0.67
-0.7
-0.705
-0.68
-0.655
-0.565
-0.625
-0.59
-0.59
-0.635
-0.595
-0.62
-0.58
-0.585
-0.655
-0.565
-0.635
-0.675
-0.48
-0.55
-0.77
-0.735
-0.69
-0.76
-0.71
-0.615
-0.615
-0.63
-0.665
-0.635
-0.74
-0.6
-0.595
-0.6
-0.635
-0.585
-0.55
-0.565
-0.685
-0.71
-0.635
-0.485
-0.435
-0.61
-0.605
-0.57
-0.535
-0.54
-0.495
-0.625
-0.69
-0.64
-0.65
-0.67
-0.58
-0.655
-0.705
-0.56
-0.675
-0.65
-0.66
-0.625
-0.725
-0.635
-0.725
-0.74
-0.625
-0.585
-0.59
-0.64
-0.735
-0.66
-0.67
-0.72
-0.795
-0.765
-0.695
-0.75
-0.705
-0.665
-0.545
-0.57
-0.655
-0.675
-0.675
-0.595
-0.43
-0.445
-0.6
-0.645
-0.64
-0.515
-0.49
-0.62
-0.67
-0.7
-0.635
-0.63
-0.47
-0.28
-0.285
-0.25
-0.225
0.07
0.09
0.125
0.19
0.13
0.065
-0.085
-0.245
-0.435
-0.435
-0.555
-0.65
-0.75
-0.665
-0.715
-0.78
-0.795
-0.76
-0.645
-0.775
-0.78
-0.705
-0.66
-0.54
-0.58
-0.615
-0.555
-0.48
-0.525
-0.625
-0.73
-0.66
-0.6
-0.59
-0.62
-0.65
-0.65
-0.635
-0.565
-0.63
-0.67
-0.64
-0.635
-0.605
-0.545
-0.555
-0.645
-0.685
-0.64
-0.66
-0.655
-0.735
-0.805
-0.735
-0.69
-0.63
-0.655
-0.62
-0.58
-0.575
-0.565
-0.66
-0.595
-0.53
-0.625
-0.56
-0.635
-0.585
-0.52
-0.525
-0.485
-0.505
-0.615
-0.595
-0.555
-0.635
-0.645
-0.555
-0.51
-0.675
-0.63
-0.63
-0.625
-0.45
-0.46
-0.5
-0.575
-0.575
-0.675
-0.73
-0.68
-0.64
-0.545
-0.63
-0.595
-0.55
-0.655
-0.66
-0.645
-0.605
-0.47
-0.455
-0.495
-0.5
-0.49
-0.52
-0.555
-0.52
-0.525
-0.58
-0.455
-0.51
-0.555
-0.505
-0.49
-0.485
-0.485
-0.46
-0.35
-0.39
-0.46
-0.455
-0.46
-0.505
-0.47
-0.325
-0.395
-0.525
-0.35
-0.305
-0.38
-0.49
-0.375
-0.43
-0.3
-0.37
-0.405
-0.46
-0.375
-0.345
-0.435
-0.41
-0.25
-0.315
-0.355
-0.445
-0.225
-0.255
-0.405
-0.415
-0.33
-0.445
-0.41
-0.38
-0.39
-0.4
-0.42
-0.445
-0.4
-0.48
-0.525
-0.52
-0.49
-0.415
-0.485
-0.585
-0.47
-0.525
-0.605
-0.59
-0.69
-0.64
-0.62
-0.705
-0.68
-0.68
-0.685
-0.67
-0.635
-0.685
-0.525
-0.71
-0.575
-0.525
-0.64
-0.56
-0.625
-0.695
-0.785
-0.71
-0.665
-0.735
-0.605
-0.7
-0.685
-0.62
-0.645
-0.695
-0.66
-0.64
-0.645
-0.64
-0.695
-0.695
-0.635
-0.55
-0.7
-0.71
-0.75
-0.785
-0.62
-0.585
-0.595
-0.57
-0.795
-0.77
-0.805
-0.815
-0.835
-0.76
-0.68
-0.63
-0.66
-0.655
-0.63
-0.685
-0.61
-0.65
-0.72
-0.825
-0.86
-0.68
-0.745
-0.56
-0.635
-0.73
-0.685
-0.61
-0.665
-0.725
-0.71
-0.665
-0.65
-0.69
-0.735
-0.68
-0.745
-0.735
-0.635
-0.655
-0.645
-0.735
-0.765
-0.625
-0.76
-0.66
-0.615
-0.625
-0.75
-0.64
-0.615
-0.715
-0.7
-0.655
-0.685
-0.62
-0.715
-0.675
-0.725
-0.835
-0.6
-0.665
-0.815
-0.78
-0.56
-0.585
-0.64
-0.765
-0.79
-0.68
-0.755
-0.68
-0.645
-0.58
-0.64
-0.7
-0.83
-0.7
-0.52
-0.72
-0.76
-0.76
-0.69
-0.675
-0.68
-0.7
-0.645
-0.58
-0.645
-0.59
-0.555
-0.68
-0.73
-0.755
-0.71
-0.7
-0.735
-0.795
-0.81
-0.755
-0.8
-0.825
-0.8
-0.82
-0.74
-0.605
-0.655
-0.51
-0.54
-0.695
-0.725
-0.7
-0.65
-0.705
-0.68
-0.705
-0.65
-0.78
-0.99
-0.845
-0.545
-0.65
-0.625
-0.625
-0.65
-0.675
-0.73
-0.71
-0.765
-0.76
-0.82
-0.735
-0.735
-0.775
-0.655
-0.65
-0.745
-0.715
-0.63
-0.585
-0.59
-0.72
-0.73
-0.69
-0.68
-0.685
-0.665
-0.75
-0.8
-0.745
-0.75
-0.8
-0.63
-0.635
-0.63
-0.7
-0.675
-0.69
-0.7
-0.79
-0.65
-0.665
-0.755
-0.645
-0.695
-0.705
-0.65
-0.71
-0.7
-0.67
-0.665
-0.74
-0.795
-0.71
-0.62
-0.655
-0.66
-0.62
-0.715
-0.675
-0.75
-0.765
-0.79
-0.765
-0.785
-0.72
-0.73
-0.645
-0.635
-0.8
-0.845
-0.74
-0.7
-0.645
-0.685
-0.735
-0.795
-0.595
-0.615
-0.575
-0.73
-0.645
-0.675
-0.815
-0.74
-0.625
-0.66
-0.65
-0.7
-0.78
-0.665
-0.645
-0.77
-0.64
-0.705
-0.79
-0.76
-0.75
-0.72
-0.715
-0.67
-0.595
-0.615
-0.69
-0.615
-0.67
-0.69
-0.715
-0.745
-0.755
-0.7
-0.605
-0.625
-0.735
-0.78
-0.805
-0.73
-0.75
-0.815
-0.64
-0.685
-0.745
-0.745
-0.76
-0.76
-0.675
-0.61
-0.625
-0.655
-0.64
-0.595
-0.535
-0.64
-0.71
-0.655
-0.63
-0.69
-0.83
-0.77
-0.74
-0.73
-0.765
-0.81
-0.82
-0.73
-0.7
-0.645
-0.605
-0.595
-0.645
-0.54
-0.57
-0.615
-0.685
-0.72
-0.79
-0.655
-0.68
-0.73
-0.6
-0.675
-0.695
-0.675
-0.77
-0.795
-0.72
-0.695
-0.68
-0.72
-0.72
-0.705
-0.725
-0.63
-0.67
-0.66
-0.585
-0.595
-0.58
-0.705
-0.635
-0.52
-0.49
-0.655
-0.79
-0.745
-0.71
-0.69
-0.695
-0.665
-0.665
-0.675
-0.6
-0.645
-0.695
-0.64
-0.695
-0.735
-0.785
-0.67
-0.625
-0.7
-0.71
-0.665
-0.745
-0.765
-0.635
-0.67
-0.66
-0.715
-0.73
-0.7
-0.61
-0.7
-0.71
-0.725
-0.735
-0.745
-0.76
-0.645
-0.665
-0.62
-0.82
-0.895
-0.72
-0.505
-0.67
-0.69
-0.705
-0.725
-0.66
-0.57
-0.635
-0.685
-0.665
-0.675
-0.655
-0.65
-0.595
-0.58
-0.575
-0.545
-0.42
-0.355
-0.285
-0.165
-0.01
-0.02
-0.035
0.005
-0.005
-0.11
-0.355
-0.43
-0.56
-0.54
-0.655
-0.735
-0.835
-0.87
-0.84
-0.75
-0.65
-0.67
-0.64
-0.695
-0.72
-0.695
-0.765
-0.81
-0.805
-0.82
-0.765
-0.7
-0.64
-0.665
-0.74
-0.805
-0.64
-0.7
-0.575
-0.725
-0.65
-0.625
-0.705
-0.685
-0.61
-0.665
-0.745
-0.72
-0.73
-0.715
-0.64
-0.645
-0.765
-0.88
-0.69
-0.665
-0.67
-0.685
-0.635
-0.755
-0.635
-0.59
-0.545
-0.69
-0.655
-0.62
-0.61
-0.59
-0.695
-0.735
-0.715
-0.61
-0.685
-0.73
-0.685
-0.7
-0.605
-0.61
-0.645
-0.59
-0.545
-0.515
-0.655
-0.69
-0.665
-0.69
-0.585
-0.6
-0.68
-0.595
-0.62
-0.63
-0.63
-0.55
-0.625
-0.655
-0.66
-0.705
-0.69
-0.66
-0.545
-0.66
-0.65
-0.54
-0.595
-0.58
-0.565
-0.5
-0.565
-0.585
-0.615
-0.595
-0.495
-0.625
-0.625
-0.65
-0.56
-0.595
-0.535
-0.48
-0.57
-0.525
-0.535
-0.48
-0.5
-0.6
-0.495
-0.38
-0.485
-0.52
-0.48
-0.495
-0.465
-0.38
-0.46
-0.46
-0.42
-0.425
-0.355
-0.375
-0.4
-0.435
-0.365
-0.295
-0.305
-0.395
-0.4
-0.45
-0.445
-0.49
-0.485
-0.35
-0.39
-0.335
-0.345
-0.395
-0.435
-0.42
-0.405
-0.35
-0.36
-0.415
-0.595
-0.635
-0.5
-0.51
-0.645
-0.625
-0.645
-0.625
-0.575
-0.57
-0.635
-0.545
-0.625
-0.67
-0.505
-0.545
-0.775
-0.69
-0.6
-0.605
-0.595
-0.69
-0.695
-0.71
-0.68
-0.73
-0.68
-0.545
-0.58
-0.705
-0.685
-0.75
-0.7
-0.685
-0.56
-0.59
-0.56
-0.66
-0.59
-0.625
-0.765
-0.695
-0.57
-0.73
-0.77
-0.605
-0.605
-0.75
-0.62
-0.75
-0.665
-0.65
-0.675
-0.755
-0.76
-0.705
-0.695
-0.67
-0.725
-0.67
-0.645
-0.68
-0.76
-0.685
-0.675
-0.72
-0.77
-0.69
-0.45
-0.605
-0.72
-0.665
-0.655
-0.65
-0.74
-0.78
-0.63
-0.6
-0.605
-0.61
-0.645
-0.63
-0.68
-0.66
-0.665
-0.685
-0.675
-0.66
-0.635
-0.58
-0.63
-0.685
-0.75
-0.695
-0.635
-0.6
-0.575
-0.53
-0.57
-0.655
-0.72
-0.82
-0.69
-0.67
-0.645
-0.68
-0.71
-0.64
-0.64
-0.58
-0.695
-0.7
-0.68
-0.665
-0.75
-0.75
-0.685
-0.63
-0.58
-0.635
-0.59
-0.56
-0.64
-0.625
-0.615
-0.655
-0.7
-0.72
-0.765
-0.735
-0.645
-0.705
-0.875
-0.705
-0.56
-0.58
-0.555
-0.585
-0.69
-0.73
-0.84
-0.58
-0.685
-0.64
-0.715
-0.73
-0.71
-0.655
-0.65
-0.595
-0.58
-0.615
-0.665
-0.65
-0.66
-0.64
-0.705
-0.74
-0.695
-0.71
-0.6
-0.62
-0.765
-0.715
-0.65
-0.675
-0.69
-0.77
-0.675
-0.645
-0.61
-0.625
-0.715
-0.66
-0.67
-0.715
-0.67
-0.66
-0.705
-0.745
-0.84
-0.775
-0.72
-0.765
-0.63
-0.525
-0.63
-0.7
-0.595
-0.68
-0.615
-0.585
-0.59
-0.735
-0.65
-0.735
-0.8
-0.595
-0.515
-0.64
-0.775
-0.815
-0.655
-0.65
-0.61
-0.635
-0.65
-0.715
-0.775
-0.7
-0.66
-0.74
-0.705
-0.645
-0.655
-0.675
-0.68
-0.695
-0.705
-0.645
-0.69
-0.66
-0.615
-0.715
-0.69
-0.645
-0.715
-0.77
-0.765
-0.62
-0.555
-0.675
-0.645
-0.615
-0.735
-0.745
-0.64
-0.54
-0.71
-0.83
-0.725
-0.68
-0.58
-0.645
-0.775
-0.755
-0.69
-0.66
-0.63
-0.69
-0.675
-0.725
-0.665
-0.62
-0.625
-0.625
-0.745
-0.68
-0.6
-0.75
-0.77
-0.655
-0.545
-0.635
-0.68
-0.55
-0.71
-0.755
-0.66
-0.765
-0.765
-0.57
-0.655
-0.66
-0.665
-0.71
-0.655
-0.665
-0.65
-0.7
-0.795
-0.775
-0.63
-0.74
-0.765
-0.655
-0.635
-0.82
-0.63
-0.555
-0.655
-0.72
-0.66
-0.715
-0.84
-0.75
-0.665
-0.625
-0.57
-0.56
-0.63
-0.69
-0.605
-0.62
-0.78
-0.725
-0.715
-0.635
-0.685
-0.695
-0.635
-0.565
-0.52
-0.665
-0.785
-0.615
-0.625
-0.65
-0.875
-0.875
-0.65
-0.6
-0.635
-0.725
-0.67
-0.635
-0.66
-0.65
-0.705
-0.74
-0.66
-0.61
-0.65
-0.605
-0.66
-0.66
-0.68
-0.68
-0.7
-0.715
-0.6
-0.58
-0.585
-0.63
-0.645
-0.7
-0.555
-0.555
-0.565
-0.605
-0.66
-0.68
-0.63
-0.6
-0.59
-0.615
-0.65
-0.6
-0.58
-0.69
-0.665
-0.65
-0.66
-0.655
-0.67
-0.58
-0.65
-0.79
-0.765
-0.685
-0.765
-0.675
-0.685
-0.6
-0.65
-0.845
-0.83
-0.61
-0.56
-0.77
-0.725
-0.75
-0.66
-0.585
-0.71
-0.7
-0.8
-0.765
-0.825
-0.665
-0.595
-0.695
-0.675
-0.675
-0.59
-0.59
-0.635
-0.64
-0.695
-0.71
-0.645
-0.72
-0.775
-0.71
-0.65
-0.63
-0.555
-0.67
-0.72
-0.67
-0.545
-0.43
-0.425
-0.425
-0.19
0.015
0.115
0.165
0.075
0.075
0.05
-0.055
-0.19
-0.245
-0.31
-0.425
-0.575
-0.685
-0.69
-0.75
-0.975
-0.955
-0.8
-0.69
-0.72
-0.76
-0.785
-0.69
-0.81
-0.67
-0.71
-0.755
-0.62
-0.635
-0.6
-0.63
-0.65
-0.6
-0.685
-0.605
-0.705
-0.71
-0.665
-0.635
-0.68
-0.73
-0.54
-0.55
-0.745
-0.76
-0.68
-0.56
-0.565
-0.7
-0.675
-0.705
-0.705
-0.705
-0.655
-0.685
-0.625
-0.64
-0.66
-0.65
-0.655
-0.655
-0.69
-0.695
-0.68
-0.72
-0.69
-0.73
-0.695
-0.595
-0.64
-0.62
-0.565
-0.57
-0.595
-0.63
-0.565
-0.605
-0.665
-0.77
-0.775
-0.685
-0.64
-0.57
-0.555
-0.635
-0.56
-0.615
-0.625
-0.625
-0.555
-0.48
-0.475
-0.635
-0.785
-0.765
-0.62
-0.67
-0.715
-0.745
-0.635
-0.51
-0.48
-0.52
-0.565
-0.54
-0.635
-0.55
-0.505
-0.55
-0.475
-0.545
-0.565
-0.59
-0.675
-0.61
-0.665
-0.51
-0.535
-0.535
-0.575
-0.52
-0.52
-0.475
-0.42
-0.35
-0.46
-0.455
-0.365
-0.445
-0.47
-0.325
-0.435
-0.445
-0.405
-0.365
-0.49
-0.4
-0.355
-0.48
-0.51
-0.485
-0.345
-0.325
-0.295
-0.36
-0.395
-0.32
-0.29
-0.355
-0.4
-0.365
-0.385
-0.43
-0.49
-0.475
-0.455
-0.44
-0.47
-0.44
-0.435
-0.45
-0.44
-0.535
-0.555
-0.575
-0.575
-0.595
-0.51
-0.575
-0.63
-0.665
-0.605
-0.59
-0.655
-0.7
-0.6
-0.43
-0.665
-0.705
-0.665
-0.61
-0.635
-0.655
-0.62
-0.645
-0.74
-0.715
-0.65
-0.63
-0.67
-0.69
-0.715
-0.695
-0.66
-0.665
-0.625
-0.66
-0.725
-0.69
-0.685
-0.635
-0.645
-0.705
-0.685
-0.64
-0.655
-0.79
-0.67
-0.6
-0.745
-0.81
-0.785
-0.765
-0.77
-0.675
-0.6
-0.605
-0.61
-0.655
-0.715
-0.7
-0.6
-0.74
-0.785
-0.605
-0.595
-0.65
-0.665
-0.565
-0.64
-0.605
-0.7
-0.75
-0.755
-0.725
-0.52
-0.595
-0.665
-0.79
-0.855
-0.68
-0.56
-0.515
-0.645
-0.6
-0.65
-0.675
-0.65
-0.7
-0.7
-0.795
-0.77
-0.79
-0.7
-0.61
-0.535
-0.6
-0.705
-0.57
-0.56
-0.595
-0.67
-0.63
-0.755
-0.725
-0.705
-0.675
-0.63
-0.56
-0.645
-0.675
-0.68
-0.615
-0.695
-0.71
-0.65
-0.685
-0.7
-0.655
-0.75
-0.715
-0.595
-0.585
-0.53
-0.58
-0.75
-0.655
-0.715
-0.71
-0.76
-0.645
-0.7
-0.69
-0.635
-0.715
-0.765
-0.69
-0.72
-0.75
-0.775
-0.735
-0.525
-0.505
-0.55
-0.63
-0.635
-0.755
-0.685
-0.655
-0.66
-0.785
-0.655
-0.56
-0.62
-0.695
-0.69
-0.72
-0.73
-0.78
-0.7
-0.63
-0.59
-0.675
-0.65
-0.605
-0.67
-0.755
-0.75
-0.825
-0.78
-0.795
-0.805
-0.75
-0.62
-0.7
-0.75
-0.685
-0.6
-0.635
-0.64
-0.7
-0.66
-0.55
-0.62
-0.68
-0.73
-0.64
-0.57
-0.55
-0.675
-0.755
-0.69
-0.71
-0.8
-0.6
-0.685
-0.72
-0.725
-0.705
-0.73
-0.765
-0.71
-0.645
-0.69
-0.785
-0.67
-0.735
-0.715
-0.655
-0.55
-0.585
-0.645
-0.815
-0.785
-0.805
-0.815
-0.715
-0.675
-0.735
-0.75
-0.665
-0.745
-0.75
-0.695
-0.7
-0.66
-0.575
-0.535
-0.605
-0.72
-0.77
-0.745
-0.715
-0.695
-0.635
-0.62
-0.665
-0.585
-0.695
-0.77
-0.745
-0.8
-0.77
-0.76
-0.775
-0.71
-0.65
-0.705
-0.76
-0.695
-0.695
-0.695
-0.6
-0.63
-0.635
-0.675
-0.65
-0.715
-0.75
-0.76
-0.75
-0.67
-0.97
-0.765
-0.615
-0.6
-0.705
-0.73
-0.685
-0.61
-0.705
-0.72
-0.75
-0.67
-0.68
-0.64
-0.625
-0.72
-0.72
-0.69
-0.715
-0.665
-0.665
-0.715
-0.715
-0.68
-0.655
-0.655
-0.705
-0.66
-0.705
-0.67
-0.745
-0.765
-0.7
-0.75
-0.735
-0.715
-0.735
-0.685
-0.62
-0.68
-0.645
-0.705
-0.615
-0.605
-0.755
-0.78
-0.74
-0.785
-0.85
-0.78
-0.68
-0.665
-0.635
-0.66
-0.68
-0.715
-0.625
-0.685
-0.575
-0.655
-0.75
-0.67
-0.685
-0.675
-0.67
-0.64
-0.58
-0.74
-0.735
-0.555
-0.635
-0.65
-0.655
-0.67
-0.665
-0.705
-0.775
-0.69
-0.675
-0.615
-0.56
-0.67
-0.53
-0.69
-0.75
-0.635
-0.71
-0.695
-0.745
-0.675
-0.61
-0.635
-0.715
-0.675
-0.67
-0.735
-0.69
-0.655
-0.745
-0.76
-0.615
-0.65
-0.625
-0.585
-0.715
-0.87
-0.71
-0.675
-0.685
-0.71
-0.705
-0.675
-0.645
-0.725
-0.695
-0.74
-0.805
-0.69
-0.61
-0.7
-0.76
-0.71
-0.745
-0.57
-0.59
-0.58
-0.7
-0.695
-0.635
-0.595
-0.67
-0.66
-0.64
-0.68
-0.675
-0.685
-0.665
-0.49
-0.35
-0.19
-0.255
-0.15
-0.095
-0.015
0.0
-0.085
-0.115
-0.235
-0.405
-0.485
-0.55
-0.62
-0.65
-0.71
-0.81
-0.855
-0.86
-0.79
-0.78
-0.905
-0.88
-0.885
-0.785
-0.77
-0.715
-0.79
-0.795
-0.63
-0.645
-0.67
-0.645
-0.595
-0.7
-0.74
-0.69
-0.715
-0.835
-0.77
-0.715
-0.68
-0.695
-0.71
-0.715
-0.715
-0.675
-0.625
-0.695
-0.64
-0.555
-0.5
-0.645
-0.775
-0.685
-0.645
-0.685
-0.695
-0.71
-0.81
-0.705
-0.51
-0.44
-0.66
-0.775
-0.67
-0.705
-0.72
-0.62
-0.605
-0.675
-0.66
-0.66
-0.585
-0.565
-0.535
-0.525
-0.72
-0.635
-0.555
-0.71
-0.625
-0.59
-0.525
-0.61
-0.605
-0.625
-0.635
-0.63
-0.645
-0.67
-0.645
-0.61
-0.725
-0.655
-0.54
-0.52
-0.575
-0.61
-0.525
-0.585
-0.61
-0.56
-0.62
-0.655
-0.635
-0.64
-0.525
-0.525
-0.55
-0.585
-0.53
-0.465
-0.545
-0.4
-0.395
-0.585
-0.555
-0.535
-0.425
-0.455
-0.58
-0.47
-0.415
-0.505
-0.39
-0.42
-0.51
-0.535
-0.475
-0.35
-0.425
-0.47
-0.48
-0.415
-0.37
-0.415
-0.36
-0.325
-0.325
-0.345
-0.34
-0.38
-0.32
-0.36
-0.485
-0.415
-0.415
-0.39
-0.36
-0.41
-0.28
-0.31
-0.395
-0.435
-0.475
-0.31
-0.39
-0.3
-0.35
-0.445
-0.475
-0.44
-0.315
-0.48
-0.555
-0.645
-0.63
-0.595
-0.505
-0.435
-0.52
-0.61
-0.585
-0.645
-0.605
-0.63
-0.735
-0.795
-0.69
-0.685
-0.655
-0.565
-0.645
-0.6
-0.615
-0.645
-0.575
-0.595
-0.675
-0.63
-0.64
-0.57
-0.625
-0.74
-0.725
-0.625
-0.655
-0.725
-0.665
-0.66
-0.605
-0.575
-0.675
-0.68
-0.745
-0.805
-0.775
-0.655
-0.495
-0.57
-0.69
-0.68
-0.615
-0.675
-0.68
-0.67
-0.66
-0.72
-0.675
-0.745
-0.755
-0.545
-0.635
-0.75
-0.775
-0.765
-0.715
-0.66
-0.565
-0.545
-0.67
-0.675
-0.75
-0.645
-0.685
-0.635
-0.7
-0.625
-0.56
-0.645
-0.645
-0.565
-0.615
-0.535
-0.52
-0.59
-0.68
-0.71
-0.65
-0.725
-0.665
-0.675
-0.59
-0.605
-0.6
-0.68
-0.66
-0.615
-0.72
-0.625
-0.54
-0.67
-0.605
-0.585
-0.68
-0.665
-0.625
-0.615
-0.61
-0.645
-0.745
-0.72
-0.685
-0.755
-0.92
-0.945
-0.65
-0.57
-0.51
-0.485
-0.565
-0.65
-0.6
-0.56
-0.635
-0.55
-0.655
-0.62
-0.6
-0.58
-0.705
-0.65
-0.725
-0.675
-0.715
-0.735
-0.68
-0.635
-0.635
-0.635
-0.77
-0.635
-0.565
-0.615
-0.69
-0.675
-0.605
-0.665
-0.705
-0.695
-0.695
-0.625
-0.67
-0.755
-0.68
-0.7
-0.68
-0.675
-0.56
-0.59
-0.54
-0.525
-0.67
-0.71
-0.585
-0.675
-0.68
-0.61
-0.595
-0.615
-0.68
-0.675
-0.75
-0.745
-0.635
-0.45
-0.505
-0.56
-0.51
-0.615
-0.645
-0.62
-0.595
-0.645
-0.61
-0.63
-0.66
-0.64
-0.615
-0.62
-0.61
-0.67
-0.6
-0.54
-0.5
-0.655
-0.665
-0.615
-0.67
-0.555
-0.6
-0.695
-0.67
-0.61
-0.595
-0.595
-0.565
-0.665
-0.57
-0.495
-0.67
-0.75
-0.68
-0.49
-0.535
-0.675
-0.625
-0.59
-0.605
-0.645
-0.625
-0.665
-0.545
-0.46
-0.4
-0.485
-0.65
-0.635
-0.635
-0.58
-0.615
-0.6
-0.49
-0.54
-0.565
-0.65
-0.655
-0.63
-0.66
-0.555
-0.525
-0.65
-0.725
-0.68
-0.55
-0.56
-0.535
-0.545
-0.59
-0.605
-0.615
-0.565
-0.665
-0.72
-0.66
-0.61
-0.565
-0.525
-0.54
-0.71
-0.62
-0.52
-0.475
-0.49
-0.54
-0.595
-0.56
-0.575
-0.67
-0.54
-0.58
-0.56
-0.56
-0.605
-0.45
-0.48
-0.54
-0.615
-0.545
-0.62
-0.6
-0.57
-0.595
-0.585
-0.59
-0.555
-0.62
-0.625
-0.565
-0.5
-0.605
-0.575
-0.56
-0.59
-0.605
-0.58
-0.54
-0.62
-0.635
-0.595
-0.61
-0.54
-0.595
-0.53
-0.545
-0.575
-0.56
-0.58
-0.44
-0.535
-0.525
-0.595
-0.675
-0.49
-0.57
-0.55
-0.495
-0.55
-0.615
-0.445
-0.48
-0.58
-0.565
-0.55
-0.585
-0.53
-0.47
-0.535
-0.53
-0.51
-0.495
-0.51
-0.55
-0.6
-0.55
-0.535
-0.615
-0.67
-0.575
-0.6
-0.635
-0.595
-0.55
-0.57
-0.57
-0.48
-0.54
-0.495
-0.46
-0.435
-0.455
-0.66
-0.555
-0.41
-0.365
-0.52
-0.505
-0.495
-0.51
-0.53
-0.505
-0.39
-0.45
-0.425
-0.53
-0.42
-0.49
-0.515
-0.57
-0.57
-0.425
-0.51
-0.5
-0.55
-0.53
-0.45
-0.45
-0.585
-0.59
-0.625
-0.58
-0.49
-0.48
-0.705
-0.465
-0.44
-0.43
-0.535
-0.54
-0.485
-0.445
-0.4
-0.575
-0.555
-0.66
-0.7
-0.59
-0.56
-0.58
-0.545
-0.49
-0.405
-0.48
-0.535
-0.545
-0.53
-0.46
-0.515
-0.51
-0.485
-0.555
-0.465
-0.545
-0.47
-0.49
-0.415
-0.315
-0.31
-0.2
-0.215
-0.04
0.1
0.105
0.215
0.15
0.165
0.195
0.105
0.015
-0.075
-0.21
-0.35
-0.465
-0.565
-0.61
-0.68
-0.605
-0.575
-0.555
-0.55
-0.61
-0.54
-0.485
-0.6
-0.575
-0.545
-0.485
-0.44
-0.535
-0.45
-0.385
-0.715
-0.63
-0.55
-0.595
-0.49
-0.395
-0.4
-0.345
-0.48
-0.5
-0.46
-0.51
-0.575
-0.52
-0.64
-0.61
-0.515
-0.415
-0.375
-0.415
-0.39
-0.55
-0.515
-0.54
-0.455
-0.465
-0.535
-0.525
-0.45
-0.45
-0.525
-0.555
-0.48
-0.51
-0.525
-0.42
-0.365
-0.31
-0.325
-0.455
-0.475
-0.505
-0.4
-0.43
-0.505
-0.64
-0.58
-0.5
-0.455
-0.37
-0.55
-0.625
-0.56
-0.4
-0.385
-0.49
-0.43
-0.36
-0.4
-0.445
-0.485
-0.475
-0.36
-0.375
-0.325
-0.465
-0.375
-0.34
-0.305
-0.31
-0.455
-0.375
-0.34
-0.46
-0.455
-0.45
-0.425
-0.35
-0.48
-0.425
-0.35
-0.37
-0.3
-0.315
-0.29
-0.29
-0.42
-0.445
-0.37
-0.305
-0.23
-0.225
-0.275
-0.22
-0.195
-0.28
-0.45
-0.37
-0.305
-0.415
-0.265
-0.215
-0.23
-0.19
-0.155
-0.185
-0.17
-0.14
-0.23
-0.19
-0.195
-0.295
-0.135
-0.21
-0.21
-0.185
-0.135
-0.17
-0.28
-0.21
-0.21
-0.26
-0.185
-0.15
-0.21
-0.325
-0.29
-0.26
-0.27
-0.34
-0.26
-0.33
-0.39
-0.375
-0.255
-0.11
-0.25
-0.465
-0.43
-0.36
-0.485
-0.54
-0.51
-0.49
-0.425
-0.395
-0.45
-0.53
-0.42
-0.445
-0.47
-0.515
-0.39
-0.44
-0.445
-0.465
-0.485
-0.34
-0.39
-0.445
-0.5
-0.535
-0.455
-0.38
-0.34
-0.54
-0.52
-0.405
-0.41
-0.475
-0.62
-0.525
-0.41
-0.475
-0.535
-0.51
-0.6
-0.565
-0.415
-0.51
-0.585
-0.52
-0.3
-0.37
-0.445
-0.485
-0.525
-0.485
-0.47
-0.54
-0.525
-0.51
-0.43
-0.465
-0.56
-0.65
-0.515
-0.47
-0.435
-0.375
-0.505
-0.445
-0.44
-0.425
-0.435
-0.43
-0.39
-0.425
-0.46
-0.53
-0.385
-0.415
-0.36
-0.48
-0.5
-0.535
-0.485
-0.46
-0.38
-0.465
-0.38
-0.475
-0.525
-0.43
-0.405
-0.395
-0.385
-0.385
-0.445
-0.52
-0.525
-0.525
-0.52
-0.49
-0.53
-0.575
-0.42
-0.375
-0.455
-0.58
-0.465
-0.635
-0.475
-0.4
-0.39
-0.31
-0.315
-0.39
-0.42
-0.39
-0.43
-0.465
-0.38
-0.405
-0.445
-0.46
-0.475
-0.5
-0.555
-0.55
-0.545
-0.535
-0.505
-0.47
-0.415
-0.355
-0.475
-0.385
-0.445
-0.475
-0.455
-0.475
-0.44
-0.47
-0.435
-0.605
-0.52
-0.685
-0.505
-0.395
-0.53
-0.455
-0.46
-0.52
-0.525
-0.415
-0.325
-0.4
-0.535
-0.465
-0.42
-0.435
-0.48
-0.53
-0.575
-0.54
-0.37
-0.34
-0.46
-0.475
-0.45
-0.405
-0.455
-0.565
-0.435
-0.475
-0.455
-0.485
-0.53
-0.53
-0.5
-0.54
-0.56
-0.595
-0.545
-0.58
-0.505
-0.445
-0.34
-0.435
-0.555
-0.555
-0.465
-0.5
-0.465
-0.53
-0.56
-0.39
-0.385
-0.52
-0.555
-0.475
-0.415
-0.515
-0.445
-0.425
-0.41
-0.6
-0.51
-0.49
-0.415
-0.43
-0.37
-0.445
-0.38
-0.47
-0.585
-0.46
-0.48
-0.51
-0.495
-0.43
-0.48
-0.505
-0.49
-0.445
-0.56
-0.59
-0.535
-0.435
-0.505
-0.56
-0.535
-0.505
-0.45
-0.395
-0.415
-0.47
-0.53
-0.515
-0.395
-0.38
-0.475
-0.465
-0.37
-0.44
-0.51
-0.465
-0.395
-0.46
-0.535
-0.53
-0.475
-0.46
-0.45
-0.4
-0.385
-0.45
-0.465
-0.48
-0.46
-0.35
-0.475
-0.475
-0.38
-0.385
-0.405
-0.47
-0.48
-0.55
-0.6
-0.585
-0.37
-0.39
-0.5
-0.425
-0.505
-0.445
-0.455
-0.48
-0.475
-0.525
-0.475
-0.325
-0.37
-0.435
-0.49
-0.465
-0.405
-0.42
-0.565
-0.485
-0.46
-0.46
-0.365
-0.335
-0.45
-0.455
-0.5
-0.565
-0.445
-0.48
-0.435
-0.395
-0.355
-0.335
-0.405
-0.4
-0.42
-0.43
-0.47
-0.43
-0.495
-0.51
-0.475
-0.42
-0.4
-0.55
-0.635
-0.52
-0.445
-0.35
-0.355
-0.425
-0.4
-0.545
-0.46
-0.415
-0.46
-0.375
-0.335
-0.37
-0.4
-0.485
-0.44
-0.37
-0.445
-0.36
-0.29
-0.27
-0.4
-0.48
-0.43
-0.405
-0.395
-0.405
-0.39
-0.44
-0.43
-0.46
-0.475
-0.35
-0.33
-0.34
-0.4
-0.41
-0.375
-0.375
-0.475
-0.4
-0.5
-0.42
-0.39
-0.47
-0.32
-0.26
-0.4
-0.395
-0.465
-0.53
-0.395
-0.43
-0.395
-0.22
-0.41
-0.37
-0.29
-0.31
-0.365
-0.425
-0.385
-0.425
-0.36
-0.305
-0.265
-0.38
-0.44
-0.485
-0.515
-0.36
-0.425
-0.515
-0.48
-0.425
-0.43
-0.415
-0.36
-0.345
-0.395
-0.395
-0.315
-0.44
-0.355
-0.465
-0.46
-0.4
-0.415
-0.445
-0.51
-0.5
-0.395
-0.41
-0.405
-0.495
-0.385
-0.34
-0.31
-0.475
-0.38
-0.295
-0.3
-0.385
-0.425
-0.275
-0.275
-0.27
-0.175
0.0
0.13
0.165
0.21
0.335
0.225
0.265
0.285
0.25
0.205
0.065
-0.05
-0.02
-0.195
-0.455
-0.575
-0.615
-0.445
-0.51
-0.505
-0.615
-0.54
-0.43
-0.41
-0.4
-0.495
-0.445
-0.42
-0.425
-0.495
-0.395
-0.42
-0.425
-0.415
-0.455
-0.47
-0.37
-0.295
-0.36
-0.37
-0.39
-0.405
-0.365
-0.38
-0.37
-0.225
-0.215
-0.375
-0.4
-0.42
-0.39
-0.33
-0.375
-0.43
-0.46
-0.445
-0.405
-0.42
-0.485
-0.505
-0.415
-0.305
-0.495
-0.42
-0.285
-0.32
-0.415
-0.34
-0.4
-0.365
-0.365
-0.38
-0.46
-0.36
-0.2
-0.275
-0.39
-0.365
-0.33
-0.43
-0.405
-0.45
-0.33
-0.36
-0.455
-0.325
-0.325
-0.335
-0.205
-0.275
-0.385
-0.325
-0.345
-0.315
-0.36
-0.355
-0.4
-0.38
-0.4
-0.425
-0.345
-0.4
-0.36
-0.37
-0.38
-0.285
-0.31
-0.39
-0.275
-0.235
-0.3
-0.3
-0.165
-0.24
-0.41
-0.255
-0.165
-0.185
-0.35
-0.375
-0.385
-0.4
-0.185
-0.225
-0.18
-0.095
-0.195
-0.14
-0.105
-0.125
-0.175
-0.105
-0.15
-0.235
-0.075
-0.14
-0.095
-0.065
-0.11
-0.13
-0.18
-0.185
-0.155
-0.035
-0.155
-0.255
-0.165
-0.09
-0.235
-0.125
-0.11
-0.01
0.025
-0.18
-0.23
-0.175
-0.175
-0.175
-0.23
-0.25
-0.265
-0.175
-0.175
-0.17
-0.255
-0.355
-0.265
-0.245
-0.23
-0.21
-0.26
-0.21
-0.33
-0.295
-0.28
-0.345
-0.3
-0.24
-0.41
-0.405
-0.37
-0.41
-0.38
-0.39
-0.29
-0.26
-0.42
-0.455
-0.525
-0.575
-0.52
-0.375
-0.385
-0.46
-0.36
-0.405
-0.365
-0.34
-0.36
-0.41
-0.425
-0.45
-0.41
-0.39
-0.405
-0.405
-0.385
-0.455
-0.475
-0.39
-0.345
-0.315
-0.255
-0.345
-0.46
-0.48
-0.44
-0.455
-0.39
-0.43
-0.345
-0.37
-0.44
-0.445
-0.47
-0.415
-0.365
-0.375
-0.455
-0.525
-0.38
-0.445
-0.45
-0.35
-0.35
-0.42
-0.4
-0.385
-0.38
-0.415
-0.395
-0.29
-0.33
-0.41
-0.44
-0.485
-0.46
-0.38
-0.41
-0.375
-0.355
-0.395
-0.315
-0.395
-0.385
-0.4
-0.39
-0.46
-0.395
-0.34
-0.335
-0.41
-0.475
-0.405
-0.455
-0.42
-0.345
-0.42
-0.46
-0.36
-0.315
-0.375
-0.35
-0.45
-0.445
-0.445
-0.345
-0.495
-0.465
-0.44
-0.325
-0.275
-0.42
-0.395
-0.31
-0.285
-0.27
-0.48
-0.45
-0.585
-0.485
-0.36
-0.35
-0.355
-0.48
-0.48
-0.445
-0.38
-0.405
-0.49
-0.475
-0.395
-0.35
-0.425
-0.44
-0.48
-0.49
-0.435
-0.37
-0.515
-0.52
-0.47
-0.39
-0.415
-0.45
-0.365
-0.51
-0.47
-0.305
-0.345
-0.455
-0.475
-0.44
-0.405
-0.3
-0.415
-0.495
-0.345
-0.355
-0.39
-0.355
-0.36
-0.365
-0.48
-0.415
-0.455
-0.53
-0.41
-0.425
-0.41
-0.43
-0.53
-0.53
-0.39
-0.435
-0.52
-0.435
-0.44
-0.525
-0.51
-0.52
-0.495
-0.36
-0.41
-0.455
-0.49
-0.445
-0.475
-0.435
-0.46
-0.42
-0.385
-0.405
-0.445
-0.425
-0.445
-0.49
-0.485
-0.3
-0.395
-0.43
-0.43
-0.365
-0.34
-0.43
-0.435
-0.505
-0.48
-0.53
-0.51
-0.48
-0.485
-0.45
-0.265
-0.375
-0.51
-0.495
-0.445
-0.44
-0.45
-0.495
-0.49
-0.425
-0.4
-0.47
-0.48
-0.515
-0.51
-0.495
-0.375
-0.26
-0.36
-0.535
-0.49
-0.445
-0.42
-0.31
-0.385
-0.48
-0.45
-0.515
-0.47
-0.57
-0.52
-0.39
-0.43
-0.41
-0.405
-0.44
-0.39
-0.38
-0.435
-0.49
-0.485
-0.355
-0.42
-0.415
-0.525
-0.595
-0.645
-0.55
-0.47
-0.41
-0.41
-0.39
-0.455
-0.395
-0.415
-0.49
-0.44
-0.465
-0.475
-0.565
-0.425
-0.425
-0.39
-0.45
-0.42
-0.475
-0.465
-0.45
-0.42
-0.455
-0.47
-0.425
-0.41
-0.455
-0.525
-0.55
-0.375
-0.415
-0.45
-0.38
-0.32
-0.355
-0.53
-0.495
-0.535
-0.485
-0.46
-0.51
-0.485
-0.38
-0.41
-0.435
-0.45
-0.465
-0.49
-0.47
-0.49
-0.54
-0.585
-0.51
-0.6
-0.455
-0.445
-0.5
-0.44
-0.39
-0.41
-0.475
-0.37
-0.43
-0.54
-0.53
-0.46
-0.46
-0.54
-0.43
-0.47
-0.49
-0.385
-0.38
-0.36
-0.425
-0.44
-0.39
-0.47
-0.485
-0.36
-0.29
-0.425
-0.485
-0.55
-0.425
-0.52
-0.53
-0.4
-0.46
-0.45
-0.46
-0.445
-0.415
-0.37
-0.45
-0.525
-0.52
-0.44
-0.46
-0.435
-0.465
-0.42
-0.345
-0.39
-0.355
-0.37
-0.41
-0.49
-0.41
-0.41
-0.445
-0.455
-0.455
-0.445
-0.45
-0.42
-0.43
-0.49
-0.415
-0.345
-0.41
-0.535
-0.56
-0.58
-0.545
-0.465
-0.43
-0.485
-0.445
-0.555
-0.47
-0.53
-0.57
-0.47
-0.5
-0.48
-0.53
-0.43
-0.415
-0.51
-0.53
-0.485
-0.37
-0.385
-0.555
-0.535
-0.435
-0.34
-0.465
-0.485
-0.405
-0.335
-0.535
-0.515
-0.5
-0.405
-0.385
-0.325
-0.155
-0.035
0.06
0.205
0.3
0.21
0.25
0.485
0.365
0.22
0.115
0.045
-0.11
-0.31
-0.375
-0.46
-0.53
-0.505
-0.485
-0.52
-0.585
-0.515
-0.54
-0.54
-0.45
-0.475
-0.67
-0.415
-0.435
-0.52
-0.535
-0.49
-0.575
-0.5
-0.54
-0.61
-0.495
-0.385
-0.56
-0.65
-0.445
-0.425
-0.42
-0.435
-0.59
-0.52
-0.415
-0.39
-0.32
-0.425
-0.585
-0.575
-0.455
-0.44
-0.435
-0.44
-0.415
-0.45
-0.54
-0.47
-0.355
-0.45
-0.39
-0.555
-0.505
-0.545
-0.57
-0.45
-0.435
-0.365
-0.375
-0.395
-0.415
-0.46
-0.36
-0.395
-0.36
-0.365
-0.315
-0.41
-0.6
-0.51
-0.545
-0.46
-0.445
-0.475
-0.45
-0.345
-0.425
-0.425
-0.36
-0.5
-0.535
-0.43
-0.39
-0.44
-0.385
-0.32
-0.39
-0.465
-0.345
-0.335
-0.44
-0.475
-0.38
-0.42
-0.455
-0.405
-0.43
-0.46
-0.395
-0.415
-0.285
-0.34
-0.46
-0.395
-0.405
-0.38
-0.315
-0.285
-0.34
-0.34
-0.38
-0.34
-0.39
-0.375
-0.28
-0.23
-0.205
-0.36
-0.275
-0.21
-0.195
-0.135
-0.18
-0.21
-0.18
-0.22
-0.24
-0.19
-0.165
-0.125
-0.17
-0.185
-0.02
-0.155
-0.205
-0.285
-0.17
-0.23
-0.26
-0.255
-0.3
-0.2
-0.26
-0.265
-0.135
-0.15
-0.205
-0.19
-0.24
-0.33
-0.425
-0.395
-0.425
-0.17
-0.17
-0.275
-0.29
-0.315
-0.33
-0.355
-0.405
-0.38
-0.38
-0.42
-0.485
-0.32
-0.415
-0.53
-0.59
-0.525
-0.465
-0.445
-0.475
-0.48
-0.52
-0.57
-0.44
-0.35
-0.385
-0.475
-0.465
-0.63
-0.515
-0.43
-0.515
-0.555
-0.53
-0.465
-0.47
-0.455
-0.43
-0.495
-0.415
-0.39
-0.47
-0.545
-0.52
-0.48
-0.395
-0.375
-0.49
-0.47
-0.535
-0.48
-0.36
-0.45
-0.49
-0.53
-0.515
-0.52
-0.475
-0.495
-0.485
-0.55
-0.52
-0.52
-0.475
-0.585
-0.54
-0.47
-0.49
-0.42
-0.525
-0.495
-0.43
-0.44
-0.41
-0.445
-0.445
-0.475
-0.475
-0.425
-0.48
-0.495
-0.53
-0.485
-0.52
-0.53
-0.32
-0.4
-0.43
-0.38
-0.47
-0.43
-0.475
-0.4
-0.5
-0.435
-0.465
-0.52
-0.45
-0.45
-0.475
-0.485
-0.455
-0.6
-0.52
-0.53
-0.515
-0.415
-0.445
-0.45
-0.495
-0.43
-0.53
-0.49
-0.495
-0.505
-0.52
-0.575
-0.5
-0.46
-0.48
-0.455
-0.49
-0.515
-0.585
-0.555
-0.46
-0.365
-0.405
-0.385
-0.42
-0.47
-0.495
-0.495
-0.49
-0.5
-0.405
-0.435
-0.47
-0.41
-0.455
-0.44
-0.49
-0.57
-0.565
-0.615
-0.545
-0.51
-0.46
-0.535
-0.585
-0.575
-0.57
-0.405
-0.465
-0.535
-0.51
-0.53
-0.425
-0.45
-0.43
-0.465
-0.525
-0.595
-0.59
-0.685
-0.53
-0.565
-0.495
-0.45
-0.49
-0.49
-0.42
-0.5
-0.445
-0.4
-0.385
-0.47
-0.555
-0.44
-0.395
-0.515
-0.525
-0.465
-0.385
-0.54
-0.58
-0.525
-0.48
-0.45
-0.56
-0.555
-0.58
-0.585
-0.55
-0.48
-0.505
-0.44
-0.415
-0.48
-0.37
-0.48
-0.565
-0.545
-0.535
-0.55
-0.605
-0.68
-0.655
-0.625
-0.585
-0.54
-0.37
-0.375
-0.465
-0.46
-0.49
-0.47
-0.485
-0.345
-0.39
-0.55
-0.53
-0.575
-0.435
-0.495
-0.59
-0.485
-0.52
-0.475
-0.445
-0.525
-0.48
-0.445
-0.54
-0.455
-0.495
-0.585
-0.59
-0.54
-0.455
-0.485
-0.5
-0.585
-0.52
-0.44
-0.5
-0.53
-0.5
-0.605
-0.64
-0.425
-0.445
-0.535
-0.57
-0.51
-0.49
-0.405
-0.45
-0.515
-0.47
-0.575
-0.535
-0.625
-0.51
-0.505
-0.5
-0.45
-0.465
-0.51
-0.47
-0.455
-0.51
-0.585
-0.52
-0.55
-0.54
-0.55
-0.585
-0.425
-0.41
-0.425
-0.61
-0.55
-0.565
-0.62
-0.585
-0.575
-0.55
-0.49
-0.6
-0.515
-0.595
-0.515
-0.405
-0.43
-0.49
-0.48
-0.48
-0.445
-0.45
-0.53
-0.505
-0.49
-0.465
-0.5
-0.41
-0.43
-0.59
-0.46
-0.635
-0.635
-0.545
-0.575
-0.57
-0.51
-0.56
-0.59
-0.545
-0.545
-0.52
-0.495
-0.485
-0.45
-0.39
-0.56
-0.445
-0.43
-0.54
-0.665
-0.635
-0.59
-0.515
-0.51
-0.585
-0.445
-0.455
-0.495
-0.535
-0.52
-0.505
-0.45
-0.305
-0.48
-0.62
-0.535
-0.45
-0.515
-0.575
-0.54
-0.365
-0.41
-0.45
-0.52
-0.475
-0.47
-0.455
-0.475
-0.5
-0.53
-0.525
-0.455
-0.385
-0.51
-0.455
-0.465
-0.54
-0.56
-0.575
-0.6
-0.65
-0.615
-0.48
-0.59
-0.595
-0.65
-0.515
-0.46
-0.525
-0.52
-0.47
-0.505
-0.495
-0.505
-0.64
-0.555
-0.5
-0.485
-0.5
-0.53
-0.595
-0.62
-0.565
-0.59
-0.57
-0.49
-0.525
-0.52
-0.48
-0.505
-0.53
-0.575
-0.505
-0.545
-0.545
-0.5
-0.425
-0.415
-0.39
-0.45
-0.345
-0.365
-0.295
-0.26
-0.215
-0.06
0.095
0.095
0.135
0.195
0.06
-0.135
-0.205
-0.225
-0.215
-0.415
-0.605
-0.685
-0.715
-0.665
-0.755
-0.76
-0.685
-0.66
-0.75
-0.66
-0.615
-0.575
-0.565
-0.53
-0.61
-0.625
-0.435
-0.575
-0.405
-0.445
-0.495
-0.585
-0.625
-0.635
-0.665
-0.56
-0.515
-0.56
-0.51
-0.43
-0.435
-0.48
-0.555
-0.54
-0.58
-0.65
-0.57
-0.72
-0.68
-0.49
-0.325
-0.32
-0.405
-0.405
-0.475
-0.475
-0.5
-0.535
-0.535
-0.445
-0.495
-0.515
-0.545
-0.485
-0.545
-0.55
-0.49
-0.42
-0.445
-0.55
-0.51
-0.5
-0.505
-0.34
-0.39
-0.37
-0.56
-0.525
-0.58
-0.39
-0.39
-0.585
-0.59
-0.52
-0.42
-0.425
-0.525
-0.55
-0.5
-0.42
-0.445
-0.41
-0.355
-0.48
-0.495
-0.535
-0.465
-0.46
-0.445
-0.355
-0.395
-0.385
-0.365
-0.39
-0.44
-0.39
-0.425
-0.415
-0.315
-0.42
-0.445
-0.315
-0.255
-0.365
-0.285
-0.32
-0.49
-0.34
-0.465
-0.42
-0.37
-0.325
-0.205
-0.12
-0.265
-0.255
-0.275
-0.345
-0.345
-0.285
-0.28
-0.33
-0.39
-0.235
-0.195
-0.205
-0.2
-0.115
-0.25
-0.315
-0.29
-0.24
-0.12
-0.155
-0.175
-0.225
-0.21
-0.175
-0.19
-0.125
-0.07
-0.16
-0.355
-0.395
-0.355
-0.32
-0.33
-0.295
-0.21
-0.28
-0.325
-0.37
-0.36
-0.43
-0.42
-0.44
-0.54
-0.465
-0.525
-0.48
-0.52
-0.435
-0.38
-0.48
-0.45
-0.435
-0.545
-0.45
-0.56
-0.63
-0.55
-0.425
-0.455
-0.545
-0.445
-0.41
-0.365
-0.52
-0.485
-0.48
-0.45
-0.575
-0.53
-0.58
-0.53
-0.55
-0.595
-0.51
-0.49
-0.52
-0.545
-0.545
-0.52
-0.545
-0.48
-0.53
-0.535
-0.57
-0.625
-0.52
-0.56
-0.56
-0.66
-0.48
-0.435
-0.5
-0.55
-0.68
-0.615
-0.455
-0.525
-0.78
-0.65
-0.465
-0.39
-0.315
-0.36
-0.535
-0.53
-0.6
-0.545
-0.525
-0.485
-0.38
-0.525
-0.545
-0.405
-0.49
-0.56
-0.57
-0.57
-0.575
-0.525
-0.5
-0.535
-0.49
-0.565
-0.55
-0.645
-0.63
-0.54
-0.575
-0.495
-0.395
-0.5
-0.57
-0.57
-0.58
-0.575
-0.53
-0.44
-0.565
-0.48
-0.53
-0.5
-0.555
-0.665
-0.565
-0.47
-0.505
-0.505
-0.37
-0.465
-0.475
-0.38
-0.44
-0.555
-0.42
-0.51
-0.645
-0.64
-0.575
-0.535
-0.525
-0.6
-0.645
-0.52
-0.345
-0.515
-0.52
-0.56
-0.525
-0.515
-0.535
-0.6
-0.63
-0.64
-0.565
-0.51
-0.55
-0.46
-0.525
-0.545
-0.565
-0.695
-0.65
-0.52
-0.48
-0.605
-0.58
-0.49
-0.525
-0.545
-0.485
-0.595
-0.54
-0.495
-0.53
-0.495
-0.435
-0.475
-0.565
-0.73
-0.725
-0.565
-0.59
-0.57
-0.52
-0.53
-0.55
-0.635
-0.62
-0.525
-0.55
-0.59
-0.55
-0.56
-0.575
-0.555
-0.525
-0.605
-0.55
-0.495
-0.535
-0.56
-0.59
-0.71
-0.625
-0.54
-0.55
-0.53
-0.455
-0.545
-0.585
-0.495
-0.435
-0.6
-0.505
-0.455
-0.565
-0.71
-0.69
-0.64
-0.52
-0.585
-0.56
-0.52
-0.555
-0.595
-0.515
-0.515
-0.495
-0.565
-0.595
-0.57
-0.56
-0.65
-0.64
-0.5
-0.56
-0.525
-0.51
-0.56
-0.59
-0.63
-0.545
-0.59
-0.575
-0.545
-0.455
-0.53
-0.635
-0.63
-0.705
-0.56
-0.615
-0.525
-0.48
-0.55
-0.575
-0.525
-0.595
-0.565
-0.53
-0.535
-0.505
-0.465
-0.535
-0.565
-0.715
-0.765
-0.655
-0.475
-0.525
-0.655
-0.47
-0.48
-0.555
-0.585
-0.545
-0.59
-0.625
-0.545
-0.53
-0.545
-0.6
-0.605
-0.615
-0.555
-0.465
-0.555
-0.565
-0.575
-0.57
-0.545
-0.57
-0.47
-0.48
-0.53
-0.535
-0.55
-0.63
-0.63
-0.745
-0.67
-0.6
-0.72
-0.725
-0.575
-0.485
-0.485
-0.52
-0.66
-0.565
-0.515
-0.56
-0.515
-0.47
-0.465
-0.575
-0.625
-0.705
-0.595
-0.565
-0.51
-0.595
-0.59
-0.54
-0.53
-0.595
-0.63
-0.585
-0.565
-0.525
-0.64
-0.65
-0.46
-0.535
-0.545
-0.635
-0.625
-0.535
-0.52
-0.565
-0.635
-0.615
-0.535
-0.48
-0.535
-0.505
-0.715
-0.63
-0.545
-0.585
-0.57
-0.59
-0.615
-0.585
-0.535
-0.48
-0.47
-0.555
-0.605
-0.595
-0.485
-0.455
-0.505
-0.47
-0.4
-0.545
-0.585
-0.51
-0.46
-0.59
-0.5
-0.6
-0.6
-0.565
-0.61
-0.675
-0.63
-0.6
-0.625
-0.7
-0.57
-0.475
-0.515
-0.6
-0.67
-0.585
-0.625
-0.63
-0.555
-0.525
-0.525
-0.435
-0.575
-0.525
-0.55
-0.645
-0.615
-0.71
-0.66
-0.605
-0.535
-0.535
-0.53
-0.505
-0.49
-0.545
-0.735
-0.6
-0.605
-0.565
-0.475
-0.56
-0.52
-0.585
-0.57
-0.555
-0.6
-0.52
-0.485
-0.515
-0.49
-0.455
-0.395
-0.31
-0.22
-0.185
-0.005
-0.035
0.01
0.115
0.155
0.155
0.12
0.02
-0.085
-0.275
-0.41
-0.525
-0.63
-0.72
-0.76
-0.65
-0.59
-0.62
-0.61
-0.635
-0.65
-0.61
-0.51
-0.48
-0.65
-0.755
-0.58
-0.71
-0.69
-0.61
-0.6
-0.57
-0.54
-0.6
-0.585
-0.615
-0.54
-0.525
-0.565
-0.535
-0.485
-0.46
-0.525
-0.585
-0.535
-0.45
-0.495
-0.51
-0.49
-0.5
-0.515
-0.56
-0.54
-0.48
-0.375
-0.4
-0.475
-0.465
-0.62
-0.65
-0.63
-0.61
-0.495
-0.46
-0.495
-0.51
-0.54
-0.555
-0.515
-0.52
-0.615
-0.53
-0.605
-0.475
-0.495
-0.44
-0.47
-0.47
-0.43
-0.345
-0.505
-0.525
-0.625
-0.665
-0.52
-0.475
-0.42
-0.41
-0.45
-0.55
-0.5
-0.45
-0.45
-0.45
-0.48
-0.465
-0.44
-0.385
-0.385
-0.45
-0.445
-0.415
-0.335
-0.36
-0.44
-0.43
-0.52
-0.565
-0.395
-0.45
-0.48
-0.43
-0.5
-0.48
-0.415
-0.465
-0.47
-0.43
-0.275
-0.34
-0.365
-0.325
-0.305
-0.33
-0.355
-0.34
-0.285
-0.33
-0.32
-0.325
-0.285
-0.255
-0.265
-0.34
-0.22
-0.32
-0.32
-0.18
-0.175
-0.225
-0.12
-0.09
-0.24
-0.195
-0.255
-0.25
-0.2
-0.285
-0.265
-0.29
-0.35
-0.235
-0.295
-0.195
-0.245
-0.305
-0.38
-0.31
-0.36
-0.39
-0.45
-0.385
-0.375
-0.38
-0.405
-0.4
-0.285
-0.4
-0.46
-0.335
-0.375
-0.495
-0.45
-0.485
-0.495
-0.56
-0.465
-0.43
-0.475
-0.575
-0.62
-0.615
-0.505
-0.44
-0.4
-0.415
-0.435
-0.51
-0.48
-0.46
-0.52
-0.49
-0.545
-0.63
-0.56
-0.51
-0.495
-0.465
-0.5
-0.52
-0.54
-0.545
-0.535
-0.445
-0.475
-0.505
-0.475
-0.495
-0.485
-0.56
-0.6
-0.595
-0.55
-0.545
-0.48
-0.525
-0.47
-0.505
-0.63
-0.49
-0.5
-0.5
-0.47
-0.56
-0.54
-0.65
-0.545
-0.49
-0.505
-0.505
-0.54
-0.565
-0.535
-0.485
-0.55
-0.69
-0.63
-0.43
-0.49
-0.56
-0.475
-0.485
-0.48
-0.49
-0.42
-0.445
-0.475
-0.525
-0.455
-0.535
-0.64
-0.48
-0.435
-0.45
-0.405
-0.525
-0.47
-0.58
-0.665
-0.52
-0.485
-0.555
-0.61
-0.54
-0.435
-0.485
-0.465
-0.455
-0.5
-0.475
-0.49
-0.53
-0.575
-0.55
-0.555
-0.655
-0.545
-0.52
-0.475
-0.555
-0.455
-0.49
-0.58
-0.59
-0.62
-0.535
-0.48
-0.385
-0.435
-0.425
-0.455
-0.595
-0.535
-0.62
-0.515
-0.505
-0.45
-0.53
-0.56
-0.485
-0.545
-0.635
-0.54
-0.565
-0.5
-0.445
-0.48
-0.525
-0.535
-0.53
-0.485
-0.505
-0.52
-0.515
-0.545
-0.61
-0.605
-0.56
-0.62
-0.735
-0.62
-0.545
-0.54
-0.635
-0.515
-0.475
-0.5
-0.53
-0.485
-0.525
-0.445
-0.52
-0.54
-0.52
-0.555
-0.575
-0.46
-0.475
-0.505
-0.58
-0.635
-0.6
-0.62
-0.615
-0.57
-0.645
-0.635
-0.57
-0.415
-0.665
-0.44
-0.37
-0.485
-0.525
-0.56
-0.52
-0.59
-0.685
-0.52
-0.54
-0.66
-0.685
-0.51
-0.445
-0.565
-0.62
-0.525
-0.48
-0.5
-0.515
-0.54
-0.595
-0.6
-0.49
-0.565
-0.635
-0.645
-0.585
-0.62
-0.55
-0.61
-0.645
-0.585
-0.555
-0.475
-0.54
-0.475
-0.48
-0.6
-0.535
-0.425
-0.42
-0.62
-0.71
-0.535
-0.5
-0.52
-0.56
-0.515
-0.62
-0.555
-0.58
-0.595
-0.57
-0.56
-0.535
-0.655
-0.61
-0.59
-0.43
-0.48
-0.695
-0.735
-0.66
-0.54
-0.66
-0.64
-0.59
-0.555
-0.57
-0.54
-0.44
-0.46
-0.545
-0.53
-0.56
-0.585
-0.55
-0.575
-0.575
-0.47
-0.64
-0.6
-0.505
-0.425
-0.515
-0.675
-0.645
-0.52
-0.615
-0.65
-0.675
-0.64
-0.665
-0.61
-0.66
-0.605
-0.59
-0.565
-0.57
-0.505
-0.47
-0.46
-0.47
-0.45
-0.565
-0.58
-0.57
-0.635
-0.62
-0.56
-0.615
-0.54
-0.595
-0.595
-0.77
-0.515
-0.46
-0.585
-0.525
-0.495
-0.62
-0.605
-0.525
-0.57
-0.65
-0.71
-0.465
-0.475
-0.6
-0.56
-0.595
-0.5
-0.57
-0.67
-0.545
-0.525
-0.49
-0.555
-0.52
-0.585
-0.575
-0.465
-0.525
-0.53
-0.61
-0.615
-0.735
-0.75
-0.68
-0.65
-0.505
-0.53
-0.5
-0.53
-0.55
-0.525
-0.505
-0.475
-0.605
-0.51
-0.62
-0.605
-0.665
-0.655
-0.56
-0.54
-0.42
-0.5
-0.44
-0.485
-0.485
-0.42
-0.505
-0.55
-0.525
-0.48
-0.455
-0.515
-0.615
-0.585
-0.49
-0.495
-0.55
-0.56
-0.51
-0.565
-0.55
-0.62
-0.57
-0.63
-0.6
-0.675
-0.56
-0.56
-0.55
-0.555
-0.62
-0.585
-0.59
-0.66
-0.585
-0.565
-0.57
-0.72
-0.575
-0.6
-0.58
-0.52
-0.545
-0.605
-0.53
-0.55
-0.55
-0.62
-0.53
-0.555
-0.575
-0.51
-0.62
-0.56
-0.45
-0.405
-0.355
-0.61
-0.68
-0.62
-0.59
-0.495
-0.395
-0.3
-0.265
-0.105
0.065
0.025
0.03
0.045
0.185
0.045
0.05
-0.015
-0.205
-0.125
-0.29
-0.47
-0.48
-0.58
-0.745
-0.725
-0.69
-0.73
-0.555
-0.64
-0.615
-0.61
-0.57
-0.495
-0.555
-0.665
-0.73
-0.64
-0.535
-0.595
-0.54
-0.47
-0.605
-0.665
-0.595
-0.735
-0.68
-0.49
-0.465
-0.445
-0.535
-0.52
-0.61
-0.57
-0.52
-0.6
-0.57
-0.575
-0.595
-0.7
-0.56
-0.535
-0.58
-0.61
-0.635
-0.54
-0.515
-0.63
-0.59
-0.515
-0.515
-0.47
-0.41
-0.54
-0.59
-0.475
-0.495
-0.58
-0.575
-0.61
-0.62
-0.555
-0.565
-0.49
-0.485
-0.565
-0.565
-0.47
-0.435
-0.46
-0.575
-0.58
-0.565
-0.52
-0.68
-0.625
-0.575
-0.505
-0.52
-0.5
-0.6
-0.52
-0.495
-0.445
-0.52
-0.54
-0.49
-0.475
-0.5
-0.585
-0.585
-0.605
-0.545
-0.555
-0.515
-0.535
-0.475
-0.475
-0.445
-0.485
-0.475
-0.465
-0.415
-0.465
-0.53
-0.455
-0.415
-0.34
-0.41
-0.525
-0.435
-0.39
-0.485
-0.44
-0.355
-0.255
-0.35
-0.39
-0.47
-0.335
-0.115
-0.26
-0.475
-0.49
-0.415
-0.36
-0.395
-0.33
-0.35
-0.19
-0.34
-0.5
-0.33
-0.235
-0.34
-0.33
-0.345
-0.305
-0.26
-0.21
-0.265
-0.315
-0.33
-0.375
-0.38
-0.345
-0.35
-0.33
-0.355
-0.32
-0.445
-0.425
-0.4
-0.46
-0.355
-0.505
-0.57
-0.5
-0.445
-0.335
-0.43
-0.425
-0.55
-0.66
-0.6
-0.475
-0.51
-0.625
-0.695
-0.525
-0.485
-0.51
-0.585
-0.665
-0.715
-0.695
-0.65
-0.515
-0.52
-0.54
-0.52
-0.445
-0.605
-0.55
-0.53
-0.63
-0.65
-0.53
-0.66
-0.59
-0.595
-0.655
-0.555
-0.5
-0.555
-0.56
-0.57
-0.61
-0.52
-0.48
-0.505
-0.55
-0.62
-0.7
-0.66
-0.63
-0.575
-0.52
-0.575
-0.58
-0.505
-0.61
-0.58
-0.595
-0.7
-0.7
-0.59
-0.575
-0.54
-0.55
-0.68
-0.65
-0.5
-0.48
-0.53
-0.53
-0.535
-0.585
-0.67
-0.575
-0.58
-0.505
-0.59
-0.56
-0.605
-0.55
-0.57
-0.62
-0.57
-0.515
-0.52
-0.535
-0.54
-0.52
-0.56
-0.695
-0.525
-0.44
-0.515
-0.67
-0.72
-0.67
-0.51
-0.49
-0.63
-0.55
-0.63
-0.58
-0.485
-0.495
-0.495
-0.515
-0.585
-0.555
-0.63
-0.64
-0.59
-0.59
-0.62
-0.585
-0.525
-0.53
-0.55
-0.545
-0.535
-0.57
-0.6
-0.515
-0.515
-0.67
-0.62
-0.53
-0.56
-0.595
-0.585
-0.55
-0.475
-0.565
-0.535
-0.515
-0.53
-0.57
-0.535
-0.57
-0.585
-0.595
-0.615
-0.56
-0.595
-0.645
-0.595
-0.645
-0.59
-0.635
-0.55
-0.48
-0.505
-0.53
-0.565
-0.725
-0.665
-0.575
-0.51
-0.64
-0.635
-0.63
-0.575
-0.485
-0.51
-0.675
-0.67
-0.54
-0.45
-0.5
-0.68
-0.61
-0.535
-0.515
-0.55
-0.565
-0.6
-0.575
-0.545
-0.605
-0.73
-0.665
-0.66
-0.675
-0.585
-0.57
-0.575
-0.59
-0.595
-0.49
-0.605
-0.615
-0.54
-0.465
-0.6
-0.625
-0.605
-0.48
-0.575
-0.61
-0.655
-0.605
-0.625
-0.6
-0.56
-0.55
-0.6
-0.595
-0.6
-0.575
-0.56
-0.57
-0.565
-0.66
-0.59
-0.475
-0.555
-0.66
-0.595
-0.525
-0.54
-0.63
-0.61
-0.52
-0.525
-0.65
-0.635
-0.645
-0.605
-0.63
-0.6
-0.57
-0.595
-0.55
-0.58
-0.56
-0.565
-0.575
-0.595
-0.62
-0.625
-0.78
-0.555
-0.475
-0.5
-0.57
-0.66
-0.525
-0.575
-0.69
-0.625
-0.605
-0.555
-0.54
-0.525
-0.455
-0.43
-0.505
-0.625
-0.545
-0.635
-0.595
-0.505
-0.6
-0.665
-0.625
-0.585
-0.595
-0.715
-0.64
-0.595
-0.53
-0.66
-0.685
-0.67
-0.58
-0.53
-0.61
-0.61
-0.525
-0.545
-0.52
-0.455
-0.515
-0.64
-0.655
-0.66
-0.71
-0.64
-0.69
-0.53
-0.465
-0.49
-0.495
-0.525
-0.635
-0.685
-0.555
-0.545
-0.54
-0.495
-0.53
-0.615
-0.64
-0.555
-0.52
-0.455
-0.4
-0.475
-0.55
-0.625
-0.62
-0.55
-0.575
-0.58
-0.565
-0.54
-0.585
-0.545
-0.55
-0.595
-0.58
-0.57
-0.66
-0.685
-0.6
-0.63
-0.815
-0.73
-0.54
-0.5
-0.535
-0.51
-0.435
-0.495
-0.565
-0.6
-0.585
-0.525
-0.54
-0.505
-0.595
-0.49
-0.635
-0.605
-0.54
-0.49
-0.425
-0.48
-0.47
-0.485
-0.435
-0.455
-0.485
-0.435
-0.575
-0.585
-0.54
-0.52
-0.42
-0.525
-0.57
-0.57
-0.59
-0.565
-0.415
-0.505
-0.465
-0.525
-0.62
-0.66
-0.67
-0.59
-0.67
-0.63
-0.62
-0.6
-0.57
-0.55
-0.575
-0.56
-0.51
-0.505
-0.47
-0.57
-0.59
-0.465
-0.57
-0.615
-0.525
-0.485
-0.495
-0.545
-0.64
-0.62
-0.525
-0.46
-0.6
-0.585
-0.68
-0.485
-0.51
-0.565
-0.6
-0.6
-0.545
-0.55
-0.495
-0.58
-0.635
-0.525
-0.49
-0.45
-0.535
-0.54
-0.405
-0.37
-0.245
0.005
0.12
0.145
0.14
0.235
0.235
0.15
0.11
0.04
-0.09
-0.095
-0.24
-0.31
-0.42
-0.55
-0.61
-0.635
-0.68
-0.555
-0.56
-0.67
-0.685
-0.685
-0.595
-0.63
-0.69
-0.645
-0.59
-0.59
-0.61
-0.625
-0.615
-0.565
-0.45
-0.535
-0.52
-0.515
-0.58
-0.545
-0.575
-0.725
-0.615
-0.58
-0.72
-0.635
-0.54
-0.46
-0.39
-0.335
-0.51
-0.575
-0.51
-0.515
-0.55
-0.47
-0.525
-0.56
-0.59
-0.665
-0.58
-0.56
-0.405
-0.425
-0.6
-0.535
-0.495
-0.505
-0.535
-0.5
-0.5
-0.69
-0.615
-0.68
-0.465
-0.51
-0.445
-0.53
-0.54
-0.53
-0.505
-0.485
-0.51
-0.53
-0.61
-0.49
-0.425
-0.465
-0.53
-0.545
-0.555
-0.485
-0.46
-0.35
-0.4
-0.52
-0.415
-0.445
-0.585
-0.51
-0.51
-0.495
-0.53
-0.5
-0.475
-0.475
-0.51
-0.54
-0.66
-0.355
-0.335
-0.465
-0.465
-0.485
-0.42
-0.24
-0.285
-0.365
-0.355
-0.35
-0.29
-0.4
-0.405
-0.39
-0.415
-0.405
-0.375
-0.29
-0.25
-0.315
-0.335
-0.36
-0.36
-0.24
-0.225
-0.3
-0.265
-0.27
-0.34
-0.355
-0.335
-0.285
-0.245
-0.245
-0.255
-0.305
-0.245
-0.255
-0.23
-0.29
-0.345
-0.275
-0.235
-0.195
-0.17
-0.135
-0.17
-0.175
-0.195
-0.36
-0.44
-0.38
-0.365
-0.35
-0.395
-0.48
-0.47
-0.415
-0.51
-0.565
-0.41
-0.305
-0.33
-0.48
-0.54
-0.555
-0.51
-0.575
-0.6
-0.46
-0.435
-0.475
-0.425
-0.46
-0.49
-0.545
-0.545
-0.54
-0.58
-0.61
-0.645
-0.535
-0.57
-0.545
-0.515
-0.58
-0.58
-0.55
-0.53
-0.475
-0.415
-0.57
-0.675
-0.53
-0.555
-0.515
-0.545
-0.66
-0.53
-0.495
-0.47
-0.55
-0.67
-0.565
-0.61
-0.385
-0.385
-0.47
-0.57
-0.675
-0.615
-0.63
-0.635
-0.615
-0.55
-0.51
-0.54
-0.58
-0.455
-0.455
-0.53
-0.65
-0.585
-0.55
-0.64
-0.615
-0.575
-0.54
-0.515
-0.46
-0.38
-0.595
-0.61
-0.595
-0.55
-0.59
-0.51
-0.435
-0.45
-0.56
-0.57
-0.585
-0.57
-0.58
-0.485
-0.535
-0.475
-0.425
-0.445
-0.51
-0.52
-0.53
-0.58
-0.605
-0.53
-0.54
-0.53
-0.45
-0.595
-0.565
-0.505
-0.56
-0.67
-0.68
-0.545
-0.545
-0.595
-0.59
-0.46
-0.45
-0.5
-0.475
-0.61
-0.585
-0.575
-0.64
-0.62
-0.54
-0.515
-0.475
-0.465
-0.55
-0.415
-0.44
-0.6
-0.595
-0.625
-0.755
-0.765
-0.615
-0.47
-0.47
-0.52
-0.5
-0.495
-0.57
-0.47
-0.38
-0.475
-0.65
-0.695
-0.66
-0.695
-0.695
-0.655
-0.56
-0.57
-0.615
-0.465
-0.525
-0.54
-0.535
-0.49
-0.55
-0.62
-0.665
-0.69
-0.605
-0.48
-0.48
-0.535
-0.565
-0.625
-0.5
-0.67
-0.555
-0.525
-0.58
-0.505
-0.615
-0.555
-0.595
-0.665
-0.685
-0.62
-0.605
-0.585
-0.655
-0.565
-0.715
-0.64
-0.62
-0.545
-0.48
-0.615
-0.495
-0.605
-0.56
-0.58
-0.585
-0.705
-0.585
-0.5
-0.59
-0.6
-0.585
-0.565
-0.59
-0.59
-0.67
-0.555
-0.59
-0.615
-0.64
-0.495
-0.5
-0.515
-0.545
-0.61
-0.57
-0.59
-0.68
-0.625
-0.49
-0.475
-0.525
-0.565
-0.555
-0.59
-0.6
-0.625
-0.605
-0.61
-0.64
-0.635
-0.645
-0.615
-0.505
-0.545
-0.63
-0.735
-0.645
-0.63
-0.53
-0.58
-0.57
-0.645
-0.595
-0.685
-0.64
-0.58
-0.495
-0.49
-0.585
-0.56
-0.545
-0.58
-0.475
-0.585
-0.53
-0.56
-0.57
-0.565
-0.575
-0.65
-0.595
-0.6
-0.635
-0.575
-0.585
-0.425
-0.47
-0.51
-0.445
-0.625
-0.705
-0.745
-0.705
-0.67
-0.675
-0.705
-0.65
-0.58
-0.455
-0.505
-0.6
-0.54
-0.57
-0.52
-0.625
-0.585
-0.61
-0.57
-0.6
-0.615
-0.59
-0.58
-0.645
-0.595
-0.605
-0.645
-0.545
-0.55
-0.68
-0.56
-0.575
-0.54
-0.47
-0.53
-0.595
-0.53
-0.495
-0.54
-0.55
-0.445
-0.44
-0.63
-0.61
-0.59
-0.62
-0.635
-0.515
-0.595
-0.6
-0.605
-0.615
-0.54
-0.585
-0.695
-0.61
-0.71
-0.7
-0.605
-0.535
-0.6
-0.64
-0.705
-0.56
-0.645
-0.665
-0.64
-0.54
-0.495
-0.535
-0.46
-0.465
-0.555
-0.57
-0.51
-0.52
-0.49
-0.505
-0.49
-0.565
-0.555
-0.535
-0.535
-0.505
-0.565
-0.64
-0.585
-0.54
-0.555
-0.565
-0.535
-0.5
-0.565
-0.55
-0.605
-0.55
-0.575
-0.61
-0.67
-0.74
-0.66
-0.575
-0.62
-0.45
-0.555
-0.5
-0.5
-0.5
-0.59
-0.71
-0.635
-0.425
-0.5
-0.54
-0.545
-0.595
-0.59
-0.65
-0.645
-0.635
-0.525
-0.58
-0.645
-0.545
-0.565
-0.625
-0.585
-0.545
-0.475
-0.51
-0.605
-0.68
-0.59
-0.505
-0.565
-0.615
-0.685
-0.635
-0.63
-0.62
-0.555
-0.63
-0.64
-0.675
-0.61
-0.505
-0.47
-0.575
-0.335
-0.29
-0.25
-0.125
-0.025
0.09
0.01
-0.02
0.015
0.15
0.06
-0.08
-0.1
-0.245
-0.395
-0.455
-0.54
-0.7
-0.84
-0.77
-0.685
-0.66
-0.69
-0.68
-0.755
-0.73
-0.645
-0.52
-0.6
-0.75
-0.66
-0.61
-0.635
-0.77
-0.675
-0.68
-0.705
-0.685
-0.7
-0.625
-0.44
-0.465
-0.63
-0.625
-0.595
-0.485
-0.605
-0.56
-0.575
-0.52
-0.48
-0.505
-0.47
-0.6
-0.655
-0.59
-0.61
-0.585
-0.57
-0.6
-0.63
-0.64
-0.51
-0.465
-0.58
-0.545
-0.56
-0.535
-0.36
-0.365
-0.57
-0.665
-0.61
-0.58
-0.625
-0.63
-0.685
-0.585
-0.54
-0.55
-0.575
-0.585
-0.45
-0.475
-0.515
-0.47
-0.515
-0.445
-0.455
-0.535
-0.5
-0.565
-0.555
-0.55
-0.505
-0.54
-0.465
-0.485
-0.57
-0.425
-0.355
-0.45
-0.465
-0.505
-0.58
-0.575
-0.535
-0.41
-0.34
-0.455
-0.535
-0.48
-0.365
-0.375
-0.44
-0.455
-0.485
-0.575
-0.55
-0.54
-0.515
-0.4
-0.38
-0.3
-0.26
-0.415
-0.49
-0.465
-0.395
-0.295
-0.25
-0.33
-0.34
-0.325
-0.39
-0.295
-0.26
-0.225
-0.295
-0.3
-0.29
-0.19
-0.195
-0.29
-0.33
-0.28
-0.255
-0.35
-0.425
-0.365
-0.29
-0.245
-0.23
-0.27
-0.255
-0.315
-0.285
-0.265
-0.34
-0.375
-0.365
-0.37
-0.34
-0.46
-0.54
-0.4
-0.415
-0.55
-0.53
-0.44
-0.305
-0.42
-0.62
-0.535
-0.46
-0.445
-0.52
-0.555
-0.485
-0.475
-0.535
-0.645
-0.55
-0.445
-0.47
-0.58
-0.585
-0.54
-0.6
-0.555
-0.59
-0.63
-0.615
-0.635
-0.585
-0.535
-0.54
-0.525
-0.63
-0.56
-0.55
-0.73
-0.715
-0.775
-0.61
-0.515
-0.63
-0.645
-0.625
-0.59
-0.535
-0.55
-0.555
-0.725
-0.575
-0.54
-0.73
-0.735
-0.58
-0.585
-0.535
-0.51
-0.655
-0.655
-0.59
-0.57
-0.575
-0.665
-0.58
-0.55
-0.51
-0.655
-0.63
-0.62
-0.56
-0.485
-0.555
-0.57
-0.54
-0.605
-0.525
-0.625
-0.52
-0.49
-0.63
-0.69
-0.695
-0.635
-0.535
-0.47
-0.555
-0.66
-0.69
-0.595
-0.58
-0.55
-0.515
-0.58
-0.655
-0.505
-0.605
-0.64
-0.635
-0.68
-0.61
-0.535
-0.515
-0.605
-0.64
-0.65
-0.56
-0.51
-0.51
-0.58
-0.695
-0.54
-0.51
-0.575
-0.53
-0.585
-0.645
-0.475
-0.475
-0.72
-0.61
-0.48
-0.575
-0.61
-0.585
-0.545
-0.49
-0.615
-0.755
-0.69
-0.625
-0.54
-0.525
-0.54
-0.62
-0.6
-0.63
-0.605
-0.51
-0.47
-0.67
-0.65
-0.66
-0.575
-0.61
-0.535
-0.54
-0.52
-0.6
-0.74
-0.67
-0.565
-0.7
-0.615
-0.53
-0.59
-0.635
-0.535
-0.67
-0.665
-0.565
-0.59
-0.58
-0.57
-0.635
-0.53
-0.445
-0.555
-0.56
-0.595
-0.755
-0.685
-0.72
-0.635
-0.555
-0.535
-0.57
-0.385
-0.475
-0.605
-0.63
-0.655
-0.595
-0.54
-0.58
-0.48
-0.455
-0.49
-0.56
-0.625
-0.53
-0.55
-0.65
-0.74
-0.78
-0.56
-0.51
-0.695
-0.785
-0.69
-0.62
-0.645
-0.63
-0.565
-0.565
-0.665
-0.635
-0.46
-0.485
-0.555
-0.57
-0.56
-0.74
-0.675
-0.56
-0.42
-0.445
-0.62
-0.62
-0.665
-0.48
-0.495
-0.57
-0.55
-0.54
-0.615
-0.695
-0.56
-0.565
-0.475
-0.51
-0.67
-0.67
-0.63
-0.55
-0.58
-0.68
-0.75
-0.615
-0.455
-0.42
-0.59
-0.68
-0.64
-0.66
-0.62
-0.605
-0.565
-0.57
-0.595
-0.575
-0.565
-0.635
-0.55
-0.495
-0.455
-0.54
-0.595
-0.445
-0.5
-0.555
-0.635
-0.665
-0.66
-0.605
-0.61
-0.73
-0.73
-0.575
-0.405
-0.41
-0.52
-0.655
-0.54
-0.62
-0.645
-0.705
-0.71
-0.66
-0.575
-0.515
-0.585
-0.495
-0.58
-0.55
-0.655
-0.535
-0.57
-0.57
-0.545
-0.54
-0.6
-0.565
-0.51
-0.525
-0.565
-0.52
-0.495
-0.54
-0.59
-0.575
-0.635
-0.585
-0.525
-0.615
-0.74
-0.655
-0.665
-0.59
-0.555
-0.52
-0.61
-0.56
-0.56
-0.64
-0.715
-0.645
-0.545
-0.68
-0.575
-0.5
-0.52
-0.51
-0.575
-0.565
-0.51
-0.575
-0.605
-0.57
-0.565
-0.64
-0.58
-0.47
-0.52
-0.57
-0.53
-0.535
-0.555
-0.63
-0.535
-0.58
-0.655
-0.59
-0.545
-0.66
-0.6
-0.505
-0.475
-0.445
-0.455
-0.585
-0.565
-0.48
-0.53
-0.515
-0.505
-0.505
-0.515
-0.49
-0.485
-0.49
-0.5
-0.625
-0.61
-0.51
-0.625
-0.705
-0.76
-0.775
-0.59
-0.575
-0.45
-0.43
-0.51
-0.58
-0.59
-0.565
-0.595
-0.56
-0.57
-0.655
-0.66
-0.66
-0.655
-0.585
-0.51
-0.545
-0.445
-0.585
-0.7
-0.63
-0.66
-0.62
-0.43
-0.555
-0.605
-0.655
-0.61
-0.64
-0.58
-0.485
-0.59
-0.6
-0.56
-0.62
-0.56
-0.445
-0.455
-0.5
-0.58
-0.635
-0.555
-0.51
-0.43
-0.215
-0.165
-0.14
-0.055
0.15
0.12
0.125
0.155
0.15
0.13
-0.015
-0.205
-0.275
-0.335
-0.51
-0.515
-0.54
-0.805
-0.82
-0.66
-0.705
-0.84
-0.655
-0.61
-0.475
-0.65
-0.71
-0.71
-0.66
-0.59
-0.455
-0.575
-0.525
-0.55
-0.595
-0.595
-0.55
-0.465
-0.6
-0.6
-0.53
-0.63
-0.63
-0.61
-0.66
-0.605
-0.525
-0.515
-0.535
-0.465
-0.575
-0.45
-0.59
-0.58
-0.395
-0.39
-0.46
-0.57
-0.61
-0.585
-0.565
-0.535
-0.42
-0.425
-0.565
-0.845
-0.67
-0.585
-0.54
-0.57
-0.63
-0.64
-0.545
-0.445
-0.395
-0.465
-0.53
-0.505
-0.61
-0.605
-0.45
-0.455
-0.395
-0.525
-0.56
-0.58
-0.57
-0.495
-0.53
-0.535
-0.475
-0.495
-0.49
-0.465
-0.5
-0.385
-0.515
-0.545
-0.565
-0.65
-0.6
-0.505
-0.455
-0.465
-0.46
-0.415
-0.505
-0.49
-0.395
-0.505
-0.395
-0.535
-0.545
-0.53
-0.55
-0.415
-0.31
-0.33
-0.445
-0.48
-0.435
-0.405
-0.465
-0.37
-0.4
-0.37
-0.315
-0.365
-0.205
-0.255
-0.31
-0.32
-0.36
-0.33
-0.395
-0.425
-0.335
-0.34
-0.39
-0.265
-0.325
-0.345
-0.315
-0.25
-0.195
-0.2
-0.185
-0.235
-0.24
-0.285
-0.27
-0.315
-0.275
-0.335
-0.375
-0.365
-0.305
-0.28
-0.435
-0.39
-0.335
-0.395
-0.345
-0.35
-0.38
-0.39
-0.365
-0.49
-0.465
-0.505
-0.46
-0.37
-0.52
-0.415
-0.35
-0.435
-0.415
-0.53
-0.6
-0.625
-0.59
-0.5
-0.515
-0.51
-0.585
-0.605
-0.59
-0.485
-0.49
-0.495
-0.53
-0.53
-0.575
-0.655
-0.68
-0.5
-0.515
-0.57
-0.565
-0.625
-0.595
-0.595
-0.47
-0.685
-0.61
-0.595
-0.545
-0.605
-0.605
-0.54
-0.49
-0.56
-0.54
-0.635
-0.66
-0.56
-0.58
-0.435
-0.435
-0.48
-0.56
-0.595
-0.63
-0.555
-0.53
-0.59
-0.535
-0.655
-0.705
-0.53
-0.455
-0.445
-0.56
-0.655
-0.565
-0.49
-0.47
-0.615
-0.615
-0.56
-0.585
-0.72
-0.715
-0.635
-0.66
-0.615
-0.53
-0.45
-0.365
-0.41
-0.41
-0.665
-0.67
-0.61
-0.595
-0.575
-0.49
-0.475
-0.495
-0.58
-0.63
-0.55
-0.505
-0.505
-0.53
-0.415
-0.56
-0.49
-0.57
-0.495
-0.53
-0.44
-0.59
-0.69
-0.605
-0.525
-0.59
-0.545
-0.57
-0.605
-0.685
-0.59
-0.45
-0.7
-0.475
-0.49
-0.505
-0.525
-0.62
-0.565
-0.625
-0.575
-0.6
-0.545
-0.52
-0.605
-0.75
-0.575
-0.495
-0.54
-0.59
-0.6
-0.495
-0.46
-0.495
-0.51
-0.575
-0.54
-0.525
-0.545
-0.565
-0.595
-0.565
-0.595
-0.68
-0.61
-0.555
-0.53
-0.57
-0.585
-0.6
-0.515
-0.635
-0.57
-0.515
-0.525
-0.565
-0.565
-0.565
-0.58
-0.6
-0.645
-0.575
-0.68
-0.575
-0.595
-0.62
-0.61
-0.56
-0.535
-0.61
-0.61
-0.56
-0.57
-0.58
-0.73
-0.625
-0.625
-0.52
-0.565
-0.615
-0.52
-0.56
-0.54
-0.6
-0.53
-0.61
-0.56
-0.585
-0.555
-0.52
-0.635
-0.61
-0.61
-0.7
-0.605
-0.63
-0.58
-0.545
-0.515
-0.61
-0.57
-0.605
-0.595
-0.605
-0.61
-0.585
-0.58
-0.62
-0.56
-0.515
-0.545
-0.57
-0.585
-0.615
-0.735
-0.595
-0.405
-0.54
-0.57
-0.585
-0.695
-0.71
-0.71
-0.59
-0.46
-0.485
-0.645
-0.645
-0.605
-0.7
-0.72
-0.57
-0.5
-0.46
-0.595
-0.64
-0.53
-0.54
-0.615
-0.5
-0.52
-0.65
-0.7
-0.715
-0.7
-0.64
-0.68
-0.745
-0.505
-0.47
-0.43
-0.555
-0.665
-0.675
-0.495
-0.525
-0.59
-0.44
-0.465
-0.69
-0.595
-0.535
-0.61
-0.56
-0.525
-0.54
-0.595
-0.675
-0.69
-0.605
-0.635
-0.64
-0.585
-0.55
-0.62
-0.57
-0.675
-0.635
-0.65
-0.49
-0.65
-0.64
-0.62
-0.64
-0.63
-0.665
-0.54
-0.515
-0.44
-0.49
-0.65
-0.525
-0.525
-0.545
-0.63
-0.685
-0.655
-0.595
-0.525
-0.575
-0.535
-0.52
-0.495
-0.585
-0.58
-0.625
-0.66
-0.66
-0.62
-0.6
-0.595
-0.585
-0.545
-0.61
-0.73
-0.605
-0.52
-0.685
-0.63
-0.505
-0.525
-0.555
-0.465
-0.595
-0.655
-0.585
-0.6
-0.6
-0.515
-0.705
-0.64
-0.5
-0.46
-0.585
-0.535
-0.575
-0.66
-0.695
-0.605
-0.6
-0.585
-0.515
-0.535
-0.61
-0.585
-0.61
-0.59
-0.485
-0.61
-0.625
-0.7
-0.665
-0.485
-0.5
-0.635
-0.615
-0.47
-0.605
-0.57
-0.56
-0.54
-0.5
-0.625
-0.58
-0.52
-0.505
-0.545
-0.62
-0.615
-0.59
-0.58
-0.635
-0.48
-0.535
-0.535
-0.54
-0.62
-0.675
-0.485
-0.625
-0.61
-0.62
-0.53
-0.55
-0.555
-0.59
-0.57
-0.49
-0.5
-0.63
-0.545
-0.495
-0.525
-0.655
-0.6
-0.63
-0.615
-0.695
-0.6
-0.54
-0.575
-0.565
-0.59
-0.63
-0.655
-0.675
-0.65
-0.665
-0.66
-0.61
-0.71
-0.57
-0.65
-0.575
-0.555
-0.665
-0.645
-0.615
-0.575
-0.56
-0.58
-0.575
-0.6
-0.645
-0.57
-0.545
-0.585
-0.645
-0.615
-0.505
-0.475
-0.255
-0.13
-0.11
0.005
0.15
0.31
0.17
0.155
0.075
0.12
0.095
-0.15
-0.32
-0.42
-0.395
-0.485
-0.77
-0.775
-0.705
-0.58
-0.65
-0.64
-0.725
-0.745
-0.785
-0.7
-0.59
-0.65
-0.625
-0.62
-0.6
-0.64
-0.625
-0.535
-0.62
-0.66
-0.66
-0.615
-0.55
-0.595
-0.605
-0.645
-0.585
-0.555
-0.635
-0.65
-0.545
-0.485
-0.43
-0.525
-0.54
-0.59
-0.59
-0.59
-0.58
-0.54
-0.565
-0.6
-0.685
-0.635
-0.555
-0.68
-0.575
-0.485
-0.565
-0.69
-0.595
-0.495
-0.48
-0.59
-0.7
-0.62
-0.595
-0.565
-0.59
-0.535
-0.555
-0.465
-0.56
-0.575
-0.67
-0.515
-0.51
-0.525
-0.52
-0.49
-0.495
-0.48
-0.56
-0.62
-0.585
-0.545
-0.595
-0.605
-0.605
-0.455
-0.41
-0.49
-0.57
-0.595
-0.545
-0.635
-0.615
-0.505
-0.525
-0.575
-0.545
-0.525
-0.535
-0.48
-0.405
-0.4
-0.44
-0.525
-0.545
-0.53
-0.55
-0.515
-0.415
-0.39
-0.415
-0.42
-0.415
-0.425
-0.44
-0.35
-0.375
-0.36
-0.33
-0.34
-0.205
-0.345
-0.41
-0.385
-0.345
-0.28
-0.285
-0.32
-0.38
-0.395
-0.435
-0.445
-0.435
-0.415
-0.27
-0.31
-0.35
-0.27
-0.245
-0.215
-0.225
-0.335
-0.385
-0.355
-0.26
-0.3
-0.385
-0.37
-0.375
-0.31
-0.25
-0.36
-0.425
-0.405
-0.415
-0.445
-0.465
-0.47
-0.46
-0.475
-0.495
-0.45
-0.38
-0.475
-0.525
-0.4
-0.335
-0.485
-0.655
-0.56
-0.505
-0.535
-0.595
-0.6
-0.6
-0.665
-0.68
-0.6
-0.585
-0.64
-0.655
-0.545
-0.58
-0.55
-0.605
-0.615
-0.57
-0.6
-0.725
-0.675
-0.64
-0.56
-0.44
-0.6
-0.56
-0.495
-0.575
-0.6
-0.62
-0.63
-0.625
-0.61
-0.58
-0.555
-0.58
-0.58
-0.52
-0.465
-0.595
-0.7
-0.615
-0.64
-0.66
-0.615
-0.61
-0.61
-0.595
-0.555
-0.64
-0.715
-0.725
-0.625
-0.545
-0.6
-0.645
-0.64
-0.565
-0.61
-0.565
-0.535
-0.48
-0.575
-0.51
-0.55
-0.59
-0.705
-0.605
-0.465
-0.62
-0.705
-0.6
-0.675
-0.655
-0.63
-0.565
-0.53
-0.585
-0.465
-0.54
-0.6
-0.625
-0.535
-0.5
-0.57
-0.655
-0.495
-0.485
-0.505
-0.535
-0.575
-0.6
-0.615
-0.58
-0.64
-0.625
-0.58
-0.74
-0.615
-0.66
-0.54
-0.61
-0.48
-0.42
-0.605
-0.575
-0.56
-0.57
-0.51
-0.635
-0.57
-0.47
-0.655
-0.565
-0.57
-0.615
-0.655
-0.635
-0.57
-0.51
-0.605
-0.53
-0.595
-0.645
-0.5
-0.545
-0.52
-0.545
-0.495
-0.505
-0.545
-0.62
-0.595
-0.47
-0.64
-0.675
-0.64
-0.59
-0.625
-0.62
-0.64
-0.715
-0.685
-0.72
-0.595
-0.505
-0.455
-0.525
-0.66
-0.56
-0.68
-0.65
-0.55
-0.67
-0.59
-0.63
-0.645
-0.605
-0.525
-0.475
-0.52
-0.53
-0.55
-0.515
-0.48
-0.625
-0.66
-0.535
-0.62
-0.61
-0.61
-0.62
-0.6
-0.435
-0.59
-0.675
-0.58
-0.535
-0.555
-0.565
-0.6
-0.54
-0.58
-0.68
-0.585
-0.645
-0.615
-0.62
-0.675
-0.665
-0.63
-0.565
-0.565
-0.555
-0.645
-0.76
-0.685
-0.605
-0.605
-0.66
-0.655
-0.57
-0.54
-0.51
-0.52
-0.52
-0.61
-0.56
-0.475
-0.555
-0.615
-0.575
-0.54
-0.515
-0.5
-0.625
-0.64
