# TIPE ECG 2021 - ECG-ID Database v1.0.0 par Physionet
# [Numéro de la personne, Période d'échantillonnage, Prénom, Age, Sexe, Date de l'enregistrement]
[75, 0.002, Richard, 25, H, 13.05.2005]
-0.68
-0.62
-0.625
-0.63
-0.645
-0.64
-0.625
-0.595
-0.575
-0.595
-0.62
-0.64
-0.645
-0.655
-0.645
-0.64
-0.64
-0.675
-0.68
-0.655
-0.67
-0.675
-0.67
-0.655
-0.635
-0.615
-0.625
-0.63
-0.625
-0.63
-0.64
-0.645
-0.66
-0.655
-0.655
-0.64
-0.66
-0.655
-0.655
-0.685
-0.685
-0.67
-0.655
-0.65
-0.65
-0.625
-0.6
-0.6
-0.6
-0.615
-0.64
-0.62
-0.595
-0.6
-0.57
-0.54
-0.575
-0.62
-0.595
-0.585
-0.605
-0.6
-0.6
-0.59
-0.58
-0.57
-0.575
-0.575
-0.595
-0.605
-0.615
-0.62
-0.625
-0.64
-0.655
-0.66
-0.7
-0.69
-0.64
-0.665
-0.68
-0.69
-0.685
-0.685
-0.67
-0.655
-0.65
-0.655
-0.65
-0.655
-0.66
-0.67
-0.655
-0.645
-0.65
-0.62
-0.6
-0.555
-0.525
-0.475
-0.385
-0.285
-0.205
-0.09
0.015
0.085
0.09
0.09
0.12
0.125
0.09
-0.06
-0.27
-0.45
-0.67
-0.865
-1.05
-1.19
-1.23
-1.22
-1.21
-1.09
-1.015
-0.97
-0.96
-0.955
-0.955
-0.935
-0.89
-0.875
-0.82
-0.795
-0.775
-0.795
-0.765
-0.745
-0.72
-0.705
-0.685
-0.67
-0.675
-0.64
-0.635
-0.645
-0.645
-0.655
-0.645
-0.635
-0.635
-0.635
-0.64
-0.64
-0.64
-0.63
-0.635
-0.605
-0.62
-0.625
-0.615
-0.625
-0.63
-0.63
-0.615
-0.61
-0.62
-0.61
-0.62
-0.615
-0.61
-0.585
-0.585
-0.575
-0.58
-0.585
-0.575
-0.57
-0.555
-0.54
-0.55
-0.565
-0.54
-0.53
-0.54
-0.52
-0.495
-0.52
-0.51
-0.51
-0.5
-0.515
-0.515
-0.48
-0.475
-0.47
-0.43
-0.435
-0.445
-0.425
-0.435
-0.45
-0.435
-0.445
-0.445
-0.42
-0.425
-0.435
-0.44
-0.44
-0.465
-0.47
-0.46
-0.48
-0.485
-0.485
-0.435
-0.455
-0.45
-0.43
-0.455
-0.48
-0.475
-0.48
-0.5
-0.5
-0.505
-0.525
-0.525
-0.515
-0.525
-0.525
-0.52
-0.535
-0.565
-0.56
-0.555
-0.585
-0.61
-0.61
-0.585
-0.575
-0.58
-0.575
-0.575
-0.57
-0.575
-0.605
-0.615
-0.595
-0.63
-0.64
-0.61
-0.615
-0.615
-0.6
-0.625
-0.625
-0.625
-0.65
-0.665
-0.655
-0.615
-0.585
-0.605
-0.6
-0.6
-0.61
-0.62
-0.635
-0.635
-0.63
-0.62
-0.645
-0.645
-0.62
-0.605
-0.605
-0.585
-0.6
-0.6
-0.63
-0.615
-0.615
-0.615
-0.61
-0.625
-0.625
-0.63
-0.62
-0.66
-0.615
-0.57
-0.605
-0.62
-0.595
-0.6
-0.61
-0.615
-0.63
-0.63
-0.615
-0.585
-0.605
-0.595
-0.605
-0.61
-0.62
-0.62
-0.595
-0.605
-0.61
-0.61
-0.61
-0.635
-0.635
-0.64
-0.635
-0.64
-0.64
-0.645
-0.63
-0.63
-0.62
-0.595
-0.6
-0.605
-0.62
-0.63
-0.63
-0.655
-0.64
-0.615
-0.625
-0.625
-0.63
-0.64
-0.64
-0.655
-0.68
-0.67
-0.685
-0.67
-0.665
-0.61
-0.58
-0.585
-0.595
-0.585
-0.585
-0.585
-0.585
-0.615
-0.62
-0.575
-0.57
-0.56
-0.56
-0.575
-0.595
-0.605
-0.58
-0.58
-0.575
-0.545
-0.54
-0.54
-0.56
-0.57
-0.6
-0.605
-0.595
-0.59
-0.61
-0.635
-0.66
-0.635
-0.655
-0.675
-0.665
-0.67
-0.665
-0.66
-0.67
-0.62
-0.615
-0.63
-0.635
-0.645
-0.64
-0.635
-0.63
-0.635
-0.645
-0.625
-0.615
-0.63
-0.6
-0.59
-0.565
-0.48
-0.375
-0.31
-0.255
-0.12
-0.015
0.045
0.08
0.095
0.125
0.165
0.145
0.02
-0.19
-0.39
-0.585
-0.795
-0.995
-1.105
-1.175
-1.185
-1.145
-1.07
-1.01
-0.94
-0.92
-0.92
-0.905
-0.9
-0.885
-0.86
-0.835
-0.805
-0.75
-0.72
-0.725
-0.73
-0.71
-0.69
-0.7
-0.695
-0.675
-0.68
-0.69
-0.675
-0.68
-0.69
-0.69
-0.685
-0.66
-0.62
-0.625
-0.615
-0.625
-0.62
-0.64
-0.635
-0.615
-0.62
-0.635
-0.63
-0.625
-0.63
-0.615
-0.615
-0.62
-0.625
-0.615
-0.635
-0.645
-0.64
-0.61
-0.61
-0.61
-0.61
-0.595
-0.565
-0.58
-0.56
-0.6
-0.58
-0.58
-0.57
-0.565
-0.54
-0.535
-0.52
-0.525
-0.505
-0.525
-0.495
-0.485
-0.51
-0.505
-0.5
-0.505
-0.48
-0.45
-0.46
-0.48
-0.48
-0.475
-0.475
-0.48
-0.5
-0.505
-0.51
-0.5
-0.52
-0.525
-0.525
-0.51
-0.505
-0.495
-0.515
-0.485
-0.485
-0.49
-0.485
-0.5
-0.5
-0.535
-0.555
-0.535
-0.525
-0.55
-0.54
-0.56
-0.565
-0.56
-0.565
-0.575
-0.57
-0.565
-0.595
-0.6
-0.61
-0.615
-0.635
-0.605
-0.585
-0.58
-0.62
-0.635
-0.62
-0.63
-0.615
-0.61
-0.63
-0.625
-0.62
-0.62
-0.645
-0.63
-0.63
-0.63
-0.63
-0.675
-0.685
-0.665
-0.675
-0.65
-0.61
-0.615
-0.625
-0.625
-0.62
-0.615
-0.63
-0.635
-0.625
-0.63
-0.645
-0.625
-0.605
-0.62
-0.655
-0.66
-0.655
-0.64
-0.625
-0.655
-0.64
-0.64
-0.645
-0.63
-0.635
-0.64
-0.635
-0.64
-0.63
-0.61
-0.63
-0.615
-0.62
-0.63
-0.615
-0.605
-0.62
-0.62
-0.6
-0.6
-0.625
-0.635
-0.625
-0.64
-0.615
-0.62
-0.64
-0.63
-0.63
-0.63
-0.615
-0.6
-0.61
-0.61
-0.605
-0.6
-0.63
-0.64
-0.64
-0.645
-0.67
-0.68
-0.64
-0.62
-0.61
-0.635
-0.625
-0.63
-0.62
-0.625
-0.62
-0.63
-0.635
-0.64
-0.625
-0.64
-0.665
-0.64
-0.655
-0.665
-0.66
-0.66
-0.66
-0.655
-0.675
-0.685
-0.645
-0.65
-0.655
-0.65
-0.64
-0.65
-0.68
-0.66
-0.63
-0.625
-0.62
-0.61
-0.615
-0.59
-0.585
-0.61
-0.585
-0.565
-0.56
-0.565
-0.555
-0.57
-0.6
-0.6
-0.58
-0.565
-0.56
-0.535
-0.53
-0.56
-0.57
-0.57
-0.58
-0.595
-0.61
-0.62
-0.63
-0.625
-0.645
-0.655
-0.655
-0.655
-0.635
-0.645
-0.66
-0.655
-0.675
-0.67
-0.66
-0.655
-0.66
-0.64
-0.66
-0.67
-0.64
-0.685
-0.675
-0.61
-0.59
-0.62
-0.595
-0.565
-0.53
-0.445
-0.37
-0.28
-0.205
-0.09
0.015
0.055
0.065
0.08
0.15
0.215
0.175
0.005
-0.215
-0.405
-0.58
-0.795
-0.98
-1.1
-1.14
-1.135
-1.085
-1.0
-0.94
-0.92
-0.905
-0.9
-0.89
-0.865
-0.83
-0.785
-0.75
-0.765
-0.745
-0.73
-0.735
-0.735
-0.7
-0.68
-0.71
-0.675
-0.63
-0.635
-0.655
-0.665
-0.67
-0.64
-0.63
-0.635
-0.635
-0.64
-0.635
-0.645
-0.64
-0.635
-0.635
-0.63
-0.625
-0.605
-0.64
-0.625
-0.58
-0.585
-0.585
-0.575
-0.58
-0.59
-0.57
-0.59
-0.59
-0.59
-0.59
-0.58
-0.59
-0.585
-0.595
-0.595
-0.58
-0.555
-0.56
-0.56
-0.515
-0.52
-0.53
-0.495
-0.495
-0.52
-0.51
-0.515
-0.52
-0.505
-0.48
-0.485
-0.475
-0.465
-0.44
-0.435
-0.435
-0.44
-0.44
-0.465
-0.43
-0.42
-0.435
-0.41
-0.415
-0.415
-0.425
-0.445
-0.445
-0.43
-0.42
-0.415
-0.42
-0.445
-0.48
-0.485
-0.445
-0.47
-0.465
-0.465
-0.46
-0.475
-0.49
-0.495
-0.505
-0.505
-0.52
-0.535
-0.55
-0.545
-0.535
-0.53
-0.53
-0.51
-0.54
-0.545
-0.545
-0.56
-0.56
-0.56
-0.56
-0.565
-0.57
-0.575
-0.59
-0.58
-0.585
-0.605
-0.61
-0.595
-0.58
-0.605
-0.585
-0.57
-0.6
-0.61
-0.585
-0.59
-0.61
-0.605
-0.61
-0.615
-0.58
-0.585
-0.61
-0.6
-0.595
-0.61
-0.6
-0.59
-0.6
-0.61
-0.62
-0.625
-0.65
-0.615
-0.61
-0.635
-0.6
-0.555
-0.555
-0.575
-0.585
-0.58
-0.595
-0.59
-0.595
-0.6
-0.595
-0.59
-0.6
-0.61
-0.585
-0.59
-0.61
-0.6
-0.58
-0.6
-0.605
-0.605
-0.61
-0.61
-0.585
-0.59
-0.585
-0.58
-0.575
-0.595
-0.585
-0.57
-0.6
-0.605
-0.585
-0.59
-0.58
-0.585
-0.6
-0.61
-0.61
-0.615
-0.61
-0.635
-0.64
-0.64
-0.615
-0.61
-0.58
-0.6
-0.6
-0.59
-0.585
-0.565
-0.575
-0.565
-0.585
-0.615
-0.62
-0.605
-0.595
-0.605
-0.62
-0.6
-0.605
-0.59
-0.6
-0.59
-0.595
-0.605
-0.6
-0.585
-0.6
-0.605
-0.61
-0.62
-0.61
-0.615
-0.61
-0.645
-0.66
-0.625
-0.65
-0.665
-0.625
-0.62
-0.59
-0.585
-0.565
-0.55
-0.55
-0.56
-0.575
-0.57
-0.565
-0.555
-0.55
-0.515
-0.515
-0.535
-0.55
-0.525
-0.525
-0.54
-0.53
-0.53
-0.515
-0.515
-0.54
-0.565
-0.585
-0.59
-0.61
-0.58
-0.6
-0.62
-0.615
-0.605
-0.6
-0.625
-0.64
-0.64
-0.635
-0.62
-0.605
-0.645
-0.64
-0.6
-0.605
-0.635
-0.635
-0.61
-0.615
-0.625
-0.61
-0.645
-0.61
-0.58
-0.54
-0.485
-0.39
-0.295
-0.215
-0.11
-0.03
0.045
0.08
0.11
0.12
0.175
0.215
0.125
-0.095
-0.31
-0.5
-0.685
-0.865
-1.025
-1.09
-1.09
-1.08
-1.025
-0.985
-0.92
-0.885
-0.89
-0.875
-0.85
-0.84
-0.825
-0.775
-0.745
-0.745
-0.735
-0.72
-0.7
-0.655
-0.62
-0.64
-0.67
-0.645
-0.65
-0.655
-0.64
-0.645
-0.645
-0.62
-0.635
-0.635
-0.625
-0.62
-0.63
-0.615
-0.61
-0.61
-0.61
-0.605
-0.605
-0.6
-0.605
-0.595
-0.595
-0.58
-0.59
-0.585
-0.6
-0.6
-0.585
-0.595
-0.59
-0.59
-0.575
-0.565
-0.525
-0.515
-0.535
-0.525
-0.515
-0.535
-0.54
-0.53
-0.535
-0.535
-0.495
-0.47
-0.49
-0.495
-0.485
-0.485
-0.46
-0.46
-0.465
-0.455
-0.45
-0.445
-0.425
-0.425
-0.415
-0.44
-0.435
-0.42
-0.42
-0.415
-0.415
-0.415
-0.405
-0.405
-0.42
-0.405
-0.425
-0.415
-0.43
-0.435
-0.445
-0.435
-0.435
-0.42
-0.465
-0.46
-0.435
-0.43
-0.46
-0.445
-0.425
-0.445
-0.47
-0.47
-0.485
-0.5
-0.495
-0.51
-0.51
-0.5
-0.515
-0.525
-0.495
-0.505
-0.525
-0.545
-0.54
-0.55
-0.55
-0.555
-0.55
-0.56
-0.58
-0.575
-0.575
-0.585
-0.58
-0.58
-0.585
-0.595
-0.585
-0.605
-0.585
-0.58
-0.605
-0.585
-0.595
-0.59
-0.575
-0.59
-0.595
-0.605
-0.59
-0.59
-0.595
-0.575
-0.59
-0.62
-0.615
-0.58
-0.57
-0.59
-0.6
-0.585
-0.59
-0.6
-0.61
-0.6
-0.595
-0.595
-0.59
-0.595
-0.585
-0.585
-0.59
-0.58
-0.58
-0.585
-0.58
-0.57
-0.595
-0.6
-0.58
-0.58
-0.615
-0.605
-0.59
-0.61
-0.62
-0.575
-0.585
-0.61
-0.595
-0.58
-0.595
-0.595
-0.585
-0.61
-0.6
-0.585
-0.59
-0.61
-0.59
-0.615
-0.6
-0.59
-0.58
-0.6
-0.595
-0.59
-0.61
-0.6
-0.6
-0.605
-0.6
-0.595
-0.615
-0.615
-0.62
-0.6
-0.59
-0.605
-0.605
-0.62
-0.65
-0.63
-0.6
-0.6
-0.605
-0.605
-0.615
-0.62
-0.615
-0.64
-0.635
-0.645
-0.66
-0.665
-0.635
-0.63
-0.645
-0.555
-0.55
-0.57
-0.57
-0.58
-0.56
-0.565
-0.555
-0.54
-0.54
-0.56
-0.565
-0.58
-0.6
-0.59
-0.57
-0.545
-0.535
-0.555
-0.55
-0.565
-0.58
-0.59
-0.6
-0.595
-0.605
-0.62
-0.64
-0.645
-0.665
-0.675
-0.685
-0.685
-0.645
-0.595
-0.61
-0.64
-0.635
-0.645
-0.655
-0.64
-0.635
-0.635
-0.645
-0.645
-0.65
-0.63
-0.605
-0.61
-0.605
-0.585
-0.54
-0.5
-0.36
-0.265
-0.17
-0.05
0.055
0.105
0.125
0.125
0.155
0.16
0.08
-0.105
-0.33
-0.51
-0.725
-0.93
-1.085
-1.21
-1.25
-1.245
-1.185
-1.12
-1.04
-0.995
-0.975
-0.98
-0.98
-0.96
-0.9
-0.885
-0.845
-0.79
-0.765
-0.77
-0.78
-0.765
-0.76
-0.735
-0.72
-0.715
-0.695
-0.68
-0.705
-0.705
-0.69
-0.68
-0.675
-0.68
-0.665
-0.665
-0.68
-0.655
-0.665
-0.665
-0.66
-0.675
-0.68
-0.675
-0.645
-0.655
-0.645
-0.67
-0.655
-0.665
-0.67
-0.675
-0.675
-0.59
-0.585
-0.615
-0.61
-0.605
-0.615
-0.625
-0.625
-0.625
-0.605
-0.615
-0.605
-0.585
-0.575
-0.58
-0.585
-0.575
-0.56
-0.58
-0.55
-0.545
-0.55
-0.545
-0.55
-0.55
-0.545
-0.54
-0.54
-0.53
-0.53
-0.48
-0.495
-0.5
-0.51
-0.51
-0.5
-0.5
-0.485
-0.495
-0.505
-0.475
-0.475
-0.5
-0.495
-0.505
-0.53
-0.535
-0.53
-0.55
-0.575
-0.54
-0.54
-0.535
-0.54
-0.54
-0.56
-0.57
-0.58
-0.61
-0.59
-0.575
-0.595
-0.615
-0.6
-0.6
-0.62
-0.625
-0.64
-0.665
-0.655
-0.675
-0.69
-0.7
-0.705
-0.7
-0.705
-0.705
-0.71
-0.71
-0.705
-0.71
-0.71
-0.715
-0.71
-0.725
-0.735
-0.75
-0.765
-0.78
-0.745
-0.755
-0.745
-0.715
-0.695
-0.715
-0.725
-0.72
-0.715
-0.74
-0.73
-0.72
-0.735
-0.73
-0.725
-0.76
-0.75
-0.735
-0.725
-0.76
-0.74
-0.745
-0.775
-0.745
-0.745
-0.735
-0.74
-0.73
-0.75
-0.74
-0.73
-0.75
-0.775
-0.755
-0.745
-0.755
-0.765
-0.74
-0.75
-0.74
-0.73
-0.715
-0.715
-0.735
-0.755
-0.78
-0.8
-0.78
-0.76
-0.78
-0.765
-0.74
-0.71
-0.75
-0.75
-0.735
-0.75
-0.76
-0.765
-0.775
-0.755
-0.765
-0.78
-0.785
-0.77
-0.78
-0.79
-0.78
-0.795
-0.8
-0.785
-0.765
-0.775
-0.79
-0.775
-0.795
-0.795
-0.815
-0.795
-0.805
-0.795
-0.8
-0.815
-0.81
-0.795
-0.775
-0.8
-0.775
-0.795
-0.795
-0.755
-0.765
-0.755
-0.735
-0.725
-0.72
-0.725
-0.735
-0.745
-0.74
-0.73
-0.725
-0.745
-0.73
-0.725
-0.735
-0.735
-0.76
-0.795
-0.79
-0.825
-0.81
-0.82
-0.785
-0.835
-0.815
-0.82
-0.81
-0.825
-0.82
-0.82
-0.83
-0.85
-0.855
-0.845
-0.84
-0.845
-0.85
-0.845
-0.835
-0.82
-0.82
-0.825
-0.785
-0.795
-0.825
-0.795
-0.77
-0.725
-0.635
-0.525
-0.44
-0.345
-0.245
-0.155
-0.1
-0.08
-0.08
-0.04
-0.015
-0.12
-0.345
-0.575
-0.745
-0.96
-1.14
-1.335
-1.46
-1.49
-1.45
-1.395
-1.325
-1.265
-1.2
-1.2
-1.14
-1.095
-1.085
-1.09
-1.05
-1.02
-1.015
-0.985
-0.97
-0.95
-0.945
-0.945
-0.935
-0.93
-0.905
-0.91
-0.895
-0.9
-0.885
-0.89
-0.89
-0.885
-0.87
-0.865
-0.885
-0.88
-0.87
-0.855
-0.845
-0.875
-0.885
-0.88
-0.9
-0.88
-0.895
-0.92
-0.855
-0.825
-0.82
-0.82
-0.83
-0.835
-0.84
-0.845
-0.85
-0.835
-0.865
-0.855
-0.805
-0.825
-0.81
-0.8
-0.81
-0.8
-0.79
-0.795
-0.795
-0.76
-0.75
-0.785
-0.78
-0.745
-0.765
-0.75
-0.745
-0.73
-0.725
-0.72
-0.725
-0.735
-0.715
-0.705
-0.715
-0.695
-0.71
-0.715
-0.7
-0.685
-0.675
-0.675
-0.68
-0.68
-0.695
-0.7
-0.715
-0.725
-0.725
-0.73
-0.725
-0.73
-0.725
-0.735
-0.73
-0.77
-0.75
-0.75
-0.74
-0.78
-0.775
-0.785
-0.81
-0.83
-0.825
-0.78
-0.77
-0.785
-0.81
-0.825
-0.83
-0.85
-0.86
-0.87
-0.86
-0.86
-0.855
-0.875
-0.885
-0.895
-0.9
-0.875
-0.87
-0.865
-0.875
-0.875
-0.88
-0.895
-0.9
-0.91
-0.915
-0.925
-0.92
-0.93
-0.91
-0.895
-0.91
-0.895
-0.89
-0.905
-0.91
-0.905
-0.9
-0.905
-0.925
-0.91
-0.91
-0.935
-0.96
-0.905
-0.89
-0.9
-0.905
-0.895
-0.895
-0.865
-0.875
-0.885
-0.9
-0.885
-0.905
-0.905
-0.92
-0.91
-0.885
-0.895
-0.9
-0.9
-0.89
-0.885
-0.885
-0.88
-0.9
-0.875
-0.89
-0.9
-0.9
-0.935
-0.905
-0.885
-0.9
-0.9
-0.91
-0.9
-0.895
-0.895
-0.88
-0.885
-0.885
-0.885
-0.875
-0.875
-0.88
-0.88
-0.89
-0.905
-0.955
-0.99
-0.925
-0.895
-0.91
-0.935
-0.93
-0.93
-0.935
-0.92
-0.905
-0.89
-0.89
-0.89
-0.89
-0.885
-0.885
-0.905
-0.925
-0.86
-0.87
-0.855
-0.85
-0.825
-0.845
-0.86
-0.855
-0.865
-0.865
-0.845
-0.83
-0.855
-0.845
-0.87
-0.86
-0.87
-0.88
-0.88
-0.89
-0.915
-0.925
-0.935
-0.935
-0.945
-0.945
-0.95
-0.93
-0.945
-0.935
-0.92
-0.915
-0.94
-0.96
-0.945
-0.925
-0.945
-0.935
-0.9
-0.92
-0.89
-0.88
-0.895
-0.9
-0.84
-0.805
-0.75
-0.685
-0.595
-0.52
-0.39
-0.26
-0.18
-0.185
-0.21
-0.18
-0.13
-0.175
-0.345
-0.55
-0.75
-0.935
-1.13
-1.305
-1.47
-1.52
-1.515
-1.51
-1.425
-1.325
-1.245
-1.215
-1.21
-1.195
-1.185
-1.165
-1.135
-1.12
-1.075
-1.065
-1.035
-1.03
-1.035
-0.975
-0.96
-0.95
-0.955
-0.97
-0.965
-0.965
-0.96
-0.98
-0.985
-0.95
-0.93
-0.915
-0.92
-0.93
-0.93
-0.93
-0.91
-0.91
-0.91
-0.9
-0.905
-0.91
-0.905
-0.91
-0.93
-0.89
-0.9
-0.915
-0.93
-0.885
-0.885
-0.905
-0.885
-0.87
-0.88
-0.865
-0.86
-0.855
-0.86
-0.86
-0.865
-0.84
-0.83
-0.825
-0.83
-0.82
-0.815
-0.825
-0.81
-0.8
-0.79
-0.81
-0.79
-0.775
-0.79
-0.765
-0.745
-0.705
-0.705
-0.705
-0.705
-0.7
-0.715
-0.71
-0.73
-0.725
-0.735
-0.725
-0.72
-0.725
-0.705
-0.715
-0.73
-0.735
-0.745
-0.74
-0.745
-0.755
-0.745
-0.72
-0.74
-0.73
-0.735
-0.77
-0.765
-0.765
-0.78
-0.785
-0.76
-0.775
-0.795
-0.79
-0.785
-0.805
-0.8
-0.8
-0.84
-0.855
-0.855
-0.875
-0.885
-0.84
-0.815
-0.85
-0.845
-0.83
-0.85
-0.865
-0.845
-0.85
-0.855
-0.87
-0.885
-0.89
-0.885
-0.875
-0.9
-0.91
-0.915
-0.91
-0.895
-0.9
-0.905
-0.92
-0.92
-0.89
-0.855
-0.89
-0.88
-0.88
-0.88
-0.86
-0.87
-0.905
-0.92
-0.9
-0.87
-0.89
-0.895
-0.875
-0.88
-0.88
-0.88
-0.895
-0.845
-0.855
-0.865
-0.88
-0.88
-0.87
-0.88
-0.855
-0.86
-0.865
-0.87
-0.855
-0.88
-0.865
-0.83
-0.85
-0.85
-0.86
-0.87
-0.87
-0.855
-0.87
-0.88
-0.89
-0.89
-0.9
-0.865
-0.86
-0.84
-0.835
-0.845
-0.845
-0.865
-0.84
-0.87
-0.89
-0.88
-0.885
-0.9
-0.89
-0.885
-0.88
-0.86
-0.895
-0.87
-0.885
-0.885
-0.88
-0.875
-0.855
-0.81
-0.825
-0.85
-0.845
-0.83
-0.86
-0.855
-0.845
-0.845
-0.805
-0.785
-0.81
-0.81
-0.825
-0.83
-0.825
-0.815
-0.81
-0.795
-0.805
-0.79
-0.8
-0.8
-0.82
-0.84
-0.85
-0.855
-0.865
-0.895
-0.925
-0.89
-0.905
-0.905
-0.89
-0.87
-0.88
-0.885
-0.87
-0.9
-0.9
-0.905
-0.91
-0.895
-0.875
-0.87
-0.87
-0.87
-0.88
-0.86
-0.85
-0.875
-0.855
-0.84
-0.785
-0.685
-0.58
-0.495
-0.37
-0.275
-0.195
-0.15
-0.145
-0.11
-0.07
-0.065
-0.145
-0.33
-0.53
-0.725
-0.935
-1.125
-1.31
-1.425
-1.445
-1.42
-1.32
-1.265
-1.175
-1.15
-1.13
-1.115
-1.105
-1.095
-1.07
-1.03
-1.0
-0.985
-0.99
-0.98
-0.98
-0.98
-0.955
-0.915
-0.91
-0.905
-0.905
-0.895
-0.895
-0.895
-0.89
-0.905
-0.875
-0.87
-0.855
-0.875
-0.875
-0.885
-0.89
-0.87
-0.855
-0.86
-0.865
-0.855
-0.79
-0.805
-0.825
-0.855
-0.855
-0.88
-0.86
-0.825
-0.8
-0.825
-0.815
-0.825
-0.82
-0.81
-0.805
-0.82
-0.815
-0.775
-0.775
-0.78
-0.775
-0.785
-0.785
-0.765
-0.77
-0.78
-0.78
-0.765
-0.75
-0.74
-0.735
-0.715
-0.71
-0.7
-0.705
-0.705
-0.685
-0.685
-0.675
-0.67
-0.645
-0.705
-0.675
-0.69
-0.69
-0.685
-0.7
-0.71
-0.715
-0.74
-0.74
-0.74
-0.73
-0.755
-0.76
-0.75
-0.76
-0.77
-0.77
-0.76
-0.775
-0.78
-0.79
-0.805
-0.805
-0.795
-0.8
-0.82
-0.83
-0.8
-0.81
-0.815
-0.825
-0.85
-0.85
-0.86
-0.815
-0.83
-0.82
-0.845
-0.88
-0.865
-0.86
-0.855
-0.855
-0.845
-0.85
-0.86
-0.81
-0.81
-0.85
-0.84
-0.84
-0.84
-0.84
-0.85
-0.835
-0.82
-0.84
-0.845
-0.87
-0.86
-0.835
-0.85
-0.84
-0.865
-0.87
-0.835
-0.845
-0.84
-0.85
-0.85
-0.855
-0.86
-0.82
-0.82
-0.825
-0.84
-0.83
-0.82
-0.835
-0.84
-0.835
-0.82
-0.845
-0.83
-0.845
-0.84
-0.82
-0.83
-0.855
-0.85
-0.82
-0.8
-0.805
-0.805
-0.81
-0.815
-0.84
-0.845
-0.85
-0.85
-0.855
-0.84
-0.835
-0.835
-0.86
-0.87
-0.84
-0.82
-0.855
-0.855
-0.845
-0.855
-0.87
-0.865
-0.855
-0.845
-0.835
-0.815
-0.84
-0.825
-0.83
-0.83
-0.815
-0.81
-0.8
-0.795
-0.79
-0.77
-0.765
-0.76
-0.78
-0.8
-0.785
-0.78
-0.8
-0.765
-0.73
-0.755
-0.76
-0.75
-0.755
-0.785
-0.78
-0.82
-0.835
-0.835
-0.855
-0.87
-0.86
-0.87
-0.86
-0.89
-0.86
-0.84
-0.82
-0.82
-0.835
-0.83
-0.84
-0.83
-0.84
-0.85
-0.84
-0.85
-0.85
-0.83
-0.795
-0.83
-0.81
-0.785
-0.75
-0.685
-0.575
-0.485
-0.405
-0.285
-0.215
-0.155
-0.14
-0.1
-0.05
-0.02
-0.07
-0.235
-0.47
-0.655
-0.84
-1.02
-1.175
-1.3
-1.355
-1.33
-1.255
-1.205
-1.15
-1.12
-1.11
-1.1
-1.115
-1.085
-1.035
-1.02
-0.975
-0.935
-0.935
-0.925
-0.925
-0.915
-0.89
-0.87
-0.89
-0.895
-0.84
-0.855
-0.87
-0.855
-0.855
-0.86
-0.86
-0.87
-0.88
-0.875
-0.835
-0.83
-0.795
-0.795
-0.795
-0.8
-0.8
-0.805
-0.805
-0.825
-0.82
-0.835
-0.81
-0.795
-0.795
-0.815
-0.83
-0.815
-0.815
-0.82
-0.795
-0.795
-0.815
-0.8
-0.82
-0.795
-0.795
-0.77
-0.75
-0.745
-0.745
-0.735
-0.74
-0.735
-0.725
-0.735
-0.73
-0.71
-0.74
-0.75
-0.7
-0.675
-0.665
-0.66
-0.685
-0.695
-0.65
-0.655
-0.67
-0.65
-0.63
-0.625
-0.63
-0.635
-0.65
-0.665
-0.645
-0.63
-0.635
-0.65
-0.665
-0.66
-0.66
-0.655
-0.665
-0.665
-0.665
-0.69
-0.695
-0.685
-0.685
-0.71
-0.72
-0.715
-0.73
-0.74
-0.735
-0.725
-0.73
-0.73
-0.745
-0.765
-0.765
-0.77
-0.765
-0.75
-0.775
-0.79
-0.805
-0.8
-0.815
-0.78
-0.735
-0.76
-0.79
-0.805
-0.785
-0.79
-0.79
-0.79
-0.805
-0.81
-0.83
-0.825
-0.84
-0.825
-0.81
-0.8
-0.815
-0.835
-0.835
-0.81
-0.78
-0.785
-0.815
-0.815
-0.805
-0.815
-0.81
-0.8
-0.78
-0.8
-0.78
-0.765
-0.79
-0.81
-0.8
-0.835
-0.855
-0.84
-0.87
-0.88
-0.865
-0.77
-0.775
-0.81
-0.84
-0.835
-0.825
-0.815
-0.82
-0.82
-0.835
-0.83
-0.845
-0.84
-0.835
-0.835
-0.835
-0.845
-0.855
-0.845
-0.82
-0.815
-0.84
-0.84
-0.815
-0.825
-0.845
-0.82
-0.81
-0.815
-0.845
-0.85
-0.865
-0.87
-0.865
-0.86
-0.855
-0.85
-0.825
-0.825
-0.825
-0.825
-0.82
-0.835
-0.83
-0.865
-0.865
-0.84
-0.815
-0.835
-0.85
-0.82
-0.79
-0.785
-0.76
-0.775
-0.775
-0.755
-0.76
-0.76
-0.76
-0.785
-0.77
-0.77
-0.745
-0.74
-0.725
-0.72
-0.74
-0.76
-0.77
-0.78
-0.795
-0.815
-0.84
-0.84
-0.86
-0.84
-0.83
-0.845
-0.835
-0.835
-0.87
-0.87
-0.855
-0.84
-0.835
-0.825
-0.84
-0.84
-0.845
-0.85
-0.85
-0.845
-0.845
-0.865
-0.855
-0.85
-0.835
-0.81
-0.775
-0.75
-0.68
-0.565
-0.49
-0.425
-0.295
-0.21
-0.145
-0.115
-0.105
-0.07
-0.02
-0.055
-0.195
-0.415
-0.6
-0.785
-0.975
-1.165
-1.26
-1.35
-1.355
-1.3
-1.24
-1.17
-1.12
-1.1
-1.09
-1.095
-1.075
-1.06
-1.03
-1.0
-0.98
-0.945
-0.93
-0.91
-0.92
-0.865
-0.865
-0.87
-0.84
-0.835
-0.865
-0.875
-0.865
-0.87
-0.88
-0.83
-0.81
-0.81
-0.815
-0.825
-0.805
-0.825
-0.825
-0.82
-0.82
-0.825
-0.84
-0.855
-0.81
-0.805
-0.78
-0.76
-0.785
-0.8
-0.785
-0.785
-0.785
-0.795
-0.79
-0.785
-0.8
-0.775
-0.76
-0.77
-0.77
-0.74
-0.73
-0.74
-0.735
-0.72
-0.715
-0.73
-0.72
-0.69
-0.695
-0.7
-0.715
-0.725
-0.71
-0.655
-0.665
-0.645
-0.62
-0.635
-0.635
-0.625
-0.64
-0.635
-0.635
-0.64
-0.655
-0.63
-0.62
-0.64
-0.595
-0.6
-0.635
-0.625
-0.615
-0.63
-0.64
-0.65
-0.665
-0.68
-0.665
-0.635
-0.655
-0.675
-0.68
-0.68
-0.665
-0.685
-0.68
-0.68
-0.665
-0.675
-0.69
-0.705
-0.715
-0.72
-0.73
-0.76
-0.765
-0.76
-0.73
-0.745
-0.75
-0.775
-0.78
-0.79
-0.78
-0.765
-0.775
-0.805
-0.8
-0.78
-0.785
-0.785
-0.785
-0.79
-0.785
-0.81
-0.805
-0.805
-0.81
-0.81
-0.835
-0.83
-0.795
-0.775
-0.78
-0.775
-0.775
-0.765
-0.785
-0.79
-0.805
-0.8
-0.795
-0.81
-0.83
-0.825
-0.8
-0.785
-0.79
-0.79
-0.8
-0.805
-0.795
-0.805
-0.825
-0.8
-0.805
-0.79
-0.78
-0.785
-0.795
-0.78
-0.785
-0.805
-0.795
-0.805
-0.805
-0.795
-0.81
-0.855
-0.795
-0.8
-0.795
-0.785
-0.825
-0.775
-0.77
-0.785
-0.78
-0.805
-0.805
-0.825
-0.81
-0.825
-0.835
-0.81
-0.835
-0.85
-0.84
-0.845
-0.835
-0.81
-0.795
-0.795
-0.8
-0.775
-0.775
-0.79
-0.8
-0.815
-0.795
-0.795
-0.81
-0.785
-0.78
-0.75
-0.73
-0.75
-0.745
-0.755
-0.79
-0.78
-0.75
-0.74
-0.76
-0.75
-0.735
-0.755
-0.745
-0.78
-0.835
-0.815
-0.835
-0.83
-0.815
-0.805
-0.825
-0.845
-0.83
-0.845
-0.845
-0.85
-0.84
-0.84
-0.87
-0.86
-0.86
-0.865
-0.86
-0.865
-0.855
-0.835
-0.845
-0.855
-0.86
-0.825
-0.83
-0.825
-0.805
-0.795
-0.72
-0.62
-0.525
-0.455
-0.31
-0.195
-0.125
-0.135
-0.125
-0.105
-0.1
-0.15
-0.27
-0.465
-0.64
-0.815
-1.03
-1.21
-1.305
-1.395
-1.375
-1.33
-1.27
-1.195
-1.125
-1.14
-1.135
-1.125
-1.095
-1.09
-1.06
-1.005
-0.965
-0.98
-1.0
-0.98
-0.96
-0.915
-0.915
-0.905
-0.895
-0.875
-0.9
-0.915
-0.92
-0.88
-0.88
-0.87
-0.87
-0.88
-0.885
-0.895
-0.895
-0.88
-0.855
-0.875
-0.89
-0.875
-0.85
-0.85
-0.855
-0.845
-0.84
-0.83
-0.83
-0.83
-0.835
-0.82
-0.81
-0.85
-0.84
-0.82
-0.825
-0.835
-0.815
-0.805
-0.795
-0.815
-0.81
-0.81
-0.775
-0.775
-0.77
-0.755
-0.755
-0.75
-0.76
-0.765
-0.735
-0.75
-0.725
-0.695
-0.72
-0.715
-0.7
-0.705
-0.705
-0.695
-0.68
-0.7
-0.695
-0.685
-0.68
-0.665
-0.665
-0.665
-0.69
-0.705
-0.7
-0.7
-0.685
-0.645
-0.67
-0.655
-0.67
-0.71
-0.7
-0.695
-0.72
-0.715
-0.705
-0.705
-0.725
-0.725
-0.735
-0.74
-0.73
-0.755
-0.76
-0.765
-0.775
-0.79
-0.795
-0.795
-0.79
-0.76
-0.76
-0.79
-0.8
-0.825
-0.81
-0.825
-0.835
-0.82
-0.825
-0.84
-0.855
-0.83
-0.845
-0.88
-0.87
-0.86
-0.83
-0.835
-0.815
-0.82
-0.82
-0.81
-0.82
-0.84
-0.86
-0.88
-0.89
-0.87
-0.85
-0.82
-0.84
-0.85
-0.86
-0.85
-0.845
-0.84
-0.83
-0.825
-0.84
-0.845
-0.855
-0.845
-0.835
-0.815
-0.82
-0.835
-0.85
-0.83
-0.84
-0.845
-0.835
-0.8
-0.805
-0.835
-0.845
-0.83
-0.84
-0.825
-0.84
-0.845
-0.85
-0.835
-0.805
-0.83
-0.83
-0.84
-0.85
-0.835
-0.825
-0.84
-0.845
-0.835
-0.835
-0.845
-0.86
-0.86
-0.86
-0.87
-0.845
-0.86
-0.85
-0.825
-0.8
-0.795
-0.78
-0.78
-0.795
-0.795
-0.775
-0.78
-0.795
-0.8
-0.79
-0.8
-0.76
-0.765
-0.77
-0.78
-0.78
-0.79
-0.785
-0.765
-0.755
-0.77
-0.755
-0.755
-0.79
-0.815
-0.825
-0.805
-0.825
-0.845
-0.84
-0.8
-0.8
-0.845
-0.855
-0.85
-0.86
-0.88
-0.865
-0.85
-0.875
-0.875
-0.86
-0.85
-0.835
-0.825
-0.815
-0.855
-0.84
-0.825
-0.83
-0.845
-0.845
-0.845
-0.825
-0.75
-0.665
-0.585
-0.52
-0.41
-0.265
-0.15
-0.095
-0.08
-0.085
-0.045
-0.015
-0.125
-0.33
-0.545
-0.74
-0.98
-1.14
-1.295
-1.425
-1.415
-1.395
-1.315
-1.235
-1.14
-1.105
-1.105
-1.095
-1.105
-1.09
-1.05
-1.015
-1.0
-0.985
-0.985
-0.955
-0.945
-0.94
-0.915
-0.9
-0.895
-0.91
-0.905
-0.875
-0.89
-0.87
-0.845
-0.835
-0.855
-0.83
-0.85
-0.86
-0.845
-0.85
-0.85
-0.845
-0.845
-0.835
-0.84
-0.81
-0.83
-0.835
-0.825
-0.82
-0.825
-0.82
-0.815
-0.815
-0.81
-0.785
-0.78
-0.795
-0.805
-0.785
-0.795
-0.795
-0.8
-0.77
-0.78
-0.755
-0.735
-0.74
-0.765
-0.735
-0.71
-0.72
-0.72
-0.725
-0.72
-0.7
-0.715
-0.74
-0.705
-0.655
-0.675
-0.655
-0.665
-0.66
-0.665
-0.655
-0.64
-0.65
-0.65
-0.645
-0.655
-0.635
-0.645
-0.68
-0.67
-0.625
-0.65
-0.65
-0.675
-0.67
-0.685
-0.68
-0.685
-0.715
-0.715
-0.7
-0.715
-0.73
-0.715
-0.72
-0.735
-0.72
-0.73
-0.7
-0.72
-0.715
-0.72
-0.73
-0.745
-0.75
-0.76
-0.765
-0.78
-0.8
-0.805
-0.795
-0.805
-0.83
-0.85
-0.82
-0.83
-0.82
-0.815
-0.835
-0.825
-0.81
-0.82
-0.835
-0.825
-0.815
-0.84
-0.83
-0.825
-0.85
-0.83
-0.845
-0.885
-0.905
-0.89
-0.855
-0.82
-0.83
-0.835
-0.825
-0.84
-0.84
-0.86
-0.855
-0.83
-0.85
-0.87
-0.86
-0.835
-0.845
-0.875
-0.85
-0.835
-0.84
-0.87
-0.865
-0.87
-0.835
-0.825
-0.85
-0.86
-0.87
-0.875
-0.87
-0.86
-0.875
-0.84
-0.84
-0.84
-0.85
-0.85
-0.855
-0.865
-0.85
-0.855
-0.87
-0.87
-0.855
-0.87
-0.905
-0.91
-0.895
-0.87
-0.87
-0.875
-0.89
-0.9
-0.875
-0.865
-0.86
-0.84
-0.835
-0.825
-0.84
-0.84
-0.86
-0.865
-0.85
-0.825
-0.83
-0.84
-0.805
-0.825
-0.825
-0.835
-0.82
-0.815
-0.8
-0.79
-0.805
-0.825
-0.84
-0.855
-0.87
-0.88
-0.89
-0.885
-0.9
-0.915
-0.92
-0.9
-0.915
-0.915
-0.915
-0.89
-0.905
-0.92
-0.915
-0.92
-0.935
-0.925
-0.93
-0.885
-0.89
-0.89
-0.91
-0.895
-0.875
-0.88
-0.885
-0.865
-0.81
-0.73
-0.625
-0.575
-0.47
-0.335
-0.25
-0.185
-0.18
-0.195
-0.175
-0.135
-0.23
-0.41
-0.6
-0.815
-1.035
-1.215
-1.365
-1.485
-1.51
-1.46
-1.375
-1.31
-1.24
-1.205
-1.205
-1.2
-1.175
-1.13
-1.105
-1.095
-1.06
-1.055
-1.025
-0.98
-0.97
-0.965
-0.925
-0.92
-0.965
-0.965
-0.925
-0.925
-0.92
-0.92
-0.93
-0.925
-0.915
-0.925
-0.93
-0.905
-0.89
-0.91
-0.945
-0.92
-0.895
-0.9
-0.885
-0.88
-0.88
-0.89
-0.875
-0.87
-0.89
-0.885
-0.89
-0.87
-0.86
-0.85
-0.855
-0.855
-0.865
-0.89
-0.865
-0.855
-0.845
-0.845
-0.845
-0.84
-0.84
-0.825
-0.825
-0.82
-0.825
-0.79
-0.78
-0.785
-0.79
-0.77
-0.755
-0.76
-0.775
-0.77
-0.75
-0.755
-0.745
-0.745
-0.745
-0.75
-0.745
-0.73
-0.71
-0.73
-0.72
-0.675
-0.69
-0.71
-0.73
-0.72
-0.72
-0.735
-0.745
-0.76
-0.745
-0.74
-0.735
-0.76
-0.76
-0.77
-0.77
-0.755
-0.77
-0.77
-0.765
-0.765
-0.775
-0.79
-0.79
-0.8
-0.795
-0.785
-0.765
-0.81
-0.825
-0.855
-0.845
-0.84
-0.84
-0.855
-0.86
-0.85
-0.86
-0.87
-0.89
-0.85
-0.85
-0.86
-0.855
-0.87
-0.915
-0.905
-0.895
-0.885
-0.885
-0.885
-0.885
-0.875
-0.86
-0.855
-0.865
-0.87
-0.865
-0.88
-0.885
-0.885
-0.895
-0.87
-0.865
-0.865
-0.865
-0.88
-0.885
-0.87
-0.85
-0.83
-0.855
-0.855
-0.845
-0.86
-0.87
-0.855
-0.845
-0.85
-0.84
-0.855
-0.865
-0.88
-0.86
-0.88
-0.87
-0.875
-0.885
-0.895
-0.875
-0.875
-0.88
-0.84
-0.83
-0.85
-0.86
-0.865
-0.85
-0.86
-0.855
-0.87
-0.875
-0.87
-0.86
-0.88
-0.895
-0.84
-0.805
-0.815
-0.795
-0.8
-0.825
-0.845
-0.845
-0.845
-0.835
-0.815
-0.8
-0.795
-0.785
-0.79
-0.795
-0.78
-0.78
-0.77
-0.775
-0.78
-0.8
-0.79
-0.83
-0.84
-0.845
-0.865
-0.86
-0.875
-0.865
-0.85
-0.885
-0.89
-0.87
-0.9
-0.91
-0.885
-0.87
-0.89
-0.88
-0.86
-0.875
-0.89
-0.86
-0.855
-0.87
-0.86
-0.84
-0.85
-0.85
-0.87
-0.87
-0.845
-0.845
-0.76
-0.695
-0.595
-0.51
-0.44
-0.335
-0.265
-0.2
-0.18
-0.155
-0.125
-0.14
-0.225
-0.425
-0.615
-0.76
-0.95
-1.125
-1.285
-1.415
-1.42
-1.395
-1.275
-1.19
-1.155
-1.125
-1.105
-1.1
-1.085
-1.055
-1.04
-1.01
-0.97
-0.965
-0.97
-0.955
-0.925
-0.925
-0.93
-0.92
-0.9
-0.9
-0.885
-0.87
-0.88
-0.87
-0.85
-0.85
-0.855
-0.855
-0.86
-0.855
-0.845
-0.845
-0.83
-0.845
-0.835
-0.85
-0.84
-0.84
-0.85
-0.85
-0.815
-0.815
-0.82
-0.78
-0.8
-0.81
-0.82
-0.79
-0.79
-0.8
-0.785
-0.76
-0.77
-0.79
-0.785
-0.79
-0.79
-0.77
-0.765
-0.765
-0.765
-0.76
-0.75
-0.755
-0.745
-0.745
-0.74
-0.715
-0.69
-0.68
-0.685
-0.685
-0.655
-0.665
-0.67
-0.685
-0.68
-0.665
-0.665
-0.66
-0.665
-0.665
-0.655
-0.66
-0.69
-0.675
-0.65
-0.675
-0.685
-0.685
-0.675
-0.65
-0.65
-0.685
-0.69
-0.685
-0.695
-0.7
-0.695
-0.695
-0.705
-0.71
-0.725
-0.725
-0.725
-0.73
-0.725
-0.725
-0.735
-0.74
-0.76
-0.775
-0.76
-0.78
-0.8
-0.775
-0.795
-0.795
-0.8
-0.785
-0.78
-0.805
-0.8
-0.785
-0.79
-0.815
-0.815
-0.82
-0.835
-0.825
-0.84
-0.815
-0.82
-0.81
-0.82
-0.835
-0.815
-0.805
-0.81
-0.815
-0.805
-0.815
-0.795
-0.795
-0.81
-0.83
-0.83
-0.84
-0.87
-0.825
-0.83
-0.82
-0.825
-0.81
-0.82
-0.81
-0.8
-0.815
-0.825
-0.795
-0.8
-0.805
-0.79
-0.82
-0.83
-0.8
-0.785
-0.81
-0.83
-0.815
-0.8
-0.81
-0.82
-0.815
-0.825
-0.815
-0.82
-0.81
-0.8
-0.83
-0.86
-0.845
-0.83
-0.83
-0.835
-0.835
-0.83
-0.8
-0.805
-0.785
-0.79
-0.785
-0.8
-0.82
-0.835
-0.815
-0.785
-0.76
-0.735
-0.76
-0.795
-0.805
-0.77
-0.785
-0.785
-0.77
-0.76
-0.77
-0.775
-0.775
-0.785
-0.825
-0.835
-0.835
-0.84
-0.855
-0.915
-0.885
-0.88
-0.895
-0.89
-0.895
-0.88
-0.88
-0.875
-0.885
-0.88
-0.9
-0.91
-0.89
-0.9
-0.9
-0.91
-0.925
-0.93
-0.905
-0.865
-0.92
-0.905
-0.875
-0.855
-0.78
-0.66
-0.59
-0.52
-0.385
-0.28
-0.23
-0.195
-0.21
-0.15
-0.145
-0.185
-0.36
-0.565
-0.765
-1.01
-1.22
-1.35
-1.48
-1.51
-1.48
-1.43
-1.36
-1.295
-1.22
-1.205
-1.21
-1.185
-1.165
-1.145
-1.12
-1.06
-1.03
-1.02
-1.015
-1.01
-0.995
-0.96
-0.95
-0.935
-0.93
-0.94
-0.96
-0.945
-0.945
-0.975
-0.97
-0.965
-0.96
-0.965
-0.94
-0.91
-0.91
-0.915
-0.895
-0.895
-0.915
-0.885
-0.88
-0.9
-0.905
-0.915
-0.925
-0.935
-0.91
-0.93
-0.895
-0.87
-0.865
-0.885
-0.9
-0.89
-0.885
-0.87
-0.87
-0.865
-0.87
-0.86
-0.865
-0.86
-0.85
-0.835
-0.855
-0.84
-0.83
-0.835
-0.84
-0.82
-0.82
-0.81
-0.81
-0.83
-0.825
-0.805
-0.775
-0.755
-0.78
-0.785
-0.77
-0.76
-0.755
-0.765
-0.775
-0.765
-0.78
-0.775
-0.775
-0.77
-0.775
-0.79
-0.795
-0.805
-0.81
-0.795
-0.77
-0.785
-0.82
-0.8
-0.82
-0.845
-0.84
-0.84
-0.84
-0.84
-0.845
-0.86
-0.855
-0.845
-0.87
-0.88
-0.89
-0.92
-0.91
-0.89
-0.915
-0.895
-0.895
-0.875
-0.91
-0.945
-0.93
-0.93
-0.95
-0.96
-0.955
-0.94
-0.955
-0.965
-0.955
-0.945
-0.945
-0.98
-0.985
-0.975
-0.985
-0.99
-0.975
-0.99
-0.975
-0.955
-0.955
-0.935
-0.94
-0.95
-0.965
-0.985
-0.97
-0.97
-0.96
-0.97
-0.975
-0.985
-0.985
-0.985
-0.99
-0.99
-0.965
-0.955
-0.94
-0.93
-0.93
-0.935
-0.935
-0.96
-0.98
-0.96
-0.955
-0.975
-0.96
-0.965
-0.965
-0.97
-0.965
-0.97
-0.985
-0.965
-0.955
-0.975
-0.965
-0.955
-0.975
-0.975
-0.97
-0.95
-0.965
-0.99
-0.965
-0.95
-0.94
-0.935
-0.935
-0.945
-0.945
-0.97
-0.99
-0.965
-0.91
-0.91
-0.93
-0.94
-0.96
-0.98
-0.985
-0.96
-0.935
-0.935
-0.93
-0.94
-0.96
-0.925
-0.91
-0.94
-0.95
-0.98
-0.99
-1.0
-1.005
-1.0
-0.995
-1.01
-1.035
-1.04
-1.015
-1.015
-1.025
-1.035
-1.035
-1.005
-1.01
-1.005
-0.99
-1.005
-0.995
-0.995
-0.985
-0.98
-0.98
-0.985
-0.98
-0.94
-0.87
-0.775
-0.68
-0.575
-0.485
-0.41
-0.32
-0.295
-0.315
-0.285
-0.265
-0.325
-0.525
-0.72
-0.92
-1.145
-1.355
-1.505
-1.66
-1.685
-1.68
-1.6
-1.51
-1.425
-1.365
-1.325
-1.32
-1.295
-1.25
-1.225
-1.21
-1.2
-1.165
-1.125
-1.115
-1.1
-1.105
-1.06
-1.07
-1.07
-1.06
-1.045
-1.04
-1.015
-1.045
-1.03
-1.03
-1.02
-1.02
-1.025
-1.03
-1.03
-1.01
-0.98
-0.975
-0.94
-0.94
-0.965
-0.99
-0.98
-1.01
-1.005
-0.995
-0.99
-1.01
-0.995
-0.99
-0.96
-0.955
-0.955
-0.955
-0.955
-0.94
-0.935
-0.97
-0.945
-0.92
-0.915
-0.915
-0.945
-0.945
-0.935
-0.92
-0.92
-0.9
-0.865
-0.865
-0.9
-0.92
-0.885
-0.87
-0.865
-0.865
-0.855
-0.855
-0.85
-0.86
-0.87
-0.855
-0.85
-0.81
-0.84
-0.825
-0.845
-0.845
-0.83
-0.83
-0.855
-0.845
-0.855
-0.89
-0.865
-0.85
-0.865
-0.85
-0.865
-0.87
-0.865
-0.875
-0.895
-0.895
-0.885
-0.88
-0.875
-0.885
-0.895
-0.915
-0.955
-0.965
-0.965
-0.94
-0.94
-0.95
-0.955
-0.97
-0.97
-0.965
-0.985
-0.975
-0.995
-1.01
-1.02
-1.02
-1.02
-1.025
-1.005
-1.025
-1.025
-1.03
-1.045
-1.055
-1.045
-1.025
-1.025
-1.045
-1.025
-1.025
-1.04
-1.045
-1.03
-1.045
-1.035
-1.065
-1.09
-1.06
-1.055
-1.035
-1.025
-1.015
-1.035
-1.04
-1.035
-1.005
-1.0
-1.01
-1.0
-1.015
-1.015
-1.02
-1.02
-1.015
-1.005
-1.02
-1.02
-1.03
-1.015
-1.02
-1.03
-1.01
-1.02
-1.05
-1.045
-1.025
-1.04
-1.03
-0.99
-1.0
-1.02
-1.015
-1.02
-1.03
-1.015
-1.01
-1.02
-0.995
-0.97
-0.97
-0.96
-0.975
-0.985
-1.0
-1.0
-0.98
-0.95
-0.94
-0.94
-0.95
-0.975
-0.98
-0.995
-0.985
-0.965
-0.97
-0.98
-0.94
-0.94
-0.95
-0.945
-0.97
-0.99
-1.0
-1.01
-1.03
-1.025
-1.02
-1.035
-1.04
-1.065
-1.04
-1.05
-1.045
-1.045
-1.05
-1.055
-1.045
-1.05
-1.06
-1.045
-1.05
-1.065
-1.06
-1.075
-1.06
-1.02
-1.02
-1.035
-1.01
-1.0
-0.965
-0.915
-0.81
-0.7
-0.63
-0.54
-0.435
-0.37
-0.365
-0.365
-0.335
-0.355
-0.415
-0.6
-0.8
-0.98
-1.17
-1.355
-1.51
-1.645
-1.675
-1.62
-1.51
-1.44
-1.375
-1.335
-1.305
-1.285
-1.27
-1.26
-1.215
-1.2
-1.165
-1.13
-1.12
-1.115
-1.095
-1.09
-1.065
-1.06
-1.06
-1.085
-1.06
-1.055
-1.065
-1.065
-1.07
-1.055
-1.055
-1.04
-1.005
-1.005
-1.0
-0.99
-1.005
-1.015
-1.005
-1.015
-1.02
-1.015
-1.02
-1.045
-1.0
-0.99
-0.985
-0.995
-0.97
-0.97
-0.95
-0.945
-0.965
-0.965
-0.95
-0.94
-0.935
-0.94
-0.97
-0.97
-0.955
-0.925
-0.955
-0.94
-0.91
-0.925
-0.895
-0.88
-0.875
-0.88
-0.865
-0.885
-0.895
-0.89
-0.875
-0.88
-0.88
-0.835
-0.825
-0.835
-0.82
-0.835
-0.84
-0.85
-0.85
-0.85
-0.865
-0.83
-0.805
-0.805
-0.815
-0.825
-0.85
-0.85
-0.84
-0.845
-0.87
-0.865
-0.81
-0.835
-0.845
-0.86
-0.89
-0.885
-0.885
-0.845
-0.87
-0.855
-0.875
-0.89
-0.895
-0.89
-0.895
-0.91
-0.9
-0.93
-0.92
-0.905
-0.935
-0.95
-0.95
-0.955
-0.98
-0.97
-0.965
-0.985
-0.985
-0.955
-0.955
-0.95
-0.935
-0.945
-0.97
-0.97
-0.955
-0.99
-1.01
-0.98
-0.955
-0.99
-0.98
-0.975
-0.975
-0.955
-0.96
-0.955
-0.965
-0.985
-1.005
-0.99
-0.965
-0.98
-0.975
-0.935
-0.94
-0.96
-0.95
-0.94
-0.955
-0.975
-0.965
-0.965
-0.95
-0.93
-0.95
-0.94
-0.945
-0.945
-0.94
-0.95
-0.965
-0.985
-1.0
-0.97
-0.95
-0.93
-0.95
-0.94
-0.91
-0.915
-0.93
-0.94
-0.95
-0.97
-0.95
-0.94
-0.945
-0.92
-0.93
-0.93
-0.91
-0.885
-0.9
-0.865
-0.885
-0.9
-0.905
-0.905
-0.91
-0.88
-0.865
-0.865
-0.88
-0.885
-0.885
-0.895
-0.9
-0.895
-0.895
-0.865
-0.86
-0.86
-0.905
-0.905
-0.915
-0.91
-0.905
-0.92
-0.945
-0.935
-0.955
-0.975
-0.975
-1.0
-0.985
-0.93
-0.925
-0.94
-0.93
-0.93
-0.935
-0.945
-0.95
-0.965
-0.95
-0.955
-0.945
-0.94
-0.95
-0.93
-0.92
-0.91
-0.905
-0.855
-0.77
-0.685
-0.61
-0.5
-0.405
-0.325
-0.28
-0.315
-0.295
-0.235
-0.255
-0.42
-0.605
-0.755
-0.925
-1.11
-1.27
-1.45
-1.525
-1.49
-1.445
-1.36
-1.28
-1.2
-1.19
-1.145
-1.14
-1.135
-1.135
-1.13
-1.075
-1.04
-1.01
-1.005
-0.99
-0.965
-0.96
-0.98
-0.975
-0.955
-0.97
-0.955
-0.93
-0.94
-0.955
-0.92
-0.91
-0.92
-0.92
-0.94
-0.945
-0.93
-0.91
-0.92
-0.92
-0.85
-0.87
-0.9
-0.87
-0.86
-0.87
-0.86
-0.855
-0.86
-0.85
-0.84
-0.84
-0.85
-0.835
-0.82
-0.845
-0.86
-0.845
-0.815
-0.805
-0.795
-0.805
-0.835
-0.83
-0.805
-0.78
-0.775
-0.77
-0.775
-0.76
-0.73
-0.75
-0.78
-0.78
-0.765
-0.765
-0.765
-0.73
-0.735
-0.715
-0.71
-0.71
-0.705
-0.695
-0.705
-0.71
-0.715
-0.705
-0.72
-0.71
-0.705
-0.72
-0.69
-0.695
-0.695
-0.71
-0.71
-0.685
-0.69
-0.7
-0.71
-0.73
-0.745
-0.74
-0.745
-0.745
-0.735
-0.745
-0.735
-0.725
-0.725
-0.76
-0.76
-0.75
-0.745
-0.755
-0.8
-0.81
-0.795
-0.775
-0.795
-0.78
-0.785
-0.81
-0.825
-0.845
-0.775
-0.79
-0.805
-0.795
-0.81
-0.82
-0.83
-0.815
-0.82
-0.82
-0.825
-0.84
-0.86
-0.87
-0.845
-0.82
-0.82
-0.825
-0.825
-0.795
-0.785
-0.8
-0.8
-0.82
-0.815
-0.835
-0.81
-0.82
-0.825
-0.83
-0.82
-0.795
-0.81
-0.79
-0.79
-0.815
-0.82
-0.775
-0.805
-0.82
-0.805
-0.815
-0.79
-0.78
-0.81
-0.805
-0.79
-0.775
-0.775
-0.805
-0.79
-0.785
-0.8
-0.79
-0.79
-0.82
-0.805
-0.79
-0.785
-0.78
-0.8
-0.81
-0.8
-0.795
-0.775
-0.78
-0.805
-0.795
-0.79
-0.8
-0.79
-0.775
-0.77
-0.745
-0.735
-0.745
-0.745
-0.725
-0.77
-0.78
-0.775
-0.775
-0.755
-0.755
-0.715
-0.69
-0.695
-0.72
-0.75
-0.755
-0.72
-0.685
-0.68
-0.675
-0.695
-0.705
-0.705
-0.715
-0.71
-0.735
-0.74
-0.81
-0.81
-0.775
-0.785
-0.78
-0.78
-0.8
-0.8
-0.785
-0.775
-0.795
-0.77
-0.76
-0.78
-0.78
-0.765
-0.76
-0.79
-0.805
-0.785
-0.77
-0.76
-0.75
-0.775
-0.775
-0.715
-0.655
-0.585
-0.475
-0.385
-0.255
-0.16
-0.11
-0.11
-0.065
-0.035
-0.02
-0.055
-0.2
-0.395
-0.57
-0.78
-0.96
-1.14
-1.275
-1.34
-1.33
-1.275
-1.13
-1.015
-0.995
-0.965
-0.96
-0.99
-0.975
-0.935
-0.91
-0.875
-0.855
-0.875
-0.87
-0.85
-0.84
-0.805
-0.795
-0.795
-0.79
-0.795
-0.785
-0.77
-0.775
-0.77
-0.755
-0.785
-0.785
-0.75
-0.755
-0.72
-0.69
-0.71
-0.74
-0.725
-0.735
-0.745
-0.75
-0.735
-0.73
-0.74
-0.73
-0.73
-0.705
-0.695
-0.69
-0.71
-0.715
-0.7
-0.685
-0.71
-0.7
-0.68
-0.7
-0.695
-0.675
-0.68
-0.675
-0.685
-0.69
-0.675
-0.67
-0.665
-0.63
-0.585
-0.605
-0.635
-0.64
-0.625
-0.625
-0.65
-0.625
-0.61
-0.575
-0.56
-0.57
-0.565
-0.575
-0.575
-0.585
-0.585
-0.565
-0.58
-0.55
-0.55
-0.56
-0.58
-0.575
-0.59
-0.605
-0.605
-0.575
-0.595
-0.59
-0.575
-0.58
-0.58
-0.59
-0.575
-0.6
-0.615
-0.62
-0.62
-0.61
-0.615
-0.625
-0.64
-0.63
-0.64
-0.63
-0.615
-0.64
-0.64
-0.66
-0.67
-0.685
-0.68
-0.675
-0.68
-0.69
-0.695
-0.665
-0.665
-0.695
-0.68
-0.675
-0.7
-0.705
-0.69
-0.705
-0.69
-0.68
-0.69
-0.705
-0.67
-0.68
-0.685
-0.685
-0.665
-0.66
-0.675
-0.675
-0.68
-0.685
-0.69
-0.71
-0.715
-0.7
-0.665
-0.675
-0.67
-0.66
-0.665
-0.67
-0.66
-0.67
-0.68
-0.675
-0.665
-0.68
-0.675
-0.67
-0.675
-0.67
-0.685
-0.685
-0.695
-0.64
-0.645
-0.66
-0.65
-0.635
-0.655
-0.665
-0.67
-0.665
-0.64
-0.645
-0.645
-0.645
-0.635
-0.65
-0.66
-0.635
-0.65
-0.665
-0.645
-0.645
-0.65
-0.655
-0.64
-0.64
-0.645
-0.665
-0.685
-0.645
-0.63
-0.65
-0.65
-0.66
-0.64
-0.63
-0.64
-0.64
-0.64
-0.655
-0.67
-0.665
-0.675
-0.69
-0.655
-0.645
-0.64
-0.625
-0.635
-0.64
-0.625
-0.62
-0.62
-0.635
-0.63
-0.6
-0.555
-0.54
-0.55
-0.555
-0.56
-0.565
-0.57
-0.575
-0.55
-0.555
-0.57
-0.57
-0.555
-0.565
-0.56
-0.58
-0.58
-0.615
-0.605
-0.625
-0.635
-0.64
-0.665
-0.68
-0.665
-0.65
-0.655
-0.665
-0.655
-0.655
-0.65
-0.655
-0.685
-0.68
-0.6
-0.61
-0.615
-0.62
-0.615
-0.635
-0.645
-0.625
-0.625
-0.655
-0.635
-0.6
-0.56
-0.5
-0.4
-0.325
-0.25
-0.135
-0.015
0.02
0.025
0.115
0.13
0.165
0.125
-0.01
-0.205
-0.395
-0.59
-0.775
-0.965
-1.075
-1.13
-1.105
-1.045
-0.975
-0.925
-0.875
-0.855
-0.825
-0.825
-0.835
-0.83
-0.79
-0.77
-0.755
-0.75
-0.71
-0.69
-0.68
-0.65
-0.645
-0.645
-0.63
-0.62
-0.625
-0.64
-0.615
-0.655
-0.675
-0.66
-0.63
-0.6
-0.59
-0.6
-0.605
-0.61
-0.585
-0.6
-0.6
-0.605
-0.595
-0.59
-0.595
-0.58
-0.58
-0.59
-0.575
-0.585
-0.59
-0.6
-0.59
-0.565
-0.545
-0.555
-0.56
-0.55
-0.53
-0.55
-0.555
-0.555
-0.545
-0.54
-0.515
-0.51
-0.525
-0.505
-0.495
-0.495
-0.46
-0.47
-0.47
-0.475
-0.47
-0.485
-0.47
-0.455
-0.46
-0.46
-0.455
-0.445
-0.425
-0.445
-0.43
-0.425
-0.45
-0.435
-0.44
-0.43
-0.4
-0.42
-0.435
-0.44
-0.42
-0.455
-0.45
-0.455
-0.45
-0.445
-0.435
-0.445
-0.455
-0.435
-0.45
-0.465
-0.465
-0.465
-0.475
-0.455
-0.465
-0.475
-0.485
-0.48
-0.485
-0.49
-0.495
-0.485
-0.5
-0.515
-0.52
-0.525
-0.52
-0.51
-0.51
-0.505
-0.51
-0.515
-0.54
-0.545
-0.525
-0.53
-0.515
-0.55
-0.54
-0.545
-0.565
-0.565
-0.54
-0.54
-0.535
-0.54
-0.56
-0.545
-0.54
-0.535
-0.54
-0.53
-0.545
-0.54
-0.53
-0.515
-0.525
-0.52
-0.525
-0.525
-0.525
-0.52
-0.535
-0.535
-0.52
-0.52
-0.53
-0.515
-0.515
-0.52
-0.525
-0.51
-0.51
-0.485
-0.51
-0.53
-0.525
-0.53
-0.52
-0.535
-0.54
-0.5
-0.495
-0.49
-0.49
-0.515
-0.5
-0.495
-0.505
-0.51
-0.51
-0.505
-0.52
-0.515
-0.47
-0.44
-0.465
-0.47
-0.47
-0.49
-0.49
-0.5
-0.505
-0.5
-0.485
-0.495
-0.5
-0.485
-0.5
-0.515
-0.5
-0.495
-0.515
-0.51
-0.52
-0.53
-0.53
-0.515
-0.495
-0.495
-0.49
-0.485
-0.5
-0.515
-0.52
-0.495
-0.515
-0.525
-0.515
-0.505
-0.505
-0.505
-0.515
-0.495
-0.49
-0.47
-0.465
-0.445
-0.46
-0.46
-0.485
-0.46
-0.445
-0.435
-0.44
-0.445
-0.415
-0.43
-0.42
-0.435
-0.43
-0.42
-0.41
-0.425
-0.41
-0.405
-0.41
-0.425
-0.48
-0.47
-0.485
-0.495
-0.51
-0.51
-0.505
-0.485
-0.49
-0.51
-0.53
-0.525
-0.53
-0.54
-0.525
-0.465
-0.475
-0.485
-0.49
-0.51
-0.515
-0.505
-0.51
-0.505
-0.515
-0.505
-0.495
-0.485
-0.46
-0.4
-0.355
-0.245
-0.14
-0.075
0.035
0.165
0.245
0.25
0.27
0.3
0.335
0.305
0.16
-0.06
-0.245
-0.485
-0.685
-0.84
-0.975
-1.055
-1.05
-1.0
-0.895
-0.84
-0.79
-0.775
-0.77
-0.755
-0.75
-0.705
-0.675
-0.65
-0.63
-0.595
-0.585
-0.595
-0.56
-0.56
-0.52
-0.49
-0.505
-0.485
-0.475
-0.48
-0.495
-0.495
-0.49
-0.495
-0.485
-0.465
-0.47
-0.47
-0.45
-0.49
-0.48
-0.46
-0.465
-0.48
-0.48
-0.47
-0.465
-0.45
-0.44
-0.44
-0.41
-0.415
-0.43
-0.44
-0.4
-0.41
-0.41
-0.395
-0.41
-0.405
-0.4
-0.415
-0.395
-0.405
-0.37
-0.38
-0.39
-0.4
-0.385
-0.38
-0.39
-0.39
-0.315
-0.3
-0.31
-0.31
-0.295
-0.295
-0.295
-0.295
-0.29
-0.28
-0.265
-0.28
-0.275
-0.29
-0.275
-0.28
-0.28
-0.295
-0.29
-0.285
-0.275
-0.285
-0.255
-0.26
-0.265
-0.28
-0.265
-0.275
-0.275
-0.27
-0.275
-0.27
-0.245
-0.265
-0.28
-0.305
-0.31
-0.33
-0.305
-0.31
-0.315
-0.3
-0.27
-0.29
-0.32
-0.32
-0.31
-0.33
-0.325
-0.33
-0.35
-0.355
-0.365
-0.375
-0.38
-0.38
-0.365
-0.39
-0.355
-0.36
-0.385
-0.37
-0.385
-0.39
-0.415
-0.405
-0.405
-0.41
-0.385
-0.395
-0.41
-0.4
-0.395
-0.39
-0.38
-0.405
-0.405
-0.41
-0.4
-0.39
-0.405
-0.4
-0.395
-0.41
-0.41
-0.395
-0.405
-0.405
-0.375
-0.39
-0.415
-0.38
-0.385
-0.415
-0.425
-0.36
-0.33
-0.36
-0.38
-0.395
-0.385
-0.375
-0.38
-0.385
-0.39
-0.375
-0.375
-0.39
-0.39
-0.375
-0.375
-0.37
-0.35
-0.33
-0.36
-0.355
-0.37
-0.39
-0.395
-0.395
-0.405
-0.42
-0.41
-0.4
-0.35
-0.375
-0.375
-0.375
-0.38
-0.385
-0.395
-0.41
-0.4
-0.41
-0.415
-0.42
-0.44
-0.4
-0.36
-0.375
-0.38
-0.35
-0.35
-0.36
-0.37
-0.385
-0.405
-0.39
-0.385
-0.405
-0.41
-0.375
-0.365
-0.395
-0.395
-0.41
-0.425
-0.41
-0.4
-0.4
-0.38
-0.38
-0.375
-0.38
-0.365
-0.375
-0.365
-0.345
-0.325
-0.325
-0.33
-0.315
-0.315
-0.305
-0.33
-0.325
-0.35
-0.365
-0.33
-0.3
-0.3
-0.29
-0.295
-0.31
-0.3
-0.3
-0.305
-0.31
-0.315
-0.34
-0.365
-0.335
-0.365
-0.36
-0.365
-0.395
-0.395
-0.41
-0.405
-0.405
-0.405
-0.405
-0.38
-0.385
-0.39
-0.405
-0.4
-0.39
-0.385
-0.4
-0.395
-0.385
-0.41
-0.395
-0.36
-0.375
-0.365
-0.32
-0.31
-0.25
-0.17
-0.05
0.01
0.105
0.24
0.35
0.395
0.435
0.415
0.405
0.375
0.28
0.075
-0.135
-0.325
-0.58
-0.79
-0.94
-1.045
-1.05
-1.01
-0.92
-0.87
-0.795
-0.72
-0.7
-0.725
-0.695
-0.655
-0.625
-0.6
-0.585
-0.56
-0.51
-0.485
-0.485
-0.5
-0.48
-0.465
-0.45
-0.435
-0.44
-0.37
-0.37
-0.37
-0.375
-0.365
-0.375
-0.385
-0.38
-0.365
-0.375
-0.365
-0.38
-0.335
-0.34
-0.34
-0.355
-0.345
-0.33
-0.335
-0.335
-0.335
-0.31
-0.295
-0.325
-0.33
-0.305
-0.305
-0.33
-0.305
-0.3
-0.295
-0.305
-0.28
-0.265
-0.26
-0.255
-0.285
-0.31
-0.27
-0.265
-0.245
-0.24
-0.235
-0.22
-0.205
-0.205
-0.205
-0.215
-0.18
-0.195
-0.185
-0.155
-0.18
-0.175
-0.18
-0.165
-0.17
-0.175
-0.16
-0.145
-0.135
-0.095
-0.105
-0.125
-0.135
-0.13
-0.15
-0.165
-0.145
-0.165
-0.165
-0.145
-0.15
-0.15
-0.14
-0.155
-0.165
-0.175
-0.16
-0.165
-0.185
-0.2
-0.21
-0.23
-0.21
-0.185
-0.19
-0.19
-0.185
-0.19
-0.225
-0.235
-0.24
-0.24
-0.23
-0.26
-0.275
-0.26
-0.265
-0.255
-0.265
-0.265
-0.27
-0.3
-0.265
-0.245
-0.3
-0.305
-0.305
-0.315
-0.29
-0.305
-0.31
-0.33
-0.325
-0.28
-0.3
-0.305
-0.285
-0.275
-0.285
-0.295
-0.3
-0.305
-0.305
-0.305
-0.325
-0.315
-0.305
-0.32
-0.31
-0.285
-0.255
-0.265
-0.28
-0.265
-0.26
-0.27
-0.275
-0.285
-0.315
-0.32
-0.28
-0.255
-0.28
-0.28
-0.28
-0.25
-0.255
-0.28
-0.285
-0.25
-0.265
-0.285
-0.275
-0.27
-0.265
-0.25
-0.26
-0.245
-0.255
-0.26
-0.26
-0.275
-0.275
-0.275
-0.29
-0.275
-0.285
-0.275
-0.28
-0.265
-0.3
-0.295
-0.28
-0.265
-0.285
-0.28
-0.285
-0.28
-0.27
-0.265
-0.275
-0.275
-0.28
-0.295
-0.305
-0.265
-0.26
-0.265
-0.275
-0.28
-0.25
-0.26
-0.255
-0.26
-0.28
-0.245
-0.28
-0.275
-0.275
-0.275
-0.28
-0.28
-0.265
-0.24
-0.265
-0.235
-0.225
-0.215
-0.24
-0.235
-0.225
-0.22
-0.215
-0.235
-0.195
-0.185
-0.195
-0.21
-0.205
-0.21
-0.215
-0.175
-0.185
-0.235
-0.24
-0.245
-0.27
-0.285
-0.275
-0.28
-0.3
-0.265
-0.27
-0.285
-0.285
-0.26
-0.28
-0.29
-0.285
-0.26
-0.275
-0.265
-0.27
-0.28
-0.295
-0.27
-0.28
-0.295
-0.295
-0.305
-0.295
-0.265
-0.24
-0.235
-0.22
-0.17
-0.095
0.0
0.085
0.185
0.3
0.395
0.455
0.455
0.44
0.49
0.495
0.415
0.23
0.0
-0.16
-0.355
-0.57
-0.76
-0.89
-0.895
-0.865
-0.82
-0.775
-0.69
-0.61
-0.56
-0.54
-0.54
-0.54
-0.5
-0.485
-0.475
-0.43
-0.4
-0.38
-0.36
-0.345
-0.325
-0.32
-0.3
-0.3
-0.3
-0.295
-0.29
-0.31
-0.29
-0.3
-0.295
-0.275
-0.28
-0.26
-0.265
-0.265
-0.265
-0.27
-0.25
-0.24
-0.275
-0.26
-0.24
-0.225
-0.25
-0.235
-0.23
-0.195
-0.185
-0.2
-0.215
-0.215
-0.21
-0.195
-0.21
-0.195
-0.195
-0.19
-0.19
-0.2
-0.195
-0.2
-0.18
-0.185
-0.185
-0.15
-0.16
-0.135
-0.12
-0.14
-0.12
-0.1
-0.105
-0.105
-0.115
-0.11
-0.115
-0.1
-0.095
-0.085
-0.075
-0.065
-0.06
-0.07
-0.08
-0.08
-0.07
-0.07
-0.055
-0.045
-0.035
-0.05
-0.06
-0.07
-0.075
-0.08
-0.075
-0.085
-0.075
-0.07
-0.085
-0.085
-0.11
-0.13
-0.105
-0.11
-0.12
-0.12
-0.125
-0.13
-0.125
-0.11
-0.125
-0.12
-0.125
-0.15
-0.145
-0.145
-0.14
-0.145
-0.17
-0.165
-0.19
-0.2
-0.195
-0.225
-0.23
-0.22
-0.205
-0.23
-0.225
-0.205
-0.215
-0.225
-0.225
-0.215
-0.235
-0.225
-0.195
-0.2
-0.225
-0.22
-0.23
-0.25
-0.245
-0.25
-0.235
-0.24
-0.23
-0.23
-0.24
-0.225
-0.245
-0.24
-0.225
-0.23
-0.25
-0.255
-0.23
-0.225
-0.225
-0.22
-0.205
-0.205
-0.205
-0.21
-0.225
-0.205
-0.19
-0.19
-0.19
-0.185
-0.205
-0.205
-0.21
-0.23
-0.225
-0.22
-0.205
-0.19
-0.175
-0.195
-0.215
-0.205
-0.185
-0.21
-0.23
-0.21
-0.225
-0.23
-0.195
-0.185
-0.19
-0.2
-0.2
-0.23
-0.22
-0.195
-0.205
-0.225
-0.225
-0.225
-0.205
-0.22
-0.24
-0.26
-0.24
-0.245
-0.26
-0.25
-0.22
-0.215
-0.19
-0.19
-0.175
-0.19
-0.165
-0.175
-0.205
-0.195
-0.18
-0.175
-0.17
-0.18
-0.185
-0.2
-0.2
-0.16
-0.155
-0.11
-0.115
-0.13
-0.14
-0.15
-0.16
-0.175
-0.17
-0.175
-0.205
-0.22
-0.24
-0.245
-0.245
-0.225
-0.22
-0.24
-0.245
-0.245
-0.23
-0.245
-0.225
-0.225
-0.225
-0.22
-0.195
-0.215
-0.245
-0.235
-0.26
-0.25
-0.24
-0.21
-0.225
-0.21
-0.185
-0.165
-0.13
-0.02
0.075
0.145
0.25
0.355
0.44
0.46
0.485
0.52
0.555
0.545
0.41
0.2
0.0
-0.19
-0.4
-0.57
-0.735
-0.85
-0.825
-0.77
-0.675
-0.6
-0.51
-0.505
-0.485
-0.465
-0.47
-0.465
-0.445
-0.405
-0.375
-0.36
-0.34
-0.345
-0.34
-0.325
-0.315
-0.305
-0.29
-0.28
-0.275
-0.28
-0.245
-0.24
-0.26
-0.27
-0.275
-0.27
-0.255
-0.275
-0.295
-0.275
-0.23
-0.23
-0.21
-0.22
-0.24
-0.24
-0.235
-0.22
-0.205
-0.215
-0.23
-0.25
-0.245
-0.215
-0.215
-0.21
-0.215
-0.22
-0.215
-0.205
-0.2
-0.205
-0.205
-0.19
-0.175
-0.205
-0.19
-0.185
-0.18
-0.17
-0.16
-0.14
-0.145
-0.145
-0.155
-0.155
-0.155
-0.155
-0.135
-0.095
-0.1
-0.115
-0.1
-0.07
-0.08
-0.08
-0.085
-0.09
-0.085
-0.08
-0.085
-0.105
-0.09
-0.07
-0.05
-0.06
-0.06
-0.09
-0.085
-0.085
-0.1
-0.12
-0.13
-0.15
-0.155
-0.16
-0.125
-0.1
-0.135
-0.11
-0.1
-0.12
-0.115
-0.135
-0.165
-0.165
-0.16
-0.165
-0.2
-0.19
-0.18
-0.185
-0.175
-0.185
-0.165
-0.2
-0.225
-0.22
-0.23
-0.21
-0.21
-0.23
-0.25
-0.24
-0.24
-0.24
-0.245
-0.26
-0.27
-0.255
-0.25
-0.265
-0.235
-0.26
-0.24
-0.245
-0.255
-0.265
-0.245
-0.235
-0.26
-0.27
-0.27
-0.255
-0.275
-0.285
-0.27
-0.31
-0.3
-0.255
-0.235
-0.245
-0.265
-0.245
-0.245
-0.24
-0.255
-0.24
-0.255
-0.25
-0.27
-0.26
-0.245
-0.24
-0.25
-0.235
-0.26
-0.275
-0.28
-0.255
-0.255
-0.255
-0.24
-0.25
-0.25
-0.255
-0.245
-0.255
-0.245
-0.25
-0.275
-0.26
-0.25
-0.27
-0.285
-0.285
-0.28
-0.31
-0.235
-0.23
-0.245
-0.25
-0.25
-0.245
-0.26
-0.26
-0.28
-0.275
-0.275
-0.28
-0.29
-0.31
-0.305
-0.31
-0.3
-0.29
-0.285
-0.235
-0.2
-0.225
-0.22
-0.23
-0.24
-0.25
-0.24
-0.25
-0.235
-0.225
-0.22
-0.22
-0.235
-0.255
-0.24
-0.22
-0.22
-0.225
-0.195
-0.185
-0.19
-0.2
-0.235
-0.225
-0.23
-0.25
-0.255
-0.27
-0.27
-0.305
-0.305
-0.3
-0.305
-0.3
-0.295
-0.31
-0.32
-0.31
-0.305
-0.31
-0.315
-0.275
-0.27
-0.275
-0.265
-0.275
-0.275
-0.26
-0.26
-0.27
-0.245
-0.25
-0.215
-0.125
-0.045
0.02
0.11
0.22
0.325
0.38
0.405
0.445
0.48
0.52
0.48
0.34
0.13
-0.075
-0.245
-0.435
-0.57
-0.71
-0.785
-0.755
-0.71
-0.65
-0.595
-0.565
-0.54
-0.535
-0.525
-0.515
-0.495
-0.455
-0.43
-0.425
-0.4
-0.395
-0.39
-0.39
-0.345
-0.35
-0.31
-0.305
-0.325
-0.33
-0.32
-0.32
-0.285
-0.29
-0.265
-0.295
-0.3
-0.29
-0.3
-0.31
-0.29
-0.285
-0.31
-0.295
-0.27
-0.29
-0.28
-0.275
-0.275
-0.26
-0.27
-0.27
-0.285
-0.26
-0.26
-0.255
-0.255
-0.26
-0.245
-0.255
-0.23
-0.24
-0.24
-0.215
-0.21
-0.225
-0.23
-0.215
-0.205
-0.21
-0.22
-0.195
-0.19
-0.185
-0.195
-0.2
-0.18
-0.165
-0.165
-0.185
-0.175
-0.195
-0.18
-0.17
-0.17
-0.155
-0.13
-0.1
-0.1
-0.13
-0.105
-0.11
-0.12
-0.13
-0.125
-0.145
-0.135
-0.155
-0.155
-0.135
-0.14
-0.16
-0.165
-0.155
-0.16
-0.17
-0.18
-0.185
-0.195
-0.19
-0.175
-0.165
-0.17
-0.185
-0.195
-0.23
-0.225
-0.2
-0.205
-0.235
-0.245
-0.25
-0.25
-0.255
-0.255
-0.265
-0.24
-0.24
-0.25
-0.24
-0.245
-0.26
-0.265
-0.265
-0.275
-0.275
-0.285
-0.285
-0.3
-0.285
-0.285
-0.31
-0.305
-0.275
-0.285
-0.295
-0.29
-0.28
-0.295
-0.305
-0.29
-0.295
-0.305
-0.31
-0.28
-0.27
-0.27
-0.27
-0.27
-0.29
-0.285
-0.29
-0.315
-0.275
-0.28
-0.285
-0.27
-0.25
-0.27
-0.29
-0.305
-0.29
-0.28
-0.275
-0.285
-0.29
-0.285
-0.3
-0.285
-0.27
-0.265
-0.285
-0.275
-0.26
-0.255
-0.255
-0.265
-0.275
-0.275
-0.285
-0.27
-0.27
-0.26
-0.26
-0.28
-0.28
-0.295
-0.32
-0.315
-0.29
-0.275
-0.265
-0.27
-0.28
-0.275
-0.25
-0.27
-0.295
-0.295
-0.3
-0.305
-0.31
-0.3
-0.305
-0.315
-0.32
-0.31
-0.285
-0.28
-0.235
-0.235
-0.24
-0.245
-0.245
-0.27
-0.27
-0.245
-0.245
-0.22
-0.215
-0.23
-0.23
-0.225
-0.22
-0.22
-0.215
-0.21
-0.215
-0.21
-0.215
-0.235
-0.25
-0.265
-0.28
-0.28
-0.28
-0.28
-0.325
-0.32
-0.345
-0.33
-0.335
-0.275
-0.25
-0.28
-0.305
-0.295
-0.29
-0.285
-0.295
-0.31
-0.335
-0.325
-0.315
-0.32
-0.32
-0.315
-0.32
-0.315
-0.31
-0.225
-0.215
-0.17
-0.06
0.015
0.095
0.205
0.285
0.37
0.43
0.43
0.455
0.495
0.495
0.365
0.16
-0.03
-0.235
-0.44
-0.615
-0.755
-0.855
-0.87
-0.82
-0.76
-0.665
-0.635
-0.63
-0.625
-0.605
-0.515
-0.51
-0.5
-0.48
-0.44
-0.43
-0.435
-0.425
-0.41
-0.385
-0.365
-0.385
-0.375
-0.38
-0.375
-0.34
-0.335
-0.34
-0.345
-0.325
-0.33
-0.325
-0.285
-0.315
-0.345
-0.305
-0.31
-0.335
-0.3
-0.295
-0.33
-0.325
-0.3
-0.295
-0.3
-0.295
-0.3
-0.31
-0.29
-0.275
-0.29
-0.3
-0.305
-0.31
-0.295
-0.29
-0.29
-0.285
-0.285
-0.255
-0.25
-0.245
-0.215
-0.245
-0.24
-0.24
-0.23
-0.245
-0.24
-0.205
-0.215
-0.23
-0.21
-0.175
-0.15
-0.17
-0.19
-0.165
-0.135
-0.155
-0.15
-0.145
-0.15
-0.165
-0.15
-0.135
-0.14
-0.14
-0.13
-0.135
-0.14
-0.145
-0.145
-0.14
-0.145
-0.15
-0.165
-0.16
-0.16
-0.17
-0.175
-0.185
-0.2
-0.195
-0.195
-0.195
-0.185
-0.22
-0.2
-0.21
-0.195
-0.2
-0.22
-0.235
-0.24
-0.23
-0.255
-0.255
-0.245
-0.25
-0.235
-0.23
-0.23
-0.255
-0.27
-0.265
-0.285
-0.28
-0.28
-0.31
-0.3
-0.275
-0.265
-0.29
-0.315
-0.315
-0.315
-0.31
-0.315
-0.295
-0.29
-0.295
-0.28
-0.285
-0.29
-0.295
-0.315
-0.295
-0.285
-0.315
-0.315
-0.33
-0.315
-0.315
-0.335
-0.32
-0.315
-0.285
-0.295
-0.325
-0.315
-0.28
-0.275
-0.295
-0.29
-0.29
-0.33
-0.315
-0.295
-0.305
-0.28
-0.28
-0.27
-0.265
-0.265
-0.265
-0.305
-0.305
-0.31
-0.31
-0.33
-0.315
-0.315
-0.295
-0.28
-0.275
-0.295
-0.295
-0.29
-0.305
-0.315
-0.295
-0.325
-0.305
-0.31
-0.305
-0.285
-0.29
-0.295
-0.305
-0.3
-0.28
-0.325
-0.335
-0.335
-0.305
-0.305
-0.305
-0.32
-0.315
-0.315
-0.305
-0.33
-0.315
-0.295
-0.305
-0.295
-0.285
-0.255
-0.29
-0.29
-0.28
-0.27
-0.24
-0.26
-0.255
-0.26
-0.25
-0.24
-0.22
-0.22
-0.21
-0.23
-0.23
-0.25
-0.25
-0.235
-0.26
-0.275
-0.29
-0.29
-0.295
-0.305
-0.305
-0.31
-0.325
-0.32
-0.32
-0.33
-0.335
-0.32
-0.315
-0.33
-0.315
-0.32
-0.33
-0.325
-0.33
-0.36
-0.325
-0.315
-0.295
-0.295
-0.27
-0.285
-0.265
-0.255
-0.215
-0.11
-0.01
0.075
0.165
0.3
0.38
0.42
0.43
0.4
0.435
0.47
0.37
0.19
-0.02
-0.21
-0.42
-0.655
-0.82
-0.965
-0.97
-0.945
-0.89
-0.765
-0.715
-0.66
-0.63
-0.62
-0.635
-0.605
-0.555
-0.555
-0.515
-0.475
-0.46
-0.425
-0.4
-0.4
-0.385
-0.365
-0.37
-0.35
-0.37
-0.35
-0.345
-0.35
-0.32
-0.32
-0.365
-0.375
-0.355
-0.35
-0.33
-0.3
-0.315
-0.3
-0.275
-0.28
-0.29
-0.305
-0.32
-0.305
-0.275
-0.295
-0.31
-0.325
-0.31
-0.29
-0.285
-0.275
-0.3
-0.285
-0.275
-0.28
-0.25
-0.255
-0.245
-0.255
-0.26
-0.235
-0.22
-0.24
-0.235
-0.19
-0.205
-0.21
-0.185
-0.185
-0.19
-0.2
-0.2
-0.18
-0.165
-0.175
-0.185
-0.185
-0.18
-0.16
-0.145
-0.115
-0.11
-0.095
-0.1
-0.12
-0.125
-0.145
-0.135
-0.15
-0.155
-0.14
-0.125
-0.13
-0.145
-0.14
-0.155
-0.18
-0.165
-0.145
-0.14
-0.17
-0.165
-0.16
-0.165
-0.18
-0.19
-0.185
-0.185
-0.16
-0.155
-0.185
-0.185
-0.2
-0.215
-0.215
-0.22
-0.22
-0.225
-0.25
-0.255
-0.23
-0.245
-0.255
-0.24
-0.25
-0.28
-0.27
-0.275
-0.27
-0.29
-0.295
-0.265
-0.27
-0.275
-0.29
-0.29
-0.26
-0.255
-0.28
-0.28
-0.275
-0.285
-0.285
-0.295
-0.295
-0.285
-0.275
-0.28
-0.285
-0.31
-0.325
-0.325
-0.31
-0.275
-0.275
-0.275
-0.29
-0.29
-0.28
-0.245
-0.23
-0.24
-0.265
-0.285
-0.315
-0.31
-0.275
-0.28
-0.285
-0.265
-0.26
-0.275
-0.275
-0.275
-0.265
-0.28
-0.285
-0.29
-0.285
-0.28
-0.28
-0.28
-0.285
-0.285
-0.27
-0.27
-0.255
-0.255
-0.265
-0.26
-0.235
-0.25
-0.26
-0.275
-0.305
-0.315
-0.315
-0.32
-0.325
-0.28
-0.305
-0.32
-0.285
-0.295
-0.28
-0.265
-0.27
-0.26
-0.245
-0.25
-0.25
-0.24
-0.27
-0.26
-0.265
-0.235
-0.22
-0.22
-0.23
-0.245
-0.24
-0.23
-0.245
-0.22
-0.22
-0.225
-0.225
-0.24
-0.24
-0.235
-0.25
-0.27
-0.285
-0.275
-0.295
-0.285
-0.29
-0.33
-0.335
-0.31
-0.335
-0.355
-0.31
-0.315
-0.32
-0.3
-0.28
-0.29
-0.27
-0.285
-0.29
-0.295
-0.305
-0.3
-0.295
-0.27
-0.275
-0.27
-0.205
-0.145
-0.05
0.02
0.1
0.185
0.29
0.385
0.425
0.455
0.435
0.445
0.415
0.315
0.135
-0.04
-0.24
-0.46
-0.65
-0.815
-0.93
-0.945
-0.905
-0.845
-0.75
-0.64
-0.58
-0.58
-0.58
-0.57
-0.53
-0.5
-0.505
-0.49
-0.435
-0.39
-0.39
-0.385
-0.375
-0.38
-0.355
-0.325
-0.335
-0.33
-0.3
-0.295
-0.3
-0.32
-0.3
-0.305
-0.3
-0.3
-0.305
-0.295
-0.265
-0.265
-0.28
-0.285
-0.29
-0.295
-0.28
-0.27
-0.275
-0.285
-0.275
-0.265
-0.25
-0.245
-0.25
-0.255
-0.25
-0.26
-0.23
-0.255
-0.245
-0.245
-0.22
-0.22
-0.215
-0.235
-0.205
-0.195
-0.2
-0.205
-0.185
-0.185
-0.18
-0.15
-0.15
-0.15
-0.155
-0.155
-0.17
-0.155
-0.125
-0.13
-0.13
-0.125
-0.115
-0.12
-0.115
-0.08
-0.09
-0.08
-0.07
-0.07
-0.085
-0.105
-0.12
-0.12
-0.14
-0.105
-0.12
-0.155
-0.13
-0.1
-0.12
-0.14
-0.1
-0.115
-0.12
-0.135
-0.145
-0.135
-0.135
-0.135
-0.155
-0.155
-0.16
-0.185
-0.18
-0.175
-0.19
-0.19
-0.185
-0.195
-0.21
-0.195
-0.195
-0.21
-0.2
-0.215
-0.215
-0.205
-0.215
-0.23
-0.24
-0.23
-0.24
-0.265
-0.24
-0.255
-0.275
-0.275
-0.255
-0.235
-0.265
-0.275
-0.24
-0.255
-0.26
-0.255
-0.235
-0.24
-0.255
-0.235
-0.27
-0.27
-0.27
-0.245
-0.245
-0.26
-0.235
-0.23
-0.235
-0.265
-0.26
-0.24
-0.255
-0.255
-0.265
-0.24
-0.26
-0.255
-0.255
-0.265
-0.23
-0.21
-0.21
-0.22
-0.215
-0.225
-0.245
-0.23
-0.23
-0.255
-0.265
-0.26
-0.23
-0.23
-0.25
-0.225
-0.21
-0.215
-0.215
-0.225
-0.225
-0.235
-0.26
-0.245
-0.22
-0.25
-0.25
-0.24
-0.255
-0.255
-0.26
-0.25
-0.26
-0.245
-0.215
-0.205
-0.175
-0.18
-0.2
-0.19
-0.21
-0.21
-0.21
-0.185
-0.175
-0.18
-0.18
-0.19
-0.21
-0.19
-0.17
-0.175
-0.18
-0.16
-0.145
-0.14
-0.185
-0.17
-0.19
-0.2
-0.225
-0.235
-0.245
-0.245
-0.25
-0.255
-0.255
-0.24
-0.26
-0.255
-0.255
-0.26
-0.26
-0.245
-0.25
-0.255
-0.255
-0.255
-0.245
-0.25
-0.25
-0.25
-0.24
-0.225
-0.215
-0.22
-0.21
-0.185
-0.13
-0.035
0.045
0.12
0.27
0.385
0.435
0.44
0.455
0.485
0.485
0.47
0.345
0.11
-0.065
-0.25
-0.435
-0.605
-0.73
-0.82
-0.815
-0.785
-0.7
-0.63
-0.59
-0.56
-0.53
-0.465
-0.44
-0.435
-0.43
-0.395
-0.355
-0.36
-0.36
-0.345
-0.355
-0.31
-0.295
-0.28
-0.255
-0.265
-0.27
-0.27
-0.27
-0.29
-0.29
-0.3
-0.27
-0.26
-0.27
-0.25
-0.25
-0.245
-0.235
-0.23
-0.225
-0.235
-0.24
-0.245
-0.235
-0.225
-0.235
-0.24
-0.235
-0.215
-0.21
-0.225
-0.22
-0.235
-0.215
-0.225
-0.235
-0.22
-0.185
-0.165
-0.17
-0.18
-0.17
-0.18
-0.165
-0.17
-0.17
-0.215
-0.18
-0.16
-0.135
-0.135
-0.115
-0.135
-0.14
-0.115
-0.11
-0.11
-0.1
-0.1
-0.1
-0.095
-0.085
-0.09
-0.08
-0.07
-0.075
-0.08
-0.075
-0.07
-0.1
-0.085
-0.1
-0.11
-0.125
-0.11
-0.125
-0.115
-0.105
-0.115
-0.13
-0.14
-0.125
-0.135
-0.13
-0.13
-0.145
-0.145
-0.13
-0.125
-0.135
-0.16
-0.165
-0.22
-0.23
-0.205
-0.19
-0.21
-0.2
-0.19
-0.175
-0.19
-0.2
-0.22
-0.23
-0.215
-0.22
-0.22
-0.225
-0.24
-0.24
-0.255
-0.265
-0.265
-0.265
-0.26
-0.26
-0.265
-0.255
-0.26
-0.27
-0.27
-0.285
-0.305
-0.31
-0.285
-0.255
-0.245
-0.25
-0.255
-0.26
-0.245
-0.255
-0.255
-0.25
-0.25
-0.26
-0.25
-0.25
-0.255
-0.265
-0.265
-0.28
-0.275
-0.27
-0.275
-0.28
-0.295
-0.3
-0.32
-0.315
-0.285
-0.27
-0.265
-0.25
-0.25
-0.275
-0.26
-0.26
-0.265
-0.285
-0.275
-0.295
-0.31
-0.28
-0.265
-0.27
-0.285
-0.27
-0.28
-0.29
-0.285
-0.295
-0.28
-0.32
-0.315
-0.305
-0.33
-0.315
-0.325
-0.32
-0.285
-0.265
-0.26
-0.255
-0.23
-0.24
-0.255
-0.275
-0.29
-0.275
-0.255
-0.24
-0.24
-0.26
-0.315
-0.3
-0.27
-0.27
-0.265
-0.26
-0.25
-0.23
-0.24
-0.255
-0.275
-0.275
-0.3
-0.325
-0.36
-0.36
-0.355
-0.355
-0.335
-0.36
-0.35
-0.335
-0.345
-0.35
-0.35
-0.335
-0.34
-0.375
-0.375
-0.38
-0.365
-0.36
-0.36
-0.355
-0.36
-0.365
-0.35
-0.32
-0.305
-0.29
-0.22
-0.135
-0.035
0.025
0.125
0.21
0.28
0.295
0.3
0.315
0.395
0.355
0.245
0.045
-0.105
-0.3
-0.5
-0.67
-0.82
-0.925
-0.935
-0.89
-0.8
-0.73
-0.65
-0.635
-0.63
-0.61
-0.59
-0.57
-0.57
-0.535
-0.48
-0.48
-0.51
-0.505
-0.475
-0.46
-0.445
-0.43
-0.43
-0.44
-0.445
-0.455
-0.44
-0.415
-0.405
-0.395
-0.395
-0.385
-0.395
-0.385
-0.37
-0.365
-0.38
-0.365
-0.36
-0.365
-0.36
-0.37
-0.385
-0.425
-0.41
-0.4
-0.39
-0.36
-0.365
-0.375
-0.37
-0.38
-0.365
-0.345
-0.355
-0.355
-0.35
-0.35
-0.355
-0.365
-0.35
-0.335
-0.345
-0.315
-0.335
-0.335
-0.33
-0.305
-0.32
-0.315
-0.325
-0.315
-0.285
-0.295
-0.295
-0.29
-0.29
-0.285
-0.28
-0.285
-0.295
-0.31
-0.295
-0.28
-0.265
-0.28
-0.285
-0.27
-0.255
-0.275
-0.265
-0.27
-0.285
-0.295
-0.295
-0.3
-0.305
-0.315
-0.32
-0.33
-0.32
-0.3
-0.335
-0.335
-0.33
-0.335
-0.35
-0.31
-0.32
-0.345
-0.36
-0.365
-0.365
-0.36
-0.375
-0.39
-0.4
-0.41
-0.415
-0.405
-0.395
-0.4
-0.42
-0.41
-0.41
-0.43
-0.415
-0.42
-0.425
-0.435
-0.445
-0.43
-0.435
-0.445
-0.46
-0.455
-0.46
-0.465
-0.455
-0.45
-0.46
-0.485
-0.47
-0.435
-0.435
-0.44
-0.43
-0.45
-0.47
-0.455
-0.465
-0.46
-0.47
-0.445
-0.435
-0.44
-0.44
-0.45
-0.44
-0.44
-0.445
-0.455
-0.46
-0.455
-0.445
-0.45
-0.47
-0.45
-0.46
-0.46
-0.455
-0.465
-0.47
-0.46
-0.445
-0.455
-0.445
-0.435
-0.445
-0.445
-0.445
-0.46
-0.445
-0.44
-0.435
-0.47
-0.465
-0.475
-0.49
-0.495
-0.48
-0.48
-0.475
-0.485
-0.49
-0.485
-0.485
-0.47
-0.445
-0.435
-0.44
-0.45
-0.425
-0.455
-0.43
-0.445
-0.45
-0.435
-0.405
-0.405
-0.395
-0.41
-0.395
-0.39
-0.41
-0.425
-0.415
-0.405
-0.395
-0.385
-0.405
-0.42
-0.44
-0.455
-0.475
-0.455
-0.46
-0.475
-0.475
-0.485
-0.49
-0.515
-0.51
-0.505
-0.505
-0.52
-0.52
-0.535
-0.52
-0.525
-0.515
-0.53
-0.535
-0.49
-0.495
-0.52
-0.52
-0.5
-0.47
-0.485
-0.49
-0.485
-0.415
-0.33
-0.24
-0.175
-0.085
0.02
0.105
0.165
0.165
0.18
0.26
0.3
0.215
0.03
-0.145
-0.305
-0.505
-0.73
-0.895
-1.01
-1.045
-1.015
-0.95
-0.88
-0.795
-0.785
-0.77
-0.75
-0.75
-0.755
-0.725
-0.665
-0.65
-0.665
-0.65
-0.63
-0.6
-0.6
-0.57
-0.55
-0.555
-0.565
-0.53
-0.525
-0.515
-0.52
-0.525
-0.535
-0.54
-0.53
-0.51
-0.515
-0.52
-0.54
-0.55
-0.495
-0.51
-0.505
-0.505
-0.5
-0.5
-0.505
-0.51
-0.5
-0.495
-0.505
-0.495
-0.49
-0.5
-0.495
-0.48
-0.495
-0.51
-0.485
-0.46
-0.455
-0.46
-0.44
-0.425
-0.42
-0.4
-0.42
-0.425
-0.415
-0.41
-0.43
-0.425
-0.435
-0.435
-0.43
-0.41
-0.41
-0.425
-0.415
-0.37
-0.36
-0.36
-0.36
-0.355
-0.35
-0.355
-0.365
-0.36
-0.35
-0.36
-0.37
-0.38
-0.38
-0.345
-0.35
-0.345
-0.355
-0.36
-0.35
-0.37
-0.38
-0.38
-0.375
-0.395
-0.41
-0.435
-0.45
-0.415
-0.395
-0.365
-0.395
-0.4
-0.41
-0.415
-0.4
-0.41
-0.435
-0.42
-0.415
-0.425
-0.435
-0.43
-0.435
-0.47
-0.48
-0.485
-0.495
-0.495
-0.465
-0.485
-0.475
-0.48
-0.505
-0.525
-0.485
-0.485
-0.505
-0.485
-0.515
-0.515
-0.485
-0.47
-0.5
-0.495
-0.485
-0.5
-0.505
-0.5
-0.47
-0.465
-0.505
-0.47
-0.48
-0.495
-0.515
-0.495
-0.5
-0.49
-0.465
-0.485
-0.495
-0.5
-0.48
-0.48
-0.485
-0.485
-0.5
-0.485
-0.485
-0.495
-0.495
-0.5
-0.495
-0.445
-0.47
-0.535
-0.505
-0.475
-0.47
-0.5
-0.49
-0.485
-0.485
-0.48
-0.5
-0.49
-0.495
-0.5
-0.505
-0.51
-0.505
-0.51
-0.51
-0.505
-0.5
-0.5
-0.525
-0.49
-0.43
-0.44
-0.455
-0.455
-0.455
-0.45
-0.455
-0.485
-0.48
-0.415
-0.425
-0.41
-0.405
-0.395
-0.42
-0.44
-0.44
-0.43
-0.44
-0.435
-0.415
-0.41
-0.415
-0.42
-0.455
-0.445
-0.42
-0.475
-0.515
-0.5
-0.495
-0.515
-0.495
-0.5
-0.505
-0.52
-0.53
-0.53
-0.56
-0.535
-0.495
-0.51
-0.495
-0.51
-0.54
-0.53
-0.525
-0.505
-0.475
-0.47
-0.48
-0.485
-0.48
-0.445
-0.385
-0.33
-0.23
-0.17
-0.05
0.13
0.215
0.25
0.27
0.275
0.3
0.3
0.185
-0.025
-0.21
-0.445
-0.71
-0.87
-1.03
-1.13
-1.12
-1.09
-1.01
-0.93
-0.86
-0.8
-0.8
-0.82
-0.785
-0.755
-0.73
-0.665
-0.625
-0.61
-0.61
-0.59
-0.58
-0.6
-0.575
-0.54
-0.525
-0.515
-0.5
-0.49
-0.505
-0.5
-0.5
-0.505
-0.485
-0.465
-0.515
-0.515
-0.485
-0.485
-0.485
-0.47
-0.47
-0.475
-0.46
-0.445
-0.465
-0.465
-0.45
-0.44
-0.47
-0.45
-0.445
-0.45
-0.415
-0.43
-0.45
-0.445
-0.435
-0.45
-0.48
-0.415
-0.39
-0.35
-0.365
-0.36
-0.4
-0.39
-0.375
-0.375
-0.355
-0.325
-0.33
-0.315
-0.32
-0.34
-0.365
-0.35
-0.335
-0.31
-0.325
-0.32
-0.295
-0.28
-0.28
-0.285
-0.29
-0.275
-0.295
-0.285
-0.275
-0.28
-0.285
-0.28
-0.275
-0.275
-0.28
-0.28
-0.275
-0.265
-0.275
-0.28
-0.3
-0.3
-0.305
-0.33
-0.33
-0.32
-0.32
-0.325
-0.315
-0.325
-0.33
-0.32
-0.34
-0.31
-0.34
-0.34
-0.345
-0.375
-0.37
-0.385
-0.38
-0.335
-0.365
-0.39
-0.39
-0.38
-0.405
-0.42
-0.41
-0.375
-0.39
-0.405
-0.415
-0.43
-0.445
-0.435
-0.42
-0.42
-0.435
-0.42
-0.415
-0.435
-0.425
-0.43
-0.435
-0.425
-0.435
-0.425
-0.43
-0.42
-0.415
-0.42
-0.41
-0.42
-0.43
-0.415
-0.405
-0.425
-0.43
-0.405
-0.415
-0.425
-0.425
-0.43
-0.415
-0.4
-0.425
-0.43
-0.425
-0.44
-0.45
-0.37
-0.4
-0.43
-0.41
-0.39
-0.41
-0.395
-0.395
-0.4
-0.41
-0.395
-0.41
-0.445
-0.445
-0.415
-0.4
-0.425
-0.435
-0.42
-0.43
-0.43
-0.42
-0.44
-0.415
-0.39
-0.385
-0.395
-0.395
-0.395
-0.365
-0.365
-0.36
-0.38
-0.365
-0.355
-0.355
-0.355
-0.35
-0.35
-0.37
-0.36
-0.385
-0.385
-0.395
-0.37
-0.345
-0.37
-0.385
-0.425
-0.43
-0.41
-0.43
-0.44
-0.42
-0.395
-0.43
-0.45
-0.435
-0.435
-0.44
-0.435
-0.425
-0.43
-0.43
-0.425
-0.44
-0.44
-0.425
-0.43
-0.425
-0.42
-0.43
-0.425
-0.42
-0.405
-0.41
-0.345
-0.275
-0.195
-0.065
0.01
0.11
0.225
0.32
0.375
0.35
0.355
0.345
0.295
0.125
-0.08
-0.29
-0.52
-0.73
-0.89
-1.025
-1.065
-1.06
-0.99
-0.91
-0.805
-0.725
-0.7
-0.69
-0.68
-0.665
-0.65
-0.62
-0.59
-0.545
-0.52
-0.525
-0.515
-0.485
-0.48
-0.46
-0.435
-0.425
-0.43
-0.435
-0.42
-0.425
-0.42
-0.425
-0.43
-0.435
-0.395
-0.41
-0.425
-0.405
-0.405
-0.42
-0.395
-0.39
-0.395
-0.39
-0.39
-0.38
-0.395
-0.405
-0.41
-0.415
-0.35
-0.345
-0.35
-0.36
-0.355
-0.325
-0.33
-0.335
-0.345
-0.36
-0.34
-0.34
-0.345
-0.34
-0.32
-0.325
-0.33
-0.29
-0.29
-0.295
-0.27
-0.265
-0.28
-0.295
-0.285
-0.25
-0.245
-0.21
-0.23
-0.24
-0.22
-0.215
-0.245
-0.245
-0.22
-0.185
-0.195
-0.195
-0.2
-0.22
-0.23
-0.23
-0.24
-0.255
-0.265
-0.24
-0.255
-0.24
-0.235
-0.255
-0.235
-0.24
-0.21
-0.2
-0.225
-0.235
-0.275
-0.255
-0.255
-0.275
-0.255
-0.255
-0.27
-0.29
-0.245
-0.26
-0.3
-0.31
-0.29
-0.28
-0.295
-0.29
-0.32
-0.33
-0.33
-0.325
-0.34
-0.335
-0.35
-0.36
-0.355
-0.34
-0.325
-0.335
-0.35
-0.35
-0.345
-0.335
-0.35
-0.365
-0.37
-0.365
-0.36
-0.35
-0.345
-0.35
-0.345
-0.34
-0.35
-0.355
-0.345
-0.35
-0.35
-0.33
-0.33
-0.34
-0.33
-0.33
-0.345
-0.345
-0.34
-0.34
-0.335
-0.325
-0.35
-0.355
-0.345
-0.34
-0.335
-0.335
-0.34
-0.345
-0.33
-0.34
-0.35
-0.365
-0.355
-0.335
-0.355
-0.36
-0.35
-0.355
-0.365
-0.36
-0.375
-0.39
-0.385
-0.35
-0.33
-0.33
-0.335
-0.315
-0.32
-0.305
-0.305
-0.315
-0.3
-0.29
-0.32
-0.34
-0.31
-0.295
-0.31
-0.28
-0.28
-0.275
-0.265
-0.265
-0.285
-0.3
-0.3
-0.31
-0.31
-0.29
-0.285
-0.28
-0.265
-0.295
-0.315
-0.345
-0.34
-0.365
-0.39
-0.38
-0.395
-0.385
-0.355
-0.355
-0.39
-0.385
-0.37
-0.36
-0.365
-0.375
-0.385
-0.39
-0.38
-0.395
-0.385
-0.395
-0.375
-0.335
-0.33
-0.305
-0.3
-0.29
-0.26
-0.175
-0.095
-0.02
0.08
0.205
0.26
0.305
0.31
0.325
0.375
0.365
0.245
0.045
-0.135
-0.305
-0.52
-0.685
-0.83
-0.975
-0.975
-0.935
-0.865
-0.795
-0.695
-0.645
-0.61
-0.625
-0.62
-0.59
-0.56
-0.505
-0.495
-0.465
-0.48
-0.495
-0.49
-0.475
-0.475
-0.435
-0.4
-0.39
-0.37
-0.34
-0.325
-0.35
-0.375
-0.37
-0.355
-0.35
-0.355
-0.36
-0.365
-0.36
-0.365
-0.37
-0.385
-0.315
-0.335
-0.35
-0.335
-0.35
-0.34
-0.325
-0.335
-0.325
-0.335
-0.325
-0.335
-0.335
-0.345
-0.345
-0.38
-0.365
-0.285
-0.275
-0.275
-0.285
-0.285
-0.265
-0.27
-0.29
-0.28
-0.26
-0.26
-0.28
-0.275
-0.28
-0.275
-0.26
-0.215
-0.215
-0.2
-0.215
-0.185
-0.19
-0.19
-0.195
-0.2
-0.185
-0.2
-0.195
-0.22
-0.205
-0.195
-0.205
-0.2
-0.185
-0.19
-0.19
-0.195
-0.23
-0.245
-0.245
-0.235
-0.24
-0.245
-0.25
-0.25
-0.255
-0.26
-0.255
-0.225
-0.23
-0.25
-0.245
-0.26
-0.26
-0.26
-0.265
-0.285
-0.29
-0.31
-0.31
-0.32
-0.32
-0.275
-0.29
-0.31
-0.315
-0.32
-0.345
-0.35
-0.315
-0.33
-0.34
-0.345
-0.365
-0.36
-0.35
-0.36
-0.37
-0.355
-0.34
-0.355
-0.355
-0.35
-0.35
-0.34
-0.34
-0.34
-0.36
-0.35
-0.355
-0.355
-0.35
-0.35
-0.345
-0.36
-0.37
-0.37
-0.38
-0.35
-0.325
-0.34
-0.365
-0.345
-0.36
-0.37
-0.39
-0.385
-0.385
-0.365
-0.385
-0.385
-0.365
-0.335
-0.33
-0.335
-0.33
-0.325
-0.33
-0.33
-0.325
-0.355
-0.355
-0.37
-0.39
-0.395
-0.365
-0.375
-0.38
-0.375
-0.38
-0.365
-0.36
-0.33
-0.32
-0.34
-0.315
-0.305
-0.31
-0.33
-0.345
-0.365
-0.32
-0.295
-0.285
-0.29
-0.285
-0.305
-0.315
-0.305
-0.315
-0.31
-0.295
-0.3
-0.305
-0.335
-0.35
-0.355
-0.345
-0.335
-0.33
-0.335
-0.355
-0.36
-0.375
-0.365
-0.375
-0.395
-0.4
-0.395
-0.38
-0.4
-0.38
-0.38
-0.39
-0.4
-0.39
-0.42
-0.395
-0.365
-0.36
-0.365
-0.35
-0.365
-0.35
-0.345
-0.34
-0.255
-0.17
-0.095
-0.005
0.115
0.215
0.28
0.295
0.31
0.35
0.365
0.32
0.16
-0.035
-0.23
-0.42
-0.605
-0.74
-0.88
-0.945
-0.95
-0.88
-0.79
-0.71
-0.665
-0.63
-0.625
-0.63
-0.605
-0.58
-0.58
-0.54
-0.51
-0.495
-0.49
-0.465
-0.46
-0.44
-0.455
-0.47
-0.425
-0.39
-0.39
-0.39
-0.375
-0.375
-0.38
-0.375
-0.365
-0.4
-0.425
-0.405
-0.41
-0.41
-0.41
-0.375
-0.36
-0.38
-0.385
-0.39
-0.39
-0.375
-0.385
-0.345
-0.355
-0.355
-0.37
-0.355
-0.345
-0.36
-0.36
-0.345
-0.35
-0.345
-0.315
-0.31
-0.315
-0.325
-0.31
-0.325
-0.345
-0.335
-0.31
-0.305
-0.305
-0.295
-0.28
-0.285
-0.27
-0.26
-0.265
-0.245
-0.25
-0.27
-0.255
-0.25
-0.25
-0.23
-0.235
-0.225
-0.225
-0.215
-0.225
-0.23
-0.225
-0.21
-0.225
-0.195
-0.2
-0.25
-0.24
-0.24
-0.25
-0.27
-0.28
-0.285
-0.29
-0.29
-0.28
-0.255
-0.25
-0.245
-0.26
-0.265
-0.28
-0.29
-0.29
-0.295
-0.3
-0.3
-0.32
-0.33
-0.355
-0.345
-0.32
-0.335
-0.355
-0.365
-0.34
-0.34
-0.36
-0.37
-0.37
-0.37
-0.365
-0.37
-0.38
-0.36
-0.37
-0.395
-0.375
-0.375
-0.38
-0.375
-0.36
-0.34
-0.375
-0.39
-0.39
-0.385
-0.365
-0.375
-0.375
-0.385
-0.365
-0.375
-0.39
-0.38
-0.38
-0.38
-0.375
-0.38
-0.395
-0.39
-0.385
-0.39
-0.39
-0.395
-0.38
-0.4
-0.4
-0.385
-0.365
-0.365
-0.35
-0.38
-0.385
-0.38
-0.395
-0.38
-0.385
-0.355
-0.36
-0.385
-0.385
-0.385
-0.39
-0.395
-0.4
-0.41
-0.405
-0.405
-0.43
-0.41
-0.39
-0.355
-0.345
-0.335
-0.335
-0.34
-0.335
-0.335
-0.37
-0.37
-0.35
-0.355
-0.3
-0.33
-0.335
-0.375
-0.355
-0.33
-0.325
-0.315
-0.31
-0.305
-0.305
-0.325
-0.34
-0.355
-0.375
-0.375
-0.4
-0.395
-0.385
-0.405
-0.395
-0.39
-0.41
-0.415
-0.385
-0.375
-0.4
-0.385
-0.4
-0.435
-0.43
-0.415
-0.42
-0.46
-0.415
-0.425
-0.42
-0.4
-0.39
-0.38
-0.385
-0.375
-0.375
-0.365
-0.29
-0.2
-0.115
-0.04
0.08
0.175
0.245
0.28
0.27
0.29
0.31
0.245
0.06
-0.12
-0.285
-0.485
-0.67
-0.82
-0.975
-0.975
-0.935
-0.89
-0.81
-0.73
-0.705
-0.7
-0.68
-0.655
-0.65
-0.595
-0.54
-0.515
-0.52
-0.48
-0.475
-0.48
-0.48
-0.46
-0.435
-0.425
-0.435
-0.455
-0.45
-0.435
-0.46
-0.45
-0.45
-0.39
-0.385
-0.39
-0.4
-0.42
-0.41
-0.385
-0.38
-0.39
-0.39
-0.39
-0.395
-0.39
-0.38
-0.385
-0.38
-0.37
-0.38
-0.375
-0.375
-0.345
-0.35
-0.38
-0.385
-0.38
-0.355
-0.36
-0.355
-0.365
-0.355
-0.35
-0.34
-0.325
-0.315
-0.315
-0.275
-0.255
-0.28
-0.265
-0.26
-0.265
-0.31
-0.3
-0.28
-0.28
-0.26
-0.26
-0.26
-0.265
-0.24
-0.23
-0.255
-0.245
-0.23
-0.24
-0.235
-0.22
-0.235
-0.24
-0.25
-0.23
