# TIPE ECG 2021 - ECG-ID Database v1.0.0 par Physionet
# [Numéro de la personne, Période d'échantillonnage, Prénom, Age, Sexe, Date de l'enregistrement]
[77, 0.002, Donald, 19, H, 20.05.2005]
0.49
0.46
0.445
0.46
0.445
0.45
0.47
0.49
0.455
0.445
0.465
0.44
0.455
0.465
0.47
0.475
0.5
0.42
0.44
0.485
0.435
0.48
0.485
0.47
0.48
0.46
0.445
0.455
0.44
0.42
0.43
0.435
0.43
0.45
0.45
0.42
0.43
0.445
0.405
0.4
0.405
0.4
0.41
0.42
0.43
0.45
0.445
0.47
0.475
0.46
0.425
0.405
0.405
0.42
0.385
0.39
0.385
0.375
0.37
0.34
0.295
0.305
0.29
0.325
0.38
0.45
0.56
0.65
0.73
0.755
0.835
0.93
1.05
1.13
1.15
1.17
1.215
1.16
1.15
1.11
1.01
0.845
0.72
0.67
0.575
0.475
0.395
0.385
0.365
0.37
0.37
0.42
0.43
0.44
0.44
0.45
0.475
0.43
0.455
0.46
0.46
0.465
0.47
0.475
0.475
0.49
0.47
0.495
0.505
0.475
0.465
0.475
0.495
0.535
0.5
0.46
0.485
0.495
0.52
0.535
0.525
0.505
0.52
0.54
0.515
0.49
0.53
0.555
0.57
0.53
0.56
0.585
0.575
0.515
0.5
0.54
0.595
0.58
0.57
0.625
0.625
0.59
0.575
0.605
0.62
0.605
0.595
0.61
0.65
0.685
0.665
0.67
0.655
0.66
0.695
0.66
0.665
0.68
0.69
0.68
0.645
0.68
0.675
0.67
0.705
0.705
0.71
0.725
0.71
0.71
0.7
0.72
0.675
0.66
0.655
0.625
0.66
0.665
0.625
0.605
0.6
0.595
0.595
0.58
0.555
0.54
0.54
0.53
0.53
0.52
0.54
0.505
0.485
0.505
0.48
0.46
0.49
0.495
0.48
0.5
0.49
0.48
0.485
0.465
0.46
0.44
0.435
0.46
0.48
0.54
0.485
0.475
0.465
0.455
0.445
0.47
0.495
0.47
0.43
0.455
0.455
0.475
0.44
0.465
0.485
0.495
0.5
0.53
0.52
0.53
0.52
0.47
0.45
0.47
0.48
0.445
0.485
0.5
0.455
0.455
0.485
0.495
0.48
0.485
0.51
0.495
0.49
0.51
0.48
0.495
0.5
0.48
0.525
0.51
0.545
0.56
0.515
0.52
0.525
0.535
0.525
0.48
0.51
0.565
0.515
0.565
0.56
0.54
0.535
0.52
0.525
0.565
0.525
0.545
0.555
0.515
0.555
0.555
0.545
0.55
0.565
0.57
0.57
0.605
0.615
0.59
0.54
0.53
0.545
0.535
0.56
0.495
0.515
0.52
0.515
0.52
0.515
0.505
0.525
0.475
0.495
0.52
0.545
0.51
0.485
0.48
0.51
0.48
0.475
0.515
0.485
0.485
0.515
0.54
0.53
0.54
0.505
0.53
0.505
0.475
0.475
0.445
0.38
0.385
0.38
0.4
0.47
0.545
0.595
0.72
0.78
0.825
0.945
1.02
1.165
1.265
1.275
1.31
1.26
1.23
1.25
1.22
1.055
0.91
0.785
0.72
0.655
0.575
0.475
0.41
0.46
0.475
0.495
0.54
0.515
0.465
0.485
0.55
0.54
0.55
0.535
0.56
0.575
0.57
0.6
0.6
0.55
0.555
0.56
0.51
0.53
0.585
0.555
0.54
0.575
0.595
0.565
0.615
0.605
0.595
0.605
0.575
0.605
0.615
0.57
0.58
0.585
0.6
0.615
0.62
0.615
0.61
0.59
0.62
0.64
0.625
0.64
0.66
0.645
0.68
0.695
0.695
0.73
0.705
0.66
0.665
0.655
0.675
0.705
0.68
0.71
0.725
0.7
0.75
0.74
0.73
0.755
0.77
0.765
0.77
0.79
0.76
0.79
0.775
0.795
0.82
0.805
0.78
0.76
0.78
0.8
0.785
0.755
0.78
0.765
0.77
0.73
0.755
0.76
0.74
0.71
0.645
0.665
0.665
0.71
0.655
0.595
0.6
0.625
0.62
0.6
0.565
0.595
0.58
0.55
0.55
0.55
0.57
0.56
0.555
0.59
0.535
0.53
0.54
0.55
0.54
0.54
0.525
0.535
0.515
0.54
0.535
0.53
0.51
0.545
0.53
0.53
0.53
0.555
0.565
0.575
0.57
0.59
0.56
0.525
0.545
0.535
0.53
0.54
0.55
0.565
0.575
0.555
0.56
0.52
0.565
0.58
0.575
0.63
0.62
0.55
0.49
0.5
0.495
0.485
0.53
0.57
0.55
0.555
0.565
0.545
0.545
0.595
0.595
0.57
0.59
0.585
0.545
0.585
0.6
0.595
0.565
0.56
0.59
0.59
0.61
0.585
0.61
0.585
0.585
0.615
0.59
0.575
0.62
0.63
0.605
0.605
0.62
0.62
0.625
0.625
0.63
0.62
0.63
0.615
0.65
0.645
0.6
0.605
0.605
0.635
0.615
0.6
0.615
0.625
0.595
0.61
0.62
0.57
0.585
0.575
0.535
0.55
0.585
0.59
0.58
0.555
0.575
0.605
0.58
0.585
0.555
0.58
0.59
0.58
0.55
0.565
0.6
0.61
0.56
0.565
0.57
0.575
0.54
0.555
0.575
0.56
0.535
0.545
0.535
0.515
0.515
0.51
0.465
0.475
0.545
0.58
0.665
0.76
0.8
0.915
1.015
1.05
1.17
1.26
1.27
1.355
1.36
1.345
1.26
1.26
1.13
0.97
0.865
0.805
0.68
0.56
0.49
0.455
0.48
0.475
0.495
0.52
0.53
0.575
0.575
0.585
0.63
0.61
0.585
0.575
0.56
0.585
0.615
0.605
0.59
0.625
0.61
0.59
0.595
0.6
0.615
0.625
0.59
0.595
0.635
0.69
0.62
0.6
0.62
0.61
0.635
0.615
0.61
0.61
0.66
0.66
0.615
0.63
0.625
0.63
0.67
0.665
0.695
0.69
0.7
0.655
0.66
0.71
0.7
0.645
0.65
0.69
0.695
0.71
0.735
0.755
0.705
0.695
0.73
0.745
0.75
0.73
0.755
0.74
0.77
0.745
0.76
0.815
0.815
0.79
0.795
0.805
0.82
0.845
0.84
0.85
0.825
0.81
0.79
0.745
0.76
0.785
0.78
0.785
0.79
0.8
0.765
0.715
0.74
0.66
0.685
0.69
0.69
0.705
0.69
0.655
0.63
0.615
0.615
0.63
0.64
0.625
0.615
0.565
0.54
0.555
0.62
0.66
0.59
0.525
0.545
0.55
0.535
0.555
0.545
0.55
0.585
0.6
0.565
0.565
0.585
0.56
0.545
0.525
0.56
0.565
0.57
0.55
0.56
0.57
0.565
0.535
0.55
0.59
0.61
0.6
0.58
0.545
0.535
0.56
0.55
0.56
0.575
0.565
0.545
0.605
0.655
0.665
0.585
0.55
0.56
0.56
0.56
0.61
0.62
0.585
0.575
0.615
0.615
0.6
0.57
0.61
0.62
0.56
0.56
0.595
0.59
0.585
0.645
0.64
0.585
0.545
0.56
0.555
0.625
0.635
0.605
0.585
0.555
0.56
0.59
0.59
0.6
0.595
0.61
0.65
0.63
0.59
0.59
0.63
0.66
0.635
0.64
0.645
0.645
0.64
0.575
0.555
0.62
0.605
0.6
0.61
0.64
0.645
0.66
0.67
0.665
0.655
0.615
0.625
0.605
0.59
0.58
0.585
0.595
0.58
0.55
0.55
0.57
0.585
0.575
0.58
0.575
0.595
0.64
0.6
0.545
0.555
0.545
0.58
0.6
0.555
0.54
0.565
0.57
0.57
0.565
0.59
0.585
0.585
0.605
0.61
0.525
0.515
0.565
0.58
0.58
0.51
0.435
0.445
0.49
0.535
0.63
0.675
0.785
0.85
0.935
1.005
1.055
1.175
1.235
1.26
1.25
1.27
1.26
1.2
1.135
0.99
0.85
0.765
0.685
0.61
0.56
0.495
0.45
0.46
0.485
0.51
0.555
0.59
0.635
0.55
0.55
0.56
0.565
0.565
0.585
0.61
0.605
0.595
0.57
0.55
0.57
0.58
0.575
0.615
0.61
0.6
0.62
0.625
0.63
0.67
0.66
0.605
0.61
0.605
0.63
0.71
0.665
0.64
0.61
0.59
0.605
0.655
0.64
0.66
0.665
0.655
0.655
0.68
0.7
0.69
0.72
0.77
0.715
0.66
0.695
0.695
0.66
0.69
0.685
0.73
0.73
0.73
0.75
0.74
0.735
0.73
0.755
0.765
0.775
0.785
0.83
0.91
0.91
0.795
0.715
0.695
0.75
0.775
0.77
0.785
0.775
0.79
0.81
0.82
0.775
0.79
0.785
0.78
0.775
0.79
0.79
0.79
0.78
0.75
0.71
0.7
0.69
0.675
0.67
0.64
0.61
0.6
0.625
0.625
0.63
0.625
0.62
0.605
0.59
0.575
0.555
0.59
0.61
0.65
0.62
0.53
0.54
0.535
0.52
0.54
0.575
0.56
0.565
0.57
0.575
0.56
0.555
0.57
0.58
0.575
0.615
0.61
0.6
0.59
0.58
0.57
0.57
0.58
0.555
0.54
0.545
0.545
0.535
0.55
0.565
0.58
0.595
0.59
0.62
0.61
0.61
0.565
0.55
0.555
0.54
0.58
0.565
0.55
0.565
0.585
0.56
0.55
0.56
0.55
0.565
0.58
0.595
0.58
0.595
0.635
0.69
0.705
0.55
0.545
0.585
0.595
0.605
0.595
0.595
0.595
0.605
0.585
0.585
0.61
0.585
0.575
0.585
0.595
0.595
0.625
0.63
0.655
0.62
0.635
0.62
0.6
0.635
0.65
0.62
0.635
0.635
0.635
0.63
0.635
0.645
0.62
0.61
0.62
0.63
0.665
0.68
0.625
0.645
0.65
0.645
0.645
0.62
0.605
0.585
0.62
0.61
0.605
0.595
0.59
0.57
0.6
0.62
0.62
0.59
0.58
0.585
0.595
0.57
0.58
0.58
0.585
0.59
0.58
0.58
0.605
0.64
0.625
0.615
0.575
0.585
0.58
0.555
0.595
0.635
0.645
0.585
0.555
0.55
0.545
0.555
0.53
0.53
0.505
0.5
0.53
0.595
0.675
0.78
0.845
0.915
1.01
1.07
1.135
1.24
1.27
1.32
1.34
1.32
1.26
1.255
1.21
1.025
0.905
0.76
0.725
0.65
0.57
0.54
0.545
0.495
0.525
0.515
0.54
0.565
0.6
0.585
0.595
0.62
0.66
0.675
0.69
0.625
0.58
0.575
0.55
0.55
0.59
0.595
0.605
0.595
0.615
0.64
0.62
0.635
0.625
0.615
0.64
0.67
0.695
0.66
0.585
0.61
0.65
0.635
0.615
0.625
0.66
0.705
0.725
0.655
0.68
0.665
0.66
0.68
0.665
0.67
0.71
0.69
0.675
0.695
0.7
0.675
0.715
0.755
0.73
0.71
0.72
0.715
0.73
0.75
0.78
0.78
0.745
0.73
0.74
0.785
0.805
0.795
0.81
0.84
0.76
0.785
0.78
0.79
0.795
0.795
0.785
0.82
0.825
0.815
0.81
0.8
0.805
0.845
0.82
0.765
0.71
0.74
0.715
0.725
0.73
0.715
0.705
0.655
0.68
0.645
0.65
0.645
0.68
0.66
0.635
0.635
0.625
0.615
0.615
0.605
0.57
0.51
0.55
0.555
0.53
0.53
0.55
0.535
0.59
0.56
0.54
0.585
0.59
0.525
0.525
0.535
0.54
0.545
0.545
0.555
0.55
0.565
0.535
0.54
0.545
0.565
0.555
0.57
0.575
0.54
0.55
0.57
0.565
0.59
0.595
0.635
0.645
0.515
0.505
0.545
0.54
0.52
0.55
0.575
0.565
0.575
0.59
0.62
0.605
0.63
0.555
0.51
0.535
0.59
0.595
0.56
0.515
0.57
0.53
0.555
0.57
0.595
0.6
0.55
0.545
0.535
0.555
0.53
0.535
0.565
0.59
0.58
0.61
0.605
0.545
0.57
0.605
0.585
0.61
0.605
0.61
0.58
0.605
0.6
0.575
0.525
0.54
0.555
0.605
0.585
0.595
0.595
0.625
0.635
0.64
0.675
0.6
0.545
0.555
0.58
0.575
0.57
0.545
0.58
0.585
0.6
0.615
0.64
0.63
0.615
0.58
0.585
0.6
0.58
0.59
0.605
0.575
0.495
0.53
0.54
0.535
0.56
0.555
0.53
0.53
0.525
0.515
0.535
0.545
0.535
0.55
0.52
0.53
0.545
0.535
0.525
0.53
0.55
0.555
0.56
0.575
0.555
0.57
0.56
0.51
0.525
0.505
0.5
0.505
0.485
0.47
0.465
0.47
0.51
0.57
0.66
0.715
0.8
0.895
1.0
1.065
1.11
1.205
1.285
1.305
1.265
1.26
1.275
1.235
1.17
1.015
0.92
0.835
0.655
0.585
0.535
0.48
0.515
0.52
0.525
0.56
0.565
0.61
0.555
0.505
0.52
0.53
0.54
0.57
0.56
0.565
0.585
0.585
0.59
0.565
0.565
0.595
0.61
0.635
0.6
0.57
0.57
0.57
0.575
0.58
0.615
0.595
0.59
0.605
0.66
0.71
0.685
0.615
0.6
0.6
0.59
0.615
0.625
0.65
0.68
0.615
0.63
0.67
0.7
0.7
0.625
0.625
0.62
0.665
0.68
0.665
0.72
0.69
0.695
0.69
0.71
0.71
0.745
0.76
0.77
0.745
0.74
0.765
0.755
0.755
0.775
0.8
0.755
0.73
0.815
0.79
0.74
0.77
0.755
0.795
0.815
0.86
0.79
0.77
0.79
0.795
0.775
0.715
0.73
0.735
0.71
0.71
0.7
0.71
0.71
0.715
0.69
0.695
0.695
0.765
0.69
0.565
0.605
0.58
0.55
0.595
0.595
0.56
0.565
0.56
0.615
0.61
0.55
0.535
0.545
0.535
0.55
0.535
0.545
0.53
0.545
0.53
0.52
0.515
0.555
0.545
0.54
0.57
0.58
0.57
0.54
0.54
0.575
0.51
0.46
0.48
0.52
0.525
0.55
0.54
0.545
0.565
0.565
0.57
0.56
0.51
0.51
0.505
0.53
0.495
0.535
0.55
0.535
0.525
0.555
0.605
0.525
0.505
0.535
0.585
0.66
0.54
0.425
0.53
0.555
0.555
0.56
0.53
0.53
0.565
0.575
0.555
0.575
0.555
0.57
0.615
0.585
0.56
0.55
0.565
0.57
0.505
0.56
0.565
0.53
0.56
0.59
0.575
0.515
0.54
0.57
0.55
0.565
0.555
0.565
0.58
0.58
0.58
0.565
0.56
0.575
0.58
0.59
0.565
0.59
0.56
0.545
0.55
0.55
0.58
0.605
0.63
0.6
0.585
0.63
0.63
0.555
0.565
0.565
0.58
0.57
0.565
0.57
0.56
0.535
0.545
0.565
0.545
0.565
0.575
0.56
0.505
0.52
0.55
0.51
0.525
0.525
0.54
0.54
0.52
0.54
0.545
0.525
0.55
0.58
0.585
0.515
0.48
0.465
0.505
0.505
0.51
0.53
0.52
0.52
0.525
0.48
0.455
0.46
0.45
0.445
0.5
0.535
0.57
0.645
0.715
0.765
0.83
0.895
1.005
1.11
1.19
1.09
1.11
1.135
1.145
1.16
1.095
1.015
0.85
0.7
0.655
0.615
0.53
0.485
0.42
0.415
0.43
0.495
0.485
0.475
0.495
0.49
0.53
0.55
0.575
0.575
0.56
0.55
0.57
0.565
0.59
0.5
0.53
0.595
0.57
0.53
0.56
0.56
0.54
0.565
0.58
0.575
0.63
0.635
0.59
0.615
0.59
0.58
0.595
0.555
0.58
0.575
0.6
0.575
0.57
0.59
0.58
0.62
0.605
0.615
0.63
0.625
0.65
0.64
0.64
0.635
0.62
0.645
0.68
0.7
0.69
0.685
0.68
0.685
0.695
0.695
0.705
0.685
0.715
0.755
0.745
0.73
0.73
0.75
0.74
0.76
0.765
0.76
0.79
0.79
0.825
0.83
0.74
0.735
0.755
0.795
0.78
0.77
0.76
0.7
0.73
0.72
0.63
0.66
0.69
0.675
0.63
0.62
0.65
0.64
0.66
0.64
0.585
0.615
0.57
0.595
0.595
0.565
0.51
0.46
0.52
0.525
0.515
0.525
0.53
0.5
0.495
0.505
0.51
0.51
0.55
0.525
0.505
0.525
0.535
0.525
0.495
0.52
0.495
0.48
0.495
0.495
0.485
0.48
0.5
0.47
0.455
0.48
0.5
0.51
0.51
0.49
0.48
0.525
0.535
0.505
0.5
0.51
0.5
0.49
0.455
0.47
0.48
0.49
0.505
0.525
0.485
0.485
0.48
0.485
0.515
0.54
0.555
0.59
0.55
0.5
0.515
0.47
0.465
0.485
0.51
0.51
0.52
0.51
0.52
0.525
0.5
0.49
0.495
0.525
0.56
0.585
0.555
0.485
0.475
0.505
0.505
0.54
0.515
0.495
0.495
0.53
0.53
0.5
0.495
0.515
0.525
0.535
0.545
0.575
0.625
0.52
0.45
0.545
0.495
0.495
0.51
0.525
0.53
0.515
0.535
0.525
0.51
0.535
0.52
0.51
0.55
0.565
0.555
0.55
0.555
0.535
0.53
0.54
0.55
0.545
0.525
0.535
0.53
0.54
0.53
0.47
0.475
0.495
0.49
0.47
0.48
0.495
0.495
0.53
0.53
0.485
0.465
0.465
0.48
0.505
0.465
0.47
0.49
0.465
0.505
0.48
0.475
0.48
0.485
0.48
0.46
0.51
0.53
0.495
0.425
0.42
0.43
0.425
0.425
0.44
0.415
0.4
0.43
0.455
0.505
0.585
0.67
0.73
0.81
0.925
0.965
1.065
1.145
1.145
1.19
1.175
1.155
1.155
1.1
1.0
0.86
0.76
0.695
0.605
0.53
0.475
0.45
0.415
0.42
0.455
0.445
0.44
0.46
0.475
0.495
0.51
0.525
0.54
0.58
0.55
0.48
0.5
0.495
0.49
0.46
0.525
0.565
0.525
0.51
0.54
0.55
0.54
0.5
0.535
0.535
0.575
0.555
0.545
0.555
0.54
0.55
0.525
0.53
0.525
0.55
0.535
0.55
0.56
0.57
0.565
0.555
0.54
0.61
0.625
0.605
0.575
0.59
0.615
0.605
0.615
0.59
0.6
0.61
0.615
0.615
0.625
0.61
0.635
0.655
0.665
0.695
0.76
0.705
0.7
0.675
0.65
0.715
0.705
0.695
0.705
0.71
0.72
0.73
0.725
0.735
0.73
0.715
0.71
0.71
0.725
0.72
0.7
0.685
0.725
0.72
0.655
0.66
0.67
0.635
0.635
0.565
0.55
0.545
0.545
0.53
0.525
0.54
0.555
0.545
0.53
0.55
0.545
0.605
0.575
0.41
0.445
0.47
0.43
0.45
0.475
0.475
0.46
0.425
0.455
0.45
0.465
0.48
0.48
0.465
0.47
0.48
0.495
0.51
0.505
0.455
0.44
0.455
0.465
0.49
0.475
0.455
0.45
0.465
0.485
0.485
0.48
0.49
0.495
0.525
0.595
0.59
0.525
0.41
0.44
0.455
0.47
0.47
0.485
0.49
0.475
0.485
0.505
0.465
0.415
0.41
0.46
0.475
0.5
0.525
0.485
0.44
0.415
0.485
0.515
0.495
0.455
0.46
0.48
0.52
0.49
0.52
0.53
0.545
0.535
0.47
0.45
0.475
0.48
0.46
0.51
0.48
0.465
0.485
0.515
0.525
0.49
0.495
0.53
0.52
0.56
0.55
0.445
0.465
0.465
0.48
0.48
0.505
0.52
0.54
0.535
0.505
0.51
0.525
0.52
0.525
0.535
0.54
0.525
0.53
0.555
0.495
0.49
0.525
0.605
0.57
0.56
0.49
0.48
0.5
0.515
0.545
0.55
0.515
0.51
0.49
0.52
0.51
0.505
0.505
0.46
0.435
0.455
0.465
0.49
0.51
0.49
0.475
0.47
0.475
0.46
0.485
0.515
0.535
0.54
0.48
0.455
0.425
0.445
0.5
0.455
0.465
0.485
0.48
0.48
0.47
0.475
0.435
0.455
0.445
0.415
0.39
0.39
0.445
0.5
0.84
0.94
0.98
1.075
1.13
1.175
1.205
1.205
1.17
1.18
1.085
0.975
0.83
0.735
0.63
0.59
0.545
0.47
0.44
0.435
0.425
0.405
0.42
0.45
0.475
0.51
0.465
0.485
0.525
0.515
0.515
0.51
0.485
0.51
0.525
0.54
0.55
0.525
0.55
0.56
0.545
0.535
0.555
0.54
0.58
0.52
0.54
0.565
0.53
0.515
0.475
0.49
0.55
0.54
0.495
0.545
0.59
0.595
0.57
0.55
0.555
0.62
0.54
0.555
0.585
0.58
0.57
0.565
0.56
0.565
0.62
0.62
0.62
0.645
0.655
0.645
0.655
0.65
0.645
0.66
0.665
0.665
0.7
0.73
0.67
0.715
0.74
0.715
0.74
0.76
0.695
0.705
0.725
0.745
0.73
0.745
0.76
0.715
0.74
0.71
0.755
0.745
0.74
0.73
0.725
0.705
0.665
0.68
0.67
0.665
0.685
0.645
0.63
0.57
0.535
0.605
0.6
0.615
0.57
0.515
0.51
0.505
0.505
0.535
0.555
0.475
0.48
0.5
0.475
0.49
0.5
0.455
0.475
0.495
0.52
0.53
0.465
0.475
0.445
0.45
0.465
0.45
0.485
0.525
0.535
0.465
0.465
0.48
0.445
0.45
0.48
0.515
0.53
0.495
0.46
0.475
0.495
0.48
0.465
0.465
0.45
0.47
0.515
0.515
0.5
0.465
0.47
0.48
0.47
0.495
0.49
0.505
0.485
0.49
0.47
0.51
0.515
0.5
0.51
0.535
0.48
0.48
0.485
0.525
0.51
0.525
0.5
0.49
0.48
0.49
0.53
0.515
0.515
0.51
0.505
0.525
0.515
0.5
0.46
0.49
0.535
0.53
0.525
0.56
0.545
0.515
0.54
0.53
0.51
0.525
0.52
0.545
0.535
0.535
0.54
0.52
0.54
0.51
0.545
0.565
0.56
0.57
0.535
0.54
0.55
0.6
0.585
0.58
0.59
0.635
0.585
0.625
0.555
0.58
0.575
0.54
0.515
0.57
0.585
0.57
0.58
0.57
0.61
0.625
0.61
0.605
0.585
0.54
0.57
0.565
0.57
0.55
0.52
0.535
0.555
0.495
0.485
0.545
0.565
0.595
0.64
0.49
0.475
0.53
0.545
0.5
0.505
0.52
0.54
0.55
0.53
0.53
0.54
0.555
0.5
0.495
0.52
0.525
0.525
0.515
0.515
0.48
0.46
0.465
0.46
0.43
0.435
0.505
0.565
0.68
0.785
0.795
0.915
1.01
1.08
1.195
1.32
1.365
1.41
1.445
1.38
1.37
1.345
1.23
1.005
0.865
0.85
0.745
0.65
0.55
0.505
0.42
0.415
0.47
0.5
0.57
0.555
0.5
0.53
0.54
0.58
0.575
0.525
0.545
0.59
0.6
0.565
0.535
0.54
0.585
0.555
0.555
0.58
0.58
0.575
0.575
0.6
0.59
0.565
0.575
0.56
0.6
0.6
0.62
0.585
0.595
0.61
0.615
0.63
0.59
0.59
0.62
0.635
0.645
0.62
0.675
0.68
0.68
0.64
0.715
0.72
0.66
0.675
0.675
0.66
0.735
0.69
0.64
0.67
0.7
0.73
0.74
0.755
0.765
0.78
0.725
0.72
0.755
0.81
0.795
0.8
0.8
0.785
0.79
0.77
0.795
0.85
0.855
0.87
0.865
0.82
0.805
0.785
0.815
0.78
0.79
0.79
0.8
0.765
0.79
0.735
0.74
0.74
0.715
0.685
0.7
0.695
0.68
0.67
0.705
0.695
0.65
0.6
0.56
0.585
0.57
0.595
0.61
0.58
0.545
0.57
0.48
0.545
0.5
0.49
0.54
0.49
0.49
0.5
0.53
0.52
0.53
0.565
0.515
0.525
0.585
0.56
0.485
0.535
0.5
0.515
0.51
0.55
0.525
0.555
0.515
0.495
0.485
0.54
0.545
0.525
0.525
0.54
0.535
0.575
0.56
0.555
0.535
0.54
0.545
0.52
0.59
0.56
0.525
0.55
0.51
0.53
0.55
0.55
0.535
0.565
0.53
0.565
0.625
0.59
0.55
0.565
0.57
0.525
0.525
0.58
0.54
0.515
0.565
0.585
0.56
0.55
0.58
0.595
0.635
0.645
0.58
0.595
0.52
0.515
0.56
0.56
0.55
0.62
0.62
0.58
0.615
0.635
0.555
0.555
0.55
0.56
0.59
0.615
0.615
0.605
0.595
0.63
0.63
0.625
0.65
0.605
0.56
0.55
0.585
0.595
0.62
0.665
0.605
0.61
0.64
0.585
0.61
0.615
0.62
0.62
0.61
0.575
0.595
0.555
0.56
0.555
0.555
0.57
0.58
0.58
0.575
0.585
0.555
0.5
0.52
0.53
0.52
0.555
0.53
0.56
0.57
0.59
0.515
0.515
0.58
0.585
0.565
0.515
0.475
0.495
0.51
0.53
0.555
0.505
0.45
0.435
0.42
0.41
0.38
0.475
0.445
0.575
0.7
0.78
0.92
1.025
1.125
1.19
1.33
1.39
1.465
1.485
1.47
1.45
1.49
1.365
1.215
1.1
0.88
0.79
0.69
0.615
0.475
0.4
0.42
0.42
0.46
0.485
0.545
0.55
0.585
0.585
0.545
0.575
0.615
0.525
0.565
0.625
0.63
0.565
0.575
0.59
0.575
0.54
0.61
0.615
0.585
0.605
0.605
0.65
0.655
0.59
0.58
0.635
0.585
0.575
0.6
0.625
0.655
0.64
0.645
0.655
0.64
0.64
0.645
0.665
0.675
0.69
0.665
0.67
0.68
0.695
0.695
0.69
0.69
0.715
0.72
0.715
0.73
0.72
0.72
0.745
0.765
0.78
0.81
0.755
0.785
0.795
0.755
0.76
0.78
0.82
0.83
0.79
0.805
0.805
0.835
0.8
0.77
0.815
0.81
0.77
0.825
0.805
0.82
0.795
0.745
0.8
0.785
0.775
0.8
0.795
0.79
0.75
0.69
0.74
0.76
0.72
0.725
0.665
0.625
0.665
0.715
0.66
0.615
0.585
0.595
0.585
0.61
0.6
0.53
0.53
0.58
0.595
0.545
0.55
0.555
0.545
0.56
0.565
0.56
0.605
0.59
0.54
0.535
0.55
0.585
0.57
0.505
0.51
0.535
0.565
0.53
0.56
0.57
0.57
0.575
0.615
0.62
0.52
0.52
0.545
0.53
0.57
0.59
0.555
0.5
0.545
0.55
0.58
0.59
0.555
0.58
0.54
0.555
0.545
0.585
0.605
0.53
0.56
0.57
0.57
0.56
0.52
0.56
0.57
0.585
0.61
0.62
0.62
0.57
0.505
0.54
0.555
0.57
0.59
0.56
0.545
0.56
0.565
0.555
0.57
0.56
0.555
0.565
0.61
0.605
0.585
0.52
0.56
0.605
0.605
0.59
0.565
0.58
0.625
0.615
0.615
0.605
0.655
0.615
0.61
0.64
0.635
0.625
0.65
0.55
0.565
0.575
0.625
0.585
0.62
0.63
0.6
0.64
0.635
0.615
0.6
0.585
0.58
0.6
0.635
0.615
0.565
0.54
0.535
0.505
0.52
0.52
0.535
0.525
0.535
0.54
0.525
0.58
0.625
0.575
0.6
0.595
0.48
0.51
0.515
0.51
0.51
0.5
0.53
0.55
0.555
0.515
0.535
0.52
0.53
0.505
0.52
0.53
0.51
0.425
0.435
0.46
0.495
0.6
0.705
0.8
0.85
0.96
1.085
1.205
1.39
1.475
1.47
1.525
1.535
1.47
1.415
1.42
1.16
0.96
0.9
0.795
0.685
0.56
0.445
0.405
0.415
0.415
0.475
0.495
0.465
0.505
0.535
0.535
0.535
0.535
0.545
0.58
0.58
0.59
0.58
0.59
0.605
0.59
0.545
0.55
0.59
0.59
0.595
0.605
0.61
0.61
0.625
0.59
0.6
0.605
0.585
0.62
0.65
0.67
0.67
0.64
0.6
0.575
0.615
0.605
0.635
0.68
0.72
0.655
0.665
0.6
0.635
0.68
0.68
0.705
0.7
0.63
0.64
0.685
0.7
0.72
0.685
0.705
0.69
0.69
0.72
0.73
0.665
0.715
0.79
0.775
0.82
0.825
0.79
0.82
0.775
0.735
0.77
0.815
0.825
0.765
0.74
0.78
0.8
0.8
0.765
0.765
0.765
0.76
0.8
0.775
0.73
0.725
0.75
0.715
0.72
0.685
0.69
0.68
0.675
0.695
0.695
0.635
0.63
0.59
0.595
0.585
0.57
0.585
0.615
0.62
0.615
0.535
0.575
0.53
0.535
0.485
0.49
0.52
0.5
0.5
0.545
0.515
0.51
0.51
0.555
0.58
0.485
0.495
0.51
0.505
0.52
0.535
0.52
0.54
0.49
0.51
0.5
0.51
0.54
0.56
0.545
0.495
0.525
0.52
0.525
0.55
0.525
0.475
0.525
0.525
0.55
0.535
0.53
0.535
0.505
0.495
0.56
0.55
0.55
0.51
0.53
0.555
0.555
0.55
0.525
0.515
0.52
0.565
0.55
0.53
0.57
0.565
0.55
0.555
0.54
0.535
0.595
0.585
0.525
0.525
0.575
0.575
0.565
0.54
0.545
0.555
0.6
0.575
0.615
0.59
0.555
0.56
0.57
0.59
0.56
0.61
0.64
0.615
0.55
0.605
0.585
0.575
0.55
0.595
0.585
0.585
0.625
0.62
0.63
0.59
0.54
0.535
0.555
0.54
0.58
0.545
0.57
0.585
0.52
0.475
0.52
0.51
0.53
0.53
0.505
0.525
0.475
0.47
0.495
0.475
0.485
0.48
0.485
0.48
0.515
0.48
0.48
0.47
0.475
0.465
0.465
0.48
0.495
0.525
0.505
0.49
0.49
0.46
0.38
0.38
0.38
0.32
0.425
0.49
0.59
0.705
0.845
0.955
0.99
1.09
1.275
1.37
1.385
1.45
1.495
1.485
1.445
1.405
1.275
1.06
0.925
0.835
0.695
0.515
0.415
0.385
0.395
0.375
0.4
0.42
0.445
0.46
0.49
0.505
0.515
0.485
0.55
0.56
0.53
0.52
0.525
0.47
0.49
0.52
0.55
0.565
0.55
0.545
0.62
0.6
0.55
0.57
0.575
0.595
0.495
0.49
0.535
0.57
0.58
0.595
0.62
0.605
0.605
0.63
0.555
0.585
0.595
0.56
0.56
0.56
0.605
0.59
0.605
0.63
0.58
0.595
0.65
0.635
0.6
0.65
0.665
0.655
0.7
0.69
0.615
0.655
0.675
0.69
0.72
0.705
0.7
0.725
0.755
0.78
0.735
0.74
0.78
0.77
0.72
0.73
0.76
0.74
0.755
0.755
0.765
0.75
0.765
0.75
0.765
0.77
0.78
0.71
0.71
0.68
0.68
0.7
0.7
0.71
0.69
0.605
0.605
0.62
0.6
0.575
0.565
0.58
0.61
0.6
0.55
0.535
0.595
0.53
0.565
0.535
0.53
0.48
0.495
0.545
0.515
0.465
0.49
0.505
0.49
0.465
0.48
0.48
0.49
0.49
0.49
0.465
0.49
0.495
0.51
0.54
0.57
0.52
0.52
0.465
0.445
0.465
0.47
0.505
0.515
0.5
0.505
0.5
0.48
0.495
0.5
0.495
0.505
0.51
0.52
0.555
0.61
0.615
0.47
0.45
0.485
0.475
0.48
0.5
0.485
0.46
0.475
0.495
0.5
0.505
0.485
0.5
0.535
0.52
0.555
0.62
0.54
0.515
0.5
0.495
0.5
0.52
0.545
0.55
0.545
0.545
0.515
0.53
0.565
0.59
0.58
0.53
0.57
0.62
0.56
0.575
0.545
0.52
0.5
0.54
0.555
0.57
0.585
0.575
0.575
0.535
0.505
0.52
0.54
0.59
0.57
0.49
0.485
0.49
0.505
0.495
0.475
0.495
0.505
0.505
0.525
0.475
0.495
0.51
0.49
0.54
0.56
0.48
0.46
0.435
0.45
0.455
0.46
0.475
0.48
0.505
0.525
0.54
0.475
0.45
0.46
0.46
0.485
0.485
0.49
0.445
0.445
0.41
0.345
0.33
0.375
0.445
0.49
0.56
0.685
0.785
0.84
0.915
0.995
1.13
1.225
1.355
1.365
1.36
1.36
1.365
1.345
1.255
1.03
0.885
0.785
0.685
0.575
0.46
0.38
0.37
0.4
0.415
0.445
0.44
0.425
0.45
0.47
0.48
0.455
0.465
0.445
0.46
0.445
0.48
0.465
0.48
0.53
0.5
0.52
0.565
0.525
0.535
0.465
0.475
0.48
0.475
0.49
0.485
0.5
0.53
0.54
0.53
0.515
0.515
0.53
0.54
0.57
0.6
0.53
0.535
0.525
0.53
0.555
0.56
0.59
0.555
0.565
0.585
0.59
0.6
0.57
0.555
0.565
0.575
0.595
0.62
0.655
0.65
0.635
0.62
0.66
0.675
0.59
0.615
0.68
0.69
0.69
0.705
0.695
0.675
0.68
0.7
0.695
0.7
0.69
0.705
0.71
0.71
0.7
0.705
0.72
0.675
0.7
0.715
0.67
0.67
0.645
0.625
0.645
0.655
0.675
0.64
0.585
0.555
0.535
0.535
0.545
0.515
0.535
0.525
0.51
0.55
0.61
0.56
0.465
0.43
0.505
0.505
0.475
0.455
0.49
0.505
0.465
0.415
0.435
0.45
0.46
0.455
0.515
0.545
0.52
0.48
0.465
0.42
0.41
0.415
0.445
0.425
0.42
0.445
0.44
0.46
0.48
0.48
0.47
0.47
0.49
0.48
0.475
0.475
0.465
0.495
0.47
0.485
0.5
0.48
0.465
0.475
0.445
0.46
0.455
0.485
0.48
0.48
0.485
0.495
0.515
0.55
0.555
0.55
0.51
0.485
0.48
0.475
0.5
0.485
0.5
0.505
0.505
0.505
0.52
0.53
0.545
0.535
0.535
0.57
0.595
0.565
0.545
0.575
0.495
0.49
0.49
0.52
0.525
0.555
0.545
0.515
0.52
0.515
0.505
0.53
0.555
0.55
0.55
0.57
0.56
0.515
0.52
0.51
0.485
0.515
0.5
0.525
0.495
0.485
0.445
0.465
0.47
0.47
0.49
0.505
0.51
0.495
0.51
0.475
0.445
0.485
0.5
0.51
0.47
0.485
0.51
0.48
0.46
0.465
0.44
0.445
0.47
0.47
0.445
0.435
0.435
0.41
0.415
0.365
0.395
0.415
0.495
0.515
0.61
0.745
0.82
0.94
1.03
1.11
1.2
1.27
1.32
1.325
1.365
1.375
1.35
1.255
1.085
0.905
0.78
0.65
0.575
0.485
0.43
0.415
0.39
0.415
0.41
0.465
0.45
0.46
0.475
0.46
0.52
0.585
0.565
0.585
0.555
0.555
0.555
0.47
0.5
0.49
0.5
0.51
0.52
0.52
0.525
0.535
0.53
0.545
0.57
0.575
0.59
0.595
0.64
0.605
0.515
0.495
0.555
0.575
0.565
0.555
0.57
0.6
0.605
0.575
0.565
0.59
0.61
0.615
0.61
0.62
0.66
0.66
0.675
0.64
0.625
0.625
0.665
0.67
0.65
0.66
0.66
0.69
0.705
0.695
0.695
0.75
0.74
0.695
0.72
0.725
0.71
0.73
0.74
0.72
0.735
0.765
0.755
0.705
0.74
0.755
0.775
0.77
0.74
0.735
0.745
0.74
0.725
0.73
0.73
0.685
0.73
0.7
0.7
0.65
0.645
0.68
0.69
0.59
0.59
0.59
0.565
0.535
0.555
0.575
0.565
0.535
0.535
0.58
0.57
0.485
0.48
0.485
0.475
0.47
0.49
0.505
0.52
0.515
0.5
0.515
0.51
0.525
0.535
0.54
0.52
0.495
0.455
0.51
0.485
0.505
0.495
0.5
0.485
0.515
0.52
0.48
0.51
0.54
0.54
0.525
0.505
0.51
0.51
0.51
0.515
0.525
0.5
0.495
0.525
0.555
0.56
0.53
0.52
0.51
0.54
0.53
0.52
0.54
0.52
0.495
0.525
0.53
0.51
0.485
0.545
0.555
0.555
0.56
0.57
0.575
0.57
0.595
0.56
0.575
0.58
0.59
0.56
0.59
0.58
0.59
0.585
0.555
0.55
0.55
0.555
0.57
0.59
0.555
0.62
0.605
0.575
0.555
0.55
0.605
0.615
0.56
0.55
0.525
0.515
0.525
0.575
0.585
0.515
0.48
0.5
0.55
0.51
0.54
0.54
0.5
0.51
0.5
0.5
0.505
0.545
0.57
0.535
0.505
0.505
0.515
0.51
0.51
0.525
0.525
0.53
0.555
0.53
0.48
0.5
0.54
0.485
0.415
0.405
0.42
0.41
0.43
0.38
0.41
0.56
0.69
0.75
0.825
0.96
1.055
1.165
1.255
1.31
1.37
1.42
1.42
1.395
1.4
1.355
1.15
0.965
0.85
0.745
0.64
0.53
0.475
0.44
0.43
0.46
0.495
0.48
0.51
0.535
0.515
0.535
0.55
0.585
0.565
0.58
0.61
0.555
0.515
0.57
0.585
0.57
0.575
0.62
0.57
0.49
0.535
0.575
0.59
0.55
0.575
0.59
0.585
0.605
0.59
0.62
0.59
0.57
0.565
0.595
0.6
0.615
0.605
0.615
0.635
0.675
0.655
0.615
0.625
0.655
0.645
0.675
0.65
0.655
0.67
0.665
0.685
0.7
0.68
0.705
0.71
0.705
0.695
0.7
0.72
0.755
0.745
0.715
0.745
0.745
0.785
0.78
0.795
0.795
0.755
0.75
0.755
0.785
0.77
0.75
0.76
0.765
0.785
0.795
0.79
0.775
0.785
0.785
0.79
0.755
0.75
0.755
0.725
0.715
0.715
0.685
0.695
0.67
0.67
0.665
0.685
0.725
0.62
0.575
0.57
0.57
0.55
0.575
0.56
0.56
0.585
0.55
0.565
0.555
0.585
0.585
0.57
0.51
0.495
0.52
0.53
0.565
0.54
0.55
0.56
0.57
0.565
0.535
0.54
0.545
0.535
0.525
0.545
0.575
0.6
0.565
0.565
0.545
0.535
0.525
0.55
0.57
0.53
0.535
0.54
0.565
0.545
0.58
0.525
0.56
0.56
0.545
0.565
0.575
0.57
0.57
0.555
0.595
0.595
0.575
0.55
0.55
0.55
0.59
0.585
0.605
0.6
0.555
0.59
0.62
0.575
0.555
0.595
0.61
0.605
0.615
0.615
0.595
0.585
0.6
0.64
0.62
0.635
0.655
0.58
0.56
0.58
0.595
0.595
0.6
0.6
0.6
0.615
0.64
0.62
0.605
0.605
0.59
0.555
0.575
0.625
0.615
0.555
0.57
0.545
0.55
0.575
0.585
0.585
0.535
0.49
0.525
0.55
0.56
0.545
0.49
0.545
0.565
0.565
0.555
0.515
0.54
0.56
0.575
0.59
0.605
0.54
0.5
0.53
0.485
0.49
0.495
0.47
0.425
0.385
0.395
0.395
0.46
0.55
0.625
0.72
0.81
0.885
1.025
1.125
1.25
1.32
1.355
1.37
1.425
1.405
1.405
1.355
1.18
1.02
0.89
0.78
0.705
0.6
0.52
0.475
0.47
0.5
0.54
0.57
0.59
0.6
0.57
0.52
0.59
0.625
0.58
0.535
0.59
0.525
0.535
0.565
0.535
0.545
0.57
0.565
0.595
0.605
0.57
0.59
0.62
0.595
0.575
0.595
0.62
0.61
0.615
0.605
0.6
0.615
0.625
0.645
0.695
0.62
0.565
0.61
0.61
0.605
0.62
0.61
0.6
0.61
0.64
0.675
0.69
0.705
0.675
0.715
0.755
0.665
0.64
0.64
0.67
0.705
0.725
0.72
0.7
0.685
0.7
0.73
0.735
0.765
0.69
0.75
0.795
0.8
0.82
0.84
0.77
0.76
0.775
0.79
0.805
0.775
0.735
0.755
0.745
0.785
0.77
0.78
0.78
0.79
0.79
0.725
0.69
0.67
0.695
0.69
0.665
0.685
0.69
0.665
0.615
0.57
0.585
0.615
0.585
0.6
0.555
0.57
0.6
0.515
0.53
0.54
0.555
0.57
0.565
0.515
0.535
0.555
0.55
0.495
0.5
0.54
0.585
0.545
0.49
0.53
0.495
0.49
0.505
0.53
0.535
0.565
0.565
0.505
0.525
0.535
0.54
0.585
0.56
0.535
0.53
0.555
0.515
0.515
0.525
0.52
0.535
0.515
0.535
0.55
0.55
0.535
0.565
0.58
0.535
0.505
0.52
0.525
0.56
0.555
0.585
0.56
0.555
0.495
0.535
0.545
0.535
0.515
0.565
0.6
0.625
0.565
0.565
0.57
0.56
0.58
0.565
0.565
0.555
0.555
0.545
0.56
0.575
0.565
0.57
0.64
0.63
0.555
0.575
0.57
0.545
0.53
0.545
0.59
0.605
0.585
0.58
0.53
0.515
0.545
0.525
0.51
0.535
0.5
0.51
0.49
0.505
0.515
0.545
0.55
0.5
0.505
0.495
0.495
0.52
0.485
0.48
0.475
0.515
0.47
0.45
0.49
0.51
0.495
0.5
0.51
0.5
0.5
0.485
0.49
0.465
0.395
0.37
0.38
0.365
0.385
0.39
0.46
0.545
0.695
0.77
0.84
0.94
1.045
1.155
1.235
1.26
1.315
1.32
1.3
1.28
1.27
1.155
0.965
0.82
0.67
0.595
0.535
0.45
0.38
0.41
0.415
0.46
0.46
0.475
0.49
0.495
0.52
0.565
0.57
0.51
0.48
0.51
0.545
0.56
0.515
0.555
0.56
0.495
0.49
0.53
0.555
0.53
0.53
0.525
0.49
0.535
0.55
0.565
0.585
0.54
0.55
0.59
0.57
0.555
0.535
0.565
0.58
0.605
0.615
0.59
0.565
0.6
0.59
0.62
0.575
0.525
0.545
0.59
0.605
0.625
0.585
0.6
0.58
0.57
0.595
0.63
0.665
0.66
0.64
0.63
0.67
0.66
0.655
0.665
0.705
0.705
0.715
0.715
0.745
0.705
0.685
0.705
0.71
0.695
0.73
0.72
0.685
0.695
0.705
0.69
0.735
0.745
0.72
0.7
0.725
0.68
0.64
0.635
0.605
0.615
0.595
0.6
0.61
0.575
0.58
0.635
0.61
0.56
0.505
0.535
0.51
0.485
0.49
0.51
0.52
0.52
0.55
0.55
0.46
0.44
0.455
0.485
0.48
0.49
0.48
0.5
0.46
0.525
0.495
0.455
0.445
0.45
0.48
0.48
0.48
0.49
0.44
0.445
0.48
0.485
0.465
0.475
0.465
0.45
0.46
0.495
0.47
0.475
0.47
0.5
0.495
0.465
0.46
0.49
0.48
0.48
0.475
0.435
0.48
0.505
0.49
0.505
0.51
0.455
0.45
0.465
0.495
0.505
0.52
0.49
0.51
0.505
0.49
0.49
0.505
0.51
0.52
0.525
0.555
0.515
0.505
0.515
0.53
0.535
0.535
0.53
0.59
0.585
0.505
0.485
0.48
0.505
0.55
0.555
0.53
0.505
0.515
0.54
0.565
0.535
0.535
0.525
0.5
0.505
0.48
0.525
0.495
0.46
0.48
0.485
0.475
0.475
0.475
0.45
0.44
0.425
0.44
0.46
0.475
0.49
0.485
0.48
0.49
0.475
0.405
0.41
0.44
0.445
0.45
0.46
0.475
0.5
0.455
0.395
0.435
0.43
0.415
0.415
0.38
0.365
0.325
0.32
0.4
0.385
0.44
0.585
0.73
0.715
0.78
0.91
0.98
1.08
1.165
1.19
1.22
1.225
1.22
1.225
1.17
1.005
0.855
0.65
0.615
0.57
0.495
0.395
0.37
0.385
0.37
0.38
0.425
0.445
0.49
0.495
0.465
0.5
0.535
0.465
0.445
0.45
0.465
0.49
0.475
0.48
0.495
0.485
0.505
0.47
0.475
0.48
0.535
0.505
0.525
0.545
0.555
0.535
0.505
0.51
0.54
0.56
0.525
0.49
0.495
0.525
0.555
0.55
0.555
0.55
0.54
0.53
0.55
0.555
0.555
0.565
0.6
0.58
0.58
0.585
0.58
0.585
0.56
0.56
0.585
0.65
0.685
0.67
0.625
0.605
0.615
0.635
0.675
0.71
0.64
0.655
0.645
0.645
0.645
0.67
0.72
0.665
0.675
0.685
0.7
0.675
0.71
0.68
0.67
0.675
0.645
0.675
0.64
0.64
0.645
0.645
0.64
0.615
0.61
0.61
0.6
0.595
0.54
0.525
0.55
0.495
0.5
0.53
0.505
0.49
0.505
0.5
0.48
0.46
0.45
0.485
0.52
0.465
0.445
0.445
0.445
0.42
0.405
0.41
0.44
0.44
0.45
0.445
0.45
0.475
0.44
0.415
0.43
0.46
0.485
0.46
0.46
0.465
0.49
0.455
0.425
0.45
0.455
0.44
0.44
0.415
0.395
0.41
0.43
0.45
0.43
0.42
0.395
0.455
0.46
0.5
0.485
0.465
0.455
0.425
0.45
0.46
0.465
0.49
0.48
0.475
0.435
0.435
0.445
0.47
0.45
0.465
0.47
0.49
0.49
0.535
0.495
0.415
0.47
0.46
0.47
0.505
0.49
0.515
0.505
0.49
0.51
0.485
0.47
0.51
0.52
0.535
0.455
0.465
0.49
0.505
0.49
0.495
0.505
0.505
0.51
0.53
0.525
0.505
0.485
0.47
0.455
0.45
0.455
0.445
0.43
0.43
0.46
0.46
0.44
0.45
0.455
0.43
0.445
0.46
0.465
0.445
0.44
0.405
0.42
0.45
0.44
0.435
0.445
0.425
0.46
0.445
0.45
0.425
0.4
0.39
0.395
0.415
0.39
0.37
0.32
0.27
0.335
0.37
0.36
0.4
0.505
0.615
0.705
0.785
0.88
0.97
1.05
1.12
1.185
1.24
1.205
1.21
1.18
1.15
1.015
0.855
0.69
0.62
0.565
0.445
0.385
0.38
0.38
0.385
0.395
0.4
0.38
0.43
0.455
0.425
0.45
0.445
0.47
0.445
0.445
0.45
0.455
0.46
0.45
0.485
0.465
0.49
0.51
0.5
0.45
0.425
0.47
0.47
0.455
0.505
0.51
0.51
0.475
0.465
0.47
0.465
0.505
0.49
0.5
0.475
0.49
0.51
0.515
0.5
0.52
0.52
0.565
0.545
0.495
0.55
0.54
0.525
0.54
0.575
0.555
0.56
0.565
0.57
0.585
0.645
0.635
0.65
0.575
0.585
0.62
0.62
0.62
0.62
0.645
0.66
0.655
0.665
0.605
0.62
0.7
0.67
0.63
0.645
0.695
0.685
0.69
0.67
0.65
0.645
0.645
0.67
0.65
0.62
0.615
0.6
0.595
0.565
0.535
0.55
0.55
0.54
0.53
0.535
0.51
0.535
0.515
0.515
0.5
0.465
0.44
0.445
0.475
0.48
0.41
0.42
0.405
0.425
0.435
0.44
0.445
0.45
0.425
0.405
0.445
0.41
0.39
0.4
0.415
0.42
0.425
0.41
0.41
0.405
0.44
0.415
0.43
0.42
0.46
0.41
0.42
0.455
0.415
0.41
0.42
0.415
0.425
0.455
0.445
0.43
0.445
0.395
0.395
0.425
0.42
0.44
0.445
0.44
0.44
0.43
0.465
0.45
0.43
0.41
0.405
0.42
0.445
0.43
0.42
0.435
0.43
0.44
0.45
0.455
0.47
0.435
0.445
0.465
0.505
0.475
0.455
0.49
0.47
0.47
0.48
0.48
0.54
0.46
0.475
0.46
0.455
0.47
0.455
0.49
0.495
0.49
0.505
0.485
0.505
0.515
0.515
0.53
0.46
0.445
0.445
0.405
0.45
0.445
0.445
0.42
0.42
0.43
0.425
0.445
0.445
0.43
0.425
0.39
0.405
0.415
0.43
0.45
0.42
0.4
0.43
0.41
0.455
0.47
0.45
0.355
0.365
0.39
0.405
0.405
0.455
0.435
0.375
0.36
0.34
0.32
0.305
0.3
0.3
0.315
0.36
0.45
0.53
0.625
0.725
0.83
0.91
1.0
1.12
1.15
1.21
1.265
1.21
1.195
1.18
1.08
0.88
0.745
0.675
0.61
0.505
0.415
0.4
0.33
0.36
0.375
0.385
0.35
0.355
0.38
0.41
0.43
0.435
0.445
0.47
0.445
0.47
0.46
0.435
0.43
0.405
0.415
0.425
0.445
0.44
0.465
0.485
0.48
0.485
0.49
0.49
0.45
0.5
0.47
0.44
0.465
0.475
0.48
0.47
0.49
0.48
0.515
0.51
0.49
0.505
0.525
0.51
0.5
0.54
0.525
0.515
0.515
0.55
0.55
0.56
0.55
0.56
0.55
0.55
0.545
0.535
0.585
0.625
0.58
0.59
0.59
0.6
0.6
0.59
0.625
0.63
0.65
0.645
0.63
0.625
0.645
0.65
0.66
0.66
0.615
0.63
0.645
0.645
0.675
0.655
0.655
0.64
0.635
0.63
0.65
0.585
0.585
0.625
0.59
0.59
0.59
0.555
0.545
0.49
0.485
0.475
0.51
0.525
0.45
0.455
0.47
0.445
0.44
0.45
0.42
0.43
0.41
0.425
0.44
0.445
0.405
0.42
0.445
0.43
0.415
0.405
0.42
0.41
0.42
0.365
0.37
0.375
0.355
0.395
0.415
0.42
0.42
0.42
0.435
0.435
0.41
0.37
0.41
0.415
0.405
0.41
0.39
0.41
0.43
0.445
0.48
0.4
0.39
0.435
0.45
0.455
0.42
0.45
0.43
0.43
0.39
0.42
0.42
0.43
0.43
0.415
0.445
0.44
0.46
0.415
0.395
0.415
0.42
0.405
0.45
0.455
0.45
0.46
0.46
0.44
0.445
0.445
0.47
0.455
0.435
0.47
0.515
0.545
0.495
0.47
0.42
0.415
0.435
0.45
0.445
0.465
0.46
0.47
0.465
0.46
0.475
0.48
0.485
0.495
0.5
0.445
0.49
0.485
0.52
0.485
0.455
0.455
0.45
0.43
0.435
0.42
0.425
0.425
0.42
0.435
0.435
0.44
0.45
0.425
0.435
0.435
0.395
0.4
0.46
0.435
0.415
0.415
0.4
0.405
0.405
0.44
0.45
0.425
0.425
0.435
0.445
0.405
0.41
0.39
0.38
0.325
0.305
0.305
0.305
0.355
0.405
0.48
0.575
0.66
0.715
0.815
0.925
1.005
1.09
1.085
1.125
1.175
1.165
1.18
1.2
1.11
0.885
0.755
0.66
0.595
0.515
0.365
0.35
0.33
0.395
0.38
0.355
0.375
0.39
0.435
0.455
0.42
0.415
0.445
0.485
0.465
0.46
0.485
0.5
0.485
0.445
0.445
0.455
0.47
0.455
0.5
0.485
0.47
0.48
0.485
0.485
0.505
0.495
0.495
0.515
0.485
0.495
0.51
0.5
0.535
0.515
0.525
0.515
0.485
0.485
0.535
0.555
0.56
0.52
0.505
0.515
0.53
0.525
0.525
0.545
0.585
0.59
0.565
0.605
0.59
0.56
0.57
0.555
0.605
0.64
0.66
0.68
0.63
0.64
0.635
0.625
0.665
0.665
0.655
0.67
0.69
0.69
0.685
0.705
0.65
0.7
0.71
0.65
0.6
0.6
0.665
0.635
0.605
0.615
0.58
0.62
0.61
0.605
0.595
0.6
0.595
0.57
0.545
0.53
0.54
0.54
0.55
0.52
0.49
0.525
0.495
0.455
0.48
0.485
0.49
0.45
0.435
0.525
0.5
0.48
0.455
0.415
0.42
0.41
0.44
0.46
0.44
0.43
0.41
0.42
0.475
0.46
0.39
0.415
0.43
0.48
0.475
0.425
0.43
0.4
0.35
0.405
0.45
0.48
0.47
0.46
0.445
0.47
0.48
0.485
0.425
0.375
0.405
0.435
0.4
0.425
0.465
0.415
0.44
0.46
0.46
0.455
0.425
0.415
0.42
0.44
0.465
0.465
0.47
0.505
0.46
0.43
0.45
0.44
0.455
0.46
0.48
0.475
0.48
0.49
0.53
0.525
0.45
0.42
0.46
0.46
0.485
0.52
0.47
0.465
0.475
0.485
0.495
0.495
0.49
0.515
0.51
0.475
0.485
0.48
0.47
0.465
0.465
0.49
0.495
0.495
0.505
0.505
0.53
0.5
0.47
0.485
0.485
0.49
0.47
0.48
0.46
0.465
0.48
0.46
0.475
0.41
0.395
0.445
0.46
0.41
0.425
0.415
0.44
0.465
0.45
0.445
0.475
0.43
0.42
0.455
0.425
0.435
0.435
0.45
0.45
0.44
0.44
0.42
0.425
0.45
0.435
0.405
0.41
0.365
0.365
0.36
0.35
0.42
0.43
0.485
0.565
0.675
0.735
0.8
0.92
0.97
1.02
1.13
1.16
1.185
1.105
1.095
1.065
1.015
0.905
0.735
0.635
0.59
0.5
0.4
0.32
0.315
0.32
0.355
0.4
0.46
0.44
0.405
0.42
0.455
0.46
0.425
0.465
0.5
0.46
0.465
0.495
0.485
0.46
0.47
0.49
0.5
0.495
0.495
0.51
0.49
0.505
0.52
0.505
0.53
0.62
0.555
0.495
0.495
0.485
0.5
0.53
0.54
0.545
0.53
0.57
0.53
0.52
0.555
0.555
0.565
0.55
0.565
0.57
0.6
0.605
0.575
0.56
0.56
0.565
0.585
0.625
0.64
0.625
0.585
0.59
0.585
0.61
0.655
0.655
0.675
0.685
0.67
0.625
0.68
0.75
0.66
0.63
0.68
0.71
0.63
0.655
0.7
0.66
0.685
0.69
0.665
0.68
0.655
0.67
0.665
0.675
0.685
0.68
0.63
0.635
0.595
0.57
0.58
0.615
0.605
0.585
0.52
0.505
0.525
0.535
0.545
0.525
0.48
0.49
0.505
0.5
0.465
0.485
0.485
0.47
0.465
0.465
0.47
0.455
0.44
0.425
0.435
0.45
0.465
0.485
0.445
0.455
0.465
0.435
0.4
0.44
0.445
0.46
0.455
0.46
0.46
0.475
0.44
0.45
0.415
0.41
0.425
0.43
0.43
0.43
0.43
0.465
0.49
0.47
0.45
0.46
0.48
0.485
0.46
0.475
0.47
0.46
0.465
0.46
0.42
0.46
0.49
0.46
0.47
0.495
0.485
0.49
0.5
0.495
0.505
0.45
0.435
0.47
0.465
0.455
0.46
0.485
0.475
0.505
0.495
0.485
0.49
0.495
0.475
0.45
0.49
0.53
0.485
0.475
0.49
0.49
0.495
0.505
0.515
0.485
0.485
0.495
0.53
0.565
0.57
0.55
0.565
0.455
0.42
0.455
0.445
0.48
0.51
0.52
0.525
0.52
0.485
0.495
0.5
0.47
0.485
0.47
0.475
0.465
0.48
0.5
0.485
0.46
0.47
0.46
0.485
0.49
0.45
0.43
0.45
0.48
0.455
0.445
0.45
0.415
0.465
0.52
0.495
0.435
0.465
0.44
0.435
0.46
0.45
0.42
0.45
0.425
0.45
0.435
0.44
0.425
0.43
0.43
0.395
0.36
0.345
0.42
0.49
0.47
0.6
0.67
0.755
0.795
0.87
0.975
1.045
1.125
1.145
1.185
1.18
1.18
1.13
1.1
0.96
0.785
0.69
0.64
0.58
0.48
0.405
0.4
0.36
0.385
0.445
0.445
0.465
0.43
0.42
0.44
0.465
0.47
0.49
0.495
0.495
0.51
0.555
0.525
0.505
0.49
0.52
0.495
0.475
0.465
0.485
0.47
0.5
0.52
0.49
0.53
0.515
0.5
0.53
0.52
0.545
0.515
0.52
0.545
0.535
0.545
0.535
0.535
0.56
0.575
0.605
0.59
0.535
0.495
0.515
0.515
0.535
0.535
0.565
0.57
0.58
0.595
0.59
0.575
0.6
0.62
0.61
0.61
0.625
0.625
0.67
0.64
0.595
0.61
0.645
0.695
0.685
0.73
0.725
0.68
0.695
0.67
0.675
0.675
0.695
0.68
0.68
0.675
0.675
0.68
0.67
0.71
0.69
0.66
0.65
0.625
0.635
0.635
0.63
0.515
0.595
0.59
0.58
0.575
0.515
0.515
0.475
0.485
0.495
0.475
0.485
0.5
0.48
0.455
0.485
0.49
0.435
0.465
0.425
0.425
0.435
0.445
0.44
0.44
0.445
0.43
0.425
0.435
0.45
0.49
0.48
0.47
0.43
0.405
0.425
0.445
0.425
0.415
0.44
0.46
0.46
0.475
0.45
0.425
0.425
0.415
0.43
0.455
0.47
0.48
0.49
0.445
0.445
0.48
0.49
0.435
0.42
0.425
0.45
0.455
0.46
0.445
0.44
0.48
0.48
0.475
0.46
0.485
0.53
0.415
0.42
0.44
0.465
0.475
0.475
0.445
0.435
0.44
0.47
0.46
0.45
0.445
0.46
0.45
0.455
0.44
0.475
0.48
0.465
0.46
0.475
0.47
0.455
0.46
0.51
0.49
0.52
0.51
0.47
0.43
0.465
0.53
0.54
0.52
0.47
0.47
0.455
0.485
0.48
0.455
0.455
0.465
0.475
0.505
0.525
0.475
0.485
0.535
0.535
0.485
0.485
0.465
0.495
0.51
0.525
0.49
0.435
0.49
0.46
0.46
0.49
0.465
0.435
0.425
0.44
0.45
0.435
0.44
0.425
0.445
0.44
0.46
0.465
0.45
0.42
0.445
0.445
0.43
0.415
0.39
0.415
0.44
0.455
0.49
0.435
0.43
0.42
0.42
0.425
0.385
0.39
0.38
0.38
0.405
0.46
0.51
0.595
0.645
0.715
0.81
0.845
0.9
1.0
1.08
1.14
1.155
1.205
1.13
1.06
1.07
0.98
0.835
0.71
0.635
0.58
0.475
0.445
0.385
0.33
0.37
0.405
0.42
0.415
0.41
0.425
0.475
0.475
0.48
0.52
0.53
0.49
0.43
0.475
0.485
0.49
0.505
0.5
0.545
0.48
0.455
0.495
0.51
0.495
0.485
0.51
0.505
0.54
0.53
0.5
0.49
0.505
0.495
0.5
0.515
0.51
0.495
0.53
0.555
0.54
0.565
0.535
0.555
0.525
0.555
0.57
0.58
0.56
0.62
0.605
0.58
0.59
0.63
0.605
0.53
0.545
0.57
0.61
0.645
0.635
0.64
0.68
0.72
0.66
0.62
0.615
0.635
0.67
0.67
0.69
0.7
0.705
0.665
0.69
0.715
0.665
0.7
0.685
0.685
0.685
0.69
0.7
0.71
0.68
0.635
0.66
0.7
0.685
0.61
0.625
0.635
0.595
0.56
0.56
0.53
0.545
0.565
0.53
0.525
0.535
0.505
0.505
0.5
0.52
0.49
0.48
0.475
0.43
0.475
0.49
0.46
0.475
0.465
0.48
0.475
0.45
0.45
0.44
0.415
0.44
0.44
0.435
0.47
0.46
0.47
0.48
0.5
0.53
0.45
0.47
0.48
0.425
0.46
0.47
0.43
0.445
0.475
0.49
0.47
0.49
0.49
0.485
0.475
0.515
0.505
0.45
0.43
0.47
0.465
0.455
0.485
0.47
0.48
0.49
0.485
0.485
0.475
0.495
0.485
0.515
0.505
0.48
0.51
0.495
0.495
0.49
0.49
0.49
0.455
0.455
0.525
0.47
0.475
0.475
0.465
0.485
0.485
0.505
0.5
0.52
0.535
0.505
0.475
0.47
0.495
0.51
0.445
0.445
0.475
0.5
0.5
0.49
0.485
0.51
0.495
0.48
0.515
0.53
0.545
0.58
0.5
0.515
0.55
0.495
0.495
0.505
0.535
0.46
0.485
0.515
0.485
0.52
0.515
0.5
0.515
0.55
0.545
0.525
0.525
0.535
0.51
0.485
0.525
0.53
0.505
0.51
0.485
0.48
0.485
0.5
0.525
0.54
0.505
0.4
0.42
0.465
0.49
0.475
0.47
0.52
0.49
0.475
0.5
0.505
0.45
0.435
0.455
0.465
0.465
0.485
0.495
0.42
0.415
0.425
0.43
0.45
0.43
0.44
0.415
0.42
0.405
0.415
0.445
0.51
0.6
0.62
0.68
0.755
0.825
0.9
0.96
1.075
1.16
1.14
1.155
1.2
1.16
1.125
1.095
0.99
0.905
0.81
0.67
0.51
0.455
0.415
0.42
0.42
0.44
0.455
0.445
0.435
0.44
0.48
0.505
0.495
0.525
0.525
0.555
0.54
0.495
0.5
0.465
0.475
0.48
0.53
0.515
0.505
0.515
0.53
0.51
0.525
0.525
0.515
0.53
0.56
0.555
0.53
0.55
0.56
0.555
0.55
0.515
0.56
0.565
0.56
0.56
0.555
0.585
0.59
0.605
0.58
0.575
0.6
0.58
0.595
0.58
0.6
0.59
0.615
0.585
0.605
0.63
0.615
0.645
0.66
0.65
0.685
0.655
0.69
0.645
0.655
0.675
0.64
0.69
0.71
0.705
0.71
0.71
0.725
0.69
0.665
0.67
0.715
0.705
0.74
0.75
0.81
0.775
0.7
0.615
0.65
0.67
0.65
0.675
0.68
0.685
0.62
0.6
0.625
0.6
0.61
0.66
0.565
0.505
0.565
0.55
0.52
0.505
0.505
0.465
0.475
0.485
0.5
0.48
0.48
0.5
0.495
0.48
0.465
0.475
0.49
0.51
0.51
0.465
0.46
0.44
0.45
0.425
0.465
0.48
0.48
0.465
0.455
0.47
0.5
0.49
0.505
0.49
0.435
0.46
0.445
0.48
0.47
0.45
0.49
0.495
0.49
0.49
0.47
0.485
0.51
0.51
0.45
0.49
0.545
0.495
0.475
0.52
0.57
0.505
0.445
0.46
0.455
0.51
0.505
0.46
0.47
0.535
0.555
0.54
0.545
0.515
0.47
0.49
0.545
0.51
0.485
0.475
0.51
0.5
0.485
0.51
0.53
0.555
0.55
0.555
0.53
0.545
0.535
0.515
0.505
0.52
0.535
0.525
0.575
0.59
0.515
0.475
0.51
0.53
0.49
0.5
0.59
0.495
0.46
0.52
0.555
0.53
0.535
0.56
0.555
0.57
0.555
0.54
0.56
0.57
0.56
0.53
0.54
0.575
0.585
0.57
0.575
0.57
0.57
0.57
0.58
0.59
0.615
0.62
0.59
0.56
0.56
0.57
0.57
0.53
0.535
0.535
0.51
0.535
0.53
0.52
0.545
0.525
0.52
0.565
0.49
0.475
0.495
0.55
0.515
0.545
0.59
0.53
0.485
0.505
0.53
0.52
0.51
0.51
0.495
0.5
0.515
0.505
0.51
0.495
0.515
0.48
0.49
0.505
0.45
0.455
0.56
0.665
0.69
0.755
0.855
0.96
1.045
1.145
1.155
1.205
1.255
1.245
1.235
1.23
1.21
1.04
0.915
0.825
0.75
0.615
0.535
0.51
0.475
0.46
0.465
0.5
0.515
0.505
0.505
0.515
0.56
0.57
0.55
0.555
0.55
0.57
0.605
0.58
0.575
0.53
0.495
0.515
0.565
0.57
0.6
0.57
0.565
0.57
0.58
0.595
0.56
0.6
0.62
0.595
0.615
0.615
0.555
0.595
0.605
0.6
0.58
0.545
0.59
0.635
0.655
0.605
0.62
0.62
0.575
0.62
0.64
0.67
0.655
0.63
0.665
0.64
0.59
0.635
0.66
0.655
0.675
0.705
0.72
0.69
0.69
0.675
0.7
0.73
0.745
0.77
0.785
0.72
0.765
0.74
0.755
0.785
0.76
0.76
0.78
0.78
0.77
0.8
0.785
0.68
0.735
0.715
0.78
0.73
0.73
0.7
0.735
0.725
0.66
0.685
0.69
0.675
0.65
0.66
0.65
0.58
0.615
0.59
0.57
0.57
0.575
0.575
0.535
0.53
0.57
0.585
0.54
0.56
0.53
0.515
0.505
0.495
0.49
0.505
0.52
0.535
0.49
0.515
0.53
0.52
0.535
0.53
0.52
0.52
0.51
0.52
0.53
0.52
0.515
0.535
0.52
0.48
0.5
0.535
0.51
0.55
0.6
0.59
0.575
0.56
0.515
0.52
0.48
0.475
0.49
0.505
0.51
0.56
0.54
0.505
0.515
0.535
0.55
0.555
0.5
0.47
0.485
0.51
0.5
0.525
0.545
0.535
0.53
0.545
0.515
0.515
0.555
0.555
0.56
0.545
0.53
0.53
0.54
0.54
0.555
0.515
0.54
0.535
0.575
0.56
0.565
0.56
0.465
0.505
0.53
0.515
0.49
0.49
0.55
0.55
0.52
0.515
0.49
0.49
0.535
0.515
0.52
0.535
0.54
0.51
0.515
0.53
0.54
0.52
0.52
0.545
0.505
0.51
0.54
0.52
0.535
0.55
0.55
0.545
0.595
0.54
0.54
0.52
0.52
0.525
0.52
0.52
0.545
0.565
0.575
0.54
0.545
0.585
0.57
0.56
0.56
0.555
0.555
0.53
0.525
0.525
0.515
0.5
0.485
0.505
0.52
0.505
0.5
0.53
0.54
0.575
0.54
0.52
0.525
0.525
0.48
0.495
0.44
0.455
0.46
0.495
0.495
0.51
0.515
0.51
0.495
0.52
0.485
0.495
0.475
0.455
0.46
0.405
0.415
0.4
0.435
0.49
0.575
0.655
0.745
0.81
0.905
0.995
1.05
1.105
1.205
1.265
1.275
1.285
1.15
1.15
1.16
1.03
0.82
0.73
0.66
0.565
0.5
0.44
0.405
0.465
0.415
0.44
0.485
0.52
0.515
0.53
0.47
0.46
0.505
0.57
0.525
0.515
0.52
0.495
0.5
0.515
0.52
0.525
0.53
0.53
0.54
0.575
0.555
0.545
0.565
0.58
0.535
0.575
0.6
0.57
0.6
0.625
0.595
0.51
0.555
0.58
0.56
0.565
0.565
0.575
0.59
0.59
0.595
0.595
0.625
0.61
0.585
0.605
0.595
0.61
0.65
0.65
0.635
0.595
0.61
0.66
0.67
0.695
0.685
0.66
0.63
0.685
0.675
0.675
0.71
0.755
0.76
0.725
0.66
0.715
0.69
0.725
0.75
0.74
0.695
0.75
0.73
0.725
0.725
0.705
0.71
0.745
0.75
0.755
0.74
0.695
0.7
0.675
0.67
0.65
0.635
0.61
0.63
0.66
0.6
0.56
0.575
0.6
0.62
0.54
0.545
0.53
0.5
0.5
0.515
0.535
0.53
0.55
0.515
0.555
0.47
0.45
0.505
0.52
0.475
0.48
0.515
0.51
0.495
0.455
0.46
0.465
0.49
0.51
0.515
0.51
0.49
0.5
0.49
0.51
0.465
0.48
0.495
0.46
0.475
0.455
0.49
0.46
0.48
0.51
0.52
0.535
0.555
0.52
0.47
0.515
0.48
0.51
0.54
0.525
0.47
0.42
0.505
0.585
0.565
0.535
0.46
0.465
0.45
0.455
0.495
0.505
0.535
0.525
0.48
0.505
0.51
0.475
0.45
0.475
0.485
0.5
0.525
0.505
0.505
0.485
0.5
0.515
0.51
0.515
0.49
0.49
0.47
0.475
0.5
0.45
0.51
0.505
0.51
0.49
0.495
0.51
0.485
0.45
0.515
0.5
0.495
0.51
0.555
0.545
0.535
0.45
0.475
0.485
0.5
0.495
0.51
0.525
0.52
0.555
0.48
0.52
0.505
0.525
0.575
0.575
0.555
0.485
0.46
0.515
0.53
0.51
0.485
0.49
0.535
0.515
0.51
0.575
0.535
0.485
0.47
0.46
0.465
0.465
0.49
0.435
0.44
0.52
0.51
0.52
0.495
0.48
0.455
0.47
0.43
0.445
0.47
0.51
0.45
0.435
0.445
0.47
0.485
0.465
0.47
0.47
0.435
0.45
0.405
0.375
0.4
0.435
0.46
0.475
0.59
0.66
0.725
0.805
0.91
0.97
1.025
1.125
1.185
1.235
1.21
1.145
1.185
1.19
1.095
0.88
0.755
0.69
0.63
0.53
0.405
0.385
0.405
0.44
0.455
0.435
0.46
0.425
0.445
0.485
0.495
0.53
0.54
0.56
0.515
0.505
0.505
0.485
0.475
0.51
0.505
0.5
0.495
0.515
0.55
0.465
0.475
0.455
0.49
0.535
0.56
0.55
0.55
0.555
0.565
0.51
0.515
0.525
0.565
0.595
0.59
0.62
0.6
0.59
0.61
0.57
0.51
0.555
0.52
0.56
0.545
0.575
0.585
0.615
0.595
0.585
0.59
0.59
0.64
0.67
0.7
0.61
0.6
0.64
0.665
0.63
0.67
0.72
0.725
0.7
0.65
0.665
0.715
0.7
0.72
0.765
0.74
0.775
0.675
0.63
0.635
0.69
0.725
0.69
0.645
0.675
0.72
0.69
0.645
0.635
0.615
0.645
0.625
0.66
0.65
0.6
0.57
0.545
0.555
0.55
0.535
0.535
0.54
0.585
0.595
0.475
0.47
0.515
0.475
0.46
0.47
0.48
0.49
0.495
0.5
0.45
0.455
0.5
0.54
0.415
0.385
0.415
0.43
0.48
0.455
0.42
0.42
0.45
0.46
0.44
0.5
0.53
0.49
0.45
0.415
0.43
0.4
0.4
0.485
0.445
0.495
0.455
0.47
0.435
0.435
0.47
0.46
0.475
0.465
0.45
0.43
0.44
0.465
0.44
0.485
0.47
0.48
0.46
0.46
0.485
0.465
0.48
0.475
0.505
0.49
0.41
0.415
0.465
0.46
0.42
0.445
0.495
0.48
0.495
0.51
0.475
0.49
0.415
0.42
0.435
0.465
0.445
0.465
0.44
0.445
0.415
0.455
0.44
0.465
0.455
0.485
0.505
0.45
0.46
0.435
0.45
0.495
0.5
0.48
0.435
0.5
0.535
0.53
0.485
0.49
0.495
0.51
0.505
0.465
0.43
0.465
0.48
0.485
0.46
0.48
0.47
0.49
0.48
0.5
0.515
0.55
0.52
0.46
0.475
0.485
0.51
0.495
0.46
0.43
0.435
0.46
0.45
0.42
0.435
0.46
0.51
0.495
0.455
0.43
0.39
0.42
0.45
0.44
0.43
0.445
0.47
0.465
0.445
0.43
0.445
0.45
0.46
0.495
0.43
0.41
0.425
0.39
0.405
0.385
0.36
0.37
0.335
0.355
0.445
0.515
0.525
0.51
0.645
0.77
0.885
0.95
1.015
1.09
1.12
1.205
1.215
1.21
1.14
1.145
1.125
0.93
0.765
0.665
0.6
0.52
0.415
0.38
0.36
0.36
0.39
0.41
0.465
0.42
0.35
0.405
0.45
0.48
0.515
0.48
0.505
0.48
0.455
0.46
0.475
0.455
0.46
0.47
0.5
0.485
0.49
0.515
0.48
0.505
0.505
0.465
0.465
0.485
0.5
0.49
0.49
0.535
0.555
0.525
0.52
0.505
0.505
0.52
0.495
0.5
0.515
0.55
0.555
0.535
0.495
0.555
0.59
0.58
0.545
0.57
0.57
0.545
0.58
0.585
0.59
0.62
0.61
0.58
0.615
0.595
0.575
0.615
0.625
0.655
0.65
0.64
0.68
0.685
0.675
0.64
0.675
0.675
0.645
0.7
0.725
0.655
0.625
0.665
0.645
0.66
0.705
0.665
0.655
0.645
0.58
0.635
0.605
0.605
0.62
0.635
0.57
0.535
0.54
0.565
0.53
0.54
0.57
0.505
0.51
0.51
0.475
0.51
0.455
0.48
0.475
0.485
0.43
0.42
0.44
0.46
0.455
0.435
0.42
0.45
0.44
0.415
0.43
0.435
0.42
0.44
0.485
0.42
0.395
0.41
0.425
0.465
0.465
0.445
0.41
0.415
0.405
0.4
0.445
0.435
0.44
0.47
0.535
0.5
0.475
0.445
0.415
0.405
0.43
0.46
0.495
0.485
0.45
0.44
0.39
0.42
0.435
0.43
0.46
0.48
0.48
0.47
0.49
0.48
0.4
0.425
0.435
0.465
0.485
0.47
0.46
0.455
0.485
0.485
0.45
0.4
0.415
0.445
0.45
0.455
0.45
0.46
0.44
0.425
0.42
0.435
0.465
0.47
0.495
0.45
0.455
0.445
0.495
0.5
0.45
0.45
0.42
0.39
0.435
0.45
0.47
0.465
0.47
0.46
0.455
0.46
0.49
0.535
0.47
0.44
0.455
0.49
0.475
0.455
0.48
0.48
0.515
0.505
0.47
0.465
0.465
0.46
0.48
0.495
0.45
0.465
0.47
0.45
0.455
0.445
0.425
0.405
0.45
0.47
0.455
0.42
0.395
0.38
0.395
0.405
0.41
0.43
0.42
0.46
0.465
0.465
0.505
0.45
0.34
0.385
0.45
0.43
0.395
0.37
0.39
0.4
0.365
0.325
0.325
0.305
0.365
0.425
0.48
0.56
0.655
0.785
0.86
0.935
1.01
1.115
1.18
1.215
1.18
1.125
1.11
1.14
1.115
0.895
0.735
0.655
0.6
0.525
0.4
0.37
0.335
0.335
0.31
0.325
0.355
0.425
0.455
0.455
0.42
0.395
0.45
0.425
0.43
0.47
0.44
0.45
0.425
0.415
0.41
0.425
0.435
0.455
0.48
0.455
0.41
0.44
0.48
0.455
0.455
0.47
0.475
0.5
0.51
0.51
0.49
0.485
0.525
0.545
0.465
0.46
0.48
0.485
0.51
0.485
0.475
0.505
0.515
0.475
0.53
0.525
0.52
0.53
0.535
0.56
0.575
0.57
0.575
0.535
0.515
0.525
0.56
0.59
0.63
0.59
0.565
0.585
0.63
0.585
0.615
0.695
0.7
0.64
0.63
0.615
0.6
0.605
0.595
0.59
0.605
0.625
0.64
0.63
0.615
0.615
0.605
0.62
0.6
0.57
0.575
0.6
0.58
0.56
0.52
0.485
0.535
0.575
0.525
0.505
0.41
0.43
0.47
0.465
0.455
0.45
0.43
0.46
0.475
0.435
0.4
0.38
0.39
0.41
0.41
0.4
0.37
0.405
0.41
0.425
0.39
0.37
0.38
0.39
0.425
0.42
0.425
0.45
0.345
0.31
0.35
0.375
0.415
0.4
0.445
0.425
0.39
0.395
0.365
0.385
0.4
0.4
0.39
0.39
0.425
0.4
0.41
0.405
0.41
0.415
0.395
0.385
0.42
0.41
0.385
0.41
0.42
0.42
0.41
0.415
0.425
0.445
0.385
0.46
0.515
0.46
0.345
0.395
0.38
0.385
0.4
0.4
0.37
0.415
0.44
0.4
0.38
0.415
0.39
0.4
0.4
0.415
0.4
0.405
0.425
0.43
0.455
0.495
0.435
0.355
0.42
0.455
0.405
0.435
0.42
0.445
0.45
0.415
0.42
0.46
0.455
0.395
0.39
0.42
0.44
0.425
0.46
0.45
0.455
0.48
0.435
0.39
0.43
0.39
0.37
0.41
0.415
0.41
0.42
0.415
0.385
0.355
0.38
0.375
0.365
0.36
0.385
0.38
0.375
0.395
0.4
0.38
0.385
0.405
0.4
0.415
0.38
0.36
0.385
0.375
0.395
0.395
0.38
0.4
0.405
0.355
0.35
0.375
0.355
0.265
0.25
0.305
0.37
0.43
0.555
0.605
0.62
0.725
0.845
0.915
0.985
1.08
1.11
1.085
1.02
1.005
0.995
0.975
0.785
0.615
0.53
0.475
0.4
0.325
0.295
0.28
0.305
0.31
0.36
0.35
0.375
0.385
0.385
0.435
0.38
0.365
0.42
0.435
0.425
0.405
0.405
0.43
0.435
0.44
0.405
0.455
0.46
0.415
0.415
0.395
0.4
0.41
0.43
0.425
0.44
0.435
0.465
0.46
0.43
0.475
0.44
0.43
0.435
0.465
0.46
0.47
0.525
0.455
0.465
0.475
0.455
0.44
0.455
0.495
0.5
0.495
0.515
0.52
0.52
0.535
0.54
0.55
0.55
0.59
0.6
0.555
0.525
0.55
0.515
0.555
0.59
0.6
0.59
0.6
0.585
0.55
0.56
0.6
0.59
0.59
0.59
0.63
0.625
0.635
0.615
0.575
0.565
0.6
0.605
0.57
0.525
0.56
0.57
0.555
0.54
0.565
0.525
0.485
0.475
0.48
0.505
0.515
0.51
0.53
0.435
0.39
0.43
0.4
0.385
0.425
0.43
0.42
0.44
0.45
0.385
0.345
0.355
0.39
0.4
0.4
0.36
0.375
0.375
0.37
0.35
0.335
0.355
0.365
0.36
0.36
0.35
0.375
0.39
0.405
0.375
0.315
0.35
0.37
0.395
0.39
0.39
0.405
0.435
0.42
0.37
0.365
0.365
0.37
0.37
0.375
0.4
0.4
0.425
0.385
0.35
0.385
0.39
0.39
0.365
0.365
0.36
0.375
0.38
0.395
0.405
0.405
0.395
0.375
0.395
0.395
0.39
0.44
0.375
0.385
0.435
0.425
0.375
0.4
0.385
0.415
0.4
0.41
0.38
0.375
0.415
0.435
0.42
0.445
0.455
0.415
0.445
0.44
0.425
0.425
0.405
0.41
0.415
0.415
0.425
0.415
0.435
0.455
0.445
0.415
0.465
0.49
0.505
0.455
0.385
0.395
0.405
0.43
0.38
0.38
0.38
0.355
0.365
0.395
0.395
0.385
0.38
0.365
0.355
0.365
0.375
0.355
0.385
0.41
0.45
0.365
0.39
0.32
0.35
0.375
0.375
0.39
0.355
0.395
0.38
0.345
0.35
0.35
0.365
0.365
0.36
0.39
0.365
0.305
0.315
0.38
0.42
0.48
0.565
0.635
0.7
0.765
0.83
0.9
0.945
0.975
1.01
0.92
0.94
0.97
0.94
0.85
0.675
0.515
0.415
0.38
0.31
0.265
0.255
0.265
0.275
0.275
0.31
0.335
0.365
0.37
0.34
0.365
0.41
0.38
0.415
0.43
0.43
0.4
0.4
0.4
0.42
0.415
0.425
0.47
0.49
0.45
0.45
0.42
0.455
0.44
0.45
0.425
0.445
0.435
0.425
0.43
0.46
0.43
0.45
0.455
0.465
0.455
0.455
0.495
0.59
0.53
0.465
0.46
0.495
0.515
0.465
0.49
0.495
0.535
0.515
0.545
0.55
0.49
0.52
0.54
0.58
0.54
0.53
0.56
0.535
0.59
0.595
0.585
0.595
0.58
0.605
0.575
0.585
0.625
0.6
0.62
0.63
0.595
0.595
0.585
0.615
0.61
0.62
0.665
0.655
0.59
0.575
0.585
0.565
0.54
0.56
0.575
0.535
0.54
0.555
0.57
0.55
0.495
0.485
0.485
0.47
0.45
0.465
0.485
0.435
0.405
0.415
0.405
0.39
0.38
0.415
0.415
0.445
0.405
0.385
0.38
0.4
0.365
0.35
0.35
0.355
0.35
0.365
0.375
0.37
0.4
0.355
0.375
0.375
0.365
0.385
0.35
0.345
0.365
0.34
0.35
0.36
0.38
0.365
0.38
0.35
0.36
0.385
0.38
0.365
0.355
0.385
0.37
0.34
0.365
0.4
0.415
0.435
0.45
0.395
0.375
0.365
0.385
0.4
0.39
0.395
0.435
0.48
0.465
0.42
0.375
0.34
0.375
0.38
0.395
0.385
0.385
0.385
0.375
0.35
0.38
0.395
0.375
0.4
0.405
0.41
0.41
0.4
0.44
0.45
0.4
0.39
0.435
0.44
0.4
0.4
0.42
0.435
0.43
0.44
0.445
0.455
0.38
0.44
0.435
0.4
0.43
0.435
0.45
0.405
0.37
0.385
0.395
0.415
0.425
0.425
0.445
0.42
0.365
0.36
0.345
0.32
0.33
0.345
0.34
0.345
0.345
0.4
0.38
0.365
0.34
0.325
0.315
0.33
0.345
0.37
0.36
0.37
0.365
0.345
0.375
0.385
0.33
0.305
0.285
0.295
0.29
0.3
0.335
0.395
0.465
0.565
0.625
0.68
0.745
0.79
0.875
0.98
0.98
1.04
0.985
0.99
0.99
0.985
0.925
0.77
0.565
0.47
0.445
0.39
0.325
0.245
0.24
0.235
0.255
0.285
0.34
0.37
0.39
0.365
0.385
0.415
0.405
0.38
0.355
0.385
0.405
0.405
0.4
0.405
0.39
0.42
0.41
0.38
0.4
0.385
0.4
0.365
0.405
0.45
0.465
0.465
0.435
0.425
0.46
0.445
0.45
0.41
0.455
0.47
0.45
0.39
0.45
0.44
0.485
0.51
0.535
0.49
0.47
0.425
0.48
0.5
0.52
0.52
0.52
0.45
0.465
0.51
0.495
0.525
0.53
0.545
0.54
0.575
0.565
0.53
0.525
0.555
0.58
0.57
0.6
0.58
0.595
0.58
0.56
0.555
0.595
0.595
0.625
0.63
0.615
0.575
0.55
0.555
0.545
0.57
0.585
0.59
0.545
0.565
0.53
0.495
0.495
0.475
0.505
0.52
0.525
0.48
0.42
0.455
0.43
0.39
0.42
0.395
0.385
0.4
0.38
0.37
0.4
0.37
0.35
0.375
0.395
0.37
0.405
0.35
0.33
0.38
0.395
0.3
0.295
0.355
0.37
0.355
0.33
0.345
0.305
0.35
0.34
0.345
0.35
0.31
0.33
0.35
0.335
0.325
0.34
0.365
0.37
0.375
0.375
0.365
0.355
0.325
0.335
0.34
0.335
0.365
0.365
0.35
0.36
0.35
0.355
0.365
0.39
0.385
0.385
0.36
0.37
0.335
0.34
0.375
0.34
0.34
0.38
0.42
0.4
0.385
0.355
0.375
0.39
0.385
0.345
0.38
0.41
0.395
0.385
0.415
0.43
0.415
0.45
0.41
0.35
0.37
0.385
0.38
0.365
0.405
0.39
0.405
0.445
0.405
0.345
0.385
0.4
0.4
0.405
0.39
0.36
0.375
0.42
0.42
0.405
0.35
0.335
0.39
0.355
0.36
0.355
0.35
0.36
0.345
0.32
0.305
0.335
0.35
0.34
0.345
0.38
0.36
0.33
0.33
0.34
0.355
0.34
0.345
0.34
0.38
0.345
0.325
0.335
0.35
0.36
0.355
0.33
0.275
0.275
0.3
0.23
0.22
0.325
0.365
0.405
0.535
0.605
0.64
0.75
0.835
0.89
0.995
1.03
1.045
1.09
1.105
1.055
0.95
0.935
0.76
0.625
0.55
0.475
0.43
0.37
0.32
0.25
0.235
0.26
0.285
0.31
0.325
0.35
0.395
0.385
0.365
0.375
0.38
0.38
0.41
0.425
0.38
0.345
0.38
0.4
0.41
0.39
0.41
0.425
0.405
0.37
0.405
0.44
0.425
0.345
0.385
0.42
0.41
0.42
0.435
0.425
0.46
0.485
0.42
0.39
0.4
0.395
0.415
0.46
0.46
0.455
0.425
0.445
0.45
0.455
0.465
0.45
0.47
0.485
0.505
0.5
0.55
0.53
0.5
0.515
0.575
0.575
0.54
0.575
0.595
0.605
0.51
0.45
0.54
0.53
0.535
0.565
0.59
0.575
0.56
0.54
0.57
0.575
0.585
0.59
0.6
0.59
0.6
0.59
0.555
0.53
0.545
0.54
0.55
0.535
0.505
0.495
0.47
0.495
0.475
0.47
0.445
0.435
0.435
0.435
0.42
0.43
0.445
0.4
0.385
0.38
0.4
0.35
0.33
0.365
0.35
0.345
0.35
0.41
0.38
0.315
0.325
0.36
0.335
0.32
0.34
0.335
0.315
0.305
0.335
0.3
0.325
0.345
0.36
0.35
0.32
0.36
0.36
0.34
0.36
0.345
0.32
0.315
0.345
0.36
0.34
0.37
0.405
0.41
0.4
0.325
0.315
0.31
0.325
0.345
0.365
0.375
0.365
0.365
0.345
0.36
0.34
0.335
0.35
0.365
0.35
0.37
0.385
0.375
0.395
0.39
0.355
0.345
0.365
0.41
0.41
0.405
0.47
0.405
0.31
0.32
0.35
0.375
0.405
0.41
0.36
0.355
0.405
0.42
0.38
0.37
0.39
0.385
0.375
0.365
0.39
0.42
0.39
0.365
0.4
0.435
0.425
0.425
0.4
0.41
0.395
0.34
0.37
0.36
0.36
0.37
0.355
0.355
0.405
0.34
0.32
0.335
0.335
0.325
0.35
0.35
0.285
0.3
0.35
0.4
0.38
0.35
0.335
0.3
0.325
0.34
0.32
0.285
0.315
0.315
0.25
0.275
0.28
0.245
0.235
0.21
0.245
0.33
0.365
0.395
0.55
0.615
0.635
0.79
0.86
0.935
1.02
1.04
1.09
1.085
1.09
1.11
1.065
0.885
0.715
0.61
0.535
0.49
0.42
0.305
0.26
0.25
0.27
0.29
0.3
0.315
0.335
0.34
0.35
0.39
0.39
0.32
0.345
0.365
0.355
0.36
0.345
0.375
0.365
0.36
0.34
0.36
0.39
0.415
0.395
0.415
0.41
0.39
0.41
0.385
0.38
0.395
0.435
0.425
0.37
0.385
0.445
0.415
0.4
0.415
0.405
0.43
0.435
0.44
0.455
0.475
0.455
0.44
0.42
0.445
0.47
0.47
0.43
0.455
0.49
0.475
0.465
0.445
0.465
0.485
0.495
0.55
0.57
0.535
0.53
0.495
0.505
0.525
0.515
0.555
0.57
0.555
0.59
0.595
0.615
0.61
0.535
0.55
0.585
0.555
0.585
0.575
0.585
0.58
0.55
0.55
0.52
0.52
0.49
0.52
0.485
0.445
0.47
0.45
0.45
0.47
0.46
0.42
0.385
0.425
0.445
0.4
0.38
0.385
0.365
0.36
0.365
0.36
0.37
0.325
0.32
0.33
0.33
0.295
0.34
0.345
0.33
0.37
0.355
0.315
0.315
0.34
0.33
0.305
0.29
0.29
0.315
0.32
0.3
0.315
0.335
0.345
0.36
0.385
0.335
0.305
0.32
0.295
0.29
0.325
0.345
0.375
0.31
0.35
0.395
0.43
0.33
0.285
0.325
0.34
0.34
0.345
0.335
0.34
0.35
0.315
0.335
0.345
0.37
0.36
0.36
0.335
0.355
0.35
0.365
0.335
0.355
0.34
0.33
0.37
0.385
0.43
0.37
0.365
0.435
0.375
0.365
0.37
0.355
0.38
0.395
0.38
0.41
0.43
0.32
0.33
0.36
0.385
0.395
0.425
0.425
0.39
0.445
0.44
0.38
0.4
0.385
0.395
0.375
0.37
0.35
0.37
0.33
0.33
0.365
0.345
0.36
0.35
0.35
0.33
0.31
0.32
0.34
0.365
0.36
0.305
0.315
0.33
0.32
0.345
0.35
0.36
0.33
0.295
0.325
0.34
0.345
0.39
0.355
0.255
0.255
0.24
0.245
0.215
0.215
0.245
0.26
0.275
0.43
0.54
0.615
0.69
0.795
0.89
1.005
1.065
1.055
1.07
1.105
1.08
1.06
1.05
0.89
0.735
0.615
0.565
0.465
0.37
0.3
0.265
0.3
0.27
0.25
0.295
0.345
0.37
0.335
0.325
0.35
0.375
0.36
0.35
0.385
0.37
0.39
0.365
0.345
0.355
0.365
0.37
0.33
0.365
0.375
0.395
0.415
0.375
0.395
0.385
0.375
0.375
0.405
0.4
0.41
0.42
0.46
0.41
0.365
0.38
0.375
0.42
0.405
0.395
0.415
0.42
0.485
0.48
0.42
0.405
0.4
0.445
0.465
0.445
0.44
0.47
0.455
0.46
0.475
0.505
0.525
0.5
0.515
0.53
0.575
0.515
0.535
0.52
0.51
0.495
0.505
0.52
0.545
0.56
0.595
0.595
0.535
