# TIPE ECG 2021 - ECG-ID Database v1.0.0 par Physionet
# [Numéro de la personne, Période d'échantillonnage, Prénom, Age, Sexe, Date de l'enregistrement]
[78, 0.002, Carl, 34, H, 20.05.2005]
0.17
0.18
0.175
0.18
0.18
0.18
0.175
0.185
0.18
0.175
0.19
0.19
0.18
0.175
0.185
0.175
0.19
0.155
0.17
0.175
0.175
0.17
0.165
0.16
0.155
0.155
0.17
0.165
0.16
0.17
0.175
0.155
0.175
0.165
0.165
0.16
0.165
0.165
0.17
0.155
0.17
0.165
0.17
0.175
0.18
0.175
0.18
0.165
0.16
0.16
0.17
0.16
0.165
0.15
0.155
0.175
0.165
0.165
0.165
0.165
0.16
0.17
0.165
0.16
0.165
0.16
0.16
0.17
0.175
0.165
0.17
0.155
0.145
0.145
0.15
0.14
0.14
0.15
0.155
0.17
0.15
0.14
0.15
0.155
0.15
0.16
0.175
0.17
0.16
0.15
0.16
0.16
0.16
0.16
0.175
0.19
0.175
0.175
0.185
0.185
0.18
0.185
0.19
0.175
0.175
0.17
0.19
0.2
0.185
0.2
0.2
0.215
0.225
0.24
0.235
0.22
0.21
0.22
0.22
0.22
0.215
0.23
0.205
0.19
0.17
0.175
0.165
0.16
0.165
0.155
0.155
0.155
0.15
0.15
0.135
0.145
0.13
0.135
0.14
0.125
0.115
0.12
0.135
0.14
0.125
0.125
0.135
0.135
0.125
0.125
0.115
0.12
0.125
0.115
0.115
0.12
0.125
0.115
0.105
0.11
0.105
0.11
0.095
0.105
0.085
0.075
0.045
0.0
-0.035
-0.07
-0.11
-0.12
-0.115
-0.08
-0.035
0.065
0.21
0.36
0.5
0.665
0.81
0.95
1.095
1.23
1.205
1.145
1.07
1.02
0.905
0.83
0.715
0.555
0.44
0.37
0.335
0.3
0.255
0.23
0.195
0.165
0.125
0.115
0.1
0.095
0.09
0.08
0.07
0.07
0.07
0.07
0.06
0.055
0.055
0.05
0.06
0.055
0.06
0.05
0.035
0.04
0.025
0.04
0.04
0.035
0.035
0.04
0.06
0.045
0.045
0.05
0.035
0.035
0.03
0.04
0.03
0.035
0.035
0.025
0.05
0.04
0.045
0.045
0.045
0.035
0.04
0.045
0.045
0.03
0.05
0.04
0.035
0.035
0.045
0.06
0.07
0.075
0.06
0.065
0.065
0.055
0.045
0.04
0.05
0.07
0.075
0.08
0.065
0.065
0.075
0.075
0.08
0.08
0.085
0.085
0.085
0.085
0.105
0.105
0.115
0.115
0.12
0.14
0.135
0.145
0.14
0.145
0.155
0.165
0.165
0.175
0.18
0.18
0.19
0.195
0.205
0.205
0.21
0.215
0.205
0.22
0.225
0.235
0.23
0.225
0.23
0.24
0.24
0.24
0.24
0.24
0.23
0.225
0.225
0.22
0.225
0.225
0.205
0.2
0.2
0.195
0.185
0.17
0.165
0.16
0.15
0.15
0.135
0.13
0.125
0.12
0.115
0.115
0.105
0.1
0.11
0.105
0.1
0.08
0.08
0.09
0.08
0.08
0.085
0.09
0.095
0.07
0.075
0.08
0.085
0.07
0.06
0.06
0.07
0.085
0.09
0.09
0.08
0.085
0.095
0.085
0.085
0.07
0.065
0.09
0.08
0.08
0.08
0.075
0.075
0.07
0.065
0.06
0.075
0.075
0.07
0.07
0.085
0.085
0.075
0.08
0.075
0.075
0.075
0.075
0.08
0.075
0.075
0.085
0.075
0.07
0.065
0.07
0.07
0.08
0.09
0.08
0.085
0.095
0.09
0.08
0.07
0.075
0.085
0.08
0.09
0.095
0.095
0.095
0.085
0.08
0.09
0.09
0.09
0.09
0.08
0.085
0.08
0.08
0.08
0.08
0.08
0.08
0.095
0.1
0.095
0.105
0.095
0.1
0.085
0.08
0.08
0.1
0.09
0.09
0.1
0.1
0.09
0.085
0.09
0.08
0.075
0.08
0.075
0.1
0.09
0.09
0.085
0.09
0.09
0.09
0.08
0.08
0.08
0.08
0.09
0.085
0.09
0.095
0.1
0.09
0.1
0.105
0.095
0.095
0.095
0.095
0.105
0.105
0.1
0.1
0.11
0.11
0.11
0.12
0.125
0.12
0.12
0.12
0.12
0.135
0.145
0.15
0.145
0.16
0.16
0.165
0.155
0.16
0.17
0.17
0.16
0.16
0.15
0.145
0.145
0.14
0.12
0.11
0.1
0.095
0.09
0.085
0.085
0.085
0.09
0.095
0.095
0.09
0.1
0.095
0.095
0.095
0.085
0.08
0.09
0.08
0.085
0.085
0.09
0.09
0.085
0.095
0.1
0.085
0.08
0.07
0.075
0.08
0.085
0.075
0.085
0.095
0.085
0.085
0.085
0.075
0.06
0.02
-0.015
-0.05
-0.08
-0.12
-0.135
-0.125
-0.12
-0.07
0.03
0.165
0.305
0.49
0.685
0.85
0.995
1.14
1.235
1.305
1.255
1.175
1.115
1.015
0.925
0.83
0.695
0.565
0.475
0.425
0.365
0.325
0.285
0.25
0.22
0.185
0.165
0.14
0.155
0.145
0.13
0.13
0.115
0.115
0.105
0.1
0.1
0.1
0.1
0.11
0.115
0.085
0.08
0.075
0.085
0.08
0.095
0.095
0.095
0.085
0.095
0.095
0.09
0.08
0.08
0.085
0.095
0.09
0.09
0.1
0.115
0.1
0.1
0.095
0.095
0.1
0.09
0.09
0.095
0.095
0.105
0.11
0.11
0.11
0.105
0.11
0.11
0.11
0.105
0.11
0.105
0.095
0.1
0.115
0.12
0.125
0.12
0.13
0.11
0.115
0.12
0.12
0.12
0.13
0.14
0.135
0.135
0.145
0.15
0.145
0.145
0.16
0.16
0.17
0.17
0.175
0.18
0.185
0.185
0.2
0.2
0.215
0.22
0.22
0.24
0.24
0.235
0.245
0.24
0.25
0.245
0.26
0.25
0.265
0.27
0.275
0.29
0.29
0.295
0.285
0.285
0.28
0.275
0.28
0.29
0.305
0.295
0.285
0.285
0.285
0.275
0.265
0.26
0.255
0.245
0.24
0.23
0.23
0.21
0.215
0.2
0.185
0.195
0.19
0.18
0.175
0.155
0.16
0.17
0.145
0.14
0.14
0.13
0.145
0.14
0.13
0.14
0.135
0.125
0.135
0.12
0.125
0.13
0.135
0.13
0.135
0.135
0.14
0.13
0.13
0.12
0.125
0.12
0.125
0.125
0.145
0.145
0.13
0.12
0.135
0.135
0.145
0.14
0.135
0.135
0.14
0.13
0.135
0.13
0.135
0.13
0.13
0.13
0.125
0.125
0.135
0.145
0.14
0.135
0.14
0.13
0.125
0.125
0.13
0.14
0.14
0.125
0.13
0.12
0.11
0.115
0.125
0.12
0.13
0.13
0.125
0.125
0.125
0.14
0.125
0.135
0.125
0.125
0.12
0.14
0.15
0.135
0.13
0.14
0.14
0.125
0.145
0.14
0.135
0.14
0.135
0.14
0.135
0.14
0.135
0.145
0.135
0.13
0.13
0.14
0.125
0.135
0.135
0.13
0.135
0.13
0.14
0.13
0.135
0.135
0.135
0.115
0.125
0.135
0.145
0.16
0.145
0.15
0.16
0.155
0.145
0.14
0.13
0.14
0.145
0.135
0.13
0.13
0.13
0.14
0.14
0.135
0.135
0.14
0.13
0.135
0.125
0.14
0.16
0.165
0.155
0.15
0.155
0.15
0.155
0.155
0.16
0.16
0.155
0.175
0.195
0.195
0.185
0.2
0.195
0.19
0.205
0.205
0.22
0.23
0.235
0.25
0.25
0.26
0.26
0.265
0.26
0.255
0.26
0.26
0.27
0.25
0.245
0.23
0.22
0.21
0.215
0.205
0.215
0.23
0.22
0.21
0.225
0.22
0.215
0.21
0.215
0.22
0.225
0.22
0.225
0.24
0.23
0.23
0.23
0.23
0.225
0.22
0.22
0.22
0.225
0.235
0.235
0.23
0.235
0.245
0.245
0.255
0.255
0.25
0.25
0.25
0.245
0.235
0.205
0.185
0.15
0.12
0.1
0.05
0.035
0.05
0.07
0.135
0.225
0.385
0.55
0.745
0.935
1.09
1.25
1.385
1.485
1.52
1.455
1.38
1.3
1.205
1.125
1.02
0.87
0.74
0.67
0.625
0.565
0.515
0.465
0.425
0.4
0.365
0.36
0.35
0.35
0.345
0.335
0.315
0.315
0.305
0.295
0.305
0.315
0.295
0.31
0.305
0.29
0.29
0.29
0.295
0.29
0.305
0.3
0.31
0.315
0.305
0.295
0.295
0.29
0.295
0.3
0.315
0.325
0.325
0.31
0.31
0.295
0.31
0.315
0.325
0.325
0.32
0.32
0.315
0.32
0.32
0.315
0.32
0.32
0.33
0.33
0.34
0.335
0.34
0.34
0.335
0.34
0.335
0.345
0.345
0.355
0.36
0.36
0.36
0.36
0.36
0.355
0.37
0.37
0.37
0.375
0.4
0.395
0.395
0.395
0.405
0.395
0.4
0.405
0.41
0.415
0.415
0.42
0.43
0.44
0.45
0.46
0.46
0.47
0.48
0.485
0.495
0.5
0.5
0.51
0.525
0.53
0.535
0.53
0.545
0.555
0.565
0.565
0.565
0.58
0.56
0.56
0.56
0.565
0.55
0.57
0.575
0.57
0.565
0.565
0.565
0.56
0.545
0.54
0.54
0.54
0.54
0.53
0.525
0.515
0.505
0.495
0.48
0.475
0.475
0.475
0.475
0.47
0.46
0.445
0.43
0.435
0.435
0.445
0.45
0.435
0.445
0.43
0.435
0.435
0.43
0.415
0.415
0.415
0.415
0.43
0.455
0.45
0.44
0.44
0.455
0.455
0.455
0.445
0.45
0.45
0.43
0.435
0.425
0.44
0.43
0.435
0.435
0.435
0.445
0.44
0.46
0.445
0.45
0.445
0.46
0.445
0.44
0.46
0.46
0.45
0.455
0.445
0.45
0.45
0.455
0.445
0.445
0.435
0.435
0.435
0.435
0.445
0.445
0.44
0.445
0.455
0.455
0.465
0.47
0.47
0.485
0.475
0.47
0.465
0.455
0.46
0.455
0.46
0.475
0.475
0.475
0.465
0.475
0.465
0.48
0.48
0.475
0.48
0.485
0.48
0.475
0.485
0.495
0.48
0.48
0.48
0.48
0.485
0.48
0.485
0.48
0.48
0.485
0.48
0.48
0.47
0.465
0.475
0.485
0.495
0.49
0.49
0.495
0.505
0.5
0.49
0.48
0.48
0.49
0.48
0.48
0.485
0.49
0.48
0.475
0.475
0.47
0.495
0.495
0.48
0.475
0.47
0.47
0.475
0.49
0.49
0.49
0.505
0.495
0.48
0.485
0.495
0.49
0.485
0.485
0.475
0.475
0.48
0.485
0.485
0.49
0.5
0.505
0.49
0.505
0.505
0.5
0.5
0.5
0.515
0.515
0.515
0.525
0.52
0.525
0.52
0.52
0.515
0.54
0.555
0.55
0.555
0.56
0.57
0.57
0.565
0.555
0.555
0.56
0.56
0.575
0.575
0.57
0.555
0.55
0.53
0.515
0.51
0.51
0.5
0.505
0.505
0.515
0.51
0.51
0.5
0.51
0.505
0.51
0.515
0.515
0.51
0.505
0.5
0.49
0.495
0.49
0.5
0.505
0.495
0.485
0.48
0.475
0.47
0.475
0.48
0.48
0.49
0.49
0.485
0.475
0.485
0.48
0.48
0.465
0.46
0.435
0.395
0.385
0.35
0.315
0.27
0.26
0.28
0.315
0.37
0.5
0.67
0.84
1.025
1.195
1.345
1.49
1.62
1.71
1.72
1.66
1.595
1.49
1.375
1.295
1.17
1.02
0.92
0.86
0.815
0.755
0.695
0.655
0.61
0.595
0.565
0.55
0.545
0.56
0.56
0.54
0.53
0.52
0.52
0.505
0.505
0.495
0.495
0.485
0.47
0.475
0.485
0.49
0.485
0.485
0.49
0.495
0.49
0.485
0.485
0.475
0.485
0.48
0.48
0.485
0.49
0.485
0.47
0.475
0.475
0.48
0.49
0.505
0.49
0.495
0.495
0.495
0.505
0.49
0.495
0.49
0.495
0.48
0.49
0.485
0.48
0.49
0.49
0.495
0.49
0.49
0.5
0.505
0.515
0.505
0.52
0.515
0.51
0.51
0.51
0.5
0.52
0.51
0.53
0.52
0.51
0.52
0.515
0.54
0.535
0.535
0.54
0.575
0.565
0.57
0.555
0.575
0.58
0.58
0.585
0.6
0.61
0.615
0.62
0.625
0.64
0.63
0.625
0.63
0.65
0.65
0.66
0.655
0.67
0.665
0.66
0.665
0.67
0.68
0.685
0.685
0.69
0.67
0.675
0.68
0.67
0.665
0.65
0.645
0.65
0.64
0.635
0.63
0.63
0.625
0.625
0.605
0.585
0.575
0.58
0.58
0.565
0.575
0.555
0.555
0.53
0.52
0.515
0.495
0.5
0.505
0.5
0.5
0.495
0.495
0.48
0.48
0.48
0.48
0.485
0.47
0.485
0.48
0.485
0.475
0.48
0.475
0.465
0.475
0.485
0.49
0.485
0.48
0.475
0.485
0.485
0.48
0.5
0.48
0.485
0.485
0.465
0.485
0.48
0.48
0.485
0.47
0.47
0.465
0.465
0.47
0.465
0.465
0.455
0.465
0.47
0.465
0.465
0.47
0.49
0.485
0.475
0.475
0.47
0.48
0.475
0.465
0.465
0.465
0.455
0.45
0.455
0.46
0.48
0.46
0.47
0.48
0.47
0.475
0.48
0.47
0.47
0.465
0.465
0.475
0.465
0.46
0.465
0.455
0.46
0.465
0.47
0.455
0.46
0.455
0.46
0.455
0.47
0.465
0.47
0.47
0.465
0.46
0.465
0.47
0.47
0.47
0.475
0.475
0.46
0.47
0.46
0.465
0.48
0.465
0.47
0.46
0.465
0.465
0.46
0.465
0.465
0.465
0.46
0.46
0.465
0.46
0.455
0.45
0.455
0.455
0.455
0.445
0.455
0.46
0.45
0.44
0.44
0.445
0.455
0.455
0.445
0.445
0.455
0.435
0.44
0.435
0.445
0.44
0.455
0.445
0.45
0.45
0.445
0.455
0.44
0.45
0.435
0.425
0.43
0.445
0.45
0.455
0.445
0.455
0.445
0.45
0.47
0.46
0.46
0.44
0.445
0.455
0.48
0.5
0.485
0.495
0.49
0.505
0.505
0.505
0.485
0.465
0.48
0.485
0.46
0.47
0.45
0.455
0.435
0.42
0.43
0.41
0.405
0.405
0.405
0.385
0.375
0.38
0.38
0.39
0.4
0.395
0.375
0.36
0.36
0.36
0.37
0.375
0.36
0.36
0.36
0.355
0.355
0.345
0.35
0.35
0.36
0.35
0.355
0.345
0.355
0.34
0.34
0.345
0.335
0.345
0.325
0.315
0.305
0.285
0.25
0.22
0.18
0.13
0.1
0.085
0.11
0.165
0.245
0.365
0.525
0.665
0.825
1.015
1.165
1.315
1.445
1.535
1.505
1.415
1.33
1.245
1.14
1.05
0.885
0.77
0.665
0.605
0.56
0.525
0.48
0.465
0.425
0.395
0.375
0.375
0.37
0.355
0.38
0.345
0.325
0.325
0.32
0.305
0.31
0.305
0.305
0.305
0.29
0.29
0.285
0.285
0.285
0.285
0.28
0.265
0.275
0.285
0.275
0.285
0.28
0.275
0.28
0.28
0.275
0.27
0.28
0.275
0.265
0.265
0.28
0.265
0.28
0.265
0.285
0.265
0.275
0.28
0.265
0.26
0.255
0.255
0.265
0.255
0.25
0.235
0.25
0.255
0.27
0.275
0.27
0.255
0.25
0.25
0.245
0.24
0.235
0.265
0.24
0.25
0.25
0.27
0.235
0.25
0.265
0.27
0.255
0.265
0.27
0.265
0.28
0.265
0.285
0.285
0.275
0.295
0.28
0.285
0.29
0.3
0.31
0.325
0.305
0.325
0.33
0.335
0.325
0.33
0.365
0.375
0.355
0.355
0.345
0.35
0.36
0.36
0.355
0.365
0.38
0.375
0.365
0.38
0.37
0.375
0.365
0.35
0.35
0.34
0.33
0.33
0.31
0.295
0.285
0.3
0.28
0.265
0.28
0.28
0.265
0.245
0.24
0.235
0.215
0.21
0.225
0.215
0.225
0.21
0.2
0.18
0.18
0.19
0.185
0.165
0.17
0.175
0.175
0.165
0.16
0.165
0.155
0.16
0.16
0.17
0.17
0.165
0.145
0.155
0.165
0.16
0.155
0.15
0.14
0.135
0.14
0.155
0.155
0.15
0.155
0.16
0.16
0.145
0.14
0.165
0.175
0.14
0.13
0.14
0.15
0.145
0.145
0.15
0.145
0.135
0.13
0.13
0.13
0.135
0.125
0.12
0.13
0.13
0.14
0.14
0.135
0.16
0.15
0.155
0.16
0.165
0.155
0.14
0.135
0.13
0.13
0.145
0.15
0.145
0.145
0.135
0.135
0.125
0.135
0.125
0.135
0.13
0.15
0.145
0.14
0.135
0.13
0.13
0.125
0.12
0.115
0.125
0.12
0.13
0.115
0.11
0.125
0.135
0.12
0.115
0.11
0.11
0.095
0.105
0.115
0.11
0.11
0.11
0.105
0.1
0.095
0.1
0.11
0.1
0.095
0.1
0.11
0.115
0.115
0.105
0.115
0.12
0.135
0.125
0.105
0.09
0.105
0.12
0.115
0.095
0.08
0.1
0.115
0.115
0.095
0.09
0.085
0.09
0.09
0.095
0.08
0.09
0.1
0.1
0.1
0.09
0.09
0.065
0.07
0.075
0.09
0.1
0.1
0.115
0.105
0.105
0.09
0.095
0.1
0.09
0.095
0.1
0.115
0.125
0.13
0.125
0.125
0.135
0.135
0.12
0.115
0.12
0.145
0.13
0.13
0.12
0.11
0.11
0.085
0.07
0.075
0.09
0.085
0.05
0.05
0.045
0.04
0.045
0.04
0.05
0.045
0.03
0.035
0.04
0.035
0.025
0.04
0.03
0.045
0.035
0.025
0.025
0.03
0.015
0.015
0.025
0.025
0.01
0.01
0.02
0.025
0.025
0.025
0.03
0.02
0.015
0.01
0.01
0.01
-0.015
-0.03
-0.06
-0.08
-0.12
-0.165
-0.19
-0.22
-0.205
-0.19
-0.13
-0.03
0.135
0.29
0.455
0.61
0.765
0.915
1.05
1.155
1.155
1.075
1.01
0.95
0.86
0.785
0.665
0.5
0.395
0.325
0.29
0.255
0.22
0.165
0.15
0.125
0.095
0.07
0.075
0.055
0.05
0.035
0.025
0.02
0.025
0.02
0.01
0.01
0.015
0.0
-0.005
-0.01
0.01
0.01
0.005
0.005
0.01
0.01
0.015
0.005
0.005
-0.005
0.01
0.005
0.005
0.005
0.005
0.005
0.005
0.01
-0.005
-0.005
0.0
0.01
0.01
0.005
0.01
0.02
0.02
0.005
0.0
0.005
0.015
0.005
0.01
0.02
0.02
0.02
0.01
0.025
0.025
0.04
0.03
0.02
0.02
0.02
0.015
0.015
0.015
0.02
0.025
0.025
0.04
0.04
0.05
0.035
0.04
0.05
0.055
0.065
0.065
0.065
0.06
0.055
0.065
0.075
0.085
0.095
0.1
0.105
0.115
0.125
0.115
0.135
0.135
0.13
0.135
0.15
0.155
0.145
0.16
0.17
0.16
0.165
0.19
0.185
0.195
0.19
0.205
0.21
0.205
0.195
0.215
0.2
0.2
0.22
0.215
0.21
0.195
0.175
0.165
0.175
0.175
0.155
0.145
0.14
0.135
0.135
0.125
0.12
0.12
0.105
0.09
0.07
0.075
0.065
0.055
0.055
0.05
0.05
0.04
0.045
0.04
0.035
0.03
0.025
0.025
0.03
0.02
0.015
0.02
0.015
0.025
0.02
0.035
0.015
0.02
0.01
0.0
0.0
0.005
0.01
0.01
0.01
0.01
0.0
0.0
0.005
0.005
0.005
0.025
0.025
0.02
0.01
0.015
0.02
0.01
0.02
0.01
0.01
0.005
0.015
0.015
0.02
0.01
0.0
0.01
0.0
0.01
0.01
0.015
0.02
0.02
0.015
0.015
0.01
0.01
0.015
0.015
0.02
0.01
0.015
0.015
0.015
0.025
0.015
0.02
0.01
0.005
0.005
0.01
0.02
0.015
0.005
0.015
0.015
0.015
0.015
0.015
0.015
0.01
0.005
0.0
0.005
0.005
0.03
0.025
0.015
0.02
0.015
0.02
0.02
0.02
0.015
0.005
-0.01
0.0
-0.005
0.02
0.005
0.005
0.01
0.01
0.0
0.01
0.005
0.01
0.02
0.005
0.0
-0.005
0.0
0.005
0.005
0.005
0.0
0.005
0.0
-0.015
-0.01
0.005
0.0
0.0
-0.005
-0.005
0.005
-0.005
0.0
0.0
-0.005
0.01
0.0
-0.005
0.005
0.005
0.0
0.005
0.005
0.005
0.01
0.02
0.02
0.01
0.005
0.01
0.015
0.01
0.015
0.02
0.015
0.015
0.02
0.045
0.05
0.05
0.06
0.065
0.075
0.075
0.085
0.065
0.06
0.065
0.055
0.06
0.065
0.065
0.06
0.055
0.055
0.025
0.015
0.01
0.005
0.005
0.01
0.005
0.005
0.0
0.005
0.005
-0.005
-0.01
-0.025
-0.005
-0.01
-0.01
-0.005
-0.01
-0.025
-0.025
-0.03
-0.04
-0.035
-0.03
-0.045
-0.04
-0.035
-0.025
-0.03
-0.025
-0.025
-0.03
-0.03
-0.02
-0.01
-0.02
-0.015
-0.025
-0.045
-0.06
-0.09
-0.12
-0.155
-0.19
-0.225
-0.25
-0.24
-0.215
-0.17
-0.065
0.09
0.255
0.445
0.615
0.78
0.93
1.08
1.18
1.2
1.14
1.06
0.985
0.88
0.815
0.69
0.535
0.42
0.345
0.295
0.255
0.2
0.165
0.13
0.09
0.07
0.05
0.035
0.035
0.03
0.02
0.01
-0.005
-0.005
0.0
-0.01
-0.025
-0.025
-0.02
-0.02
-0.01
-0.02
-0.02
-0.025
-0.025
-0.025
-0.025
-0.02
-0.01
-0.02
-0.02
-0.025
-0.025
-0.015
0.0
-0.01
-0.02
-0.025
-0.02
-0.01
-0.01
-0.01
-0.02
-0.025
-0.02
-0.01
-0.005
-0.015
-0.015
-0.025
-0.02
-0.025
-0.035
-0.01
0.0
-0.005
-0.01
-0.025
-0.005
0.005
-0.01
-0.015
-0.02
-0.005
-0.005
-0.01
-0.01
-0.005
0.015
0.01
0.01
0.015
0.015
0.015
0.02
0.02
0.025
0.035
0.045
0.04
0.035
0.04
0.035
0.04
0.045
0.05
0.07
0.07
0.06
0.08
0.09
0.1
0.105
0.11
0.125
0.135
0.13
0.13
0.145
0.155
0.15
0.165
0.17
0.175
0.175
0.18
0.185
0.19
0.18
0.19
0.195
0.19
0.18
0.185
0.185
0.19
0.185
0.185
0.175
0.165
0.165
0.155
0.145
0.145
0.145
0.14
0.125
0.115
0.11
0.1
0.08
0.075
0.065
0.07
0.065
0.05
0.045
0.04
0.045
0.05
0.03
0.02
0.025
0.02
0.015
0.015
0.01
0.01
0.005
0.01
0.015
0.015
0.005
0.0
0.0
0.005
0.01
0.0
0.005
-0.01
-0.01
-0.01
-0.01
0.005
0.015
0.015
0.015
0.02
0.03
0.01
0.0
0.01
0.0
0.005
0.0
0.01
0.0
-0.01
-0.005
0.005
0.0
0.005
0.0
0.0
0.0
-0.005
0.005
0.0
0.0
0.0
-0.005
-0.01
-0.01
0.0
-0.01
-0.005
-0.005
0.005
0.0
-0.005
0.0
-0.005
-0.005
-0.025
-0.04
-0.025
-0.015
-0.005
-0.005
0.0
0.005
0.0
0.0
0.005
0.0
0.005
0.005
0.0
-0.01
0.0
0.015
-0.005
-0.005
0.005
0.005
0.01
0.005
0.0
-0.005
-0.005
0.0
0.005
0.005
0.0
0.01
0.005
-0.01
-0.005
0.005
-0.005
-0.01
-0.005
0.0
-0.015
-0.01
0.0
0.01
0.005
0.0
0.005
-0.01
-0.01
-0.005
0.005
0.005
0.0
0.0
0.0
-0.01
-0.005
-0.02
-0.02
-0.03
-0.02
-0.02
-0.015
-0.01
-0.015
-0.01
-0.005
0.0
-0.005
-0.01
-0.01
-0.015
-0.01
-0.015
-0.005
-0.01
-0.01
-0.005
-0.015
-0.005
0.0
-0.005
-0.005
-0.005
0.015
0.005
0.005
-0.005
0.005
0.0
0.005
0.01
0.01
0.015
0.01
0.02
0.025
0.02
0.015
0.02
0.035
0.055
0.06
0.045
0.05
0.06
0.065
0.075
0.075
0.065
0.06
0.07
0.075
0.07
0.065
0.05
0.04
0.025
0.015
0.01
0.0
0.0
-0.005
-0.005
-0.025
-0.015
-0.015
0.0
-0.005
0.005
0.005
-0.005
-0.015
-0.005
-0.01
-0.015
-0.015
-0.02
-0.03
-0.04
-0.035
-0.035
-0.04
-0.035
-0.025
-0.03
-0.03
-0.04
-0.035
-0.03
-0.005
-0.015
-0.02
-0.025
-0.025
-0.03
-0.03
-0.04
-0.06
-0.075
-0.11
-0.15
-0.185
-0.225
-0.275
-0.27
-0.25
-0.2
-0.12
0.025
0.19
0.335
0.545
0.735
0.875
1.04
1.16
1.23
1.2
1.105
1.04
0.925
0.83
0.73
0.585
0.46
0.375
0.32
0.27
0.225
0.18
0.13
0.095
0.075
0.05
0.045
0.03
0.02
0.015
0.01
0.0
-0.01
-0.005
-0.025
-0.025
-0.025
-0.025
-0.03
-0.03
-0.035
-0.03
-0.04
-0.04
-0.035
-0.035
-0.03
-0.035
-0.04
-0.03
-0.03
-0.015
-0.025
-0.03
-0.04
-0.035
-0.04
-0.05
-0.025
-0.025
-0.03
-0.025
-0.025
-0.02
-0.025
-0.025
-0.02
-0.03
-0.04
-0.03
-0.03
-0.025
-0.01
0.0
-0.01
-0.015
-0.015
-0.015
-0.025
-0.02
-0.02
-0.01
-0.01
-0.015
-0.01
-0.01
-0.01
-0.005
0.0
0.01
0.015
0.005
0.01
0.015
0.02
0.02
0.025
0.02
0.03
0.025
0.035
0.045
0.05
0.055
0.06
0.055
0.065
0.065
0.07
0.075
0.085
0.1
0.105
0.115
0.115
0.115
0.12
0.13
0.13
0.135
0.14
0.15
0.15
0.16
0.165
0.16
0.165
0.165
0.165
0.18
0.175
0.18
0.175
0.175
0.175
0.17
0.17
0.17
0.175
0.17
0.15
0.145
0.14
0.13
0.125
0.115
0.1
0.1
0.08
0.075
0.075
0.07
0.065
0.06
0.04
0.03
0.015
0.025
0.025
0.03
0.025
0.01
-0.005
-0.005
-0.005
-0.005
-0.01
-0.01
-0.015
-0.01
-0.02
-0.01
-0.01
-0.015
-0.015
-0.015
-0.015
-0.02
-0.02
-0.025
-0.02
-0.01
-0.015
-0.005
-0.005
-0.015
-0.02
-0.025
-0.03
-0.01
-0.025
-0.02
-0.01
-0.01
-0.025
-0.025
-0.03
-0.03
-0.035
-0.025
-0.025
-0.035
-0.03
-0.03
-0.03
-0.04
-0.025
-0.025
-0.04
-0.03
-0.035
-0.035
-0.035
-0.025
-0.03
-0.035
-0.04
-0.04
-0.03
-0.025
-0.02
-0.035
-0.025
-0.03
-0.025
-0.02
-0.03
-0.02
-0.02
-0.02
-0.02
-0.03
-0.035
-0.03
-0.03
-0.04
-0.035
-0.035
-0.035
-0.025
-0.025
-0.03
-0.025
-0.025
-0.035
-0.045
-0.04
-0.045
-0.05
-0.045
-0.03
-0.025
-0.015
-0.015
-0.02
-0.025
-0.015
-0.03
-0.03
-0.02
-0.035
-0.035
-0.035
-0.035
-0.06
-0.055
-0.045
-0.04
-0.035
-0.04
-0.04
-0.01
-0.04
-0.04
-0.055
-0.055
-0.055
-0.055
-0.05
-0.04
-0.035
-0.05
-0.055
-0.05
-0.05
-0.06
-0.055
-0.04
-0.04
-0.045
-0.05
-0.045
-0.05
-0.05
-0.05
-0.055
-0.06
-0.055
-0.055
-0.05
-0.045
-0.045
-0.05
-0.05
-0.05
-0.045
-0.055
-0.04
-0.045
-0.055
-0.045
-0.05
-0.05
-0.05
-0.055
-0.05
-0.05
-0.04
-0.045
-0.02
-0.015
-0.04
-0.04
-0.02
-0.01
-0.005
0.005
0.025
0.04
0.05
0.045
0.03
0.035
0.02
0.025
0.025
0.03
0.005
-0.005
0.0
-0.01
-0.01
-0.04
-0.035
-0.035
-0.04
-0.035
-0.045
-0.04
-0.045
-0.045
-0.065
-0.055
-0.05
-0.055
-0.07
-0.075
-0.06
-0.06
-0.055
-0.065
-0.07
-0.085
-0.075
-0.06
-0.06
-0.065
-0.08
-0.08
-0.085
-0.085
-0.085
-0.085
-0.08
-0.085
-0.07
-0.075
-0.065
-0.075
-0.085
-0.08
-0.08
-0.095
-0.13
-0.15
-0.195
-0.245
-0.27
-0.305
-0.295
-0.275
-0.23
-0.12
0.05
0.215
0.375
0.55
0.725
0.895
1.05
1.165
1.18
1.115
1.045
0.955
0.835
0.765
0.645
0.475
0.37
0.295
0.24
0.195
0.145
0.12
0.065
0.045
0.03
0.0
0.0
-0.02
-0.04
-0.04
-0.03
-0.04
-0.04
-0.065
-0.075
-0.075
-0.065
-0.06
-0.055
-0.08
-0.075
-0.085
-0.06
-0.07
-0.065
-0.065
-0.08
-0.085
-0.08
-0.085
-0.08
-0.075
-0.065
-0.075
-0.075
-0.075
-0.07
-0.075
-0.08
-0.075
-0.07
-0.07
-0.07
-0.07
-0.06
-0.06
-0.06
-0.065
-0.06
-0.065
-0.05
-0.07
-0.065
-0.055
-0.045
-0.03
-0.04
-0.055
-0.05
-0.04
-0.05
-0.045
-0.05
-0.045
-0.04
-0.035
-0.035
-0.035
-0.03
-0.04
-0.04
-0.03
-0.035
-0.01
-0.005
-0.01
-0.01
-0.01
0.0
0.005
0.0
0.005
0.01
0.02
0.025
0.035
0.035
0.045
0.07
0.065
0.06
0.075
0.085
0.09
0.095
0.095
0.105
0.11
0.115
0.12
0.115
0.12
0.12
0.155
0.155
0.16
0.185
0.175
0.19
0.155
0.145
0.145
0.145
0.15
0.16
0.155
0.17
0.15
0.145
0.13
0.14
0.13
0.125
0.115
0.115
0.1
0.09
0.09
0.075
0.065
0.055
0.045
0.035
0.02
0.03
0.015
0.01
0.015
0.005
0.0
0.015
0.015
0.01
-0.015
-0.01
-0.01
-0.005
-0.01
-0.01
-0.02
-0.02
-0.015
-0.025
-0.01
-0.015
0.005
-0.015
-0.015
-0.03
-0.045
-0.035
-0.015
-0.015
-0.01
0.01
-0.005
-0.02
-0.01
-0.01
-0.025
-0.02
-0.015
-0.015
-0.015
-0.005
-0.005
-0.015
-0.005
0.0
-0.02
0.01
-0.01
-0.005
-0.005
-0.015
0.0
0.0
-0.005
-0.02
-0.01
-0.015
-0.005
-0.02
-0.01
-0.01
0.0
0.005
0.005
0.0
0.015
0.005
0.0
-0.025
-0.005
0.005
0.02
0.025
0.01
0.005
0.01
0.0
0.0
0.005
0.01
0.04
0.01
0.015
0.005
0.0
-0.005
0.02
0.015
0.035
0.025
0.01
0.02
0.01
0.02
0.02
0.015
0.005
0.01
0.03
0.02
0.03
0.025
0.02
0.025
0.02
0.015
0.015
0.015
0.03
0.04
0.025
0.025
0.03
0.03
0.02
0.015
0.005
0.01
0.015
0.02
0.015
0.02
0.035
0.035
0.025
0.025
0.025
0.03
0.03
0.045
0.035
0.025
0.035
0.03
0.035
0.02
0.025
0.025
0.02
0.025
0.03
0.03
0.03
0.02
0.025
0.02
0.035
0.025
0.02
0.04
0.04
0.03
0.035
0.05
0.02
0.025
0.02
0.03
0.03
0.025
0.045
0.055
0.055
0.065
0.065
0.075
0.065
0.06
0.07
0.095
0.09
0.1
0.1
0.1
0.11
0.115
0.1
0.095
0.09
0.105
0.115
0.105
0.11
0.1
0.09
0.08
0.095
0.06
0.045
0.04
0.03
0.06
0.065
0.055
0.045
0.05
0.04
0.045
0.04
0.04
0.055
0.035
0.05
0.04
0.035
0.02
0.04
0.045
0.055
0.03
0.03
0.035
0.04
0.03
0.025
0.015
0.025
0.04
0.03
0.015
0.015
0.03
0.045
0.03
0.025
0.02
0.005
-0.03
-0.05
-0.105
-0.11
-0.16
-0.18
-0.22
-0.19
-0.115
-0.045
0.095
0.24
0.4
0.58
0.74
0.875
1.065
1.18
1.23
1.185
1.125
1.075
0.975
0.915
0.815
0.64
0.49
0.4
0.345
0.325
0.28
0.235
0.215
0.185
0.155
0.125
0.09
0.09
0.075
0.095
0.095
0.075
0.075
0.07
0.065
0.065
0.055
0.05
0.065
0.065
0.07
0.065
0.08
0.055
0.055
0.085
0.065
0.06
0.07
0.07
0.075
0.075
0.06
0.07
0.075
0.055
0.055
0.07
0.07
0.07
0.075
0.08
0.07
0.08
0.085
0.08
0.085
0.075
0.09
0.09
0.1
0.085
0.1
0.105
0.09
0.115
0.09
0.09
0.1
0.1
0.1
0.11
0.1
0.095
0.105
0.115
0.105
0.115
0.115
0.125
0.12
0.12
0.13
0.13
0.135
0.14
0.14
0.125
0.155
0.155
0.155
0.155
0.17
0.185
0.185
0.195
0.19
0.195
0.205
0.205
0.215
0.22
0.225
0.23
0.25
0.255
0.265
0.265
0.255
0.245
0.265
0.27
0.295
0.295
0.285
0.295
0.3
0.3
0.305
0.29
0.295
0.3
0.3
0.31
0.305
0.3
0.29
0.285
0.29
0.295
0.28
0.275
0.275
0.235
0.235
0.25
0.23
0.225
0.215
0.2
0.19
0.195
0.185
0.19
0.17
0.17
0.17
0.155
0.145
0.155
0.15
0.145
0.145
0.13
0.14
0.135
0.13
0.13
0.135
0.125
0.125
0.13
0.12
0.12
0.13
0.15
0.125
0.12
0.12
0.125
0.13
0.125
0.125
0.125
0.115
0.115
0.13
0.155
0.135
0.135
0.12
0.135
0.13
0.135
0.14
0.14
0.155
0.11
0.115
0.115
0.11
0.125
0.13
0.115
0.12
0.11
0.13
0.115
0.11
0.115
0.11
0.115
0.115
0.125
0.125
0.12
0.135
0.13
0.125
0.135
0.125
0.125
0.13
0.155
0.125
0.105
0.115
0.13
0.15
0.145
0.125
0.12
0.12
0.13
0.13
0.135
0.115
0.11
0.12
0.135
0.135
0.135
0.145
0.125
0.135
0.125
0.13
0.12
0.14
0.16
0.155
0.125
0.13
0.135
0.135
0.125
0.115
0.1
0.11
0.105
0.125
0.125
0.12
0.125
0.125
0.13
0.13
0.14
0.13
0.12
0.115
0.115
0.12
0.115
0.115
0.115
0.115
0.125
0.12
0.12
0.115
0.11
0.105
0.105
0.115
0.12
0.105
0.11
0.115
0.12
0.14
0.12
0.115
0.11
0.11
0.105
0.11
0.125
0.105
0.1
0.105
0.12
0.125
0.125
0.14
0.105
0.115
0.115
0.12
0.125
0.13
0.125
0.125
0.12
0.135
0.125
0.125
0.135
0.14
0.15
0.145
0.155
0.17
0.175
0.185
0.185
0.18
0.19
0.195
0.19
0.185
0.17
0.18
0.16
0.17
0.155
0.145
0.155
0.12
0.125
0.125
0.11
0.11
0.11
0.11
0.13
0.125
0.115
0.125
0.105
0.1
0.105
0.09
0.1
0.095
0.09
0.08
0.085
0.085
0.085
0.095
0.1
0.085
0.1
0.1
0.085
0.08
0.065
0.075
0.09
0.085
0.1
0.095
0.085
0.105
0.105
0.08
0.065
0.05
0.025
-0.02
-0.045
-0.08
-0.125
-0.15
-0.135
-0.115
-0.05
0.065
0.215
0.35
0.545
0.73
0.89
1.03
1.165
1.27
1.29
1.23
1.15
1.095
1.0
0.89
0.765
0.61
0.495
0.43
0.385
0.345
0.295
0.27
0.245
0.22
0.175
0.15
0.15
0.14
0.125
0.13
0.11
0.115
0.11
0.1
0.105
0.105
0.105
0.1
0.08
0.07
0.065
0.07
0.06
0.07
0.085
0.085
0.095
0.075
0.08
0.08
0.09
0.08
0.075
0.07
0.08
0.095
0.09
0.085
0.095
0.095
0.095
0.09
0.105
0.085
0.09
0.09
0.085
0.08
0.1
0.095
0.095
0.1
0.095
0.1
0.085
0.09
0.08
0.1
0.1
0.11
0.11
0.095
0.1
0.12
0.095
0.085
0.09
0.105
0.105
0.11
0.105
0.12
0.125
0.11
0.115
0.11
0.12
0.115
0.135
0.15
0.14
0.13
0.145
0.145
0.165
0.165
0.16
0.18
0.18
0.17
0.19
0.2
0.215
0.21
0.23
0.23
0.21
0.215
0.23
0.235
0.26
0.26
0.26
0.26
0.26
0.255
0.265
0.25
0.275
0.28
0.29
0.255
0.25
0.25
0.28
0.28
0.265
0.265
0.26
0.235
0.23
0.23
0.225
0.21
0.22
0.22
0.215
0.17
0.18
0.185
0.17
0.16
0.15
0.15
0.145
0.135
0.135
0.125
0.115
0.1
0.095
0.1
0.09
0.09
0.095
0.095
0.065
0.075
0.08
0.1
0.105
0.08
0.075
0.08
0.07
0.08
0.07
0.08
0.08
0.07
0.08
0.085
0.075
0.09
0.085
0.09
0.095
0.085
0.08
0.065
0.08
0.08
0.08
0.085
0.08
0.08
0.075
0.075
0.085
0.085
0.085
0.085
0.1
0.08
0.07
0.07
0.065
0.065
0.085
0.07
0.06
0.06
0.075
0.07
0.07
0.08
0.08
0.08
0.075
0.085
0.085
0.08
0.07
0.075
0.065
0.045
0.055
0.06
0.075
0.075
0.075
0.09
0.095
0.085
0.075
0.065
0.075
0.085
0.06
0.07
0.07
0.08
0.08
0.08
0.08
0.08
0.085
0.08
0.085
0.09
0.08
0.085
0.085
0.07
0.07
0.08
0.07
0.07
0.07
0.07
0.07
0.07
0.065
0.06
0.07
0.07
0.07
0.075
0.065
0.07
0.075
0.065
0.07
0.065
0.08
0.055
0.06
0.07
0.065
0.075
0.05
0.05
0.05
0.04
0.035
0.045
0.055
0.05
0.05
0.05
0.05
0.045
0.055
0.05
0.045
0.045
0.035
0.04
0.05
0.045
0.045
0.055
0.045
0.03
0.05
0.055
0.055
0.075
0.05
0.06
0.05
0.03
0.045
0.05
0.055
0.07
0.06
0.07
0.07
0.075
0.07
0.075
0.08
0.085
0.09
0.09
0.085
0.09
0.09
0.12
0.12
0.105
0.11
0.1
0.095
0.095
0.1
0.1
0.095
0.095
0.1
0.08
0.075
0.05
0.045
0.035
0.04
0.065
0.07
0.025
0.025
0.05
0.04
0.03
0.02
0.02
0.01
0.03
0.025
0.015
0.03
0.035
0.035
0.015
0.01
0.01
0.01
0.0
0.01
0.015
0.015
0.01
-0.005
-0.015
-0.01
0.0
0.01
0.02
0.02
0.02
0.01
-0.005
-0.02
-0.05
-0.08
-0.11
-0.15
-0.185
-0.24
-0.24
-0.235
-0.175
-0.105
0.02
0.185
0.355
0.56
0.735
0.885
1.045
1.165
1.255
1.235
1.165
1.1
0.99
0.89
0.81
0.675
0.535
0.43
0.345
0.305
0.255
0.21
0.16
0.125
0.115
0.085
0.065
0.06
0.065
0.065
0.03
0.025
0.02
0.02
0.02
0.025
0.005
0.01
0.005
-0.01
-0.01
-0.015
-0.015
0.005
0.015
-0.005
-0.02
-0.02
-0.01
0.01
0.01
0.005
0.01
0.025
-0.005
0.005
0.0
-0.005
-0.01
-0.01
-0.01
-0.015
0.0
0.01
0.02
0.005
0.02
0.01
0.0
0.02
-0.015
0.01
0.015
0.025
0.015
0.005
0.005
-0.005
-0.005
0.0
-0.01
-0.01
-0.015
0.01
0.015
0.01
0.01
0.005
0.025
0.005
0.015
0.015
0.045
0.03
0.025
0.025
0.035
0.045
0.05
0.07
0.065
0.06
0.08
0.07
0.085
0.075
0.08
0.085
0.09
0.095
0.095
0.1
0.115
0.13
0.13
0.135
0.13
0.13
0.15
0.15
0.15
0.155
0.175
0.175
0.18
0.185
0.19
0.19
0.19
0.19
0.19
0.185
0.195
0.19
0.19
0.19
0.19
0.19
0.185
0.18
0.17
0.16
0.16
0.145
0.135
0.145
0.115
0.105
0.125
0.085
0.08
0.075
0.07
0.07
0.065
0.055
0.045
0.055
0.045
0.025
0.02
0.02
0.015
0.0
0.01
0.005
0.015
0.015
0.0
-0.005
0.0
-0.02
0.0
0.0
-0.005
-0.005
-0.02
-0.02
-0.005
0.0
-0.005
-0.005
0.0
0.005
0.005
0.0
0.0
-0.005
0.0
-0.015
0.0
-0.01
-0.025
-0.01
0.01
0.005
-0.03
-0.015
-0.01
-0.005
-0.015
-0.01
-0.015
-0.02
-0.02
-0.025
-0.02
-0.04
-0.025
-0.01
-0.005
-0.015
-0.015
-0.025
-0.025
-0.02
0.005
-0.015
-0.02
-0.02
-0.01
-0.015
-0.02
-0.02
-0.02
-0.01
-0.02
-0.005
-0.005
-0.02
-0.02
-0.02
-0.025
-0.02
-0.02
-0.03
-0.03
-0.02
-0.02
-0.025
-0.03
-0.02
-0.025
-0.015
-0.025
-0.035
-0.02
-0.015
-0.01
-0.02
-0.04
-0.035
-0.025
-0.02
-0.025
-0.03
-0.035
-0.025
-0.025
-0.025
-0.025
-0.02
-0.025
-0.025
-0.035
-0.015
-0.02
-0.045
-0.045
-0.035
-0.04
-0.03
-0.025
-0.04
-0.035
-0.035
-0.055
-0.055
-0.045
-0.05
-0.04
-0.035
-0.035
-0.04
-0.035
-0.04
-0.035
-0.05
-0.06
-0.06
-0.06
-0.06
-0.045
-0.04
-0.05
-0.045
-0.03
-0.03
-0.06
-0.065
-0.05
-0.04
-0.04
-0.035
-0.06
-0.045
-0.035
-0.04
-0.035
-0.055
-0.055
-0.055
-0.055
-0.05
-0.045
-0.04
-0.04
-0.03
-0.02
-0.015
-0.025
-0.015
-0.015
-0.015
-0.015
-0.01
-0.01
-0.01
0.005
0.015
0.025
0.03
0.04
0.035
0.035
0.025
0.03
0.03
0.03
0.005
-0.01
0.015
0.01
-0.005
-0.025
-0.03
-0.04
-0.045
-0.04
-0.04
-0.045
-0.04
-0.045
-0.05
-0.055
-0.05
-0.05
-0.06
-0.05
-0.06
-0.065
-0.06
-0.055
-0.065
-0.075
-0.07
-0.065
-0.065
-0.07
-0.07
-0.08
-0.075
-0.08
-0.085
-0.08
-0.08
-0.08
-0.075
-0.08
-0.08
-0.07
-0.08
-0.095
-0.1
-0.1
-0.135
-0.18
-0.205
-0.24
-0.285
-0.32
-0.305
-0.275
-0.215
-0.11
0.055
0.22
0.395
0.595
0.76
0.9
1.05
1.165
1.19
1.125
1.05
0.97
0.875
0.795
0.65
0.505
0.39
0.305
0.265
0.21
0.15
0.11
0.085
0.05
0.02
0.005
-0.005
-0.02
-0.02
-0.02
-0.02
-0.025
-0.05
-0.05
-0.065
-0.065
-0.07
-0.07
-0.065
-0.065
-0.065
-0.07
-0.08
-0.085
-0.08
-0.065
-0.075
-0.07
-0.065
-0.075
-0.065
-0.075
-0.08
-0.075
-0.075
-0.07
-0.065
-0.07
-0.07
-0.06
-0.055
-0.04
-0.055
-0.08
-0.065
-0.065
-0.07
-0.07
-0.075
-0.065
-0.06
-0.06
-0.075
-0.075
-0.055
-0.05
-0.035
-0.03
-0.04
-0.045
-0.05
-0.055
-0.065
-0.06
-0.03
-0.02
-0.03
-0.03
-0.02
-0.025
-0.015
-0.015
-0.025
-0.03
-0.015
-0.02
-0.02
-0.01
-0.005
0.01
0.025
0.015
0.02
0.02
0.025
0.025
0.035
0.055
0.05
0.06
0.065
0.08
0.08
0.08
0.105
0.1
0.1
0.105
0.115
0.125
0.12
0.13
0.135
0.145
0.155
0.145
0.14
0.14
0.14
0.16
0.155
0.155
0.155
0.145
0.15
0.155
0.14
0.155
0.115
0.14
0.12
0.105
0.11
0.095
0.095
0.095
0.095
0.07
0.07
0.07
0.055
0.045
0.035
0.025
0.01
0.02
0.01
0.02
0.0
0.0
0.0
-0.005
-0.015
-0.01
-0.02
-0.015
-0.005
0.0
-0.01
-0.015
-0.03
-0.015
-0.015
-0.03
-0.025
-0.01
-0.025
-0.025
-0.02
-0.025
-0.015
-0.015
-0.025
-0.02
-0.035
-0.01
-0.04
-0.015
-0.01
-0.005
-0.02
-0.005
-0.015
-0.04
-0.04
-0.03
-0.03
-0.02
-0.02
-0.035
-0.045
-0.04
-0.03
-0.005
-0.035
-0.01
-0.02
-0.02
-0.025
-0.01
-0.02
-0.01
-0.02
-0.015
-0.005
0.005
0.005
0.0
-0.015
-0.02
-0.015
-0.025
-0.015
-0.02
-0.02
0.0
0.0
0.005
0.0
0.0
-0.02
-0.015
-0.005
-0.015
-0.02
-0.015
-0.01
0.005
0.0
0.015
0.005
0.005
0.005
-0.015
-0.015
-0.005
-0.015
-0.005
-0.02
-0.01
-0.01
-0.01
-0.005
-0.005
0.0
-0.005
-0.005
-0.01
-0.015
-0.005
0.0
0.0
0.005
-0.005
0.005
0.005
0.005
0.005
0.0
0.005
-0.005
0.0
0.01
0.0
0.015
-0.005
0.0
0.01
-0.01
0.005
-0.005
-0.005
-0.005
0.0
-0.01
-0.02
-0.015
0.005
-0.015
-0.015
-0.01
-0.005
-0.005
-0.005
0.0
-0.005
-0.01
0.0
-0.01
-0.005
0.0
-0.005
0.0
-0.01
0.0
0.01
0.01
0.005
-0.005
-0.005
0.0
-0.005
-0.005
0.005
0.01
0.025
0.02
0.02
0.015
0.025
0.02
0.02
0.03
0.035
0.04
0.05
0.07
0.065
0.065
0.08
0.09
0.08
0.08
0.08
0.075
0.075
0.075
0.075
0.055
0.055
0.045
0.065
0.07
0.025
0.025
0.025
0.04
0.005
0.005
0.015
0.005
-0.005
0.005
0.015
0.005
0.01
0.02
0.015
0.0
0.005
-0.01
-0.005
0.005
0.005
-0.005
-0.005
-0.015
-0.015
0.0
0.005
0.005
0.005
0.005
-0.005
0.005
0.0
0.0
0.0
0.005
-0.005
0.005
0.0
0.0
-0.02
-0.06
-0.095
-0.145
-0.17
-0.215
-0.225
-0.21
-0.215
-0.16
-0.06
0.105
0.265
0.44
0.605
0.765
0.925
1.095
1.19
1.23
1.175
1.105
1.035
0.915
0.83
0.715
0.56
0.44
0.365
0.315
0.275
0.23
0.18
0.155
0.13
0.105
0.09
0.075
0.06
0.05
0.035
0.055
0.04
0.02
0.01
0.02
0.025
0.02
0.015
0.01
0.0
0.005
0.005
0.0
0.005
0.005
0.02
0.005
0.0
0.015
0.01
0.005
0.02
0.015
0.005
0.0
-0.005
-0.005
0.01
0.0
0.005
0.005
-0.005
0.005
0.01
0.005
0.02
0.01
0.015
0.01
0.025
0.03
0.015
0.005
0.005
0.01
0.01
0.0
0.02
0.035
0.03
0.03
0.02
0.02
0.035
0.04
0.02
0.025
0.025
0.015
0.03
0.03
0.04
0.045
0.055
0.045
0.045
0.06
0.055
0.06
0.05
0.065
0.065
0.07
0.06
0.075
0.09
0.09
0.09
0.1
0.11
0.105
0.11
0.115
0.12
0.135
0.135
0.14
0.145
0.155
0.165
0.175
0.18
0.18
0.17
0.185
0.195
0.19
0.175
0.175
0.18
0.175
0.18
0.185
0.195
0.19
0.185
0.175
0.17
0.175
0.185
0.17
0.15
0.155
0.13
0.135
0.115
0.12
0.13
0.115
0.1
0.095
0.08
0.075
0.08
0.06
0.06
0.045
0.05
0.055
0.05
0.035
0.045
0.055
0.055
0.04
0.04
0.03
0.035
0.035
0.025
0.025
0.035
0.045
0.03
0.04
0.035
0.025
0.035
0.035
0.03
0.035
0.03
0.025
0.025
0.025
0.015
0.03
0.03
0.04
0.03
0.03
0.04
0.035
0.03
0.035
0.015
0.03
0.025
0.025
0.03
0.035
0.03
0.03
0.03
0.045
0.025
0.015
0.02
0.02
0.03
0.03
0.03
0.015
0.005
0.015
0.015
0.01
0.025
0.02
0.03
0.02
0.035
0.035
0.03
0.03
0.03
0.025
0.03
0.025
0.03
0.035
0.03
0.025
0.02
0.02
0.015
0.02
0.025
0.025
0.025
0.02
0.015
0.015
0.015
0.02
0.02
0.02
0.025
0.02
0.015
0.02
0.015
0.015
0.015
0.03
0.025
0.025
0.025
0.025
0.035
0.035
0.025
0.035
0.03
0.03
0.035
0.025
0.03
0.025
0.025
0.025
0.025
0.02
0.02
0.02
0.02
0.015
0.025
0.03
0.035
0.025
0.015
0.005
0.015
0.005
0.01
0.01
0.015
0.02
0.02
0.015
0.025
0.03
0.025
0.025
0.02
0.015
0.015
0.015
0.01
0.005
0.01
0.01
0.01
0.005
0.02
0.02
0.015
0.02
0.015
0.02
0.02
0.02
0.02
0.02
0.02
0.025
0.015
0.02
0.04
0.04
0.04
0.045
0.035
0.05
0.05
0.065
0.075
0.07
0.075
0.09
0.085
0.085
0.09
0.08
0.09
0.095
0.095
0.09
0.09
0.085
0.075
0.06
0.045
0.03
0.02
0.015
0.025
0.025
0.025
0.015
0.015
0.02
0.01
0.01
0.01
0.005
0.01
0.005
0.01
0.015
0.015
0.005
0.005
-0.005
0.0
0.0
0.005
0.015
0.005
-0.01
-0.01
0.0
0.005
-0.005
-0.005
-0.01
-0.005
0.0
-0.01
-0.015
-0.025
-0.03
-0.035
-0.055
-0.1
-0.135
-0.15
-0.19
-0.235
-0.25
-0.23
-0.19
-0.135
-0.03
0.135
0.3
0.48
0.66
0.82
0.98
1.115
1.205
1.2
1.135
1.07
0.995
0.895
0.815
0.69
0.54
0.425
0.365
0.31
0.27
0.225
0.185
0.15
0.125
0.095
0.08
0.07
0.05
0.04
0.02
0.025
0.02
0.015
0.02
0.01
-0.015
0.0
0.015
0.005
0.0
0.0
0.0
0.0
0.005
-0.005
0.005
0.005
-0.005
-0.005
-0.005
0.0
0.005
0.0
0.01
0.015
0.025
0.035
0.015
0.01
-0.005
0.005
0.02
0.01
0.015
0.02
0.02
0.02
0.02
0.01
0.02
0.015
0.01
0.015
0.025
0.025
0.02
0.02
0.02
0.03
0.03
0.03
0.035
0.035
0.035
0.035
0.035
0.035
0.03
0.03
0.03
0.025
0.035
0.06
0.07
0.06
0.06
0.065
0.065
0.06
0.07
0.085
0.085
0.085
0.09
0.095
0.095
0.1
0.105
0.105
0.11
0.125
0.13
0.14
0.15
0.16
0.17
0.165
0.175
0.17
0.18
0.185
0.18
0.19
0.195
0.205
0.21
0.22
0.215
0.21
0.21
0.205
0.215
0.215
0.22
0.22
0.215
0.21
0.2
0.195
0.195
0.19
0.18
0.165
0.145
0.16
0.15
0.135
0.135
0.13
0.12
0.12
0.12
0.11
0.095
0.08
0.075
0.065
0.055
0.055
0.05
0.05
0.05
0.055
0.04
0.035
0.045
0.04
0.05
0.035
0.045
0.04
0.035
0.035
0.035
0.03
0.03
0.02
0.02
0.02
0.025
0.03
0.025
0.025
0.03
0.035
0.025
0.035
0.03
0.025
0.03
0.045
0.035
0.035
0.035
0.03
0.035
0.04
0.035
0.04
0.025
0.025
0.01
0.02
0.025
0.035
0.03
0.03
0.02
0.025
0.025
0.025
0.03
0.025
0.02
0.01
0.025
0.01
0.02
0.03
0.03
0.025
0.03
0.025
0.03
0.03
0.03
0.03
0.025
0.02
0.025
0.02
0.02
0.02
0.025
0.04
0.04
0.035
0.04
0.03
0.025
0.025
0.04
0.04
0.035
0.03
0.04
0.025
0.03
0.03
0.025
0.025
0.02
0.025
0.02
0.02
0.025
0.025
0.02
0.02
0.025
0.025
0.025
0.02
0.025
0.025
0.02
0.02
0.015
0.01
0.015
0.03
0.04
0.035
0.035
0.035
0.03
0.02
0.02
0.02
0.035
0.03
0.025
0.025
0.025
0.02
0.015
0.015
0.02
0.015
0.02
0.015
0.02
0.015
0.01
0.015
0.015
0.02
0.005
0.01
0.02
0.025
0.025
0.01
0.02
0.01
0.01
0.015
0.015
0.015
0.015
0.025
0.02
0.02
0.025
0.025
0.02
0.02
0.02
0.025
0.025
0.035
0.04
0.03
0.025
0.04
0.055
0.06
0.07
0.075
0.08
0.09
0.095
0.095
0.085
0.08
0.09
0.09
0.1
0.095
0.095
0.085
0.08
0.055
0.04
0.035
0.025
0.025
0.025
0.02
0.02
0.03
0.02
0.015
0.01
0.01
0.005
0.0
0.005
0.01
-0.005
0.005
0.0
0.0
-0.015
-0.01
-0.015
-0.01
-0.01
0.0
0.005
0.01
0.0
-0.005
-0.005
-0.005
-0.01
-0.005
-0.01
-0.02
-0.015
-0.01
-0.01
-0.025
-0.025
-0.05
-0.1
-0.14
-0.17
-0.225
-0.26
-0.25
-0.225
-0.18
-0.105
0.04
0.195
0.36
0.55
0.73
0.88
1.06
1.19
1.245
1.205
1.115
1.035
0.93
0.835
0.74
0.595
0.465
0.38
0.32
0.265
0.215
0.17
0.14
0.115
0.075
0.05
0.04
0.04
0.015
0.01
0.01
-0.005
-0.01
-0.025
-0.025
-0.025
-0.015
-0.02
-0.025
-0.03
-0.03
-0.035
-0.04
-0.04
-0.035
-0.04
-0.04
-0.04
-0.04
-0.045
-0.035
-0.035
-0.035
-0.045
-0.045
-0.045
-0.04
-0.045
-0.035
-0.035
-0.035
-0.03
-0.035
-0.035
-0.045
-0.045
-0.025
-0.03
-0.03
-0.03
-0.04
-0.045
-0.04
-0.035
-0.025
-0.015
-0.03
-0.03
-0.025
-0.03
-0.035
-0.035
-0.03
-0.03
-0.02
-0.025
-0.02
-0.025
-0.02
-0.015
-0.015
-0.01
0.0
0.01
0.005
0.0
0.0
0.01
0.015
0.02
0.02
0.015
0.02
0.025
0.03
0.035
0.04
0.045
0.05
0.065
0.075
0.075
0.085
0.095
0.09
0.105
0.115
0.115
0.115
0.135
0.135
0.135
0.14
0.145
0.145
0.14
0.145
0.145
0.155
0.155
0.155
0.16
0.15
0.15
0.155
0.155
0.14
0.13
0.125
0.115
0.115
0.115
0.12
0.11
0.105
0.095
0.09
0.1
0.075
0.07
0.055
0.035
0.03
0.02
0.025
0.02
0.01
0.01
0.005
-0.005
-0.01
-0.015
-0.015
-0.015
-0.03
-0.04
-0.03
-0.035
-0.035
-0.03
-0.03
-0.03
-0.03
-0.03
-0.03
-0.03
-0.03
-0.035
-0.045
-0.04
-0.03
-0.04
-0.04
-0.035
-0.03
-0.025
-0.045
-0.035
-0.03
-0.03
-0.035
-0.025
-0.02
-0.025
-0.025
-0.04
-0.04
-0.035
-0.03
-0.03
-0.04
-0.04
-0.035
-0.03
-0.025
-0.035
-0.035
-0.04
-0.035
-0.045
-0.045
-0.035
-0.03
-0.02
-0.025
-0.025
-0.025
-0.025
-0.03
-0.02
-0.04
-0.045
-0.05
-0.035
-0.04
-0.035
-0.035
-0.025
-0.025
-0.03
-0.03
-0.015
-0.02
-0.025
-0.01
-0.01
0.0
-0.005
-0.025
-0.015
-0.02
-0.025
-0.02
-0.01
-0.01
-0.015
-0.01
-0.015
-0.025
-0.02
-0.025
-0.035
-0.03
-0.02
-0.02
-0.02
-0.015
-0.015
-0.02
-0.015
-0.025
-0.02
-0.025
-0.015
-0.01
-0.015
-0.03
-0.025
-0.025
-0.02
-0.02
-0.025
-0.02
-0.02
-0.015
-0.005
-0.025
-0.03
-0.025
-0.005
-0.02
-0.035
-0.035
-0.035
-0.015
-0.015
-0.01
-0.025
-0.025
-0.025
-0.015
-0.03
-0.03
-0.01
-0.025
-0.025
-0.025
-0.02
-0.025
-0.025
-0.02
-0.005
-0.025
-0.02
-0.02
-0.01
-0.005
-0.02
-0.02
-0.015
-0.005
-0.015
0.0
0.0
0.0
0.01
0.0
-0.005
-0.005
0.01
0.015
0.015
0.015
0.02
0.035
0.06
0.05
0.06
0.06
0.065
0.075
0.07
0.07
0.07
0.075
0.06
0.065
0.065
0.035
0.05
0.035
0.02
0.0
0.02
0.015
-0.005
0.0
-0.005
0.0
-0.005
-0.005
-0.005
-0.015
-0.015
-0.015
-0.005
-0.01
-0.01
-0.01
-0.015
-0.015
-0.025
-0.035
-0.02
-0.02
-0.025
-0.01
-0.015
-0.015
-0.01
-0.025
-0.02
-0.015
-0.015
0.0
-0.01
-0.01
-0.015
-0.025
-0.05
-0.05
-0.06
-0.09
-0.105
-0.145
-0.19
-0.22
-0.265
-0.24
-0.215
-0.18
-0.09
0.065
0.22
0.375
0.545
0.715
0.875
1.035
1.17
1.19
1.15
1.06
1.02
0.9
0.815
0.705
0.545
0.425
0.335
0.3
0.24
0.21
0.175
0.12
0.09
0.05
0.045
0.045
0.01
0.015
0.01
0.01
-0.01
0.0
-0.01
-0.015
-0.005
-0.005
-0.005
-0.025
-0.03
-0.025
-0.015
-0.025
-0.025
-0.03
-0.025
-0.045
-0.035
-0.045
-0.03
-0.015
-0.025
-0.03
-0.02
-0.025
-0.03
-0.035
-0.035
-0.03
-0.03
-0.025
-0.025
-0.025
-0.035
-0.035
-0.025
-0.04
-0.035
-0.015
-0.015
-0.035
-0.03
-0.01
-0.005
-0.005
-0.01
-0.02
-0.015
-0.015
-0.015
0.0
-0.015
-0.005
0.0
-0.01
0.005
0.0
0.01
0.005
0.015
0.015
0.005
0.015
0.04
0.03
0.025
0.03
0.03
0.025
0.03
0.04
0.06
0.055
0.055
0.06
0.07
0.065
0.06
0.07
0.095
0.1
0.105
0.12
0.12
0.12
0.145
0.15
0.15
0.145
0.155
0.17
0.165
0.165
0.17
0.18
0.19
0.195
0.18
0.185
0.19
0.2
0.195
0.2
0.2
0.185
0.17
0.155
0.17
0.16
0.17
0.16
0.15
0.14
0.145
0.155
0.13
0.12
0.12
0.11
0.095
0.09
0.075
0.075
0.085
0.075
0.035
0.035
0.04
0.04
0.035
0.05
0.03
0.03
0.025
0.025
0.01
0.01
0.01
0.005
0.01
0.025
0.025
0.005
0.015
0.025
0.03
0.03
0.01
-0.01
0.02
0.01
0.01
0.005
0.015
0.02
0.0
0.025
0.01
0.005
0.015
0.015
0.03
0.015
0.02
0.035
0.015
0.005
0.005
0.005
0.025
0.02
0.015
0.01
0.005
0.005
0.0
0.01
0.02
0.005
0.01
0.01
0.025
0.02
0.02
0.015
0.01
0.015
0.01
0.01
0.0
0.025
0.015
0.015
0.01
0.015
0.015
0.015
0.02
0.035
0.025
0.02
0.02
0.025
0.01
0.02
0.01
0.005
0.02
0.02
0.02
0.015
0.03
0.02
0.015
0.02
0.01
0.02
0.03
0.04
0.035
0.035
0.025
0.02
0.025
0.01
0.02
0.03
0.015
0.015
0.01
-0.005
0.025
0.01
0.015
0.005
0.015
0.01
0.0
0.01
0.02
0.005
0.03
0.02
0.03
0.03
0.01
0.01
0.01
0.01
0.005
0.02
0.02
0.01
0.015
0.01
0.02
0.01
0.015
0.005
0.015
0.015
0.025
0.015
0.035
0.03
0.025
0.02
0.02
0.03
0.02
0.03
0.025
0.035
0.04
0.035
0.035
0.04
0.035
0.045
0.04
0.045
0.035
0.04
0.06
0.045
0.055
0.08
0.085
0.085
0.105
0.115
0.11
0.12
0.11
0.105
0.125
0.125
0.1
0.08
0.085
0.075
0.065
0.04
0.04
0.03
0.045
0.025
0.03
0.04
0.035
0.04
0.04
0.035
0.025
0.02
0.015
0.015
0.025
0.025
0.015
0.02
0.025
0.03
0.02
0.02
0.035
0.04
0.035
0.005
0.02
0.025
0.025
0.015
0.03
0.03
0.02
0.02
0.005
0.025
0.02
0.015
0.0
-0.01
-0.04
-0.06
-0.11
-0.14
-0.17
-0.2
-0.2
-0.17
-0.115
-0.02
0.13
0.28
0.43
0.595
0.75
0.91
1.075
1.185
1.2
1.15
1.08
1.03
0.905
0.825
0.705
0.565
0.43
0.355
0.32
0.29
0.245
0.215
0.18
0.155
0.125
0.12
0.1
0.09
0.08
0.08
0.08
0.07
0.07
0.06
0.05
0.05
0.055
0.045
0.045
0.045
0.045
0.035
0.05
0.045
0.035
0.05
0.045
0.045
0.05
0.065
0.045
0.03
0.03
0.035
0.05
0.045
0.05
0.045
0.045
0.05
0.045
0.055
0.055
0.055
0.06
0.07
0.075
0.05
0.05
0.06
0.05
0.045
0.05
0.055
0.045
0.04
0.07
0.08
0.07
0.07
0.07
0.075
0.075
0.07
0.085
0.085
0.07
0.07
0.075
0.075
0.08
0.085
0.09
0.085
0.1
0.1
0.11
0.105
0.105
0.115
0.12
0.12
0.115
0.125
0.135
0.145
0.145
0.15
0.15
0.15
0.16
0.17
0.195
0.205
0.21
0.2
0.205
0.215
0.22
0.225
0.225
0.225
0.23
0.24
0.255
0.25
0.24
0.235
0.255
0.26
0.255
0.25
0.245
0.26
0.255
0.26
0.25
0.235
0.23
0.225
0.225
0.215
0.205
0.195
0.205
0.2
0.195
0.18
0.18
0.18
0.175
0.15
0.155
0.135
0.13
0.12
0.115
0.11
0.11
0.115
0.105
0.105
0.105
0.09
0.09
0.095
0.095
0.09
0.085
0.085
0.085
0.075
0.085
0.08
0.09
0.09
0.09
0.09
0.085
0.075
0.09
0.09
0.09
0.08
0.09
0.09
0.08
0.075
0.085
0.08
0.08
0.085
0.07
0.07
0.075
0.08
0.08
0.09
0.1
0.09
0.065
0.07
0.07
0.075
0.075
0.09
0.085
0.09
0.09
0.085
0.08
0.07
0.065
0.085
0.08
0.075
0.07
0.07
0.085
0.085
0.08
0.075
0.075
0.08
0.085
0.08
0.07
0.075
0.075
0.08
0.07
0.075
0.07
0.07
0.07
0.075
0.08
0.075
0.09
0.09
0.08
0.095
0.095
0.09
0.09
0.09
0.095
0.085
0.085
0.085
0.08
0.08
0.09
0.085
0.085
0.075
0.075
0.09
0.08
0.075
0.08
0.075
0.065
0.065
0.075
0.075
0.06
0.065
0.08
0.065
0.065
0.075
0.06
0.06
0.06
0.07
0.075
0.07
0.07
0.08
0.075
0.07
0.06
0.06
0.06
0.06
0.07
0.065
0.06
0.055
0.06
0.05
0.055
0.065
0.085
0.08
0.08
0.085
0.075
0.06
0.08
0.065
0.05
0.075
0.08
0.075
0.08
0.075
0.07
0.085
0.085
0.085
0.11
0.1
0.095
0.085
0.095
0.095
0.1
0.115
0.125
0.125
0.145
0.145
0.145
0.14
0.14
0.15
0.145
0.15
0.135
0.105
0.105
0.115
0.105
0.09
0.08
0.085
0.08
0.07
0.07
0.065
0.06
0.06
0.045
0.05
0.04
0.055
0.06
0.055
0.06
0.055
0.06
0.05
0.05
0.055
0.05
0.045
0.035
0.03
0.03
0.03
0.035
0.035
0.04
0.04
0.04
0.045
0.03
0.03
0.035
0.05
0.04
0.025
0.03
0.025
0.005
-0.035
-0.075
-0.12
-0.15
-0.185
-0.185
-0.17
-0.135
-0.05
0.08
0.215
0.37
0.565
0.75
0.88
1.04
1.16
1.24
1.22
1.145
1.085
0.995
0.905
0.815
0.67
0.53
0.435
0.38
0.325
0.275
0.23
0.2
0.17
0.145
0.13
0.115
0.105
0.095
0.085
0.08
0.065
0.065
0.075
0.055
0.055
0.055
0.065
0.05
0.05
0.05
0.04
0.05
0.045
0.05
0.045
0.045
0.035
0.05
0.05
0.05
0.05
0.045
0.04
0.05
0.05
0.04
0.055
0.06
0.055
0.05
0.05
0.045
0.05
0.055
0.055
0.055
0.065
0.065
0.06
0.06
0.06
0.055
0.05
0.06
0.065
0.06
0.065
0.07
0.07
0.065
0.07
0.07
0.065
0.07
0.08
0.08
0.08
0.08
0.075
0.075
0.07
0.075
0.085
0.1
0.1
0.11
0.115
0.125
0.12
0.13
0.13
0.135
0.13
0.14
0.135
0.155
0.155
0.165
0.155
0.15
0.15
0.165
0.17
0.19
0.19
0.205
0.22
0.22
0.22
0.23
0.25
0.25
0.245
0.25
0.25
0.26
0.265
0.26
0.275
0.27
0.255
0.255
0.245
0.26
0.255
0.245
0.255
0.235
0.24
0.24
0.23
0.2
0.2
0.195
0.2
0.205
0.21
0.18
0.175
0.165
0.155
0.145
0.145
0.145
0.125
0.14
0.12
0.125
0.12
0.12
0.095
0.095
0.08
0.08
0.08
0.095
0.105
0.105
0.08
0.085
0.085
0.06
0.06
0.07
0.07
0.07
0.085
0.085
0.085
0.1
0.085
0.08
0.08
0.08
0.075
0.08
0.08
0.08
0.09
0.09
0.085
0.09
0.085
0.08
0.085
0.08
0.085
0.075
0.075
0.075
0.07
0.07
0.065
0.08
0.06
0.055
0.05
0.04
0.06
0.06
0.055
0.05
0.055
0.055
0.05
0.05
0.05
0.05
0.06
0.055
0.055
0.045
0.035
0.045
0.04
0.035
0.035
0.045
0.045
0.04
0.035
0.045
0.05
0.04
0.035
0.035
0.03
0.03
0.04
0.035
0.035
0.04
0.035
0.04
0.045
0.045
0.05
0.05
0.04
0.04
0.035
0.03
0.035
0.045
0.04
0.045
0.04
0.035
0.03
0.045
0.055
0.045
0.045
0.04
0.05
0.045
0.055
0.055
0.045
0.035
0.045
0.035
0.035
0.035
0.045
0.04
0.05
0.06
0.075
0.06
0.065
0.06
0.06
0.065
0.07
0.07
0.07
0.07
0.08
0.075
0.075
0.085
0.075
0.08
0.085
0.08
0.085
0.08
0.09
0.09
0.08
0.08
0.09
0.095
0.09
0.09
0.115
0.115
0.105
0.105
0.12
0.125
0.125
0.13
0.13
0.14
0.14
0.145
0.145
0.14
0.135
0.135
0.145
0.155
0.16
0.17
0.185
0.195
0.2
0.21
0.2
0.19
0.19
0.195
0.195
0.195
0.18
0.18
0.18
0.18
0.16
0.15
0.145
0.15
0.155
0.145
0.14
0.14
0.14
0.14
0.135
0.135
0.135
0.14
0.145
0.135
0.135
0.12
0.115
0.125
0.13
0.135
0.135
0.14
0.14
0.13
0.125
0.13
0.125
0.12
0.125
0.125
0.125
0.13
0.13
0.13
0.125
0.135
0.145
0.13
0.115
0.1
0.065
0.025
0.0
-0.05
-0.085
-0.105
-0.085
-0.065
0.0
0.105
0.265
0.44
0.625
0.81
0.98
1.15
1.285
1.38
1.405
1.34
1.27
1.19
1.09
1.0
0.875
0.715
0.59
0.515
0.465
0.405
0.37
0.345
0.305
0.27
0.245
0.225
0.215
0.205
0.19
0.19
0.18
0.185
0.185
0.175
0.16
0.165
0.16
0.15
0.15
0.145
0.155
0.16
0.155
0.145
0.155
0.15
0.14
0.145
0.15
0.15
0.14
0.14
0.15
0.145
0.15
0.145
0.15
0.15
0.16
0.155
0.15
0.175
0.17
0.175
0.17
0.16
0.155
0.165
0.16
0.165
0.165
0.16
0.175
0.17
0.16
0.165
0.17
0.17
0.17
0.175
0.18
0.195
0.185
0.195
0.195
0.195
0.2
0.19
0.185
0.19
0.195
0.19
0.195
0.205
0.21
0.21
0.21
0.205
0.21
0.22
0.225
0.235
0.24
0.245
0.245
0.255
0.26
0.255
0.25
0.265
0.275
0.3
0.3
0.29
0.295
0.315
0.32
0.315
0.315
0.32
0.33
0.335
0.35
0.355
0.355
0.35
0.345
0.345
0.36
0.36
0.365
0.37
0.37
0.37
0.37
0.365
0.355
0.345
0.34
0.35
0.33
0.32
0.32
0.31
0.31
0.31
0.295
0.28
0.275
0.275
0.265
0.26
0.25
0.245
0.24
0.225
0.225
0.22
0.21
0.195
0.2
0.195
0.195
0.2
0.21
0.215
0.215
0.21
0.205
0.195
0.2
0.2
0.19
0.195
0.19
0.19
0.19
0.18
0.185
0.185
0.2
0.195
0.195
0.19
0.195
0.19
0.19
0.185
0.19
0.195
0.195
0.195
0.19
0.2
0.2
0.195
0.19
0.19
0.19
0.195
0.18
0.19
0.19
0.19
0.195
0.195
0.185
0.2
0.19
0.19
0.19
0.19
0.19
0.195
0.195
0.205
0.19
0.185
0.195
0.21
0.215
0.215
0.2
0.205
0.21
0.21
0.205
0.21
0.205
0.205
0.205
0.21
0.195
0.205
0.2
0.205
0.195
0.205
0.195
0.2
0.21
0.21
0.22
0.205
0.21
0.215
0.2
0.195
0.205
0.21
0.215
0.215
0.21
0.215
0.21
0.21
0.21
0.2
0.2
0.195
0.2
0.21
0.205
0.215
0.215
0.215
0.23
0.225
0.21
0.205
0.2
0.205
0.205
0.205
0.21
0.2
0.2
0.195
0.19
0.195
0.205
0.195
0.205
0.205
0.2
0.205
0.2
0.205
0.2
0.2
0.205
0.205
0.21
0.215
0.21
0.21
0.21
0.2
0.2
0.205
0.21
0.2
0.205
0.21
0.195
0.2
0.195
0.2
0.21
0.21
0.22
0.22
0.22
0.225
0.215
0.22
0.21
0.22
0.22
0.22
0.23
0.24
0.24
0.25
0.25
0.23
0.225
0.245
0.25
0.27
0.27
0.285
0.29
0.295
0.29
0.295
0.3
0.295
0.305
0.3
0.3
0.29
0.295
0.29
0.27
0.255
0.24
0.23
0.23
0.24
0.24
0.23
0.225
0.23
0.225
0.22
0.215
0.225
0.225
0.21
0.21
0.205
0.2
0.225
0.225
0.215
0.215
0.22
0.22
0.21
0.215
0.21
0.205
0.2
0.205
0.19
0.2
0.205
0.2
0.2
0.21
0.215
0.22
0.215
0.21
0.19
0.175
0.145
0.12
0.09
0.04
0.01
-0.05
-0.055
-0.03
0.025
0.11
0.245
0.405
0.59
0.775
0.97
1.115
1.28
1.415
1.485
1.455
1.365
1.305
1.175
1.075
0.975
0.835
0.7
0.605
0.55
0.495
0.45
0.415
0.37
0.345
0.315
0.285
0.27
0.265
0.245
0.245
0.24
0.24
0.215
0.22
0.215
0.215
0.21
0.21
0.215
0.205
0.22
0.215
0.21
0.2
0.195
0.19
0.185
0.195
0.2
0.21
0.22
0.22
0.23
0.215
0.205
0.205
0.205
0.195
0.195
0.2
0.215
0.225
0.23
0.225
0.22
0.22
0.225
0.215
0.21
0.21
0.215
0.225
0.225
0.22
0.22
0.21
0.215
0.22
0.23
0.22
0.22
0.225
0.215
0.22
0.23
0.235
0.235
0.24
0.24
0.25
0.255
0.245
0.24
0.255
0.255
0.27
0.26
0.265
0.26
0.265
0.265
0.285
0.285
0.285
0.285
0.28
0.3
0.31
0.315
0.315
0.325
0.33
0.33
0.35
0.35
0.36
0.365
0.37
0.37
0.39
0.39
0.39
0.405
0.415
0.41
0.405
0.4
0.41
0.42
0.425
0.415
0.41
0.42
0.42
0.41
0.41
0.41
0.405
0.39
0.4
0.395
0.385
0.385
0.385
0.365
0.37
0.35
0.33
0.315
0.32
0.315
0.305
0.295
0.285
0.28
0.28
0.28
0.275
0.265
0.27
0.26
0.27
0.27
0.26
0.265
0.255
0.24
0.255
0.235
0.25
0.245
0.24
0.24
0.245
0.245
0.25
0.23
0.245
0.245
0.24
0.235
0.245
0.235
0.24
0.24
0.235
0.24
0.25
0.245
0.25
0.25
0.24
0.24
0.24
0.24
0.24
0.245
0.24
0.235
0.23
0.245
0.255
0.24
0.23
0.225
0.225
0.24
0.24
0.255
0.235
0.25
0.25
0.24
0.235
0.23
0.24
0.23
0.24
0.235
0.235
0.245
0.25
0.255
0.245
0.245
0.245
0.25
0.24
0.235
0.235
0.25
0.25
0.25
0.245
0.245
0.25
0.25
0.24
0.24
0.245
0.25
0.25
0.235
0.235
0.24
0.24
0.235
0.24
0.255
0.24
0.245
0.25
0.25
0.24
0.24
0.245
0.24
0.225
0.23
0.24
0.235
0.235
0.24
0.245
0.235
0.23
0.24
0.255
0.245
0.235
0.235
0.25
0.24
0.235
0.25
0.225
0.24
0.24
0.25
0.245
0.25
0.235
0.245
0.245
0.225
0.225
0.235
0.23
0.235
0.235
0.225
0.23
0.23
0.225
0.235
0.235
0.22
0.215
0.23
0.23
0.235
0.225
0.225
0.23
0.23
0.24
0.24
0.235
0.235
0.24
0.235
0.22
0.22
0.225
0.23
0.225
0.23
0.235
0.23
0.23
0.235
0.235
0.23
0.23
0.235
0.23
0.225
0.245
0.25
0.245
0.25
0.25
0.25
0.255
0.255
0.275
0.28
0.28
0.29
0.305
0.3
0.3
0.305
0.295
0.285
0.28
0.275
0.3
0.295
0.29
0.28
0.265
0.255
0.245
0.23
0.22
0.215
0.215
0.22
0.215
0.215
0.2
0.205
0.2
0.19
0.195
0.195
0.2
0.2
0.19
0.19
0.185
0.185
0.175
0.175
0.185
0.18
0.19
0.19
0.19
0.195
0.19
0.19
0.19
0.185
0.185
0.175
0.18
0.175
0.175
0.17
0.17
0.155
0.13
0.1
0.08
0.045
0.0
-0.045
-0.06
-0.045
-0.005
0.055
0.165
0.315
0.47
0.66
0.835
0.99
1.155
1.305
1.395
1.385
1.305
1.21
1.135
1.02
0.96
0.835
0.68
0.55
0.495
0.46
0.415
0.38
0.35
0.315
0.275
0.255
0.24
0.23
0.225
0.21
0.205
0.2
0.195
0.18
0.18
0.185
0.185
0.17
0.175
0.19
0.165
0.175
0.17
0.16
0.16
0.155
0.15
0.16
0.165
0.16
0.16
0.165
0.155
0.165
0.16
0.155
0.155
0.15
0.145
0.15
0.165
0.17
0.165
0.18
0.195
0.19
0.18
0.185
0.175
0.18
0.185
0.155
0.17
0.155
0.18
0.16
0.155
0.155
0.155
0.165
0.175
0.16
0.15
0.165
0.18
0.185
0.175
0.2
0.165
0.17
0.175
0.165
0.16
0.18
0.185
0.17
0.195
0.21
0.215
0.205
0.205
0.2
0.215
0.215
0.215
0.225
0.225
0.245
0.25
0.26
0.27
0.275
0.275
0.29
0.285
0.295
0.3
0.3
0.31
0.32
0.34
0.335
0.325
0.33
0.32
0.34
0.335
0.335
0.33
0.365
0.375
0.375
0.365
0.35
0.365
0.365
0.36
0.35
0.36
0.35
0.345
0.335
0.32
0.305
0.3
0.29
0.3
0.31
0.29
0.29
0.28
0.265
0.265
0.26
0.255
0.255
0.24
0.23
0.225
0.22
0.215
0.215
0.215
0.225
0.215
0.215
0.22
0.22
0.22
0.2
0.21
0.205
0.19
0.21
0.22
0.215
0.21
0.215
0.21
0.195
0.2
0.195
0.195
0.205
0.205
0.22
0.21
0.205
0.215
0.215
0.205
0.2
0.2
0.205
0.21
0.205
0.225
0.215
0.225
0.21
0.215
0.21
0.195
0.2
0.215
0.205
0.2
0.195
0.205
0.205
0.22
0.215
0.225
0.225
0.23
0.23
0.22
0.215
0.22
0.21
0.21
0.21
0.205
0.21
0.21
0.215
0.235
0.24
0.235
0.235
0.215
0.22
0.215
0.225
0.215
0.215
0.225
0.22
0.225
0.225
0.215
0.22
0.225
0.215
0.215
0.22
0.22
0.235
0.23
0.22
0.22
0.215
0.21
0.22
0.225
0.215
0.22
0.22
0.22
0.23
0.235
0.23
0.225
0.22
0.225
0.215
0.215
0.22
0.205
0.205
0.2
0.21
0.225
0.22
0.215
0.205
0.205
0.205
0.19
0.2
0.2
0.205
0.2
0.195
0.2
0.215
0.205
0.21
0.215
0.215
0.22
0.215
0.2
0.22
0.21
0.21
0.2
0.2
0.205
0.215
0.215
0.195
0.2
0.195
0.2
0.205
0.2
0.205
0.205
0.195
0.195
0.2
0.205
0.205
0.215
0.195
0.195
0.215
0.22
0.195
0.21
0.22
0.2
0.205
0.21
0.205
0.195
0.21
0.205
0.22
0.21
0.225
0.225
0.23
0.23
0.235
0.22
0.225
0.225
0.22
0.23
0.255
0.26
0.265
0.265
0.265
0.28
0.3
0.29
0.285
0.275
0.29
0.265
0.26
0.25
0.26
0.255
0.26
0.235
0.23
0.225
0.205
0.215
0.21
0.225
0.225
0.215
0.2
0.225
0.215
0.215
0.195
0.195
0.2
0.195
0.2
0.195
0.19
0.18
0.195
0.205
0.22
0.21
0.2
0.205
0.2
0.195
0.195
0.185
0.185
0.19
0.195
0.19
0.19
0.215
0.205
0.19
0.185
0.17
0.16
0.13
0.095
0.08
0.045
-0.005
-0.02
-0.02
-0.005
0.065
0.14
0.27
0.42
0.6
0.825
0.99
1.13
1.29
1.405
1.45
1.415
1.33
1.265
1.14
1.075
0.97
0.83
0.695
0.605
0.57
0.515
0.46
0.42
0.37
0.335
0.3
0.28
0.275
0.265
0.26
0.255
0.245
0.22
0.22
0.205
0.22
0.21
0.21
0.22
0.225
0.205
0.2
0.225
0.23
0.215
0.19
0.19
0.225
0.225
0.215
0.2
0.215
0.23
0.215
0.21
0.2
0.24
0.24
0.215
0.19
0.225
0.185
0.185
0.205
0.24
0.24
0.24
0.19
0.19
0.19
0.185
0.2
0.25
0.205
0.225
0.245
0.19
0.155
0.22
0.23
0.205
0.255
0.285
0.225
0.225
0.205
0.205
0.205
0.175
0.22
0.2
0.24
0.22
0.215
0.235
0.26
0.225
0.21
0.21
0.22
0.275
0.265
0.25
0.26
0.3
0.255
0.255
0.255
0.295
0.3
0.27
0.27
0.345
0.34
0.3
0.355
0.35
0.4
0.33
0.25
0.305
0.345
0.4
0.37
0.345
0.36
0.325
0.4
0.39
0.34
0.31
0.32
0.39
0.3
0.23
0.345
0.28
0.25
0.315
0.32
0.215
0.16
0.165
0.215
0.195
0.18
0.195
0.255
0.12
-0.04
0.13
0.155
-0.045
0.02
-0.02
0.05
-0.095
-0.125
-0.04
-0.11
-0.15
-0.155
-0.215
-0.24
-0.2
-0.24
-0.28
-0.28
-0.285
-0.32
-0.41
-0.48
-0.48
-0.405
-0.36
-0.335
-0.46
-0.51
-0.545
-0.555
-0.595
-0.625
-0.64
-0.51
-0.665
-0.66
-0.635
-0.67
-0.645
-0.66
-0.695
-0.685
-0.72
-0.67
-0.715
-0.83
-0.81
-0.76
-0.73
-0.745
-0.79
-0.79
-0.8
-0.765
-0.765
-0.805
-0.83
-0.87
-0.815
-0.9
-0.875
-0.92
-0.915
-0.865
-0.95
-0.865
-0.88
-0.895
-0.905
-0.85
-0.84
-0.93
-0.965
-0.88
-0.865
-0.845
-0.77
-0.815
-0.85
-0.825
-0.84
-0.78
-0.76
-0.795
-0.78
-0.725
-0.71
-0.75
-0.735
-0.72
-0.695
-0.685
-0.68
-0.67
-0.63
-0.645
-0.69
-0.705
-0.65
-0.56
-0.62
-0.575
-0.61
-0.59
-0.59
-0.56
-0.545
-0.595
-0.63
-0.57
-0.555
-0.555
-0.55
-0.6
-0.555
-0.585
-0.555
-0.53
-0.53
-0.55
-0.52
-0.57
-0.545
-0.535
-0.51
-0.52
-0.535
-0.555
-0.54
-0.56
-0.555
-0.54
-0.525
-0.52
-0.525
-0.52
-0.51
-0.525
-0.52
-0.5
-0.52
-0.465
-0.505
-0.54
-0.53
-0.57
-0.51
-0.485
-0.54
-0.51
-0.545
-0.535
-0.555
-0.52
-0.515
-0.55
-0.575
-0.57
-0.545
-0.525
-0.51
-0.51
-0.55
-0.56
-0.545
-0.55
-0.565
-0.56
-0.57
-0.58
-0.51
-0.49
-0.595
-0.565
-0.555
-0.535
-0.535
-0.535
-0.55
-0.54
-0.49
-0.545
-0.535
-0.56
-0.535
-0.535
-0.54
-0.525
-0.51
-0.53
-0.52
-0.48
-0.485
-0.52
-0.52
-0.515
-0.52
-0.48
-0.51
-0.465
-0.475
-0.525
-0.505
-0.495
-0.49
-0.515
-0.55
-0.53
-0.575
-0.585
-0.625
-0.565
-0.575
-0.545
-0.545
-0.56
-0.56
-0.595
-0.6
-0.585
-0.55
-0.585
-0.58
-0.57
-0.565
-0.565
-0.54
-0.58
-0.57
-0.555
-0.515
-0.545
-0.56
-0.575
-0.585
-0.585
-0.58
-0.57
-0.585
-0.59
-0.53
-0.59
-0.595
-0.595
-0.62
-0.61
-0.63
-0.645
-0.69
-0.745
-0.82
-0.765
-0.78
-0.74
-0.7
-0.595
-0.455
-0.265
-0.15
0.085
0.26
0.39
0.54
0.675
0.74
0.655
0.585
0.465
0.38
0.3
0.195
0.04
-0.085
-0.155
-0.235
-0.295
-0.335
-0.38
-0.425
-0.435
-0.47
-0.47
-0.495
-0.525
-0.535
-0.52
-0.5
-0.48
-0.455
-0.535
-0.535
-0.54
-0.555
-0.565
-0.56
-0.53
-0.56
-0.55
-0.54
-0.56
-0.535
-0.535
-0.545
-0.52
-0.51
-0.53
-0.555
-0.55
-0.57
-0.54
-0.535
-0.545
-0.55
-0.525
-0.53
-0.46
-0.515
-0.525
-0.565
-0.49
-0.565
-0.52
-0.475
-0.5
-0.485
-0.475
-0.495
-0.55
-0.555
-0.52
-0.54
-0.54
-0.52
-0.51
-0.505
-0.48
-0.475
-0.44
-0.48
-0.495
-0.505
-0.5
-0.5
-0.5
-0.52
-0.495
-0.505
-0.48
-0.475
-0.475
-0.475
-0.46
-0.45
-0.495
-0.45
-0.415
-0.405
-0.455
-0.375
-0.43
-0.41
-0.44
-0.435
-0.4
-0.385
-0.4
-0.39
-0.395
-0.35
-0.35
-0.38
-0.335
-0.32
-0.35
-0.335
-0.36
-0.345
-0.315
-0.34
-0.335
-0.315
-0.26
-0.255
-0.275
-0.31
-0.29
-0.305
-0.27
-0.25
-0.26
-0.3
-0.265
-0.265
-0.29
-0.295
-0.285
-0.27
-0.285
-0.325
-0.325
-0.33
-0.355
-0.345
-0.335
-0.37
-0.365
-0.355
-0.36
-0.345
-0.375
-0.445
-0.415
-0.38
-0.41
-0.4
-0.42
-0.44
-0.4
-0.45
-0.43
-0.435
-0.445
-0.46
-0.445
-0.435
-0.465
-0.475
-0.42
-0.425
-0.43
-0.47
-0.45
-0.435
-0.425
-0.415
-0.46
-0.445
-0.42
-0.445
-0.435
-0.43
-0.43
-0.425
-0.435
-0.43
-0.45
-0.42
-0.415
-0.435
-0.44
-0.435
-0.46
-0.43
-0.425
-0.42
-0.42
-0.435
-0.435
-0.43
-0.415
-0.405
-0.435
-0.465
-0.435
-0.43
-0.425
-0.43
-0.445
-0.425
-0.435
-0.445
-0.435
-0.41
-0.42
-0.445
-0.42
-0.44
-0.425
-0.43
-0.435
-0.435
-0.39
-0.385
-0.455
-0.45
-0.395
-0.43
-0.45
-0.41
-0.415
-0.4
-0.405
-0.415
-0.415
-0.385
-0.4
-0.415
-0.41
-0.41
-0.4
-0.41
-0.41
-0.39
-0.39
-0.39
-0.39
-0.395
-0.37
-0.35
-0.375
-0.35
-0.355
-0.405
-0.36
-0.35
-0.395
-0.39
-0.39
-0.39
-0.37
-0.37
-0.35
-0.375
-0.365
-0.37
-0.365
-0.365
-0.36
-0.36
-0.365
-0.375
-0.365
-0.35
-0.36
-0.345
-0.325
-0.325
-0.34
-0.35
-0.325
-0.365
-0.36
-0.34
-0.315
-0.315
-0.325
-0.315
-0.3
-0.32
-0.315
-0.29
-0.285
-0.285
-0.28
-0.28
-0.27
-0.29
-0.275
-0.27
-0.265
-0.245
-0.25
-0.25
-0.255
-0.24
-0.22
-0.21
-0.21
-0.19
-0.185
-0.19
-0.19
-0.175
-0.19
-0.155
-0.14
-0.145
-0.145
-0.14
-0.13
-0.145
-0.165
-0.15
-0.135
-0.135
-0.13
-0.12
-0.11
-0.1
-0.085
-0.08
-0.075
-0.065
-0.065
-0.06
-0.07
-0.1
-0.095
-0.035
-0.055
-0.075
-0.11
-0.075
-0.07
-0.09
-0.105
-0.105
-0.115
-0.115
-0.13
-0.125
-0.135
-0.155
-0.11
-0.105
-0.1
-0.115
-0.105
-0.125
-0.09
-0.095
-0.105
-0.105
-0.12
-0.075
-0.1
-0.1
-0.07
-0.07
-0.075
-0.07
-0.075
-0.06
-0.06
-0.04
-0.07
-0.06
-0.085
-0.06
-0.065
-0.035
-0.02
-0.04
-0.065
-0.045
-0.09
-0.13
-0.175
-0.18
-0.2
-0.235
-0.22
-0.19
-0.13
-0.02
0.14
0.295
0.49
0.665
0.855
1.015
1.165
1.275
1.305
1.245
1.165
1.09
0.98
0.9
0.795
0.645
0.53
0.455
0.415
0.36
0.315
0.285
0.26
0.225
0.19
0.175
0.15
0.15
0.16
0.155
0.16
0.15
0.135
0.135
0.135
0.13
0.13
0.145
0.14
0.145
0.125
0.115
0.11
0.12
0.125
0.125
0.115
0.11
0.105
0.125
0.11
0.11
0.12
0.11
0.11
0.105
0.105
0.1
0.105
0.1
0.1
0.1
0.105
0.105
0.095
0.1
0.1
0.105
0.095
0.09
0.1
0.095
0.105
0.105
0.11
0.105
0.105
0.095
0.09
0.1
0.1
0.1
0.1
0.1
0.11
0.115
0.12
0.11
0.115
0.115
0.12
0.125
0.13
0.13
0.135
0.14
0.14
0.13
0.125
0.12
0.135
0.15
0.145
0.155
0.16
0.175
0.165
0.165
0.17
0.17
0.175
0.185
0.195
0.19
0.205
0.205
0.22
0.235
0.22
0.24
0.24
0.245
0.24
0.255
0.255
0.26
0.265
0.27
0.27
0.27
0.27
0.27
0.275
0.28
0.275
0.27
0.27
0.27
0.26
0.265
0.24
0.235
0.235
0.23
0.21
0.19
0.19
0.18
0.18
0.17
0.15
0.155
0.15
0.13
0.125
0.115
0.12
0.115
0.095
0.11
0.1
0.08
0.075
0.09
0.065
0.075
0.07
0.055
0.055
0.065
0.05
0.07
0.065
0.065
0.06
0.045
0.045
0.06
0.07
0.045
0.05
0.06
0.075
0.055
0.065
0.06
0.07
0.05
0.05
0.05
0.045
0.05
0.055
0.065
0.05
0.05
0.055
0.055
0.06
0.05
0.06
0.06
0.05
0.055
0.05
0.06
0.05
0.05
0.05
0.055
0.05
0.055
0.055
0.065
0.055
0.065
0.06
0.06
0.07
0.065
0.06
0.05
0.06
0.055
0.055
0.055
0.06
0.055
0.04
0.06
0.06
0.07
0.065
0.065
0.055
0.05
0.06
0.045
0.055
0.06
0.07
0.07
0.065
0.05
0.05
0.045
0.045
0.06
0.06
0.05
0.055
0.055
0.055
0.075
0.055
0.06
0.06
0.07
0.065
0.06
0.06
0.05
0.055
0.055
0.04
0.065
0.055
0.055
0.045
0.045
0.05
0.06
0.06
0.065
0.06
0.045
0.045
0.04
0.05
0.045
0.045
0.055
0.045
0.065
0.045
0.05
0.045
0.045
0.04
0.045
0.035
0.055
0.04
0.045
0.05
0.055
0.045
0.04
0.04
0.04
0.035
0.045
0.04
0.03
0.04
0.04
0.03
0.04
0.04
0.035
0.055
0.05
0.05
0.045
0.04
0.045
0.035
0.05
0.04
0.035
0.05
0.055
0.055
0.065
0.085
0.065
0.07
0.085
0.075
0.075
0.075
0.085
0.105
0.09
0.1
0.12
0.105
0.115
0.1
0.09
0.095
0.11
0.115
0.11
0.1
0.115
0.105
0.085
0.07
0.055
0.045
0.05
0.045
0.055
0.04
0.05
0.04
0.025
0.035
0.02
0.03
0.035
0.035
0.03
0.025
0.015
0.02
0.03
0.04
0.025
0.01
0.035
0.04
0.015
0.015
0.015
0.015
0.005
0.005
0.015
0.015
0.015
0.01
0.01
0.01
0.02
0.025
0.0
-0.02
-0.025
-0.07
-0.11
-0.12
-0.17
-0.21
-0.205
-0.19
-0.155
-0.08
0.055
0.225
0.39
0.6
0.78
0.925
1.09
1.22
1.285
1.26
1.18
1.1
0.995
0.9
0.82
0.675
0.515
0.415
0.375
0.325
0.255
0.21
0.175
0.155
0.115
0.095
0.09
