# TIPE ECG 2021 - ECG-ID Database v1.0.0 par Physionet
# [N° de la personne, N° de l'enregistrement, Période d'échantillonnage, Prénom, Age, Sexe, Date de l'enregistrement]
[14, 2, 0.002, "Martin", 21, "H", "26.04.2005"]
0.28
0.215
0.13
0.095
-0.015
-0.065
-0.06
0.05
0.15
0.23
0.245
0.195
0.095
0.045
-0.17
-0.19
-0.175
-0.04
0.045
0.165
0.205
0.16
0.08
0.0
-0.16
-0.075
-0.03
0.05
0.115
0.21
0.15
0.14
0.055
-0.005
-0.165
-0.145
-0.15
-0.035
0.005
0.165
0.205
0.185
0.08
-0.01
-0.155
-0.15
-0.17
-0.05
0.01
0.165
0.195
0.13
0.03
-0.005
-0.14
-0.19
-0.125
0.02
0.07
0.225
0.205
0.135
0.05
-0.005
-0.17
-0.17
-0.18
-0.105
-0.035
0.105
0.155
0.14
0.035
-0.025
-0.18
-0.205
-0.105
-0.005
0.0
0.165
0.17
0.06
0.005
-0.05
-0.17
-0.135
-0.04
0.05
0.11
0.2
0.175
0.135
0.045
-0.05
-0.19
-0.185
-0.08
0.015
0.065
0.175
0.185
0.09
-0.025
-0.105
-0.175
-0.115
-0.02
0.045
0.085
0.17
0.16
0.075
-0.055
-0.115
-0.155
-0.16
-0.045
0.065
0.15
0.23
0.21
0.12
0.0
-0.1
-0.17
-0.115
-0.02
0.06
0.145
0.225
0.195
0.125
0.005
-0.11
-0.16
-0.145
-0.025
0.045
0.135
0.205
0.185
0.045
-0.015
-0.15
-0.175
-0.13
-0.045
0.02
0.125
0.19
0.185
0.005
-0.105
-0.24
-0.21
-0.17
-0.07
0.015
0.185
0.21
0.18
0.12
0.0
-0.19
-0.17
-0.15
-0.055
0.03
0.16
0.19
0.175
0.085
0.045
-0.085
-0.075
-0.065
0.02
0.075
0.215
0.2
0.185
0.075
0.01
-0.145
-0.17
-0.17
-0.06
0.005
0.255
0.3
0.22
0.05
-0.055
-0.235
-0.25
-0.17
0.025
0.035
0.21
0.205
0.165
0.045
-0.035
-0.185
-0.205
-0.135
-0.015
0.055
0.195
0.205
0.14
0.075
0.03
-0.15
-0.125
-0.05
0.055
0.075
0.21
0.195
0.14
0.035
-0.03
-0.18
-0.2
-0.12
-0.005
0.04
0.175
0.21
0.125
0.02
-0.05
-0.225
-0.275
-0.195
-0.065
0.065
0.21
0.19
0.11
0.005
-0.085
-0.2
-0.17
-0.085
-0.005
0.06
0.18
0.17
0.075
0.03
-0.075
-0.205
-0.155
-0.09
0.01
0.085
0.17
0.17
0.085
0.01
-0.1
-0.205
-0.15
-0.025
0.05
0.115
0.16
0.175
0.125
0.03
-0.05
-0.1
-0.03
0.01
0.095
0.12
0.205
0.2
0.12
0.04
-0.075
-0.085
-0.08
0.01
0.055
0.17
0.235
0.205
0.09
0.015
-0.12
-0.14
-0.12
-0.07
0.005
0.19
0.195
0.165
0.05
-0.025
-0.175
-0.195
-0.155
-0.08
-0.05
0.11
0.16
0.105
0.015
-0.005
-0.19
-0.15
-0.12
-0.05
0.015
0.175
0.175
0.095
-0.02
-0.09
-0.275
-0.2
-0.165
-0.015
0.07
0.205
0.185
0.16
0.08
0.025
-0.115
-0.105
-0.055
0.06
0.01
0.155
0.215
0.15
0.085
0.045
-0.09
-0.1
-0.09
-0.035
0.015
0.14
0.1
0.03
-0.045
-0.175
-0.36
-0.305
-0.215
-0.045
0.04
0.175
0.145
0.04
-0.08
-0.08
-0.17
-0.165
-0.075
0.015
0.065
0.17
0.125
0.085
-0.04
-0.06
-0.13
-0.12
-0.06
0.035
0.095
0.21
0.205
0.13
0.015
-0.06
-0.15
-0.145
-0.085
-0.035
0.075
0.18
0.205
0.125
0.05
-0.07
-0.16
-0.13
-0.08
-0.01
0.06
0.17
0.145
0.055
-0.01
-0.11
-0.185
-0.125
-0.02
0.04
0.095
0.13
0.09
0.025
-0.055
-0.14
-0.14
-0.105
-0.04
0.035
0.135
0.16
0.125
0.075
0.07
-0.095
-0.11
-0.07
-0.025
0.05
0.195
0.22
0.185
0.12
0.065
-0.06
-0.085
-0.075
0.04
0.16
0.28
0.33
0.255
0.165
0.105
-0.075
-0.075
-0.05
0.08
0.145
0.34
0.33
0.27
0.185
0.09
-0.02
0.02
0.01
0.13
0.15
0.285
0.365
0.345
0.225
0.25
0.06
0.005
0.01
0.105
0.13
0.305
0.345
0.315
0.195
0.145
-0.035
-0.025
0.0
0.12
0.16
0.325
0.335
0.27
0.11
0.05
-0.075
-0.11
-0.065
0.065
0.085
0.215
0.21
0.145
0.055
-0.015
-0.16
-0.16
-0.06
0.05
0.065
0.15
0.17
0.04
-0.02
-0.055
-0.17
-0.15
-0.1
0.0
-0.005
0.125
0.165
0.125
0.025
-0.05
-0.16
-0.16
-0.11
0.01
0.045
0.175
0.14
0.035
-0.01
-0.04
-0.165
-0.14
-0.065
0.015
0.105
0.16
0.17
0.06
0.005
-0.03
-0.125
-0.11
-0.125
-0.045
0.02
0.125
0.135
0.09
-0.005
-0.12
-0.225
-0.195
-0.04
0.035
0.08
0.16
0.14
0.055
-0.02
-0.12
-0.21
-0.15
-0.055
-0.04
0.07
0.105
0.085
0.0
-0.075
-0.17
-0.195
-0.15
-0.025
0.07
0.18
0.165
0.15
0.09
0.04
-0.1
-0.14
-0.08
-0.04
-0.005
0.135
0.14
0.125
0.055
-0.025
-0.145
-0.2
-0.145
-0.025
0.04
0.235
0.23
0.165
0.02
-0.045
-0.16
-0.165
-0.14
-0.025
-0.005
0.1
0.145
0.165
0.05
-0.035
-0.175
-0.2
-0.145
-0.035
0.035
0.18
0.175
0.11
0.02
-0.01
-0.115
-0.125
-0.11
-0.03
0.02
0.16
0.15
0.11
0.025
-0.02
-0.22
-0.195
-0.13
-0.06
-0.03
0.17
0.15
0.065
0.0
0.005
-0.13
-0.1
-0.105
-0.035
0.015
0.19
0.185
0.065
-0.03
-0.095
-0.185
-0.195
-0.15
-0.055
0.04
0.125
0.135
0.115
0.025
-0.09
-0.175
-0.14
-0.02
0.045
0.055
0.17
0.145
0.05
-0.06
-0.085
-0.155
-0.175
-0.085
-0.01
0.06
0.155
0.15
0.045
-0.005
-0.05
-0.175
-0.165
-0.09
-0.015
0.045
0.15
0.13
0.05
0.015
-0.095
-0.205
-0.19
-0.105
-0.02
0.06
0.135
0.08
0.02
-0.07
-0.15
-0.16
-0.105
-0.06
0.02
0.08
0.14
0.115
0.07
0.035
-0.09
-0.18
-0.18
-0.105
-0.06
0.055
0.135
0.105
0.015
-0.05
-0.12
-0.16
-0.175
-0.045
0.02
0.12
0.14
0.105
0.06
0.005
-0.15
-0.15
-0.165
-0.04
0.01
0.145
0.165
0.155
0.03
-0.02
-0.145
-0.18
-0.17
-0.065
0.02
0.135
0.165
0.135
0.015
-0.055
-0.2
-0.165
-0.155
-0.045
0.005
0.155
0.15
0.115
0.01
-0.025
-0.145
-0.14
-0.07
0.005
0.005
0.145
0.245
0.245
0.1
0.005
-0.18
-0.21
-0.13
-0.005
0.075
0.245
0.25
0.125
0.02
0.005
-0.15
-0.21
-0.155
-0.045
-0.045
0.08
0.16
0.125
0.025
-0.035
-0.19
-0.205
-0.1
0.0
0.01
0.13
0.135
0.07
-0.025
-0.075
-0.205
-0.205
-0.1
-0.02
0.065
0.185
0.165
0.03
-0.065
-0.135
-0.23
-0.215
-0.115
-0.025
0.05
0.155
0.125
0.005
-0.065
-0.09
-0.125
-0.07
0.005
0.095
0.19
0.32
0.335
0.21
0.055
-0.015
-0.11
-0.08
-0.02
0.02
0.125
0.245
0.22
0.115
-0.025
-0.155
-0.23
-0.27
-0.185
-0.175
-0.075
0.02
0.01
-0.08
-0.135
-0.195
-0.205
-0.135
-0.03
0.04
0.1
0.175
0.155
0.03
-0.075
-0.205
-0.17
-0.14
-0.055
0.05
0.19
0.21
0.185
0.045
-0.015
-0.13
-0.175
-0.22
-0.075
-0.025
0.115
0.175
0.15
0.02
-0.02
-0.16
-0.155
-0.15
-0.06
-0.02
0.165
0.195
0.155
0.075
-0.03
-0.14
-0.135
-0.135
-0.025
-0.02
0.12
0.12
0.125
0.065
0.03
-0.15
-0.12
-0.06
0.065
0.1
0.23
0.21
0.165
0.07
0.07
-0.15
-0.135
-0.045
0.065
0.09
0.245
0.28
0.185
0.07
-0.04
-0.17
-0.135
-0.1
-0.015
0.05
0.215
0.29
0.2
0.11
0.075
-0.065
-0.075
0.035
0.135
0.19
0.33
0.295
0.255
0.17
0.11
-0.015
0.015
0.075
0.18
0.265
0.37
0.35
0.27
0.19
0.125
0.005
-0.015
0.06
0.145
0.18
0.315
0.35
0.29
0.17
0.095
-0.025
-0.065
0.055
0.135
0.19
0.3
0.31
0.18
0.095
0.03
-0.125
-0.135
-0.065
0.04
0.165
0.26
0.18
0.08
0.02
-0.085
-0.145
-0.125
-0.03
0.01
0.12
0.16
0.095
0.06
0.0
-0.095
-0.19
-0.195
-0.075
-0.06
0.105
0.165
0.145
0.035
-0.035
-0.155
-0.16
-0.14
-0.065
0.01
0.1
0.17
0.145
0.05
-0.015
-0.155
-0.155
-0.195
-0.095
0.0
0.115
0.145
0.105
0.055
-0.025
-0.16
-0.18
-0.16
-0.085
-0.05
0.105
0.11
0.08
0.0
-0.055
-0.2
-0.195
-0.175
-0.06
-0.025
0.11
0.075
0.085
0.0
-0.025
-0.16
-0.19
-0.155
-0.085
-0.02
0.13
0.125
0.08
-0.035
0.035
-0.12
-0.155
-0.135
-0.07
-0.045
0.145
0.22
0.145
0.03
0.015
-0.16
-0.195
-0.125
0.005
0.035
0.105
0.1
0.06
-0.025
-0.075
-0.15
-0.12
-0.1
0.015
0.05
0.175
0.19
0.075
0.005
-0.05
-0.195
-0.23
-0.155
-0.02
0.05
0.155
0.12
0.06
-0.04
-0.05
-0.065
-0.125
-0.075
-0.005
0.08
0.165
0.185
0.1
0.05
-0.05
-0.185
-0.2
-0.09
-0.01
0.045
0.21
0.235
0.14
-0.005
-0.09
-0.19
-0.155
-0.065
0.04
0.085
0.2
0.18
0.065
-0.01
-0.075
-0.1
-0.065
-0.035
0.015
0.085
0.175
0.175
0.0
-0.04
-0.095
-0.15
-0.155
-0.05
0.0
0.09
0.18
0.21
0.155
0.075
-0.08
-0.115
-0.095
0.02
0.06
0.18
0.195
0.175
0.015
-0.035
-0.145
-0.155
-0.08
0.015
0.055
0.185
0.19
0.17
0.05
0.015
-0.1
-0.105
-0.115
0.02
0.095
0.28
0.245
0.195
0.09
0.04
-0.07
-0.06
-0.105
-0.03
0.035
0.265
0.195
0.1
0.015
0.015
-0.11
-0.095
-0.035
0.06
0.105
0.215
0.215
0.175
0.05
0.03
-0.14
-0.17
-0.1
0.025
0.125
0.235
0.17
0.115
0.06
0.01
-0.155
-0.155
-0.08
0.035
0.07
0.185
0.215
0.105
0.005
-0.03
-0.19
-0.19
-0.09
0.005
0.065
0.175
0.145
0.085
-0.025
-0.075
-0.24
-0.215
-0.13
-0.005
0.035
0.155
0.175
0.075
-0.025
-0.095
-0.24
-0.25
-0.17
-0.07
0.04
0.195
0.155
0.065
-0.02
-0.1
-0.22
-0.215
-0.165
0.005
0.105
0.18
0.21
0.185
0.03
-0.065
-0.11
-0.06
0.04
0.13
0.17
0.245
0.21
0.105
0.05
0.0
-0.085
-0.125
-0.05
-0.045
-0.03
0.0
-0.02
-0.095
-0.155
-0.295
-0.33
-0.28
-0.105
-0.035
0.055
0.13
0.055
-0.005
-0.085
-0.205
-0.21
-0.165
-0.04
0.03
0.125
0.135
0.14
0.01
-0.05
-0.19
-0.17
-0.18
-0.075
-0.015
0.14
0.125
0.15
0.045
-0.025
-0.19
-0.18
-0.12
-0.055
0.005
0.19
0.22
0.125
0.04
-0.06
-0.205
-0.23
-0.125
0.04
0.07
0.195
0.145
0.115
0.025
0.015
-0.175
-0.19
-0.125
0.01
0.055
0.14
0.135
0.13
0.035
-0.005
-0.17
-0.16
-0.09
0.04
0.06
0.205
0.18
0.16
0.05
0.025
-0.09
-0.075
-0.06
0.03
0.065
0.24
0.27
0.16
0.045
-0.01
-0.095
-0.08
0.005
0.1
0.205
0.335
0.32
0.265
0.22
0.17
-0.015
-0.035
0.085
0.185
0.19
0.265
0.295
0.265
0.195
0.115
0.015
0.01
0.1
0.195
0.255
0.37
0.395
0.32
0.21
0.13
0.05
0.025
0.095
0.22
0.305
0.41
0.41
0.29
0.22
0.1
-0.01
0.045
0.095
0.185
0.21
0.27
0.265
0.185
0.06
0.015
-0.08
-0.045
0.06
0.085
0.145
0.225
0.23
0.145
0.075
-0.02
-0.095
-0.11
0.0
0.04
0.185
0.235
0.225
0.09
0.0
-0.135
-0.175
-0.12
-0.025
0.025
0.16
0.22
0.18
0.05
-0.015
-0.115
-0.15
-0.135
-0.01
0.07
0.195
0.21
0.16
0.055
0.045
-0.06
-0.125
-0.115
0.0
0.08
0.2
0.21
0.155
0.055
0.01
-0.125
-0.13
-0.12
-0.045
0.025
0.165
0.155
0.145
0.005
-0.01
-0.135
-0.105
-0.125
-0.085
-0.015
0.195
0.2
0.145
0.075
-0.045
-0.18
-0.19
-0.18
-0.06
0.05
0.23
0.185
0.155
0.035
0.025
-0.115
-0.095
-0.07
-0.005
0.015
0.175
0.195
0.13
0.015
-0.03
-0.14
-0.185
-0.125
-0.04
0.035
0.195
0.175
0.085
-0.05
-0.075
-0.16
-0.175
-0.09
-0.015
0.02
0.145
0.14
0.025
-0.09
-0.1
-0.21
-0.155
-0.065
-0.03
0.08
0.185
0.185
0.12
0.0
-0.095
-0.2
-0.16
-0.03
0.055
0.115
0.23
0.2
0.07
-0.035
-0.105
-0.19
-0.165
-0.095
-0.035
0.085
0.165
0.145
0.09
-0.005
-0.1
-0.165
-0.14
-0.08
-0.045
0.045
0.16
0.115
0.005
-0.035
-0.125
-0.175
-0.145
-0.08
-0.025
0.005
0.075
0.1
0.015
-0.065
-0.115
-0.125
-0.155
-0.095
-0.02
0.085
0.135
0.13
0.055
0.01
-0.1
-0.145
-0.125
0.005
0.055
0.135
0.15
0.125
0.0
-0.045
-0.155
-0.175
-0.15
-0.085
0.025
0.135
0.115
0.04
-0.08
-0.11
-0.185
-0.15
-0.15
-0.09
-0.01
0.15
0.135
0.125
0.04
-0.015
-0.21
-0.195
-0.155
-0.085
-0.005
0.135
0.115
0.105
0.0
-0.03
-0.125
-0.115
-0.14
-0.01
0.05
0.18
0.225
0.16
0.045
-0.015
-0.18
-0.21
-0.14
-0.01
0.035
0.18
0.185
0.12
0.01
-0.07
-0.21
-0.2
-0.165
-0.09
-0.015
0.1
0.135
0.11
0.05
-0.005
-0.085
-0.12
-0.095
-0.02
0.035
0.2
0.195
0.105
0.045
-0.015
-0.135
-0.145
-0.045
0.02
0.09
0.19
0.21
0.13
0.03
-0.015
-0.125
-0.19
-0.05
0.05
0.12
0.21
0.215
0.135
0.03
-0.045
-0.18
-0.15
-0.14
-0.045
0.03
0.125
0.09
0.02
-0.05
-0.08
-0.16
-0.175
-0.125
-0.075
0.04
0.145
0.15
0.04
-0.06
-0.095
-0.175
-0.19
-0.105
-0.01
0.1
0.185
0.175
0.025
-0.07
-0.125
-0.23
-0.19
-0.045
0.035
0.125
0.19
0.175
0.05
0.01
-0.08
-0.115
-0.1
0.025
0.095
0.215
0.235
0.13
0.05
0.005
-0.065
-0.075
-0.06
0.04
0.06
0.15
0.185
0.115
-0.045
-0.13
-0.3
-0.305
-0.26
-0.18
-0.065
0.08
0.095
0.06
0.015
-0.01
-0.17
-0.15
-0.145
-0.055
-0.075
0.095
0.14
0.1
0.02
-0.035
-0.16
-0.165
-0.12
-0.01
-0.015
0.105
0.125
0.115
-0.015
-0.035
-0.11
-0.15
-0.145
-0.03
-0.015
0.165
0.155
0.135
0.085
0.05
-0.14
-0.13
-0.13
-0.06
-0.025
0.155
0.195
0.13
0.025
-0.06
-0.175
-0.115
-0.045
0.03
0.09
0.195
0.155
0.115
0.07
0.0
-0.12
-0.12
-0.08
0.08
0.16
0.2
0.22
0.125
0.02
0.025
-0.08
-0.12
-0.03
0.095
0.16
0.275
0.24
0.115
0.105
0.06
-0.065
-0.07
0.045
0.195
0.275
0.33
0.295
0.29
0.2
0.11
0.035
0.055
0.125
0.155
0.27
0.37
0.36
0.33
0.235
0.165
0.09
0.1
0.18
0.225
0.3
0.395
0.36
0.295
0.275
0.18
0.155
0.145
0.18
0.29
0.38
0.435
0.39
0.29
0.22
0.13
0.065
0.115
0.16
0.185
0.295
0.41
0.385
0.285
0.22
0.085
0.005
-0.02
0.105
0.2
0.35
0.375
0.29
0.2
0.145
-0.005
-0.045
-0.015
0.045
0.11
0.26
0.225
0.18
0.095
0.075
-0.095
-0.11
-0.06
0.08
0.11
0.24
0.255
0.255
0.145
0.065
-0.095
-0.065
-0.1
-0.01
0.1
0.24
0.28
0.175
0.135
0.105
-0.1
-0.095
-0.06
0.03
0.125
0.29
0.275
0.22
0.1
0.02
-0.16
-0.175
-0.11
0.005
0.08
0.24
0.225
0.165
0.055
-0.01
-0.08
-0.075
-0.005
0.005
0.065
0.21
0.235
0.18
0.075
-0.005
-0.105
-0.1
-0.09
-0.025
0.05
0.17
0.2
0.17
0.09
0.005
-0.125
-0.14
-0.12
-0.015
0.01
0.145
0.14
0.045
0.01
-0.11
-0.185
-0.165
-0.1
0.025
0.05
0.15
0.165
0.065
-0.045
-0.095
-0.2
-0.205
-0.095
0.005
0.055
0.09
0.11
0.055
-0.02
-0.105
-0.255
-0.185
-0.045
0.025
0.085
0.175
0.165
0.055
-0.06
-0.2
-0.255
-0.19
-0.115
-0.07
0.07
0.17
0.13
0.01
-0.04
-0.155
-0.16
-0.155
-0.05
0.015
0.095
0.135
0.125
0.035
-0.04
-0.205
-0.22
-0.17
-0.125
-0.085
0.055
0.1
0.07
0.02
-0.045
-0.195
-0.195
-0.185
-0.07
-0.045
0.06
0.08
0.1
-0.025
-0.14
-0.26
-0.245
-0.205
-0.125
-0.03
0.12
0.21
0.155
0.005
-0.055
-0.185
-0.195
-0.165
-0.085
-0.05
0.08
0.11
0.075
-0.01
-0.03
-0.15
-0.165
-0.155
-0.06
-0.005
0.15
0.13
0.06
-0.02
-0.075
-0.245
-0.235
-0.165
-0.065
0.045
0.2
0.165
0.095
0.03
-0.065
-0.27
-0.255
-0.195
-0.125
-0.04
0.115
0.11
0.055
0.03
-0.065
-0.2
-0.245
-0.17
-0.05
-0.01
0.13
0.095
0.01
-0.05
-0.11
-0.23
-0.18
-0.14
-0.06
0.01
0.145
0.075
-0.01
-0.06
-0.145
-0.265
-0.22
-0.14
-0.01
0.025
0.09
0.08
0.005
-0.045
-0.17
-0.275
-0.26
-0.15
-0.025
0.065
0.13
0.08
-0.005
-0.06
-0.145
-0.23
-0.215
-0.15
-0.085
0.035
0.13
0.12
0.055
-0.05
-0.155
-0.19
-0.125
-0.06
-0.005
0.07
0.125
0.125
0.025
0.01
-0.08
-0.14
-0.125
-0.06
-0.06
0.055
0.11
0.105
0.015
-0.075
-0.195
-0.26
-0.225
-0.105
-0.025
0.09
0.085
0.085
0.0
-0.1
-0.215
-0.25
-0.19
-0.08
-0.005
0.075
0.055
0.055
-0.025
-0.08
-0.215
-0.185
-0.155
-0.065
-0.085
0.045
0.06
0.035
-0.03
-0.065
-0.245
-0.25
-0.215
-0.165
-0.06
0.095
0.02
0.02
-0.015
-0.05
-0.16
-0.15
-0.125
-0.03
-0.015
0.15
0.15
0.135
0.035
-0.035
-0.145
-0.12
-0.08
0.03
0.09
0.205
0.19
0.07
-0.085
-0.2
-0.3
-0.33
-0.24
-0.14
-0.145
-0.03
-0.015
-0.045
-0.08
-0.095
-0.235
-0.225
-0.18
-0.05
-0.035
0.08
0.05
0.0
-0.075
-0.1
-0.235
-0.25
-0.14
-0.055
-0.01
0.13
0.145
0.115
-0.02
-0.13
-0.29
-0.25
-0.155
-0.06
0.0
0.095
0.08
0.025
-0.055
-0.105
-0.195
-0.19
-0.15
-0.03
0.02
0.14
0.15
0.075
-0.055
-0.12
-0.185
-0.165
-0.105
-0.02
0.025
0.135
0.16
0.04
-0.07
-0.14
-0.16
-0.16
-0.1
0.0
0.135
0.205
0.165
0.07
0.015
-0.08
-0.195
-0.145
-0.075
-0.025
0.09
0.155
0.165
0.09
0.035
-0.095
-0.105
-0.07
-0.02
0.05
0.15
0.18
0.19
0.065
0.055
-0.09
-0.07
-0.03
0.095
0.15
0.26
0.32
0.27
0.145
0.015
-0.1
-0.075
0.025
0.115
0.2
0.325
0.365
0.305
0.21
0.145
-0.03
-0.04
-0.015
0.085
0.145
0.24
0.27
0.325
0.195
0.125
-0.05
-0.02
0.08
0.145
0.12
0.215
0.22
0.18
0.07
0.0
-0.11
-0.12
-0.07
0.055
0.05
0.195
0.21
0.175
0.07
-0.05
-0.195
-0.225
-0.19
-0.1
0.0
0.14
0.14
0.06
-0.045
-0.09
-0.23
-0.19
-0.115
-0.1
-0.095
0.06
0.085
0.015
-0.045
-0.06
-0.18
-0.235
-0.215
-0.08
0.07
0.165
0.135
0.03
-0.055
-0.09
-0.2
-0.21
-0.175
-0.115
-0.03
0.15
0.125
0.02
-0.055
-0.11
-0.175
-0.195
-0.16
-0.075
0.005
0.095
0.075
0.005
-0.085
-0.16
-0.225
-0.2
-0.205
-0.115
-0.07
0.075
0.155
0.055
-0.075
-0.16
-0.195
-0.205
-0.15
-0.075
0.04
0.145
0.095
-0.025
-0.07
-0.145
-0.2
-0.2
-0.16
-0.085
0.065
0.15
0.105
0.0
-0.085
-0.18
-0.205
-0.21
-0.09
0.01
0.115
0.16
0.105
-0.025
-0.13
-0.215
-0.155
-0.145
-0.1
-0.055
0.05
0.1
0.09
-0.03
-0.12
-0.23
-0.225
-0.22
-0.15
-0.035
0.1
0.075
-0.005
-0.055
-0.045
-0.14
-0.145
-0.135
-0.06
-0.02
0.11
0.08
0.055
-0.035
-0.085
-0.205
-0.205
-0.185
-0.045
-0.02
0.11
0.135
0.025
-0.06
-0.1
-0.215
-0.23
-0.18
-0.1
-0.065
0.07
0.085
0.01
-0.065
-0.085
-0.225
-0.2
-0.16
-0.025
0.03
0.125
0.075
0.01
-0.08
-0.18
-0.285
-0.24
-0.16
-0.05
0.01
0.13
0.14
0.12
0.055
-0.06
-0.2
-0.18
-0.135
-0.06
-0.065
0.085
0.15
0.095
-0.005
-0.025
-0.16
-0.255
-0.18
-0.09
-0.02
0.06
0.095
0.01
-0.06
-0.2
-0.28
-0.22
-0.245
-0.125
-0.01
0.105
0.13
0.005
-0.075
-0.185
-0.245
-0.21
-0.13
-0.065
0.045
0.165
0.155
0.055
-0.015
-0.115
-0.22
-0.15
-0.06
-0.065
0.025
0.115
0.145
0.045
0.0
-0.105
-0.145
-0.13
-0.02
0.045
0.07
0.105
0.15
0.06
-0.02
-0.125
-0.14
-0.145
-0.07
-0.02
0.08
0.12
0.105
-0.025
-0.095
-0.225
-0.225
-0.19
-0.11
-0.065
0.06
0.075
0.01
-0.095
-0.07
-0.165
-0.175
-0.17
-0.085
-0.04
0.13
0.1
0.05
-0.015
-0.06
-0.205
-0.19
-0.225
-0.15
-0.065
0.125
0.125
0.1
0.005
-0.08
-0.24
-0.235
-0.16
-0.075
-0.04
0.115
0.12
0.095
-0.01
-0.075
-0.12
-0.14
-0.055
0.06
0.065
0.22
0.26
0.195
0.075
0.04
-0.095
-0.11
-0.045
-0.015
0.005
0.055
0.035
-0.045
-0.135
-0.215
-0.355
-0.28
-0.17
-0.095
-0.045
0.06
0.08
0.06
-0.04
-0.125
-0.215
-0.205
-0.16
-0.05
0.04
0.145
0.145
0.055
-0.06
-0.18
-0.285
-0.235
-0.095
-0.02
-0.01
0.13
0.175
0.095
-0.03
-0.09
-0.215
-0.2
-0.11
-0.035
0.04
0.18
0.155
0.02
-0.06
-0.065
-0.165
-0.14
-0.09
-0.05
0.045
0.115
0.12
0.05
0.01
-0.085
-0.17
-0.2
-0.15
-0.08
0.07
0.19
0.2
0.095
-0.03
-0.095
-0.185
-0.16
-0.07
-0.05
0.035
0.14
0.15
0.125
0.07
-0.055
-0.09
-0.06
-0.01
0.045
0.14
0.2
0.19
0.1
0.045
-0.095
-0.075
-0.025
0.055
0.1
0.21
0.235
0.2
0.13
0.055
-0.045
-0.035
-0.01
0.1
0.16
0.29
0.305
0.22
0.18
0.175
-0.035
-0.065
-0.02
0.16
0.225
0.375
0.335
0.25
0.15
0.12
-0.025
-0.02
0.045
0.13
0.19
0.315
0.335
0.365
0.2
0.165
-0.015
-0.065
-0.03
0.025
0.055
0.18
0.12
0.16
0.145
0.07
-0.1
-0.135
-0.085
0.05
0.1
0.195
0.17
0.13
0.04
-0.04
-0.215
-0.22
-0.135
-0.075
-0.065
0.095
0.055
0.05
0.02
-0.04
-0.195
-0.2
-0.105
-0.06
0.01
0.155
0.12
0.02
-0.065
-0.07
-0.185
-0.245
-0.15
-0.055
0.04
0.135
0.08
0.03
-0.065
-0.15
-0.27
-0.28
-0.165
-0.055
0.055
0.165
0.14
0.015
-0.1
-0.155
-0.245
-0.23
-0.115
-0.04
0.055
0.13
0.08
-0.03
-0.1
-0.145
-0.23
-0.265
-0.165
-0.045
0.055
0.105
0.09
0.06
-0.045
-0.2
-0.215
-0.18
-0.075
-0.015
0.035
0.065
0.07
0.0
-0.05
-0.135
-0.17
-0.175
-0.08
-0.035
0.095
0.15
0.095
0.01
-0.11
-0.255
-0.225
-0.135
-0.06
-0.08
0.06
0.165
0.1
0.005
-0.06
-0.185
-0.195
-0.2
-0.105
-0.07
0.05
0.08
0.04
-0.04
-0.065
-0.23
-0.255
-0.21
-0.095
-0.01
0.115
0.105
0.1
-0.005
-0.03
-0.19
-0.175
-0.185
-0.09
-0.04
0.135
0.105
0.11
0.03
-0.045
-0.195
-0.21
-0.175
-0.07
-0.01
0.155
0.125
0.065
-0.095
-0.115
-0.19
-0.2
-0.12
-0.085
-0.075
0.05
0.075
0.02
-0.065
-0.11
-0.24
-0.205
-0.155
-0.07
0.005
0.115
0.13
0.03
-0.07
-0.13
-0.235
-0.185
-0.16
-0.08
-0.035
0.145
0.125
0.055
-0.055
-0.13
-0.26
-0.235
-0.14
-0.01
0.065
0.145
0.12
0.01
-0.07
-0.1
-0.195
-0.2
-0.17
-0.095
0.005
0.145
0.135
-0.03
-0.105
-0.18
-0.235
-0.19
-0.165
-0.055
0.025
0.12
0.105
0.025
-0.07
-0.125
-0.185
-0.255
-0.215
-0.115
-0.035
0.1
0.075
-0.01
-0.055
-0.145
-0.23
-0.19
-0.07
0.0
0.09
0.17
0.06
-0.03
-0.025
-0.15
-0.215
-0.24
-0.15
-0.055
0.085
0.115
0.11
0.01
-0.02
-0.175
-0.185
-0.16
-0.085
-0.035
0.07
0.1
0.115
0.065
0.035
-0.14
-0.175
-0.17
-0.11
-0.03
0.125
0.19
0.16
0.005
-0.07
-0.22
-0.195
-0.19
-0.1
-0.02
0.095
0.1
0.06
0.03
-0.02
-0.185
-0.2
-0.24
-0.175
-0.04
0.15
0.13
0.05
-0.075
-0.13
-0.24
-0.2
-0.185
-0.095
-0.045
0.095
0.1
0.06
-0.025
-0.05
-0.235
-0.22
-0.15
-0.07
-0.1
0.045
0.035
-0.03
-0.09
-0.12
-0.245
-0.18
-0.08
0.015
0.095
0.205
0.23
0.15
0.045
-0.03
-0.195
-0.215
-0.13
0.0
0.06
0.235
0.26
0.155
0.03
-0.075
-0.22
-0.195
-0.145
-0.095
-0.115
-0.045
-0.07
-0.18
-0.24
-0.18
-0.22
-0.245
-0.19
-0.11
-0.01
0.115
0.12
0.085
-0.01
-0.075
-0.19
-0.225
-0.105
-0.02
0.025
0.09
0.085
0.02
-0.08
-0.16
-0.245
-0.23
-0.11
-0.01
0.04
0.14
0.145
0.06
-0.045
-0.09
-0.135
-0.16
-0.09
-0.015
0.095
0.145
0.11
-0.005
-0.08
-0.195
-0.26
-0.25
-0.145
-0.05
0.125
0.21
0.16
0.03
-0.055
-0.225
-0.22
-0.145
-0.055
0.005
0.085
0.145
0.11
-0.005
-0.03
-0.115
-0.1
-0.105
-0.035
0.085
0.215
0.195
0.2
0.065
-0.04
-0.13
-0.15
-0.145
-0.06
0.03
0.175
0.19
0.14
0.055
0.035
-0.1
-0.075
-0.085
0.045
0.095
0.25
0.265
0.23
0.125
0.025
-0.095
-0.065
0.01
0.075
0.105
0.26
0.325
0.29
0.18
0.145
0.0
-0.01
0.025
0.115
0.16
0.315
0.305
0.255
0.12
0.12
-0.025
-0.055
-0.035
0.05
0.125
0.275
0.27
0.22
0.1
0.01
-0.12
-0.105
-0.075
-0.045
0.025
0.17
0.19
0.115
0.005
-0.05
-0.21
-0.195
-0.08
0.01
0.07
0.165
0.135
0.07
-0.01
-0.08
-0.185
-0.16
-0.105
-0.04
-0.01
0.08
0.115
0.01
-0.075
-0.15
-0.23
-0.21
-0.095
0.015
0.08
0.155
0.12
0.01
-0.085
-0.155
-0.265
-0.23
-0.155
-0.1
-0.025
0.085
0.09
0.035
-0.045
-0.12
-0.17
-0.19
-0.145
-0.08
0.015
0.08
0.06
0.0
-0.09
-0.19
-0.195
-0.205
-0.145
-0.095
0.05
0.18
0.155
0.025
-0.08
-0.16
-0.16
-0.18
-0.13
-0.065
0.055
0.15
0.045
-0.075
-0.115
-0.225
-0.21
-0.205
-0.085
-0.025
0.095
0.11
0.025
-0.04
-0.105
-0.2
-0.225
-0.205
-0.045
0.03
0.115
0.15
0.125
0.025
-0.055
-0.19
-0.165
-0.15
-0.085
-0.055
0.12
0.1
0.05
-0.025
-0.07
-0.2
-0.195
-0.185
-0.13
-0.075
0.14
0.12
0.12
0.01
-0.025
-0.2
-0.195
-0.145
-0.07
-0.085
0.05
0.095
0.045
-0.01
-0.065
-0.185
-0.2
-0.135
-0.08
-0.045
0.105
0.125
0.11
-0.025
-0.115
-0.245
-0.235
-0.13
-0.055
0.01
0.1
0.125
0.065
-0.1
-0.125
-0.26
-0.285
-0.2
-0.08
-0.03
0.09
0.12
0.03
-0.1
-0.155
-0.225
-0.155
-0.08
-0.1
-0.03
0.11
0.095
0.04
-0.025
-0.11
-0.215
-0.265
-0.13
0.01
0.055
0.155
0.11
0.0
-0.065
-0.135
-0.23
-0.215
-0.145
-0.035
0.025
0.12
0.08
0.02
-0.035
-0.055
-0.23
-0.24
-0.145
-0.05
0.06
0.135
0.14
0.02
-0.105
-0.225
-0.27
-0.255
-0.195
-0.07
0.02
0.08
0.085
-0.02
-0.095
-0.225
-0.205
-0.2
-0.105
-0.045
0.065
0.095
0.06
-0.01
-0.075
-0.165
-0.185
-0.2
-0.085
-0.02
0.14
0.12
0.045
-0.06
-0.125
-0.21
-0.175
-0.115
-0.045
-0.02
0.035
0.045
0.085
-0.005
-0.035
-0.19
-0.245
-0.21
-0.105
-0.075
0.075
0.1
0.065
-0.085
-0.14
-0.24
-0.215
-0.16
0.015
0.045
0.12
0.105
0.12
0.005
-0.035
-0.195
-0.2
-0.135
-0.04
0.025
0.11
0.13
0.105
0.085
0.035
-0.125
-0.135
-0.135
-0.12
-0.055
0.135
0.12
0.09
-0.06
-0.105
-0.2
-0.22
-0.14
-0.09
-0.04
0.115
0.08
0.005
-0.085
-0.11
-0.18
-0.15
-0.12
-0.07
-0.05
0.1
0.06
0.0
-0.08
-0.11
-0.13
-0.185
-0.175
-0.045
0.025
0.13
0.125
0.025
-0.095
-0.145
-0.225
-0.21
-0.16
-0.095
-0.02
0.12
0.11
0.055
-0.005
-0.07
-0.17
-0.16
-0.105
-0.01
0.095
0.185
0.15
0.09
-0.015
-0.09
-0.145
-0.09
0.0
0.065
0.13
0.17
0.09
-0.065
-0.195
-0.29
-0.32
-0.305
-0.21
-0.12
-0.015
0.1
0.13
0.07
0.0
-0.13
-0.215
-0.21
-0.13
-0.075
0.0
0.095
0.07
-0.05
-0.09
-0.17
-0.165
-0.155
-0.075
-0.045
0.07
0.07
0.035
-0.045
-0.075
-0.18
-0.13
-0.105
-0.075
-0.02
0.13
0.17
0.095
0.04
-0.005
-0.16
-0.185
-0.15
-0.05
-0.02
0.12
0.17
0.145
0.055
-0.01
-0.15
-0.12
-0.12
-0.05
-0.07
0.095
0.13
0.125
0.065
-0.025
-0.12
-0.14
-0.135
-0.055
0.04
0.2
0.145
0.085
0.03
-0.04
-0.115
-0.12
-0.09
0.065
0.105
0.225
0.22
0.12
0.05
-0.005
-0.115
-0.115
-0.085
-0.025
0.075
0.245
0.27
0.21
0.13
0.1
-0.07
-0.13
-0.045
0.08
0.165
0.32
0.32
0.165
0.115
0.105
0.01
-0.005
0.08
0.16
0.235
0.345
0.345
0.22
0.16
0.105
-0.03
0.01
0.075
0.12
0.21
0.295
0.305
0.2
0.07
0.07
0.02
0.02
0.05
0.11
0.195
0.24
0.18
0.15
0.065
-0.055
-0.105
-0.17
-0.08
0.03
0.15
0.215
0.17
0.07
-0.055
-0.16
-0.21
-0.175
-0.08
0.0
0.16
0.175
0.15
0.035
-0.055
-0.155
-0.16
-0.15
-0.065
-0.03
0.09
0.14
0.08
0.005
-0.045
-0.14
-0.185
-0.19
-0.095
-0.015
0.14
0.165
0.11
0.03
-0.015
-0.18
-0.22
-0.15
-0.055
-0.045
0.115
0.15
0.125
0.015
-0.045
-0.23
-0.22
-0.2
-0.12
-0.035
0.125
0.14
0.07
-0.02
-0.05
-0.15
-0.175
-0.165
-0.09
-0.025
0.1
0.165
0.11
-0.015
-0.065
-0.195
-0.17
-0.135
-0.065
-0.02
0.14
0.09
0.04
-0.09
-0.105
-0.22
-0.195
-0.14
-0.015
0.03
0.165
0.165
0.115
0.01
-0.065
-0.205
-0.21
-0.155
-0.08
-0.01
0.145
0.11
0.05
-0.05
-0.05
-0.195
-0.155
-0.075
-0.025
0.015
0.12
0.11
0.055
-0.02
0.025
-0.115
-0.165
-0.155
-0.06
0.015
0.115
0.14
0.075
-0.045
-0.09
-0.175
-0.15
-0.095
-0.055
0.025
0.09
0.12
0.065
-0.065
-0.155
-0.205
-0.225
-0.165
-0.07
0.025
0.155
0.1
-0.01
-0.08
-0.145
-0.22
-0.21
-0.105
0.025
0.075
0.12
0.095
0.02
0.015
-0.11
-0.19
-0.12
-0.065
-0.07
0.045
0.085
0.12
0.02
-0.05
-0.155
-0.22
-0.195
-0.09
-0.015
0.075
0.125
0.115
-0.01
-0.085
-0.18
-0.195
-0.18
-0.095
-0.05
0.07
0.11
0.08
-0.01
-0.035
-0.17
-0.23
-0.18
-0.1
-0.055
0.065
0.05
0.06
-0.015
-0.005
-0.095
-0.13
-0.135
-0.105
-0.055
0.09
0.14
0.085
0.005
-0.085
-0.21
-0.19
-0.175
-0.1
0.0
0.105
0.115
0.11
-0.01
-0.065
-0.195
-0.175
-0.155
-0.07
-0.035
0.115
0.085
0.025
-0.035
-0.04
-0.18
-0.15
-0.16
-0.05
0.015
0.125
0.125
0.065
-0.045
-0.105
-0.22
-0.215
-0.165
-0.08
-0.02
0.11
0.095
0.025
-0.095
-0.075
-0.15
-0.18
-0.15
-0.02
0.025
0.17
0.125
0.095
-0.005
-0.065
-0.23
-0.255
-0.095
-0.01
0.0
0.165
0.15
0.13
0.01
-0.04
-0.135
-0.17
-0.09
0.06
0.17
0.22
0.205
0.09
-0.07
-0.16
-0.2
-0.145
-0.075
0.025
0.105
0.14
0.11
-0.005
-0.06
-0.105
-0.18
-0.15
-0.105
-0.08
-0.025
0.08
0.075
0.005
-0.065
-0.195
-0.25
-0.235
-0.12
-0.05
0.045
0.155
0.115
0.05
-0.02
-0.13
-0.24
-0.26
-0.175
-0.095
0.04
0.1
0.105
0.035
0.01
-0.105
-0.175
-0.175
-0.075
0.07
0.205
0.265
0.22
0.135
0.05
-0.115
-0.095
-0.075
0.015
0.1
0.195
0.195
0.12
-0.005
-0.07
-0.23
-0.23
-0.235
-0.165
-0.145
-0.025
0.005
0.025
-0.075
-0.125
-0.255
-0.21
-0.15
-0.04
0.025
0.13
0.175
0.14
0.025
-0.05
-0.255
-0.22
-0.195
-0.08
-0.005
0.115
0.095
0.035
-0.02
0.01
-0.155
-0.18
-0.1
0.005
0.065
0.155
0.12
0.04
0.0
-0.045
-0.16
-0.175
-0.15
-0.03
0.065
0.085
0.085
0.12
0.06
0.005
-0.13
-0.095
-0.08
-0.02
0.01
0.145
0.165
0.095
-0.005
-0.06
-0.155
-0.095
-0.02
0.025
0.09
0.165
0.18
0.08
0.0
-0.045
-0.12
-0.12
-0.06
0.015
0.05
0.185
0.215
0.105
0.025
-0.02
-0.12
-0.1
-0.02
0.015
0.135
0.27
0.285
0.17
0.085
0.02
-0.04
-0.04
-0.005
0.085
0.175
0.285
0.29
0.21
0.09
0.04
-0.005
0.015
0.1
0.155
0.235
0.33
0.295
0.215
0.095
0.035
0.04
0.055
0.13
0.145
0.265
0.37
0.33
0.27
0.17
0.0
-0.035
-0.03
0.075
0.165
0.29
0.305
0.265
0.13
0.085
-0.025
-0.015
-0.07
-0.005
0.095
0.21
0.185
0.15
0.025
-0.03
-0.14
-0.165
-0.1
-0.08
-0.005
0.165
0.195
0.155
0.03
-0.055
-0.155
-0.145
-0.12
-0.04
0.01
0.125
0.125
0.105
0.035
-0.06
-0.16
-0.16
-0.18
-0.105
-0.045
0.145
0.17
0.08
0.0
-0.05
-0.175
-0.165
-0.115
0.025
0.04
0.145
0.115
0.015
-0.05
-0.075
-0.25
-0.265
-0.21
-0.075
-0.045
0.07
0.11
0.045
-0.035
-0.095
-0.23
-0.195
-0.135
-0.03
0.0
0.15
0.14
0.045
-0.075
-0.14
-0.24
-0.145
-0.065
0.01
0.07
0.155
0.14
0.045
-0.06
-0.095
-0.155
-0.17
-0.09
-0.02
0.045
0.165
0.16
0.06
-0.025
-0.085
-0.245
-0.225
-0.125
-0.04
-0.005
0.115
0.15
0.055
-0.04
-0.11
-0.2
-0.195
-0.12
0.005
0.095
0.175
0.125
-0.015
-0.105
-0.11
-0.15
-0.16
-0.1
-0.04
0.045
0.105
0.11
0.035
-0.04
-0.095
-0.17
-0.145
-0.05
-0.005
0.06
0.1
0.09
0.01
-0.04
-0.12
-0.19
-0.15
-0.065
-0.025
0.115
0.17
0.125
0.0
-0.06
-0.19
-0.23
-0.21
-0.07
0.04
0.105
0.12
0.105
0.015
-0.015
-0.21
-0.225
-0.19
-0.105
0.0
0.1
0.105
0.095
-0.025
-0.075
-0.21
-0.21
-0.18
-0.05
0.015
0.1
0.15
0.16
0.0
-0.055
-0.21
-0.195
-0.18
-0.1
-0.085
0.04
0.11
0.1
0.005
-0.035
-0.175
-0.225
-0.145
-0.03
0.04
0.185
0.205
0.12
-0.01
-0.06
-0.195
-0.2
-0.14
0.0
0.015
0.17
0.16
0.08
-0.005
-0.02
-0.185
-0.115
-0.04
-0.015
0.005
0.135
0.185
0.145
0.025
-0.035
-0.18
-0.195
-0.145
-0.09
0.0
0.115
0.115
0.08
0.015
-0.01
-0.155
-0.18
-0.12
-0.045
0.035
0.145
0.115
0.065
-0.025
-0.09
-0.19
-0.265
-0.135
-0.025
0.075
0.2
0.145
0.02
-0.07
-0.11
-0.21
-0.2
-0.13
-0.02
0.1
0.11
0.095
0.045
-0.07
-0.2
-0.26
-0.26
-0.19
-0.1
0.04
0.145
0.14
0.08
-0.005
-0.1
-0.105
-0.115
-0.02
0.105
0.205
0.26
0.255
0.18
0.115
0.02
-0.055
-0.05
0.005
0.025
0.17
0.215
0.155
-0.01
-0.08
-0.26
-0.295
-0.28
-0.215
-0.105
0.01
0.065
0.105
0.0
-0.035
-0.185
-0.165
-0.065
0.02
0.015
0.16
0.165
0.155
0.06
-0.025
-0.15
-0.12
-0.065
0.05
0.13
0.27
0.255
0.235
0.13
0.08
-0.085
-0.085
-0.07
0.025
0.11
0.24
0.28
0.27
0.125
0.075
-0.105
-0.085
-0.055
0.06
0.125
0.285
0.305
0.25
0.16
0.085
-0.06
-0.02
0.05
0.1
0.1
0.28
0.285
0.245
0.14
0.11
-0.055
-0.055
0.065
0.12
0.19
0.33
0.315
0.2
0.09
0.075
-0.005
0.025
0.04
0.185
0.25
0.38
0.275
0.2
0.12
0.06
-0.06
-0.005
0.035
0.115
0.19
0.345
0.37
0.295
0.19
0.09
0.05
0.045
0.125
0.225
0.325
0.425
0.46
0.355
0.29
0.21
0.125
0.16
0.275
0.315
0.405
0.485
0.41
0.33
0.27
0.185
0.12
0.125
0.225
0.32
0.385
0.425
0.41
0.335
0.28
0.16
0.04
0.105
0.14
0.195
0.31
0.365
0.36
0.235
0.175
0.08
-0.005
0.055
0.16
0.195
0.355
0.39
0.34
0.235
0.145
0.035
-0.01
-0.035
0.045
0.09
0.21
0.29
0.285
0.185
0.125
0.01
0.02
0.04
0.13
0.14
0.245
0.295
0.255
0.2
0.165
0.02
0.0
-0.03
0.08
0.125
0.26
0.265
0.25
0.2
0.1
-0.03
-0.005
0.035
0.105
0.125
0.26
0.215
0.195
0.1
0.065
-0.025
-0.035
0.01
0.15
0.165
0.35
0.345
0.27
0.195
0.1
-0.07
-0.065
0.015
0.065
0.17
0.355
0.31
0.22
0.15
0.155
-0.025
0.0
-0.005
0.0
0.085
0.21
0.215
0.22
0.12
0.04
-0.165
-0.16
-0.04
0.06
0.075
0.2
0.225
0.135
0.035
-0.03
-0.13
-0.16
-0.07
0.045
0.15
0.265
0.195
0.07
-0.04
-0.115
-0.23
-0.225
-0.15
0.025
0.075
0.165
0.155
0.14
0.06
-0.05
-0.185
-0.165
-0.045
0.045
0.07
0.13
0.065
-0.01
-0.055
-0.145
-0.23
-0.19
-0.075
0.02
0.035
0.075
0.085
0.0
-0.045
-0.07
-0.17
-0.19
-0.095
0.0
0.05
0.085
0.07
-0.015
-0.085
-0.19
-0.23
-0.215
-0.115
-0.055
0.07
0.155
0.11
-0.025
-0.065
-0.19
-0.22
-0.245
-0.17
-0.075
0.105
0.135
0.085
-0.07
-0.125
-0.22
-0.235
-0.2
-0.11
-0.075
0.03
0.04
0.015
-0.085
-0.13
-0.205
-0.225
-0.24
-0.15
-0.09
0.03
-0.02
-0.065
-0.12
-0.14
-0.245
-0.205
-0.215
-0.155
-0.17
0.08
0.09
0.04
-0.06
-0.095
-0.28
-0.27
-0.23
-0.19
-0.13
0.03
0.015
-0.05
-0.115
-0.14
-0.32
-0.285
-0.225
-0.15
-0.125
0.025
0.05
-0.01
-0.135
-0.18
-0.335
-0.31
-0.245
-0.18
-0.115
0.015
0.045
-0.06
-0.175
-0.205
-0.27
-0.27
-0.235
-0.125
-0.15
0.01
-0.03
-0.115
-0.22
-0.22
-0.35
-0.355
-0.25
-0.11
-0.065
0.025
-0.02
-0.115
-0.185
-0.225
-0.36
-0.375
-0.24
-0.16
-0.09
0.025
0.02
-0.075
-0.145
-0.145
-0.34
-0.33
-0.195
-0.125
-0.06
0.02
0.04
-0.04
-0.13
-0.205
-0.275
-0.25
-0.175
-0.05
-0.01
0.08
0.08
-0.055
-0.18
-0.25
-0.34
-0.345
-0.275
-0.18
-0.07
-0.03
-0.045
-0.065
-0.155
-0.245
-0.33
-0.325
-0.29
-0.22
-0.135
-0.025
-0.02
-0.095
-0.15
-0.28
-0.355
-0.355
-0.255
-0.215
-0.065
0.06
-0.035
-0.19
-0.24
-0.375
-0.4
-0.36
-0.25
-0.155
-0.03
-0.015
-0.035
-0.195
-0.295
-0.385
-0.35
-0.32
-0.205
-0.125
-0.01
0.01
-0.03
-0.12
-0.135
-0.295
-0.325
-0.28
-0.115
-0.07
0.055
0.085
0.035
-0.125
-0.21
-0.395
-0.39
-0.46
-0.36
-0.265
-0.09
-0.215
-0.23
-0.275
-0.345
-0.515
-0.465
-0.34
-0.2
-0.15
-0.04
-0.07
-0.13
-0.195
-0.225
-0.365
-0.4
-0.3
-0.175
-0.085
-0.005
-0.05
-0.045
-0.13
-0.17
-0.335
-0.39
-0.32
-0.23
-0.145
-0.02
-0.07
-0.135
-0.205
-0.285
-0.39
-0.365
-0.285
-0.155
-0.09
0.045
-0.015
-0.085
-0.2
-0.24
-0.405
-0.39
-0.275
-0.165
-0.13
-0.015
0.01
-0.07
-0.245
-0.305
-0.405
-0.42
-0.285
-0.18
-0.085
0.0
-0.06
-0.135
-0.22
-0.245
-0.28
-0.255
-0.19
-0.13
-0.115
-0.005
0.015
-0.075
-0.165
-0.26
-0.31
-0.305
-0.215
-0.125
-0.045
0.06
0.03
-0.055
-0.135
-0.22
-0.31
-0.305
-0.175
-0.14
-0.01
0.08
0.025
-0.055
-0.215
-0.24
-0.275
-0.235
-0.075
-0.03
0.025
0.095
0.08
0.005
-0.06
-0.215
-0.265
-0.18
-0.06
0.025
0.09
0.095
0.03
-0.045
-0.105
-0.185
-0.215
-0.215
-0.15
-0.09
0.01
0.06
0.01
-0.08
-0.12
-0.26
-0.25
-0.255
-0.175
-0.15
-0.05
-0.015
-0.025
-0.195
-0.225
-0.4
-0.43
-0.375
-0.3
-0.215
-0.07
-0.1
-0.13
-0.165
-0.2
-0.39
-0.38
-0.33
-0.23
-0.195
-0.06
-0.11
-0.19
-0.29
-0.32
-0.495
-0.5
-0.41
-0.28
-0.265
-0.135
-0.105
-0.14
-0.18
-0.225
-0.385
-0.425
-0.4
-0.305
-0.25
-0.16
-0.175
-0.2
-0.265
-0.315
-0.465
-0.505
-0.435
-0.325
-0.26
-0.125
-0.125
-0.135
-0.215
-0.295
-0.425
-0.475
-0.395
-0.35
-0.25
-0.145
-0.115
-0.19
-0.265
-0.36
-0.475
-0.505
-0.465
-0.35
-0.255
-0.125
-0.115
-0.25
-0.34
-0.4
-0.47
-0.42
-0.385
-0.315
-0.23
-0.195
-0.18
-0.26
-0.3
-0.34
-0.48
-0.505
-0.425
-0.35
-0.215
-0.125
-0.14
-0.185
-0.28
-0.375
-0.525
-0.53
-0.405
-0.31
-0.26
-0.16
-0.155
-0.24
-0.325
-0.43
-0.485
-0.475
-0.365
-0.285
-0.185
-0.13
-0.195
-0.29
-0.36
-0.485
-0.51
-0.48
-0.395
-0.295
-0.255
-0.205
-0.215
-0.31
-0.33
-0.465
-0.49
-0.495
-0.41
-0.34
-0.23
-0.25
-0.285
-0.325
-0.365
-0.52
-0.465
-0.47
-0.415
-0.34
-0.225
-0.19
-0.245
-0.315
-0.375
-0.51
-0.495
-0.52
-0.46
-0.375
-0.23
-0.215
-0.3
-0.4
-0.445
-0.54
-0.52
-0.445
-0.37
-0.37
-0.22
-0.185
-0.19
-0.27
-0.36
-0.585
-0.565
-0.485
-0.42
-0.395
-0.225
-0.195
-0.24
-0.37
-0.415
-0.56
-0.57
-0.495
-0.4
-0.37
-0.185
-0.17
-0.27
-0.375
-0.465
-0.565
-0.58
-0.545
-0.43
-0.385
-0.22
-0.215
-0.275
-0.355
-0.425
-0.565
-0.545
-0.44
-0.335
-0.305
-0.215
-0.245
-0.345
-0.455
-0.525
-0.62
-0.585
-0.51
-0.42
-0.355
-0.245
-0.24
-0.32
-0.4
-0.515
-0.565
-0.545
-0.455
-0.37
-0.34
-0.26
-0.255
-0.305
-0.365
-0.495
-0.625
-0.625
-0.53
-0.45
-0.375
-0.25
-0.225
-0.37
-0.475
-0.56
-0.6
-0.555
-0.475
-0.37
-0.34
-0.23
-0.295
-0.335
-0.395
-0.55
-0.635
-0.57
-0.46
-0.425
-0.335
-0.24
-0.25
-0.375
-0.415
-0.515
-0.535
-0.515
-0.41
-0.33
-0.285
-0.245
-0.235
-0.36
-0.435
-0.515
-0.56
-0.55
-0.465
-0.39
-0.265
-0.25
-0.305
-0.36
-0.375
-0.5
-0.525
-0.525
-0.4
-0.33
-0.24
-0.255
-0.31
-0.42
-0.48
-0.59
-0.62
-0.575
-0.465
-0.4
-0.26
-0.24
-0.275
-0.35
-0.38
-0.575
-0.615
-0.625
-0.495
-0.395
-0.255
-0.265
-0.335
-0.41
-0.455
-0.66
-0.61
-0.535
-0.47
-0.405
-0.29
-0.275
-0.335
-0.435
-0.505
-0.675
-0.645
-0.615
-0.505
-0.41
-0.21
-0.22
-0.25
-0.365
-0.4
-0.545
-0.56
-0.48
-0.405
-0.41
-0.275
-0.205
-0.245
-0.3
-0.345
-0.44
-0.505
-0.49
-0.39
-0.365
-0.255
-0.325
-0.435
-0.475
-0.535
-0.74
-0.735
-0.635
-0.5
-0.425
-0.315
-0.27
-0.365
-0.43
-0.5
-0.625
-0.585
-0.53
-0.5
-0.42
-0.31
-0.325
-0.38
-0.46
-0.535
-0.6
-0.6
-0.51
-0.445
-0.38
-0.25
-0.27
-0.37
-0.43
-0.46
-0.57
-0.605
-0.515
-0.42
-0.335
-0.275
-0.32
-0.335
-0.37
-0.53
-0.64
-0.615
-0.51
-0.415
-0.325
-0.23
-0.275
-0.385
-0.485
-0.54
-0.535
-0.525
-0.43
-0.385
-0.255
-0.185
-0.17
-0.325
-0.38
-0.515
-0.6
-0.58
-0.49
-0.415
-0.32
-0.23
-0.2
-0.32
-0.4
-0.525
-0.555
-0.525
-0.43
-0.37
-0.25
-0.185
-0.215
-0.295
-0.34
-0.505
-0.54
-0.465
-0.345
-0.265
-0.145
-0.135
-0.205
-0.265
-0.335
-0.47
-0.43
-0.355
-0.31
-0.29
-0.14
-0.085
-0.085
-0.165
-0.29
-0.47
-0.445
-0.355
-0.255
-0.21
-0.075
-0.07
-0.12
-0.21
-0.27
-0.44
-0.465
-0.41
-0.3
-0.31
-0.2
-0.185
-0.225
-0.3
-0.345
-0.475
-0.475
-0.47
-0.39
-0.31
-0.135
-0.105
-0.2
-0.39
-0.415
-0.49
-0.525
-0.49
-0.41
-0.38
-0.285
-0.22
-0.255
-0.355
-0.435
-0.555
-0.595
-0.55
-0.39
-0.385
-0.295
-0.295
-0.38
-0.455
-0.5
-0.585
-0.6
-0.555
-0.43
-0.385
-0.255
-0.265
-0.38
-0.48
-0.555
-0.66
-0.675
-0.605
-0.495
-0.455
-0.3
-0.285
-0.385
-0.44
-0.47
-0.635
-0.605
-0.53
-0.445
-0.35
-0.245
-0.325
-0.39
-0.46
-0.595
-0.665
-0.69
-0.56
-0.43
-0.37
-0.345
-0.345
-0.395
-0.51
-0.59
-0.625
-0.57
-0.56
-0.495
-0.35
-0.31
-0.29
-0.41
-0.465
-0.585
-0.645
-0.605
-0.57
-0.485
-0.325
-0.29
-0.27
-0.405
-0.47
-0.595
-0.58
-0.63
-0.48
-0.4
-0.275
-0.285
-0.325
-0.4
-0.495
-0.595
-0.64
-0.65
-0.55
-0.455
-0.28
-0.3
-0.32
-0.43
-0.51
-0.655
-0.645
-0.565
-0.485
-0.45
-0.265
-0.27
-0.3
-0.39
-0.44
-0.57
-0.575
-0.605
-0.505
-0.415
-0.27
-0.33
-0.37
-0.46
-0.515
-0.685
-0.685
-0.64
-0.505
-0.415
-0.28
-0.285
-0.28
-0.42
-0.455
-0.6
-0.655
-0.59
-0.5
-0.415
-0.23
-0.235
-0.33
-0.445
-0.475
-0.635
-0.7
-0.65
-0.54
-0.445
-0.31
-0.34
-0.38
-0.43
-0.44
-0.59
-0.61
-0.53
-0.415
-0.415
-0.295
-0.28
-0.35
-0.465
-0.55
-0.67
-0.65
-0.61
-0.49
-0.41
-0.34
-0.395
-0.455
-0.51
-0.62
-0.675
-0.66
-0.56
-0.42
-0.375
-0.325
-0.285
-0.365
-0.445
-0.48
-0.6
-0.635
-0.525
-0.46
-0.43
-0.365
-0.385
-0.49
-0.54
-0.575
-0.64
-0.625
-0.53
-0.465
-0.375
-0.315
-0.295
-0.385
-0.455
-0.54
-0.605
-0.585
-0.47
-0.425
-0.385
-0.29
-0.295
-0.335
-0.415
-0.58
-0.67
-0.605
-0.455
-0.405
-0.315
-0.21
-0.29
-0.365
-0.415
-0.6
-0.605
-0.57
-0.52
-0.48
-0.33
-0.275
-0.29
-0.405
-0.47
-0.625
-0.665
-0.67
-0.535
-0.495
-0.375
-0.34
-0.31
-0.42
-0.535
-0.63
-0.66
-0.615
-0.535
-0.455
-0.295
-0.3
-0.35
-0.455
-0.5
-0.66
-0.6
-0.58
-0.485
-0.48
-0.38
-0.355
-0.38
-0.435
-0.465
-0.635
-0.635
-0.61
-0.535
-0.47
-0.33
-0.3
-0.315
-0.4
-0.37
-0.525
-0.515
-0.52
-0.395
-0.345
-0.26
-0.27
-0.235
-0.355
-0.43
-0.545
-0.585
-0.525
-0.46
-0.425
-0.305
-0.36
-0.455
-0.57
-0.64
-0.815
-0.825
-0.7
-0.57
-0.51
-0.33
-0.29
-0.335
-0.44
-0.485
-0.625
-0.68
-0.58
-0.48
-0.43
-0.28
-0.285
-0.345
-0.43
-0.52
-0.645
-0.695
-0.56
-0.4
-0.37
-0.3
-0.315
-0.41
-0.52
-0.575
-0.59
-0.6
-0.555
-0.46
-0.4
-0.275
-0.275
-0.385
-0.445
-0.51
-0.62
-0.585
-0.495
-0.4
-0.31
-0.23
-0.305
-0.395
-0.475
-0.535
-0.61
-0.545
-0.455
-0.395
-0.375
-0.305
-0.315
-0.405
-0.44
-0.52
-0.61
-0.605
-0.48
-0.375
-0.28
-0.255
-0.285
-0.305
-0.345
-0.52
-0.575
-0.565
-0.475
-0.395
-0.285
-0.225
-0.225
-0.32
-0.39
-0.495
-0.46
-0.43
-0.35
-0.275
-0.165
-0.155
-0.205
-0.325
-0.355
-0.485
-0.495
-0.49
-0.325
-0.23
-0.11
-0.13
-0.15
-0.225
-0.25
-0.415
-0.41
-0.34
-0.265
-0.23
-0.11
-0.12
-0.175
-0.19
-0.27
-0.425
-0.43
-0.41
-0.33
-0.25
-0.125
-0.155
-0.18
-0.27
-0.335
-0.475
-0.44
-0.42
-0.3
-0.24
-0.085
-0.1
-0.17
-0.295
-0.395
-0.6
-0.6
-0.54
-0.39
-0.335
-0.205
-0.265
-0.365
-0.4
-0.425
-0.58
-0.53
-0.48
-0.365
-0.335
-0.265
-0.265
-0.31
-0.44
-0.525
-0.65
-0.66
-0.575
-0.445
-0.34
-0.255
-0.255
-0.355
-0.47
-0.515
-0.665
-0.65
-0.55
-0.455
-0.41
-0.295
-0.295
-0.37
-0.475
-0.56
-0.63
-0.595
-0.525
-0.44
-0.35
-0.255
-0.28
-0.39
-0.5
-0.56
-0.66
-0.655
-0.55
-0.46
-0.35
-0.245
-0.255
-0.405
-0.48
-0.57
-0.675
-0.63
-0.515
-0.47
-0.42
-0.315
-0.285
-0.385
-0.435
-0.51
-0.585
-0.595
-0.49
-0.41
-0.355
-0.295
-0.3
-0.365
-0.455
-0.62
-0.67
-0.645
-0.53
-0.41
-0.3
-0.235
-0.25
-0.355
-0.43
-0.545
-0.56
-0.615
-0.505
-0.41
-0.28
-0.25
-0.32
-0.43
-0.475
-0.63
-0.625
-0.61
-0.47
-0.385
-0.235
-0.245
-0.285
-0.38
-0.45
-0.605
-0.59
-0.555
-0.46
-0.42
-0.295
-0.355
-0.43
-0.52
-0.545
-0.605
-0.56
-0.535
-0.46
-0.385
-0.255
-0.27
-0.315
-0.44
-0.515
-0.63
-0.605
-0.59
-0.505
-0.445
-0.245
-0.255
-0.325
-0.44
-0.49
-0.625
-0.64
-0.585
-0.48
-0.44
-0.24
-0.21
-0.29
-0.445
-0.5
-0.615
-0.595
-0.52
-0.44
-0.445
-0.3
-0.245
-0.3
-0.425
-0.465
-0.58
-0.53
-0.535
-0.505
-0.435
-0.265
-0.325
-0.335
-0.42
-0.445
-0.575
-0.645
-0.575
-0.435
-0.4
-0.32
-0.3
-0.385
-0.45
-0.5
-0.665
-0.605
-0.545
-0.46
-0.365
-0.24
-0.295
-0.335
-0.395
-0.49
-0.62
-0.6
-0.465
-0.37
-0.295
-0.24
-0.285
-0.39
-0.49
-0.58
-0.675
-0.65
-0.55
-0.505
-0.34
-0.255
-0.295
-0.37
-0.37
-0.5
-0.56
-0.6
-0.475
-0.37
-0.31
-0.27
-0.325
-0.375
-0.485
-0.605
-0.69
-0.655
-0.5
-0.48
-0.365
-0.285
-0.27
-0.375
-0.46
-0.555
-0.52
-0.51
-0.43
-0.375
-0.23
-0.235
-0.245
-0.32
-0.355
-0.525
-0.545
-0.525
-0.42
-0.37
-0.235
-0.21
-0.275
-0.395
-0.425
-0.53
-0.535
-0.475
-0.41
-0.4
-0.275
-0.295
-0.3
-0.405
-0.475
-0.625
-0.59
-0.58
-0.48
-0.36
-0.23
-0.225
-0.27
-0.385
-0.41
-0.585
-0.61
-0.57
-0.495
-0.445
-0.265
-0.235
-0.32
-0.41
-0.47
-0.595
-0.57
-0.535
-0.44
-0.43
-0.29
-0.295
-0.345
-0.455
-0.495
-0.665
-0.585
-0.46
-0.385
-0.375
-0.225
-0.235
-0.305
-0.395
-0.465
-0.585
-0.595
-0.48
-0.365
-0.295
-0.195
-0.165
-0.245
-0.305
-0.34
-0.475
-0.475
-0.47
-0.405
-0.365
-0.365
-0.33
-0.41
-0.505
-0.55
-0.67
-0.735
-0.61
-0.48
-0.45
-0.295
-0.265
-0.3
-0.38
-0.47
-0.565
-0.58
-0.54
-0.455
-0.335
-0.24
-0.23
-0.3
-0.395
-0.495
-0.59
-0.57
-0.445
-0.36
-0.325
-0.215
-0.22
-0.34
-0.45
-0.515
-0.565
-0.52
-0.41
-0.34
-0.275
-0.165
-0.195
-0.3
-0.385
-0.535
-0.62
-0.565
-0.42
-0.395
-0.25
-0.205
-0.27
-0.32
-0.365
-0.505
-0.52
-0.525
-0.435
-0.345
-0.25
-0.235
-0.225
-0.34
-0.395
-0.475
-0.505
-0.525
-0.41
-0.3
-0.2
-0.125
-0.18
-0.285
-0.34
-0.465
-0.47
-0.47
-0.395
-0.36
-0.225
-0.17
-0.17
-0.24
-0.285
-0.475
-0.435
-0.44
-0.285
-0.265
-0.125
-0.1
-0.15
-0.28
-0.33
-0.46
-0.395
-0.4
-0.31
-0.22
-0.055
-0.05
-0.095
-0.245
-0.26
-0.345
-0.315
-0.285
-0.22
-0.18
-0.03
-0.02
-0.065
-0.185
-0.265
-0.37
-0.355
-0.315
-0.215
-0.1
0.025
0.04
-0.025
-0.16
-0.24
-0.38
-0.385
-0.375
-0.28
-0.235
-0.115
-0.135
-0.205
-0.36
-0.405
-0.415
-0.41
-0.295
-0.175
-0.245
-0.235
-0.22
-0.25
-0.355
-0.435
-0.535
-0.485
-0.425
-0.33
-0.23
-0.15
-0.165
-0.24
-0.325
-0.43
-0.555
-0.525
-0.425
-0.385
-0.34
-0.21
-0.21
-0.28
-0.365
-0.48
-0.54
-0.525
-0.43
-0.315
-0.23
-0.165
-0.235
-0.35
-0.41
-0.45
-0.545
-0.52
-0.445
-0.35
-0.295
-0.22
-0.24
-0.315
-0.4
-0.475
-0.52
-0.475
-0.375
-0.285
-0.195
-0.115
-0.155
-0.3
-0.425
-0.54
-0.54
-0.535
-0.435
-0.375
-0.2
-0.145
-0.2
-0.305
-0.37
-0.525
-0.56
-0.51
-0.41
-0.335
-0.19
-0.195
-0.255
-0.29
-0.35
-0.485
-0.47
-0.515
-0.43
-0.39
-0.235
-0.24
-0.27
-0.31
-0.335
-0.43
-0.415
-0.39
-0.275
-0.21
-0.09
-0.1
-0.17
-0.33
-0.375
-0.52
-0.5
-0.495
-0.43
-0.42
-0.215
-0.18
-0.245
-0.29
-0.33
-0.47
-0.45
-0.42
-0.31
-0.26
-0.135
-0.185
-0.19
-0.345
-0.375
-0.51
-0.505
-0.46
-0.385
-0.36
-0.185
-0.17
-0.215
-0.345
-0.35
-0.475
-0.45
-0.36
-0.275
-0.3
-0.16
-0.14
-0.19
-0.345
-0.47
-0.555
-0.515
-0.405
-0.305
-0.24
-0.14
-0.17
-0.225
-0.285
-0.4
-0.56
-0.54
-0.435
-0.34
-0.235
-0.13
-0.135
-0.235
-0.375
-0.45
-0.51
-0.465
-0.41
-0.335
-0.235
-0.115
-0.12
-0.195
-0.3
-0.36
-0.455
-0.46
-0.395
-0.31
-0.29
-0.205
-0.18
-0.215
-0.275
-0.375
-0.49
-0.5
-0.355
-0.28
-0.245
-0.13
-0.165
-0.245
-0.33
-0.435
-0.46
-0.465
-0.425
-0.345
-0.225
-0.155
-0.185
-0.24
-0.28
-0.44
-0.5
-0.5
-0.43
-0.39
-0.265
-0.155
-0.125
-0.23
-0.325
-0.45
-0.465
-0.455
-0.345
-0.285
-0.17
-0.135
-0.185
-0.23
-0.295
-0.43
-0.44
-0.44
-0.38
-0.28
-0.135
-0.1
-0.15
-0.26
-0.305
-0.44
-0.49
-0.485
-0.38
-0.3
-0.15
-0.145
-0.17
-0.27
-0.32
-0.5
-0.51
-0.415
-0.295
-0.26
-0.13
-0.105
-0.155
-0.25
-0.34
-0.495
-0.475
-0.375
-0.28
-0.23
-0.035
-0.03
-0.14
-0.195
-0.23
-0.405
-0.39
-0.315
-0.2
-0.165
-0.04
-0.075
-0.155
-0.27
-0.29
-0.4
-0.4
-0.36
-0.29
-0.285
-0.15
-0.115
-0.165
-0.285
-0.335
-0.45
-0.4
-0.34
-0.275
-0.265
-0.175
-0.175
-0.235
-0.31
-0.36
-0.47
-0.47
-0.4
-0.285
-0.205
-0.095
-0.14
-0.145
-0.195
-0.32
-0.465
-0.485
-0.395
-0.275
-0.2
-0.105
-0.12
-0.185
-0.26
-0.305
-0.405
-0.415
-0.38
-0.255
-0.15
-0.06
-0.02
-0.115
-0.205
-0.29
-0.29
-0.275
-0.315
-0.23
-0.12
-0.005
-0.075
-0.18
-0.29
-0.43
-0.5
-0.505
-0.445
-0.425
-0.355
-0.21
-0.16
-0.18
-0.265
-0.365
-0.415
-0.41
-0.33
-0.25
-0.15
-0.08
-0.11
-0.15
-0.26
-0.38
-0.425
-0.43
-0.315
-0.27
-0.145
-0.12
-0.15
-0.2
-0.225
-0.345
-0.38
-0.36
-0.28
-0.16
-0.055
-0.1
-0.14
-0.225
-0.2
-0.315
-0.3
-0.33
-0.26
-0.19
-0.025
-0.04
-0.1
-0.22
-0.285
-0.36
-0.33
-0.32
-0.27
-0.225
-0.075
-0.055
-0.09
-0.145
-0.21
-0.375
-0.375
-0.39
-0.225
-0.155
0.0
-0.01
-0.04
-0.16
-0.225
-0.41
-0.38
-0.275
-0.135
-0.085
0.03
0.02
-0.04
-0.15
-0.145
-0.265
-0.29
-0.205
-0.115
-0.085
0.065
0.03
0.0
-0.075
-0.125
-0.26
-0.27
-0.21
-0.115
-0.085
0.065
0.12
0.08
0.015
-0.055
-0.22
-0.245
-0.19
-0.03
0.105
0.22
0.19
0.055
-0.03
-0.07
-0.21
-0.24
-0.145
-0.075
-0.01
0.15
0.125
0.04
0.035
-0.06
-0.19
-0.18
-0.135
-0.065
-0.04
0.105
0.105
-0.005
-0.095
-0.215
-0.3
-0.33
-0.255
-0.195
-0.075
0.025
-0.015
-0.125
-0.21
-0.285
-0.365
-0.31
-0.225
-0.165
-0.04
0.045
0.005
-0.1
-0.165
-0.245
-0.36
-0.395
-0.275
-0.21
-0.125
-0.035
-0.035
-0.125
-0.25
-0.33
-0.36
-0.335
-0.265
-0.175
-0.085
-0.025
-0.065
-0.17
-0.195
-0.3
-0.31
-0.32
-0.23
-0.23
-0.145
-0.085
-0.105
-0.175
-0.21
-0.36
-0.42
-0.425
-0.3
-0.125
-0.015
-0.03
-0.015
-0.14
-0.265
-0.365
-0.39
-0.36
-0.205
-0.16
-0.03
-0.03
-0.075
-0.195
-0.26
-0.365
-0.36
-0.37
-0.185
-0.14
0.005
0.015
-0.065
-0.13
-0.19
-0.35
-0.385
-0.305
-0.205
-0.15
-0.035
-0.035
-0.065
-0.18
-0.195
-0.295
-0.3
-0.3
-0.24
-0.14
0.045
0.025
-0.095
-0.19
-0.21
-0.325
-0.335
-0.26
-0.2
-0.195
-0.035
0.035
-0.075
-0.185
-0.17
-0.345
-0.315
-0.215
-0.08
-0.075
0.025
0.0
-0.07
-0.17
-0.195
-0.3
-0.32
-0.255
-0.145
-0.165
-0.055
0.025
-0.045
-0.155
-0.22
-0.305
-0.35
-0.23
-0.135
-0.065
0.015
-0.025
-0.13
-0.175
-0.275
-0.355
-0.345
-0.22
-0.15
-0.095
-0.03
-0.025
-0.075
-0.17
-0.195
-0.265
-0.25
-0.21
-0.15
-0.095
0.01
0.04
-0.055
-0.145
-0.26
-0.295
-0.29
-0.175
-0.15
-0.04
-0.015
0.01
-0.06
-0.145
-0.24
-0.3
-0.245
-0.14
-0.125
-0.05
0.025
-0.035
-0.15
-0.19
-0.285
-0.3
-0.295
-0.2
-0.125
-0.045
0.02
0.05
-0.065
-0.125
-0.275
-0.34
-0.29
-0.21
-0.15
-0.04
-0.04
-0.065
-0.13
-0.18
-0.27
-0.265
-0.28
-0.175
-0.165
0.04
0.045
-0.025
-0.135
-0.195
-0.335
-0.345
-0.29
-0.15
-0.095
-0.005
0.015
-0.02
-0.1
-0.145
-0.295
-0.285
-0.26
-0.18
-0.15
-0.01
-0.01
-0.015
-0.1
-0.13
-0.305
-0.295
-0.23
-0.125
-0.09
0.04
0.075
-0.005
-0.15
-0.22
-0.355
-0.295
-0.175
-0.09
-0.045
0.115
0.15
0.045
-0.06
-0.11
-0.29
-0.295
-0.21
-0.08
-0.035
0.11
0.095
0.07
-0.035
-0.105
-0.225
-0.235
-0.17
-0.125
-0.11
0.085
0.07
-0.025
-0.13
-0.19
-0.33
-0.3
-0.185
-0.11
-0.06
0.04
0.055
-0.025
-0.11
-0.175
-0.305
-0.245
-0.175
-0.11
-0.065
-0.01
0.0
-0.035
-0.125
-0.22
-0.345
-0.295
-0.195
-0.145
-0.055
0.085
0.085
0.0
-0.155
-0.26
-0.31
-0.255
-0.165
-0.045
0.025
0.125
0.1
0.04
-0.055
-0.12
-0.185
-0.17
-0.085
0.005
0.09
0.21
0.2
0.055
-0.005
-0.075
-0.155
-0.17
-0.145
-0.105
-0.055
-0.045
-0.025
-0.13
-0.215
-0.405
-0.445
-0.36
-0.225
-0.15
0.005
0.07
0.045
-0.075
-0.1
-0.21
-0.265
-0.27
-0.14
-0.07
0.02
0.045
0.05
-0.065
-0.09
-0.24
-0.22
-0.125
-0.065
-0.05
0.08
0.09
0.025
-0.105
-0.105
-0.26
-0.205
-0.195
-0.05
-0.01
0.09
0.075
0.08
-0.02
-0.09
-0.22
-0.175
-0.125
-0.025
-0.03
0.09
0.085
0.0
-0.09
-0.08
-0.21
-0.235
-0.16
-0.045
-0.055
0.045
0.045
0.04
-0.055
-0.075
-0.21
-0.18
-0.115
-0.055
-0.03
0.125
0.165
0.155
0.05
0.005
-0.175
-0.16
-0.07
0.005
0.09
0.205
0.2
0.095
0.005
-0.085
-0.17
-0.155
-0.075
0.04
0.095
0.185
0.175
0.14
0.105
0.05
-0.04
-0.04
-0.03
0.035
0.14
0.235
0.2
0.15
0.065
0.0
-0.095
-0.095
0.015
0.145
0.215
0.32
0.335
0.225
0.135
-0.02
-0.115
-0.095
0.02
0.16
0.23
0.285
0.29
0.18
0.12
0.04
-0.07
-0.09
0.04
0.09
0.185
0.24
0.19
0.08
0.01
-0.11
-0.16
-0.12
-0.085
-0.01
0.045
0.135
0.125
0.005
-0.05
-0.195
-0.215
-0.195
-0.09
-0.005
0.06
0.08
0.055
-0.055
-0.09
-0.22
-0.235
-0.23
-0.115
-0.04
0.09
0.085
0.075
-0.03
-0.12
-0.205
-0.225
-0.19
-0.095
-0.065
0.075
0.085
0.02
-0.105
-0.14
-0.27
-0.255
-0.255
-0.16
-0.025
0.145
0.185
0.115
0.02
-0.08
-0.245
-0.29
-0.215
-0.11
-0.065
0.085
0.09
-0.005
-0.06
-0.105
-0.28
-0.225
-0.195
-0.1
-0.07
0.1
0.14
0.065
-0.03
-0.045
-0.185
-0.205
-0.165
-0.105
-0.09
0.03
0.04
0.01
-0.07
-0.075
-0.185
-0.175
-0.135
-0.055
-0.01
0.115
0.125
0.085
-0.005
-0.145
-0.24
-0.235
-0.12
0.015
-0.05
0.01
0.02
0.05
0.0
-0.055
-0.22
-0.205
-0.15
-0.1
-0.05
0.085
0.075
-0.005
-0.065
-0.15
-0.18
-0.19
-0.1
-0.015
0.0
0.11
0.13
0.025
-0.065
-0.115
-0.195
-0.19
-0.07
0.02
0.04
0.12
0.125
0.025
-0.065
-0.135
-0.235
-0.225
-0.155
-0.095
-0.035
0.065
0.075
0.0
-0.105
-0.19
-0.26
-0.24
-0.105
-0.045
-0.015
0.075
0.08
-0.035
-0.14
-0.27
-0.29
-0.235
-0.14
-0.045
0.07
0.135
0.105
-0.035
-0.045
-0.185
-0.205
-0.2
-0.075
-0.015
0.13
0.175
0.07
-0.035
-0.08
-0.215
-0.235
-0.195
-0.07
-0.055
0.075
0.09
0.03
-0.06
-0.12
-0.24
-0.255
-0.215
-0.09
-0.03
0.09
0.12
0.08
-0.005
-0.04
-0.19
-0.175
-0.165
-0.095
-0.07
0.07
0.105
0.105
0.025
-0.02
-0.24
-0.195
-0.125
-0.045
-0.015
0.13
0.15
0.07
-0.035
-0.02
-0.185
-0.17
-0.11
-0.045
-0.01
0.17
0.16
0.09
-0.04
-0.055
-0.24
-0.285
-0.225
-0.13
-0.11
0.08
0.115
0.045
-0.085
-0.12
-0.275
-0.27
-0.18
-0.115
-0.035
0.05
0.09
-0.005
-0.085
-0.14
-0.24
-0.255
-0.23
-0.14
-0.03
0.075
0.1
0.0
-0.115
-0.165
-0.285
-0.24
-0.155
-0.025
0.035
0.17
0.19
0.11
0.03
-0.065
-0.11
-0.115
0.0
0.075
0.105
0.18
0.235
0.155
0.025
-0.05
-0.235
-0.28
-0.14
-0.035
-0.015
0.035
-0.005
-0.11
-0.215
-0.27
-0.355
-0.345
-0.25
-0.13
-0.03
0.05
0.045
-0.025
-0.09
-0.185
-0.205
-0.155
-0.095
0.005
0.115
0.15
0.09
-0.025
-0.095
-0.175
-0.165
-0.145
-0.045
-0.005
0.09
0.12
0.07
-0.01
-0.035
-0.14
-0.13
-0.165
-0.1
-0.045
0.095
0.135
0.1
0.01
-0.105
-0.195
-0.16
-0.155
-0.125
-0.025
0.14
0.16
0.095
0.0
0.0
-0.1
-0.095
-0.075
-0.025
0.035
0.175
0.19
0.125
-0.005
-0.055
-0.205
-0.175
-0.135
-0.025
0.01
0.17
0.19
0.175
0.08
0.035
-0.14
-0.13
-0.13
-0.02
0.035
0.155
0.205
0.19
0.1
0.055
-0.07
-0.055
0.025
0.16
0.155
0.275
0.24
0.175
0.07
0.04
-0.085
-0.07
0.035
0.1
0.145
0.345
0.355
0.255
0.145
0.095
-0.02
-0.02
0.055
0.2
0.245
0.325
0.37
0.28
0.2
0.15
0.0
-0.005
0.045
0.1
0.21
0.315
0.28
0.225
0.175
0.095
-0.06
-0.055
-0.005
0.075
0.175
0.21
0.15
0.09
0.04
0.0
-0.09
-0.11
-0.065
0.03
0.09
0.155
0.135
0.07
0.0
-0.1
-0.165
-0.17
-0.075
0.01
0.13
0.165
0.155
0.03
-0.065
-0.15
-0.265
-0.245
-0.09
0.005
0.11
0.125
0.085
-0.005
-0.07
-0.165
-0.185
-0.1
-0.005
0.015
0.085
0.08
0.065
-0.02
-0.065
-0.19
-0.23
-0.22
-0.105
-0.035
0.08
0.1
0.04
-0.005
-0.03
-0.165
-0.21
-0.12
0.0
-0.01
0.11
0.15
0.115
0.035
-0.05
-0.21
-0.18
-0.17
-0.115
-0.01
0.105
0.095
0.075
0.005
-0.03
-0.15
-0.115
-0.085
-0.005
0.02
0.175
0.17
0.08
-0.02
-0.055
-0.21
-0.21
-0.16
-0.065
0.0
0.13
0.1
0.065
-0.035
-0.07
-0.155
-0.145
-0.08
-0.005
0.0
0.115
0.145
0.1
0.045
-0.015
-0.135
-0.145
-0.065
0.065
0.06
0.2
0.13
0.0
-0.1
-0.075
-0.19
-0.2
-0.105
0.01
0.065
0.17
0.2
0.095
0.025
-0.08
-0.22
-0.21
-0.165
-0.005
0.095
0.175
0.215
0.15
0.03
-0.105
-0.245
-0.27
-0.215
-0.045
0.08
0.165
0.145
0.06
-0.015
-0.075
-0.16
-0.18
-0.12
-0.015
0.015
0.11
0.15
0.07
-0.025
-0.085
-0.17
-0.155
-0.08
0.02
0.085
0.175
0.155
0.095
0.015
-0.11
-0.21
-0.23
-0.16
-0.045
0.065
0.13
0.135
0.05
0.015
-0.115
-0.14
-0.15
-0.05
0.02
0.13
0.205
0.15
0.045
-0.025
-0.115
-0.175
-0.155
-0.045
0.015
0.145
0.155
0.1
0.02
-0.055
-0.145
-0.125
-0.125
-0.09
-0.035
0.085
0.135
0.15
0.02
-0.04
-0.13
-0.17
-0.14
-0.02
0.015
0.14
0.115
0.08
0.005
-0.06
-0.255
-0.21
-0.18
-0.07
0.03
0.22
0.19
0.17
0.06
0.01
-0.18
-0.165
-0.115
0.0
0.065
0.195
0.21
0.12
-0.01
-0.04
-0.225
-0.195
-0.1
-0.035
0.015
0.17
0.175
0.115
0.04
-0.04
-0.175
-0.105
-0.06
0.015
0.09
0.215
0.25
0.16
0.05
-0.01
-0.14
-0.13
-0.065
0.0
0.025
0.135
0.12
0.08
0.01
-0.04
-0.145
-0.16
-0.02
0.125
0.155
0.195
0.135
0.075
-0.015
-0.125
-0.23
-0.245
-0.175
-0.065
0.0
0.145
0.175
0.055
-0.05
-0.135
-0.195
-0.205
-0.125
0.01
0.085
0.18
0.175
0.105
0.02
-0.05
-0.16
-0.16
-0.075
0.025
0.105
0.145
0.17
0.105
-0.02
-0.07
-0.145
-0.1
-0.01
0.045
0.075
0.14
0.17
0.11
0.075
-0.03
-0.045
-0.075
0.035
0.085
0.13
0.135
0.04
-0.065
-0.11
-0.22
-0.26
-0.245
-0.165
-0.055
0.115
0.105
0.115
0.05
0.005
-0.135
-0.145
-0.13
-0.02
0.005
0.165
0.155
0.125
0.025
-0.02
-0.15
-0.13
-0.105
0.025
0.035
0.205
0.15
0.125
0.055
-0.03
-0.15
-0.1
-0.06
0.015
0.07
0.155
0.1
0.105
0.045
0.02
-0.14
-0.165
-0.095
0.015
0.07
0.15
0.16
0.17
0.065
0.015
-0.095
-0.12
-0.075
0.04
0.06
0.17
0.195
0.17
0.06
0.015
-0.11
-0.115
-0.07
0.005
0.105
0.26
0.245
0.18
0.115
0.03
-0.145
-0.13
-0.03
0.07
0.12
0.285
0.295
0.185
0.105
0.04
-0.07
-0.025
0.015
0.105
0.185
0.345
0.335
0.22
0.095
0.045
-0.065
-0.03
0.07
0.18
0.225
0.33
0.335
0.29
0.18
0.12
0.045
0.065
0.17
0.225
0.28
0.395
0.375
0.29
0.225
0.16
0.05
0.045
0.12
0.2
0.295
0.405
0.41
0.3
0.21
0.1
-0.02
0.0
0.025
0.105
0.2
0.265
0.26
0.145
0.045
-0.025
-0.095
-0.065
0.005
0.035
0.205
0.3
0.265
0.125
0.005
-0.115
-0.115
-0.105
-0.02
0.055
0.15
0.195
0.185
0.1
-0.04
-0.14
-0.09
-0.065
-0.02
0.03
0.165
0.205
0.15
0.055
0.005
-0.135
-0.16
-0.145
-0.04
0.035
0.15
0.2
0.15
0.05
-0.03
-0.145
-0.1
-0.1
-0.01
0.01
0.155
0.115
0.12
0.035
0.005
-0.11
-0.12
-0.155
-0.05
-0.01
0.175
0.195
0.175
0.07
0.01
-0.18
-0.195
-0.07
0.045
0.095
0.215
0.225
0.12
-0.015
-0.05
-0.21
-0.2
-0.125
0.005
0.055
0.195
0.17
0.12
0.05
-0.01
-0.155
-0.1
-0.14
-0.06
0.01
0.165
0.205
0.15
0.025
-0.015
-0.165
-0.155
-0.105
0.01
0.075
0.22
0.215
0.145
0.05
0.02
-0.065
-0.05
-0.02
0.04
0.05
0.15
0.175
0.09
-0.005
-0.06
-0.145
-0.16
-0.07
-0.025
0.025
0.135
0.145
0.045
0.025
-0.055
-0.145
-0.12
-0.03
0.025
0.07
0.2
0.225
0.09
0.005
-0.04
-0.12
-0.125
-0.045
-0.01
0.08
0.18
0.155
0.085
0.01
-0.035
-0.08
-0.105
-0.06
0.05
0.09
0.185
0.2
0.095
0.025
-0.115
-0.155
-0.1
-0.08
0.02
0.15
0.205
0.165
0.04
-0.01
-0.165
-0.2
-0.13
-0.075
-0.015
0.135
0.115
0.075
0.1
0.055
-0.09
-0.14
-0.105
-0.025
0.01
0.19
0.25
0.225
0.095
0.02
-0.135
-0.135
-0.1
-0.005
0.065
0.175
0.16
0.125
0.03
-0.045
-0.175
-0.185
-0.11
0.015
0.055
0.165
0.125
0.105
0.01
-0.06
-0.185
-0.17
-0.14
-0.025
0.055
0.21
0.2
0.175
0.05
0.01
-0.19
-0.185
-0.135
-0.04
0.015
0.185
0.175
0.125
0.05
-0.03
-0.17
-0.11
-0.075
-0.005
0.045
0.15
0.11
0.105
0.075
0.01
-0.12
-0.12
0.0
0.11
0.11
0.275
0.255
0.16
0.085
0.105
-0.015
-0.04
-0.005
0.09
0.17
0.29
0.28
0.195
0.115
0.07
-0.055
-0.035
0.04
0.155
0.195
0.26
0.29
0.25
0.175
0.08
-0.01
-0.075
0.035
0.17
0.25
0.355
0.34
0.235
0.11
0.02
-0.075
-0.05
0.02
0.11
0.195
0.27
0.275
0.185
0.1
0.055
-0.04
-0.05
0.01
0.075
0.18
0.245
0.185
0.06
0.015
-0.045
-0.11
-0.07
0.075
0.125
0.185
0.205
0.145
0.01
-0.03
-0.11
-0.08
-0.105
-0.045
0.045
0.215
0.2
0.125
0.06
0.065
-0.08
-0.185
-0.18
-0.075
0.055
0.255
0.285
0.265
0.14
0.11
0.03
0.04
0.015
0.065
0.09
0.315
0.26
0.22
0.115
0.05
-0.015
0.01
0.005
0.125
0.16
0.31
0.33
0.26
0.11
-0.01
-0.17
-0.2
-0.23
-0.155
-0.06
0.09
0.11
0.065
0.0
-0.01
-0.1
-0.04
-0.035
0.035
0.105
0.22
0.195
0.16
0.07
0.01
-0.14
-0.14
-0.075
0.015
0.085
0.23
0.26
0.18
0.11
0.055
-0.095
-0.09
-0.045
0.085
0.11
0.255
0.24
0.21
0.09
0.005
-0.125
-0.105
-0.045
0.065
0.13
0.27
0.25
0.13
0.025
0.0
-0.075
-0.105
-0.02
0.03
0.055
0.2
0.24
0.175
0.09
0.035
-0.05
-0.035
0.015
0.07
0.17
0.265
0.27
0.175
0.105
0.06
-0.01
0.065
0.08
0.155
0.19
0.285
0.27
0.19
0.125
0.04
-0.015
0.005
0.115
0.17
0.26
0.31
0.3
0.23
0.24
0.11
0.015
-0.02
0.07
0.115
0.25
0.375
0.385
0.305
0.215
0.15
0.145
0.16
0.195
0.255
0.395
0.425
0.43
0.29
0.21
0.07
0.07
0.095
0.175
0.24
0.335
0.37
0.325
0.225
0.155
0.03
0.01
0.12
0.21
0.245
0.4
0.41
0.31
0.135
0.08
-0.035
-0.01
0.02
0.095
0.165
0.28
0.285
0.245
0.095
0.02
-0.08
0.005
0.03
0.07
0.095
0.27
0.295
0.22
0.105
0.065
-0.1
-0.11
-0.07
0.07
0.11
0.21
0.235
0.185
0.075
0.01
-0.12
-0.125
-0.105
0.03
0.05
0.21
0.26
0.185
0.095
0.055
-0.07
-0.165
-0.09
0.075
0.095
0.2
0.2
0.2
0.135
0.02
-0.09
-0.105
-0.12
-0.035
0.04
0.195
0.18
0.14
0.075
-0.015
-0.14
-0.1
-0.07
0.03
0.105
0.185
0.235
0.145
0.05
-0.015
-0.13
-0.115
-0.03
0.07
0.13
0.245
0.225
0.13
0.025
0.02
-0.045
-0.11
-0.045
0.04
0.115
0.22
0.235
0.135
0.025
-0.005
-0.055
-0.065
0.055
0.08
0.11
0.165
0.225
0.12
0.015
-0.065
-0.14
-0.095
0.01
0.1
0.215
0.25
0.19
0.115
0.05
-0.05
-0.1
-0.075
0.0
0.045
0.205
0.24
0.235
0.105
0.01
-0.11
-0.11
-0.08
-0.005
0.095
0.16
0.165
0.185
0.08
0.03
-0.07
-0.115
-0.115
-0.035
0.05
0.22
0.31
0.24
0.155
0.085
-0.095
-0.14
-0.155
-0.025
0.01
0.225
0.24
0.155
0.035
0.015
-0.09
-0.105
-0.065
-0.005
0.02
0.215
0.18
0.14
0.1
0.155
-0.05
-0.07
-0.11
0.035
0.07
0.21
0.19
0.14
0.02
-0.02
-0.12
-0.09
-0.075
0.015
0.065
0.275
0.245
0.2
0.095
0.03
-0.125
-0.125
-0.05
0.06
0.095
0.225
0.23
0.205
0.06
-0.01
-0.14
-0.135
-0.065
0.065
0.09
0.22
0.17
0.105
-0.005
-0.005
-0.115
-0.09
-0.05
0.0
0.115
0.245
0.275
0.17
0.045
-0.02
-0.105
-0.145
-0.095
0.015
0.07
0.265
0.325
0.185
0.07
0.02
-0.105
-0.08
-0.005
0.05
0.13
0.275
0.31
0.235
0.105
0.025
-0.03
-0.03
0.02
0.065
0.125
0.185
0.21
0.2
0.125
-0.005
-0.1
-0.09
-0.055
0.02
0.095
0.195
0.21
0.14
0.04
-0.065
-0.14
-0.12
0.01
0.025
0.135
0.23
0.175
0.07
0.01
-0.055
-0.145
-0.185
-0.025
0.05
0.205
0.265
0.175
0.1
0.035
-0.085
-0.09
-0.07
0.02
0.1
0.185
0.195
0.2
0.09
0.035
-0.02
0.005
0.06
0.145
0.195
0.28
0.245
0.225
0.145
0.1
0.0
0.01
0.05
0.1
0.135
0.235
0.225
0.21
0.095
0.0
-0.205
-0.26
-0.285
-0.11
-0.055
0.1
0.135
0.12
0.045
0.03
-0.085
-0.055
-0.025
0.045
0.06
0.195
0.175
0.13
0.08
0.005
-0.095
-0.085
-0.03
0.08
0.095
0.18
0.235
0.195
0.11
0.02
-0.11
-0.14
-0.01
0.095
0.155
0.305
0.285
0.2
0.12
0.075
-0.055
-0.05
0.02
0.065
0.13
0.27
0.275
0.18
0.06
0.015
-0.08
-0.065
-0.045
0.07
0.19
0.325
0.31
0.18
0.035
-0.005
-0.035
-0.015
0.045
0.125
0.175
0.27
0.265
0.19
0.12
0.075
-0.045
-0.065
0.04
0.13
0.22
0.325
0.295
0.165
0.12
0.125
0.065
0.065
0.14
0.195
0.295
0.355
0.35
0.25
0.165
0.085
0.01
0.03
0.175
0.245
0.315
0.375
0.395
0.365
0.26
0.115
0.11
0.115
0.245
0.325
0.43
0.46
0.455
0.305
0.28
0.14
0.18
0.18
0.26
0.345
0.455
0.475
0.415
0.32
0.215
0.09
0.045
0.11
0.21
0.26
0.405
0.38
0.33
0.225
0.14
0.005
-0.02
-0.01
0.105
0.13
0.265
0.275
0.22
0.135
0.09
0.005
-0.005
0.01
0.095
0.11
0.23
0.23
0.175
0.12
0.105
-0.05
-0.08
-0.03
0.1
0.145
0.26
0.26
0.25
0.165
0.095
-0.075
-0.08
-0.06
0.035
0.08
0.21
0.235
0.15
0.07
0.03
-0.065
-0.08
-0.03
0.065
0.07
0.23
0.24
0.12
0.075
0.04
-0.145
-0.15
-0.025
0.085
0.125
0.225
0.26
0.185
0.065
-0.02
-0.1
-0.12
-0.04
0.08
0.105
0.2
0.265
0.195
0.09
0.05
-0.04
-0.09
0.02
0.145
0.195
0.25
0.245
0.135
0.08
0.02
-0.115
-0.125
-0.035
0.08
0.155
0.285
0.245
0.155
0.07
-0.005
-0.07
-0.045
0.025
0.1
0.165
0.25
0.2
0.115
0.06
-0.02
-0.075
-0.13
0.01
0.145
0.205
0.26
0.24
0.14
0.075
0.04
0.01
0.005
0.02
0.055
0.21
0.26
0.215
0.09
0.055
-0.085
-0.08
-0.055
0.035
0.08
0.2
0.285
0.25
0.135
0.06
-0.01
-0.015
-0.03
0.045
0.085
0.185
0.19
0.175
0.075
0.09
-0.06
-0.06
-0.015
0.055
0.105
0.255
0.31
0.26
0.18
0.07
-0.155
-0.08
-0.015
0.05
0.14
0.27
0.25
0.195
0.045
0.015
-0.125
-0.155
-0.075
0.055
0.11
0.26
0.25
0.215
0.105
0.025
-0.11
-0.08
-0.05
0.035
0.1
0.25
0.29
0.245
0.11
0.135
0.01
-0.015
-0.05
0.02
0.125
0.25
0.2
0.135
0.085
0.015
-0.1
-0.08
-0.05
0.095
0.115
0.28
0.28
0.215
0.13
0.045
-0.075
-0.08
-0.085
0.02
0.1
0.23
0.26
0.205
0.11
0.015
-0.1
-0.105
-0.035
0.105
0.195
0.21
0.2
0.135
0.04
-0.03
-0.12
-0.08
0.085
0.16
0.185
0.3
0.255
0.175
0.055
-0.05
-0.145
-0.105
-0.005
0.07
0.145
0.215
0.28
0.21
0.135
0.065
0.0
0.015
0.055
0.08
0.185
0.25
0.2
0.13
0.05
-0.05
-0.08
-0.025
0.05
0.195
0.31
0.345
0.305
0.205
0.07
0.01
0.025
-0.04
0.07
0.145
0.255
0.275
0.245
0.15
0.14
-0.005
-0.005
0.015
0.09
0.165
0.245
0.255
0.245
0.12
0.115
-0.01
-0.05
-0.06
0.025
0.12
0.255
0.305
0.255
0.125
0.075
-0.05
-0.12
-0.075
0.04
0.115
0.33
0.355
0.24
0.13
0.07
-0.075
-0.065
-0.05
0.075
0.13
0.26
0.295
0.24
0.13
0.035
-0.115
-0.085
0.005
0.07
0.095
0.255
0.295
0.26
0.16
0.16
0.005
-0.025
0.01
0.11
0.195
0.3
0.325
0.29
0.18
0.16
0.0
0.02
0.075
0.165
0.17
0.285
0.245
0.11
0.03
-0.01
-0.135
-0.185
-0.14
0.01
0.045
0.26
0.355
0.22
0.055
-0.015
-0.1
-0.085
-0.025
0.05
0.105
0.245
0.26
0.205
0.125
0.05
-0.075
-0.095
-0.02
0.055
0.14
0.285
0.285
0.245
0.13
0.01
-0.04
-0.02
0.085
0.14
0.185
0.25
0.25
0.195
0.065
-0.005
-0.055
-0.015
0.05
0.15
0.245
0.37
0.335
0.205
0.125
0.025
-0.02
-0.045
0.03
0.16
0.22
0.27
0.25
0.2
0.13
0.0
-0.05
-0.02
0.095
0.13
0.24
0.305
0.255
0.165
0.125
-0.015
-0.03
0.035
0.16
0.22
0.275
0.305
0.325
0.235
0.205
0.085
0.1
0.13
0.205
0.225
0.355
0.36
0.34
0.26
0.17
0.025
0.1
0.11
0.22
0.265
0.385
0.385
0.395
0.29
0.255
0.14
0.14
0.145
0.245
0.285
0.395
0.43
0.38
0.255
0.23
0.125
0.135
0.18
0.26
0.275
0.435
0.445
0.405
0.305
0.21
0.07
0.06
0.105
0.235
0.315
0.4
0.36
0.29
0.18
0.13
0.055
0.07
0.08
0.175
0.195
0.305
0.32
0.215
0.085
0.08
-0.05
-0.045
0.05
0.11
0.115
0.25
0.275
0.2
0.085
0.0
-0.14
-0.115
0.0
0.105
0.185
0.28
0.24
0.17
0.09
0.04
-0.07
-0.05
-0.015
0.095
0.19
0.285
0.27
0.16
0.06
-0.01
-0.085
-0.085
-0.025
0.085
0.185
0.265
0.245
0.15
0.105
-0.02
-0.085
-0.095
0.025
0.115
0.17
0.26
0.2
0.115
0.02
-0.05
-0.095
-0.06
0.025
0.105
0.16
0.225
0.23
0.12
0.04
-0.07
-0.06
-0.03
0.095
0.18
0.225
0.265
0.22
0.135
0.065
-0.045
-0.07
-0.065
0.015
0.065
0.13
0.235
0.205
0.095
0.045
-0.095
-0.09
-0.045
0.05
0.055
0.195
0.26
0.22
0.085
0.035
-0.08
-0.085
-0.075
0.055
0.09
0.215
0.22
0.215
0.15
0.12
-0.065
-0.09
-0.09
0.055
0.085
0.255
0.27
0.235
0.12
0.105
-0.005
-0.045
-0.05
-0.02
0.04
0.165
0.145
0.105
0.055
0.02
-0.125
-0.105
-0.045
0.03
0.05
0.22
0.235
0.18
0.06
0.045
-0.13
-0.13
-0.055
0.02
0.075
0.175
0.195
0.19
0.09
-0.015
-0.12
-0.11
-0.04
0.095
0.11
0.245
0.27
0.165
0.075
0.05
-0.105
-0.065
-0.035
0.02
0.09
0.2
0.205
0.145
0.05
-0.025
-0.13
-0.13
-0.065
0.06
0.11
0.18
0.21
0.17
0.095
-0.02
-0.115
-0.145
-0.07
0.03
0.1
0.25
0.24
0.145
0.04
-0.045
-0.15
-0.14
-0.05
0.08
0.165
0.265
0.21
0.095
0.005
-0.105
-0.185
-0.12
-0.035
0.005
0.145
0.225
0.225
0.125
0.09
-0.065
-0.135
-0.17
-0.055
0.075
0.16
0.22
0.18
0.085
-0.01
-0.14
-0.15
-0.095
-0.015
0.045
0.12
0.17
0.145
0.055
-0.015
-0.105
-0.06
-0.04
0.025
0.085
0.15
0.18
0.17
0.075
0.035
-0.12
-0.085
-0.115
-0.025
0.06
0.165
0.18
0.165
0.035
-0.01
-0.12
-0.11
-0.065
0.04
0.06
0.19
0.21
0.13
0.03
-0.025
-0.14
-0.13
-0.115
-0.025
0.01
0.17
0.24
0.2
0.075
0.025
-0.115
-0.09
-0.04
0.04
0.105
0.27
0.245
0.215
0.125
0.085
-0.08
-0.08
0.0
0.15
0.13
0.255
0.195
0.1
0.05
0.02
-0.135
-0.17
-0.135
-0.015
0.07
0.245
0.245
0.165
0.055
-0.01
-0.165
-0.145
-0.135
-0.05
0.025
0.17
0.15
0.075
-0.015
-0.015
-0.175
-0.215
-0.075
0.005
0.045
0.155
0.16
0.065
0.0
-0.055
-0.17
-0.195
-0.11
-0.04
0.085
0.22
0.2
0.12
0.01
-0.015
-0.105
-0.095
-0.015
0.05
0.14
0.23
0.16
0.125
0.11
0.06
-0.06
-0.04
0.075
0.06
0.105
0.195
0.125
0.055
-0.065
-0.165
-0.2
-0.26
-0.22
-0.095
0.0
0.1
0.11
0.125
0.005
-0.14
-0.155
-0.095
-0.05
-0.015
0.08
0.12
0.1
0.03
-0.04
-0.13
-0.12
-0.055
-0.01
0.03
0.15
0.195
0.205
0.115
0.045
-0.075
-0.105
-0.155
-0.05
0.02
0.155
0.16
0.145
0.05
0.01
-0.09
-0.07
-0.1
-0.015
0.065
0.25
0.21
0.17
0.04
0.015
-0.125
-0.08
-0.04
0.035
0.045
0.175
0.19
0.12
0.03
-0.015
-0.175
-0.205
-0.175
0.0
0.1
0.28
0.25
0.165
0.055
0.035
-0.11
-0.105
-0.005
0.065
0.135
0.235
0.25
0.205
0.12
0.06
-0.1
-0.055
-0.015
0.075
0.17
0.325
0.31
0.24
0.19
0.17
0.01
-0.025
0.015
0.13
0.165
0.3
0.285
0.225
0.105
0.04
-0.065
-0.03
0.085
0.17
0.215
0.35
0.32
0.2
0.13
0.1
0.015
-0.005
0.1
0.195
0.32
0.38
0.33
0.275
0.145
0.075
-0.03
-0.025
0.07
0.205
0.26
0.375
0.345
0.21
0.03
-0.085
-0.125
-0.125
-0.06
0.015
0.125
0.21
0.22
0.095
-0.025
-0.145
-0.205
-0.15
-0.04
-0.02
0.1
0.17
0.135
-0.005
-0.055
-0.15
-0.235
-0.195
-0.085
-0.03
0.085
0.135
0.085
-0.005
-0.09
-0.16
-0.19
-0.18
-0.07
0.0
0.12
0.15
0.12
0.005
-0.05
-0.185
-0.245
-0.245
-0.12
-0.035
0.08
0.105
0.065
-0.005
-0.085
-0.23
-0.205
-0.155
-0.065
-0.04
0.125
0.18
0.14
-0.025
-0.095
-0.225
-0.185
-0.21
-0.105
-0.015
0.17
0.18
0.085
-0.01
-0.09
-0.205
-0.2
-0.175
-0.105
-0.075
0.125
0.045
-0.025
-0.1
-0.1
-0.185
-0.195
-0.175
-0.13
-0.065
0.11
0.11
0.045
-0.035
-0.08
-0.21
-0.165
-0.15
-0.07
0.0
0.15
