# TIPE ECG 2021 - ECG-ID Database v1.0.0 par Physionet
# [Numéro de la personne, Période d'échantillonnage, Prénom, Age, Sexe, Date de l'enregistrement]
[81, 0.002, Yvonne, 36, F, 21.05.2005]
-0.75
-0.755
-0.85
-0.825
-0.8
-0.815
-0.825
-0.77
-0.745
-0.82
-0.8
-0.805
-0.805
-0.79
-0.815
-0.745
-0.88
-0.87
-0.79
-0.83
-0.8
-0.745
-0.735
-0.73
-0.835
-0.855
-0.77
-0.8
-0.815
-0.81
-0.84
-0.805
-0.81
-0.86
-0.8
-0.805
-0.83
-0.76
-0.71
-0.795
-0.775
-0.795
-0.81
-0.85
-0.79
-0.725
-0.755
-0.82
-0.79
-0.77
-0.735
-0.74
-0.77
-0.835
-0.865
-0.825
-0.76
-0.785
-0.83
-0.77
-0.77
-0.815
-0.805
-0.82
-0.78
-0.745
-0.685
-0.69
-0.815
-0.86
-0.785
-0.845
-0.82
-0.805
-0.775
-0.815
-0.79
-0.82
-0.755
-0.735
-0.825
-0.8
-0.755
-0.785
-0.775
-0.765
-0.785
-0.79
-0.775
-0.81
-0.81
-0.78
-0.76
-0.76
-0.735
-0.67
-0.78
-0.85
-0.78
-0.835
-0.755
-0.84
-0.795
-0.81
-0.82
-0.815
-0.82
-0.82
-0.785
-0.85
-0.76
-0.74
-0.78
-0.795
-0.825
-0.85
-0.825
-0.83
-0.78
-0.85
-0.885
-0.77
-0.785
-0.765
-0.775
-0.81
-0.815
-0.805
-0.76
-0.775
-0.785
-0.82
-0.8
-0.795
-0.86
-0.845
-0.85
-0.755
-0.81
-0.78
-0.79
-0.855
-0.945
-0.835
-0.84
-0.835
-0.825
-0.785
-0.79
-0.775
-0.77
-0.82
-0.815
-0.81
-0.82
-0.76
-0.83
-0.795
-0.855
-0.875
-0.795
-0.81
-0.815
-0.8
-0.78
-0.805
-0.82
-0.835
-0.82
-0.815
-0.805
-0.81
-0.8
-0.78
-0.715
-0.775
-0.775
-0.82
-0.885
-0.845
-0.865
-0.865
-0.76
-0.725
-0.8
-0.815
-0.88
-0.84
-0.83
-0.835
-0.84
-0.775
-0.795
-0.775
-0.74
-0.84
-0.885
-0.79
-0.85
-0.86
-0.815
-0.785
-0.75
-0.775
-0.805
-0.815
-0.75
-0.765
-0.78
-0.815
-0.86
-0.795
-0.755
-0.8
-0.845
-0.855
-0.82
-0.805
-0.82
-0.79
-0.77
-0.785
-0.83
-0.77
-0.775
-0.835
-0.735
-0.76
-0.75
-0.73
-0.825
-0.775
-0.805
-0.765
-0.775
-0.79
-0.72
-0.785
-0.81
-0.725
-0.72
-0.78
-0.745
-0.72
-0.67
-0.685
-0.72
-0.735
-0.755
-0.76
-0.77
-0.695
-0.675
-0.745
-0.78
-0.69
-0.675
-0.7
-0.77
-0.72
-0.76
-0.79
-0.775
-0.77
-0.835
-0.82
-0.735
-0.73
-0.8
-0.76
-0.775
-0.76
-0.82
-0.8
-0.805
-0.735
-0.775
-0.785
-0.84
-0.775
-0.83
-0.825
-0.72
-0.795
-0.765
-0.755
-0.735
-0.815
-0.77
-0.87
-0.845
-0.74
-0.87
-0.82
-0.845
-0.77
-0.75
-0.735
-0.75
-0.81
-0.765
-0.785
-0.845
-0.88
-0.815
-0.77
-0.67
-0.61
-0.645
-0.58
-0.455
-0.415
-0.32
-0.385
-0.49
-0.58
-0.675
-0.725
-0.775
-0.88
-0.97
-1.02
-0.955
-1.0
-0.92
-0.905
-0.86
-0.87
-0.875
-0.78
-0.78
-0.8
-0.845
-0.825
-0.81
-0.775
-0.775
-0.76
-0.74
-0.725
-0.77
-0.72
-0.735
-0.855
-0.835
-0.85
-0.76
-0.71
-0.73
-0.775
-0.78
-0.69
-0.795
-0.79
-0.785
-0.8
-0.79
-0.775
-0.695
-0.735
-0.725
-0.73
-0.78
-0.795
-0.72
-0.715
-0.71
-0.75
-0.74
-0.715
-0.79
-0.675
-0.76
-0.735
-0.66
-0.695
-0.76
-0.715
-0.75
-0.755
-0.735
-0.775
-0.78
-0.775
-0.7
-0.75
-0.705
-0.725
-0.715
-0.76
-0.765
-0.765
-0.675
-0.69
-0.735
-0.755
-0.675
-0.625
-0.69
-0.715
-0.745
-0.695
-0.7
-0.66
-0.655
-0.645
-0.705
-0.675
-0.645
-0.67
-0.67
-0.73
-0.67
-0.73
-0.68
-0.69
-0.67
-0.67
-0.61
-0.575
-0.625
-0.725
-0.645
-0.58
-0.555
-0.605
-0.575
-0.565
-0.585
-0.645
-0.555
-0.51
-0.52
-0.675
-0.56
-0.53
-0.54
-0.56
-0.585
-0.57
-0.545
-0.565
-0.515
-0.57
-0.58
-0.56
-0.585
-0.5
-0.55
-0.55
-0.52
-0.515
-0.53
-0.6
-0.57
-0.555
-0.6
-0.625
-0.6
-0.63
-0.58
-0.59
-0.715
-0.645
-0.585
-0.595
-0.605
-0.75
-0.78
-0.69
-0.71
-0.74
-0.7
-0.715
-0.725
-0.75
-0.755
-0.705
-0.715
-0.73
-0.765
-0.8
-0.82
-0.71
-0.735
-0.755
-0.74
-0.805
-0.77
-0.74
-0.81
-0.765
-0.805
-0.735
-0.795
-0.765
-0.735
-0.72
-0.83
-0.835
-0.78
-0.74
-0.76
-0.77
-0.735
-0.8
-0.805
-0.8
-0.71
-0.775
-0.795
-0.745
-0.8
-0.805
-0.76
-0.76
-0.715
-0.785
-0.81
-0.76
-0.77
-0.74
-0.77
-0.75
-0.785
-0.845
-0.815
-0.82
-0.795
-0.805
-0.72
-0.715
-0.715
-0.725
-0.82
-0.805
-0.755
-0.755
-0.755
-0.78
-0.8
-0.755
-0.76
-0.715
-0.775
-0.825
-0.73
-0.74
-0.755
-0.82
-0.785
-0.725
-0.8
-0.785
-0.75
-0.765
-0.75
-0.725
-0.715
-0.68
-0.845
-0.87
-0.81
-0.8
-0.75
-0.755
-0.695
-0.68
-0.81
-0.905
-0.835
-0.81
-0.805
-0.775
-0.78
-0.815
-0.825
-0.79
-0.76
-0.8
-0.81
-0.785
-0.77
-0.79
-0.815
-0.8
-0.785
-0.8
-0.77
-0.77
-0.8
-0.835
-0.75
-0.79
-0.81
-0.74
-0.795
-0.835
-0.85
-0.82
-0.76
-0.795
-0.84
-0.815
-0.79
-0.81
-0.795
-0.795
-0.875
-0.915
-0.815
-0.81
-0.82
-0.87
-0.86
-0.865
-0.865
-0.835
-0.845
-0.855
-0.835
-0.83
-0.815
-0.83
-0.77
-0.805
-0.81
-0.935
-0.89
-0.885
-0.895
-0.91
-0.9
-0.855
-0.82
-0.815
-0.795
-0.86
-0.83
-0.845
-0.795
-0.855
-0.855
-0.855
-0.87
-0.84
-0.855
-0.835
-0.885
-0.895
-0.865
-0.83
-0.84
-0.905
-0.895
-0.855
-0.85
-0.895
-0.83
-0.865
-0.87
-0.89
-0.87
-0.89
-0.865
-0.92
-0.87
-0.84
-0.87
-0.895
-0.885
-0.805
-0.84
-0.86
-0.91
-0.91
-0.83
-0.875
-0.895
-0.87
-0.89
-0.86
-0.875
-0.89
-0.865
-0.805
-0.945
-0.94
-0.91
-0.87
-0.855
-0.875
-0.855
-0.915
-0.895
-0.92
-0.845
-0.915
-0.905
-0.845
-0.925
-0.92
-0.89
-0.96
-0.96
-0.895
-0.84
-0.88
-0.84
-0.87
-0.905
-0.92
-0.93
-0.92
-0.88
-0.845
-0.865
-0.85
-0.875
-0.89
-0.93
-0.965
-0.81
-0.86
-0.89
-0.88
-0.865
-0.875
-0.875
-0.865
-0.85
-0.845
-0.845
-0.875
-0.815
-0.815
-0.81
-0.785
-0.835
-0.88
-0.85
-0.81
-0.865
-0.815
-0.755
-0.825
-0.85
-0.875
-0.865
-0.87
-0.85
-0.92
-0.9
-0.895
-0.82
-0.79
-0.875
-0.87
-0.885
-0.97
-0.84
-0.87
-0.855
-0.845
-0.845
-0.87
-0.865
-0.895
-0.855
-0.87
-0.89
-0.935
-0.9
-0.92
-0.915
-0.92
-0.84
-0.83
-0.875
-0.865
-0.855
-0.845
-0.92
-0.88
-0.915
-0.855
-0.855
-0.885
-0.82
-0.83
-0.88
-0.885
-0.895
-0.855
-0.85
-0.85
-0.795
-0.81
-0.75
-0.735
-0.59
-0.53
-0.405
-0.445
-0.53
-0.68
-0.825
-0.86
-0.84
-0.95
-0.98
-1.045
-1.03
-1.025
-0.995
-0.945
-1.02
-0.96
-0.935
-0.91
-0.87
-0.895
-0.945
-0.88
-0.775
-0.86
-0.83
-0.82
-0.795
-0.79
-0.83
-0.84
-0.85
-0.85
-0.855
-0.775
-0.71
-0.76
-0.845
-0.83
-0.78
-0.74
-0.84
-0.775
-0.745
-0.76
-0.845
-0.915
-0.905
-0.81
-0.745
-0.74
-0.78
-0.785
-0.77
-0.725
-0.68
-0.845
-0.785
-0.78
-0.785
-0.825
-0.85
-0.775
-0.725
-0.685
-0.685
-0.775
-0.725
-0.78
-0.835
-0.77
-0.8
-0.75
-0.73
-0.75
-0.74
-0.715
-0.74
-0.7
-0.71
-0.785
-0.73
-0.745
-0.78
-0.755
-0.735
-0.72
-0.775
-0.785
-0.76
-0.675
-0.555
-0.605
-0.765
-0.845
-0.76
-0.71
-0.69
-0.74
-0.73
-0.74
-0.62
-0.695
-0.71
-0.635
-0.61
-0.68
-0.76
-0.7
-0.58
-0.61
-0.615
-0.7
-0.635
-0.63
-0.695
-0.61
-0.56
-0.585
-0.57
-0.65
-0.61
-0.635
-0.565
-0.505
-0.415
-0.39
-0.62
-0.655
-0.635
-0.585
-0.585
-0.56
-0.565
-0.55
-0.565
-0.52
-0.58
-0.5
-0.59
-0.585
-0.56
-0.53
-0.57
-0.445
-0.415
-0.425
-0.66
-0.79
-0.705
-0.645
-0.69
-0.665
-0.605
-0.605
-0.68
-0.66
-0.725
-0.775
-0.76
-0.685
-0.72
-0.705
-0.75
-0.755
-0.725
-0.795
-0.79
-0.7
-0.81
-0.745
-0.71
-0.64
-0.73
-0.8
-0.775
-0.78
-0.745
-0.7
-0.79
-0.775
-0.81
-0.8
-0.805
-0.79
-0.79
-0.79
-0.735
-0.7
-0.79
-0.79
-0.84
-0.735
-0.75
-0.775
-0.825
-0.715
-0.735
-0.73
-0.75
-0.785
-0.725
-0.695
-0.705
-0.73
-0.705
-0.72
-0.76
-0.825
-0.825
-0.815
-0.8
-0.79
-0.75
-0.745
-0.74
-0.735
-0.665
-0.665
-0.77
-0.775
-0.785
-0.82
-0.79
-0.725
-0.765
-0.75
-0.76
-0.695
-0.685
-0.725
-0.775
-0.82
-0.78
-0.805
-0.73
-0.725
-0.78
-0.695
-0.72
-0.715
-0.745
-0.73
-0.73
-0.75
-0.8
-0.79
-0.835
-0.795
-0.71
-0.72
-0.765
-0.765
-0.73
-0.695
-0.71
-0.73
-0.71
-0.71
-0.69
-0.745
-0.77
-0.745
-0.75
-0.765
-0.85
-0.82
-0.78
-0.75
-0.695
-0.765
-0.765
-0.745
-0.765
-0.795
-0.765
-0.71
-0.78
-0.735
-0.745
-0.76
-0.74
-0.695
-0.825
-0.745
-0.7
-0.705
-0.75
-0.795
-0.725
-0.735
-0.8
-0.71
-0.795
-0.72
-0.68
-0.75
-0.79
-0.765
-0.765
-0.77
-0.72
-0.735
-0.745
-0.62
-0.735
-0.77
-0.82
-0.79
-0.745
-0.72
-0.73
-0.8
-0.765
-0.775
-0.785
-0.745
-0.625
-0.66
-0.655
-0.685
-0.72
-0.775
-0.78
-0.695
-0.72
-0.78
-0.75
-0.705
-0.71
-0.665
-0.595
-0.65
-0.705
-0.68
-0.645
-0.715
-0.785
-0.635
-0.63
-0.595
-0.625
-0.69
-0.665
-0.71
-0.715
-0.69
-0.74
-0.74
-0.755
-0.705
-0.72
-0.805
-0.7
-0.745
-0.725
-0.765
-0.775
-0.75
-0.72
-0.66
-0.725
-0.755
-0.715
-0.75
-0.745
-0.74
-0.77
-0.75
-0.74
-0.73
-0.69
-0.685
-0.745
-0.78
-0.705
-0.765
-0.76
-0.8
-0.67
-0.73
-0.72
-0.7
-0.75
-0.7
-0.685
-0.775
-0.81
-0.78
-0.755
-0.77
-0.685
-0.605
-0.525
-0.55
-0.47
-0.425
-0.35
-0.41
-0.465
-0.545
-0.71
-0.75
-0.74
-0.74
-0.845
-0.955
-0.87
-0.885
-0.865
-0.84
-0.8
-0.785
-0.745
-0.765
-0.75
-0.78
-0.8
-0.77
-0.715
-0.69
-0.69
-0.675
-0.735
-0.71
-0.71
-0.82
-0.745
-0.71
-0.73
-0.71
-0.695
-0.68
-0.695
-0.705
-0.775
-0.67
-0.695
-0.67
-0.655
-0.68
-0.72
-0.63
-0.64
-0.68
-0.715
-0.73
-0.725
-0.68
-0.67
-0.66
-0.675
-0.695
-0.66
-0.675
-0.705
-0.7
-0.665
-0.65
-0.655
-0.585
-0.645
-0.735
-0.67
-0.65
-0.595
-0.605
-0.63
-0.675
-0.73
-0.7
-0.655
-0.67
-0.715
-0.69
-0.625
-0.61
-0.665
-0.66
-0.665
-0.635
-0.585
-0.645
-0.665
-0.62
-0.58
-0.58
-0.605
-0.665
-0.65
-0.645
-0.625
-0.595
-0.6
-0.645
-0.615
-0.61
-0.6
-0.54
-0.55
-0.58
-0.65
-0.58
-0.595
-0.605
-0.56
-0.54
-0.515
-0.535
-0.555
-0.495
-0.57
-0.47
-0.555
-0.465
-0.415
-0.5
-0.52
-0.525
-0.535
-0.535
-0.485
-0.43
-0.415
-0.415
-0.54
-0.505
-0.455
-0.485
-0.44
-0.44
-0.465
-0.445
-0.47
-0.505
-0.54
-0.56
-0.505
-0.48
-0.48
-0.465
-0.555
-0.57
-0.545
-0.535
-0.515
-0.605
-0.675
-0.605
-0.605
-0.59
-0.62
-0.685
-0.655
-0.64
-0.665
-0.635
-0.595
-0.655
-0.595
-0.635
-0.725
-0.665
-0.7
-0.67
-0.73
-0.735
-0.685
-0.61
-0.645
-0.715
-0.695
-0.66
-0.64
-0.735
-0.725
-0.695
-0.71
-0.715
-0.735
-0.745
-0.72
-0.675
-0.685
-0.68
-0.66
-0.72
-0.71
-0.685
-0.71
-0.73
-0.7
-0.745
-0.64
-0.615
-0.62
-0.72
-0.73
-0.73
-0.655
-0.705
-0.73
-0.615
-0.64
-0.715
-0.715
-0.7
-0.665
-0.61
-0.725
-0.665
-0.695
-0.685
-0.69
-0.705
-0.67
-0.675
-0.745
-0.665
-0.67
-0.71
-0.685
-0.67
-0.725
-0.715
-0.68
-0.615
-0.68
-0.715
-0.74
-0.665
-0.655
-0.615
-0.68
-0.74
-0.64
-0.67
-0.715
-0.675
-0.7
-0.63
-0.71
-0.65
-0.67
-0.705
-0.72
-0.755
-0.685
-0.65
-0.655
-0.69
-0.67
-0.685
-0.685
-0.73
-0.645
-0.72
-0.635
-0.635
-0.67
-0.73
-0.695
-0.665
-0.71
-0.685
-0.705
-0.69
-0.705
-0.715
-0.695
-0.615
-0.68
-0.715
-0.73
-0.7
-0.685
-0.65
-0.67
-0.72
-0.595
-0.65
-0.65
-0.67
-0.735
-0.76
-0.68
-0.65
-0.67
-0.735
-0.715
-0.695
-0.645
-0.655
-0.69
-0.68
-0.74
-0.735
-0.74
-0.7
-0.67
-0.715
-0.665
-0.66
-0.63
-0.635
-0.725
-0.655
-0.705
-0.705
-0.655
-0.7
-0.64
-0.605
-0.62
-0.585
-0.605
-0.64
-0.58
-0.58
-0.675
-0.705
-0.645
-0.67
-0.605
-0.63
-0.65
-0.6
-0.59
-0.61
-0.57
-0.655
-0.7
-0.625
-0.605
-0.695
-0.665
-0.635
-0.655
-0.715
-0.67
-0.615
-0.62
-0.71
-0.685
-0.695
-0.695
-0.715
-0.7
-0.69
-0.665
-0.705
-0.695
-0.69
-0.71
-0.71
-0.68
-0.735
-0.625
-0.7
-0.71
-0.665
-0.735
-0.73
-0.65
-0.675
-0.685
-0.7
-0.66
-0.67
-0.655
-0.69
-0.585
-0.55
-0.635
-0.725
-0.75
-0.775
-0.725
-0.69
-0.595
-0.6
-0.475
-0.405
-0.4
-0.365
-0.395
-0.37
-0.375
-0.485
-0.64
-0.705
-0.77
-0.735
-0.765
-0.79
-0.815
-0.82
-0.855
-0.815
-0.775
-0.74
-0.705
-0.675
-0.655
-0.67
-0.72
-0.735
-0.685
-0.675
-0.69
-0.72
-0.665
-0.635
-0.64
-0.66
-0.665
-0.68
-0.63
-0.68
-0.67
-0.59
-0.65
-0.695
-0.715
-0.68
-0.62
-0.62
-0.61
-0.63
-0.64
-0.665
-0.645
-0.695
-0.68
-0.625
-0.565
-0.62
-0.595
-0.605
-0.665
-0.72
-0.69
-0.62
-0.615
-0.645
-0.56
-0.58
-0.64
-0.635
-0.635
-0.58
-0.585
-0.655
-0.715
-0.635
-0.55
-0.625
-0.565
-0.59
-0.615
-0.605
-0.67
-0.565
-0.595
-0.72
-0.645
-0.605
-0.615
-0.615
-0.57
-0.56
-0.67
-0.625
-0.595
-0.58
-0.58
-0.625
-0.62
-0.605
-0.575
-0.56
-0.565
-0.575
-0.535
-0.53
-0.58
-0.565
-0.565
-0.555
-0.525
-0.58
-0.59
-0.575
-0.63
-0.5
-0.52
-0.5
-0.485
-0.505
-0.49
-0.505
-0.51
-0.48
-0.355
-0.455
-0.51
-0.495
-0.48
-0.455
-0.46
-0.46
-0.475
-0.445
-0.42
-0.375
-0.405
-0.485
-0.51
-0.49
-0.475
-0.44
-0.445
-0.465
-0.51
-0.5
-0.485
-0.47
-0.525
-0.52
-0.43
-0.52
-0.57
-0.565
-0.49
-0.555
-0.66
-0.56
-0.575
-0.62
-0.605
-0.64
-0.705
-0.6
-0.585
-0.645
-0.62
-0.64
-0.66
-0.68
-0.69
-0.68
-0.64
-0.685
-0.685
-0.65
-0.655
-0.6
-0.63
-0.67
-0.665
-0.64
-0.69
-0.62
-0.68
-0.6
-0.615
-0.68
-0.65
-0.665
-0.72
-0.745
-0.565
-0.58
-0.725
-0.71
-0.615
-0.655
-0.73
-0.73
-0.665
-0.715
-0.73
-0.62
-0.615
-0.645
-0.63
-0.605
-0.675
-0.685
-0.645
-0.655
-0.685
-0.665
-0.66
-0.655
-0.645
-0.7
-0.61
-0.675
-0.58
-0.67
-0.64
-0.59
-0.685
-0.63
-0.655
-0.725
-0.73
-0.67
-0.68
-0.67
-0.665
-0.605
-0.665
-0.645
-0.65
-0.59
-0.65
-0.675
-0.68
-0.66
-0.655
-0.685
-0.665
-0.605
-0.675
-0.685
-0.685
-0.615
-0.59
-0.655
-0.725
-0.665
-0.665
-0.68
-0.625
-0.6
-0.6
-0.6
-0.61
-0.68
-0.735
-0.685
-0.65
-0.665
-0.7
-0.705
-0.585
-0.63
-0.64
-0.67
-0.685
-0.62
-0.65
-0.62
-0.63
-0.69
-0.675
-0.745
-0.635
-0.695
-0.69
-0.68
-0.615
-0.63
-0.65
-0.625
-0.61
-0.645
-0.7
-0.645
-0.67
-0.69
-0.67
-0.675
-0.675
-0.58
-0.58
-0.725
-0.655
-0.645
-0.655
-0.62
-0.615
-0.715
-0.68
-0.7
-0.695
-0.635
-0.65
-0.72
-0.67
-0.65
-0.665
-0.59
-0.63
-0.64
-0.695
-0.66
-0.665
-0.61
-0.625
-0.62
-0.65
-0.665
-0.66
-0.695
-0.685
-0.67
-0.7
-0.68
-0.65
-0.62
-0.69
-0.665
-0.645
-0.56
-0.635
-0.69
-0.645
-0.675
-0.67
-0.59
-0.59
-0.605
-0.63
-0.595
-0.59
-0.63
-0.615
-0.61
-0.635
-0.575
-0.655
-0.56
-0.555
-0.655
-0.65
-0.6
-0.58
-0.58
-0.555
-0.58
-0.65
-0.605
-0.615
-0.575
-0.6
-0.685
-0.62
-0.565
-0.61
-0.6
-0.67
-0.665
-0.65
-0.66
-0.665
-0.68
-0.6
-0.59
-0.605
-0.635
-0.74
-0.695
-0.64
-0.575
-0.66
-0.68
-0.685
-0.705
-0.705
-0.655
-0.66
-0.635
-0.64
-0.64
-0.63
-0.625
-0.625
-0.71
-0.665
-0.66
-0.65
-0.635
-0.665
-0.675
-0.635
-0.64
-0.655
-0.695
-0.64
-0.655
-0.63
-0.53
-0.48
-0.525
-0.525
-0.46
-0.37
-0.31
-0.26
-0.31
-0.42
-0.51
-0.57
-0.63
-0.63
-0.72
-0.805
-0.78
-0.825
-0.855
-0.8
-0.77
-0.72
-0.71
-0.705
-0.68
-0.7
-0.635
-0.655
-0.66
-0.69
-0.645
-0.64
-0.66
-0.595
-0.58
-0.59
-0.625
-0.655
-0.705
-0.645
-0.605
-0.58
-0.63
-0.59
-0.65
-0.675
-0.675
-0.6
-0.67
-0.62
-0.6
-0.65
-0.625
-0.63
-0.645
-0.625
-0.585
-0.585
-0.605
-0.605
-0.605
-0.56
-0.58
-0.67
-0.62
-0.585
-0.72
-0.655
-0.585
-0.56
-0.585
-0.64
-0.57
-0.495
-0.59
-0.59
-0.605
-0.625
-0.58
-0.61
-0.625
-0.55
-0.61
-0.585
-0.55
-0.55
-0.555
-0.585
-0.48
-0.56
-0.675
-0.64
-0.595
-0.545
-0.595
-0.555
-0.575
-0.53
-0.55
-0.58
-0.525
-0.585
-0.575
-0.52
-0.475
-0.54
-0.455
-0.475
-0.5
-0.43
-0.545
-0.58
-0.505
-0.51
-0.585
-0.52
-0.49
-0.505
-0.485
-0.5
-0.445
-0.475
-0.485
-0.43
-0.42
-0.405
-0.395
-0.415
-0.36
-0.365
-0.43
-0.4
-0.385
-0.415
-0.38
-0.32
-0.46
-0.5
-0.38
-0.43
-0.41
-0.44
-0.34
-0.36
-0.475
-0.42
-0.46
-0.43
-0.37
-0.415
-0.48
-0.44
-0.475
-0.405
-0.485
-0.495
-0.41
-0.48
-0.57
-0.63
-0.595
-0.58
-0.605
-0.645
-0.54
-0.51
-0.535
-0.555
-0.595
-0.64
-0.585
-0.62
-0.62
-0.62
-0.57
-0.595
-0.57
-0.6
-0.48
-0.66
-0.685
-0.63
-0.605
-0.585
-0.595
-0.595
-0.585
-0.595
-0.64
-0.57
-0.585
-0.61
-0.59
-0.57
-0.63
-0.625
-0.64
-0.65
-0.585
-0.63
-0.625
-0.61
-0.59
-0.505
-0.605
-0.605
-0.62
-0.6
-0.605
-0.625
-0.605
-0.545
-0.575
-0.505
-0.59
-0.58
-0.645
-0.64
-0.67
-0.65
-0.625
-0.61
-0.615
-0.655
-0.58
-0.495
-0.58
-0.645
-0.54
-0.535
-0.565
-0.61
-0.645
-0.61
-0.64
-0.6
-0.625
-0.575
-0.525
-0.535
-0.555
-0.615
-0.6
-0.64
-0.575
-0.615
-0.655
-0.595
-0.555
-0.635
-0.66
-0.605
-0.58
-0.59
-0.6
-0.455
-0.53
-0.675
-0.67
-0.675
-0.56
-0.545
-0.565
-0.575
-0.61
-0.68
-0.6
-0.575
-0.615
-0.64
-0.6
-0.615
-0.54
-0.54
-0.54
-0.7
-0.63
-0.63
-0.66
-0.57
-0.57
-0.6
-0.645
-0.615
-0.65
-0.63
-0.565
-0.62
-0.67
-0.625
-0.63
-0.61
-0.595
-0.58
-0.58
-0.555
-0.54
-0.65
-0.66
-0.64
-0.64
-0.665
-0.62
-0.64
-0.595
-0.605
-0.635
-0.605
-0.63
-0.655
-0.625
-0.6
-0.58
-0.61
-0.645
-0.67
-0.615
-0.58
-0.545
-0.585
-0.565
-0.665
-0.67
-0.615
-0.65
-0.63
-0.68
-0.66
-0.615
-0.53
-0.555
-0.71
-0.685
-0.635
-0.635
-0.615
-0.585
-0.6
-0.615
-0.715
-0.66
-0.63
-0.64
-0.655
-0.62
-0.605
-0.61
-0.655
-0.665
-0.64
-0.655
-0.565
-0.535
-0.67
-0.66
-0.59
-0.605
-0.69
-0.715
-0.65
-0.73
-0.665
-0.62
-0.615
-0.635
-0.66
-0.62
-0.665
-0.64
-0.685
-0.62
-0.655
-0.69
-0.665
-0.655
-0.665
-0.625
-0.655
-0.615
-0.69
-0.675
-0.64
-0.56
-0.51
-0.64
-0.75
-0.7
-0.72
-0.67
-0.715
-0.705
-0.685
-0.665
-0.635
-0.62
-0.63
-0.71
-0.71
-0.615
-0.625
-0.67
-0.67
-0.705
-0.68
-0.7
-0.635
-0.66
-0.67
-0.625
-0.65
-0.65
-0.61
-0.7
-0.755
-0.705
-0.69
-0.605
-0.675
-0.68
-0.635
-0.605
-0.68
-0.7
-0.66
-0.66
-0.63
-0.615
-0.53
-0.63
-0.64
-0.615
-0.57
-0.645
-0.675
-0.635
-0.645
-0.705
-0.7
-0.615
-0.595
-0.515
-0.66
-0.77
-0.69
-0.71
-0.695
-0.655
-0.72
-0.76
-0.695
-0.69
-0.745
-0.71
-0.685
-0.69
-0.735
-0.68
-0.695
-0.75
-0.705
-0.665
-0.675
-0.775
-0.765
-0.715
-0.695
-0.76
-0.765
-0.705
-0.705
-0.775
-0.725
-0.67
-0.77
-0.7
-0.725
-0.685
-0.685
-0.645
-0.66
-0.735
-0.735
-0.73
-0.785
-0.69
-0.735
-0.695
-0.66
-0.655
-0.585
-0.525
-0.465
-0.41
-0.41
-0.4
-0.36
-0.445
-0.69
-0.75
-0.775
-0.775
-0.83
-0.83
-0.95
-0.965
-0.93
-0.9
-0.86
-0.83
-0.785
-0.76
-0.75
-0.775
-0.8
-0.725
-0.74
-0.8
-0.835
-0.775
-0.75
-0.725
-0.715
-0.765
-0.73
-0.77
-0.7
-0.795
-0.81
-0.795
-0.805
-0.74
-0.685
-0.665
-0.8
-0.76
-0.815
-0.77
-0.8
-0.74
-0.72
-0.725
-0.79
-0.8
-0.795
-0.715
-0.74
-0.74
-0.72
-0.775
-0.805
-0.745
-0.675
-0.765
-0.79
-0.81
-0.75
-0.815
-0.8
-0.775
-0.725
-0.74
-0.745
-0.76
-0.795
-0.77
-0.71
-0.725
-0.74
-0.725
-0.76
-0.705
-0.715
-0.8
-0.795
-0.75
-0.745
-0.74
-0.705
-0.69
-0.69
-0.705
-0.745
-0.765
-0.775
-0.75
-0.76
-0.735
-0.715
-0.705
-0.705
-0.7
-0.68
-0.73
-0.725
-0.7
-0.745
-0.73
-0.7
-0.715
-0.67
-0.665
-0.7
-0.685
-0.65
-0.695
-0.65
-0.655
-0.665
-0.57
-0.66
-0.685
-0.705
-0.63
-0.615
-0.56
-0.6
-0.625
-0.63
-0.67
-0.67
-0.65
-0.6
-0.61
-0.615
-0.665
-0.6
-0.57
-0.695
-0.605
-0.59
-0.605
-0.63
-0.565
-0.62
-0.565
-0.55
-0.685
-0.745
-0.72
-0.73
-0.645
-0.635
-0.675
-0.76
-0.765
-0.77
-0.76
-0.8
-0.775
-0.735
-0.85
-0.86
-0.8
-0.775
-0.775
-0.78
-0.81
-0.865
-0.825
-0.805
-0.86
-0.89
-0.855
-0.825
-0.845
-0.82
-0.855
-0.835
-0.81
-0.835
-0.905
-0.885
-0.87
-0.85
-0.84
-0.865
-0.87
-0.87
-0.86
-0.835
-0.85
-0.83
-0.845
-0.92
-0.915
-0.855
-0.885
-0.875
-0.875
-0.84
-0.855
-0.845
-0.9
-0.855
-0.875
-0.92
-0.86
-0.87
-0.895
-0.84
-0.825
-0.9
-0.88
-0.88
-0.87
-0.86
-0.815
-0.87
-0.925
-0.895
-0.85
-0.86
-0.835
-0.84
-0.86
-0.795
-0.86
-0.96
-0.92
-0.87
-0.9
-0.94
-0.84
-0.84
-0.88
-0.88
-0.89
-0.885
-0.915
-0.905
-0.865
-0.85
-0.915
-0.915
-0.89
-0.83
-0.835
-0.88
-0.885
-0.85
-0.885
-0.96
-0.98
-0.87
-0.91
-0.93
-0.91
-0.875
-0.925
-0.93
-0.915
-0.905
-0.875
-0.88
-0.915
-0.9
-0.92
-0.885
-0.895
-0.945
-0.85
-0.87
-0.97
-0.91
-0.905
-0.915
-0.88
-0.86
-0.82
-0.99
-0.955
-0.94
-0.895
-0.925
-1.015
-0.905
-0.9
-0.91
-0.95
-0.945
-0.94
-0.92
-0.89
-0.905
-0.905
-0.94
-0.89
-0.9
-0.9
-0.925
-0.965
-0.915
-0.92
-0.89
-0.93
-0.92
-0.945
-0.985
-0.895
-0.875
-0.81
-0.835
-1.005
-0.9
-0.825
-0.915
-0.995
-0.925
-0.925
-0.925
-0.895
-0.84
-0.91
-0.96
-0.92
-0.875
-0.89
-0.965
-0.935
-0.89
-0.935
-0.91
-0.935
-0.955
-0.845
-0.825
-0.85
-0.91
-0.905
-0.895
-0.88
-0.925
-0.9
-0.91
-0.95
-0.93
-0.905
-0.92
-0.915
-0.935
-0.915
-0.925
-0.88
-0.955
-0.905
-0.87
-0.885
-0.925
-0.875
-0.855
-0.9
-0.845
-0.83
-0.885
-0.96
-0.92
-0.92
-0.92
-0.955
-0.88
-0.855
-0.92
-0.97
-0.955
-0.875
-0.865
-0.905
-0.96
-0.87
-0.84
-0.945
-0.93
-0.9
-0.94
-0.895
-0.81
-0.84
-0.845
-0.84
-0.885
-0.96
-0.88
-0.835
-0.925
-0.96
-0.92
-0.91
-0.885
-0.93
-0.905
-0.895
-0.85
-0.87
-0.89
-0.78
-0.88
-0.86
-0.83
-0.87
-0.81
-0.815
-0.845
-0.82
-0.855
-0.85
-0.825
-0.78
-0.815
-0.845
-0.825
-0.805
-0.835
-0.855
-0.795
-0.875
-0.955
-0.95
-0.885
-0.925
-0.92
-0.915
-0.905
-0.93
-0.91
-0.89
-0.905
-0.825
-0.85
-0.91
-0.925
-0.905
-0.9
-0.855
-0.86
-0.935
-0.915
-0.93
-0.97
-0.915
-0.89
-0.925
-0.93
-0.99
-0.86
-0.92
-0.935
-0.86
-0.89
-0.88
-0.895
-0.93
-0.91
-0.9
-0.865
-0.915
-0.955
-0.96
-0.935
-0.935
-0.91
-0.875
-0.855
-0.815
-0.815
-0.685
-0.6
-0.585
-0.655
-0.71
-0.8
-1.035
-1.005
-1.015
-1.02
-1.045
-1.12
-1.1
-1.05
-1.065
-1.095
-1.1
-1.05
-0.935
-0.97
-1.005
-0.86
-0.92
-0.935
-0.975
-0.935
-0.84
-0.915
-0.94
-0.93
-0.95
-0.97
-0.85
-0.865
-0.905
-0.955
-0.89
-0.895
-0.89
-0.875
-0.83
-0.83
-0.94
-0.94
-0.905
-0.885
-0.895
-0.91
-0.86
-0.875
-0.825
-0.88
-0.935
-0.93
-0.85
-0.86
-0.87
-0.92
-0.87
-0.9
-0.9
-0.86
-0.835
-0.845
-0.85
-0.81
-0.81
-0.82
-0.87
-0.895
-0.82
-0.78
-0.845
-0.885
-0.845
-0.855
-0.825
-0.78
-0.83
-0.87
-0.835
-0.855
-0.77
-0.81
-0.825
-0.735
-0.865
-0.77
-0.815
-0.855
-0.82
-0.74
-0.755
-0.795
-0.8
-0.825
-0.845
-0.77
-0.725
-0.68
-0.73
-0.785
-0.815
-0.72
-0.7
-0.79
-0.74
-0.81
-0.67
-0.7
-0.715
-0.655
-0.71
-0.67
-0.72
-0.695
-0.605
-0.605
-0.635
-0.655
-0.655
-0.665
-0.615
-0.57
-0.555
-0.57
-0.65
-0.645
-0.71
-0.59
-0.555
-0.555
-0.555
-0.6
-0.635
-0.625
-0.6
-0.575
-0.62
-0.605
-0.525
-0.61
-0.645
-0.55
-0.605
-0.7
-0.63
-0.625
-0.625
-0.665
-0.7
-0.77
-0.67
-0.68
-0.725
-0.71
-0.695
-0.75
-0.735
-0.745
-0.72
-0.77
-0.75
-0.705
-0.715
-0.83
-0.82
-0.82
-0.855
-0.795
-0.81
-0.865
-0.845
-0.78
-0.835
-0.795
-0.79
-0.805
-0.845
-0.83
-0.86
-0.76
-0.81
-0.805
-0.85
-0.835
-0.79
-0.815
-0.835
-0.915
-0.815
-0.825
-0.795
-0.82
-0.875
-0.83
-0.8
-0.775
-0.75
-0.785
-0.75
-0.8
-0.75
-0.795
-0.795
-0.8
-0.905
-0.83
-0.8
-0.825
-0.795
-0.795
-0.81
-0.82
-0.805
-0.77
-0.755
-0.715
-0.77
-0.895
-0.815
-0.77
-0.81
-0.81
-0.82
-0.86
-0.775
-0.74
-0.845
-0.875
-0.825
-0.795
-0.765
-0.84
-0.89
-0.87
-0.785
-0.76
-0.815
-0.835
-0.83
-0.81
-0.82
-0.795
-0.775
-0.835
-0.79
-0.78
-0.72
-0.705
-0.89
-0.885
-0.83
-0.765
-0.79
-0.875
-0.88
-0.82
-0.79
-0.805
-0.82
-0.81
-0.81
-0.815
-0.84
-0.88
-0.865
-0.795
-0.785
-0.805
-0.84
-0.825
-0.81
-0.825
-0.88
-0.84
-0.825
-0.795
-0.8
-0.755
-0.83
-0.855
-0.84
-0.805
-0.83
-0.795
-0.79
-0.825
-0.8
-0.78
-0.795
-0.74
-0.745
-0.835
-0.87
-0.785
-0.825
-0.845
-0.81
-0.745
-0.755
-0.87
-0.86
-0.805
-0.815
-0.76
-0.815
-0.845
-0.815
-0.78
-0.775
-0.775
-0.87
-0.795
-0.765
-0.81
-0.755
-0.785
-0.795
-0.775
-0.825
-0.805
-0.835
-0.89
-0.815
-0.81
-0.865
-0.78
-0.805
-0.795
-0.775
-0.745
-0.8
-0.845
-0.825
-0.86
-0.81
-0.785
-0.77
-0.805
-0.825
-0.85
-0.8
-0.78
-0.835
-0.835
-0.795
-0.75
-0.845
-0.795
-0.82
-0.82
-0.76
-0.765
-0.795
-0.755
-0.795
-0.79
-0.835
-0.87
-0.82
-0.875
-0.86
-0.83
-0.815
-0.845
-0.815
-0.825
-0.81
-0.75
-0.805
-0.84
-0.83
-0.795
-0.835
-0.81
-0.785
-0.775
-0.92
-0.87
-0.81
-0.79
-0.785
-0.785
-0.795
-0.76
-0.765
-0.81
-0.8
-0.795
-0.8
-0.77
-0.785
-0.8
-0.765
-0.76
-0.785
-0.75
-0.675
-0.71
-0.785
-0.725
-0.735
-0.75
-0.745
-0.81
-0.885
-0.825
-0.82
-0.8
-0.825
-0.815
-0.81
-0.85
-0.845
-0.81
-0.795
-0.82
-0.8
-0.84
-0.87
-0.83
-0.865
-0.8
-0.865
-0.845
-0.835
-0.8
-0.845
-0.81
-0.815
-0.875
-0.94
-0.895
-0.865
-0.88
-0.86
-0.87
-0.89
-0.87
-0.865
-0.855
-0.88
-0.825
-0.825
-0.755
-0.865
-0.835
-0.85
-0.88
-0.9
-0.875
-0.865
-0.795
-0.755
-0.72
-0.665
-0.58
-0.57
-0.54
-0.55
-0.58
-0.76
-0.825
-0.825
-0.87
-0.915
-0.99
-1.045
-1.035
-1.02
-1.015
-0.97
-0.93
-0.905
-0.915
-0.975
-0.875
-0.845
-0.865
-0.935
-0.88
-0.85
-0.86
-0.85
-0.865
-0.87
-0.87
-0.85
-0.835
-0.875
-0.815
-0.83
-0.895
-0.86
-0.865
-0.805
-0.87
-0.85
-0.855
-0.85
-0.855
-0.845
-0.75
-0.75
-0.8
-0.805
-0.84
-0.845
-0.835
-0.835
-0.825
-0.845
-0.88
-0.89
-0.86
-0.85
-0.86
-0.88
-0.845
-0.825
-0.81
-0.815
-0.805
-0.83
-0.83
-0.88
-0.87
-0.795
-0.745
-0.805
-0.86
-0.805
-0.785
-0.835
-0.86
-0.935
-0.995
-0.875
-0.83
-0.89
-0.9
-0.83
-0.865
-0.84
-0.835
-0.805
-0.83
-0.845
-0.81
-0.86
-0.86
-0.81
-0.805
-0.83
-0.78
-0.76
-0.78
-0.795
-0.795
-0.83
-0.835
-0.845
-0.865
-0.75
-0.805
-0.805
-0.785
-0.83
-0.76
-0.755
-0.735
-0.75
-0.695
-0.665
-0.73
-0.7
-0.735
-0.72
-0.705
-0.695
-0.71
-0.79
-0.725
-0.73
-0.69
-0.665
-0.71
-0.725
-0.73
-0.68
-0.64
-0.71
-0.65
-0.665
-0.62
-0.675
-0.64
-0.675
-0.73
-0.73
-0.715
-0.765
-0.72
-0.735
-0.74
-0.755
-0.715
-0.74
-0.78
-0.795
-0.785
-0.76
-0.795
-0.865
-0.935
-0.91
-0.895
-0.85
-0.9
-0.855
-0.83
-0.89
-0.91
-0.865
-0.865
-0.88
-0.895
-0.865
-0.915
-0.845
-0.915
-0.915
-0.89
-0.88
-0.885
-0.89
-0.87
-0.81
-0.875
-0.9
-0.87
-0.825
-0.88
-0.865
-0.96
-1.0
-0.905
-0.96
-0.895
-0.93
-0.93
-0.825
-0.895
-0.93
-0.88
-0.88
-0.875
-0.89
-0.87
-0.885
-0.895
-0.86
-0.895
-0.92
-0.925
-0.91
-0.96
-0.985
-0.89
-0.88
-0.89
-0.865
-0.88
-0.895
-0.835
-0.92
-0.97
-0.88
-0.89
-0.9
-0.85
-0.915
-0.895
-0.925
-0.95
-0.845
-0.835
-0.82
-0.86
-0.915
-0.89
-0.885
-0.895
-0.865
-0.845
-0.925
-0.875
-0.91
-0.895
-0.885
-0.935
-0.885
-0.88
-0.845
-0.84
-0.935
-0.91
-0.9
-0.87
-0.9
-0.85
-0.895
-0.89
-0.92
-0.925
-0.87
-0.915
-0.875
-0.875
-0.83
-0.86
-0.86
-0.875
-0.915
-0.89
-0.88
-0.87
-0.88
-0.855
-0.87
-0.925
-0.915
-0.865
-0.88
-0.85
-0.815
-0.835
-0.88
-0.95
-0.925
-0.88
-0.86
-0.875
-0.86
-0.87
-0.895
-0.845
-0.925
-0.91
-0.91
-0.93
-0.885
-0.89
-0.815
-0.86
-0.925
-0.895
-0.885
-0.855
-0.925
-0.91
-0.92
-0.86
-0.88
-0.83
-0.805
-0.82
-0.93
-0.945
-0.885
-0.88
-0.87
-0.86
-0.89
-0.89
-0.86
-0.905
-0.855
-0.89
-0.835
-0.84
-0.94
-0.945
-0.885
-0.89
-0.86
-0.885
-0.875
-0.845
-0.86
-0.945
-0.945
-0.875
-0.865
-0.905
-0.925
-0.82
-0.805
-0.935
-0.895
-0.87
-0.87
-0.905
-0.895
-0.895
-0.92
-0.9
-0.885
-0.885
-0.875
-0.78
-0.895
-0.875
-0.87
-0.86
-0.885
-0.85
-0.865
-0.83
-0.885
-0.945
-0.935
-0.935
-0.885
-0.865
-0.83
-0.865
-0.875
-0.87
-0.87
-0.855
-0.88
-0.88
-0.835
-0.875
-0.88
-0.895
-0.825
-0.89
-0.85
-0.865
-0.815
-0.83
-0.855
-0.84
-0.8
-0.81
-0.88
-0.82
-0.95
-0.935
-0.89
-0.91
-0.86
-0.83
-0.835
-0.91
-0.87
-0.875
-0.86
-0.765
-0.83
-0.835
-0.835
-0.885
-0.88
-0.84
-0.835
-0.775
-0.815
-0.8
-0.865
-0.845
-0.865
-0.86
-0.925
-0.8
-0.765
-0.795
-0.785
-0.8
-0.8
-0.815
-0.785
-0.74
-0.76
-0.795
-0.835
-0.765
-0.805
-0.835
-0.83
-0.75
-0.76
-0.83
-0.785
-0.765
-0.675
-0.685
-0.765
-0.865
-0.785
-0.815
-0.835
-0.76
-0.775
-0.86
-0.865
-0.81
-0.82
-0.845
-0.88
-0.85
-0.785
-0.785
-0.77
-0.78
-0.91
-0.855
-0.865
-0.815
-0.835
-0.87
-0.84
-0.805
-0.865
-0.815
-0.83
-0.785
-0.795
-0.81
-0.84
-0.865
-0.865
-0.83
-0.785
-0.84
-0.925
-0.83
-0.735
-0.75
-0.695
-0.77
-0.83
-0.825
-0.795
-0.81
-0.78
-0.7
-0.7
-0.56
-0.535
-0.47
-0.43
-0.475
-0.59
-0.66
-0.765
-0.85
-0.83
-0.875
-0.885
-0.945
-0.955
-0.885
-0.895
-0.87
-0.95
-0.86
-0.89
-0.845
-0.81
-0.835
-0.8
-0.76
-0.795
-0.73
-0.85
-0.875
-0.83
-0.775
-0.775
-0.76
-0.805
-0.78
-0.825
-0.875
-0.75
-0.75
-0.77
-0.785
-0.755
-0.735
-0.775
-0.81
-0.81
-0.78
-0.775
-0.855
-0.755
-0.78
-0.77
-0.78
-0.79
-0.775
-0.75
-0.77
-0.675
-0.745
-0.76
-0.73
-0.74
-0.75
-0.79
-0.745
-0.79
-0.795
-0.765
-0.775
-0.7
-0.665
-0.695
-0.75
-0.75
-0.825
-0.805
-0.725
-0.77
-0.745
-0.73
-0.7
-0.73
-0.755
-0.78
-0.68
-0.675
-0.69
-0.71
-0.72
-0.645
-0.715
-0.69
-0.685
-0.67
-0.72
-0.795
-0.7
-0.75
-0.76
-0.735
-0.735
-0.685
-0.665
-0.66
-0.675
-0.63
-0.655
-0.62
-0.61
-0.635
-0.62
-0.585
-0.69
-0.695
-0.66
-0.665
-0.635
-0.61
-0.615
-0.505
-0.575
-0.55
-0.45
-0.57
-0.675
-0.625
-0.58
-0.605
-0.58
-0.565
-0.53
-0.59
-0.605
-0.54
-0.515
-0.52
-0.545
-0.54
-0.505
-0.465
-0.52
-0.575
-0.56
-0.545
-0.575
-0.56
-0.575
-0.56
-0.605
-0.615
-0.605
-0.645
-0.65
-0.64
-0.595
-0.605
-0.64
-0.645
-0.7
-0.75
-0.71
-0.65
-0.715
-0.71
-0.75
-0.745
-0.73
-0.73
-0.69
-0.7
-0.75
-0.73
-0.695
-0.675
-0.71
-0.68
-0.76
-0.74
-0.745
-0.76
-0.76
-0.76
-0.665
-0.625
-0.71
-0.845
-0.79
-0.77
-0.715
-0.725
-0.755
-0.665
-0.705
-0.725
-0.8
-0.795
-0.725
-0.72
-0.785
-0.675
-0.675
-0.775
-0.745
-0.78
-0.79
-0.72
-0.69
-0.675
-0.645
-0.65
-0.66
-0.75
-0.83
-0.755
-0.735
-0.765
-0.695
-0.695
-0.74
-0.745
-0.695
-0.665
-0.695
-0.755
-0.765
-0.7
-0.665
-0.66
-0.745
-0.77
-0.72
-0.705
-0.715
-0.775
-0.725
-0.635
-0.64
-0.66
-0.735
-0.75
-0.72
-0.775
-0.73
-0.69
-0.68
-0.68
-0.74
-0.71
-0.745
-0.72
-0.725
-0.68
-0.645
-0.77
-0.755
-0.69
-0.72
-0.71
-0.655
-0.68
-0.685
-0.69
-0.71
-0.725
-0.635
-0.76
-0.7
-0.66
-0.675
-0.675
-0.66
-0.695
-0.73
-0.775
-0.785
-0.76
-0.74
-0.715
-0.685
-0.74
-0.72
-0.715
-0.7
-0.705
-0.75
-0.655
-0.645
-0.63
-0.625
-0.695
-0.745
-0.66
-0.695
-0.66
-0.735
-0.71
-0.705
-0.725
-0.705
-0.69
-0.735
-0.695
-0.695
-0.63
-0.675
-0.69
-0.66
-0.7
-0.665
-0.69
-0.705
-0.68
-0.68
-0.695
-0.685
-0.7
-0.68
-0.66
-0.61
-0.67
-0.73
-0.645
-0.655
-0.665
-0.675
-0.665
-0.64
-0.685
-0.71
-0.685
-0.65
-0.59
-0.625
-0.6
-0.69
-0.705
-0.725
-0.715
-0.69
-0.66
-0.665
-0.655
-0.645
-0.635
-0.685
-0.715
-0.695
-0.67
-0.6
-0.605
-0.675
-0.67
-0.665
-0.68
-0.655
-0.64
-0.675
-0.705
-0.65
-0.665
-0.72
-0.72
-0.645
-0.63
-0.72
-0.69
-0.645
-0.66
-0.63
-0.66
-0.68
-0.695
-0.63
-0.645
-0.6
-0.61
-0.68
-0.715
-0.705
-0.66
-0.62
-0.66
-0.64
-0.625
-0.675
-0.68
-0.645
-0.695
-0.665
-0.585
-0.645
-0.62
-0.67
-0.655
-0.63
-0.74
-0.745
-0.65
-0.64
-0.68
-0.59
-0.61
-0.65
-0.675
-0.655
-0.655
-0.6
-0.61
-0.66
-0.585
-0.64
-0.635
-0.63
-0.61
-0.6
-0.56
-0.58
-0.59
-0.585
-0.555
-0.615
-0.65
-0.605
-0.63
-0.62
-0.565
-0.58
-0.555
-0.54
-0.555
-0.57
-0.58
-0.555
-0.535
-0.625
-0.575
-0.56
-0.64
-0.655
-0.535
-0.59
-0.6
-0.64
-0.63
-0.655
-0.535
-0.62
-0.575
-0.615
-0.645
-0.565
-0.565
-0.635
-0.7
-0.64
-0.64
-0.685
-0.69
-0.625
-0.645
-0.635
-0.625
-0.62
-0.62
-0.54
-0.565
-0.595
-0.61
-0.64
-0.62
-0.67
-0.65
-0.645
-0.63
-0.64
-0.625
-0.615
-0.615
-0.575
-0.53
-0.585
-0.59
-0.56
-0.575
-0.525
-0.405
-0.45
-0.285
-0.25
-0.22
-0.205
-0.3
-0.44
-0.53
-0.575
-0.625
-0.69
-0.725
-0.76
-0.74
-0.78
-0.76
-0.775
-0.745
-0.66
-0.635
-0.625
-0.6
-0.59
-0.655
-0.655
-0.65
-0.615
-0.64
-0.565
-0.545
-0.57
-0.595
-0.585
-0.555
-0.555
-0.505
-0.585
-0.57
-0.605
-0.575
-0.71
-0.55
-0.535
-0.545
-0.545
-0.505
-0.535
-0.525
-0.625
-0.59
-0.625
-0.495
-0.555
-0.6
-0.545
-0.585
-0.57
-0.595
-0.56
-0.6
-0.565
-0.555
-0.545
-0.55
-0.51
-0.45
-0.43
-0.52
-0.635
-0.605
-0.6
-0.565
-0.57
-0.59
-0.565
-0.515
-0.57
-0.525
-0.57
-0.6
-0.535
-0.485
-0.51
-0.56
-0.5
-0.455
-0.54
-0.51
-0.57
-0.565
-0.5
-0.515
-0.51
-0.495
-0.43
-0.445
-0.515
-0.535
-0.545
-0.55
-0.475
-0.455
-0.49
-0.445
-0.465
-0.44
-0.425
-0.455
-0.46
-0.385
-0.425
-0.4
-0.4
-0.39
-0.365
-0.375
-0.31
-0.405
-0.445
-0.4
-0.335
-0.275
-0.33
-0.38
-0.34
-0.345
-0.39
-0.335
-0.33
-0.305
-0.285
-0.3
-0.29
-0.315
-0.305
-0.26
-0.285
-0.275
-0.29
-0.265
-0.265
-0.34
-0.275
-0.25
-0.205
-0.285
-0.35
-0.35
-0.42
-0.45
-0.375
-0.365
-0.355
-0.345
-0.38
-0.425
-0.435
-0.455
-0.475
-0.42
-0.41
-0.435
-0.435
-0.47
-0.465
-0.455
-0.445
-0.485
-0.48
-0.425
-0.455
-0.53
-0.48
-0.5
-0.495
-0.525
-0.525
-0.51
-0.49
-0.53
-0.515
-0.47
-0.475
-0.515
-0.515
-0.435
-0.485
-0.5
-0.47
-0.5
-0.47
-0.56
-0.47
-0.47
-0.51
-0.445
-0.48
-0.545
-0.505
-0.56
-0.54
-0.48
-0.44
-0.465
-0.545
-0.48
-0.46
-0.52
-0.545
-0.43
-0.5
-0.465
-0.5
-0.495
-0.485
-0.49
-0.545
-0.465
-0.43
-0.39
-0.41
-0.395
-0.45
-0.52
-0.56
-0.49
-0.49
-0.485
-0.51
-0.53
-0.47
-0.52
-0.46
-0.455
-0.435
-0.465
-0.425
-0.37
-0.415
-0.445
-0.52
-0.46
-0.42
-0.54
-0.505
-0.465
-0.44
-0.435
-0.405
-0.43
-0.49
-0.49
-0.5
-0.395
-0.415
-0.375
-0.425
-0.465
-0.52
-0.535
-0.43
-0.47
-0.505
-0.5
-0.48
-0.44
-0.425
-0.39
-0.42
-0.45
-0.46
-0.48
-0.395
-0.445
-0.46
-0.515
-0.5
-0.485
-0.495
-0.425
-0.415
-0.385
-0.435
-0.435
-0.4
-0.43
-0.405
-0.445
-0.465
-0.49
-0.44
-0.48
-0.485
-0.405
-0.39
-0.44
-0.39
-0.44
-0.425
-0.425
-0.495
-0.47
-0.455
-0.455
-0.435
-0.39
-0.405
-0.455
-0.41
-0.405
-0.43
-0.425
-0.39
-0.395
-0.47
-0.45
-0.45
-0.435
-0.435
-0.405
-0.37
-0.355
-0.415
-0.505
-0.455
-0.435
-0.44
-0.405
-0.49
-0.425
-0.36
-0.395
-0.44
-0.39
-0.365
-0.395
-0.375
-0.455
-0.46
-0.43
-0.45
-0.445
-0.375
-0.41
-0.36
-0.42
-0.475
-0.44
-0.37
-0.415
-0.4
-0.36
-0.44
-0.465
-0.39
-0.445
-0.46
-0.385
-0.39
-0.45
-0.39
-0.345
-0.36
-0.405
-0.43
-0.405
-0.43
-0.355
-0.33
-0.485
-0.45
-0.415
-0.36
-0.44
-0.455
-0.365
-0.395
-0.36
-0.29
-0.23
-0.285
-0.365
-0.41
-0.38
-0.395
-0.42
-0.41
-0.395
-0.355
-0.345
-0.365
-0.375
-0.3
-0.3
-0.3
-0.345
-0.415
-0.31
-0.325
-0.34
-0.35
-0.36
-0.4
-0.325
-0.335
-0.325
-0.425
-0.415
-0.39
-0.42
-0.47
-0.465
-0.44
-0.34
-0.28
-0.315
-0.405
-0.465
-0.39
-0.335
-0.345
-0.41
-0.295
-0.415
-0.525
-0.445
-0.445
-0.39
-0.31
-0.385
-0.36
-0.335
-0.39
-0.395
-0.42
-0.4
-0.415
-0.425
-0.365
-0.325
-0.37
-0.44
-0.395
-0.395
-0.39
-0.46
-0.415
-0.365
-0.315
-0.27
-0.2
-0.115
-0.08
-0.08
-0.14
-0.25
-0.275
-0.45
-0.495
-0.45
-0.46
-0.465
-0.505
-0.575
-0.645
-0.64
-0.565
-0.59
-0.47
-0.465
-0.395
-0.425
-0.44
-0.39
-0.405
-0.34
-0.255
-0.285
-0.37
-0.355
-0.335
-0.405
-0.36
-0.385
-0.395
-0.335
-0.32
-0.32
-0.36
-0.31
-0.315
-0.31
-0.33
-0.345
-0.38
-0.375
-0.26
-0.26
-0.31
-0.235
-0.285
-0.3
-0.27
-0.28
-0.325
-0.255
-0.295
-0.265
-0.29
-0.33
-0.35
-0.25
-0.255
-0.29
-0.265
-0.35
-0.29
-0.28
-0.285
-0.28
-0.22
-0.255
-0.29
-0.33
-0.285
-0.255
-0.25
-0.235
-0.21
-0.23
-0.205
-0.205
-0.29
-0.265
-0.275
-0.27
-0.21
-0.185
-0.25
-0.26
-0.245
-0.21
-0.19
-0.215
-0.185
-0.21
-0.285
-0.215
-0.3
-0.235
-0.22
-0.185
-0.165
-0.14
-0.215
-0.18
-0.205
-0.185
-0.17
-0.225
-0.145
-0.08
-0.115
-0.22
-0.17
-0.145
-0.12
-0.15
-0.1
-0.075
-0.11
-0.115
-0.09
-0.06
-0.135
-0.135
-0.11
-0.075
-0.065
-0.13
-0.04
-0.01
-0.055
-0.13
-0.055
-0.04
-0.07
-0.045
-0.07
-0.015
-0.05
-0.09
-0.055
0.015
0.005
-0.12
-0.115
-0.135
-0.135
-0.125
-0.125
-0.125
-0.09
-0.145
-0.09
-0.225
-0.215
-0.18
-0.195
-0.24
-0.235
-0.185
-0.145
-0.215
-0.295
-0.21
-0.18
-0.27
-0.25
-0.29
-0.245
-0.285
-0.26
-0.28
-0.215
-0.27
-0.185
-0.17
-0.31
-0.275
-0.245
-0.23
-0.19
-0.22
-0.265
-0.3
-0.28
-0.27
-0.255
-0.26
-0.22
-0.24
-0.325
-0.28
-0.29
-0.18
-0.255
-0.22
-0.255
-0.195
-0.2
-0.33
-0.27
-0.28
-0.26
-0.24
-0.235
-0.245
-0.21
-0.235
-0.25
-0.215
-0.28
-0.26
-0.205
-0.235
-0.2
-0.225
-0.185
-0.145
-0.16
-0.19
-0.24
-0.265
-0.34
-0.24
-0.26
-0.245
-0.205
-0.265
-0.2
-0.225
-0.225
-0.33
-0.285
-0.19
-0.175
-0.28
-0.245
-0.25
-0.23
-0.21
-0.24
-0.34
-0.25
-0.12
-0.155
-0.245
-0.295
-0.26
-0.185
-0.16
-0.225
-0.23
-0.29
-0.285
-0.23
-0.235
-0.27
-0.26
-0.25
-0.29
-0.225
-0.19
-0.155
-0.16
-0.27
-0.26
-0.25
-0.265
-0.255
-0.25
-0.275
-0.2
-0.22
-0.17
-0.185
-0.215
-0.285
-0.29
-0.28
-0.275
-0.26
-0.255
-0.255
-0.22
-0.275
-0.285
-0.265
-0.26
-0.21
-0.225
-0.27
-0.265
-0.225
-0.215
-0.19
-0.215
-0.235
-0.18
-0.17
-0.24
-0.26
-0.21
-0.35
-0.225
-0.26
-0.255
-0.26
-0.26
-0.235
-0.215
-0.28
-0.27
-0.315
-0.25
-0.24
-0.255
-0.23
-0.195
-0.225
-0.32
-0.27
-0.29
-0.25
-0.215
-0.2
-0.195
-0.26
-0.29
-0.27
-0.255
-0.245
-0.225
-0.25
-0.285
-0.29
-0.29
-0.28
-0.215
-0.24
-0.265
-0.25
-0.185
-0.2
-0.25
-0.23
-0.16
-0.21
-0.25
-0.235
-0.215
-0.235
-0.19
-0.18
-0.24
-0.21
-0.22
-0.215
-0.265
-0.21
-0.2
-0.195
-0.19
-0.12
-0.175
-0.23
-0.21
-0.11
-0.185
-0.25
-0.23
-0.25
-0.21
-0.26
-0.29
-0.3
-0.23
-0.19
-0.18
-0.21
-0.16
-0.165
-0.27
-0.305
-0.31
-0.28
-0.31
-0.275
-0.26
-0.28
-0.255
-0.2
-0.2
-0.205
-0.245
-0.275
-0.27
-0.285
-0.275
-0.27
-0.23
-0.23
-0.215
-0.315
-0.25
-0.215
-0.215
-0.23
-0.285
-0.225
-0.235
-0.32
-0.295
-0.265
-0.265
-0.275
-0.195
-0.15
-0.14
-0.06
0.025
0.0
0.095
0.05
-0.03
-0.17
-0.255
-0.285
-0.24
-0.34
-0.365
-0.46
-0.38
-0.4
-0.435
-0.42
-0.325
-0.3
-0.285
-0.37
-0.31
-0.345
-0.28
-0.235
-0.215
-0.24
-0.31
-0.25
-0.235
-0.27
-0.27
-0.25
-0.155
-0.165
-0.195
-0.19
-0.22
-0.275
-0.245
-0.225
-0.24
-0.285
-0.25
-0.23
-0.175
-0.16
-0.235
-0.205
-0.235
-0.22
-0.25
-0.26
-0.235
-0.195
-0.17
-0.19
-0.23
-0.22
-0.18
-0.155
-0.2
-0.245
-0.18
-0.14
-0.22
-0.225
-0.17
-0.19
-0.22
-0.27
-0.265
-0.265
-0.215
-0.2
-0.18
-0.17
-0.18
-0.155
-0.2
-0.24
-0.2
-0.225
-0.125
-0.18
-0.18
-0.19
-0.165
-0.215
-0.235
-0.15
-0.105
-0.125
-0.175
-0.16
-0.13
-0.205
-0.155
-0.14
-0.18
-0.15
-0.125
-0.2
-0.18
-0.135
-0.155
-0.12
-0.185
-0.09
-0.125
-0.15
-0.08
-0.12
-0.1
-0.055
-0.105
-0.06
-0.14
-0.145
-0.125
-0.045
-0.01
-0.005
0.06
-0.03
-0.12
-0.115
-0.09
-0.06
-0.015
-0.01
-0.07
-0.045
0.01
0.005
-0.025
-0.01
-0.065
-0.07
-0.09
-0.04
-0.045
-0.11
-0.03
-0.035
-0.03
-0.03
-0.06
-0.01
-0.13
-0.09
-0.1
-0.16
-0.16
-0.165
-0.175
-0.18
-0.14
-0.155
-0.175
-0.19
-0.155
-0.185
-0.145
-0.22
-0.225
-0.235
-0.25
-0.255
-0.295
-0.215
-0.245
-0.23
-0.215
-0.205
-0.21
-0.17
-0.185
-0.275
-0.255
-0.215
-0.215
-0.22
-0.24
-0.26
-0.265
-0.21
-0.285
-0.23
-0.23
-0.285
-0.265
-0.27
-0.22
-0.22
-0.23
-0.265
-0.24
-0.235
-0.245
-0.2
-0.175
-0.21
-0.22
-0.265
-0.23
-0.185
-0.235
-0.16
-0.125
-0.22
-0.26
-0.205
-0.215
-0.24
-0.285
-0.26
-0.255
-0.25
-0.245
-0.245
-0.25
-0.23
-0.21
-0.21
-0.205
-0.195
-0.19
-0.3
-0.275
-0.21
-0.2
-0.255
-0.25
-0.23
-0.225
-0.205
-0.205
-0.18
-0.195
-0.18
-0.24
-0.225
-0.225
-0.15
-0.22
-0.285
-0.29
-0.31
-0.185
-0.23
-0.32
-0.23
-0.16
-0.195
-0.245
-0.25
-0.235
-0.21
-0.21
-0.24
-0.265
-0.255
-0.235
-0.24
-0.285
-0.23
-0.225
-0.23
-0.24
-0.23
-0.215
-0.255
-0.25
-0.23
-0.23
-0.27
-0.21
-0.17
-0.295
-0.31
-0.275
-0.19
-0.195
-0.29
-0.285
-0.32
-0.215
-0.175
-0.25
-0.265
-0.25
-0.225
-0.27
-0.3
-0.27
-0.275
-0.27
-0.265
-0.26
-0.245
-0.27
-0.255
-0.245
-0.185
-0.16
-0.315
-0.32
-0.26
-0.285
-0.3
-0.23
-0.205
-0.31
-0.275
-0.27
-0.24
-0.265
-0.255
-0.185
-0.2
-0.315
-0.3
-0.255
-0.225
-0.255
-0.22
-0.26
-0.265
-0.36
-0.245
-0.2
-0.24
-0.265
-0.21
-0.27
-0.22
-0.23
-0.21
-0.305
-0.305
-0.3
-0.32
-0.31
-0.27
-0.285
-0.28
-0.23
-0.295
-0.25
-0.24
-0.215
-0.24
-0.27
-0.285
-0.32
-0.26
-0.27
-0.235
-0.245
-0.255
-0.31
-0.315
-0.25
-0.285
-0.2
-0.295
-0.31
-0.265
-0.205
-0.27
-0.285
-0.305
-0.305
-0.25
-0.24
-0.275
-0.205
-0.21
-0.225
-0.245
-0.31
-0.205
-0.225
-0.325
-0.21
-0.145
-0.18
-0.245
-0.24
-0.25
-0.21
-0.19
-0.19
-0.17
-0.24
-0.25
-0.265
-0.16
-0.155
-0.2
-0.22
-0.215
-0.28
-0.29
-0.295
-0.195
-0.32
-0.325
-0.275
-0.28
-0.28
-0.285
-0.335
-0.32
-0.265
-0.255
-0.205
-0.255
-0.29
-0.31
-0.325
-0.31
-0.28
-0.29
-0.22
-0.235
-0.305
-0.305
-0.26
-0.31
-0.295
-0.29
-0.34
-0.285
-0.305
-0.305
-0.275
-0.255
-0.19
-0.295
-0.355
-0.3
-0.23
-0.265
-0.295
-0.22
-0.18
-0.215
-0.16
-0.115
-0.075
0.075
0.165
0.01
-0.125
-0.275
-0.275
-0.3
-0.335
-0.4
-0.4
-0.43
-0.44
-0.425
-0.435
-0.36
-0.33
-0.345
-0.335
-0.34
-0.31
-0.33
-0.31
-0.295
-0.29
-0.29
-0.35
-0.295
-0.265
-0.325
-0.27
-0.255
-0.26
-0.2
-0.25
-0.35
-0.33
-0.315
-0.285
-0.295
-0.27
-0.285
-0.28
-0.25
-0.26
-0.23
-0.225
-0.24
-0.255
-0.315
-0.245
-0.285
-0.29
-0.24
-0.27
-0.265
-0.3
-0.22
-0.16
-0.185
-0.25
-0.335
-0.3
-0.225
-0.245
-0.255
-0.17
-0.225
-0.275
-0.26
-0.275
-0.265
-0.22
-0.23
-0.295
-0.28
-0.215
-0.245
-0.26
-0.245
-0.245
-0.21
-0.25
-0.285
-0.28
-0.235
-0.2
-0.23
-0.24
-0.265
-0.255
-0.22
-0.14
-0.17
-0.235
-0.245
-0.185
-0.16
-0.21
-0.195
-0.205
-0.23
-0.21
-0.155
-0.185
-0.185
-0.155
-0.18
-0.155
-0.145
-0.15
-0.15
-0.165
-0.18
-0.18
-0.19
-0.12
-0.115
-0.12
-0.065
-0.125
-0.155
-0.13
-0.055
-0.06
-0.11
-0.12
-0.16
-0.12
-0.08
-0.08
-0.065
-0.09
-0.065
-0.08
-0.105
-0.055
-0.08
-0.11
-0.095
-0.055
-0.05
-0.12
-0.105
-0.13
-0.115
-0.135
-0.165
-0.17
-0.17
-0.19
-0.21
-0.205
-0.18
-0.21
-0.215
-0.235
-0.29
-0.24
-0.185
-0.185
-0.19
-0.165
-0.095
-0.245
-0.3
-0.29
-0.345
-0.35
-0.28
-0.29
-0.225
-0.285
-0.3
-0.32
-0.295
-0.295
-0.3
-0.3
-0.35
-0.29
-0.265
-0.32
-0.285
-0.245
-0.32
-0.27
-0.295
-0.265
-0.255
-0.225
-0.16
-0.29
-0.315
-0.395
-0.35
-0.295
-0.275
-0.325
-0.3
-0.26
-0.26
-0.27
-0.3
-0.375
-0.315
-0.325
-0.315
-0.31
-0.225
-0.18
-0.245
-0.215
-0.275
-0.35
-0.35
-0.34
-0.34
-0.33
-0.26
-0.185
-0.265
-0.31
-0.255
-0.28
-0.3
-0.295
-0.3
-0.24
-0.27
-0.265
-0.275
-0.34
-0.305
-0.325
-0.285
-0.235
-0.255
-0.255
-0.29
-0.27
-0.27
-0.27
-0.295
-0.27
-0.235
-0.26
-0.315
-0.34
-0.345
-0.295
-0.29
-0.215
-0.24
-0.295
-0.305
-0.31
-0.245
-0.21
-0.3
-0.35
-0.255
-0.26
-0.31
-0.265
-0.29
-0.38
-0.275
-0.235
-0.295
-0.285
-0.26
-0.27
-0.295
-0.34
-0.315
-0.27
-0.28
-0.35
-0.28
-0.225
-0.275
-0.2
-0.295
-0.32
-0.335
-0.34
-0.32
-0.325
-0.315
-0.32
-0.27
-0.28
-0.3
-0.28
-0.33
-0.3
-0.34
-0.31
-0.265
-0.26
-0.245
-0.29
-0.315
-0.3
-0.305
-0.265
-0.35
-0.34
-0.205
-0.285
-0.405
-0.36
-0.325
-0.3
-0.295
-0.27
-0.315
-0.305
-0.285
-0.31
-0.345
-0.32
-0.335
-0.3
-0.29
-0.3
-0.32
-0.32
-0.305
-0.31
-0.3
-0.34
-0.32
-0.31
-0.33
-0.33
-0.295
-0.27
-0.28
-0.305
-0.265
-0.33
-0.25
-0.175
-0.32
-0.385
-0.355
-0.29
-0.26
-0.295
-0.33
-0.39
-0.38
-0.35
-0.345
-0.29
-0.295
-0.355
-0.36
-0.34
-0.37
-0.275
-0.27
-0.255
-0.31
-0.36
-0.345
-0.3
-0.345
-0.26
-0.22
-0.295
-0.37
-0.36
-0.39
-0.355
-0.335
-0.315
-0.325
-0.315
-0.33
-0.305
-0.3
-0.34
-0.385
-0.265
-0.245
-0.265
-0.305
-0.275
-0.285
-0.255
-0.27
-0.3
-0.3
-0.305
-0.305
-0.265
-0.295
-0.285
-0.26
-0.315
-0.335
-0.26
-0.33
-0.225
-0.22
-0.28
-0.22
-0.29
-0.275
-0.315
-0.265
-0.245
-0.235
-0.265
-0.285
-0.325
-0.315
-0.25
-0.23
-0.295
-0.28
-0.29
-0.335
-0.385
-0.34
-0.38
-0.35
-0.35
-0.39
-0.35
-0.37
-0.46
-0.39
-0.34
-0.37
-0.39
-0.39
-0.41
-0.425
-0.32
-0.355
-0.43
-0.4
-0.35
-0.335
-0.325
-0.355
-0.34
-0.405
-0.365
-0.36
-0.33
-0.45
-0.4
-0.35
-0.43
-0.415
-0.35
-0.355
-0.4
-0.445
-0.42
-0.405
-0.365
-0.31
-0.32
-0.295
-0.31
-0.25
-0.23
-0.16
-0.1
-0.07
-0.16
-0.225
-0.29
-0.375
-0.445
-0.525
-0.52
-0.54
-0.555
-0.51
-0.495
-0.53
-0.56
-0.455
-0.415
-0.425
-0.46
-0.395
-0.46
-0.43
-0.41
-0.41
-0.515
-0.505
-0.44
-0.43
-0.405
-0.46
-0.42
-0.425
-0.425
-0.395
-0.39
-0.44
-0.405
-0.4
-0.4
-0.42
-0.405
-0.405
-0.375
-0.325
-0.43
-0.395
-0.325
-0.42
-0.45
-0.485
-0.51
-0.45
-0.42
-0.385
-0.39
-0.385
-0.46
-0.465
-0.48
-0.45
-0.425
-0.42
-0.415
-0.395
-0.435
-0.45
-0.435
-0.405
-0.4
-0.36
-0.395
-0.365
-0.365
-0.41
-0.44
-0.46
-0.435
-0.41
-0.435
-0.465
-0.44
-0.425
-0.405
-0.375
-0.43
-0.435
-0.41
-0.375
-0.44
-0.45
-0.415
-0.45
-0.415
-0.4
-0.385
-0.455
-0.41
-0.38
-0.415
-0.405
-0.415
-0.4
-0.37
-0.355
-0.35
-0.31
-0.355
-0.435
-0.42
-0.43
-0.415
-0.36
-0.38
-0.36
-0.395
-0.36
-0.36
-0.39
-0.32
-0.325
-0.36
-0.36
-0.365
-0.34
-0.315
-0.35
-0.255
-0.305
-0.335
-0.345
-0.37
-0.32
-0.35
-0.335
-0.29
-0.275
-0.335
-0.275
-0.325
-0.35
-0.35
-0.365
-0.295
-0.245
-0.315
-0.41
-0.44
-0.34
-0.45
-0.455
-0.525
-0.54
-0.53
-0.515
-0.465
-0.465
-0.485
-0.475
-0.565
-0.605
-0.555
-0.495
-0.535
-0.55
-0.58
-0.615
-0.595
-0.58
-0.595
-0.57
-0.565
-0.58
-0.56
-0.565
-0.61
-0.615
-0.59
-0.54
-0.59
-0.645
-0.535
-0.58
-0.61
-0.605
-0.545
-0.545
-0.505
-0.58
-0.665
-0.705
-0.705
-0.645
-0.64
-0.65
-0.54
-0.545
-0.62
-0.645
-0.645
-0.58
-0.63
-0.635
-0.67
-0.635
-0.635
-0.675
-0.64
-0.57
-0.53
-0.645
-0.6
-0.645
-0.61
-0.61
-0.635
-0.615
-0.64
-0.62
-0.615
-0.675
-0.6
-0.655
-0.615
-0.63
-0.685
-0.665
-0.655
-0.6
-0.615
-0.64
-0.59
-0.625
-0.64
-0.61
-0.61
-0.67
-0.605
-0.665
-0.635
-0.65
-0.64
-0.65
-0.63
-0.61
-0.625
-0.68
-0.6
-0.565
-0.575
-0.705
-0.7
-0.67
-0.7
-0.645
-0.67
-0.655
-0.665
-0.65
-0.66
-0.655
-0.71
-0.63
-0.58
-0.655
-0.67
-0.645
-0.69
-0.615
-0.645
-0.64
-0.625
-0.625
-0.7
-0.62
-0.71
-0.77
-0.74
-0.685
-0.68
-0.745
-0.685
-0.71
-0.7
-0.7
-0.695
-0.705
-0.665
-0.665
-0.695
-0.66
-0.715
-0.705
-0.735
-0.68
-0.7
-0.675
-0.715
-0.71
-0.685
-0.645
-0.645
-0.715
-0.695
-0.715
-0.685
-0.675
-0.685
-0.705
-0.735
-0.67
-0.705
-0.735
-0.745
-0.72
-0.735
-0.735
-0.69
-0.71
-0.705
-0.735
-0.675
-0.695
-0.68
-0.67
-0.625
-0.7
-0.67
-0.69
-0.7
-0.75
-0.72
-0.745
-0.68
-0.655
-0.715
-0.765
-0.73
-0.745
-0.75
-0.765
-0.705
-0.675
-0.745
-0.75
-0.735
-0.78
-0.74
-0.755
-0.72
-0.715
-0.72
-0.71
-0.68
-0.725
-0.745
-0.8
-0.775
-0.745
-0.77
-0.735
-0.755
-0.745
-0.715
-0.65
-0.735
-0.78
-0.835
-0.8
-0.76
-0.79
-0.725
-0.73
-0.745
-0.81
-0.765
-0.765
-0.795
-0.755
-0.79
-0.695
-0.725
-0.72
-0.78
-0.725
-0.715
-0.71
-0.725
-0.71
-0.71
-0.775
-0.695
-0.7
-0.645
-0.67
-0.745
-0.765
-0.685
-0.675
-0.64
-0.67
-0.705
-0.73
-0.71
-0.74
-0.77
-0.8
-0.745
-0.74
-0.715
-0.69
-0.74
-0.77
-0.74
-0.735
-0.76
-0.74
-0.78
-0.72
-0.67
-0.715
-0.78
-0.77
-0.73
-0.685
-0.755
-0.775
-0.84
-0.805
-0.78
-0.795
-0.785
-0.715
-0.72
-0.695
-0.755
-0.8
-0.69
-0.715
-0.825
-0.8
-0.815
-0.72
-0.765
-0.655
-0.715
-0.675
-0.755
-0.735
-0.78
-0.79
-0.695
-0.615
-0.575
-0.575
-0.56
-0.46
-0.38
-0.37
-0.375
-0.455
-0.475
-0.6
-0.655
-0.78
-0.775
-0.835
-0.885
-0.875
-0.94
-0.85
-0.815
-0.875
-0.79
-0.775
-0.79
-0.725
-0.735
-0.675
-0.675
-0.625
-0.625
-0.655
-0.7
-0.75
-0.78
-0.745
-0.645
-0.73
-0.72
-0.7
-0.66
-0.605
-0.67
-0.675
-0.715
-0.66
-0.715
-0.725
-0.705
-0.66
-0.68
-0.68
-0.57
-0.595
-0.68
-0.77
-0.69
-0.67
-0.66
-0.68
-0.615
-0.65
-0.645
-0.705
-0.68
-0.655
-0.635
-0.605
-0.6
-0.59
-0.625
-0.65
-0.65
-0.61
-0.67
-0.7
-0.64
-0.59
-0.585
-0.605
-0.62
-0.635
-0.61
-0.61
-0.61
-0.675
-0.64
-0.675
-0.64
-0.605
-0.58
-0.635
-0.605
-0.56
-0.565
-0.585
-0.52
-0.505
-0.555
-0.465
-0.48
-0.56
-0.585
-0.565
-0.57
-0.535
-0.495
-0.515
-0.49
-0.485
-0.53
-0.5
-0.49
-0.525
-0.4
-0.485
-0.51
-0.46
-0.455
-0.41
-0.43
-0.44
-0.52
-0.48
-0.38
-0.405
-0.435
-0.36
-0.33
-0.38
-0.36
-0.37
-0.395
-0.405
-0.37
-0.345
-0.305
-0.31
-0.305
-0.355
-0.355
-0.37
-0.38
-0.33
-0.305
-0.345
-0.415
-0.32
-0.325
-0.31
-0.365
-0.41
-0.37
-0.325
-0.36
-0.345
-0.34
-0.32
-0.38
-0.43
-0.6
-0.585
-0.59
-0.66
-0.635
-0.57
-0.53
-0.52
-0.495
-0.485
-0.475
-0.44
-0.545
-0.55
-0.565
-0.595
-0.635
-0.58
-0.595
-0.605
-0.615
-0.555
-0.595
-0.585
-0.565
-0.57
-0.605
-0.555
-0.59
-0.52
-0.525
-0.555
-0.5
-0.53
-0.475
-0.415
-0.235
-0.2
-0.21
-0.15
-0.235
-0.335
-0.41
-0.56
-0.7
-0.64
-0.505
-0.535
-0.555
-0.63
-0.59
-0.515
-0.47
-0.49
-0.53
-0.515
-0.515
-0.545
-0.515
-0.515
-0.46
-0.48
-0.44
-0.54
-0.565
-0.455
-0.52
-0.51
-0.545
-0.52
-0.425
-0.51
-0.46
-0.445
-0.43
-0.455
-0.415
-0.375
-0.35
-0.435
-0.44
-0.38
-0.435
-0.46
-0.41
-0.335
-0.305
-0.43
-0.445
-0.43
-0.42
-0.385
-0.325
-0.32
-0.255
-0.205
-0.19
-0.235
-0.315
-0.31
-0.3
-0.395
-0.505
-0.56
-0.46
-0.375
-0.295
-0.315
-0.43
-0.445
-0.44
-0.465
-0.385
-0.415
-0.48
-0.46
-0.39
-0.385
-0.39
-0.405
-0.41
-0.425
-0.385
-0.295
-0.285
-0.365
-0.33
-0.32
-0.38
-0.405
-0.365
-0.49
-0.47
-0.47
-0.41
-0.32
-0.36
-0.42
-0.435
-0.365
-0.385
-0.405
-0.36
-0.37
-0.38
-0.345
-0.33
-0.29
-0.31
-0.38
-0.395
-0.42
-0.415
-0.375
-0.28
-0.37
-0.285
-0.315
-0.26
-0.275
-0.4
-0.435
-0.425
-0.405
-0.38
-0.435
-0.42
-0.385
-0.28
-0.355
-0.375
-0.385
-0.34
-0.315
-0.325
-0.455
-0.415
-0.38
-0.36
-0.32
-0.305
-0.375
-0.425
-0.39
-0.31
-0.31
-0.33
-0.34
-0.325
-0.335
-0.385
-0.335
-0.255
-0.365
-0.285
-0.295
-0.275
-0.275
-0.355
-0.43
-0.385
-0.285
-0.335
-0.32
-0.31
-0.235
-0.34
-0.31
-0.42
-0.335
-0.25
-0.325
-0.315
-0.325
-0.35
-0.305
-0.28
-0.305
-0.265
-0.185
-0.225
-0.31
-0.255
-0.285
-0.25
-0.265
-0.37
-0.305
-0.275
-0.335
-0.27
-0.215
-0.185
-0.14
-0.205
-0.14
-0.125
-0.16
-0.135
-0.085
-0.03
-0.065
-0.015
-0.015
-0.015
-0.01
0.04
0.065
0.13
0.13
0.125
0.125
0.08
0.01
0.125
0.085
0.12
0.09
0.045
0.11
0.055
0.1
0.085
0.115
0.2
0.165
0.195
0.235
0.26
0.32
0.31
0.285
0.225
0.22
0.235
0.25
0.31
0.265
0.225
0.26
0.26
0.21
0.275
0.255
0.28
0.335
0.32
0.3
0.255
0.305
0.25
0.255
0.315
0.34
0.35
0.255
0.34
0.345
0.32
0.36
0.325
0.255
0.34
0.545
0.54
0.51
0.56
0.58
0.46
0.415
0.225
0.225
0.17
0.185
0.115
0.095
0.08
0.07
0.1
0.09
0.195
0.195
0.115
0.135
0.255
0.225
0.25
0.265
0.265
0.3
0.275
0.205
0.23
0.295
0.305
0.285
0.315
0.28
0.305
0.335
0.285
0.22
0.205
0.275
0.25
0.275
0.3
0.34
0.395
0.435
0.38
0.215
0.205
0.245
0.28
0.285
0.295
0.295
0.325
0.33
0.295
0.315
0.24
0.365
0.34
0.285
0.32
0.365
0.325
0.245
0.25
0.305
0.365
0.34
0.19
0.205
0.22
0.245
0.265
0.31
0.31
0.305
0.325
0.3
0.33
0.315
0.34
0.335
0.275
0.265
0.29
0.34
0.305
0.27
0.315
0.285
0.285
0.295
0.32
0.35
0.275
0.335
0.295
0.3
0.335
0.3
0.32
0.32
0.375
0.365
0.335
0.365
0.425
0.335
0.285
0.275
0.32
0.325
0.355
0.36
0.43
0.41
0.355
0.375
0.335
0.34
0.365
0.345
0.46
0.385
0.425
0.32
0.355
0.445
0.47
0.39
0.44
0.335
0.35
0.365
0.34
0.325
0.335
0.335
0.38
0.42
0.4
0.365
0.355
0.33
0.365
0.315
0.28
0.275
0.32
0.29
0.235
0.265
0.27
0.175
0.16
0.13
0.18
0.22
0.225
0.185
0.195
0.18
0.165
0.19
0.22
0.215
0.205
0.18
0.115
0.04
0.055
0.04
0.07
0.135
0.13
0.13
0.105
0.135
0.11
0.085
0.13
0.19
0.17
0.135
0.055
0.075
0.125
0.19
0.13
0.075
0.07
-0.005
0.065
0.08
0.065
0.095
0.085
0.105
0.1
0.1
0.065
-0.025
-0.01
0.15
0.035
0.045
0.02
-0.01
0.02
0.04
0.045
0.05
0.06
0.05
0.065
0.035
-0.025
-0.02
0.055
0.06
0.0
0.055
-0.025
-0.055
-0.035
-0.02
-0.055
0.0
-0.065
-0.085
-0.025
-0.005
0.04
-0.035
-0.055
-0.06
-0.045
-0.115
-0.085
-0.06
-0.045
-0.075
-0.095
-0.135
-0.055
-0.12
-0.14
-0.095
-0.12
-0.125
-0.105
-0.065
-0.06
-0.135
-0.155
-0.22
-0.11
-0.175
-0.155
-0.08
-0.085
-0.115
-0.145
-0.06
-0.07
-0.145
-0.125
-0.14
-0.23
-0.16
-0.135
-0.115
-0.075
-0.18
-0.195
-0.17
-0.165
-0.15
-0.17
-0.13
-0.16
-0.23
-0.24
-0.14
-0.115
-0.12
-0.155
-0.195
-0.17
-0.175
-0.14
-0.165
-0.205
-0.175
-0.165
-0.155
-0.185
-0.165
-0.17
-0.15
-0.115
-0.155
-0.19
-0.165
-0.19
-0.18
-0.195
-0.225
-0.26
-0.185
-0.17
-0.17
-0.14
-0.205
-0.21
-0.155
-0.08
-0.13
-0.275
-0.205
-0.215
-0.22
-0.195
-0.18
-0.19
-0.19
-0.24
-0.17
-0.19
-0.23
-0.175
-0.18
-0.205
-0.21
-0.205
-0.225
-0.22
-0.155
-0.23
-0.195
-0.16
-0.215
-0.2
-0.225
-0.215
-0.155
-0.19
-0.14
-0.235
-0.25
-0.21
-0.195
-0.18
-0.17
-0.195
-0.105
-0.14
-0.18
-0.095
-0.125
-0.23
-0.22
-0.18
-0.13
-0.14
-0.19
-0.145
-0.13
-0.15
-0.125
-0.19
-0.25
-0.2
-0.24
-0.205
-0.125
-0.23
-0.225
-0.22
-0.17
-0.225
-0.22
-0.225
-0.235
-0.24
-0.3
-0.27
-0.205
-0.245
-0.24
-0.205
-0.17
-0.23
-0.26
-0.205
-0.215
-0.235
-0.16
-0.205
-0.27
-0.24
-0.205
-0.21
-0.235
-0.305
-0.24
-0.25
-0.25
-0.19
-0.185
-0.225
-0.23
-0.17
-0.14
-0.175
-0.245
-0.205
-0.235
-0.285
-0.22
-0.155
-0.125
-0.115
0.02
0.075
0.11
0.02
-0.055
-0.1
-0.185
-0.22
-0.155
-0.225
-0.39
-0.42
-0.385
-0.42
-0.395
-0.38
-0.31
-0.25
-0.325
-0.315
-0.295
-0.26
-0.23
-0.275
-0.25
-0.23
-0.2
-0.195
-0.19
-0.13
-0.115
-0.21
-0.26
-0.295
-0.36
-0.265
-0.175
-0.23
-0.265
-0.205
-0.185
-0.245
-0.265
-0.23
-0.14
-0.21
-0.18
-0.23
-0.235
-0.245
-0.285
-0.24
-0.195
-0.22
-0.235
-0.24
-0.27
-0.205
-0.215
-0.19
-0.27
-0.245
-0.185
-0.135
-0.09
-0.14
-0.3
-0.325
-0.29
-0.215
-0.235
-0.21
-0.235
-0.25
-0.21
-0.14
-0.12
-0.185
-0.215
-0.23
-0.3
-0.275
-0.205
-0.17
-0.225
-0.225
-0.225
-0.185
-0.21
-0.195
-0.25
-0.225
-0.115
-0.175
-0.2
-0.17
-0.18
-0.17
-0.115
-0.2
-0.12
-0.225
-0.255
-0.115
-0.145
-0.12
-0.145
-0.19
-0.185
-0.19
-0.16
-0.17
-0.16
-0.055
-0.09
-0.13
-0.095
-0.155
-0.13
-0.135
-0.095
-0.07
-0.055
-0.035
-0.08
-0.12
-0.055
-0.09
-0.045
0.0
-0.035
-0.045
-0.1
-0.115
-0.03
0.055
-0.065
-0.06
-0.105
-0.12
-0.075
-0.075
-0.08
-0.055
-0.085
-0.14
-0.115
-0.045
-0.115
-0.105
-0.14
-0.155
-0.235
-0.155
-0.16
-0.185
-0.18
-0.22
-0.215
-0.265
-0.21
-0.19
-0.145
-0.18
-0.22
-0.28
-0.255
-0.24
-0.27
-0.28
-0.235
-0.195
-0.3
-0.225
-0.275
-0.235
-0.225
-0.25
-0.265
-0.205
-0.32
-0.3
-0.21
-0.175
-0.25
-0.265
-0.3
-0.235
-0.24
-0.31
-0.315
-0.235
-0.24
-0.27
-0.265
-0.285
-0.245
-0.25
-0.28
-0.285
-0.23
-0.225
-0.24
-0.22
-0.17
-0.275
-0.29
-0.315
-0.265
-0.2
-0.245
-0.305
-0.325
-0.25
-0.225
-0.25
-0.285
-0.265
-0.22
-0.255
-0.235
-0.28
-0.265
-0.29
-0.275
-0.275
-0.315
-0.165
-0.175
-0.235
-0.285
-0.27
-0.22
-0.19
-0.25
-0.29
-0.2
-0.31
-0.32
-0.26
-0.24
-0.28
-0.23
-0.245
-0.29
-0.28
-0.285
-0.235
-0.235
-0.27
-0.265
-0.265
-0.245
-0.25
-0.245
-0.255
-0.345
-0.235
-0.22
-0.23
-0.26
-0.26
-0.225
-0.245
-0.225
-0.29
-0.265
-0.26
-0.3
-0.24
-0.275
-0.3
-0.295
-0.28
-0.25
-0.28
-0.285
-0.225
-0.285
-0.27
-0.315
-0.29
-0.27
-0.25
-0.28
-0.305
-0.245
-0.22
-0.22
-0.235
-0.29
-0.34
-0.295
-0.36
-0.32
-0.29
-0.24
-0.26
-0.315
-0.265
-0.28
-0.26
-0.295
-0.26
-0.3
-0.345
-0.3
-0.255
-0.265
-0.195
-0.265
-0.29
-0.25
-0.225
-0.175
-0.255
-0.275
-0.295
-0.325
-0.28
-0.265
-0.225
-0.265
-0.215
-0.26
-0.25
-0.275
-0.27
-0.255
-0.255
-0.205
-0.185
-0.185
-0.22
-0.225
-0.22
-0.27
-0.23
-0.16
-0.155
-0.27
-0.27
-0.29
-0.28
-0.255
-0.255
-0.255
-0.275
-0.185
-0.235
-0.355
-0.365
-0.345
-0.305
-0.3
-0.235
-0.225
-0.275
-0.375
-0.315
-0.265
-0.205
-0.255
-0.315
-0.335
-0.305
-0.29
-0.315
-0.35
-0.31
-0.345
-0.315
-0.3
-0.295
-0.27
-0.255
-0.29
-0.25
-0.28
-0.35
-0.3
-0.305
-0.27
-0.29
-0.305
-0.3
-0.31
-0.29
-0.195
-0.205
-0.23
-0.14
-0.035
-0.025
-0.005
0.03
-0.015
-0.065
-0.135
-0.18
-0.34
-0.37
-0.37
-0.335
-0.345
-0.415
-0.445
-0.44
-0.41
-0.335
-0.355
-0.32
-0.29
-0.34
-0.27
-0.33
-0.36
-0.31
-0.34
-0.245
-0.245
-0.26
-0.27
-0.29
-0.315
-0.35
-0.35
-0.29
-0.29
-0.135
-0.275
-0.215
-0.285
-0.185
-0.22
-0.24
-0.255
-0.225
-0.305
-0.35
-0.28
-0.21
-0.31
-0.305
-0.19
-0.26
-0.395
-0.34
-0.245
-0.3
-0.31
-0.3
-0.31
-0.32
-0.295
-0.335
-0.37
-0.35
-0.27
-0.285
-0.28
-0.255
-0.29
-0.31
-0.28
-0.36
-0.355
-0.365
-0.27
-0.3
-0.29
-0.27
-0.265
-0.255
-0.315
-0.38
-0.315
-0.325
-0.325
-0.28
-0.31
-0.24
-0.275
-0.285
-0.325
-0.35
-0.31
-0.28
-0.27
-0.23
-0.31
-0.33
-0.27
-0.285
-0.315
-0.385
-0.185
-0.185
-0.23
-0.235
-0.225
-0.23
-0.205
-0.195
-0.235
-0.25
-0.19
-0.2
-0.22
-0.18
-0.2
-0.255
-0.205
-0.21
-0.235
-0.19
-0.18
-0.205
-0.115
-0.165
-0.175
-0.09
-0.145
-0.18
-0.13
-0.165
-0.185
-0.16
-0.195
-0.155
-0.15
-0.12
-0.19
-0.17
-0.205
-0.24
-0.16
-0.175
-0.18
-0.215
-0.15
-0.205
-0.265
-0.23
-0.235
-0.23
-0.26
-0.375
-0.385
-0.265
-0.325
-0.27
-0.305
-0.265
-0.35
-0.355
-0.33
-0.315
-0.21
-0.305
-0.31
-0.25
-0.395
-0.405
-0.3
-0.27
-0.32
-0.31
-0.2
-0.11
-0.2
-0.37
-0.385
-0.41
-0.42
-0.46
-0.315
-0.26
-0.26
-0.3
-0.435
-0.415
-0.365
-0.4
-0.35
-0.345
-0.34
-0.26
-0.33
-0.34
-0.445
-0.45
-0.415
-0.36
-0.32
-0.325
-0.39
-0.42
-0.365
-0.345
-0.41
-0.435
-0.41
-0.42
-0.38
-0.445
-0.4
-0.395
-0.385
-0.42
-0.4
-0.39
-0.385
-0.34
-0.385
-0.435
-0.425
-0.435
-0.405
-0.42
-0.5
-0.405
-0.315
-0.415
-0.535
-0.445
-0.455
-0.455
-0.38
-0.37
-0.41
-0.5
-0.495
-0.49
-0.45
-0.44
-0.52
-0.46
-0.405
-0.47
-0.45
-0.48
-0.435
-0.44
-0.46
-0.43
-0.385
-0.38
-0.42
-0.41
-0.435
-0.48
-0.485
-0.46
-0.495
-0.48
-0.48
-0.49
-0.425
-0.38
-0.445
-0.39
-0.425
-0.39
-0.48
-0.385
-0.465
-0.45
-0.515
-0.45
-0.355
-0.475
-0.495
-0.5
-0.485
-0.39
-0.46
-0.48
-0.405
-0.36
-0.455
-0.345
-0.37
-0.425
-0.47
-0.465
-0.405
-0.42
-0.435
-0.395
-0.4
-0.375
-0.405
-0.415
-0.42
-0.465
-0.435
-0.44
-0.41
-0.425
-0.45
-0.455
-0.415
-0.435
-0.37
-0.44
-0.43
-0.395
-0.4
-0.39
-0.445
-0.435
-0.345
-0.34
-0.39
-0.415
-0.365
-0.355
-0.3
-0.375
-0.425
-0.42
-0.44
-0.44
-0.475
-0.475
-0.45
-0.415
-0.425
-0.385
-0.38
-0.375
-0.42
-0.4
-0.375
-0.4
-0.42
-0.395
-0.345
-0.27
-0.29
-0.41
-0.38
-0.41
-0.41
-0.39
-0.315
-0.4
-0.355
-0.34
-0.29
-0.3
-0.35
-0.355
-0.34
-0.36
-0.305
-0.36
-0.395
-0.41
-0.39
-0.35
-0.36
-0.34
-0.325
-0.36
-0.375
-0.32
-0.37
-0.395
-0.35
-0.47
-0.445
-0.39
-0.375
-0.385
-0.365
-0.335
-0.385
-0.415
-0.45
-0.45
-0.37
-0.405
-0.305
-0.455
-0.48
-0.475
-0.415
-0.385
-0.35
-0.375
-0.415
-0.415
-0.35
-0.295
-0.44
-0.395
-0.375
-0.355
-0.365
-0.38
-0.43
-0.375
-0.37
-0.38
-0.25
-0.235
-0.26
-0.16
-0.1
-0.075
-0.05
-0.115
-0.195
-0.325
-0.395
-0.43
-0.505
-0.485
-0.5
-0.565
-0.585
-0.555
-0.57
-0.515
-0.505
-0.52
-0.48
-0.41
-0.44
-0.4
-0.36
-0.415
-0.355
-0.42
-0.41
-0.34
-0.34
-0.36
-0.41
-0.425
-0.415
-0.45
-0.49
-0.395
-0.41
-0.39
-0.44
-0.38
-0.375
-0.285
-0.36
-0.41
-0.345
-0.335
-0.315
-0.325
-0.425
-0.39
-0.355
-0.315
-0.31
-0.435
-0.365
-0.335
-0.335
-0.355
-0.36
-0.41
-0.395
-0.385
-0.355
-0.285
-0.315
-0.38
-0.355
-0.41
-0.405
-0.38
-0.335
-0.285
-0.315
-0.345
-0.395
-0.315
-0.31
-0.33
-0.35
-0.29
-0.265
-0.35
-0.36
-0.335
-0.33
-0.345
-0.37
-0.31
-0.295
-0.22
-0.245
-0.375
-0.355
-0.275
-0.33
-0.305
-0.205
-0.29
-0.31
-0.29
-0.215
-0.295
-0.22
-0.255
-0.3
-0.225
-0.25
-0.255
-0.275
-0.255
-0.22
-0.21
-0.155
-0.21
-0.12
-0.185
-0.18
-0.235
-0.215
-0.155
-0.175
-0.19
-0.21
-0.135
-0.07
-0.15
-0.14
-0.225
-0.1
-0.085
-0.105
-0.185
-0.145
-0.13
-0.09
-0.155
-0.215
-0.13
-0.105
-0.11
-0.155
-0.15
-0.155
-0.135
-0.165
-0.19
-0.225
-0.235
-0.16
-0.115
-0.18
-0.275
-0.225
-0.275
-0.33
-0.32
-0.265
-0.275
-0.28
-0.27
-0.295
-0.3
-0.29
-0.235
-0.345
-0.29
-0.3
-0.335
-0.335
-0.325
-0.31
-0.36
-0.365
-0.395
-0.305
-0.26
-0.22
-0.34
-0.385
-0.39
-0.335
-0.31
-0.31
-0.405
-0.405
-0.335
-0.315
-0.34
-0.31
-0.305
-0.28
-0.24
-0.33
-0.335
-0.35
-0.38
-0.415
-0.37
-0.315
-0.355
-0.31
-0.305
-0.335
-0.36
-0.33
-0.34
-0.37
-0.33
-0.3
-0.285
-0.3
-0.365
-0.32
-0.38
-0.315
-0.3
-0.29
-0.28
-0.37
-0.345
-0.395
-0.315
-0.27
-0.3
-0.29
-0.33
-0.32
-0.355
-0.325
-0.345
-0.315
-0.285
-0.325
-0.29
-0.31
-0.32
-0.345
-0.28
-0.34
-0.315
-0.33
-0.33
-0.315
-0.33
-0.31
-0.295
-0.245
-0.295
-0.355
-0.305
-0.28
-0.32
-0.31
-0.31
-0.36
-0.34
-0.38
-0.375
-0.295
-0.305
-0.375
-0.36
-0.32
-0.345
-0.31
-0.315
-0.305
-0.3
-0.355
-0.38
-0.43
-0.265
-0.305
-0.33
-0.285
-0.3
-0.325
-0.36
-0.325
-0.335
-0.335
-0.285
-0.27
-0.29
-0.24
-0.325
-0.415
-0.39
-0.35
-0.325
-0.28
-0.36
-0.355
-0.35
-0.305
-0.3
-0.27
-0.23
-0.33
-0.28
-0.3
-0.355
-0.33
-0.335
-0.36
-0.325
-0.335
-0.355
-0.245
-0.305
-0.33
-0.355
-0.335
-0.32
-0.37
-0.23
-0.275
-0.305
-0.32
-0.315
-0.345
-0.31
-0.3
-0.285
-0.32
-0.275
-0.24
-0.27
-0.35
-0.32
-0.345
-0.36
-0.34
-0.315
-0.305
-0.35
-0.345
-0.335
-0.305
-0.35
-0.31
-0.285
-0.27
-0.22
-0.305
-0.29
-0.285
-0.335
-0.375
-0.34
-0.355
-0.35
-0.3
-0.285
-0.26
-0.295
-0.37
-0.32
-0.3
-0.32
-0.32
-0.3
-0.28
-0.25
-0.29
-0.31
-0.22
-0.325
-0.265
-0.305
-0.275
-0.285
-0.295
-0.295
-0.35
-0.25
-0.245
-0.315
-0.295
-0.31
-0.3
-0.25
-0.24
-0.28
-0.22
-0.24
-0.23
-0.255
-0.235
-0.245
-0.24
-0.255
-0.195
-0.225
-0.315
-0.275
-0.265
-0.22
-0.285
-0.37
-0.31
-0.36
-0.32
-0.245
-0.26
-0.325
-0.265
-0.335
-0.285
-0.255
-0.375
-0.3
-0.36
-0.29
-0.27
-0.335
-0.32
-0.375
-0.355
-0.305
-0.33
-0.29
-0.325
-0.25
-0.255
-0.315
-0.41
-0.35
-0.335
-0.35
-0.325
-0.315
-0.235
-0.27
-0.345
-0.27
-0.265
-0.36
-0.31
-0.305
-0.245
-0.21
-0.14
-0.05
-0.08
0.035
0.075
0.09
0.035
-0.17
-0.26
-0.33
-0.355
-0.395
-0.5
-0.52
-0.47
-0.425
-0.46
-0.475
-0.48
-0.43
-0.385
-0.365
-0.345
-0.305
-0.32
-0.26
-0.36
-0.345
-0.325
-0.295
-0.315
-0.265
-0.325
-0.36
-0.39
-0.31
-0.295
-0.28
-0.27
-0.26
-0.3
-0.36
-0.295
-0.26
-0.37
-0.35
-0.355
-0.315
-0.27
-0.3
-0.275
-0.25
-0.225
-0.245
-0.325
-0.315
-0.25
-0.305
-0.325
-0.385
-0.35
-0.31
-0.32
-0.245
-0.3
-0.305
-0.24
-0.255
-0.29
-0.275
-0.29
-0.35
-0.345
-0.33
-0.225
-0.2
-0.26
-0.28
-0.225
-0.32
-0.27
-0.325
-0.295
-0.315
-0.29
-0.25
-0.22
-0.245
-0.24
-0.255
-0.32
-0.27
-0.32
-0.23
-0.255
-0.245
-0.31
-0.31
-0.305
-0.275
-0.23
-0.26
-0.24
-0.2
-0.2
-0.25
-0.24
-0.255
-0.235
-0.285
-0.275
-0.2
-0.225
-0.205
-0.225
-0.175
-0.205
-0.17
-0.18
-0.165
-0.15
-0.235
-0.18
-0.12
-0.05
-0.16
-0.15
-0.185
-0.18
-0.185
-0.24
-0.195
-0.155
-0.15
-0.14
-0.145
-0.19
-0.19
-0.115
-0.13
-0.13
-0.115
-0.09
-0.115
-0.19
-0.215
-0.185
-0.215
-0.195
-0.215
-0.23
-0.21
-0.23
-0.205
-0.22
-0.265
-0.265
-0.28
-0.32
-0.375
-0.27
-0.275
-0.4
-0.325
-0.355
-0.41
-0.395
-0.405
-0.415
-0.325
-0.35
-0.365
-0.345
-0.37
-0.335
-0.31
-0.4
-0.415
-0.4
-0.4
-0.39
-0.385
-0.445
-0.46
-0.435
-0.395
-0.38
-0.405
-0.44
-0.39
-0.405
-0.435
-0.42
-0.46
-0.43
-0.355
-0.375
-0.47
-0.38
-0.355
-0.425
-0.455
-0.375
-0.4
-0.43
-0.485
-0.505
-0.435
-0.42
-0.395
-0.405
-0.385
-0.375
-0.47
-0.465
-0.48
-0.425
-0.38
-0.415
-0.395
-0.355
-0.4
-0.52
-0.465
-0.445
-0.46
-0.48
-0.51
-0.445
-0.485
-0.475
-0.45
-0.455
-0.45
-0.4
-0.415
-0.47
-0.5
-0.415
-0.405
-0.45
-0.445
-0.405
-0.46
-0.475
-0.475
-0.48
-0.48
-0.465
-0.49
-0.45
-0.47
-0.435
-0.465
-0.46
-0.435
-0.495
-0.57
-0.49
-0.505
-0.495
-0.485
-0.46
-0.495
-0.495
-0.52
-0.505
-0.49
-0.425
-0.5
-0.52
-0.53
-0.52
-0.475
-0.515
-0.53
-0.56
-0.53
-0.515
-0.46
-0.52
-0.46
-0.455
-0.51
-0.525
-0.5
-0.53
-0.46
-0.475
-0.56
-0.52
-0.58
-0.565
-0.515
-0.52
-0.6
-0.51
-0.52
-0.54
-0.52
-0.585
-0.5
-0.555
-0.525
-0.6
-0.48
-0.45
-0.57
-0.61
-0.54
-0.51
-0.53
-0.525
-0.515
-0.54
-0.56
-0.54
-0.545
-0.535
-0.5
-0.51
-0.61
-0.57
-0.53
-0.595
-0.43
-0.565
-0.64
-0.59
-0.57
-0.465
-0.525
-0.645
-0.62
-0.585
-0.58
-0.56
-0.56
-0.55
-0.59
-0.665
-0.565
-0.54
-0.53
-0.58
-0.605
-0.59
-0.605
-0.595
-0.57
-0.62
-0.61
-0.56
-0.515
-0.51
-0.535
-0.54
-0.55
-0.585
-0.525
-0.585
-0.575
-0.565
-0.6
-0.535
-0.53
-0.535
-0.625
-0.575
-0.53
-0.49
-0.525
-0.46
-0.43
-0.57
-0.53
-0.51
-0.5
-0.575
-0.475
-0.55
-0.6
-0.565
-0.565
-0.615
-0.57
-0.595
-0.625
-0.63
-0.605
-0.58
-0.57
-0.52
-0.605
-0.58
-0.665
-0.625
-0.625
-0.605
-0.505
-0.665
-0.635
-0.605
-0.565
-0.62
-0.63
-0.56
-0.585
-0.665
-0.625
-0.62
-0.635
-0.645
-0.605
-0.58
-0.655
-0.68
-0.61
-0.515
-0.59
-0.575
-0.58
-0.52
-0.595
-0.675
-0.705
-0.705
-0.655
-0.585
-0.545
-0.515
-0.41
-0.38
-0.31
-0.32
-0.355
-0.445
-0.58
-0.7
-0.72
-0.63
-0.72
-0.77
-0.795
-0.79
-0.725
-0.765
-0.775
-0.815
-0.84
-0.765
-0.7
-0.68
-0.6
-0.685
-0.705
-0.63
-0.6
-0.64
-0.625
-0.63
-0.63
-0.635
-0.605
-0.59
-0.57
-0.59
-0.575
-0.595
-0.575
-0.57
-0.605
-0.62
-0.6
-0.61
-0.635
-0.545
-0.525
-0.575
-0.62
-0.66
-0.71
-0.51
-0.545
-0.535
-0.62
-0.59
-0.595
-0.57
-0.625
-0.57
-0.6
-0.56
-0.595
-0.6
-0.6
-0.635
-0.575
-0.585
-0.56
-0.61
-0.615
-0.575
-0.505
-0.615
-0.61
-0.625
-0.615
-0.57
-0.54
-0.555
-0.55
-0.58
-0.61
-0.58
-0.555
-0.57
-0.49
-0.62
-0.59
-0.56
-0.54
-0.515
-0.545
-0.48
-0.605
-0.58
-0.47
-0.525
-0.51
-0.6
-0.575
-0.51
-0.54
-0.62
-0.545
-0.48
-0.51
-0.515
-0.565
-0.585
-0.535
-0.535
-0.52
-0.5
-0.49
-0.46
-0.525
-0.495
-0.46
-0.45
-0.43
-0.38
-0.485
-0.5
-0.435
-0.465
-0.47
-0.43
-0.5
-0.42
-0.45
-0.385
-0.425
-0.37
-0.39
-0.465
-0.45
-0.39
-0.395
-0.35
-0.385
-0.505
-0.515
-0.45
-0.46
-0.525
-0.495
-0.5
-0.45
-0.44
-0.49
-0.52
-0.52
-0.545
-0.49
-0.465
-0.48
-0.51
-0.545
-0.655
-0.655
-0.635
-0.615
-0.665
-0.69
-0.665
-0.62
-0.65
-0.645
-0.615
-0.65
-0.64
-0.705
-0.63
-0.685
-0.67
-0.66
-0.615
-0.635
-0.63
-0.645
-0.605
-0.64
-0.66
-0.62
-0.675
-0.675
-0.695
-0.645
-0.635
-0.65
-0.735
-0.675
-0.705
-0.675
-0.73
-0.67
-0.615
-0.66
-0.63
-0.615
-0.655
-0.645
-0.715
-0.715
-0.665
-0.66
-0.65
-0.655
-0.65
-0.595
-0.605
-0.7
-0.66
-0.67
-0.69
-0.63
-0.59
-0.685
-0.69
-0.7
-0.7
-0.645
-0.635
-0.695
-0.725
-0.705
-0.68
-0.615
-0.635
-0.63
-0.685
-0.605
-0.655
-0.71
-0.675
-0.74
-0.71
-0.72
-0.675
-0.685
-0.68
-0.645
-0.67
-0.62
-0.675
-0.65
-0.68
-0.72
-0.69
-0.7
-0.675
-0.67
-0.675
-0.67
-0.575
-0.655
-0.7
-0.685
-0.63
-0.71
-0.72
-0.72
-0.695
-0.66
-0.655
-0.695
-0.71
-0.585
-0.7
-0.74
-0.68
-0.705
-0.685
-0.665
-0.635
-0.685
-0.72
-0.66
-0.655
-0.68
-0.635
-0.665
-0.725
-0.725
-0.71
-0.65
-0.64
-0.73
-0.68
-0.665
-0.64
-0.61
-0.635
-0.61
-0.61
-0.615
-0.65
-0.595
-0.59
-0.585
-0.705
-0.66
-0.685
-0.605
-0.67
-0.62
-0.645
-0.595
-0.55
-0.575
-0.67
-0.655
-0.715
-0.685
-0.69
-0.675
-0.725
-0.7
-0.78
-0.72
-0.745
-0.73
-0.715
-0.68
-0.75
-0.685
-0.65
-0.63
-0.65
-0.64
-0.68
-0.63
-0.63
-0.715
-0.685
-0.725
-0.72
-0.685
-0.705
-0.675
-0.63
-0.7
-0.78
-0.765
-0.77
-0.72
-0.69
-0.665
-0.67
-0.71
-0.68
-0.695
-0.725
-0.675
-0.68
-0.75
-0.76
-0.655
-0.655
-0.66
-0.665
-0.605
-0.48
-0.435
-0.395
-0.38
-0.455
-0.575
-0.725
-0.775
-0.75
-0.75
-0.845
-0.88
-0.91
-0.915
-0.84
-0.815
-0.86
-0.795
-0.805
-0.78
-0.715
-0.685
-0.7
-0.75
-0.73
-0.74
-0.77
-0.73
-0.745
-0.72
-0.69
-0.645
-0.615
-0.7
-0.655
-0.6
-0.675
-0.71
-0.63
-0.705
-0.7
-0.685
-0.71
-0.74
-0.64
-0.585
-0.61
-0.64
-0.6
-0.69
-0.68
-0.685
-0.64
-0.695
-0.725
-0.67
-0.66
-0.62
-0.66
-0.72
-0.715
-0.68
-0.675
-0.645
-0.65
-0.64
-0.66
-0.705
-0.605
-0.635
-0.655
-0.61
-0.63
-0.615
-0.6
-0.64
-0.61
-0.615
-0.66
-0.66
-0.625
-0.61
-0.575
-0.58
-0.635
-0.7
-0.665
-0.63
-0.62
-0.67
-0.68
-0.6
-0.63
-0.645
-0.61
-0.585
-0.58
-0.55
-0.54
-0.61
-0.56
-0.595
-0.57
-0.6
-0.565
-0.57
-0.555
-0.61
-0.59
-0.53
-0.535
-0.495
-0.5
-0.555
-0.615
-0.575
-0.55
-0.535
-0.48
-0.51
-0.515
-0.505
-0.49
-0.45
-0.47
-0.465
-0.395
-0.415
-0.43
-0.58
-0.515
-0.475
-0.51
-0.465
-0.45
-0.465
-0.49
-0.455
-0.525
-0.555
-0.54
-0.555
-0.495
-0.465
-0.535
-0.5
-0.54
-0.6
-0.575
-0.58
-0.565
-0.54
-0.59
-0.635
-0.65
-0.63
-0.61
-0.63
-0.64
-0.665
-0.59
-0.665
-0.73
-0.665
-0.62
-0.685
-0.69
-0.68
-0.7
-0.71
-0.685
-0.7
-0.685
-0.73
-0.645
-0.625
-0.645
-0.67
-0.645
-0.745
-0.755
-0.67
-0.715
-0.69
-0.695
-0.675
-0.705
-0.74
-0.725
-0.72
-0.7
-0.715
-0.68
-0.66
-0.675
-0.645
-0.645
-0.645
-0.69
-0.66
-0.68
-0.74
-0.715
-0.675
-0.7
-0.715
-0.65
-0.655
-0.61
-0.685
-0.73
-0.715
-0.635
-0.665
-0.66
-0.7
-0.71
-0.69
-0.725
-0.695
-0.62
-0.63
-0.645
-0.67
-0.675
-0.66
-0.69
-0.725
-0.71
-0.72
-0.625
-0.63
-0.7
-0.695
-0.63
-0.6
-0.615
-0.675
-0.72
-0.66
-0.655
-0.71
-0.695
-0.69
-0.69
-0.685
-0.69
-0.695
-0.655
-0.64
-0.635
-0.7
-0.65
-0.66
-0.645
-0.61
-0.735
-0.73
-0.715
-0.695
-0.7
-0.63
-0.655
-0.67
-0.66
-0.655
-0.7
-0.64
-0.62
-0.605
-0.705
-0.695
-0.615
-0.62
-0.565
-0.67
-0.72
-0.705
-0.64
-0.66
-0.685
-0.685
-0.65
-0.67
-0.645
-0.595
-0.655
-0.67
-0.625
-0.64
-0.665
-0.625
-0.58
-0.575
-0.595
-0.625
-0.62
-0.605
-0.62
-0.625
-0.595
-0.615
-0.595
-0.63
-0.6
-0.62
-0.7
-0.7
-0.665
-0.695
-0.635
-0.675
-0.68
-0.635
-0.645
-0.725
-0.715
-0.675
-0.705
-0.705
-0.66
-0.63
-0.66
-0.68
-0.68
-0.69
-0.675
-0.655
-0.67
-0.645
-0.635
-0.635
-0.685
-0.715
-0.7
-0.68
-0.695
-0.59
-0.705
-0.725
-0.695
-0.685
-0.665
-0.635
-0.6
-0.67
-0.715
-0.64
-0.57
-0.65
-0.63
-0.52
-0.515
-0.415
-0.375
-0.355
-0.295
-0.405
-0.5
-0.58
-0.63
-0.67
-0.67
-0.74
-0.755
-0.77
-0.805
-0.86
-0.87
-0.795
-0.705
-0.705
-0.67
-0.67
-0.725
-0.695
-0.645
-0.67
-0.705
-0.665
-0.68
-0.63
-0.605
-0.63
-0.585
-0.64
-0.63
-0.64
-0.65
-0.67
-0.66
-0.655
-0.655
-0.63
-0.625
-0.645
-0.635
-0.605
-0.605
-0.66
-0.59
-0.615
-0.63
-0.63
-0.625
-0.65
-0.635
-0.565
-0.625
-0.64
-0.64
-0.625
-0.59
-0.585
-0.565
-0.565
-0.605
-0.615
-0.55
-0.585
-0.57
-0.585
-0.605
-0.645
