# TIPE ECG 2021 - ECG-ID Database v1.0.0 par Physionet
# [Numéro de la personne, Période d'échantillonnage, Prénom, Age, Sexe, Date de l'enregistrement]
[83, 0.002, Adam, 17, H, 21.05.2005]
0.005
-0.015
-0.01
0.025
0.015
0.005
-0.025
-0.015
0.005
-0.01
-0.04
0.0
0.025
0.0
0.04
0.07
0.045
0.03
0.045
-0.005
0.0
0.01
-0.015
-0.005
-0.03
-0.015
0.045
0.035
0.015
-0.015
-0.01
-0.015
-0.02
0.0
0.005
0.035
-0.01
0.01
0.015
0.03
0.025
0.0
-0.045
0.005
0.03
0.01
-0.005
0.0
0.02
-0.005
-0.005
0.01
0.005
0.0
0.0
0.02
0.04
0.03
0.035
0.05
0.025
0.0
-0.02
0.015
-0.015
0.0
0.01
0.06
0.07
-0.015
0.015
0.0
-0.005
-0.01
0.035
0.02
0.015
0.035
0.01
0.005
0.01
0.03
0.04
-0.01
-0.02
-0.01
0.03
0.045
0.04
0.055
0.01
0.005
0.01
0.02
0.06
0.035
0.015
0.025
0.04
0.05
0.035
0.065
0.085
0.055
0.055
0.065
0.045
0.07
0.07
0.08
0.095
0.08
0.08
0.055
0.055
0.05
0.045
0.05
0.045
0.07
0.085
0.07
0.035
0.03
0.01
0.015
-0.025
-0.015
0.06
0.055
0.06
0.05
0.045
0.04
0.0
0.01
0.04
0.025
-0.005
-0.02
-0.01
0.045
0.03
0.05
0.055
0.045
0.01
0.08
0.065
0.03
0.005
0.04
0.04
0.075
0.02
0.025
0.075
0.05
0.02
-0.01
0.015
0.035
0.025
0.035
0.005
0.015
0.08
0.125
0.17
0.215
0.345
0.455
0.515
0.555
0.705
0.795
0.835
0.765
0.695
0.665
0.55
0.43
0.365
0.31
0.22
0.085
0.0
-0.04
-0.05
-0.085
-0.06
-0.08
-0.07
-0.065
-0.02
0.015
0.015
0.04
0.06
0.055
0.05
0.075
0.05
0.03
0.035
0.045
0.06
0.035
0.0
0.025
0.045
0.055
-0.01
-0.005
0.02
0.055
0.125
0.13
0.085
0.085
0.065
0.02
0.045
0.055
0.075
0.045
0.055
0.07
0.07
0.04
0.04
0.015
0.075
0.105
0.095
0.05
0.015
0.04
0.03
0.065
0.06
0.105
0.12
0.11
0.12
0.08
0.08
0.07
0.125
0.095
0.065
0.1
0.095
0.07
0.03
0.07
0.12
0.125
0.06
0.085
0.095
0.105
0.135
0.175
0.14
0.125
0.125
0.16
0.145
0.115
0.095
0.135
0.165
0.165
0.14
0.16
0.175
0.195
0.205
0.175
0.175
0.17
0.23
0.22
0.22
0.21
0.2
0.22
0.19
0.155
0.18
0.225
0.22
0.2
0.215
0.16
0.14
0.13
0.165
0.18
0.135
0.12
0.14
0.135
0.11
0.105
0.1
0.125
0.13
0.085
0.07
0.085
0.085
0.065
0.07
0.065
0.035
0.035
-0.01
0.01
0.075
0.09
0.015
-0.02
0.025
0.085
0.065
0.01
0.04
0.075
0.055
0.09
0.075
0.055
0.08
0.085
0.1
0.05
0.055
0.005
0.005
0.025
0.025
0.015
0.03
0.04
0.04
0.055
0.045
0.07
0.06
0.03
0.045
0.07
0.03
0.015
0.03
0.015
0.015
0.045
0.085
0.07
0.03
-0.005
-0.005
0.015
0.055
0.105
0.05
0.05
-0.015
0.0
0.075
0.085
0.07
0.04
0.03
0.04
0.005
-0.02
-0.01
0.035
0.015
0.05
0.02
0.045
0.03
0.025
0.035
0.015
0.04
0.055
0.035
-0.015
-0.015
0.03
0.06
0.06
0.025
0.015
0.015
0.015
0.03
0.04
0.01
0.02
0.02
0.035
0.005
0.0
0.03
0.015
0.02
-0.01
-0.01
0.02
0.065
0.045
0.0
-0.01
0.005
-0.005
-0.015
0.0
0.06
0.06
0.02
0.04
0.0
-0.015
-0.06
-0.05
-0.06
0.01
0.035
0.005
0.0
0.05
0.06
0.05
0.045
0.025
0.035
0.05
0.03
0.025
0.01
0.025
0.01
0.02
0.04
0.03
0.045
0.02
-0.015
0.0
0.03
-0.015
0.01
0.03
0.045
0.05
0.055
0.05
0.05
0.06
0.065
0.045
0.02
0.045
0.07
0.06
0.045
0.035
0.04
0.005
0.03
-0.01
-0.01
-0.02
0.005
0.02
0.04
0.025
0.01
0.0
0.0
-0.03
-0.01
0.01
0.0
0.035
0.035
0.035
0.0
-0.01
0.01
0.01
0.0
-0.03
-0.005
0.015
0.0
-0.02
-0.01
0.01
0.0
-0.01
-0.05
-0.015
0.015
0.015
-0.01
-0.02
-0.005
-0.015
-0.005
-0.005
-0.015
0.075
0.15
0.21
0.285
0.43
0.48
0.58
0.69
0.78
0.73
0.695
0.635
0.54
0.405
0.365
0.35
0.265
0.13
-0.02
-0.095
-0.09
-0.12
-0.145
-0.16
-0.15
-0.135
-0.05
0.025
0.005
-0.005
0.005
-0.025
-0.02
-0.02
0.035
0.05
-0.005
-0.025
0.005
0.03
0.01
-0.015
0.005
0.01
0.025
0.035
0.02
0.015
-0.015
0.005
0.005
0.015
0.005
0.03
0.02
0.03
0.01
0.02
0.025
0.035
-0.005
-0.02
-0.03
-0.01
0.01
-0.04
-0.035
0.005
0.05
0.05
0.01
0.01
0.03
0.02
0.03
0.055
0.05
0.04
0.025
0.04
0.025
0.04
0.03
0.04
0.05
0.06
0.06
0.05
0.09
0.075
0.055
0.065
0.055
0.035
0.06
0.07
0.095
0.105
0.105
0.115
0.13
0.115
0.08
0.07
0.1
0.105
0.14
0.18
0.145
0.125
0.135
0.16
0.15
0.18
0.185
0.13
0.155
0.17
0.14
0.14
0.155
0.155
0.18
0.18
0.17
0.185
0.14
0.155
0.135
0.125
0.115
0.145
0.115
0.065
0.065
0.08
0.065
0.105
0.065
0.025
0.05
0.06
0.025
0.035
0.045
0.04
0.02
-0.005
0.01
-0.025
0.035
0.035
0.05
0.05
0.005
-0.005
0.025
0.03
-0.015
-0.025
-0.07
-0.07
0.005
0.045
0.03
0.03
0.025
0.015
-0.015
0.01
0.035
0.02
-0.015
0.01
0.0
-0.005
-0.005
-0.02
0.0
0.01
-0.005
-0.01
-0.015
-0.035
0.015
0.04
0.035
0.035
0.015
-0.005
-0.03
-0.025
-0.015
0.01
0.015
0.005
0.0
-0.02
-0.04
-0.05
0.0
0.02
0.005
0.01
0.0
0.0
-0.015
-0.01
-0.05
-0.05
-0.025
-0.005
0.01
-0.005
0.0
0.0
0.05
0.015
-0.02
-0.045
-0.05
-0.025
-0.04
0.035
0.02
0.01
-0.005
0.025
-0.01
-0.01
-0.02
-0.01
0.0
0.015
0.005
-0.035
-0.07
-0.035
0.01
-0.02
-0.015
0.005
0.015
0.01
0.005
0.005
-0.015
-0.035
-0.03
0.0
-0.005
0.025
0.02
0.02
-0.01
0.01
-0.005
-0.04
-0.07
-0.11
-0.025
0.055
0.085
0.075
0.03
0.015
0.025
0.025
0.04
0.015
0.045
0.03
0.05
0.065
0.06
0.065
0.045
0.015
-0.02
-0.025
-0.085
-0.065
0.0
0.065
0.045
0.02
0.05
0.055
0.035
0.0
-0.025
0.0
0.01
0.005
-0.015
0.015
0.03
-0.02
-0.005
-0.005
-0.02
-0.005
0.0
0.005
0.025
0.015
-0.015
-0.04
0.005
0.01
-0.035
-0.025
-0.03
0.015
0.02
0.01
-0.005
0.02
0.01
0.005
0.005
-0.025
-0.02
0.065
0.065
0.115
0.135
0.195
0.34
0.445
0.505
0.62
0.745
0.795
0.785
0.775
0.65
0.485
0.39
0.325
0.295
0.23
0.11
-0.055
-0.115
-0.065
-0.065
-0.085
-0.105
-0.09
-0.09
-0.07
-0.04
0.015
0.02
-0.01
-0.03
-0.03
-0.015
0.035
0.04
0.035
0.055
0.04
0.035
0.045
0.02
0.03
-0.005
-0.005
0.0
0.01
0.03
0.045
0.065
0.07
0.055
0.05
0.04
0.025
0.02
0.035
0.03
0.03
0.045
0.035
0.025
0.02
0.035
0.03
0.045
0.055
0.055
0.02
0.035
0.05
0.05
0.065
0.03
0.075
0.03
0.07
0.065
0.04
0.07
0.085
0.065
0.04
0.025
0.015
0.065
0.095
0.09
0.09
0.06
0.025
0.105
0.125
0.11
0.12
0.125
0.13
0.125
0.115
0.12
0.1
0.08
0.1
0.135
0.17
0.19
0.145
0.125
0.12
0.19
0.18
0.155
0.2
0.2
0.17
0.2
0.215
0.185
0.215
0.215
0.2
0.2
0.19
0.18
0.165
0.155
0.145
0.15
0.135
0.145
0.14
0.125
0.105
0.11
0.11
0.115
0.085
0.08
0.06
0.045
-0.01
0.03
0.035
0.06
0.01
-0.02
0.035
0.05
0.04
0.015
0.04
0.06
0.01
0.005
0.05
0.015
-0.005
0.055
0.055
0.03
0.01
-0.01
-0.01
0.01
0.025
0.035
0.06
0.03
0.0
-0.045
-0.015
0.04
0.035
0.045
0.05
0.03
0.015
0.03
0.05
0.05
0.01
0.01
-0.03
-0.05
-0.04
0.04
0.085
0.035
0.01
0.04
0.05
0.07
0.055
0.015
-0.03
-0.015
0.02
0.045
0.005
0.01
-0.04
-0.03
0.01
0.02
0.025
0.005
0.005
-0.015
0.015
0.05
0.055
0.03
0.015
0.03
0.03
0.06
0.02
0.0
0.015
0.035
0.01
-0.025
0.015
0.01
0.0
0.01
0.005
-0.025
0.015
0.03
0.04
0.03
0.01
0.03
0.03
0.01
-0.01
0.01
0.02
0.05
0.02
-0.005
0.015
0.04
0.035
0.055
0.02
-0.005
0.0
0.005
-0.015
0.04
0.07
0.07
0.06
0.07
0.075
0.075
0.07
0.085
0.055
0.04
0.035
0.075
0.06
0.06
0.045
0.015
0.025
0.01
0.005
-0.005
0.005
-0.035
0.005
0.045
0.055
0.055
0.035
0.02
0.035
0.03
0.015
-0.015
-0.03
-0.025
0.04
0.065
0.005
0.0
0.065
0.025
-0.04
0.025
0.02
0.01
0.02
0.04
0.015
0.005
0.02
0.01
0.0
-0.01
-0.005
-0.005
0.005
0.0
0.035
0.03
0.03
0.045
0.03
-0.005
-0.03
0.05
0.095
0.17
0.205
0.28
0.34
0.39
0.53
0.58
0.55
0.505
0.46
0.34
0.23
0.14
0.115
0.06
-0.03
-0.12
-0.145
-0.115
-0.135
-0.175
-0.16
-0.145
-0.105
-0.155
-0.135
-0.085
-0.055
-0.03
0.0
0.015
-0.015
-0.015
0.005
0.02
0.01
0.02
0.01
0.025
0.015
0.01
0.045
0.03
0.015
0.01
0.0
0.0
0.03
0.04
0.04
0.04
0.065
0.045
0.025
0.025
0.035
0.045
0.03
0.015
0.025
0.03
0.025
0.06
0.065
0.04
0.045
0.05
0.06
0.055
0.035
0.035
-0.005
-0.015
0.005
0.04
0.05
0.05
0.045
0.045
0.08
0.105
0.11
0.06
0.105
0.1
0.065
0.045
0.045
0.085
0.17
0.135
0.08
0.12
0.16
0.12
0.095
0.105
0.1
0.165
0.18
0.135
0.16
0.2
0.185
0.175
0.185
0.205
0.205
0.21
0.235
0.195
0.19
0.2
0.19
0.225
0.215
0.225
0.215
0.22
0.26
0.21
0.16
0.18
0.215
0.21
0.19
0.19
0.205
0.17
0.12
0.095
0.095
0.095
0.075
0.05
0.045
0.05
0.05
0.065
0.08
0.045
0.025
0.025
0.035
0.005
0.02
0.0
0.03
0.03
0.035
0.03
0.0
0.005
0.01
0.015
0.005
-0.025
-0.035
-0.005
0.005
0.02
0.03
0.0
-0.01
0.015
0.04
0.025
0.0
-0.02
0.005
0.0
-0.005
0.025
0.02
0.0
0.03
0.04
0.005
0.025
0.02
0.005
0.005
0.0
-0.02
-0.01
-0.02
-0.02
-0.02
0.02
0.03
0.025
-0.03
-0.025
0.015
0.035
0.02
0.035
0.04
0.01
-0.015
0.025
0.03
0.01
0.02
0.02
0.025
0.025
0.01
0.015
0.025
0.04
0.05
0.035
0.03
0.03
0.025
0.015
0.025
0.03
0.02
0.015
0.005
-0.005
-0.01
-0.01
0.0
0.05
0.035
0.015
0.005
-0.005
0.02
0.03
0.0
0.005
0.015
0.01
0.04
0.015
-0.015
-0.07
-0.05
-0.045
0.035
0.07
0.035
0.05
0.08
0.065
0.05
0.065
0.05
0.005
-0.01
0.035
0.07
0.01
0.055
0.085
0.045
0.065
0.095
0.05
0.015
0.01
0.02
0.02
0.005
0.02
0.005
0.07
0.055
0.045
0.015
-0.01
0.0
0.02
0.04
0.0
0.02
0.05
0.02
0.035
0.03
0.055
0.03
0.045
0.045
0.03
0.005
0.015
0.005
0.01
0.02
-0.025
0.005
0.06
0.05
0.03
0.025
0.065
0.085
0.07
0.035
-0.01
0.005
0.04
0.02
0.035
0.04
0.035
-0.005
0.02
0.05
0.095
0.18
0.295
0.38
0.415
0.51
0.57
0.615
0.565
0.54
0.46
0.35
0.255
0.185
0.195
0.12
0.045
-0.045
-0.12
-0.11
-0.105
-0.1
-0.06
-0.065
-0.085
-0.07
-0.065
-0.045
-0.015
-0.045
0.0
0.035
0.025
0.0
-0.03
-0.025
0.055
0.085
0.095
0.1
0.095
0.09
0.07
0.06
0.08
0.075
0.04
0.05
0.08
0.08
0.075
0.07
0.055
0.06
0.09
0.07
0.07
0.085
0.07
0.05
0.075
0.115
0.075
0.065
0.08
0.095
0.06
0.055
0.065
0.07
0.09
0.095
0.08
0.1
0.115
0.085
0.06
0.075
0.065
0.03
0.035
0.11
0.155
0.13
0.12
0.12
0.125
0.115
0.1
0.105
0.155
0.155
0.135
0.115
0.12
0.155
0.19
0.2
0.18
0.175
0.19
0.18
0.195
0.19
0.175
0.205
0.225
0.235
0.265
0.235
0.22
0.24
0.245
0.23
0.245
0.255
0.27
0.235
0.23
0.24
0.21
0.195
0.21
0.225
0.185
0.215
0.235
0.205
0.215
0.18
0.195
0.155
0.13
0.135
0.155
0.155
0.125
0.1
0.105
0.1
0.095
0.07
0.025
0.055
0.05
0.055
0.04
0.07
0.085
0.07
0.065
0.055
0.075
0.07
0.015
0.02
0.035
0.055
0.02
0.045
0.045
0.07
0.03
0.04
0.06
0.08
0.055
0.045
0.05
0.045
0.03
0.045
0.04
0.04
0.03
0.035
0.02
0.035
0.035
0.035
0.025
0.03
0.055
0.06
0.035
0.005
0.035
0.035
0.02
0.015
0.015
0.06
0.065
0.005
-0.005
-0.005
0.035
0.02
0.0
0.01
0.02
0.075
0.03
0.06
0.025
0.03
0.03
-0.02
0.0
0.025
0.065
0.065
0.055
0.05
0.045
0.015
-0.01
0.005
0.005
0.02
0.005
0.025
0.02
0.03
0.02
-0.01
-0.015
-0.01
-0.005
-0.015
0.005
0.03
0.045
0.02
-0.005
0.005
0.025
0.015
-0.015
0.03
0.025
-0.02
-0.025
0.025
0.035
0.005
0.02
0.055
0.07
0.06
0.065
0.06
0.035
0.04
0.035
0.065
0.03
0.02
0.045
0.065
0.055
0.06
0.04
0.005
0.0
0.0
0.015
0.025
0.005
0.02
0.005
0.045
0.065
0.005
0.0
0.005
0.0
-0.01
-0.005
0.02
0.035
0.005
-0.01
-0.015
-0.045
-0.01
0.02
0.025
0.035
0.02
-0.01
-0.01
-0.01
0.0
0.025
0.015
0.015
0.015
0.01
0.0
-0.02
-0.015
0.015
0.005
0.03
0.005
-0.02
0.005
-0.005
0.0
-0.01
-0.015
0.005
0.01
0.035
0.055
0.08
0.135
0.23
0.35
0.49
0.595
0.7
0.77
0.755
0.69
0.68
0.595
0.46
0.385
0.38
0.315
0.185
0.035
-0.07
-0.11
-0.13
-0.13
-0.105
-0.06
-0.06
-0.08
-0.075
-0.06
-0.015
-0.03
-0.03
0.0
0.0
0.0
0.01
0.03
0.01
-0.03
-0.02
0.005
0.01
-0.005
0.0
0.04
0.045
0.025
-0.025
-0.045
-0.06
-0.045
0.01
0.01
-0.005
0.015
0.01
0.01
0.01
0.01
0.0
0.005
0.03
0.045
-0.01
-0.025
-0.02
-0.03
0.03
0.05
0.035
0.015
0.055
0.045
-0.015
-0.025
-0.005
0.01
0.02
0.07
0.05
0.025
-0.03
-0.045
-0.015
0.02
0.02
0.02
0.065
0.075
0.065
0.055
0.05
0.05
0.055
0.055
0.09
0.065
0.09
0.085
0.06
0.07
0.095
0.115
0.095
0.105
0.145
0.13
0.075
0.06
0.09
0.085
0.1
0.17
0.17
0.135
0.12
0.115
0.145
0.15
0.14
0.14
0.145
0.145
0.12
0.135
0.14
0.115
0.135
0.13
0.12
0.075
0.085
0.075
0.065
0.075
0.05
0.0
0.015
0.055
0.05
-0.005
0.02
0.045
0.01
-0.02
-0.02
-0.045
-0.01
-0.04
-0.06
-0.01
-0.025
0.005
0.015
0.025
0.03
0.025
0.005
-0.03
-0.03
-0.02
0.005
-0.015
-0.03
-0.01
0.02
0.03
0.01
0.005
-0.035
-0.005
-0.02
-0.035
-0.035
-0.005
-0.02
-0.05
0.0
-0.02
-0.06
-0.055
-0.03
0.0
0.005
0.0
-0.005
-0.065
-0.04
-0.01
-0.015
-0.03
-0.04
-0.045
-0.08
-0.06
0.0
0.025
-0.015
-0.045
-0.065
0.0
0.01
-0.035
-0.03
-0.04
-0.035
-0.045
-0.075
-0.025
-0.03
-0.055
-0.055
-0.025
-0.025
0.0
-0.02
-0.055
-0.035
-0.045
-0.05
-0.025
-0.015
-0.05
-0.015
0.005
-0.01
-0.05
-0.06
-0.03
-0.005
-0.055
-0.095
-0.08
-0.025
-0.06
-0.075
-0.07
-0.055
-0.06
-0.035
-0.035
-0.04
-0.03
-0.045
-0.015
-0.015
-0.055
-0.005
0.025
-0.015
-0.025
-0.005
0.0
-0.05
-0.015
0.03
0.015
0.0
-0.02
-0.005
0.04
0.055
0.02
0.005
-0.005
-0.005
-0.03
-0.065
-0.065
-0.085
-0.13
-0.085
-0.035
0.0
-0.04
-0.03
-0.05
-0.075
-0.06
-0.035
-0.04
-0.09
-0.05
-0.005
-0.045
-0.08
-0.065
-0.075
-0.07
-0.01
0.0
-0.005
-0.045
-0.065
-0.04
-0.04
-0.07
-0.1
-0.095
-0.07
-0.015
-0.03
-0.05
-0.035
-0.025
-0.045
-0.085
-0.09
-0.075
-0.07
-0.06
-0.06
-0.055
-0.065
-0.085
0.005
0.055
0.13
0.225
0.32
0.435
0.545
0.67
0.765
0.775
0.705
0.68
0.585
0.435
0.32
0.275
0.235
0.12
-0.065
-0.125
-0.125
-0.18
-0.175
-0.16
-0.16
-0.145
-0.135
-0.11
-0.095
-0.075
-0.075
-0.065
-0.025
-0.06
-0.055
-0.1
-0.085
-0.06
-0.07
-0.045
-0.055
-0.045
-0.06
-0.04
-0.01
-0.03
-0.015
-0.04
0.01
-0.03
-0.06
-0.04
-0.05
-0.03
-0.03
-0.035
-0.04
-0.025
-0.035
-0.03
-0.07
-0.05
-0.035
-0.045
-0.035
-0.03
-0.04
-0.06
-0.095
-0.07
-0.03
0.01
0.005
-0.005
-0.005
-0.005
-0.025
-0.005
-0.015
-0.015
-0.03
0.005
-0.035
-0.02
-0.03
-0.005
0.0
0.03
0.065
0.06
0.01
-0.02
-0.025
0.0
0.025
0.03
0.08
0.105
0.06
0.04
0.065
0.045
0.045
0.055
0.065
0.01
0.01
0.09
0.13
0.095
0.045
0.035
0.105
0.135
0.115
0.12
0.125
0.105
0.115
0.12
0.135
0.11
0.095
0.09
0.11
0.05
0.09
0.095
0.12
0.1
0.09
0.03
0.035
0.01
0.04
0.055
0.03
0.025
0.045
0.03
0.01
0.005
0.01
-0.015
0.0
0.005
0.0
0.005
-0.02
-0.04
-0.065
-0.07
-0.03
-0.03
-0.04
-0.065
-0.03
-0.01
-0.01
-0.015
-0.015
-0.08
-0.015
-0.015
0.0
-0.02
-0.02
-0.015
-0.045
-0.02
-0.045
-0.07
-0.065
-0.025
0.02
0.015
0.015
-0.015
-0.015
0.01
0.02
-0.015
-0.005
0.0
0.005
-0.015
-0.025
-0.02
-0.03
-0.03
-0.02
-0.02
-0.02
-0.03
-0.045
-0.045
-0.075
-0.03
0.0
-0.03
-0.05
-0.06
-0.02
0.005
0.005
-0.015
-0.04
-0.045
-0.01
0.005
0.02
0.005
-0.015
-0.01
-0.075
-0.07
-0.015
0.0
0.01
-0.035
-0.04
-0.03
-0.005
0.0
-0.025
-0.045
-0.025
-0.05
-0.04
-0.03
-0.055
-0.04
-0.02
-0.03
-0.05
-0.045
-0.085
-0.04
0.005
0.0
-0.025
-0.035
-0.02
-0.01
-0.065
-0.07
-0.035
-0.075
-0.09
-0.045
-0.04
-0.02
0.045
0.025
-0.01
-0.05
-0.045
-0.005
-0.03
-0.015
0.015
0.035
0.005
0.005
0.0
0.01
0.01
0.025
0.02
0.0
-0.02
-0.03
-0.02
0.02
0.04
0.005
0.01
-0.04
0.0
0.005
0.01
0.01
-0.02
-0.05
-0.015
-0.01
-0.055
-0.08
-0.095
-0.06
0.03
0.03
0.0
-0.03
-0.065
-0.07
-0.065
-0.035
-0.04
-0.025
-0.035
-0.035
0.015
-0.02
-0.055
-0.045
0.015
0.005
0.005
-0.04
-0.03
-0.005
0.02
-0.01
-0.005
-0.035
-0.025
-0.015
-0.005
-0.015
-0.025
-0.015
0.0
0.0
-0.03
-0.035
-0.025
0.005
0.03
0.055
0.13
0.265
0.38
0.41
0.475
0.58
0.645
0.575
0.57
0.465
0.335
0.305
0.27
0.175
0.185
0.065
-0.075
-0.105
-0.135
-0.15
-0.17
-0.165
-0.135
-0.08
-0.08
-0.08
-0.055
-0.04
-0.025
-0.015
-0.015
0.0
-0.005
-0.015
-0.035
-0.04
0.0
0.015
-0.005
-0.02
0.02
0.005
-0.01
-0.01
-0.005
0.03
0.015
0.02
0.01
0.02
0.01
0.01
0.025
0.035
0.0
0.01
-0.015
-0.005
0.005
0.015
0.03
0.035
0.045
0.03
0.02
0.005
-0.015
-0.005
0.035
0.01
-0.09
-0.04
0.065
0.07
0.02
-0.02
0.07
0.08
0.075
0.075
0.08
0.07
0.075
0.07
0.085
0.06
0.04
0.045
0.06
0.1
0.12
0.09
0.08
0.08
0.09
0.09
0.12
0.12
0.115
0.125
0.105
0.125
0.125
0.105
0.045
0.085
0.17
0.26
0.22
0.19
0.16
0.16
0.135
0.12
0.095
0.14
0.185
0.215
0.22
0.21
0.22
0.17
0.17
0.18
0.195
0.19
0.17
0.17
0.145
0.13
0.11
0.07
0.085
0.105
0.065
0.045
0.065
0.1
0.09
0.06
0.04
0.04
0.035
0.03
0.01
0.005
0.015
-0.01
0.01
0.01
0.01
0.035
0.035
-0.015
-0.01
0.005
0.005
0.015
0.005
0.01
-0.03
-0.05
-0.025
-0.005
0.04
0.035
0.07
0.015
0.035
0.05
0.045
0.0
0.0
-0.04
-0.035
0.0
0.005
0.035
0.03
0.015
0.03
0.035
0.05
0.03
0.035
-0.01
-0.045
-0.02
0.035
0.03
0.03
-0.02
-0.01
-0.02
-0.01
-0.015
-0.015
0.02
0.02
0.01
-0.02
-0.005
-0.005
0.0
0.035
0.02
0.02
0.025
0.005
0.015
0.045
0.06
0.025
0.06
0.045
0.04
0.05
0.01
-0.015
-0.005
-0.005
0.005
0.03
0.025
0.01
0.025
0.01
-0.02
-0.045
-0.095
-0.07
0.02
0.025
0.045
0.035
0.035
0.03
0.01
0.025
0.01
-0.015
0.045
0.065
-0.01
-0.01
0.005
0.005
0.0
0.015
0.025
0.02
0.005
-0.01
-0.01
0.0
0.02
0.07
0.075
0.045
0.03
0.02
0.075
0.08
0.045
0.01
0.005
-0.005
0.025
0.06
0.035
0.01
-0.02
-0.02
0.0
-0.005
-0.055
0.0
0.02
-0.03
-0.01
0.015
0.02
0.005
-0.01
-0.025
-0.005
0.005
0.01
0.005
0.005
0.01
0.005
-0.025
-0.02
-0.025
-0.03
-0.005
-0.01
-0.02
-0.03
-0.045
-0.04
-0.005
-0.04
-0.025
0.035
0.015
-0.025
-0.045
-0.04
0.01
0.0
-0.01
-0.055
-0.085
-0.03
0.035
0.09
0.11
0.13
0.205
0.305
0.37
0.5
0.57
0.645
0.565
0.565
0.52
0.39
0.295
0.255
0.225
0.17
0.05
-0.07
-0.16
-0.14
-0.135
-0.16
-0.155
-0.145
-0.12
-0.105
-0.12
-0.105
-0.08
-0.025
-0.045
-0.015
-0.03
-0.015
0.0
-0.01
-0.02
-0.04
-0.035
0.04
0.03
-0.01
-0.02
-0.015
-0.01
-0.005
0.0
-0.02
-0.01
0.005
-0.015
0.0
0.04
0.04
0.01
0.01
0.015
0.035
0.015
-0.015
0.005
0.0
-0.005
0.025
0.03
0.045
0.055
0.08
0.03
0.03
0.02
0.035
0.01
0.005
0.03
0.04
0.02
0.01
0.045
0.03
0.02
0.025
0.05
0.025
0.015
0.05
0.06
0.085
0.075
0.055
0.04
0.1
0.095
0.06
0.075
0.11
0.1
0.1
0.125
0.125
0.1
0.125
0.135
0.15
0.135
0.13
0.135
0.12
0.135
0.15
0.14
0.175
0.17
0.19
0.175
0.165
0.175
0.175
0.16
0.15
0.17
0.16
0.14
0.125
0.14
0.145
0.135
0.16
0.145
0.135
0.13
0.085
0.045
0.055
-0.005
0.02
0.095
0.07
0.03
-0.01
-0.015
0.01
0.005
0.02
0.02
0.0
-0.005
0.025
0.03
0.03
0.025
-0.005
-0.05
-0.085
-0.11
-0.065
-0.015
0.015
-0.015
-0.05
0.035
0.035
-0.005
-0.02
-0.015
-0.005
-0.03
-0.015
-0.01
0.0
0.01
0.005
-0.05
-0.035
-0.02
-0.005
-0.01
-0.01
-0.045
-0.045
-0.08
-0.085
-0.045
-0.03
-0.035
-0.04
-0.055
-0.04
-0.06
-0.02
0.04
0.03
0.035
0.005
-0.03
-0.01
-0.015
-0.03
-0.04
-0.05
-0.04
-0.045
-0.05
-0.055
-0.05
-0.035
-0.02
-0.02
-0.03
-0.025
-0.045
-0.03
0.0
0.0
-0.02
-0.07
-0.11
-0.08
-0.06
-0.03
-0.01
-0.015
-0.02
-0.015
-0.04
-0.02
-0.025
-0.015
-0.05
-0.045
-0.05
-0.03
-0.005
-0.03
0.0
-0.015
-0.06
-0.015
0.0
-0.015
0.0
-0.02
-0.065
-0.03
0.0
-0.005
-0.05
-0.03
-0.01
-0.015
-0.025
-0.025
-0.03
-0.03
-0.03
-0.03
-0.05
-0.015
0.02
0.0
-0.02
0.015
0.06
0.035
0.005
0.04
0.06
0.045
0.025
-0.01
0.005
0.015
0.02
0.025
0.0
-0.065
-0.035
-0.01
-0.005
0.02
0.01
0.005
0.015
0.005
-0.035
-0.02
-0.01
-0.005
-0.02
-0.035
-0.02
-0.01
-0.055
-0.05
0.0
-0.015
-0.01
0.005
-0.035
-0.025
-0.005
0.0
-0.035
-0.025
-0.02
-0.02
0.005
-0.015
-0.055
-0.09
-0.115
-0.04
-0.025
-0.015
-0.035
-0.05
-0.01
0.01
0.005
-0.005
0.01
0.025
0.075
0.115
0.27
0.405
0.48
0.56
0.64
0.825
0.805
0.785
0.745
0.595
0.455
0.375
0.34
0.25
0.185
0.025
-0.08
-0.12
-0.13
-0.14
-0.15
-0.13
-0.125
-0.145
-0.14
-0.085
-0.035
-0.01
0.01
-0.005
-0.01
-0.01
-0.01
-0.015
-0.03
-0.01
-0.015
-0.04
-0.04
-0.04
-0.025
-0.01
-0.01
-0.005
0.0
-0.02
-0.025
-0.01
-0.01
-0.025
-0.065
-0.05
-0.07
-0.03
0.005
0.005
0.01
0.01
0.01
-0.02
-0.015
0.035
0.045
-0.005
-0.005
0.015
-0.025
-0.02
0.015
0.04
0.01
-0.02
-0.045
-0.015
0.03
0.04
0.0
0.005
-0.005
0.01
0.04
0.035
0.025
0.0
0.0
0.04
0.065
0.03
0.055
0.075
0.04
0.03
0.07
0.1
0.045
0.03
0.07
0.08
0.05
0.035
0.045
0.075
0.085
0.09
0.095
0.1
0.1
0.055
0.06
0.09
0.17
0.165
0.155
0.16
0.155
0.17
0.13
0.125
0.115
0.125
0.11
0.105
0.12
0.105
0.105
0.11
0.085
0.07
0.075
0.065
0.075
0.065
0.03
-0.005
0.01
0.015
0.02
0.01
-0.005
0.03
0.02
0.02
0.01
-0.015
0.0
-0.005
-0.005
-0.015
-0.04
-0.06
-0.05
-0.045
-0.08
-0.07
-0.03
-0.025
-0.005
0.005
-0.035
-0.095
-0.09
-0.055
-0.02
0.015
0.04
-0.015
-0.04
0.005
-0.03
-0.03
-0.005
0.0
-0.01
-0.015
0.005
-0.05
-0.06
-0.01
-0.02
-0.07
-0.045
-0.025
-0.015
0.015
-0.045
-0.055
-0.025
-0.005
-0.015
-0.055
-0.085
-0.09
-0.045
-0.035
-0.015
-0.035
-0.055
-0.035
-0.07
-0.1
-0.06
0.0
-0.005
-0.06
-0.1
-0.03
-0.035
-0.015
-0.035
0.005
-0.03
-0.045
-0.05
-0.035
-0.075
-0.12
-0.125
-0.045
-0.025
-0.03
-0.04
-0.025
-0.02
0.005
-0.015
-0.035
-0.025
-0.045
-0.045
-0.045
-0.04
-0.03
-0.03
-0.08
-0.065
-0.03
-0.05
-0.07
-0.08
-0.06
-0.025
-0.005
-0.04
-0.03
-0.015
-0.02
-0.045
-0.07
-0.065
-0.075
-0.045
-0.04
-0.03
-0.09
-0.065
0.0
0.015
-0.02
-0.03
-0.015
-0.03
-0.045
-0.04
0.0
0.0
-0.005
0.035
-0.01
-0.08
-0.025
-0.06
-0.07
-0.03
-0.03
-0.07
-0.055
-0.07
-0.07
-0.035
-0.01
0.005
0.02
0.0
-0.005
-0.03
-0.045
-0.035
-0.025
-0.015
0.0
-0.03
-0.035
-0.04
-0.035
-0.065
-0.085
-0.085
-0.07
-0.01
-0.025
-0.025
-0.03
-0.1
-0.16
-0.085
0.035
0.01
-0.03
-0.045
-0.04
-0.05
-0.055
-0.07
-0.1
-0.11
-0.095
-0.1
-0.125
-0.095
-0.05
0.0
0.025
0.07
0.135
0.205
0.32
0.4
0.47
0.57
0.715
0.76
0.74
0.7
0.595
0.46
0.365
0.305
0.255
0.135
-0.02
-0.13
-0.165
-0.17
-0.185
-0.235
-0.2
-0.15
-0.115
-0.075
-0.045
-0.05
-0.025
-0.035
-0.055
-0.045
-0.06
-0.065
-0.075
-0.045
0.0
-0.035
-0.03
-0.035
-0.07
-0.07
-0.09
-0.105
-0.075
0.01
-0.025
-0.035
-0.1
-0.08
0.09
0.055
-0.01
-0.05
-0.08
-0.04
-0.035
0.005
0.03
-0.02
-0.04
-0.01
-0.035
-0.03
-0.03
-0.02
-0.005
0.015
-0.03
-0.05
-0.065
-0.025
-0.07
-0.075
-0.06
0.0
0.05
0.025
0.045
0.005
0.01
-0.02
-0.025
-0.03
-0.025
0.01
0.03
0.03
0.005
0.015
0.065
0.095
0.05
0.02
0.08
0.065
0.035
0.085
0.1
0.105
0.11
0.08
0.13
0.105
0.08
0.105
0.085
0.08
0.1
0.1
0.1
0.14
0.12
0.095
0.06
0.08
0.12
0.18
0.17
0.165
0.125
0.13
0.14
0.15
0.135
0.1
0.09
0.09
0.08
0.02
0.025
0.05
0.09
0.08
0.03
0.055
0.02
-0.025
0.035
0.04
0.005
0.0
0.005
-0.04
0.0
-0.005
-0.01
-0.04
-0.01
0.01
0.0
-0.005
-0.025
-0.05
-0.04
-0.025
0.005
0.035
0.035
0.02
0.0
-0.015
-0.03
-0.025
0.03
0.0
0.02
0.02
0.02
-0.03
-0.045
-0.065
-0.01
0.005
-0.015
-0.01
0.01
-0.075
-0.08
0.015
0.015
-0.015
0.0
0.015
0.0
0.015
-0.01
-0.005
-0.02
0.005
-0.005
-0.015
-0.035
-0.03
-0.02
0.01
0.01
0.02
-0.015
-0.02
-0.04
-0.05
-0.035
-0.035
-0.02
0.005
0.01
0.01
0.03
-0.05
0.025
0.035
0.02
0.0
-0.045
-0.035
-0.02
0.0
-0.01
0.01
-0.015
-0.035
-0.015
-0.005
-0.03
-0.05
-0.055
0.02
0.04
0.0
-0.025
-0.02
0.0
-0.03
-0.08
-0.08
-0.025
0.03
0.035
0.045
0.03
0.02
0.01
-0.005
0.01
0.04
-0.03
-0.005
0.04
0.01
-0.025
-0.02
-0.01
-0.01
-0.035
0.03
0.05
0.06
0.06
0.07
0.075
0.035
0.05
0.06
0.045
0.055
0.015
0.03
0.035
0.02
0.025
0.06
0.015
-0.01
0.005
0.0
-0.05
-0.035
0.055
0.035
0.01
0.04
0.035
-0.02
-0.015
0.01
0.015
0.01
-0.015
-0.005
0.01
0.015
0.0
-0.005
0.03
0.01
0.015
0.025
0.02
0.025
0.03
-0.04
-0.05
-0.005
0.0
0.015
0.005
0.01
0.02
-0.005
-0.01
-0.005
0.0
0.025
0.015
0.025
0.01
0.005
0.005
0.035
0.035
0.03
0.135
0.29
0.395
0.445
0.545
0.58
0.61
0.57
0.53
0.48
0.365
0.275
0.215
0.15
0.08
-0.015
-0.11
-0.14
-0.145
-0.16
-0.145
-0.125
-0.085
-0.115
-0.07
-0.075
-0.075
-0.075
-0.085
-0.045
0.01
0.0
-0.01
-0.015
0.0
0.045
0.075
0.015
-0.01
-0.025
-0.02
0.015
0.04
0.04
0.015
-0.01
0.025
0.0
0.025
0.07
0.075
0.02
-0.005
0.05
0.04
0.005
-0.005
0.03
0.065
0.035
0.02
-0.01
0.02
0.015
0.01
0.055
0.085
0.06
0.045
0.075
0.035
0.065
0.055
0.02
0.045
0.05
0.08
0.095
0.09
0.05
0.075
0.07
0.08
0.08
0.05
0.05
0.095
0.11
0.09
0.095
0.085
0.1
0.115
0.145
0.13
0.125
0.11
0.165
0.165
0.165
0.125
0.12
0.16
0.19
0.18
0.155
0.125
0.105
0.195
0.245
0.24
0.23
0.2
0.2
0.18
0.22
0.19
0.175
0.16
0.195
0.195
0.165
0.195
0.195
0.18
0.2
0.185
0.185
0.16
0.115
0.09
0.125
0.13
0.1
0.05
0.055
0.065
0.045
0.095
0.085
0.045
0.035
0.085
0.075
0.05
0.02
0.055
0.04
0.03
0.03
0.015
0.03
-0.02
0.0
0.045
0.05
0.07
0.025
0.02
0.035
0.02
0.02
0.02
0.025
0.03
0.025
0.005
-0.015
-0.025
-0.02
0.04
0.06
0.01
0.03
0.055
0.05
0.03
0.005
0.02
-0.01
0.02
0.04
-0.005
0.005
0.0
0.015
0.04
0.045
0.065
0.025
0.02
0.025
0.04
-0.015
0.04
0.02
0.01
0.04
0.0
0.0
0.035
0.02
0.02
0.01
0.04
0.045
0.025
0.035
0.045
0.0
-0.025
0.02
0.05
0.04
0.045
0.03
0.04
0.04
0.055
0.03
-0.005
-0.005
0.035
0.04
0.08
0.045
-0.02
-0.03
0.005
0.0
0.01
0.005
0.0
0.02
0.02
0.03
0.01
0.025
0.035
0.045
0.05
0.07
0.055
0.07
0.065
0.07
0.03
0.03
0.06
0.08
0.065
0.075
0.06
0.06
0.065
0.075
0.045
0.025
-0.005
0.025
0.025
-0.02
0.01
0.005
-0.02
0.0
0.03
0.045
0.04
0.01
0.025
0.05
0.025
0.0
0.015
0.01
-0.02
0.01
0.0
0.0
0.05
0.09
0.03
0.025
-0.025
-0.05
0.02
0.055
0.055
0.015
0.02
0.05
0.035
0.04
0.035
0.02
-0.01
-0.025
-0.015
-0.035
0.025
0.04
0.035
-0.015
-0.015
0.0
0.02
0.1
0.135
0.195
0.28
0.39
0.485
0.55
0.68
0.695
0.64
0.61
0.5
0.365
0.32
0.295
0.265
0.195
0.08
-0.03
-0.08
-0.1
-0.12
-0.125
-0.135
-0.12
-0.065
-0.065
-0.055
-0.03
-0.045
-0.04
-0.03
-0.065
-0.055
-0.005
0.03
0.04
0.055
0.04
0.02
0.005
0.005
-0.005
0.015
0.045
0.05
0.02
0.035
0.025
0.005
0.01
0.035
0.025
0.025
0.045
0.035
0.04
0.025
-0.005
-0.01
0.01
-0.015
0.01
0.025
-0.005
0.03
0.065
0.02
0.04
0.04
0.035
0.02
0.03
0.04
0.065
0.065
0.04
-0.01
-0.02
0.05
0.1
0.065
0.055
0.08
0.07
0.075
0.055
0.05
0.02
0.04
0.05
0.07
0.13
0.125
0.105
0.07
0.09
0.095
0.1
0.12
0.12
0.11
0.14
0.135
0.155
0.185
0.2
0.15
0.12
0.1
0.13
0.145
0.135
0.165
0.15
0.195
0.165
0.16
0.165
0.16
0.15
0.165
0.165
0.19
0.155
0.14
0.105
0.125
0.105
0.11
0.14
0.125
0.105
0.105
0.03
-0.015
0.0
0.06
0.02
-0.005
0.035
0.03
0.015
0.04
0.05
0.01
0.025
0.01
0.01
0.0
0.0
-0.01
-0.03
-0.045
-0.04
0.01
0.045
0.02
-0.015
-0.01
-0.005
0.005
-0.025
-0.02
-0.01
-0.04
-0.03
-0.005
0.025
-0.01
-0.005
0.01
0.025
0.02
0.05
0.03
-0.02
-0.01
-0.025
-0.025
-0.01
0.0
0.005
0.005
-0.055
-0.04
0.01
0.01
0.025
0.0
0.0
-0.025
-0.025
-0.005
-0.05
-0.115
-0.085
-0.035
-0.015
-0.025
0.005
-0.005
0.0
-0.025
-0.01
0.015
-0.005
-0.01
0.0
-0.005
0.015
0.04
0.01
-0.025
-0.015
-0.015
-0.025
-0.05
-0.05
-0.015
-0.025
-0.015
-0.01
-0.03
-0.005
-0.005
-0.005
-0.01
-0.01
-0.025
-0.035
-0.01
-0.03
-0.005
0.005
-0.02
-0.075
-0.065
-0.08
-0.02
-0.035
-0.035
-0.1
-0.115
0.005
0.055
0.03
0.045
0.025
0.04
0.025
0.01
-0.02
-0.015
-0.01
0.035
0.01
0.03
0.035
0.03
0.02
0.015
0.005
0.025
0.04
0.025
-0.01
-0.015
-0.045
0.0
0.005
-0.01
-0.01
0.0
-0.005
0.005
0.0
-0.01
-0.03
-0.005
-0.03
-0.045
-0.015
0.01
-0.035
-0.025
-0.035
-0.05
-0.055
-0.01
-0.035
-0.03
0.0
-0.025
-0.01
0.0
-0.01
-0.025
-0.065
-0.05
-0.02
0.0
0.015
-0.01
-0.045
-0.04
-0.08
-0.115
-0.055
0.005
-0.045
-0.05
-0.005
-0.025
-0.025
0.05
0.09
0.165
0.29
0.395
0.465
0.575
0.695
0.825
0.785
0.755
0.685
0.585
0.49
0.375
0.325
0.24
0.125
0.015
-0.1
-0.125
-0.12
-0.145
-0.16
-0.14
-0.11
-0.1
-0.075
-0.1
-0.05
-0.055
-0.07
-0.065
-0.025
0.01
0.005
-0.015
-0.045
-0.03
-0.02
-0.045
-0.045
-0.07
-0.03
-0.01
-0.015
-0.03
-0.005
-0.08
-0.075
-0.03
0.005
-0.01
-0.03
-0.015
0.0
-0.015
-0.04
-0.06
-0.025
0.01
0.01
0.02
0.005
0.01
-0.03
0.015
0.015
-0.01
-0.02
-0.01
-0.025
-0.045
-0.055
-0.055
-0.01
-0.01
-0.01
-0.015
0.015
-0.005
-0.03
-0.05
-0.02
0.055
0.035
0.02
0.015
0.05
0.06
0.045
0.03
0.005
0.0
0.025
0.055
0.045
0.05
0.025
0.045
0.055
0.075
0.085
0.06
0.055
0.075
0.08
0.095
0.095
0.07
0.085
0.13
0.13
0.03
0.0
0.055
0.115
0.16
0.135
0.105
0.095
0.125
0.145
0.125
0.1
0.09
0.07
0.09
0.12
0.075
0.04
0.015
0.04
0.025
-0.025
-0.02
0.005
0.02
0.01
0.015
-0.01
-0.045
-0.045
-0.04
-0.015
0.005
0.02
0.0
-0.025
-0.01
0.005
-0.03
-0.03
-0.03
-0.035
-0.035
-0.04
-0.065
-0.03
-0.035
-0.035
-0.005
-0.01
-0.04
-0.05
-0.05
-0.05
-0.035
-0.045
-0.025
-0.02
-0.01
-0.055
-0.07
-0.09
-0.065
-0.045
-0.055
-0.065
-0.085
-0.04
0.005
-0.02
-0.03
-0.025
-0.04
-0.03
-0.035
-0.005
-0.02
-0.04
-0.035
-0.035
-0.045
-0.025
-0.05
-0.055
-0.055
-0.06
-0.065
-0.04
-0.045
-0.02
-0.02
-0.045
-0.025
-0.065
-0.045
-0.035
-0.035
-0.04
-0.07
-0.06
-0.065
-0.07
-0.035
-0.01
-0.015
-0.04
-0.04
-0.065
-0.1
-0.1
-0.085
-0.085
-0.08
-0.045
-0.04
-0.045
-0.035
-0.025
-0.025
-0.04
-0.04
-0.05
-0.045
-0.085
-0.065
-0.065
-0.045
-0.035
-0.055
-0.045
-0.04
-0.065
-0.06
-0.04
-0.045
-0.07
-0.065
-0.06
-0.045
-0.09
-0.095
-0.07
-0.055
-0.065
-0.1
-0.09
-0.025
-0.005
-0.035
-0.04
-0.04
-0.08
-0.085
-0.07
-0.03
-0.01
-0.04
-0.04
-0.05
-0.02
-0.015
-0.035
-0.035
-0.02
-0.02
-0.02
-0.04
-0.04
-0.025
-0.015
-0.015
-0.03
-0.02
-0.025
-0.015
0.035
0.02
0.015
0.015
0.0
-0.065
-0.06
-0.06
-0.065
-0.075
-0.07
-0.095
-0.15
-0.115
-0.04
-0.05
-0.125
-0.105
-0.02
-0.01
-0.005
-0.03
-0.01
-0.035
-0.075
-0.09
-0.1
-0.065
-0.04
-0.025
-0.04
-0.035
-0.035
-0.08
-0.09
-0.08
-0.055
-0.07
-0.08
-0.055
-0.055
-0.095
-0.095
-0.105
-0.11
-0.08
-0.04
-0.04
-0.045
-0.05
-0.05
-0.04
-0.08
-0.02
0.01
0.02
0.09
0.265
0.4
0.425
0.515
0.625
0.68
0.63
0.625
0.515
0.445
0.335
0.275
0.23
0.19
0.065
-0.075
-0.14
-0.155
-0.175
-0.185
-0.205
-0.215
-0.16
-0.125
-0.1
-0.11
-0.065
-0.045
-0.025
-0.005
-0.035
-0.05
-0.05
-0.08
-0.09
-0.12
-0.125
-0.085
-0.03
-0.005
-0.035
-0.025
-0.025
-0.025
-0.04
-0.045
-0.01
-0.005
-0.005
-0.005
-0.015
-0.015
-0.03
-0.08
-0.095
-0.075
-0.055
-0.095
-0.03
0.025
0.015
0.02
0.02
-0.005
-0.045
-0.05
-0.065
-0.02
0.03
0.005
-0.03
0.0
0.02
-0.01
-0.015
-0.035
-0.04
-0.025
-0.015
0.015
0.04
0.02
0.03
0.05
0.045
0.06
0.055
0.01
0.005
0.04
0.055
0.05
0.06
0.085
0.065
0.085
0.08
0.105
0.08
0.09
0.125
0.105
0.11
0.125
0.095
0.1
0.11
0.12
0.115
0.125
0.11
0.165
0.165
0.15
0.16
0.16
0.155
0.15
0.145
0.14
0.09
0.06
0.11
0.195
0.175
0.15
0.12
0.085
0.105
0.105
0.045
0.05
0.035
0.035
0.055
0.02
0.005
0.01
0.02
0.055
0.05
-0.01
0.01
0.005
0.01
0.025
-0.005
-0.005
0.01
-0.03
-0.015
-0.01
0.02
0.0
0.02
0.015
0.01
0.01
0.0
0.005
0.01
0.01
-0.025
-0.06
-0.06
-0.015
-0.025
0.0
-0.01
-0.01
0.005
0.0
-0.005
-0.025
-0.005
-0.005
0.0
0.025
0.015
-0.045
-0.04
-0.025
-0.015
0.005
0.03
-0.015
-0.03
-0.035
0.06
0.065
0.04
-0.005
-0.025
-0.05
-0.05
-0.005
-0.005
0.04
0.05
0.02
-0.015
-0.01
-0.05
-0.045
-0.105
0.01
0.035
-0.005
0.015
0.06
0.025
0.015
-0.005
-0.015
-0.03
-0.045
-0.045
-0.01
0.025
0.03
0.01
0.01
-0.005
-0.015
-0.005
-0.005
0.01
-0.005
0.01
0.015
-0.005
-0.01
-0.015
-0.02
-0.045
-0.02
-0.01
-0.025
0.02
0.065
0.045
0.02
-0.02
-0.06
-0.04
0.01
0.02
0.045
0.085
0.045
0.025
0.03
0.05
0.07
0.045
0.05
0.025
0.02
0.04
0.005
-0.045
-0.04
-0.035
-0.025
-0.02
-0.03
-0.055
-0.045
-0.035
-0.015
-0.015
-0.03
-0.025
-0.005
-0.005
-0.01
0.02
0.01
0.025
0.025
0.01
0.0
0.005
-0.04
-0.055
-0.03
-0.005
0.005
-0.01
-0.04
-0.015
0.0
0.015
-0.065
-0.085
-0.02
-0.02
-0.005
-0.02
-0.01
-0.03
0.01
0.0
-0.04
-0.035
-0.035
0.02
0.04
0.045
0.055
0.135
0.3
0.385
0.47
0.505
0.58
0.515
0.5
0.515
0.39
0.285
0.205
0.145
0.08
0.01
-0.085
-0.16
-0.16
-0.165
-0.15
-0.16
-0.13
-0.1
-0.13
-0.105
-0.11
-0.135
-0.105
-0.01
0.01
-0.035
-0.05
-0.015
0.01
0.0
-0.01
-0.02
-0.02
-0.005
0.0
0.025
0.02
-0.015
-0.02
0.0
-0.01
0.005
0.02
0.0
0.025
0.03
-0.02
-0.005
-0.005
-0.03
-0.04
-0.01
0.015
0.0
-0.01
0.025
-0.03
-0.01
0.01
0.045
0.055
0.055
0.03
0.05
0.065
0.04
0.01
-0.02
0.03
0.05
0.04
0.045
0.04
0.025
0.025
0.045
0.07
0.06
0.01
0.015
0.03
0.065
0.095
0.075
0.05
0.08
0.095
0.105
0.135
0.11
0.09
0.11
0.125
0.125
0.125
0.125
0.13
0.12
0.13
0.14
0.115
0.16
0.155
0.16
0.135
0.165
0.185
0.165
0.175
0.2
0.205
0.165
0.17
0.15
0.125
0.15
0.125
0.125
0.165
0.145
0.15
0.12
0.09
0.11
0.09
0.08
0.095
0.075
0.055
0.04
0.025
0.05
0.025
0.005
-0.015
-0.02
-0.03
-0.03
0.02
0.03
-0.005
0.005
-0.01
-0.085
-0.045
0.005
0.02
-0.005
-0.025
-0.035
-0.03
-0.05
0.0
0.01
0.01
-0.005
-0.01
0.01
0.005
-0.025
-0.035
-0.035
-0.085
-0.015
-0.015
-0.065
-0.045
-0.015
0.0
0.005
0.0
-0.015
-0.015
-0.04
-0.035
0.02
-0.005
-0.03
-0.025
-0.045
-0.055
-0.01
0.005
-0.005
-0.02
-0.04
-0.065
-0.02
0.035
0.025
-0.02
-0.005
-0.02
-0.025
0.01
0.025
-0.01
-0.04
-0.065
-0.045
-0.03
-0.025
-0.02
0.01
0.015
0.035
0.03
-0.025
-0.015
0.005
-0.005
-0.005
-0.01
-0.055
-0.02
-0.01
-0.01
0.02
0.01
0.015
0.0
0.005
-0.04
-0.03
-0.02
-0.045
-0.035
0.0
0.01
-0.02
-0.045
-0.025
-0.02
-0.015
-0.035
-0.02
-0.045
-0.065
-0.045
-0.005
0.005
0.005
-0.03
-0.02
-0.02
-0.07
-0.085
-0.07
-0.065
0.035
0.055
0.04
0.04
0.065
0.075
0.035
0.035
0.035
0.03
0.03
0.055
0.015
-0.03
0.02
0.04
0.085
0.07
0.05
0.025
0.045
0.035
-0.01
-0.025
-0.035
-0.04
0.005
0.02
-0.02
-0.06
-0.035
-0.005
-0.005
0.02
0.02
0.01
0.03
0.005
0.025
0.01
0.01
-0.04
-0.06
-0.025
0.01
0.01
-0.04
-0.035
-0.02
-0.055
-0.045
0.0
0.02
-0.005
-0.02
0.0
0.025
0.015
0.005
0.0
-0.04
-0.045
0.0
0.0
0.015
-0.005
0.005
-0.03
-0.025
-0.005
0.025
0.055
0.12
0.205
0.31
0.39
0.52
0.58
0.685
0.715
0.635
0.67
0.675
0.565
0.45
0.395
0.325
0.25
0.095
-0.02
-0.09
-0.12
-0.125
-0.11
-0.145
-0.15
-0.12
-0.11
-0.09
-0.06
-0.02
0.01
0.04
0.015
-0.01
-0.025
-0.015
-0.005
-0.02
-0.03
-0.055
-0.02
0.005
0.0
-0.055
-0.04
-0.02
-0.005
0.005
-0.025
-0.05
-0.01
0.005
-0.02
-0.03
-0.02
0.01
-0.08
-0.01
0.045
0.015
0.015
0.02
0.02
0.01
-0.02
-0.015
0.015
-0.02
-0.02
-0.03
-0.025
0.005
0.02
0.025
-0.02
-0.01
0.005
0.03
0.03
0.045
0.03
0.0
-0.03
0.005
0.025
0.05
0.03
0.03
0.035
0.06
0.08
0.08
0.05
0.045
0.045
0.04
0.0
0.0
0.03
0.075
0.085
0.09
0.115
0.11
0.105
0.12
0.11
0.11
0.085
0.1
0.115
0.14
0.115
0.105
0.09
0.105
0.12
0.115
0.105
0.08
0.1
0.13
0.145
0.13
0.1
0.115
0.155
0.1
0.03
0.065
0.085
0.085
0.055
0.015
0.045
0.03
0.04
0.045
0.01
0.005
0.005
0.04
0.02
-0.005
-0.015
-0.015
-0.025
-0.04
-0.03
-0.05
-0.035
0.03
0.02
0.005
-0.02
-0.04
-0.025
0.005
-0.01
-0.035
0.01
-0.005
-0.02
-0.035
-0.07
-0.04
-0.02
-0.01
-0.05
-0.05
-0.035
-0.01
-0.02
-0.025
0.005
-0.025
-0.045
-0.03
-0.03
-0.055
-0.065
0.005
0.005
-0.015
-0.02
-0.055
-0.05
-0.025
-0.045
-0.045
-0.025
0.02
0.0
-0.035
-0.025
-0.07
-0.06
-0.04
-0.045
-0.01
-0.01
-0.04
-0.08
-0.065
-0.05
0.015
-0.005
-0.02
-0.035
-0.05
-0.065
-0.075
-0.055
-0.025
-0.025
-0.055
-0.04
-0.025
-0.02
-0.02
-0.045
-0.04
-0.02
-0.035
-0.035
-0.055
-0.065
-0.04
-0.07
0.0
0.005
0.005
0.0
-0.015
-0.03
-0.025
-0.055
-0.05
-0.02
-0.03
-0.08
-0.065
-0.04
-0.035
-0.035
-0.09
-0.06
-0.06
-0.06
-0.09
-0.07
-0.005
-0.035
-0.05
-0.065
-0.085
-0.095
-0.075
-0.08
-0.06
-0.04
-0.035
-0.005
-0.04
-0.075
-0.095
-0.085
-0.055
-0.025
-0.03
-0.02
-0.005
0.02
-0.005
-0.025
-0.04
-0.055
-0.05
-0.055
-0.075
-0.09
-0.055
-0.005
-0.025
-0.04
-0.05
-0.03
0.01
0.02
0.015
0.0
-0.005
-0.015
-0.04
-0.015
0.025
-0.02
0.015
0.02
-0.015
-0.02
-0.06
-0.04
0.0
-0.015
-0.075
-0.08
-0.09
-0.07
-0.025
-0.02
-0.075
-0.08
-0.03
-0.045
-0.065
-0.085
-0.075
0.0
0.005
-0.03
-0.06
-0.045
-0.075
-0.055
-0.05
-0.065
-0.055
-0.035
-0.045
-0.04
-0.06
-0.065
-0.08
-0.075
-0.085
-0.06
-0.05
-0.055
-0.085
-0.075
-0.08
-0.07
-0.065
-0.05
-0.08
-0.115
-0.115
-0.08
-0.05
-0.03
0.025
0.025
0.07
0.275
0.435
0.54
0.595
0.71
0.8
0.75
0.685
0.59
0.495
0.405
0.35
0.28
0.175
0.02
-0.11
-0.135
-0.17
-0.205
-0.215
-0.195
-0.185
-0.135
-0.115
-0.125
-0.085
-0.045
-0.065
-0.07
-0.085
-0.1
-0.115
-0.12
-0.04
0.01
-0.045
-0.055
-0.085
-0.125
-0.135
-0.19
-0.13
-0.065
-0.03
-0.015
-0.045
-0.07
-0.025
-0.005
-0.005
0.01
-0.005
-0.06
-0.045
-0.065
-0.02
-0.02
-0.02
-0.045
-0.06
-0.045
-0.02
-0.035
-0.09
-0.08
-0.04
-0.02
-0.055
-0.05
-0.035
-0.005
-0.015
-0.045
-0.025
-0.01
-0.05
-0.055
-0.055
-0.035
0.035
0.01
0.005
-0.02
-0.03
0.005
-0.005
0.01
0.025
0.015
0.005
-0.025
0.0
0.065
0.055
0.05
0.025
0.015
0.03
0.12
0.08
0.05
0.07
0.07
0.09
0.055
0.05
0.095
0.1
0.085
0.1
0.13
0.12
0.095
0.085
0.065
0.085
0.105
0.07
0.065
0.095
0.12
0.105
0.08
0.135
0.13
0.1
0.075
0.05
0.04
0.03
0.04
0.025
0.03
0.05
0.03
-0.015
-0.005
-0.01
-0.015
-0.04
-0.045
-0.055
-0.04
-0.025
-0.01
-0.02
-0.075
-0.095
-0.075
-0.04
-0.02
-0.035
-0.045
-0.03
0.0
-0.035
-0.015
-0.025
-0.05
-0.065
-0.065
-0.115
-0.105
-0.055
-0.035
-0.005
-0.01
0.0
-0.025
-0.04
-0.055
-0.065
-0.03
-0.05
-0.075
-0.1
-0.06
-0.025
-0.035
-0.07
-0.045
-0.015
-0.025
-0.035
-0.01
-0.025
-0.04
-0.06
-0.035
-0.025
-0.03
-0.035
-0.05
-0.07
-0.075
-0.15
-0.125
-0.01
-0.005
0.015
0.005
-0.025
-0.05
-0.055
-0.085
-0.06
-0.02
-0.02
-0.01
-0.02
-0.035
-0.04
-0.05
-0.02
-0.015
-0.08
-0.045
-0.06
-0.045
-0.045
-0.06
-0.035
-0.02
-0.06
-0.08
-0.05
-0.035
-0.025
-0.07
-0.1
-0.115
-0.075
-0.02
-0.025
-0.045
-0.04
-0.04
-0.01
-0.02
-0.055
-0.07
-0.03
0.0
-0.01
-0.065
-0.045
-0.025
-0.05
-0.03
-0.07
-0.045
-0.045
-0.035
-0.07
-0.05
-0.025
-0.065
-0.03
-0.02
-0.035
-0.075
-0.045
-0.035
-0.025
-0.03
-0.065
-0.05
-0.045
-0.075
-0.045
-0.08
-0.085
-0.07
-0.11
-0.035
0.015
0.0
-0.05
0.0
-0.01
-0.03
-0.02
-0.04
-0.03
0.0
-0.01
-0.015
-0.02
-0.01
-0.005
-0.05
-0.045
-0.03
-0.005
-0.01
0.0
-0.005
-0.02
0.025
0.045
0.05
0.055
0.02
0.0
-0.03
-0.075
-0.065
-0.03
-0.04
-0.07
-0.025
-0.025
-0.04
-0.01
-0.04
-0.04
-0.05
-0.03
-0.04
-0.055
-0.075
-0.05
-0.075
-0.03
-0.03
-0.015
-0.045
-0.1
-0.075
-0.045
-0.07
-0.045
-0.035
0.0
0.055
0.03
-0.04
-0.035
-0.015
-0.015
-0.02
-0.025
-0.025
-0.04
-0.07
-0.075
-0.075
-0.04
0.01
-0.055
-0.04
-0.055
0.0
0.075
0.1
0.185
0.285
0.325
0.395
0.53
0.61
0.615
0.56
0.535
0.435
0.325
0.25
0.205
0.14
0.085
-0.02
-0.115
-0.12
-0.13
-0.14
-0.135
-0.17
-0.175
-0.15
-0.12
-0.1
-0.09
-0.085
-0.05
0.0
0.005
0.015
0.0
-0.02
-0.025
-0.025
0.02
0.005
-0.035
-0.065
-0.01
0.015
-0.025
0.01
0.03
0.02
0.01
-0.02
0.0
0.02
0.035
0.045
0.005
0.02
0.01
0.025
0.025
0.02
0.0
-0.005
-0.005
0.01
0.035
0.02
-0.01
-0.005
-0.005
-0.035
-0.055
0.01
0.04
0.07
0.055
0.04
0.055
0.075
0.085
0.085
0.06
0.055
0.075
0.07
0.045
0.045
0.08
0.085
0.07
0.075
0.08
0.095
0.105
0.075
0.09
0.085
0.09
0.115
0.14
0.145
0.12
0.12
0.12
0.125
0.115
0.14
0.175
0.175
0.165
0.17
0.175
0.115
0.145
0.18
0.195
0.16
0.15
0.2
0.215
0.16
0.175
0.195
0.175
0.15
0.075
0.16
0.22
0.19
0.185
0.155
0.14
0.15
0.11
0.075
0.06
0.06
0.08
0.07
0.05
0.04
0.015
0.025
0.045
0.04
0.035
0.03
0.005
0.045
0.02
0.025
0.01
0.035
0.04
0.02
-0.015
0.0
0.015
0.03
-0.025
-0.01
0.02
0.02
-0.015
-0.015
-0.04
-0.06
-0.04
-0.01
0.01
-0.005
-0.065
-0.025
-0.005
-0.015
-0.015
0.025
-0.04
-0.05
-0.04
-0.005
0.025
0.005
-0.035
-0.035
0.015
0.025
0.015
-0.025
-0.005
0.015
0.025
0.015
0.02
0.015
0.005
0.005
0.0
-0.04
-0.04
0.015
0.04
0.015
0.005
-0.045
-0.05
0.015
0.03
0.04
0.025
-0.005
0.0
-0.035
-0.06
-0.02
0.0
-0.035
-0.025
-0.015
-0.03
-0.025
-0.055
-0.02
-0.015
0.01
0.025
0.015
0.0
-0.01
-0.02
-0.02
0.0
-0.01
-0.01
0.005
-0.015
-0.02
0.0
0.0
-0.005
-0.04
-0.055
-0.005
-0.045
-0.04
-0.005
0.0
-0.005
-0.035
-0.065
-0.03
-0.025
-0.005
-0.03
-0.03
-0.035
-0.05
0.0
0.015
0.01
0.005
-0.025
0.015
0.03
-0.01
0.02
-0.005
0.015
0.02
0.005
0.0
-0.01
-0.005
0.02
0.025
0.015
0.005
0.04
0.045
0.03
0.01
0.005
-0.03
-0.045
-0.03
-0.045
-0.03
0.01
-0.015
-0.015
-0.02
-0.045
-0.025
-0.025
-0.015
-0.02
-0.045
-0.01
-0.005
0.0
-0.02
-0.02
-0.02
-0.03
-0.07
-0.04
-0.08
-0.055
0.015
0.005
-0.02
-0.015
0.005
-0.005
-0.05
-0.035
-0.025
-0.015
-0.01
0.005
-0.03
-0.07
-0.04
0.0
0.01
-0.015
0.0
0.005
0.015
0.01
0.055
0.085
0.16
0.25
0.34
0.425
0.54
0.63
0.64
0.565
0.53
0.45
0.32
0.265
0.275
0.205
0.13
0.035
-0.08
-0.12
-0.155
-0.145
-0.16
-0.145
-0.13
-0.13
-0.085
-0.045
-0.04
-0.055
-0.035
0.01
0.035
0.01
0.0
-0.005
-0.025
-0.035
-0.03
-0.005
-0.01
0.01
-0.02
-0.03
-0.01
0.035
0.06
0.035
0.01
0.015
0.015
0.035
0.025
0.035
0.04
0.025
0.02
0.02
0.05
0.07
0.06
0.05
0.015
-0.015
0.02
0.03
0.01
0.03
0.055
0.01
0.02
0.04
0.05
0.065
0.045
0.045
0.06
0.105
0.08
0.115
0.055
0.035
0.06
0.06
0.06
0.06
0.07
0.09
0.105
0.09
0.06
0.075
0.09
0.115
0.12
0.12
0.115
0.075
0.085
0.125
0.135
0.155
0.135
0.13
0.15
0.13
0.16
0.165
0.2
0.18
0.165
0.185
0.165
0.175
0.2
0.18
0.175
0.17
0.185
0.205
0.23
0.205
0.205
0.23
0.205
0.17
0.185
0.16
0.145
0.14
0.145
0.125
0.095
0.075
0.09
0.095
0.075
0.06
0.075
0.045
0.0
0.05
0.08
0.055
0.03
0.005
0.025
0.035
0.025
0.01
-0.02
-0.02
0.0
-0.04
0.0
0.045
0.07
0.075
0.035
0.015
0.0
0.005
-0.02
0.005
-0.01
-0.025
0.0
0.03
0.015
0.005
0.03
0.04
0.0
-0.03
-0.01
0.0
0.0
-0.015
-0.025
0.01
0.02
0.03
0.02
0.0
-0.04
-0.025
0.01
0.005
-0.005
-0.005
-0.01
-0.02
-0.03
0.01
0.03
0.06
0.065
0.03
-0.005
-0.01
0.015
-0.035
-0.02
0.005
-0.005
0.005
0.02
0.01
0.01
-0.005
-0.025
-0.005
0.065
0.06
0.005
-0.005
0.0
-0.01
-0.035
-0.01
0.015
0.0
0.0
0.015
0.015
0.015
-0.025
0.0
-0.005
0.0
-0.02
0.0
0.015
0.0
0.01
0.015
-0.015
-0.04
-0.03
-0.03
-0.025
-0.025
-0.075
-0.04
-0.01
0.015
0.025
-0.015
-0.04
-0.03
-0.015
-0.01
-0.02
0.04
0.025
-0.005
-0.015
-0.015
-0.005
-0.03
-0.035
-0.025
-0.01
-0.01
-0.03
-0.03
-0.065
-0.04
-0.005
0.0
-0.02
0.0
-0.01
-0.02
-0.03
-0.04
-0.065
-0.025
0.005
-0.02
-0.04
-0.01
-0.01
-0.02
-0.03
-0.05
-0.09
-0.12
-0.065
0.0
0.005
0.035
0.025
0.005
-0.01
0.005
-0.005
-0.01
-0.02
-0.02
-0.03
-0.005
-0.01
-0.01
0.015
0.05
0.025
0.035
0.02
-0.015
-0.02
0.015
0.02
-0.01
-0.01
0.02
-0.025
-0.005
0.05
0.05
0.05
0.05
0.06
0.04
0.02
-0.01
-0.035
-0.065
-0.08
-0.085
-0.025
-0.015
-0.025
-0.025
-0.03
-0.015
-0.035
0.01
-0.005
-0.005
-0.025
-0.035
-0.03
-0.01
-0.025
-0.03
-0.03
-0.04
-0.05
-0.05
-0.04
-0.03
-0.025
-0.015
-0.035
-0.035
-0.015
-0.01
-0.03
-0.035
-0.045
-0.065
-0.05
-0.04
-0.05
-0.045
-0.025
-0.01
-0.02
-0.035
-0.08
-0.08
-0.03
0.01
0.13
0.265
0.37
0.46
0.575
0.665
0.755
0.74
0.715
0.7
0.57
0.4
0.345
0.345
0.285
0.155
-0.005
-0.115
-0.135
-0.145
-0.14
-0.145
-0.125
-0.135
-0.145
-0.125
-0.09
-0.095
-0.06
-0.04
-0.035
-0.025
-0.02
-0.04
-0.01
-0.01
-0.035
-0.08
-0.08
-0.065
-0.055
-0.06
-0.045
-0.035
-0.015
-0.03
-0.05
-0.055
-0.065
-0.045
-0.005
0.025
0.01
0.0
-0.015
-0.025
-0.03
-0.01
-0.015
-0.08
-0.08
-0.025
-0.015
-0.015
-0.01
-0.035
-0.075
-0.03
0.0
-0.035
-0.015
0.0
0.005
0.015
-0.015
-0.05
-0.04
-0.005
0.02
0.02
0.03
0.035
0.04
0.02
0.005
-0.025
0.0
0.035
0.01
-0.025
-0.04
0.02
0.03
0.05
0.065
0.08
0.055
0.055
0.07
0.07
0.055
0.06
0.06
0.11
0.085
0.11
0.09
0.095
0.105
0.115
0.13
0.12
0.125
0.105
0.095
0.065
0.08
0.05
0.12
0.16
0.135
0.13
0.11
0.125
0.125
0.08
0.09
0.065
0.1
0.09
0.095
0.075
0.085
0.095
0.06
0.04
0.02
0.02
0.005
0.035
0.035
0.01
0.02
0.025
0.0
0.015
0.0
-0.015
-0.03
-0.025
-0.1
-0.1
0.0
-0.025
-0.045
0.015
0.035
0.015
0.005
-0.01
-0.03
-0.005
-0.015
-0.005
-0.02
-0.045
-0.055
-0.06
-0.04
-0.02
0.02
0.02
-0.01
-0.005
-0.045
-0.065
-0.025
-0.065
-0.01
-0.015
-0.025
0.0
-0.01
-0.025
-0.035
-0.055
-0.02
-0.03
-0.03
0.01
0.015
-0.015
-0.025
-0.005
-0.025
-0.02
-0.005
-0.025
-0.01
-0.015
-0.025
-0.045
-0.02
-0.005
-0.02
-0.015
0.005
0.005
-0.005
0.035
-0.02
-0.035
-0.035
-0.08
-0.1
-0.025
-0.035
-0.025
-0.01
-0.015
-0.035
-0.035
-0.03
-0.005
0.015
-0.02
-0.025
-0.005
-0.04
-0.03
-0.015
-0.04
-0.06
-0.08
-0.04
0.005
-0.015
-0.03
-0.025
0.01
0.01
-0.03
-0.045
-0.02
0.01
-0.02
-0.025
-0.055
-0.025
-0.01
-0.025
-0.01
-0.015
-0.015
-0.045
-0.055
-0.045
-0.03
-0.025
-0.035
-0.035
-0.03
-0.025
0.005
0.0
-0.035
-0.06
-0.04
-0.03
-0.025
-0.06
-0.05
-0.025
-0.055
-0.025
0.01
0.0
-0.02
-0.015
0.0
0.01
-0.02
-0.025
-0.02
-0.035
-0.03
-0.04
-0.05
0.005
-0.015
0.0
0.01
-0.005
-0.005
-0.005
-0.005
0.0
0.025
0.015
0.015
0.0
-0.005
-0.005
-0.005
-0.005
-0.025
0.01
0.005
0.015
0.035
0.05
0.045
0.025
0.03
0.065
0.035
0.015
0.05
0.055
0.065
0.065
0.025
-0.015
-0.015
-0.015
0.07
0.115
0.105
0.08
0.055
0.06
0.04
0.03
0.005
-0.025
-0.025
-0.035
-0.005
0.045
0.07
0.06
0.065
0.065
0.025
0.045
0.035
0.015
-0.025
-0.05
-0.03
0.06
0.045
0.05
0.03
0.015
-0.015
-0.015
0.015
0.04
0.065
0.055
0.025
0.01
-0.005
0.0
0.0
0.005
0.005
0.015
0.01
-0.02
-0.045
-0.01
0.055
0.03
0.01
-0.005
0.015
0.045
0.12
0.14
0.255
0.38
0.47
0.535
0.645
0.745
0.715
0.68
0.67
0.55
0.465
0.375
0.335
0.265
0.145
0.065
-0.045
-0.075
-0.09
-0.12
-0.165
-0.1
-0.06
-0.07
-0.03
-0.02
-0.005
0.01
0.0
0.015
0.025
0.03
0.04
0.05
0.05
0.04
0.02
0.02
-0.01
0.005
0.02
-0.01
-0.03
-0.03
0.045
0.09
0.095
0.09
0.075
0.065
0.075
0.065
0.035
0.04
0.065
0.05
0.065
0.06
0.05
0.06
0.055
0.06
0.075
0.06
0.035
0.065
0.115
0.09
0.085
0.065
0.06
0.06
0.065
0.04
0.045
0.065
0.11
0.135
0.135
0.13
0.11
0.055
0.05
0.065
0.09
0.115
0.145
0.125
0.13
0.115
0.11
0.135
0.155
0.15
0.145
0.15
0.155
0.165
0.14
0.125
0.14
0.18
0.22
0.2
0.195
0.215
0.185
0.21
0.22
0.2
0.2
0.195
0.205
0.195
0.19
0.23
0.235
0.235
0.235
0.23
0.215
0.21
0.225
0.205
0.18
0.19
0.2
0.185
0.145
0.125
0.175
0.165
0.125
0.13
0.14
0.135
0.075
0.095
0.085
0.065
0.03
0.055
0.02
0.03
0.05
0.08
0.11
0.115
0.075
0.055
0.055
0.045
0.05
0.055
0.075
0.075
0.055
0.04
0.02
0.045
0.055
0.075
0.01
-0.01
0.05
0.095
0.075
0.06
0.04
0.025
0.05
0.03
0.04
0.005
0.02
0.035
0.04
0.06
0.045
0.04
0.035
0.005
0.025
0.045
0.03
0.015
0.045
0.06
0.05
0.025
0.05
0.03
0.02
0.01
0.01
0.055
0.05
0.045
0.045
0.04
0.045
0.055
0.045
0.065
0.045
0.045
0.03
0.07
0.035
0.03
0.03
0.005
-0.005
0.045
0.025
0.04
0.06
0.06
0.045
0.055
0.065
0.025
0.06
0.04
0.015
0.01
0.065
0.08
0.04
0.025
0.025
0.05
0.045
0.025
0.025
0.035
0.045
0.035
0.01
0.02
0.025
0.035
0.035
-0.005
0.01
0.01
0.045
0.075
0.09
0.055
0.045
0.025
0.03
0.035
0.04
0.025
0.01
-0.01
0.05
0.025
0.01
0.025
0.06
0.045
0.055
0.03
0.015
0.08
0.095
0.065
0.07
0.065
0.06
0.07
0.03
0.085
0.105
0.095
0.12
0.08
0.045
0.035
0.045
0.025
0.025
0.02
0.01
0.04
0.055
0.025
0.05
0.04
0.045
0.05
0.04
0.045
0.03
0.055
0.06
0.045
0.05
0.05
0.06
0.04
0.045
0.06
0.02
0.025
0.04
-0.015
0.005
0.015
0.025
0.025
0.035
0.045
0.01
0.0
0.01
0.015
0.055
0.05
0.04
-0.005
-0.02
0.02
0.04
0.03
-0.01
-0.02
0.03
0.085
0.105
0.135
0.215
0.33
0.39
0.485
0.545
0.645
0.585
0.54
0.505
0.4
0.335
0.235
0.2
0.13
0.035
-0.06
-0.08
-0.09
-0.07
-0.075
-0.075
-0.085
-0.09
-0.105
-0.065
-0.035
-0.115
-0.045
-0.015
0.03
0.035
0.045
0.065
0.025
0.04
0.04
0.04
0.035
0.03
0.035
0.035
0.055
0.02
0.025
0.055
0.045
0.06
0.065
0.06
0.04
0.04
0.06
0.055
0.05
0.06
0.035
0.025
0.07
0.085
0.085
0.08
0.065
0.04
0.03
0.01
0.06
0.075
0.07
0.07
0.04
0.09
0.085
0.07
0.09
0.08
0.075
0.07
0.065
0.1
0.125
0.12
0.08
0.07
0.08
0.105
0.1
0.095
0.08
0.07
0.14
0.15
0.13
0.15
0.14
0.14
0.155
0.155
0.135
0.15
0.13
0.125
0.145
0.155
0.185
0.215
0.19
0.17
0.2
0.255
0.22
0.21
0.225
0.235
0.22
0.185
0.195
0.22
0.195
0.17
0.185
0.245
0.185
0.19
0.23
0.2
0.18
0.175
0.175
0.14
0.125
0.11
0.11
0.1
0.11
0.095
0.085
0.05
0.05
0.025
0.01
0.035
0.01
0.04
0.025
0.03
0.055
0.025
0.025
0.045
0.045
0.015
0.015
0.045
0.01
-0.025
-0.06
-0.005
0.02
0.015
0.035
0.005
0.005
0.005
0.015
0.01
0.01
-0.02
-0.005
-0.01
-0.01
0.005
0.005
0.015
0.01
0.03
0.005
0.01
0.02
0.02
0.01
-0.015
0.005
0.025
-0.02
0.0
0.0
0.01
0.03
0.015
0.0
-0.025
-0.02
0.02
0.02
0.015
0.015
0.005
0.0
-0.02
-0.015
-0.005
0.0
0.025
-0.025
-0.06
-0.01
0.01
0.01
-0.01
0.015
0.03
0.005
0.015
0.0
-0.015
-0.02
0.01
0.0
-0.025
-0.03
0.0
0.02
0.05
0.01
-0.01
-0.01
0.005
-0.005
-0.01
-0.01
0.02
0.025
0.005
0.025
0.01
-0.025
-0.01
-0.045
-0.045
-0.005
0.02
0.035
0.035
0.02
0.005
-0.01
-0.01
-0.04
-0.05
-0.01
0.025
-0.01
-0.065
-0.065
-0.035
-0.025
-0.005
0.03
0.02
0.01
-0.005
0.02
0.02
0.02
0.03
0.02
0.015
0.005
0.045
0.03
-0.025
-0.03
-0.04
0.035
0.06
0.06
0.075
0.07
0.065
0.07
0.065
0.035
0.04
0.045
0.04
0.02
-0.025
-0.06
-0.005
0.025
-0.015
-0.02
0.005
0.0
-0.025
0.005
-0.01
-0.045
-0.025
-0.015
-0.015
-0.01
-0.015
-0.025
-0.01
-0.025
0.005
0.015
0.015
0.005
-0.015
-0.005
-0.015
-0.02
-0.02
-0.015
-0.025
-0.02
-0.035
-0.035
-0.045
-0.035
-0.035
-0.03
-0.045
-0.09
-0.035
-0.015
-0.02
-0.015
-0.01
-0.01
0.0
0.02
0.065
0.105
0.17
0.285
0.4
0.465
0.555
0.67
0.76
0.68
0.645
0.605
0.475
0.38
0.33
0.265
0.155
0.04
-0.09
-0.12
-0.135
-0.135
-0.19
-0.195
-0.13
-0.105
-0.125
-0.11
-0.075
-0.035
-0.035
-0.05
-0.07
-0.03
-0.055
-0.02
-0.03
-0.02
-0.04
-0.03
-0.06
-0.02
-0.04
-0.025
-0.005
-0.025
-0.04
-0.04
-0.01
0.03
0.02
-0.015
-0.025
-0.03
-0.025
-0.035
-0.03
-0.02
-0.035
-0.035
-0.01
0.005
0.0
-0.025
-0.04
-0.03
-0.04
-0.005
-0.005
0.0
-0.01
-0.02
-0.03
0.0
-0.01
-0.025
-0.03
0.025
0.03
0.005
0.0
0.015
-0.025
0.0
0.0
0.03
0.045
0.035
0.005
0.03
0.02
0.015
0.06
0.085
0.07
0.045
0.055
0.055
0.08
0.085
0.105
0.095
0.09
0.065
0.065
0.075
0.095
0.145
0.125
0.105
0.14
0.11
0.095
0.115
0.12
0.105
0.11
0.15
0.13
0.15
0.155
0.155
0.145
0.15
0.145
0.14
0.145
0.125
0.12
0.09
0.095
0.1
0.075
0.075
0.045
0.03
0.03
0.03
0.035
-0.01
-0.04
-0.01
-0.03
-0.02
0.01
0.015
0.01
0.005
-0.015
-0.04
-0.04
-0.02
-0.02
-0.04
-0.025
0.005
-0.005
-0.025
-0.015
0.0
-0.015
-0.02
0.01
0.015
0.0
-0.03
-0.03
-0.02
-0.045
-0.035
-0.02
-0.025
-0.05
-0.035
-0.03
-0.02
-0.04
-0.105
-0.065
-0.015
-0.03
-0.02
-0.015
-0.01
-0.02
-0.02
-0.02
-0.025
-0.045
-0.03
-0.015
-0.015
-0.015
0.025
-0.025
-0.07
-0.095
-0.065
-0.03
-0.015
-0.025
-0.035
-0.035
-0.02
-0.015
-0.03
-0.03
-0.035
-0.01
-0.03
-0.03
-0.04
-0.02
0.0
0.015
-0.02
-0.025
-0.035
-0.035
-0.035
-0.04
-0.045
-0.025
-0.03
-0.04
-0.005
-0.045
-0.05
-0.065
-0.05
-0.07
-0.1
-0.045
0.02
0.005
-0.02
-0.015
-0.025
-0.015
-0.03
-0.025
-0.02
-0.02
-0.035
-0.04
-0.105
-0.14
-0.055
-0.025
-0.035
-0.035
-0.03
-0.06
-0.05
-0.04
-0.045
-0.07
-0.075
-0.04
-0.04
-0.055
-0.045
-0.035
-0.04
-0.02
-0.015
-0.05
-0.02
-0.035
-0.05
-0.045
-0.05
-0.025
-0.035
-0.045
-0.01
-0.02
-0.035
-0.03
-0.03
-0.045
-0.05
-0.045
-0.065
-0.025
0.08
0.08
0.03
-0.02
-0.02
-0.03
-0.045
-0.04
-0.04
-0.035
-0.05
-0.055
-0.075
-0.075
-0.07
-0.06
-0.095
-0.08
-0.05
-0.065
-0.08
-0.095
-0.13
-0.1
-0.055
-0.04
-0.01
-0.055
-0.09
-0.075
-0.04
-0.055
-0.07
-0.035
-0.065
-0.06
-0.05
-0.065
-0.075
-0.065
-0.03
-0.04
-0.08
-0.09
-0.075
-0.08
-0.08
-0.04
-0.075
-0.115
-0.11
-0.03
-0.02
-0.02
0.04
0.105
0.19
0.34
0.45
0.51
0.595
0.71
0.71
0.69
0.61
0.485
0.415
0.355
0.295
0.195
0.065
-0.045
-0.145
-0.16
-0.2
-0.195
-0.155
-0.175
-0.165
-0.14
-0.11
-0.115
-0.045
-0.045
-0.025
-0.045
-0.09
-0.09
-0.08
-0.1
-0.09
-0.075
-0.075
-0.07
-0.015
-0.07
-0.055
-0.05
-0.075
-0.08
-0.07
-0.045
-0.06
-0.105
-0.13
-0.07
-0.02
-0.035
-0.05
-0.025
-0.04
-0.05
-0.04
-0.05
-0.055
-0.04
-0.03
-0.045
-0.06
-0.035
-0.025
-0.04
-0.05
-0.09
-0.08
-0.05
-0.015
-0.03
-0.05
-0.01
0.015
-0.015
-0.04
-0.035
-0.05
-0.03
-0.015
-0.025
-0.045
-0.025
0.02
0.035
0.015
0.025
0.0
-0.01
-0.005
0.015
0.005
0.0
0.04
0.04
0.03
-0.02
0.0
0.05
0.11
0.105
0.09
0.085
0.045
0.055
0.06
0.075
0.075
0.09
0.12
0.095
0.055
0.055
0.1
0.11
0.055
0.105
0.12
0.11
0.115
0.1
0.105
0.1
0.065
0.025
0.03
0.05
-0.005
0.015
0.055
0.01
0.01
-0.005
0.055
0.025
0.015
-0.025
0.005
-0.005
-0.06
-0.045
-0.04
-0.085
-0.035
-0.015
-0.035
-0.04
-0.05
-0.065
-0.045
-0.05
-0.05
-0.06
-0.08
-0.08
-0.05
-0.075
-0.1
-0.085
-0.055
-0.055
-0.075
-0.07
-0.085
-0.03
0.02
-0.04
-0.05
-0.06
-0.09
-0.085
-0.04
-0.055
-0.11
-0.135
-0.045
0.005
-0.005
-0.045
-0.1
-0.08
-0.05
-0.02
-0.045
-0.05
-0.05
-0.035
-0.045
-0.06
-0.055
-0.045
-0.08
-0.105
-0.085
-0.06
-0.04
-0.05
-0.06
-0.045
-0.05
-0.025
-0.07
-0.06
-0.06
-0.07
-0.075
-0.065
-0.06
-0.04
-0.025
-0.055
-0.12
-0.075
-0.075
-0.09
-0.1
-0.065
-0.06
-0.06
-0.075
-0.07
-0.08
-0.05
-0.05
-0.065
-0.045
-0.045
-0.085
-0.08
-0.05
-0.055
-0.02
-0.035
-0.045
-0.085
-0.105
-0.055
-0.04
-0.045
-0.025
-0.02
-0.065
-0.085
-0.09
-0.07
-0.04
-0.045
-0.065
-0.05
-0.055
-0.12
-0.14
-0.09
-0.075
-0.08
-0.065
-0.045
-0.025
-0.035
-0.06
-0.065
-0.075
-0.07
-0.085
-0.095
-0.07
-0.055
-0.065
-0.075
-0.07
-0.07
-0.06
-0.08
-0.08
-0.04
-0.07
-0.055
-0.06
-0.12
-0.085
-0.055
-0.04
-0.05
-0.045
-0.085
-0.08
-0.045
-0.03
-0.03
-0.03
-0.055
-0.065
-0.065
-0.085
-0.055
-0.085
-0.11
-0.035
-0.04
-0.035
-0.045
-0.01
-0.03
-0.055
-0.06
-0.08
-0.04
-0.035
-0.04
-0.035
-0.025
-0.035
-0.045
-0.015
0.02
0.0
0.03
0.01
-0.015
-0.005
-0.04
-0.085
-0.085
-0.08
-0.075
-0.095
-0.08
-0.04
-0.03
-0.05
-0.055
-0.1
-0.09
-0.05
-0.06
-0.075
-0.075
-0.065
-0.095
-0.04
-0.05
-0.07
-0.085
-0.05
-0.075
-0.09
-0.12
-0.095
-0.04
-0.04
-0.045
-0.075
-0.08
-0.035
-0.03
-0.04
-0.065
-0.135
-0.105
-0.05
-0.075
-0.05
-0.04
-0.055
-0.11
-0.09
-0.06
-0.005
0.025
0.07
0.125
0.205
0.305
0.395
0.47
0.56
0.57
0.545
0.555
0.455
0.35
0.265
0.19
0.13
0.06
0.025
-0.095
-0.16
-0.18
-0.215
-0.215
-0.185
-0.185
-0.22
-0.17
-0.09
-0.12
-0.145
-0.125
-0.095
-0.015
0.01
-0.025
-0.04
-0.045
0.0
-0.01
-0.01
-0.04
-0.015
-0.025
-0.035
-0.035
-0.015
-0.025
-0.04
-0.035
-0.04
-0.07
-0.03
-0.02
-0.03
-0.015
-0.01
0.01
0.0
-0.01
-0.01
-0.035
-0.015
-0.005
-0.075
-0.04
-0.005
-0.025
-0.03
-0.04
-0.06
-0.02
-0.02
0.005
0.005
-0.01
0.0
0.045
0.03
0.025
0.005
-0.025
0.03
0.04
0.015
0.02
0.01
-0.005
0.045
0.06
0.01
0.005
0.035
0.095
0.07
0.05
0.05
0.03
0.03
0.05
0.08
0.08
0.11
0.11
0.105
0.09
0.085
0.085
0.14
0.17
0.16
0.155
0.14
0.1
0.135
0.11
0.1
0.18
0.14
0.1
0.17
0.175
0.185
0.17
0.135
0.1
0.065
0.105
0.13
0.125
0.105
0.105
0.065
0.04
0.06
0.095
0.04
0.015
0.05
0.065
-0.005
-0.055
-0.02
-0.015
-0.015
0.02
0.035
0.01
0.02
-0.02
-0.035
-0.015
-0.025
-0.02
0.0
-0.01
-0.025
-0.015
-0.02
-0.02
-0.04
-0.08
-0.03
0.0
-0.03
-0.02
-0.015
-0.025
-0.025
-0.025
-0.07
-0.085
-0.045
0.0
-0.005
-0.085
-0.035
-0.045
-0.04
-0.06
-0.06
-0.03
-0.015
-0.03
-0.03
-0.025
-0.03
-0.035
-0.065
-0.035
-0.015
-0.05
-0.03
-0.005
-0.03
-0.055
-0.06
-0.07
-0.045
-0.03
0.005
0.01
-0.01
-0.05
-0.035
-0.025
-0.055
-0.085
-0.05
-0.005
-0.02
-0.02
0.015
-0.025
-0.07
-0.03
0.0
-0.015
-0.035
-0.02
-0.01
-0.01
-0.01
-0.025
-0.02
-0.035
-0.05
-0.035
-0.035
-0.065
-0.025
-0.025
-0.045
-0.055
-0.025
-0.04
-0.025
-0.015
-0.005
-0.025
-0.035
-0.03
-0.04
-0.02
0.0
-0.015
-0.02
-0.03
-0.05
-0.015
-0.02
0.01
0.01
0.0
0.0
-0.02
-0.04
-0.025
-0.025
-0.035
-0.01
-0.06
-0.075
-0.025
0.01
0.035
0.025
0.05
0.025
-0.01
0.015
0.0
-0.035
-0.06
-0.04
-0.04
-0.035
-0.04
-0.035
-0.005
-0.055
-0.045
-0.025
-0.015
-0.005
-0.035
-0.05
-0.025
-0.045
-0.035
-0.025
-0.03
-0.055
-0.08
-0.05
-0.01
-0.005
-0.045
-0.09
-0.045
-0.045
-0.03
-0.015
-0.03
0.0
-0.02
-0.05
-0.07
-0.06
-0.045
-0.075
-0.055
-0.06
-0.04
-0.03
-0.02
-0.035
-0.05
-0.035
-0.02
0.025
0.11
0.165
0.26
0.32
0.405
0.49
0.575
0.535
0.485
0.415
0.38
0.265
0.145
0.125
0.075
0.01
-0.11
-0.185
-0.205
-0.185
-0.19
-0.165
-0.165
-0.17
-0.145
-0.155
-0.16
-0.065
-0.02
-0.06
-0.07
-0.035
-0.045
-0.05
-0.04
-0.025
-0.02
-0.04
-0.03
-0.045
-0.055
-0.015
-0.02
-0.02
-0.025
-0.035
-0.045
-0.01
-0.015
-0.025
0.015
0.0
-0.035
-0.055
-0.015
0.005
0.0
-0.03
0.01
0.035
0.025
0.01
-0.005
-0.02
-0.04
-0.01
-0.02
-0.01
0.015
0.025
-0.02
-0.015
-0.045
-0.005
0.045
0.04
0.015
0.015
0.015
0.03
0.05
0.02
0.03
0.02
0.025
0.025
0.025
0.055
0.035
0.055
0.06
0.075
0.08
0.08
0.09
0.13
0.13
0.105
0.1
0.07
0.105
0.11
0.12
0.135
0.115
0.105
0.125
0.16
0.14
0.135
0.16
0.19
0.195
0.175
0.175
0.185
0.165
0.155
0.135
0.125
0.145
0.16
0.18
0.13
0.125
0.165
0.13
0.095
0.1
0.1
0.115
0.075
0.055
0.025
-0.01
0.03
0.005
0.03
0.01
0.02
0.0
0.005
0.01
0.01
0.01
-0.015
-0.015
-0.005
-0.005
-0.005
-0.02
-0.03
-0.045
-0.01
-0.045
-0.03
-0.015
-0.035
-0.02
-0.03
-0.025
-0.025
-0.055
-0.055
-0.07
-0.095
-0.045
-0.02
-0.07
-0.055
-0.015
-0.02
-0.025
-0.025
-0.015
-0.02
-0.035
-0.07
-0.085
-0.05
-0.02
-0.06
-0.065
-0.045
-0.015
0.005
-0.045
-0.035
-0.03
-0.05
-0.045
-0.03
-0.055
-0.06
-0.045
-0.06
-0.07
-0.07
-0.03
0.0
0.0
-0.035
-0.03
-0.01
-0.025
-0.005
-0.03
-0.015
-0.05
-0.06
-0.1
-0.035
-0.03
-0.03
-0.005
0.015
-0.03
-0.025
-0.015
-0.035
-0.06
-0.055
-0.06
-0.055
-0.06
-0.055
-0.025
-0.03
-0.065
-0.04
-0.035
-0.055
-0.065
-0.06
-0.035
-0.05
-0.035
-0.025
-0.01
-0.035
-0.065
-0.09
-0.06
-0.04
-0.02
-0.06
-0.04
-0.095
-0.06
-0.03
-0.05
-0.075
-0.08
-0.065
-0.035
-0.005
0.0
-0.025
-0.03
-0.035
-0.07
-0.09
-0.05
-0.005
-0.015
-0.03
-0.05
-0.045
-0.04
-0.02
-0.03
-0.005
0.0
-0.025
-0.02
0.025
0.01
0.01
0.01
0.025
-0.005
-0.01
-0.04
-0.03
-0.065
-0.04
-0.045
-0.035
-0.06
-0.035
-0.04
-0.07
-0.07
-0.08
-0.05
-0.03
-0.055
-0.05
-0.085
-0.075
-0.04
-0.035
-0.065
-0.08
-0.09
-0.065
-0.035
-0.04
-0.055
-0.055
-0.015
-0.035
-0.05
-0.045
-0.085
-0.09
-0.04
-0.03
-0.045
-0.04
-0.05
-0.06
-0.06
-0.08
-0.085
-0.11
-0.065
-0.07
-0.1
-0.045
-0.05
-0.01
0.035
0.095
0.19
0.295
0.4
0.495
0.595
0.67
0.705
0.62
0.605
0.56
0.485
0.345
0.32
0.3
0.19
0.035
-0.095
-0.13
-0.17
-0.155
-0.155
-0.16
-0.175
-0.16
-0.135
-0.135
-0.105
-0.08
-0.085
-0.05
-0.105
-0.12
-0.06
-0.03
-0.06
-0.045
0.0
0.005
-0.07
-0.04
-0.02
-0.025
-0.045
-0.07
-0.1
-0.085
-0.065
-0.105
-0.115
-0.065
-0.04
0.015
0.045
-0.015
-0.035
-0.065
-0.04
-0.05
-0.07
-0.07
-0.055
-0.03
-0.02
-0.03
-0.03
-0.04
-0.015
-0.02
-0.04
-0.03
-0.03
-0.035
-0.02
-0.02
-0.005
-0.03
-0.035
-0.03
-0.045
-0.03
0.0
0.005
0.01
0.025
0.055
-0.01
0.005
0.01
-0.005
-0.01
0.005
0.045
0.03
0.0
-0.02
-0.01
0.05
0.03
0.03
0.06
0.065
0.095
0.065
0.045
0.07
0.045
0.035
0.065
0.12
0.105
0.06
0.045
0.09
0.115
0.135
0.105
0.12
0.08
0.1
0.095
0.095
0.105
0.12
0.095
0.095
0.08
0.055
0.025
0.035
0.03
0.03
0.01
-0.005
0.03
0.04
-0.02
-0.025
-0.02
-0.01
-0.03
-0.065
-0.05
-0.055
0.0
-0.005
-0.045
-0.02
-0.03
-0.055
-0.055
-0.06
-0.045
-0.05
-0.055
-0.08
-0.095
-0.09
-0.06
-0.085
-0.09
-0.045
-0.05
-0.045
-0.065
-0.03
-0.035
-0.04
-0.045
-0.075
-0.055
-0.05
-0.065
-0.1
-0.055
-0.06
-0.055
-0.05
-0.03
-0.055
-0.075
-0.025
-0.02
-0.045
-0.045
-0.055
-0.095
-0.06
-0.055
-0.055
-0.1
-0.07
-0.04
-0.065
-0.065
-0.035
-0.055
-0.05
-0.075
-0.035
-0.05
-0.08
-0.06
-0.005
-0.025
-0.045
-0.07
-0.03
-0.03
-0.045
-0.04
-0.055
-0.045
-0.03
-0.03
-0.04
-0.04
-0.035
-0.03
-0.03
-0.05
-0.055
-0.05
-0.085
-0.04
-0.045
-0.03
-0.065
-0.035
-0.05
-0.04
-0.045
-0.06
0.0
-0.01
-0.05
-0.06
-0.105
-0.08
-0.05
-0.045
-0.055
-0.07
-0.1
-0.095
-0.035
-0.005
0.0
-0.02
-0.015
-0.04
-0.02
-0.015
-0.03
-0.06
-0.065
-0.065
-0.05
-0.065
-0.05
-0.05
-0.055
-0.045
-0.04
-0.045
-0.03
-0.005
-0.035
-0.05
-0.025
0.015
-0.005
-0.015
-0.025
-0.01
-0.035
-0.025
-0.025
0.005
0.02
-0.045
-0.015
0.0
0.03
0.02
0.015
0.035
0.015
-0.015
-0.035
-0.03
-0.035
-0.035
-0.04
-0.04
-0.05
-0.06
-0.085
-0.06
-0.015
-0.02
-0.045
-0.06
-0.11
-0.09
-0.04
-0.03
-0.045
-0.035
-0.03
-0.035
-0.025
-0.03
-0.035
-0.055
-0.07
-0.09
-0.09
-0.075
-0.025
0.005
-0.025
-0.01
-0.03
-0.02
-0.025
-0.045
-0.015
-0.04
-0.055
-0.055
-0.055
-0.04
-0.065
-0.08
-0.085
-0.09
-0.09
-0.085
-0.065
0.02
0.12
0.155
0.235
0.39
0.47
0.545
0.67
0.775
0.745
0.725
0.67
0.575
0.445
0.365
0.315
0.265
0.12
-0.025
-0.135
-0.15
-0.22
-0.235
-0.175
-0.11
-0.12
-0.135
-0.105
-0.075
-0.07
-0.08
-0.03
-0.025
-0.055
-0.035
-0.05
-0.065
-0.07
-0.045
-0.05
-0.06
-0.05
-0.04
-0.04
-0.05
-0.035
-0.055
-0.055
-0.065
-0.045
-0.025
-0.02
-0.005
-0.035
-0.06
-0.055
-0.025
-0.02
-0.03
-0.035
-0.06
-0.04
-0.02
0.02
-0.015
-0.025
-0.025
-0.035
-0.035
-0.08
-0.045
0.0
0.01
-0.02
-0.035
-0.03
-0.03
-0.01
-0.02
0.01
-0.015
0.02
0.015
-0.005
-0.035
-0.02
-0.025
-0.005
0.035
0.055
0.02
0.02
0.025
0.04
0.035
0.075
0.09
0.06
0.015
0.05
0.08
0.095
0.1
0.05
0.02
0.075
0.12
0.105
0.1
0.12
0.155
0.16
0.12
0.115
0.125
0.14
0.15
0.155
0.145
0.13
0.115
0.145
0.135
0.125
0.145
0.145
0.1
0.15
0.165
0.15
0.16
0.13
0.06
0.025
0.03
0.045
0.045
0.015
0.055
0.09
0.04
0.02
0.015
0.0
-0.03
0.0
0.02
0.015
0.025
0.045
0.035
0.02
0.0
-0.015
-0.015
0.015
0.01
0.01
0.0
-0.025
-0.03
-0.03
-0.03
-0.05
-0.015
0.015
-0.01
-0.015
0.045
0.055
0.025
-0.01
-0.02
-0.03
-0.03
-0.005
-0.015
-0.025
-0.03
0.025
0.065
0.02
0.005
0.005
-0.015
-0.015
-0.01
0.01
0.02
0.01
0.015
-0.02
-0.02
-0.005
0.0
-0.01
0.01
0.02
-0.02
-0.02
-0.04
-0.005
0.015
-0.02
0.01
0.005
0.005
-0.01
0.025
-0.005
-0.025
-0.04
-0.07
-0.03
0.015
-0.005
-0.015
-0.015
0.025
0.05
0.01
0.01
0.0
-0.005
0.015
-0.005
-0.025
-0.015
0.015
0.015
0.01
-0.015
-0.02
-0.03
-0.035
-0.015
-0.035
-0.065
0.015
0.05
0.045
0.01
0.015
-0.005
0.0
-0.005
-0.01
-0.025
-0.04
-0.055
-0.04
0.015
0.03
0.02
0.02
0.005
0.025
0.015
-0.01
0.005
0.03
0.03
0.015
-0.025
-0.005
0.015
-0.02
-0.01
0.045
0.055
0.015
-0.005
0.02
0.005
-0.055
-0.025
0.02
0.03
0.065
0.065
0.04
0.03
0.015
0.01
0.055
0.05
0.035
0.03
0.025
0.005
0.03
0.025
0.035
0.07
0.045
0.055
0.05
0.075
0.055
0.035
0.065
0.06
0.035
0.02
0.025
0.01
0.01
0.025
0.01
0.015
-0.005
-0.01
-0.03
-0.015
-0.005
0.02
0.055
0.03
0.015
0.01
-0.005
0.045
0.045
0.025
0.015
0.005
0.02
-0.01
-0.025
0.0
-0.05
-0.03
0.02
0.025
0.0
-0.005
0.05
0.035
0.04
0.035
-0.005
-0.015
-0.015
-0.015
-0.015
0.005
-0.03
0.015
0.02
0.0
-0.02
0.015
0.105
0.13
0.175
0.27
0.41
0.515
0.575
0.66
0.72
0.655
0.62
0.56
0.45
0.335
0.27
0.24
0.19
0.14
-0.01
-0.05
-0.07
-0.11
-0.12
-0.135
-0.115
-0.115
-0.095
-0.09
-0.05
-0.02
-0.04
-0.035
-0.02
-0.005
-0.01
-0.01
0.025
0.065
0.06
0.04
0.035
0.045
0.015
0.025
0.02
0.01
0.015
0.03
0.04
0.005
0.01
0.0
0.005
0.045
0.07
0.035
0.03
0.055
0.05
0.075
0.065
-0.005
0.035
0.05
0.05
0.045
0.015
0.045
0.06
0.08
0.06
0.035
0.05
0.025
0.01
0.03
0.06
0.055
0.055
0.06
0.09
0.065
0.07
0.07
0.08
0.04
0.02
0.095
0.145
0.1
0.1
0.115
0.135
0.13
0.095
0.105
0.15
0.15
0.14
0.12
0.135
0.155
0.15
0.145
0.195
0.17
0.155
0.19
0.17
0.19
0.175
0.18
0.17
0.23
0.235
0.22
0.235
0.22
0.245
0.225
0.175
0.17
0.205
0.185
0.2
0.225
0.19
0.165
0.145
0.16
0.175
0.135
0.12
0.125
0.11
0.09
0.125
0.12
0.1
0.07
0.045
0.06
0.055
0.025
0.035
0.03
0.015
0.04
0.045
0.04
0.04
0.055
0.06
0.035
0.035
0.065
0.05
-0.035
0.01
0.07
0.105
0.065
