# TIPE ECG 2021 - ECG-ID Database v1.0.0 par Physionet
# [N° de la personne, N° de l'enregistrement, Période d'échantillonnage, Prénom, Age, Sexe, Date de l'enregistrement]
[16, 2, 0.002, "Julie", 21, "F", "26.04.2005"]
0.08
0.16
0.095
-0.07
-0.135
-0.21
-0.135
-0.185
-0.15
-0.055
-0.035
0.105
0.0
-0.075
-0.035
-0.14
-0.295
-0.225
-0.075
-0.1
-0.1
-0.055
-0.105
-0.015
-0.165
-0.195
-0.275
-0.245
-0.175
-0.125
-0.095
0.065
0.14
0.055
0.135
0.185
0.485
0.5
0.6
0.595
0.71
0.765
0.645
0.64
0.57
0.465
0.315
0.11
0.005
-0.135
-0.115
-0.085
-0.06
-0.155
-0.23
-0.28
-0.18
-0.17
-0.06
-0.085
0.06
0.025
-0.08
-0.145
-0.135
-0.15
-0.15
-0.18
-0.17
-0.155
-0.015
0.025
0.005
-0.17
-0.11
-0.165
-0.165
-0.145
-0.055
-0.08
0.01
0.05
0.085
-0.01
-0.18
-0.315
-0.23
-0.11
-0.035
-0.07
-0.005
-0.025
0.02
-0.17
-0.115
-0.13
-0.14
-0.175
-0.09
0.055
0.08
-0.015
-0.005
0.015
-0.08
-0.155
-0.275
-0.16
-0.14
-0.035
0.12
0.065
-0.045
-0.025
-0.06
-0.13
-0.12
-0.035
-0.09
-0.04
0.07
0.075
-0.045
-0.06
-0.03
-0.125
-0.13
-0.035
0.075
0.085
0.125
0.125
0.065
0.04
-0.06
-0.115
-0.005
-0.02
0.1
0.14
0.23
0.205
0.095
0.05
0.1
0.09
-0.01
0.035
0.2
0.2
0.245
0.225
0.105
0.005
-0.03
0.005
0.11
0.195
0.2
0.2
0.14
0.145
0.16
0.13
0.02
-0.01
0.015
0.025
-0.025
0.065
0.2
0.2
0.075
-0.055
-0.155
-0.18
-0.025
0.0
-0.095
-0.03
0.02
0.035
-0.045
-0.04
-0.19
-0.275
-0.195
-0.2
-0.09
0.025
0.055
0.015
0.01
-0.21
-0.27
-0.185
-0.2
-0.315
-0.07
0.065
0.055
-0.105
-0.09
-0.09
-0.215
-0.275
-0.275
-0.01
-0.03
0.085
0.055
-0.005
-0.105
-0.18
-0.27
-0.305
-0.23
-0.09
-0.07
-0.065
-0.025
-0.01
-0.065
-0.09
-0.095
-0.185
-0.265
-0.12
-0.09
0.02
-0.055
-0.06
-0.09
-0.175
-0.205
-0.17
-0.125
-0.195
-0.08
0.01
0.045
-0.06
-0.085
-0.125
-0.26
-0.195
-0.2
-0.12
-0.07
0.015
0.01
0.01
-0.06
-0.21
-0.285
-0.275
-0.14
-0.105
-0.065
-0.025
0.03
-0.125
-0.115
-0.095
-0.295
-0.275
-0.14
-0.1
0.02
0.0
-0.05
-0.085
-0.02
-0.305
-0.335
-0.27
-0.155
-0.06
-0.05
-0.015
0.105
-0.075
-0.235
-0.235
-0.26
-0.22
-0.135
-0.115
-0.02
-0.015
0.0
-0.025
-0.11
-0.18
-0.225
-0.18
-0.14
-0.13
-0.12
-0.005
-0.015
-0.07
-0.025
-0.265
-0.24
-0.19
-0.145
-0.14
-0.02
0.045
-0.005
-0.05
-0.045
-0.165
-0.26
-0.21
-0.14
-0.08
-0.03
0.07
-0.015
-0.145
-0.17
-0.21
-0.21
-0.175
-0.005
-0.115
0.005
0.085
0.0
-0.05
-0.055
-0.18
-0.215
-0.225
-0.08
0.03
0.04
0.085
0.13
-0.18
-0.105
-0.045
-0.225
-0.16
-0.165
-0.095
0.075
0.005
-0.045
-0.14
-0.14
-0.245
-0.245
-0.135
-0.07
-0.18
0.0
0.04
0.01
-0.105
-0.12
-0.325
-0.29
-0.17
-0.18
-0.125
0.025
-0.08
-0.075
-0.12
-0.155
-0.005
0.03
0.21
0.4
0.58
0.865
0.8
0.665
0.615
0.61
0.445
0.465
0.4
0.455
0.365
0.175
0.025
-0.03
-0.175
-0.165
-0.305
-0.23
-0.25
-0.14
-0.095
0.085
0.03
-0.045
-0.04
-0.19
-0.22
-0.205
-0.21
-0.145
-0.04
0.12
-0.005
-0.115
-0.185
-0.16
-0.27
-0.255
-0.255
-0.115
-0.03
0.035
0.07
0.01
-0.1
-0.065
-0.16
-0.155
-0.14
-0.095
-0.015
0.04
0.095
-0.095
-0.165
-0.1
-0.265
-0.215
-0.095
-0.07
-0.03
0.1
-0.02
-0.06
-0.155
-0.115
-0.16
-0.105
-0.1
-0.045
0.04
0.0
0.08
0.06
-0.105
-0.235
-0.22
-0.17
-0.185
-0.11
0.065
0.07
0.07
0.02
-0.07
-0.165
-0.135
-0.06
-0.02
-0.035
0.105
0.135
0.19
0.09
0.015
-0.045
-0.115
-0.135
0.005
-0.005
0.08
0.21
0.16
0.07
0.09
-0.03
-0.02
0.025
0.07
0.17
0.27
0.25
0.165
0.13
0.07
-0.02
0.07
0.055
0.08
0.17
0.31
0.29
0.15
0.11
0.09
-0.005
0.005
-0.02
0.025
0.065
0.21
0.225
0.14
0.02
-0.025
-0.155
-0.16
-0.13
0.12
0.015
0.05
0.105
0.08
-0.085
-0.125
-0.26
-0.185
-0.16
-0.01
-0.075
0.035
0.015
0.035
-0.03
-0.12
-0.185
-0.19
-0.21
-0.165
-0.065
0.095
-0.07
-0.06
-0.055
-0.03
-0.21
-0.215
-0.225
-0.145
-0.11
0.065
0.035
-0.07
-0.09
-0.225
-0.24
-0.145
-0.15
-0.145
-0.1
0.02
0.025
-0.03
-0.11
-0.1
-0.15
-0.27
-0.19
-0.105
-0.1
0.095
-0.065
-0.075
-0.13
0.04
-0.235
-0.22
-0.15
-0.04
-0.03
0.02
0.025
-0.03
-0.105
-0.22
-0.22
-0.265
-0.12
-0.03
-0.105
0.02
0.035
-0.105
-0.02
-0.195
-0.23
-0.18
-0.155
-0.125
-0.005
0.1
-0.01
0.0
-0.12
-0.215
-0.185
-0.145
-0.15
-0.075
0.025
0.12
0.045
-0.105
-0.16
-0.18
-0.31
-0.23
-0.055
-0.07
0.02
0.125
0.045
-0.1
-0.16
-0.235
-0.225
-0.235
-0.065
-0.055
0.025
0.045
0.01
-0.07
-0.165
-0.255
-0.28
-0.125
-0.07
-0.065
0.07
0.025
-0.05
-0.085
-0.085
-0.265
-0.285
-0.17
0.01
0.06
-0.02
0.035
-0.04
-0.085
-0.065
-0.165
-0.24
-0.185
-0.09
-0.07
0.06
0.03
-0.075
-0.17
-0.225
-0.22
-0.21
-0.1
-0.15
-0.06
0.14
0.045
-0.085
-0.075
-0.1
-0.135
-0.21
-0.2
-0.065
-0.055
-0.005
0.015
0.105
-0.095
-0.18
-0.285
-0.195
-0.09
-0.135
-0.09
0.0
0.18
0.0
-0.1
-0.155
-0.245
-0.12
-0.135
-0.08
0.02
0.14
0.135
-0.015
-0.045
-0.015
-0.2
-0.3
-0.21
-0.065
-0.045
0.16
0.065
-0.065
-0.075
-0.08
-0.255
-0.13
-0.135
-0.03
-0.065
0.03
-0.075
-0.055
-0.08
-0.18
-0.255
-0.305
-0.175
-0.075
-0.03
0.11
0.005
-0.085
-0.185
-0.285
-0.28
-0.17
0.01
0.095
0.29
0.575
0.645
0.62
0.585
0.49
0.54
0.5
0.525
0.58
0.665
0.61
0.465
0.225
0.01
-0.235
-0.285
-0.3
-0.14
-0.125
0.065
0.025
-0.07
-0.04
-0.115
-0.235
-0.165
-0.125
-0.175
-0.08
-0.015
0.055
-0.04
-0.16
-0.15
-0.21
-0.275
-0.11
-0.135
-0.125
0.1
0.06
-0.045
-0.035
-0.065
-0.195
-0.28
-0.185
-0.065
-0.075
0.045
0.025
0.06
-0.02
-0.105
-0.155
-0.24
-0.2
-0.055
-0.055
0.005
0.08
0.015
-0.08
-0.085
-0.235
-0.14
-0.13
-0.08
-0.025
0.105
0.01
0.03
-0.02
-0.135
-0.235
-0.215
-0.125
-0.125
0.01
0.15
0.025
-0.065
-0.025
-0.035
-0.035
-0.19
-0.045
-0.02
-0.02
0.115
0.09
0.105
0.07
0.01
-0.025
-0.195
-0.16
0.01
0.135
0.18
0.15
0.15
0.08
0.005
-0.015
-0.035
0.09
0.18
0.16
0.245
0.265
0.195
0.015
0.01
0.005
0.07
0.03
0.12
0.185
0.285
0.285
0.27
0.075
0.13
-0.04
-0.04
0.155
0.15
0.185
0.315
0.245
0.09
0.045
0.01
-0.065
-0.085
-0.085
-0.005
0.07
0.16
0.135
0.0
0.005
-0.095
-0.135
-0.145
-0.045
-0.045
-0.01
0.14
0.12
-0.15
-0.07
-0.205
-0.12
-0.11
-0.18
-0.125
0.02
-0.01
-0.05
-0.095
-0.075
-0.25
-0.18
-0.125
-0.17
-0.02
0.08
-0.025
-0.09
-0.04
-0.045
-0.235
-0.22
-0.185
-0.115
-0.165
0.005
0.085
-0.02
-0.095
-0.095
-0.225
-0.16
-0.165
-0.1
0.02
0.075
0.06
-0.04
-0.155
-0.16
-0.285
-0.28
-0.21
-0.02
-0.08
-0.025
0.075
0.015
-0.115
-0.085
-0.205
-0.165
-0.135
-0.105
-0.07
-0.01
-0.01
0.02
-0.03
-0.13
-0.125
-0.245
-0.175
-0.085
-0.075
-0.005
0.055
0.11
-0.17
-0.16
-0.23
-0.14
-0.025
-0.14
-0.175
0.055
-0.065
-0.05
-0.215
-0.105
-0.175
-0.25
-0.105
-0.105
-0.135
0.045
0.02
-0.055
-0.05
-0.135
-0.3
-0.23
-0.16
-0.09
-0.105
0.015
0.045
-0.02
-0.12
-0.23
-0.31
-0.215
-0.055
-0.155
-0.035
0.035
-0.01
-0.015
-0.05
-0.175
-0.36
-0.255
-0.095
-0.06
-0.055
0.045
0.075
-0.095
-0.11
-0.28
-0.265
-0.255
-0.125
-0.12
-0.02
0.075
0.02
-0.215
-0.045
-0.2
-0.275
-0.23
-0.14
-0.11
0.055
0.105
0.02
-0.14
-0.05
-0.105
-0.255
-0.335
-0.185
-0.12
-0.04
0.02
0.06
-0.035
-0.135
-0.215
-0.18
-0.155
-0.03
0.075
0.05
0.125
0.09
-0.04
-0.085
-0.26
-0.26
-0.125
-0.12
-0.105
0.09
0.145
-0.03
-0.085
-0.045
-0.315
-0.33
-0.37
-0.095
0.015
0.055
-0.045
0.01
-0.015
-0.195
-0.295
-0.125
-0.18
-0.09
-0.095
-0.04
-0.03
0.04
-0.125
-0.225
-0.295
-0.27
-0.245
-0.105
-0.065
0.125
0.13
0.26
0.35
0.41
0.485
0.53
0.52
0.475
0.52
0.76
0.72
0.69
0.49
0.405
0.1
-0.09
-0.2
-0.265
-0.18
-0.08
0.02
-0.045
-0.16
-0.11
-0.24
-0.265
-0.115
-0.18
-0.005
0.02
0.015
0.065
-0.145
-0.19
-0.185
-0.21
-0.21
-0.185
-0.03
0.085
0.005
-0.03
-0.125
-0.125
-0.135
-0.115
-0.235
-0.2
-0.095
0.02
0.045
0.07
-0.005
-0.235
-0.215
-0.2
-0.07
0.025
0.03
0.04
-0.005
-0.035
-0.04
-0.15
-0.165
-0.16
-0.14
-0.04
0.03
0.065
0.04
-0.025
-0.065
-0.165
-0.205
-0.145
-0.185
0.03
0.075
0.015
0.13
0.02
-0.015
-0.125
-0.205
-0.19
-0.155
0.025
0.16
0.165
0.15
0.045
-0.085
-0.14
-0.075
-0.075
-0.005
0.0
0.07
0.09
0.145
0.07
0.03
-0.05
-0.105
0.085
0.125
0.12
0.145
0.24
0.175
0.135
0.07
-0.035
0.055
0.195
0.08
0.21
0.3
0.285
0.285
0.205
0.215
0.07
0.015
0.065
0.095
0.135
0.265
0.295
0.185
0.105
0.09
-0.01
0.135
-0.04
0.075
0.055
0.22
0.195
0.16
0.01
-0.04
-0.155
-0.15
-0.14
-0.155
0.02
0.095
0.065
0.0
-0.12
-0.13
-0.205
-0.23
-0.215
-0.075
0.015
0.03
0.1
0.0
-0.165
-0.135
-0.235
-0.22
-0.185
-0.145
-0.085
0.04
0.14
-0.045
-0.1
-0.095
-0.3
-0.275
-0.145
-0.105
-0.08
0.075
-0.03
-0.19
-0.135
-0.225
-0.335
-0.195
-0.175
-0.08
-0.04
0.06
-0.005
-0.105
-0.115
-0.16
-0.25
-0.075
-0.105
-0.11
-0.05
0.025
-0.025
0.055
-0.07
-0.24
-0.32
-0.285
-0.055
-0.165
-0.005
-0.04
-0.05
-0.06
-0.12
-0.265
-0.28
-0.2
-0.205
-0.015
-0.045
-0.005
-0.045
-0.05
-0.115
-0.195
-0.185
-0.245
-0.12
-0.2
-0.01
0.09
-0.01
-0.09
-0.215
-0.25
-0.11
-0.31
-0.205
-0.145
0.1
0.06
-0.01
-0.07
0.005
-0.105
-0.425
-0.285
-0.225
-0.14
0.065
-0.07
-0.085
0.015
-0.15
-0.285
-0.22
-0.31
-0.095
-0.11
0.06
-0.035
-0.01
-0.13
-0.23
-0.28
-0.195
-0.225
-0.055
-0.15
-0.025
-0.07
-0.03
-0.095
-0.19
-0.325
-0.31
-0.225
-0.145
-0.08
0.005
0.0
-0.095
-0.17
-0.18
-0.28
-0.23
-0.165
-0.115
-0.09
0.025
0.06
-0.115
-0.105
-0.05
-0.32
-0.33
-0.235
-0.17
-0.095
0.02
0.02
0.065
-0.01
-0.115
-0.295
-0.26
-0.245
-0.09
-0.085
0.03
-0.02
-0.095
-0.175
-0.115
-0.145
-0.18
-0.165
-0.11
-0.025
0.23
0.065
-0.035
-0.095
-0.195
-0.215
-0.23
-0.205
-0.24
-0.02
0.0
-0.01
-0.115
-0.14
-0.255
-0.275
-0.275
-0.125
-0.11
-0.085
-0.075
-0.03
-0.045
-0.165
-0.24
-0.305
-0.31
-0.29
-0.115
-0.06
0.02
0.185
0.2
0.15
0.27
0.415
0.57
0.57
0.645
0.75
0.61
0.59
0.52
0.465
0.355
0.195
0.105
0.0
-0.045
-0.1
-0.06
-0.06
-0.065
-0.235
-0.3
-0.275
-0.265
-0.14
-0.04
-0.07
0.06
-0.055
-0.065
-0.23
-0.385
-0.255
-0.245
-0.12
-0.2
-0.06
-0.07
-0.08
-0.135
-0.1
-0.335
-0.3
-0.235
-0.165
-0.195
0.005
0.035
-0.07
-0.13
-0.06
-0.035
-0.135
-0.19
-0.28
-0.18
-0.085
0.025
-0.08
-0.11
-0.05
-0.225
-0.25
-0.24
-0.13
-0.15
-0.05
0.065
0.01
-0.17
-0.135
-0.18
-0.28
-0.165
-0.105
-0.11
-0.01
0.02
-0.075
-0.065
-0.075
-0.245
-0.2
-0.215
-0.15
-0.085
-0.015
0.005
-0.07
-0.08
-0.1
-0.265
-0.14
-0.06
-0.21
-0.125
-0.015
-0.08
0.02
-0.055
-0.005
-0.165
-0.23
-0.115
-0.025
0.015
0.115
0.11
0.09
0.01
-0.03
-0.035
-0.13
-0.225
-0.005
-0.005
0.115
0.205
0.085
-0.005
-0.02
0.005
-0.105
-0.055
0.01
0.11
0.2
0.19
0.135
0.05
-0.03
-0.245
-0.24
-0.115
-0.09
0.01
0.005
0.105
0.085
-0.13
-0.215
-0.305
-0.255
-0.13
-0.07
-0.095
0.07
0.02
-0.125
-0.23
-0.32
-0.285
-0.28
-0.17
-0.17
-0.12
-0.04
-0.06
-0.155
-0.205
-0.29
-0.43
-0.3
-0.165
-0.11
0.015
0.05
0.085
-0.045
-0.205
-0.37
-0.375
-0.255
-0.22
-0.14
-0.07
-0.015
-0.035
-0.135
-0.225
-0.335
-0.23
-0.38
-0.28
-0.175
-0.07
-0.08
-0.075
-0.135
-0.275
-0.475
-0.365
-0.08
-0.1
-0.205
-0.02
-0.045
-0.18
-0.235
-0.215
-0.265
-0.305
-0.27
-0.2
-0.065
0.035
0.04
-0.08
-0.08
-0.08
-0.315
-0.44
-0.365
-0.155
-0.09
0.015
-0.195
-0.11
-0.165
-0.2
-0.33
-0.38
-0.265
-0.22
-0.17
-0.015
0.065
-0.1
-0.28
-0.205
-0.315
-0.25
-0.215
-0.13
-0.105
0.0
-0.01
-0.095
-0.155
-0.19
-0.19
-0.29
-0.205
-0.14
-0.265
-0.165
-0.13
-0.09
0.01
-0.21
-0.435
-0.335
-0.22
-0.11
-0.11
-0.04
-0.11
-0.17
-0.26
-0.275
-0.28
-0.325
-0.19
-0.05
-0.02
-0.02
-0.18
-0.165
-0.085
-0.125
-0.39
-0.34
-0.2
-0.115
-0.105
0.055
-0.045
0.04
-0.16
-0.305
-0.29
-0.09
-0.15
-0.16
-0.135
-0.035
-0.03
-0.085
-0.18
-0.165
-0.21
-0.17
-0.255
-0.125
-0.025
-0.12
-0.07
-0.24
-0.24
-0.285
-0.31
-0.395
-0.25
-0.18
-0.06
-0.01
-0.1
-0.19
-0.145
-0.325
-0.22
-0.195
-0.18
-0.205
-0.08
-0.105
-0.16
-0.2
-0.255
-0.21
-0.155
0.065
0.25
0.435
0.635
0.72
0.72
0.61
0.555
0.405
0.465
0.44
0.41
0.365
0.205
0.01
-0.13
-0.15
-0.325
-0.495
-0.44
-0.325
-0.19
-0.25
-0.15
-0.065
-0.04
-0.145
-0.065
-0.33
-0.315
-0.29
-0.065
-0.1
-0.01
-0.045
-0.095
-0.26
-0.135
-0.32
-0.4
-0.285
-0.245
-0.27
0.005
-0.04
-0.085
-0.14
-0.215
-0.24
-0.33
-0.26
-0.17
-0.09
-0.06
-0.03
0.005
-0.19
-0.24
-0.3
-0.2
-0.26
-0.145
-0.155
0.045
0.08
-0.16
-0.235
-0.2
-0.275
-0.28
-0.255
-0.13
-0.06
0.03
-0.04
-0.065
-0.15
-0.17
-0.235
-0.24
-0.275
-0.06
-0.025
0.03
0.04
0.06
-0.025
-0.22
-0.23
-0.105
-0.17
-0.135
-0.045
0.02
0.055
0.0
-0.07
-0.04
-0.105
-0.065
-0.045
-0.06
0.08
0.235
0.075
0.005
-0.04
0.06
-0.08
-0.13
0.025
0.065
0.18
0.19
0.24
0.265
0.165
0.005
-0.005
-0.08
0.085
0.14
0.22
0.155
0.18
0.135
0.045
-0.065
-0.025
-0.065
-0.025
0.05
0.12
0.09
0.065
0.05
-0.04
-0.145
-0.09
-0.175
-0.135
-0.025
-0.025
0.0
0.01
-0.125
-0.205
-0.295
-0.11
-0.215
-0.295
-0.015
0.1
-0.05
-0.16
-0.195
-0.175
-0.195
-0.37
-0.305
-0.16
-0.16
-0.015
-0.075
-0.1
-0.12
-0.265
-0.29
-0.255
-0.245
-0.12
-0.115
-0.085
-0.055
-0.1
-0.19
-0.24
-0.325
-0.35
-0.305
-0.135
-0.14
-0.01
-0.075
-0.15
-0.19
-0.19
-0.36
-0.325
-0.3
-0.205
-0.165
-0.04
-0.065
-0.14
-0.155
-0.195
-0.21
-0.3
-0.25
-0.2
-0.105
0.095
0.025
-0.08
-0.1
-0.205
-0.38
-0.3
-0.225
-0.165
-0.075
-0.035
0.035
-0.215
-0.22
-0.2
-0.355
-0.255
-0.21
-0.25
-0.185
-0.09
-0.035
-0.09
-0.185
-0.175
-0.25
-0.31
-0.21
-0.165
-0.085
0.03
-0.06
-0.04
-0.205
-0.255
-0.315
-0.245
-0.245
-0.05
0.01
0.05
-0.06
-0.155
-0.215
-0.205
-0.195
-0.22
-0.225
-0.125
-0.02
-0.045
0.01
-0.08
-0.22
-0.195
-0.245
-0.23
-0.085
-0.075
0.035
0.035
-0.03
-0.065
-0.08
-0.25
-0.215
-0.27
-0.125
-0.17
-0.065
0.015
0.03
-0.12
-0.165
-0.28
-0.26
-0.125
-0.265
-0.2
-0.04
0.05
-0.1
-0.14
-0.16
-0.375
-0.35
-0.16
-0.13
-0.145
-0.055
0.02
-0.075
-0.21
-0.265
-0.3
-0.365
-0.285
-0.135
-0.19
-0.07
0.01
0.09
0.01
0.125
0.22
0.29
0.565
0.53
0.595
0.67
0.545
0.58
0.435
0.405
0.13
-0.055
-0.195
-0.195
-0.215
-0.115
-0.115
-0.13
-0.225
-0.29
-0.27
-0.38
-0.29
-0.095
-0.135
-0.19
-0.08
-0.1
-0.205
-0.195
-0.22
-0.265
-0.21
-0.19
-0.185
-0.06
-0.05
-0.145
-0.14
-0.185
-0.265
-0.325
-0.265
-0.205
-0.06
-0.04
-0.015
-0.035
-0.125
-0.18
-0.28
-0.315
-0.23
-0.115
-0.035
-0.025
-0.05
-0.215
-0.19
-0.125
-0.24
-0.2
-0.19
-0.12
0.0
0.07
-0.075
-0.14
-0.115
-0.23
-0.25
-0.24
-0.175
-0.11
-0.065
0.09
-0.02
0.01
-0.125
-0.205
-0.225
-0.24
-0.185
-0.055
-0.02
0.09
0.005
-0.01
-0.085
-0.185
-0.145
-0.185
-0.09
0.025
0.085
0.16
0.03
-0.01
-0.045
-0.15
-0.085
-0.095
0.035
0.065
0.17
0.225
0.195
-0.025
0.125
0.03
-0.005
0.01
0.05
0.11
0.195
0.18
0.25
0.1
-0.015
-0.055
-0.02
0.04
0.06
0.145
0.22
0.235
0.215
0.11
0.07
-0.06
-0.095
-0.14
-0.03
-0.06
0.14
0.055
0.005
0.01
-0.115
-0.245
-0.115
-0.24
-0.165
-0.045
0.005
0.125
-0.095
-0.065
-0.195
-0.315
-0.305
-0.305
-0.125
-0.15
-0.125
-0.07
-0.05
-0.145
-0.18
-0.345
-0.285
-0.22
-0.22
-0.185
-0.025
-0.07
-0.125
-0.035
-0.2
-0.31
-0.265
-0.31
-0.12
-0.09
-0.04
-0.045
-0.165
-0.19
-0.245
-0.31
-0.285
-0.145
-0.285
-0.23
0.0
-0.01
-0.14
-0.175
-0.2
-0.295
-0.4
-0.22
-0.16
-0.13
-0.005
-0.095
-0.135
-0.15
-0.16
-0.27
-0.265
-0.095
-0.08
-0.055
-0.025
-0.04
-0.075
-0.15
-0.2
-0.385
-0.26
-0.19
-0.075
-0.025
-0.015
0.1
-0.05
-0.155
-0.24
-0.235
-0.215
-0.25
-0.22
-0.005
0.065
-0.03
-0.125
-0.1
-0.22
-0.275
-0.21
-0.025
-0.135
-0.215
0.065
0.005
-0.09
-0.115
-0.26
-0.23
-0.195
-0.085
-0.12
-0.035
0.025
0.02
-0.165
-0.165
-0.14
-0.17
-0.215
-0.1
-0.015
-0.015
-0.015
0.005
-0.09
-0.07
-0.2
-0.245
-0.21
-0.09
-0.105
0.04
0.03
-0.05
-0.155
-0.135
-0.295
-0.35
-0.165
-0.19
-0.2
0.005
-0.02
-0.055
-0.11
-0.14
-0.275
-0.2
-0.295
-0.16
-0.1
-0.07
-0.05
-0.015
-0.145
-0.105
-0.255
-0.215
-0.32
-0.18
-0.09
0.23
0.37
0.395
0.485
0.545
0.39
0.28
0.365
0.5
0.5
0.58
0.52
0.29
0.23
-0.08
-0.28
-0.385
-0.34
-0.28
-0.255
-0.1
-0.095
-0.02
-0.17
-0.21
-0.22
-0.37
-0.23
-0.17
-0.125
-0.105
-0.11
-0.125
-0.095
-0.275
-0.27
-0.295
-0.155
-0.09
-0.135
-0.07
-0.015
-0.06
-0.035
-0.21
-0.245
-0.305
-0.29
-0.21
-0.07
-0.09
-0.045
-0.05
-0.17
-0.255
-0.32
-0.27
-0.175
-0.15
-0.04
-0.06
0.005
-0.03
-0.225
-0.28
-0.245
-0.23
-0.205
-0.105
-0.095
0.145
0.045
-0.07
-0.135
-0.25
-0.3
-0.275
-0.115
-0.095
-0.075
0.0
-0.015
-0.08
-0.035
-0.125
-0.175
-0.19
-0.165
-0.105
0.03
0.035
-0.025
0.03
0.02
-0.12
-0.225
-0.15
-0.045
0.035
0.13
0.125
0.235
0.11
-0.01
-0.095
-0.08
-0.05
0.0
0.065
0.135
0.23
0.16
0.05
0.11
-0.06
-0.06
-0.025
0.05
0.145
0.25
0.235
0.175
0.15
0.015
-0.055
0.02
0.06
0.06
0.025
0.12
0.165
0.165
0.03
0.03
-0.18
-0.195
-0.17
-0.085
0.115
0.11
0.055
-0.005
-0.1
-0.095
-0.245
-0.23
-0.315
-0.1
-0.075
0.0
0.0
-0.05
-0.125
-0.185
-0.28
-0.205
-0.26
-0.265
-0.145
-0.015
-0.095
-0.08
-0.15
-0.205
-0.255
-0.28
-0.21
-0.18
-0.085
-0.04
-0.015
-0.125
-0.175
-0.12
-0.325
-0.225
-0.35
-0.175
-0.14
-0.075
-0.085
-0.175
-0.26
-0.25
-0.28
-0.22
-0.205
-0.14
-0.065
-0.03
-0.02
-0.02
-0.055
-0.125
-0.335
-0.265
-0.21
-0.095
-0.075
-0.085
-0.03
-0.12
-0.24
-0.18
-0.26
-0.235
-0.21
-0.195
-0.07
-0.06
-0.01
-0.08
-0.16
-0.2
-0.3
-0.245
-0.12
-0.1
-0.11
0.01
0.04
-0.12
-0.175
-0.255
-0.175
-0.175
-0.05
-0.02
-0.145
-0.045
-0.035
-0.17
-0.18
-0.2
-0.36
-0.25
-0.16
-0.135
0.02
0.1
0.0
-0.145
-0.155
-0.29
-0.23
-0.245
-0.125
-0.12
-0.095
-0.005
0.03
0.02
-0.1
-0.295
-0.255
-0.205
-0.07
-0.03
0.06
0.13
0.025
-0.22
-0.23
-0.325
-0.305
-0.24
-0.135
-0.16
-0.075
-0.03
-0.11
-0.165
-0.175
-0.295
-0.26
-0.21
-0.195
-0.115
-0.025
-0.07
-0.13
-0.185
-0.205
-0.27
-0.245
-0.19
-0.125
-0.17
-0.095
-0.03
-0.02
0.055
0.005
0.015
0.155
0.455
0.505
0.555
0.605
0.59
0.435
0.45
0.51
0.27
0.135
0.025
0.08
-0.18
-0.11
-0.225
-0.22
-0.235
-0.27
-0.275
-0.29
-0.25
-0.155
-0.16
-0.025
-0.035
-0.155
-0.205
-0.15
-0.25
-0.18
-0.26
-0.175
-0.08
-0.065
-0.16
-0.115
-0.185
-0.24
-0.22
-0.18
-0.175
-0.1
-0.15
-0.06
-0.085
-0.03
-0.1
-0.31
-0.375
-0.29
-0.19
-0.085
-0.075
-0.1
0.05
-0.055
-0.165
-0.255
-0.255
-0.245
-0.16
-0.085
-0.155
-0.045
-0.07
-0.105
-0.105
-0.22
-0.21
-0.18
-0.16
-0.015
0.1
-0.015
-0.07
-0.085
-0.165
-0.225
-0.265
-0.185
-0.095
-0.1
0.015
-0.01
0.055
0.03
-0.135
-0.175
-0.085
-0.285
-0.165
0.05
0.07
0.14
0.12
-0.03
-0.1
-0.07
-0.16
-0.13
-0.02
0.0
0.105
0.24
0.19
0.155
0.115
-0.015
0.03
0.015
0.065
0.03
0.215
0.255
0.12
0.075
0.165
-0.055
-0.075
0.09
0.01
0.025
0.205
0.185
0.12
0.22
0.105
-0.045
-0.205
-0.05
0.04
-0.01
0.08
0.135
0.1
0.03
-0.04
-0.26
-0.255
-0.195
-0.095
-0.055
0.19
0.085
-0.105
-0.245
-0.21
-0.295
-0.225
-0.255
-0.15
-0.13
-0.08
-0.06
-0.07
-0.155
-0.215
-0.3
-0.3
-0.26
-0.12
-0.125
0.03
-0.005
-0.085
-0.225
-0.255
-0.36
-0.28
-0.1
-0.045
-0.04
0.085
-0.005
0.11
-0.13
-0.385
-0.37
-0.335
-0.235
-0.215
-0.125
-0.12
-0.025
-0.09
-0.195
-0.2
-0.27
-0.29
-0.22
-0.165
-0.14
-0.06
-0.055
-0.13
-0.19
-0.19
-0.235
-0.25
-0.1
-0.045
-0.19
-0.025
-0.055
-0.06
-0.235
-0.285
-0.29
-0.36
-0.16
-0.14
-0.105
-0.065
0.03
-0.065
-0.19
-0.345
-0.275
-0.36
-0.255
-0.115
-0.105
-0.14
-0.13
-0.18
-0.2
-0.295
-0.295
-0.225
-0.275
-0.25
-0.145
-0.12
-0.135
-0.24
-0.255
-0.295
-0.31
-0.28
-0.255
-0.195
-0.245
-0.14
-0.065
-0.28
-0.32
-0.425
-0.38
-0.345
-0.34
-0.275
-0.16
-0.155
-0.14
-0.21
-0.21
-0.365
-0.34
-0.28
-0.215
-0.22
-0.08
-0.075
-0.185
-0.29
-0.305
-0.42
-0.41
-0.395
-0.26
-0.19
-0.21
-0.22
-0.35
-0.325
-0.335
-0.565
-0.46
-0.38
-0.32
-0.18
-0.11
-0.205
-0.145
-0.165
-0.44
-0.66
-0.675
-0.54
-0.4
-0.45
-0.325
-0.275
-0.27
-0.27
-0.15
-0.13
-0.015
0.2
0.28
0.33
0.385
0.285
0.235
0.24
0.24
0.005
-0.105
-0.215
-0.265
-0.345
-0.325
-0.415
-0.48
-0.5
-0.525
-0.575
-0.56
-0.605
-0.58
-0.43
-0.325
-0.34
-0.435
-0.62
-0.665
-0.655
-0.595
-0.695
-0.54
-0.46
-0.535
-0.62
-0.585
-0.62
-0.645
-0.665
-0.66
-0.68
-0.605
-0.59
-0.485
-0.48
-0.555
-0.695
-0.74
-0.795
-0.815
-0.665
-0.53
-0.44
-0.51
-0.525
-0.615
-0.645
-0.76
-0.705
-0.86
-0.61
-0.66
-0.605
-0.47
-0.5
-0.59
-0.575
-0.705
-0.63
-0.66
-0.605
-0.57
-0.51
-0.415
-0.505
-0.68
-0.595
-0.77
-0.785
-0.745
-0.735
-0.625
-0.57
-0.505
-0.575
-0.63
-0.82
-0.97
-0.965
-0.95
-0.905
-0.87
-0.755
-0.565
-0.505
-0.54
-0.58
-0.715
-0.64
-0.635
-0.615
-0.68
-0.585
-0.48
-0.585
-0.73
-0.78
-0.87
-0.835
-0.84
-0.76
-0.64
-0.525
-0.585
-0.66
-0.75
-0.775
-0.87
-0.83
-0.85
-0.825
-0.71
-0.64
-0.62
-0.61
-0.705
-0.955
-1.03
-0.87
-0.805
-0.675
-0.785
-0.66
-0.8
-0.905
-0.99
-1.055
-1.12
-1.085
-0.925
-0.89
-0.92
-0.88
-0.865
-0.875
-1.01
-1.115
-1.275
-1.22
-0.925
-0.84
-0.865
-0.85
-0.86
-0.895
-0.99
-1.0
-1.1
-1.135
-1.1
-1.01
-0.925
-0.825
-0.86
-0.94
-1.005
-1.07
-1.105
-1.09
-1.01
-0.935
-0.92
-0.85
-0.82
-0.835
-0.865
-0.925
-0.96
-1.035
-1.04
-0.97
-0.91
-0.775
-0.8
-0.855
-0.895
-0.96
-1.0
-1.035
-1.02
-0.815
-0.74
-0.675
-0.795
-0.915
-1.005
-1.07
-1.085
-1.065
-1.04
-0.945
-0.82
-0.805
-0.815
-0.86
-0.865
-0.985
-1.015
-1.01
-0.965
-0.9
-0.815
-0.81
-0.85
-0.92
-0.96
-1.0
-0.995
-0.965
-0.96
-0.845
-0.765
-0.71
-0.775
-0.885
-0.9
-1.03
-1.01
-1.02
-0.86
-0.85
-0.685
-0.71
-0.77
-0.825
-0.92
-0.965
-0.93
-0.925
-0.91
-0.865
-0.715
-0.655
-0.78
-0.78
-0.705
-1.045
-1.15
-1.1
-1.05
-0.815
-0.555
-0.495
-0.59
-0.73
-0.795
-0.985
-1.025
-0.96
-0.885
-0.82
-0.68
-0.69
-0.67
-0.795
-0.79
-0.825
-0.885
-0.84
-0.795
-0.715
-0.65
-0.655
-0.7
-0.765
-0.795
-0.875
-0.945
-0.9
-0.83
-0.79
-0.68
-0.66
-0.78
-0.865
-0.865
-0.925
-0.77
-0.55
-0.455
-0.3
-0.125
-0.11
-0.18
-0.29
-0.44
-0.49
-0.395
-0.345
-0.345
-0.305
-0.35
-0.53
-0.625
-0.885
-1.0
-1.04
-1.025
-0.985
-0.83
-0.775
-0.7
-0.69
-0.795
-0.83
-0.87
-0.99
-0.97
-0.935
-0.875
-0.865
-0.85
-0.85
-0.88
-0.935
-1.005
-1.045
-1.05
-0.92
-0.895
-0.85
-0.77
-0.795
-0.91
-0.97
-0.99
-0.99
-0.96
-0.89
-0.76
-0.675
-0.8
-0.995
-0.95
-0.935
-1.07
-1.125
-1.045
-0.715
-0.72
-0.865
-0.72
-0.79
-0.945
-0.9
-0.95
-1.015
-0.99
-0.835
-0.76
-0.71
-0.695
-0.68
-0.82
-0.905
-1.0
-0.985
-0.925
-0.905
-0.88
-0.715
-0.715
-0.685
-0.815
-0.86
-0.84
-0.875
-0.855
-0.855
-0.81
-0.645
-0.75
-0.825
-0.865
-0.82
-0.805
-0.975
-0.915
-0.795
-0.77
-0.74
-0.69
-0.69
-0.81
-0.85
-0.945
-0.89
-0.84
-0.84
-0.76
-0.64
-0.64
-0.7
-0.68
-0.74
-0.825
-0.725
-0.63
-0.805
-0.765
-0.66
-0.665
-0.79
-0.81
-0.83
-0.94
-0.925
-0.905
-0.855
-0.78
-0.675
-0.755
-0.68
-0.94
-0.995
-1.115
-1.005
-1.02
-0.945
-0.915
-0.82
-0.865
-0.865
-0.94
-0.97
-1.085
-1.11
-1.055
-0.995
-1.015
-0.795
-0.745
-0.8
-0.87
-1.01
-1.05
-1.06
-1.025
-0.955
-0.94
-0.715
-0.745
-0.925
-1.085
-1.06
-1.145
-1.15
-1.17
-1.065
-0.99
-0.9
-0.915
-0.9
-0.94
-0.98
-1.14
-1.09
-1.015
-0.945
-0.985
-0.84
-0.85
-0.975
-1.035
-0.955
-1.085
-1.03
-1.145
-1.015
-0.87
-0.85
-0.9
-0.815
-0.9
-1.065
-1.105
-1.095
-1.035
-0.845
-0.82
-0.81
-0.925
-1.005
-0.96
-1.065
-1.12
-1.09
-1.015
-1.01
-0.895
-0.84
-0.815
-0.92
-0.92
-1.05
-1.11
-1.115
-1.085
-1.075
-0.96
-1.02
-1.0
-0.975
-1.06
-1.34
-1.335
-1.21
-1.165
-1.01
-1.04
-0.885
-0.91
-0.985
-1.07
-1.18
-1.12
-1.075
-1.045
-1.07
-0.89
-0.91
-0.885
-0.95
-1.0
-1.13
-1.11
-0.99
-0.845
-1.005
-0.79
-0.83
-0.855
-0.975
-1.01
-1.135
-1.075
-1.02
-0.95
-0.965
-0.875
-0.87
-0.925
-0.975
-1.045
-1.17
-1.18
-1.065
-1.035
-1.01
-0.89
-0.925
-1.005
-1.035
-1.07
-1.12
-1.14
-1.06
-0.965
-0.865
-0.845
-0.825
-0.94
-1.08
-1.05
-1.135
-1.155
-1.195
-1.095
-0.93
-0.865
-0.955
-0.99
-1.07
-1.15
-1.21
-1.055
-0.94
-0.8
-0.565
-0.385
-0.37
-0.355
-0.335
-0.48
-0.65
-0.5
-0.48
-0.425
-0.435
-0.47
-0.53
-0.83
-1.02
-1.12
-1.235
-1.2
-0.965
-0.915
-0.875
-0.875
-0.895
-0.925
-0.955
-1.085
-1.095
-1.07
-1.045
-0.98
-0.97
-0.82
-0.91
-0.945
-1.015
-1.04
-1.065
-1.12
-0.98
-0.945
-0.875
-0.86
-0.925
-0.86
-1.075
-1.01
-1.125
-1.105
-1.05
-0.975
-0.85
-0.86
-0.9
-0.955
-0.995
-1.025
-1.03
-1.04
-0.995
-0.89
-0.765
-0.825
-0.83
-0.915
-0.94
-1.035
-1.015
-1.1
-0.94
-0.775
-0.84
-0.785
-0.8
-0.815
-0.915
-1.08
-0.955
-1.095
-0.95
-0.855
-0.86
-0.805
-0.8
-0.89
-0.965
-1.04
-1.015
-0.945
-0.9
-0.8
-0.74
-0.755
-0.8
-0.87
-0.905
-0.95
-0.89
-0.835
-0.775
-0.76
-0.76
-0.745
-0.765
-0.865
-0.73
-0.86
-0.89
-0.8
-0.705
-0.8
-0.655
-0.68
-0.67
-0.77
-0.8
-0.815
-0.865
-0.845
-0.7
-0.725
-0.6
-0.63
-0.665
-0.735
-0.66
-0.89
-0.915
-0.82
-0.795
-0.77
-0.635
-0.635
-0.715
-0.8
-0.825
-0.965
-0.96
-0.885
-0.825
-0.795
-0.715
-0.75
-0.825
-0.825
-0.895
-1.03
-0.955
-0.825
-0.895
-0.91
-0.775
-0.745
-0.73
-0.945
-0.855
-0.97
-1.19
-1.05
-0.785
-0.715
-0.775
-0.81
-0.82
-0.965
-0.92
-1.015
-1.05
-0.87
-0.885
-0.81
-0.8
-0.8
-0.875
-0.89
-0.965
-0.95
-1.035
-0.935
-0.715
-0.815
-0.8
-0.755
-0.835
-0.895
-0.965
-0.98
-0.98
-0.925
-0.815
-0.785
-0.68
-0.75
-0.855
-0.88
-0.975
-0.935
-1.0
-0.89
-0.715
-0.555
-0.645
-0.835
-0.81
-0.94
-1.01
-0.99
-0.935
-0.925
-0.975
-0.8
-0.69
-0.725
-0.765
-0.91
-1.005
-0.895
-0.915
-0.885
-0.82
-0.715
-0.73
-0.725
-0.78
-0.83
-0.985
-0.99
-0.925
-0.84
-0.835
-0.71
-0.675
-0.645
-0.81
-0.735
-0.985
-0.935
-0.945
-0.86
-0.755
-0.7
-0.69
-0.69
-0.86
-0.89
-1.015
-0.965
-0.94
-0.885
-0.71
-0.635
-0.675
-0.75
-0.86
-0.755
-0.96
-0.925
-0.81
-0.76
-0.785
-0.61
-0.655
-0.715
-0.77
-0.845
-0.865
-0.845
-0.845
-0.79
-0.75
-0.64
-0.6
-0.65
-0.75
-0.77
-0.9
-0.87
-0.8
-0.69
-0.7
-0.455
-0.49
-0.725
-0.78
-0.805
-0.88
-0.885
-0.8
-0.705
-0.72
-0.67
-0.69
-0.695
-0.795
-0.89
-0.895
-0.795
-0.91
-0.825
-0.57
-0.575
-0.635
-0.72
-0.775
-0.92
-0.89
-0.915
-0.895
-0.755
-0.76
-0.635
-0.655
-0.715
-0.77
-0.795
-0.765
-0.625
-0.435
-0.21
0.01
0.055
0.07
-0.05
-0.08
-0.175
-0.23
-0.32
-0.235
-0.215
-0.205
-0.255
-0.535
-0.675
-0.81
-0.93
-0.87
-0.855
-0.855
-0.725
-0.6
-0.525
-0.625
-0.615
-0.74
-0.86
-0.79
-0.88
-0.805
-0.615
-0.585
-0.595
-0.6
-0.7
-0.76
-0.87
-0.795
-0.755
-0.71
-0.69
-0.61
-0.595
-0.6
-0.65
-0.825
-0.83
-0.825
-0.685
-0.72
-0.73
-0.555
-0.51
-0.625
-0.71
-0.755
-0.735
-0.775
-0.71
-0.685
-0.665
-0.485
-0.525
-0.625
-0.62
-0.575
-0.8
-0.79
-0.795
-0.67
-0.605
-0.6
-0.605
-0.605
-0.705
-0.71
-0.805
-0.725
-0.63
-0.655
-0.615
-0.51
-0.515
-0.54
-0.64
-0.67
-0.78
-0.825
-0.715
-0.63
-0.545
-0.41
-0.555
-0.53
-0.545
-0.505
-0.645
-0.675
-0.645
-0.58
-0.55
-0.425
-0.345
-0.395
-0.52
-0.54
-0.63
-0.635
-0.585
-0.37
-0.395
-0.415
-0.39
-0.44
-0.47
-0.455
-0.665
-0.595
-0.52
-0.485
-0.455
-0.31
-0.32
-0.395
-0.53
-0.655
-0.67
-0.615
-0.545
-0.505
-0.44
-0.3
-0.455
-0.57
-0.63
-0.595
-0.6
-0.695
-0.645
-0.6
-0.545
-0.465
-0.495
-0.565
-0.665
-0.645
-0.68
-0.78
-0.755
-0.61
-0.545
-0.5
-0.555
-0.645
-0.69
-0.73
-0.675
-0.765
-0.715
-0.62
-0.595
-0.545
-0.555
-0.565
-0.615
-0.735
-0.745
-0.725
-0.615
-0.65
-0.525
-0.475
-0.565
-0.57
-0.63
-0.685
-0.705
-0.715
-0.735
-0.64
-0.46
-0.48
-0.655
-0.625
-0.62
-0.79
-0.745
-0.735
-0.655
-0.6
-0.49
-0.43
-0.54
-0.61
-0.575
-0.695
-0.685
-0.7
-0.59
-0.585
-0.54
-0.48
-0.47
-0.61
-0.58
-0.755
-0.73
-0.755
-0.635
-0.525
-0.43
-0.405
-0.555
-0.6
-0.635
-0.79
-0.72
-0.71
-0.595
-0.555
-0.21
-0.46
-0.51
-0.675
-0.59
-0.705
-0.74
-0.735
-0.61
-0.61
-0.465
-0.475
-0.54
-0.63
-0.5
-0.72
-0.71
-0.565
-0.535
-0.595
-0.49
-0.5
-0.48
-0.58
-0.6
-0.72
-0.7
-0.565
-0.51
-0.505
-0.38
-0.415
-0.485
-0.7
-0.605
-0.715
-0.665
-0.72
-0.61
-0.51
-0.47
-0.465
-0.53
-0.53
-0.615
-0.665
-0.71
-0.71
-0.525
-0.44
-0.425
-0.46
-0.49
-0.56
-0.74
-0.7
-0.7
-0.615
-0.59
-0.49
-0.415
-0.465
-0.495
-0.51
-0.585
-0.62
-0.66
-0.56
-0.465
-0.4
-0.43
-0.45
-0.43
-0.565
-0.58
-0.65
-0.605
-0.585
-0.525
-0.495
-0.45
-0.49
-0.535
-0.62
-0.605
-0.63
-0.695
-0.52
-0.485
-0.415
-0.43
-0.44
-0.52
-0.475
-0.575
-0.595
-0.57
-0.525
-0.465
-0.34
-0.295
-0.4
-0.425
-0.415
-0.47
-0.545
-0.525
-0.575
-0.515
-0.425
-0.4
-0.48
-0.52
-0.575
-0.685
-0.68
-0.59
-0.54
-0.475
-0.44
-0.405
-0.445
-0.57
-0.585
-0.61
-0.565
-0.6
-0.525
-0.475
-0.31
-0.425
-0.555
-0.56
-0.57
-0.61
-0.47
-0.37
-0.08
0.11
0.215
0.405
0.215
0.17
0.12
-0.055
0.055
0.035
0.11
0.015
0.08
-0.125
-0.425
-0.525
-0.58
-0.66
-0.69
-0.545
-0.475
-0.505
-0.365
-0.43
-0.435
-0.495
-0.5
-0.63
-0.62
-0.555
-0.42
-0.5
-0.385
-0.395
-0.42
-0.48
-0.58
-0.68
-0.665
-0.59
-0.43
-0.4
-0.295
-0.3
-0.28
-0.52
-0.565
-0.6
-0.625
-0.525
-0.47
-0.36
-0.305
-0.38
-0.385
-0.485
-0.54
-0.57
-0.59
-0.48
-0.39
-0.415
-0.365
-0.39
-0.355
-0.375
-0.395
-0.565
-0.575
-0.505
-0.37
-0.335
-0.385
-0.29
-0.42
-0.53
-0.575
-0.495
-0.46
-0.445
-0.4
-0.375
-0.265
-0.255
-0.325
-0.35
-0.495
-0.56
-0.47
-0.35
-0.385
-0.255
-0.25
-0.295
-0.37
-0.4
-0.475
-0.385
-0.375
-0.32
-0.28
-0.205
-0.145
-0.155
-0.245
-0.315
-0.385
-0.395
-0.29
-0.28
-0.175
-0.095
-0.005
-0.055
-0.26
-0.27
-0.265
-0.355
-0.335
-0.225
-0.145
-0.12
-0.165
-0.15
-0.19
-0.245
-0.34
-0.34
-0.37
-0.24
-0.245
-0.075
-0.16
-0.32
-0.265
-0.325
-0.425
-0.505
-0.39
-0.275
-0.315
-0.275
-0.155
-0.275
-0.405
-0.41
-0.44
-0.465
-0.41
-0.38
-0.355
-0.225
-0.265
-0.285
-0.345
-0.405
-0.53
-0.59
-0.535
-0.475
-0.31
-0.295
-0.2
-0.255
-0.39
-0.49
-0.575
-0.53
-0.535
-0.445
-0.355
-0.25
-0.305
-0.38
-0.49
-0.465
-0.47
-0.45
-0.49
-0.37
-0.355
-0.235
-0.31
-0.35
-0.4
-0.475
-0.49
-0.5
-0.485
-0.35
-0.335
-0.275
-0.255
-0.325
-0.345
-0.36
-0.55
-0.525
-0.38
-0.355
-0.32
-0.285
-0.225
-0.29
-0.295
-0.52
-0.415
-0.495
-0.505
-0.42
-0.29
-0.275
-0.29
-0.37
-0.395
-0.45
-0.495
-0.495
-0.415
-0.275
-0.365
-0.125
-0.275
-0.285
-0.425
-0.515
-0.475
-0.46
-0.36
-0.3
-0.23
-0.215
-0.285
-0.405
-0.315
-0.435
-0.42
-0.495
-0.375
-0.15
-0.06
-0.36
-0.34
-0.315
-0.455
-0.505
-0.52
-0.435
-0.435
-0.375
-0.18
-0.26
-0.19
-0.31
-0.4
-0.48
-0.455
-0.38
-0.35
-0.35
-0.225
-0.155
-0.29
-0.36
-0.375
-0.405
-0.43
-0.44
-0.315
-0.355
-0.355
-0.25
-0.285
-0.37
-0.405
-0.54
-0.475
-0.4
-0.31
-0.31
-0.055
-0.19
-0.39
-0.315
-0.285
-0.505
-0.375
-0.415
-0.335
-0.25
-0.22
-0.265
-0.27
-0.335
-0.37
-0.48
-0.42
-0.33
-0.37
-0.43
-0.16
-0.16
-0.26
-0.38
-0.37
-0.46
-0.535
-0.475
-0.25
-0.32
-0.2
-0.19
-0.255
-0.335
-0.255
-0.425
-0.485
-0.38
-0.28
-0.22
-0.12
-0.2
-0.32
-0.4
-0.37
-0.47
-0.42
-0.355
-0.285
-0.18
-0.18
-0.24
-0.25
-0.3
-0.325
-0.41
-0.38
-0.31
-0.23
-0.22
-0.12
-0.035
-0.2
-0.305
-0.295
-0.42
-0.42
-0.285
-0.28
-0.235
-0.19
-0.22
-0.265
-0.28
-0.38
-0.44
-0.405
-0.345
-0.29
-0.275
-0.17
-0.145
-0.31
-0.4
-0.44
-0.41
-0.37
-0.35
-0.295
-0.14
-0.18
-0.19
-0.175
-0.405
-0.45
-0.365
-0.37
-0.14
0.13
0.305
0.415
0.425
0.47
0.37
0.24
0.19
0.235
0.275
0.355
0.385
0.255
0.04
-0.2
-0.39
-0.475
-0.545
-0.39
-0.34
-0.315
-0.14
-0.13
-0.24
-0.28
-0.42
-0.39
-0.335
-0.43
-0.33
-0.23
-0.055
-0.18
-0.24
-0.29
-0.225
-0.355
-0.43
-0.415
-0.28
-0.2
-0.255
-0.15
-0.2
-0.3
-0.3
-0.36
-0.365
-0.295
-0.2
-0.265
-0.22
-0.185
-0.23
-0.28
-0.31
-0.41
-0.395
-0.36
-0.21
-0.25
-0.145
-0.13
-0.165
-0.175
-0.23
-0.35
-0.345
-0.295
-0.375
-0.32
-0.12
-0.035
-0.185
-0.225
-0.26
-0.325
-0.365
-0.24
-0.165
-0.11
-0.09
-0.175
-0.09
-0.235
-0.325
-0.37
-0.3
-0.27
-0.23
-0.12
-0.04
0.02
-0.09
-0.185
-0.235
-0.3
-0.265
-0.17
-0.075
-0.065
-0.08
0.0
0.115
-0.07
-0.1
-0.185
-0.14
-0.06
0.09
0.005
0.03
-0.015
-0.06
0.05
-0.11
-0.275
-0.18
-0.01
0.015
0.07
0.125
0.095
-0.065
-0.025
-0.075
-0.16
-0.16
-0.11
-0.035
0.02
0.145
0.005
-0.03
-0.095
-0.25
-0.275
-0.31
-0.185
-0.21
-0.02
0.05
-0.025
-0.075
-0.18
-0.255
-0.34
-0.375
-0.235
-0.155
-0.08
-0.055
-0.18
-0.165
-0.22
-0.305
-0.31
-0.38
-0.23
-0.245
-0.145
-0.16
-0.18
-0.165
-0.31
-0.4
-0.345
-0.295
-0.225
-0.2
-0.09
-0.18
-0.145
-0.145
-0.255
-0.405
-0.295
-0.345
-0.255
-0.265
-0.13
-0.05
-0.12
-0.235
-0.295
-0.345
-0.375
-0.33
-0.19
-0.25
-0.02
-0.1
-0.3
-0.23
-0.215
-0.325
-0.405
-0.395
-0.24
-0.145
-0.065
-0.095
-0.145
-0.215
-0.23
-0.375
-0.27
-0.215
-0.175
-0.12
-0.095
-0.105
-0.04
-0.22
-0.325
-0.37
-0.365
-0.27
-0.17
-0.205
-0.045
-0.07
-0.22
-0.195
-0.22
-0.275
-0.28
-0.36
-0.195
-0.15
-0.035
-0.115
-0.26
-0.245
-0.27
-0.4
-0.33
-0.26
-0.15
-0.11
-0.1
0.02
-0.185
-0.28
-0.305
-0.34
-0.35
-0.26
-0.195
-0.16
-0.065
-0.11
-0.195
-0.22
-0.255
-0.295
-0.335
-0.3
-0.22
-0.1
-0.07
-0.14
-0.17
-0.23
-0.32
-0.3
-0.32
-0.34
-0.16
-0.15
-0.13
-0.13
-0.19
-0.24
-0.255
-0.345
-0.32
-0.175
-0.22
-0.13
0.005
-0.06
-0.17
-0.27
-0.375
-0.27
-0.355
-0.225
-0.175
-0.055
-0.055
-0.07
-0.25
-0.2
-0.335
-0.255
-0.29
-0.22
-0.23
-0.085
-0.145
-0.065
-0.21
-0.23
-0.335
-0.29
-0.375
-0.295
-0.19
-0.085
-0.1
-0.1
-0.12
-0.215
-0.26
-0.29
-0.29
-0.155
-0.235
-0.1
-0.05
0.03
-0.13
-0.145
-0.225
-0.285
-0.305
-0.105
-0.14
-0.05
-0.04
-0.155
-0.13
-0.215
-0.345
-0.285
-0.255
-0.165
-0.115
0.0
-0.015
-0.055
-0.145
-0.2
-0.19
-0.3
-0.155
-0.14
-0.105
-0.02
-0.115
-0.16
-0.155
-0.255
-0.38
-0.365
-0.26
-0.19
-0.12
-0.085
-0.09
-0.205
-0.175
-0.305
-0.275
-0.175
-0.305
-0.24
-0.075
0.02
-0.135
-0.135
-0.305
-0.265
-0.285
-0.295
-0.18
-0.105
0.125
0.275
0.45
0.485
0.48
0.39
0.275
0.235
0.375
0.35
0.385
0.435
0.285
0.085
-0.14
-0.39
-0.48
-0.36
-0.345
-0.245
-0.135
-0.07
0.01
-0.135
-0.21
-0.19
-0.29
-0.425
-0.355
-0.14
-0.085
-0.045
-0.06
-0.18
-0.22
-0.28
-0.33
-0.31
-0.255
-0.155
-0.07
-0.03
0.015
-0.185
-0.17
-0.25
-0.26
-0.275
-0.175
-0.145
-0.04
0.065
-0.08
-0.16
-0.09
-0.275
-0.31
-0.225
-0.08
-0.115
-0.005
0.025
0.12
-0.08
-0.255
-0.3
-0.23
-0.28
-0.125
-0.06
-0.075
0.025
0.035
-0.135
-0.21
-0.335
-0.23
-0.22
-0.035
-0.095
-0.05
0.01
0.065
-0.07
-0.095
-0.245
-0.175
-0.195
-0.195
0.04
0.06
0.02
0.055
-0.05
-0.055
-0.155
-0.06
-0.085
-0.08
0.02
0.13
0.105
0.1
0.0
0.0
-0.095
-0.08
-0.05
-0.035
0.085
0.18
0.145
0.105
0.05
0.005
-0.01
0.035
0.0
0.085
0.155
0.16
0.26
0.22
0.08
0.095
-0.055
-0.045
0.01
0.06
0.17
0.1
0.245
0.125
0.18
-0.01
-0.17
-0.24
-0.16
-0.095
-0.07
0.075
0.09
-0.025
-0.085
-0.215
-0.27
-0.25
-0.14
-0.145
-0.065
0.01
-0.025
-0.085
-0.165
-0.25
-0.35
-0.3
-0.17
-0.085
-0.02
-0.04
-0.075
-0.105
-0.18
-0.325
-0.35
-0.32
-0.225
-0.165
-0.04
-0.105
-0.13
-0.17
-0.205
-0.235
-0.295
-0.275
-0.19
-0.165
-0.12
-0.065
-0.05
-0.12
-0.2
-0.29
-0.33
-0.25
-0.205
-0.14
0.005
-0.085
-0.09
-0.14
-0.18
-0.32
-0.265
-0.255
-0.155
-0.19
-0.005
-0.07
-0.07
-0.135
-0.225
-0.285
-0.205
-0.215
-0.18
-0.12
-0.02
-0.025
-0.025
-0.075
-0.185
-0.275
-0.28
-0.23
-0.135
-0.075
-0.05
0.0
0.05
-0.055
-0.145
-0.305
-0.28
-0.31
-0.21
-0.09
-0.01
0.015
-0.085
-0.13
-0.17
-0.26
-0.21
-0.215
-0.185
-0.075
-0.03
-0.02
-0.07
-0.125
-0.11
-0.265
-0.295
-0.295
-0.185
-0.11
-0.02
0.005
-0.08
-0.19
-0.155
-0.265
-0.3
-0.275
-0.255
-0.13
-0.005
-0.065
-0.11
-0.175
-0.12
-0.26
-0.295
-0.19
-0.17
-0.105
-0.01
-0.09
-0.13
-0.165
-0.13
-0.26
-0.315
-0.25
-0.16
-0.115
-0.01
-0.045
-0.12
-0.165
-0.075
-0.27
-0.245
-0.155
-0.155
-0.08
-0.025
-0.09
-0.075
-0.05
-0.32
-0.335
-0.275
-0.12
-0.025
-0.15
-0.205
-0.07
0.065
-0.12
-0.235
-0.26
-0.235
-0.14
-0.11
-0.08
-0.075
-0.03
-0.05
-0.185
-0.265
-0.23
-0.16
-0.075
-0.065
-0.07
0.02
0.065
-0.06
-0.05
-0.225
-0.315
-0.295
-0.105
-0.14
0.035
0.01
-0.115
-0.12
-0.14
-0.23
-0.24
-0.285
-0.305
-0.17
-0.095
-0.015
-0.105
-0.2
-0.17
-0.295
-0.27
-0.255
-0.245
-0.195
-0.01
0.125
0.07
0.0
0.1
0.125
0.34
0.385
0.56
0.595
0.585
0.51
0.63
0.655
0.345
0.265
0.14
0.11
-0.085
-0.185
-0.145
-0.11
-0.08
-0.14
-0.09
-0.275
-0.37
-0.125
-0.21
-0.17
-0.04
-0.09
-0.11
-0.09
-0.08
-0.25
-0.27
-0.23
-0.135
-0.105
0.02
-0.015
-0.035
-0.145
-0.08
-0.29
-0.25
-0.235
-0.155
-0.03
0.0
0.01
-0.055
-0.135
-0.195
-0.215
-0.215
-0.175
-0.115
-0.1
0.045
0.04
-0.025
-0.1
-0.15
-0.205
-0.23
-0.175
-0.13
-0.055
0.0
0.04
0.045
-0.04
-0.13
-0.195
-0.18
-0.19
-0.115
-0.085
0.02
0.09
-0.04
-0.03
-0.16
-0.185
-0.185
-0.125
-0.02
0.115
0.055
0.07
0.025
-0.06
-0.065
-0.235
-0.13
-0.01
-0.01
0.015
0.095
0.07
0.07
-0.045
-0.06
-0.12
-0.11
-0.045
0.04
0.27
0.19
0.14
0.205
0.09
-0.04
-0.005
0.065
0.16
0.17
0.21
0.27
0.23
0.19
0.115
0.05
-0.005
0.005
0.075
0.255
0.22
0.27
0.175
0.15
0.13
-0.055
-0.075
0.01
0.085
0.035
0.135
0.28
0.2
0.06
-0.09
-0.185
-0.1
-0.075
-0.19
0.005
0.135
0.06
0.035
-0.085
-0.12
-0.24
-0.23
-0.18
-0.105
-0.035
0.11
0.085
-0.01
-0.175
-0.23
-0.255
-0.25
-0.19
-0.08
-0.035
0.01
-0.03
-0.025
-0.155
-0.15
-0.27
-0.28
-0.19
-0.025
0.025
0.03
0.03
-0.005
-0.005
-0.155
-0.345
-0.235
-0.22
-0.175
-0.085
-0.04
0.085
-0.025
-0.16
-0.16
-0.305
-0.22
-0.125
-0.085
-0.085
0.035
0.055
-0.08
-0.075
-0.12
-0.235
-0.245
-0.165
-0.07
-0.065
0.035
0.045
-0.07
-0.11
-0.17
-0.21
-0.215
-0.16
-0.08
0.005
0.06
0.035
-0.045
-0.1
-0.14
-0.225
-0.23
-0.08
0.02
-0.025
0.055
0.01
0.045
-0.075
-0.24
-0.185
-0.115
-0.215
-0.11
0.04
0.09
-0.03
-0.145
-0.06
-0.15
-0.245
-0.17
-0.08
-0.07
-0.04
0.015
0.025
-0.02
-0.095
-0.175
-0.25
-0.16
-0.16
-0.065
0.015
0.08
0.135
-0.07
-0.11
-0.285
-0.215
-0.21
-0.04
-0.09
0.0
-0.025
-0.02
-0.08
-0.02
-0.13
-0.305
-0.18
-0.065
-0.095
-0.02
0.04
0.04
-0.11
-0.12
-0.245
-0.145
-0.15
-0.19
-0.07
0.115
0.01
0.0
0.015
-0.125
-0.175
-0.19
-0.13
-0.08
-0.02
0.025
0.015
0.0
-0.065
-0.145
-0.23
-0.205
-0.155
-0.1
0.0
0.0
-0.02
0.08
-0.1
-0.15
-0.25
-0.285
-0.055
-0.01
-0.035
0.04
0.095
0.005
-0.1
-0.03
-0.145
-0.13
-0.1
-0.055
0.025
0.155
0.1
0.005
-0.065
-0.035
-0.13
-0.14
-0.155
-0.05
-0.075
0.055
0.07
-0.055
-0.11
-0.02
-0.155
-0.305
-0.17
0.045
-0.14
0.07
0.065
-0.055
-0.135
-0.16
-0.275
-0.21
-0.165
-0.08
-0.09
-0.05
0.055
-0.035
-0.035
-0.045
0.065
0.165
0.44
0.715
0.735
0.765
0.645
0.61
0.505
0.475
0.43
0.39
0.405
0.355
0.115
0.155
0.15
-0.13
-0.195
-0.155
-0.275
-0.22
-0.14
-0.07
0.03
0.04
-0.005
-0.04
-0.105
-0.195
-0.245
-0.235
-0.11
-0.09
0.08
0.12
0.01
0.005
-0.095
-0.155
-0.24
-0.21
-0.12
-0.06
-0.005
0.15
0.05
-0.055
-0.15
-0.23
-0.17
-0.025
-0.055
-0.11
0.06
0.115
0.05
-0.09
-0.04
-0.13
-0.17
-0.21
-0.06
0.0
0.04
0.075
0.155
0.005
-0.125
-0.22
-0.215
-0.15
0.035
0.035
0.15
0.175
-0.045
-0.035
-0.055
-0.145
-0.19
-0.185
-0.065
0.035
0.105
0.105
0.075
0.04
-0.015
-0.11
-0.145
-0.075
0.04
0.13
0.155
0.12
0.09
-0.03
0.015
-0.16
-0.025
0.03
0.115
0.125
0.25
0.19
0.14
0.195
0.145
-0.045
0.015
0.11
0.12
0.175
0.275
0.295
0.22
0.135
0.105
0.02
0.065
0.14
0.195
0.16
0.295
0.32
0.275
0.155
0.035
-0.03
-0.06
0.135
0.125
0.175
0.205
0.27
0.245
-0.025
-0.035
-0.025
-0.125
-0.085
0.065
0.065
0.135
0.145
0.025
-0.025
-0.09
-0.17
-0.175
-0.105
0.06
0.07
0.08
0.075
-0.03
-0.125
-0.125
-0.17
-0.135
-0.13
-0.055
0.05
0.045
0.075
0.0
-0.1
-0.18
-0.195
-0.185
0.005
-0.05
0.02
0.025
-0.01
-0.175
-0.075
-0.12
-0.155
-0.195
-0.125
-0.005
0.135
0.105
0.045
0.005
-0.095
-0.19
-0.17
-0.16
-0.085
0.0
0.025
0.035
0.06
-0.02
-0.125
-0.125
-0.155
-0.105
-0.085
-0.005
0.085
0.035
-0.055
-0.055
-0.055
-0.23
-0.12
-0.07
-0.08
-0.06
0.125
0.035
0.03
-0.095
-0.12
-0.13
-0.185
-0.095
0.0
0.005
0.055
0.155
-0.04
-0.055
-0.1
-0.155
-0.13
-0.16
-0.09
0.05
0.08
0.015
0.02
0.0
-0.01
-0.195
-0.165
-0.13
-0.035
-0.055
0.03
0.12
0.09
-0.06
-0.05
-0.21
-0.115
-0.07
-0.16
0.05
0.0
-0.005
-0.01
-0.13
-0.135
-0.145
-0.19
-0.1
-0.01
-0.005
0.14
0.055
0.045
-0.045
-0.09
-0.25
-0.11
-0.15
-0.125
0.0
0.095
0.09
0.05
-0.09
-0.135
-0.145
-0.095
-0.155
-0.07
0.05
0.045
-0.005
0.145
-0.07
-0.15
-0.21
-0.145
-0.085
-0.08
0.02
0.075
0.055
-0.025
-0.04
-0.095
-0.2
-0.195
-0.13
-0.08
-0.035
0.075
0.035
-0.045
-0.065
-0.115
-0.155
-0.145
-0.085
0.045
0.065
0.02
0.085
0.07
-0.12
-0.195
-0.2
-0.14
-0.095
-0.07
0.05
0.055
0.08
0.065
-0.025
-0.21
-0.135
-0.08
-0.07
-0.07
0.03
0.055
0.06
-0.115
-0.055
-0.07
-0.105
-0.075
-0.035
0.055
0.145
0.11
0.06
-0.025
-0.005
-0.1
-0.2
-0.165
-0.03
0.02
0.085
0.04
-0.005
-0.035
-0.03
-0.15
-0.185
-0.21
-0.115
0.02
0.09
0.085
0.03
-0.02
-0.11
-0.19
-0.32
-0.3
-0.07
-0.045
0.08
0.155
0.195
0.185
0.315
0.42
0.575
0.55
0.665
0.66
0.665
0.69
0.715
0.59
0.435
0.27
0.24
0.06
-0.04
-0.105
0.035
0.065
0.08
-0.085
-0.16
-0.235
-0.195
-0.155
-0.005
0.02
0.105
-0.01
-0.13
-0.01
-0.105
-0.13
-0.105
-0.15
-0.095
-0.03
0.07
0.035
0.015
-0.06
0.02
-0.225
-0.2
-0.13
-0.015
0.065
0.03
0.06
0.02
-0.075
-0.075
-0.165
-0.1
-0.1
-0.04
0.06
0.12
0.095
0.025
0.02
-0.09
-0.16
-0.27
-0.085
0.03
0.1
0.145
0.075
0.0
-0.075
-0.1
-0.135
-0.115
-0.11
-0.015
0.13
0.15
0.125
0.075
-0.07
-0.08
-0.165
-0.105
0.04
0.005
0.08
0.145
0.115
0.045
-0.025
-0.05
-0.035
-0.085
0.055
0.135
0.155
0.17
0.13
0.04
0.12
-0.09
-0.02
0.15
0.095
0.125
0.255
0.235
0.18
0.08
0.075
-0.01
0.05
0.1
0.15
0.205
0.34
0.305
0.34
0.27
0.13
0.075
0.015
0.065
0.205
0.285
0.285
0.245
0.31
0.25
0.105
0.015
0.105
-0.05
0.08
0.17
0.23
0.145
0.21
0.05
0.07
-0.115
-0.115
-0.015
0.0
0.06
0.13
0.12
0.08
-0.03
-0.09
-0.165
-0.215
-0.12
0.05
-0.085
0.07
0.105
-0.02
-0.035
-0.045
-0.2
-0.205
0.01
0.03
-0.015
0.035
0.035
-0.01
-0.055
-0.04
-0.15
-0.195
-0.135
-0.09
0.005
0.09
0.095
-0.01
-0.04
-0.095
-0.15
-0.23
-0.155
0.015
0.055
0.06
0.115
0.005
-0.06
-0.165
-0.235
-0.21
-0.075
-0.065
0.0
0.04
0.115
0.015
-0.09
-0.11
-0.175
-0.075
-0.18
-0.055
0.15
0.135
-0.005
-0.015
-0.045
-0.13
-0.145
-0.13
-0.075
0.035
0.125
0.085
0.07
0.015
-0.115
-0.145
-0.12
-0.16
-0.16
0.015
0.05
0.06
0.005
0.03
-0.03
-0.155
-0.145
-0.13
0.0
-0.055
-0.01
0.065
0.1
0.015
-0.14
-0.13
-0.15
-0.15
-0.1
-0.01
0.055
0.12
0.095
-0.005
-0.02
-0.065
-0.105
-0.175
-0.105
0.02
0.115
0.035
0.02
-0.06
-0.095
-0.19
-0.115
-0.15
-0.075
-0.025
0.075
0.095
0.02
-0.05
-0.02
-0.22
-0.21
-0.14
-0.06
0.06
0.075
0.15
0.14
-0.035
-0.105
-0.245
-0.22
-0.185
-0.005
-0.01
0.075
0.055
0.1
-0.01
-0.05
-0.185
-0.195
-0.085
-0.02
-0.11
0.125
0.07
0.03
-0.12
-0.05
-0.105
-0.055
-0.18
-0.05
-0.01
0.095
0.135
-0.015
-0.1
-0.065
-0.175
-0.105
-0.1
-0.055
0.05
0.095
0.11
-0.01
-0.035
-0.075
-0.215
-0.17
-0.055
-0.135
0.015
0.115
0.04
0.07
0.0
0.015
-0.115
-0.155
-0.14
-0.01
0.13
0.115
0.125
0.075
0.005
-0.075
-0.09
-0.125
-0.07
-0.015
0.08
0.085
0.145
0.06
-0.045
-0.13
-0.165
-0.21
-0.13
-0.055
-0.025
0.105
0.03
0.005
-0.085
-0.165
-0.145
-0.175
-0.16
0.015
0.105
0.105
-0.055
-0.035
-0.1
-0.095
-0.155
-0.095
0.09
0.255
0.54
0.73
0.76
0.72
0.61
0.45
0.485
0.575
0.52
0.545
0.555
0.45
0.27
-0.09
-0.235
-0.235
-0.22
-0.14
-0.1
-0.12
0.04
0.095
0.03
-0.02
0.01
-0.21
-0.16
-0.15
-0.1
-0.08
0.06
-0.01
0.035
-0.06
-0.08
-0.155
-0.18
-0.105
-0.05
-0.08
0.095
0.07
0.05
-0.04
-0.105
-0.145
-0.14
-0.105
-0.04
0.02
0.185
0.125
0.04
0.01
-0.08
-0.22
-0.19
-0.125
0.015
0.02
0.04
0.095
0.115
-0.085
-0.055
-0.115
-0.09
-0.135
-0.055
-0.085
0.115
0.175
0.005
0.04
-0.015
-0.045
-0.185
-0.085
-0.015
0.005
0.125
0.17
0.055
0.05
-0.05
-0.17
-0.175
-0.04
0.15
0.05
0.2
0.25
0.15
0.005
-0.025
-0.03
0.025
0.045
0.105
0.23
0.23
0.17
0.155
0.045
0.045
0.02
0.03
0.08
0.19
0.27
0.3
0.265
0.23
0.245
0.125
0.14
0.03
0.155
0.2
0.29
0.305
0.335
0.17
0.135
0.0
0.01
0.12
0.155
0.175
0.305
0.365
0.28
0.14
0.025
0.015
-0.015
-0.025
0.09
0.015
0.225
0.17
0.15
0.0
0.055
-0.06
-0.185
-0.13
-0.015
0.04
0.1
0.06
0.095
-0.04
-0.06
-0.12
-0.17
-0.18
-0.08
0.01
0.04
0.05
0.025
-0.02
-0.165
-0.195
-0.19
-0.09
-0.095
-0.04
0.115
0.005
-0.015
-0.035
0.01
-0.21
-0.06
-0.13
-0.11
-0.07
0.085
0.02
0.015
-0.03
-0.07
-0.235
-0.175
-0.16
-0.075
0.005
0.105
0.035
0.045
-0.065
-0.105
-0.235
-0.105
-0.095
-0.045
-0.005
0.08
0.15
-0.025
-0.06
-0.055
-0.21
-0.16
-0.125
-0.03
-0.06
0.065
0.105
0.015
-0.035
-0.085
-0.22
-0.09
-0.075
0.045
-0.04
0.18
0.17
0.01
-0.055
-0.105
-0.17
-0.185
-0.055
-0.03
-0.035
0.105
0.05
-0.025
-0.06
-0.12
-0.145
-0.155
-0.1
-0.115
0.1
0.05
0.08
-0.03
-0.06
-0.11
-0.11
-0.13
-0.14
-0.04
0.055
0.12
0.025
0.02
-0.035
-0.18
-0.225
-0.165
-0.12
0.125
0.105
-0.01
0.01
0.075
-0.035
-0.165
-0.16
-0.155
-0.145
-0.055
0.045
0.075
0.035
-0.03
-0.08
-0.18
-0.15
-0.165
-0.07
-0.075
0.035
0.085
0.04
-0.01
0.01
-0.145
-0.095
-0.12
-0.055
-0.01
0.055
0.155
0.04
-0.05
-0.075
-0.21
-0.135
-0.02
-0.07
-0.095
0.01
0.12
0.14
0.04
-0.12
-0.195
-0.14
-0.045
0.035
0.025
0.225
0.135
0.05
0.015
0.005
-0.25
-0.205
-0.045
0.0
0.0
0.085
0.055
0.075
-0.065
-0.065
-0.165
-0.175
-0.14
-0.05
0.03
0.105
0.015
0.01
-0.11
-0.005
-0.17
-0.15
-0.205
-0.005
-0.01
0.11
0.03
-0.025
-0.11
-0.215
-0.305
-0.175
0.065
0.175
0.275
0.605
0.675
0.7
0.69
0.505
0.335
0.355
0.495
0.465
0.46
0.55
0.455
0.225
-0.095
-0.265
-0.35
-0.29
-0.225
-0.125
-0.05
0.055
0.065
0.055
-0.085
-0.055
-0.275
-0.14
-0.105
-0.07
0.025
0.05
0.04
0.05
-0.035
-0.075
-0.21
-0.175
-0.13
-0.06
0.045
0.05
0.12
0.1
0.02
-0.085
-0.15
-0.195
-0.005
-0.005
0.0
0.06
0.095
0.01
-0.05
-0.12
-0.08
-0.305
-0.125
0.035
0.075
0.125
0.115
-0.005
-0.095
-0.145
-0.085
-0.055
-0.065
0.025
0.075
0.175
0.145
0.085
-0.02
-0.2
-0.16
-0.175
-0.015
0.09
0.13
0.145
0.13
0.065
0.025
-0.045
-0.13
-0.07
0.06
0.06
0.175
0.2
0.14
0.035
0.035
-0.02
-0.05
-0.07
0.025
0.12
0.185
0.21
0.22
0.13
0.135
0.035
0.03
0.125
0.23
0.185
0.3
0.355
0.265
0.235
0.19
-0.02
0.06
0.195
0.21
0.28
0.375
0.41
0.375
0.25
0.205
0.09
0.09
0.1
0.17
0.19
0.32
0.265
0.21
0.095
0.145
0.045
0.03
0.04
0.045
0.04
0.155
0.165
0.105
0.025
-0.015
-0.09
-0.115
-0.025
-0.07
0.005
0.075
0.07
0.05
-0.09
-0.085
-0.155
-0.115
-0.105
-0.02
0.02
0.08
0.04
-0.02
-0.11
-0.065
-0.155
-0.165
-0.12
-0.125
-0.05
0.075
0.035
-0.005
-0.02
-0.12
-0.2
-0.165
-0.1
-0.01
-0.005
0.08
0.115
0.035
-0.205
-0.095
-0.265
-0.235
-0.205
-0.12
0.12
0.175
0.03
-0.06
-0.085
-0.1
-0.13
-0.12
-0.03
0.045
-0.02
0.12
0.06
-0.035
-0.08
-0.115
-0.175
-0.15
-0.095
0.01
0.02
0.035
0.09
0.03
-0.085
-0.165
-0.12
-0.025
0.005
-0.01
0.075
0.03
0.015
0.005
-0.14
-0.22
-0.155
-0.055
-0.12
0.035
0.13
0.01
0.06
-0.035
-0.065
-0.225
-0.075
-0.11
-0.085
0.025
0.09
0.005
0.015
-0.065
-0.03
-0.14
-0.175
-0.07
-0.11
0.015
0.08
0.055
0.025
-0.09
-0.085
-0.115
-0.16
-0.115
-0.085
-0.06
0.08
0.095
0.025
-0.095
-0.035
-0.26
-0.235
-0.145
-0.045
-0.035
0.11
-0.015
0.03
0.04
-0.075
-0.125
-0.25
-0.125
-0.005
-0.025
0.095
0.08
0.055
-0.05
-0.095
-0.195
-0.13
-0.095
-0.13
-0.015
0.09
0.12
0.135
0.0
-0.17
-0.22
-0.175
-0.1
-0.04
-0.05
0.125
0.055
-0.055
-0.115
-0.075
-0.12
-0.165
-0.08
-0.07
0.06
0.175
0.04
0.035
-0.02
-0.08
-0.115
-0.085
-0.04
0.015
0.135
0.23
0.075
-0.085
-0.08
-0.17
-0.13
-0.16
-0.12
-0.015
0.02
0.12
0.13
-0.02
-0.125
-0.14
-0.175
-0.21
-0.2
-0.065
0.025
0.08
0.09
-0.05
-0.11
-0.165
-0.2
-0.2
-0.195
-0.045
0.125
0.12
0.21
0.285
0.315
0.425
0.54
0.575
0.61
0.65
0.685
0.64
0.555
0.55
0.5
0.28
0.065
-0.115
-0.19
-0.055
-0.04
-0.03
-0.01
-0.015
-0.08
-0.205
-0.21
-0.195
-0.11
-0.005
0.15
0.195
0.055
-0.06
-0.19
-0.09
-0.21
-0.18
-0.145
-0.025
0.1
0.095
-0.055
-0.105
-0.12
-0.215
-0.17
-0.16
-0.05
-0.04
0.015
0.09
0.04
-0.08
-0.045
-0.275
-0.18
-0.145
-0.04
0.035
0.135
0.145
0.045
-0.095
-0.07
-0.125
-0.2
-0.115
-0.055
-0.025
0.225
0.2
0.035
-0.075
-0.055
-0.21
-0.115
-0.045
-0.005
-0.02
0.09
0.225
0.08
-0.125
-0.14
-0.09
-0.075
-0.13
-0.025
0.05
0.135
0.14
0.08
-0.06
0.005
-0.12
-0.115
-0.065
0.09
0.09
0.16
0.215
0.2
0.085
0.035
-0.055
0.03
0.07
0.055
0.06
0.325
0.35
0.215
0.225
0.065
-0.045
0.04
0.135
0.205
0.25
0.295
0.305
0.195
0.16
0.14
0.055
0.135
0.145
0.175
0.29
0.315
0.245
0.23
0.095
0.02
-0.005
-0.01
-0.005
0.12
0.195
0.235
0.22
0.09
-0.035
-0.125
-0.225
-0.07
-0.005
0.035
0.07
0.085
0.05
0.08
-0.135
-0.15
-0.14
-0.13
-0.095
0.025
0.03
0.04
0.065
-0.04
-0.06
-0.215
-0.205
-0.19
-0.1
-0.06
0.075
0.13
0.04
-0.09
-0.15
-0.295
-0.28
-0.14
-0.04
-0.08
0.03
0.105
0.035
-0.075
-0.11
-0.19
-0.175
-0.195
-0.105
0.035
0.005
-0.015
-0.025
-0.135
-0.17
-0.18
-0.25
-0.145
0.01
-0.03
0.1
0.02
0.005
-0.055
-0.08
-0.19
-0.21
-0.175
0.0
-0.04
0.06
-0.01
0.0
-0.03
-0.085
-0.125
-0.08
-0.13
-0.03
0.015
0.01
-0.02
0.04
-0.08
-0.09
-0.21
-0.2
-0.16
-0.04
-0.03
0.075
0.1
-0.02
-0.095
-0.025
-0.085
-0.305
-0.11
-0.05
-0.025
0.08
0.09
0.05
-0.06
-0.105
-0.15
-0.265
-0.21
-0.065
-0.035
0.085
0.135
-0.01
-0.15
-0.145
-0.155
-0.18
-0.045
-0.065
-0.005
0.015
-0.03
-0.02
-0.11
-0.15
-0.225
-0.175
-0.145
-0.01
0.075
0.135
0.055
0.0
-0.08
-0.2
-0.225
-0.245
-0.115
-0.005
0.015
-0.02
0.015
0.075
-0.005
-0.175
-0.26
-0.2
-0.05
-0.095
0.025
0.03
0.09
-0.05
-0.185
-0.26
-0.21
-0.12
-0.035
-0.035
0.035
0.08
0.06
0.09
-0.06
-0.125
-0.06
-0.055
-0.08
0.015
0.05
0.155
-0.015
-0.055
-0.085
-0.175
-0.14
-0.115
-0.12
-0.025
0.07
0.095
-0.03
-0.05
-0.07
-0.32
-0.28
-0.105
-0.14
-0.12
0.03
0.07
-0.025
-0.12
-0.08
-0.205
-0.17
-0.125
-0.075
0.01
0.055
-0.11
-0.065
0.01
-0.04
-0.13
0.04
0.235
0.43
0.625
0.84
0.755
0.78
0.825
0.5
0.44
0.48
0.59
0.4
0.35
0.23
0.06
0.06
-0.18
-0.185
-0.305
-0.19
-0.215
-0.045
-0.04
0.065
-0.035
-0.035
-0.09
-0.125
-0.2
-0.2
-0.08
-0.075
-0.06
-0.035
0.095
-0.05
-0.155
-0.15
-0.25
-0.23
-0.13
-0.08
-0.05
0.145
0.115
-0.025
-0.05
-0.185
-0.275
-0.24
-0.13
-0.045
0.025
0.035
0.005
-0.035
-0.06
-0.15
-0.195
-0.12
-0.02
-0.06
0.055
0.095
0.075
-0.04
-0.105
-0.22
-0.2
-0.055
-0.015
-0.055
0.065
0.065
0.04
-0.01
-0.06
-0.195
-0.17
-0.1
0.005
-0.06
0.065
0.11
0.125
0.06
0.02
0.0
-0.175
-0.26
-0.1
0.05
0.21
0.13
0.085
0.005
0.01
-0.1
-0.025
-0.09
-0.015
0.115
0.22
0.17
0.14
0.145
0.135
0.02
-0.035
0.045
0.13
0.145
0.245
0.335
0.155
0.24
0.185
-0.07
0.085
0.145
0.08
0.165
0.265
0.22
0.21
0.21
0.155
0.04
-0.045
0.0
0.13
0.12
0.19
0.24
0.15
0.075
-0.045
-0.115
-0.115
-0.01
0.01
0.005
0.125
0.09
0.035
-0.08
-0.035
-0.195
-0.2
-0.1
-0.08
0.02
0.025
0.01
-0.01
-0.075
-0.055
-0.165
-0.155
-0.18
-0.025
-0.065
0.01
-0.035
-0.055
-0.07
-0.12
-0.31
-0.215
-0.21
-0.03
-0.035
0.055
0.08
-0.11
-0.085
-0.125
-0.23
-0.18
-0.195
-0.15
-0.04
0.14
0.045
-0.065
-0.075
-0.195
-0.21
-0.15
-0.155
-0.065
-0.015
0.065
0.03
-0.09
-0.11
-0.12
-0.265
-0.28
-0.085
0.0
-0.01
0.065
0.01
-0.025
-0.06
-0.175
-0.26
-0.175
-0.09
-0.055
0.03
0.05
0.035
-0.045
-0.07
-0.13
-0.3
-0.14
-0.045
-0.065
0.015
0.06
0.02
0.085
-0.08
-0.195
-0.185
-0.16
-0.095
-0.14
0.02
0.035
0.015
-0.04
-0.13
-0.225
-0.24
-0.145
-0.17
-0.085
0.03
0.065
-0.005
-0.08
-0.17
-0.205
-0.225
-0.175
-0.14
-0.09
0.005
0.015
-0.03
-0.055
-0.13
-0.175
-0.185
-0.15
0.03
-0.155
0.05
0.055
-0.015
-0.12
-0.12
-0.195
-0.2
-0.205
0.01
0.04
0.065
-0.02
0.015
-0.05
-0.17
-0.26
-0.2
-0.1
-0.065
-0.12
0.08
0.005
0.02
-0.09
-0.15
-0.195
-0.225
-0.135
-0.01
0.015
0.1
0.1
0.035
-0.09
-0.115
-0.2
-0.165
-0.095
0.005
-0.01
0.07
-0.01
0.0
-0.045
-0.08
-0.155
-0.175
-0.1
-0.125
-0.125
-0.005
0.0
-0.04
-0.155
-0.14
-0.25
-0.19
-0.165
-0.135
0.025
0.075
-0.035
-0.09
-0.12
-0.19
-0.25
-0.26
-0.195
-0.025
0.17
0.32
0.53
0.48
0.545
0.6
0.545
0.585
0.535
0.62
0.625
0.76
0.685
0.375
0.17
-0.05
-0.195
-0.335
-0.245
-0.13
-0.01
-0.05
0.04
-0.155
-0.105
-0.185
-0.27
-0.16
-0.125
-0.12
-0.005
0.095
-0.03
-0.115
-0.145
-0.16
-0.2
-0.225
-0.09
-0.08
0.035
0.03
-0.025
-0.055
-0.135
-0.225
-0.245
-0.21
-0.03
0.015
0.075
0.04
-0.02
-0.09
-0.035
-0.21
-0.2
-0.125
-0.11
-0.065
0.095
0.095
-0.11
-0.03
0.07
-0.245
-0.16
-0.165
-0.13
0.02
0.07
-0.06
0.0
-0.07
-0.075
-0.21
-0.17
-0.18
-0.06
0.02
0.09
0.125
0.085
-0.01
0.005
-0.24
-0.115
-0.14
-0.08
0.09
0.205
0.175
0.1
0.03
-0.095
-0.24
-0.195
-0.01
0.06
0.13
0.215
0.12
0.15
0.105
0.0
-0.05
0.035
0.035
0.135
0.1
0.315
0.195
0.235
0.015
0.135
0.105
-0.025
0.065
0.12
0.22
0.215
0.28
0.21
0.115
0.1
0.06
0.085
0.115
0.11
0.17
0.32
0.32
0.175
0.055
0.05
-0.06
-0.11
0.01
-0.005
0.05
0.085
0.095
0.055
0.145
-0.055
-0.185
-0.195
-0.11
-0.065
-0.015
0.06
0.115
0.005
-0.055
-0.25
-0.295
-0.19
-0.085
-0.12
-0.105
0.055
0.09
-0.02
-0.1
-0.175
-0.31
-0.28
-0.105
-0.025
-0.015
0.04
-0.02
-0.08
-0.125
-0.175
-0.185
-0.18
-0.17
-0.115
-0.005
0.09
0.01
-0.08
-0.125
-0.24
-0.23
-0.165
-0.135
-0.08
0.005
-0.04
-0.06
-0.185
-0.135
-0.215
-0.145
0.0
-0.11
-0.04
0.07
0.105
0.0
-0.085
-0.155
-0.275
-0.27
-0.135
-0.14
-0.07
-0.005
0.005
-0.015
-0.015
-0.09
-0.235
-0.23
-0.11
-0.06
-0.14
0.06
0.03
-0.085
-0.005
-0.11
-0.235
-0.305
-0.19
-0.015
0.065
-0.015
0.0
-0.005
-0.11
-0.155
-0.22
-0.145
-0.135
-0.09
-0.09
0.065
0.015
-0.08
-0.055
-0.18
-0.235
-0.165
-0.21
-0.1
-0.07
0.07
0.07
-0.04
-0.07
-0.075
-0.225
-0.22
-0.285
0.005
-0.095
-0.01
0.08
0.005
-0.1
-0.17
-0.225
-0.165
-0.125
-0.03
-0.075
0.075
0.035
-0.02
-0.025
-0.13
-0.2
-0.13
-0.095
-0.045
0.02
0.04
0.08
0.05
-0.14
-0.2
-0.135
-0.16
-0.17
-0.04
0.03
0.06
0.035
-0.03
-0.205
-0.2
-0.275
-0.205
-0.2
-0.08
-0.025
0.05
0.08
-0.075
-0.195
-0.28
-0.275
-0.215
-0.225
-0.065
-0.01
0.015
-0.055
-0.27
-0.17
-0.19
-0.115
0.05
0.23
0.475
0.72
0.895
0.67
0.54
0.49
0.43
0.37
0.435
0.385
0.225
0.31
0.17
-0.045
-0.21
-0.235
-0.36
-0.255
-0.17
-0.185
-0.2
-0.09
0.01
0.025
-0.16
-0.16
-0.315
-0.24
-0.2
-0.115
-0.1
0.08
0.075
-0.02
-0.045
-0.165
-0.265
-0.325
-0.18
-0.06
-0.07
0.0
0.055
-0.035
-0.045
-0.105
-0.115
-0.08
-0.27
-0.12
-0.01
0.095
-0.025
0.055
-0.02
-0.065
-0.345
-0.25
-0.165
-0.075
0.005
0.025
0.04
0.08
-0.04
-0.165
-0.205
-0.25
-0.135
-0.005
0.02
0.145
0.095
-0.03
0.085
-0.06
-0.24
-0.2
-0.11
-0.065
0.01
0.065
0.11
0.135
0.07
-0.005
-0.155
-0.225
-0.11
0.145
0.07
0.115
0.115
0.105
0.005
0.06
0.02
0.0
-0.205
0.025
0.18
0.125
0.26
0.24
0.055
0.05
-0.04
0.075
0.105
0.14
0.245
0.425
0.285
0.21
0.21
0.13
-0.015
0.055
0.13
0.245
0.28
0.25
0.25
0.26
0.18
0.095
-0.04
-0.065
0.085
0.155
0.195
0.145
0.225
0.245
0.045
-0.055
-0.145
-0.15
-0.055
-0.04
0.005
0.22
0.145
0.06
-0.09
-0.23
-0.23
-0.23
-0.05
0.025
0.045
-0.01
0.05
-0.04
-0.14
-0.12
-0.165
-0.195
-0.125
-0.09
-0.01
0.115
-0.08
-0.115
-0.16
-0.28
-0.155
-0.125
-0.175
-0.125
0.03
0.03
-0.05
-0.115
-0.09
-0.195
-0.175
-0.2
-0.125
-0.19
0.02
0.045
0.07
-0.125
-0.165
-0.24
-0.26
-0.22
-0.065
-0.025
0.105
0.065
-0.03
-0.11
-0.105
-0.29
-0.275
-0.22
-0.02
-0.055
0.21
0.13
-0.065
-0.075
-0.165
-0.25
-0.225
-0.135
-0.05
-0.115
0.03
0.045
-0.04
-0.095
-0.02
-0.225
-0.22
-0.16
-0.085
-0.01
0.105
0.045
-0.03
-0.12
-0.15
-0.31
-0.145
-0.145
-0.1
-0.035
0.07
0.09
-0.015
-0.07
-0.1
-0.175
-0.12
-0.08
-0.145
-0.055
0.07
-0.03
-0.015
-0.095
-0.145
-0.315
-0.23
-0.12
-0.07
-0.035
0.065
0.125
-0.03
-0.165
-0.105
-0.23
-0.19
-0.085
-0.035
-0.095
-0.015
0.055
0.05
-0.03
-0.11
-0.23
-0.175
-0.105
0.015
0.01
0.1
0.095
0.015
-0.05
-0.14
-0.205
-0.065
-0.15
-0.065
-0.015
-0.035
-0.02
-0.075
-0.04
-0.22
-0.205
-0.28
-0.08
-0.12
-0.025
0.08
-0.01
-0.065
-0.16
-0.16
-0.24
-0.22
-0.195
-0.055
0.045
0.035
-0.065
-0.115
-0.165
-0.295
-0.235
-0.17
0.06
0.185
0.32
0.48
0.64
0.63
0.615
0.505
0.48
0.41
0.555
0.54
0.63
0.545
0.245
0.0
-0.145
-0.32
-0.335
-0.17
-0.17
-0.16
0.0
-0.035
-0.04
-0.085
-0.15
-0.25
-0.22
-0.22
-0.105
-0.065
0.055
0.0
-0.05
-0.13
-0.05
-0.18
-0.17
-0.125
-0.095
-0.06
0.025
0.0
-0.07
-0.155
-0.055
-0.15
-0.275
-0.195
-0.07
-0.06
0.005
0.025
0.01
-0.02
-0.115
-0.285
-0.175
-0.155
-0.14
-0.095
0.07
0.045
0.025
-0.105
-0.065
-0.18
-0.185
-0.19
-0.035
0.09
0.05
0.065
-0.055
-0.135
-0.06
-0.225
-0.14
-0.115
-0.09
0.015
0.095
0.09
0.07
0.01
-0.14
-0.2
-0.095
-0.05
0.005
0.1
0.12
0.045
-0.005
-0.09
-0.17
-0.08
-0.12
-0.05
0.08
0.145
0.195
0.135
0.07
0.06
0.08
-0.045
0.045
0.13
0.205
0.25
0.305
0.28
0.165
0.065
0.12
0.125
-0.035
0.13
0.21
0.27
0.23
0.19
0.15
0.055
0.0
-0.025
0.08
0.225
0.06
0.19
0.275
0.115
0.135
-0.01
-0.115
-0.065
-0.1
-0.02
0.07
0.095
0.01
0.13
0.06
-0.105
-0.24
-0.125
-0.21
-0.065
0.03
0.05
0.115
-0.055
-0.035
-0.04
-0.25
-0.275
-0.27
-0.125
0.005
0.105
0.085
0.01
-0.115
-0.185
-0.365
-0.34
-0.265
-0.09
-0.075
0.115
0.03
-0.055
0.025
-0.115
-0.265
-0.285
-0.235
-0.185
-0.08
-0.09
0.07
0.01
-0.09
-0.135
-0.26
-0.245
-0.145
-0.075
-0.035
-0.015
-0.065
0.01
-0.025
-0.13
-0.195
-0.24
-0.215
-0.135
-0.11
0.005
0.005
0.0
-0.2
-0.075
-0.195
-0.15
-0.11
-0.125
-0.065
0.015
0.015
-0.03
-0.16
-0.17
-0.23
-0.275
-0.195
-0.035
-0.03
0.07
0.03
-0.055
-0.1
-0.08
-0.18
-0.25
-0.225
-0.105
0.0
0.04
0.03
0.02
-0.185
-0.2
-0.22
-0.3
-0.175
-0.05
-0.045
-0.035
0.07
-0.04
-0.195
-0.185
-0.22
-0.24
-0.17
-0.06
-0.025
0.055
0.04
-0.05
-0.25
-0.265
-0.315
-0.215
-0.19
-0.12
-0.015
0.04
0.025
-0.015
-0.06
-0.225
-0.265
-0.28
-0.2
-0.155
0.035
0.04
0.01
-0.045
-0.15
-0.18
-0.21
-0.13
-0.075
-0.165
0.01
0.065
0.015
-0.015
-0.035
-0.17
-0.15
-0.255
-0.095
-0.01
0.015
0.015
-0.045
-0.155
-0.09
-0.185
-0.195
-0.2
-0.165
-0.09
0.005
-0.07
-0.01
-0.07
-0.125
-0.275
-0.26
-0.205
-0.17
-0.165
0.01
-0.045
-0.115
0.04
-0.155
-0.29
-0.255
-0.16
-0.12
-0.17
-0.09
0.025
0.015
-0.085
0.105
0.195
0.22
0.44
0.585
0.63
0.77
0.81
0.63
0.55
0.485
0.455
0.31
0.255
0.08
-0.045
0.0
-0.095
-0.13
-0.165
-0.035
-0.23
-0.255
-0.255
-0.105
-0.085
0.015
-0.105
-0.085
-0.12
-0.175
-0.22
-0.285
-0.14
-0.04
0.01
-0.035
-0.035
-0.1
-0.12
-0.135
-0.25
-0.2
-0.23
-0.125
-0.075
-0.035
-0.015
-0.08
-0.14
-0.23
-0.215
-0.195
-0.05
-0.06
-0.04
-0.005
0.085
-0.015
-0.18
-0.25
-0.265
-0.19
-0.08
0.02
0.0
0.04
0.095
-0.03
-0.185
-0.225
-0.19
-0.13
-0.185
-0.065
0.025
0.03
-0.01
-0.07
-0.055
-0.19
-0.265
-0.19
-0.075
0.01
0.03
0.11
0.02
-0.045
-0.065
-0.125
-0.215
-0.17
-0.07
0.06
0.11
0.12
0.07
0.085
-0.055
-0.045
-0.12
-0.035
-0.005
-0.035
0.155
0.22
0.19
0.16
0.095
0.015
-0.06
-0.02
0.035
0.045
0.235
0.18
0.165
0.1
0.02
-0.04
-0.035
0.055
0.055
0.13
0.26
0.24
0.14
0.09
0.055
-0.06
-0.025
-0.085
0.0
0.04
0.185
0.16
0.12
-0.01
-0.03
-0.21
-0.275
-0.215
-0.07
-0.04
0.105
0.05
-0.005
-0.075
-0.11
-0.26
-0.245
-0.265
-0.055
-0.055
0.05
0.04
-0.045
-0.135
-0.19
-0.25
-0.23
-0.155
-0.16
-0.125
-0.02
0.06
-0.08
-0.155
-0.09
-0.26
-0.265
-0.175
-0.1
-0.105
0.0
0.045
0.01
-0.14
-0.165
-0.275
-0.225
-0.165
-0.17
-0.075
-0.08
-0.03
0.065
-0.26
-0.13
-0.265
-0.24
-0.165
-0.085
-0.015
-0.07
-0.035
-0.035
-0.2
-0.26
-0.255
-0.25
-0.105
-0.08
-0.075
0.025
0.03
-0.025
-0.1
-0.215
-0.175
-0.265
-0.245
-0.06
-0.01
0.12
0.085
-0.21
-0.18
-0.24
-0.205
-0.305
-0.18
0.0
0.065
-0.06
0.0
-0.09
-0.17
-0.255
-0.255
-0.315
-0.145
-0.105
-0.075
0.06
-0.01
-0.1
-0.21
-0.17
-0.21
-0.235
-0.14
-0.025
-0.035
0.03
0.15
-0.06
-0.14
-0.24
-0.37
-0.23
-0.18
-0.04
0.025
-0.065
0.0
-0.02
-0.24
-0.185
-0.245
-0.355
-0.15
-0.035
0.03
0.04
0.015
-0.09
-0.15
-0.29
-0.265
-0.215
-0.245
-0.175
0.09
0.02
-0.005
-0.1
-0.205
-0.235
-0.18
-0.17
-0.025
0.065
0.005
0.125
-0.06
-0.17
-0.065
-0.23
-0.2
-0.2
-0.08
-0.045
-0.065
0.05
0.03
-0.065
-0.06
-0.195
-0.28
-0.23
-0.21
-0.125
-0.065
0.065
-0.11
-0.1
-0.185
-0.26
-0.195
-0.22
-0.165
-0.11
0.03
0.05
-0.09
-0.15
-0.155
-0.315
-0.31
-0.295
-0.22
-0.195
-0.105
0.015
0.04
-0.005
0.06
0.095
0.29
0.49
0.57
0.65
0.61
0.72
0.74
0.615
0.5
0.395
0.205
0.21
0.115
0.005
-0.09
-0.12
-0.175
-0.22
-0.215
-0.29
-0.185
-0.18
-0.065
-0.11
0.105
-0.06
-0.155
-0.165
-0.21
-0.265
-0.305
-0.23
-0.115
-0.08
0.02
0.02
-0.075
-0.22
-0.16
-0.25
-0.29
-0.26
-0.12
0.075
-0.05
-0.08
0.025
-0.23
-0.235
-0.22
-0.205
-0.18
-0.12
0.005
-0.01
-0.06
-0.13
-0.245
-0.19
-0.22
-0.21
-0.09
-0.01
-0.02
-0.1
0.015
-0.075
-0.09
-0.23
-0.175
-0.15
-0.105
-0.1
0.035
0.07
-0.085
-0.08
-0.105
-0.255
-0.16
-0.17
-0.03
-0.035
0.045
0.035
0.025
-0.035
-0.12
-0.2
-0.19
-0.13
-0.07
-0.075
0.06
0.105
0.065
0.03
-0.015
-0.24
-0.155
-0.055
0.06
0.035
0.205
0.125
0.13
0.05
0.09
-0.03
-0.07
0.035
0.125
0.07
0.225
0.275
0.16
0.05
0.08
-0.065
-0.005
0.125
0.125
0.215
0.115
0.27
0.165
-0.015
0.035
-0.025
-0.17
-0.015
0.065
0.05
0.125
0.11
-0.035
-0.04
-0.105
-0.275
-0.29
-0.175
-0.03
0.005
0.045
-0.06
-0.04
-0.115
-0.185
-0.17
-0.145
-0.185
-0.1
-0.1
-0.045
-0.05
-0.095
-0.115
-0.135
-0.27
-0.23
-0.175
-0.09
-0.165
0.01
-0.065
-0.155
-0.175
-0.195
-0.33
-0.26
-0.235
-0.1
-0.065
-0.06
-0.05
-0.195
-0.17
-0.19
-0.305
-0.335
-0.185
-0.195
-0.055
-0.05
-0.01
-0.085
-0.12
-0.275
-0.33
-0.155
-0.14
-0.155
-0.04
-0.06
-0.085
-0.075
-0.235
-0.305
-0.22
-0.2
-0.145
-0.075
-0.105
-0.075
-0.07
-0.095
-0.16
-0.31
-0.225
-0.125
-0.195
-0.215
-0.07
-0.07
-0.085
-0.075
-0.145
-0.27
-0.27
-0.235
-0.175
-0.095
0.095
-0.055
-0.105
-0.185
-0.2
-0.14
-0.315
-0.21
-0.115
-0.105
-0.045
-0.04
-0.09
-0.18
-0.075
-0.305
-0.295
-0.235
-0.175
-0.095
-0.1
-0.015
-0.06
-0.125
-0.235
-0.285
-0.245
-0.22
-0.135
-0.165
-0.025
-0.03
-0.055
-0.17
-0.145
-0.275
-0.235
-0.225
-0.15
-0.08
0.115
0.03
-0.07
-0.09
-0.075
-0.275
-0.26
-0.13
-0.18
-0.12
0.025
-0.035
-0.145
-0.09
-0.155
-0.36
-0.21
-0.09
-0.135
-0.125
-0.085
-0.045
-0.135
-0.165
-0.245
-0.29
-0.27
-0.18
-0.155
-0.055
0.04
0.005
-0.13
-0.19
-0.195
-0.32
-0.325
-0.215
-0.145
-0.085
-0.04
0.175
-0.035
-0.315
-0.335
-0.37
-0.34
-0.285
-0.26
-0.1
-0.01
0.06
0.345
0.505
0.435
0.35
0.305
0.42
0.435
0.565
0.525
0.475
0.36
0.16
-0.185
-0.255
-0.26
-0.325
-0.235
-0.155
-0.035
-0.16
-0.18
-0.17
-0.33
-0.22
-0.165
-0.195
-0.175
-0.015
-0.08
-0.105
-0.245
-0.13
-0.29
-0.25
-0.275
-0.31
-0.165
-0.07
0.025
-0.06
-0.145
-0.09
-0.33
-0.3
-0.245
-0.18
-0.115
0.0
-0.025
-0.06
-0.215
-0.165
-0.275
-0.28
-0.195
-0.185
-0.085
-0.065
0.04
-0.06
-0.05
-0.195
-0.275
-0.33
-0.26
-0.13
-0.095
-0.01
0.025
0.01
-0.095
-0.215
-0.33
-0.235
-0.13
-0.145
0.0
0.0
0.065
0.02
-0.155
-0.135
-0.21
-0.21
-0.115
-0.095
-0.03
-0.005
0.065
0.135
-0.04
-0.09
-0.2
-0.255
-0.155
-0.045
0.03
0.145
0.13
-0.005
-0.01
-0.035
-0.11
-0.13
-0.02
0.105
0.15
0.17
0.205
0.19
0.045
0.075
-0.055
-0.12
0.045
0.045
0.225
0.195
0.195
0.2
0.115
0.07
0.02
0.035
0.015
0.045
0.135
0.13
0.17
0.095
0.005
-0.095
-0.175
-0.145
-0.11
-0.02
0.045
0.105
0.03
-0.025
-0.155
-0.185
-0.285
-0.16
-0.16
-0.115
-0.105
0.0
0.105
-0.175
-0.205
-0.21
-0.28
-0.265
-0.105
-0.12
-0.08
-0.02
0.035
-0.125
-0.22
-0.295
-0.19
-0.37
-0.215
-0.165
-0.095
-0.06
-0.055
-0.14
-0.19
-0.255
-0.285
-0.23
-0.195
-0.155
-0.095
-0.02
-0.13
-0.165
-0.235
-0.27
-0.255
-0.27
-0.205
-0.17
-0.075
0.005
0.01
-0.17
-0.23
-0.35
-0.295
-0.265
-0.21
-0.17
-0.04
0.035
0.005
-0.09
-0.18
-0.29
-0.3
-0.27
-0.245
-0.105
-0.03
-0.03
-0.015
-0.09
-0.085
-0.225
-0.32
-0.24
-0.13
-0.16
-0.015
0.01
-0.095
-0.12
-0.165
-0.25
-0.16
-0.225
-0.17
-0.175
0.0
-0.015
-0.175
-0.135
-0.205
-0.235
-0.305
-0.11
-0.13
-0.16
-0.025
-0.005
-0.105
-0.215
-0.115
-0.235
-0.295
-0.175
-0.14
-0.115
0.015
-0.05
-0.13
-0.145
-0.195
-0.275
-0.32
-0.205
-0.14
-0.08
0.08
-0.015
-0.125
-0.1
-0.28
-0.22
-0.235
-0.15
-0.155
-0.08
-0.015
-0.035
-0.12
-0.18
-0.17
-0.28
-0.22
-0.165
-0.07
-0.05
0.15
0.04
-0.015
-0.19
-0.315
-0.185
-0.125
-0.165
-0.18
0.075
0.025
-0.06
-0.1
-0.13
-0.305
-0.265
-0.29
-0.12
-0.145
-0.01
0.075
-0.05
-0.125
-0.195
-0.235
-0.3
-0.27
-0.21
-0.075
-0.085
-0.045
-0.065
-0.15
-0.26
-0.205
-0.32
-0.355
-0.205
-0.065
-0.07
0.01
-0.01
0.02
0.075
0.085
0.28
0.395
0.585
0.58
0.67
0.635
0.685
0.525
0.495
0.305
0.17
0.165
0.05
-0.165
-0.205
-0.065
-0.17
-0.215
-0.11
-0.29
-0.38
-0.28
-0.075
-0.185
-0.045
-0.045
-0.02
-0.1
-0.16
-0.365
-0.355
-0.185
-0.14
-0.105
-0.035
0.05
0.045
-0.175
-0.09
-0.105
-0.27
-0.19
-0.115
-0.145
-0.04
-0.075
-0.085
-0.15
-0.155
-0.265
-0.355
-0.215
-0.19
-0.125
0.14
0.045
-0.135
-0.17
-0.175
-0.285
-0.24
-0.125
-0.04
-0.07
0.055
-0.07
-0.065
-0.175
-0.1
-0.245
-0.25
-0.135
-0.12
0.015
0.03
0.02
-0.085
-0.12
-0.1
-0.25
-0.21
-0.045
-0.045
0.03
0.13
0.045
0.035
-0.06
-0.15
-0.2
-0.15
-0.045
-0.035
-0.035
0.095
0.07
-0.055
-0.08
-0.03
-0.06
-0.14
-0.04
0.07
0.25
0.145
0.185
0.135
0.02
0.055
-0.05
-0.05
0.025
0.165
0.09
0.23
0.245
0.195
0.11
-0.02
0.01
0.055
0.17
0.13
0.155
0.19
0.13
0.095
-0.005
-0.055
-0.095
-0.075
-0.05
0.01
0.17
0.175
0.055
0.02
-0.075
-0.225
-0.25
-0.255
-0.15
-0.015
0.055
-0.005
-0.07
-0.11
-0.14
-0.235
-0.25
-0.195
-0.1
-0.075
0.065
0.0
0.05
-0.13
-0.23
-0.225
-0.175
-0.245
-0.09
-0.065
0.08
-0.04
-0.05
-0.06
-0.21
-0.3
-0.265
-0.15
-0.15
-0.14
0.04
0.13
-0.255
-0.22
-0.22
-0.265
-0.205
-0.19
-0.16
-0.08
0.09
0.05
0.0
-0.105
-0.21
-0.32
-0.375
-0.15
-0.12
-0.055
0.02
0.0
-0.03
-0.095
-0.11
-0.245
-0.25
-0.23
-0.055
-0.085
-0.02
-0.085
0.07
-0.055
-0.165
-0.215
-0.245
-0.205
-0.225
-0.045
-0.01
0.05
0.015
-0.145
-0.175
-0.13
-0.325
-0.17
-0.065
-0.015
-0.03
-0.015
-0.075
-0.225
-0.16
-0.23
-0.205
-0.145
-0.115
-0.045
0.03
-0.02
-0.085
-0.15
-0.155
-0.24
-0.305
-0.175
-0.175
-0.13
0.045
0.025
-0.04
-0.055
-0.225
-0.285
-0.18
-0.15
-0.155
-0.03
0.15
0.07
-0.025
-0.08
-0.295
-0.34
-0.2
-0.14
-0.16
-0.01
0.045
-0.045
-0.16
-0.15
-0.145
-0.26
-0.21
-0.135
-0.055
0.03
-0.005
-0.04
-0.015
-0.1
-0.19
-0.185
-0.17
-0.13
-0.075
0.015
0.07
-0.075
-0.125
-0.145
-0.265
-0.195
-0.065
-0.025
-0.205
