# TIPE ECG 2021 - ECG-ID Database v1.0.0 par Physionet
# [Numéro de la personne, Période d'échantillonnage, Prénom, Age, Sexe, Date de l'enregistrement]
[85, 0.002, Amy, 17, F, 21.05.2005]
0.005
-0.035
0.135
0.095
0.055
0.13
0.045
0.065
0.09
0.05
0.025
0.09
0.075
0.08
0.085
0.105
0.08
0.075
0.115
0.04
-0.005
0.055
0.005
0.065
0.115
0.115
0.1
0.13
0.11
0.065
0.035
0.035
0.165
0.085
0.05
0.06
0.075
0.015
0.085
0.06
0.015
0.05
0.075
0.01
0.055
0.11
0.135
0.07
0.07
0.05
0.04
0.055
0.005
0.015
0.055
0.095
0.095
0.04
0.165
0.14
0.07
0.09
0.085
0.06
0.075
0.055
0.055
0.035
0.04
0.03
0.12
0.08
0.05
0.055
0.105
0.085
-0.01
0.0
0.07
0.085
0.08
0.03
0.06
0.085
0.125
0.025
0.105
0.025
-0.015
0.07
0.095
0.045
-0.025
0.09
0.05
0.14
0.105
0.065
0.065
0.045
0.05
0.065
0.075
0.065
0.09
0.045
-0.065
0.025
0.13
0.105
0.075
0.065
0.1
0.1
0.035
0.055
0.065
0.03
0.03
0.055
0.09
0.125
0.11
0.055
0.075
0.1
0.055
0.005
0.06
0.075
0.09
0.02
0.085
0.005
0.07
-0.01
0.0
0.11
0.03
0.125
0.08
0.005
0.055
0.175
0.21
0.075
0.075
0.08
0.065
0.175
0.16
0.175
0.105
0.115
0.085
0.06
0.115
0.17
0.15
0.115
0.15
0.16
0.175
0.11
0.08
0.1
0.055
-0.005
0.03
0.06
0.065
0.085
0.045
0.105
0.015
-0.01
0.08
0.07
0.105
0.05
0.02
0.03
0.0
-0.025
-0.005
0.05
0.055
0.005
0.025
0.055
0.065
0.1
0.045
0.1
0.12
0.17
0.18
0.36
0.515
0.655
0.83
0.81
0.89
0.835
0.745
0.72
0.705
0.7
0.505
0.29
0.08
0.005
-0.05
-0.075
-0.005
-0.005
-0.06
0.03
0.055
0.055
0.05
-0.01
0.02
0.11
0.07
-0.02
-0.02
0.01
0.02
0.025
0.05
0.015
0.035
0.04
0.045
0.04
0.105
0.145
-0.015
0.005
0.06
0.07
0.08
0.1
0.1
0.12
0.175
0.12
0.015
0.015
0.065
0.045
0.025
0.06
0.02
0.09
0.115
0.12
0.1
0.035
0.025
0.055
0.06
0.085
0.14
0.025
0.02
0.095
0.025
0.045
0.125
0.065
0.015
0.03
0.13
0.185
0.15
0.11
0.105
0.125
0.125
0.065
0.1
0.09
0.165
0.135
0.16
0.14
0.155
0.15
0.195
0.175
0.14
0.135
0.185
0.215
0.205
0.165
0.245
0.16
0.165
0.205
0.23
0.205
0.29
0.28
0.2
0.255
0.305
0.18
0.175
0.22
0.335
0.29
0.375
0.275
0.275
0.31
0.27
0.295
0.34
0.34
0.285
0.265
0.25
0.245
0.26
0.315
0.24
0.165
0.135
0.19
0.275
0.29
0.17
0.15
0.18
0.16
0.165
0.125
0.09
0.12
0.075
0.1
0.125
0.15
0.15
0.03
0.05
0.11
-0.01
-0.085
0.035
0.21
0.15
0.105
0.135
0.13
0.09
0.105
0.065
0.06
0.095
0.095
0.125
0.115
0.02
0.065
0.055
0.09
0.06
0.145
0.175
0.055
0.055
0.11
0.045
0.085
0.105
0.065
0.065
0.06
0.01
0.04
0.045
0.135
0.115
0.06
0.075
0.02
0.035
0.03
0.1
0.07
0.03
0.15
0.1
0.095
0.055
0.105
0.09
0.135
0.115
0.06
-0.01
0.075
0.125
0.12
0.13
0.12
0.035
0.05
0.125
0.12
0.105
0.125
0.14
0.12
0.175
0.15
0.12
0.05
0.055
0.065
0.1
0.07
0.08
0.135
0.04
0.025
0.14
0.13
0.1
0.155
0.075
0.02
0.035
0.1
0.12
0.045
0.03
0.03
0.12
0.11
0.11
0.075
0.105
0.08
0.095
0.06
0.085
0.12
0.105
0.12
0.1
0.085
0.14
0.13
0.035
0.11
0.05
0.115
0.0
-0.01
0.11
0.16
0.14
0.115
0.15
0.13
0.005
0.165
0.105
0.08
0.07
0.075
0.03
0.115
0.105
0.07
0.07
0.045
0.05
0.13
0.155
0.05
0.08
0.13
0.045
0.08
0.085
0.055
0.125
0.115
0.11
0.07
0.065
0.03
0.09
0.11
0.115
0.165
0.155
0.035
0.045
0.01
0.075
0.125
0.04
0.07
0.06
0.115
0.155
0.155
0.095
0.095
0.085
0.115
0.055
0.11
0.115
0.11
0.125
0.05
0.165
0.195
0.09
0.085
0.15
0.18
0.16
0.145
0.17
0.21
0.195
0.075
0.14
0.205
0.085
0.125
0.16
0.165
0.135
0.13
0.035
0.035
0.155
0.035
0.045
0.075
0.11
0.095
0.125
0.085
0.095
0.105
0.145
0.075
-0.005
0.025
0.07
0.015
-0.005
0.055
0.075
0.04
0.03
0.055
0.04
0.075
0.015
0.165
0.18
0.335
0.39
0.515
0.75
0.85
0.945
0.98
0.95
0.88
0.78
0.79
0.72
0.6
0.34
0.21
0.095
0.02
-0.005
0.02
-0.015
0.04
0.02
0.055
0.05
0.1
0.04
0.075
0.105
0.16
0.005
-0.015
0.045
0.125
0.035
0.04
0.05
0.075
0.14
0.07
0.045
0.11
0.11
0.04
0.07
0.005
0.065
0.085
0.035
-0.02
0.105
0.1
0.13
0.105
0.075
0.115
0.12
0.1
0.14
0.09
0.04
0.1
0.135
0.08
0.07
0.11
0.08
0.07
0.09
0.045
0.115
0.15
0.11
0.075
0.05
0.115
0.14
0.06
0.04
-0.005
0.075
0.125
0.2
0.205
0.125
0.12
0.125
0.19
0.1
0.095
0.125
0.18
0.175
0.205
0.175
0.115
0.155
0.145
0.16
0.24
0.2
0.195
0.175
0.21
0.215
0.18
0.285
0.325
0.225
0.235
0.27
0.23
0.365
0.28
0.125
0.26
0.31
0.295
0.275
0.315
0.275
0.34
0.22
0.3
0.26
0.275
0.355
0.3
0.24
0.245
0.295
0.25
0.26
0.295
0.26
0.3
0.23
0.215
0.265
0.245
0.115
0.225
0.17
0.15
0.175
0.18
0.205
0.24
0.135
0.145
0.215
0.105
0.11
0.115
0.135
0.125
0.11
0.12
0.18
0.12
0.145
0.065
0.12
0.045
0.12
0.065
0.125
0.105
0.08
0.165
0.125
0.115
0.13
0.09
0.13
0.075
0.135
0.14
0.085
0.115
0.09
0.095
0.14
0.08
0.055
0.145
0.19
0.105
0.12
0.125
0.09
0.105
0.15
0.135
0.08
0.115
0.095
0.205
0.12
0.15
0.15
0.2
0.04
0.075
0.11
0.105
0.155
0.125
0.065
0.09
0.14
0.02
0.125
0.185
0.175
0.105
0.075
0.19
0.145
0.15
0.125
0.16
0.055
0.15
0.125
0.115
0.03
0.145
0.13
0.16
0.17
0.125
0.135
0.1
0.115
0.125
0.1
0.13
0.145
0.155
0.18
0.11
0.175
0.095
0.095
0.085
0.1
0.125
0.16
0.185
0.115
0.155
0.16
0.145
0.12
0.125
0.105
0.09
0.105
0.105
0.155
0.085
0.1
0.04
0.145
0.15
0.13
0.15
0.105
0.065
0.125
0.13
0.17
0.11
0.09
0.085
0.16
0.17
0.155
0.095
0.14
0.115
0.1
0.105
0.105
0.155
0.115
0.135
0.175
0.14
0.075
0.1
0.065
0.095
0.165
0.125
0.08
0.07
0.16
0.19
0.19
0.245
0.1
0.07
0.07
0.08
0.095
0.105
0.115
0.125
0.13
0.125
0.135
0.125
0.105
0.095
0.09
0.135
0.1
0.12
0.13
0.115
0.11
0.145
0.175
0.24
0.15
0.12
0.16
0.175
0.18
0.165
0.165
0.15
0.19
0.205
0.195
0.16
0.1
0.095
0.155
0.245
0.16
0.21
0.18
0.135
0.2
0.165
0.155
0.145
0.03
0.1
0.19
0.12
0.11
0.09
0.13
0.115
0.125
0.1
0.09
0.085
0.185
0.065
0.095
0.125
0.04
0.095
0.075
0.055
0.155
0.06
0.095
0.135
0.15
0.21
0.28
0.315
0.395
0.555
0.91
0.945
1.03
1.05
0.97
0.86
0.81
0.795
0.735
0.62
0.44
0.23
0.04
0.11
-0.005
0.01
0.08
0.095
0.08
0.045
0.005
0.15
0.095
0.01
0.1
0.1
0.095
0.09
0.12
0.225
0.13
0.135
0.125
0.07
0.04
0.065
0.06
0.105
0.115
0.04
0.14
0.155
0.17
0.105
0.05
0.19
0.19
0.125
0.17
0.155
0.15
0.095
0.035
0.165
0.16
0.13
0.13
0.14
0.115
0.11
0.085
0.12
0.095
0.16
0.135
0.14
0.155
0.175
0.14
0.145
0.205
0.185
0.15
0.075
0.135
0.18
0.085
0.19
0.145
0.165
0.13
0.185
0.16
0.145
0.2
0.165
0.17
0.19
0.195
0.21
0.235
0.155
0.195
0.19
0.2
0.225
0.225
0.24
0.24
0.2
0.215
0.29
0.315
0.235
0.265
0.33
0.31
0.355
0.32
0.36
0.425
0.28
0.335
0.255
0.265
0.37
0.375
0.4
0.305
0.355
0.405
0.43
0.29
0.31
0.345
0.295
0.3
0.355
0.425
0.305
0.255
0.255
0.25
0.265
0.245
0.215
0.245
0.2
0.17
0.25
0.285
0.205
0.205
0.215
0.135
0.125
0.225
0.25
0.18
0.19
0.145
0.2
0.185
0.135
0.115
0.11
0.18
0.19
0.12
0.14
0.17
0.175
0.165
0.13
0.175
0.165
0.105
0.165
0.17
0.155
0.16
0.11
0.08
0.105
0.16
0.175
0.16
0.125
0.145
0.17
0.11
0.1
0.19
0.185
0.18
0.18
0.22
0.175
0.165
0.095
0.04
0.135
0.175
0.11
0.135
0.22
0.15
0.155
0.12
0.17
0.195
0.095
0.13
0.14
0.125
0.125
0.175
0.145
0.14
0.23
0.155
0.095
0.195
0.215
0.14
0.16
0.175
0.13
0.15
0.225
0.135
0.13
0.195
0.16
0.14
0.11
0.125
0.175
0.15
0.12
0.165
0.105
0.13
0.115
0.125
0.155
0.15
0.16
0.105
0.145
0.165
0.205
0.135
0.105
0.2
0.2
0.14
0.145
0.135
0.04
0.185
0.215
0.145
0.12
0.145
0.14
0.135
0.14
0.12
0.175
0.185
0.18
0.13
0.17
0.18
0.115
0.145
0.135
0.065
0.135
0.175
0.13
0.075
0.085
0.07
0.08
0.165
0.165
0.15
0.22
0.215
0.18
0.15
0.175
0.115
0.09
0.07
0.11
0.15
0.155
0.215
0.16
0.1
0.135
0.13
0.175
0.215
0.16
0.135
0.075
0.085
0.135
0.11
0.135
0.095
0.165
0.155
0.12
0.08
0.195
0.13
0.11
0.145
0.165
0.15
0.14
0.135
0.12
0.185
0.185
0.11
0.08
0.15
0.135
0.145
0.135
0.155
0.185
0.195
0.17
0.13
0.15
0.14
0.195
0.12
0.135
0.1
0.145
0.2
0.19
0.26
0.26
0.19
0.2
0.2
0.23
0.165
0.22
0.165
0.11
0.13
0.14
0.2
0.24
0.275
0.115
0.06
0.17
0.175
0.135
0.125
0.115
0.13
0.08
0.115
0.16
0.105
0.13
0.165
0.1
0.14
0.035
0.025
0.075
0.06
0.09
0.065
0.06
0.11
0.135
0.15
0.17
0.195
0.25
0.335
0.45
0.615
0.845
0.975
0.955
0.93
0.97
0.88
0.79
0.82
0.735
0.67
0.38
0.24
0.13
0.01
0.04
0.07
0.035
0.05
0.12
0.115
0.115
0.045
0.16
0.06
0.175
0.11
0.08
0.085
0.08
0.095
0.06
0.09
0.085
0.12
0.14
0.07
0.145
0.09
0.12
0.095
0.07
0.14
0.105
0.13
0.13
0.14
0.12
0.17
0.21
0.185
0.13
0.08
0.11
0.17
0.115
0.04
0.075
0.14
0.115
0.14
0.075
0.075
0.165
0.21
0.11
0.09
0.14
0.175
0.125
0.155
0.11
0.1
0.12
0.155
0.16
0.21
0.195
0.125
0.09
0.175
0.16
0.12
0.135
0.15
0.155
0.14
0.16
0.13
0.245
0.26
0.175
0.16
0.245
0.255
0.24
0.25
0.24
0.14
0.155
0.265
0.225
0.285
0.285
0.245
0.28
0.3
0.275
0.27
0.31
0.335
0.335
0.415
0.335
0.205
0.285
0.305
0.315
0.325
0.3
0.36
0.37
0.29
0.255
0.245
0.33
0.31
0.275
0.345
0.29
0.33
0.285
0.27
0.27
0.22
0.185
0.31
0.215
0.19
0.21
0.255
0.225
0.195
0.145
0.11
0.12
0.185
0.175
0.2
0.175
0.09
0.12
0.165
0.13
0.13
0.12
0.165
0.075
0.065
0.055
0.05
0.045
0.215
0.14
0.125
0.06
0.145
0.01
0.19
0.13
0.135
0.04
0.085
0.145
0.12
0.135
0.185
0.125
0.075
0.1
0.08
0.1
0.13
0.055
0.09
0.17
0.155
0.15
0.12
0.06
0.03
0.07
0.17
0.17
0.13
0.2
0.105
0.075
0.105
0.09
0.075
0.18
0.15
0.12
0.07
0.105
0.095
0.115
0.155
0.045
0.085
0.155
0.195
0.07
0.14
0.115
0.135
0.075
0.1
0.165
0.21
0.085
0.1
0.115
0.14
0.12
0.15
0.085
-0.02
0.02
0.215
0.17
0.12
0.14
0.14
0.09
0.11
0.13
0.115
0.135
0.135
0.06
0.105
0.155
0.055
0.125
0.08
0.185
0.1
0.13
0.14
0.085
0.06
0.13
0.085
0.075
0.065
0.105
0.1
0.085
0.145
0.11
0.065
0.105
0.095
0.06
0.135
0.085
0.11
0.085
0.08
0.15
0.115
0.135
0.095
0.12
0.13
0.115
0.09
0.175
0.15
0.025
0.015
0.01
0.06
0.095
0.105
0.14
0.165
0.105
0.04
0.125
0.08
0.11
0.03
-0.03
0.19
0.085
0.11
0.115
0.155
0.125
0.13
0.135
0.06
0.085
0.075
0.13
0.12
0.155
0.115
0.11
0.105
0.1
0.155
0.12
0.105
0.175
0.135
0.15
0.22
0.155
0.115
0.155
0.18
0.165
0.16
0.21
0.195
0.1
0.15
0.16
0.14
0.095
0.06
0.05
0.15
0.105
0.11
0.075
0.095
0.02
0.08
0.175
0.12
0.105
0.08
0.145
0.045
0.09
0.04
0.015
0.065
0.2
0.145
0.0
0.03
0.095
0.045
0.025
0.085
0.005
0.04
0.015
0.015
0.16
0.21
0.28
0.375
0.545
0.625
0.76
0.85
0.91
0.88
0.83
0.8
0.78
0.685
0.62
0.36
0.065
-0.005
0.005
-0.025
-0.01
0.05
0.02
0.035
0.085
0.095
0.07
0.065
0.05
0.12
0.055
0.085
0.01
0.05
0.035
0.085
0.08
0.05
0.02
0.055
0.125
0.06
0.055
0.1
0.04
0.035
0.21
0.165
0.16
0.05
0.02
0.05
0.06
0.09
0.05
0.035
0.125
0.135
0.085
0.065
0.1
0.075
0.095
0.145
0.125
0.09
0.085
0.075
0.07
0.1
0.055
0.1
0.065
0.12
0.125
0.145
0.105
0.1
0.09
0.07
0.12
0.13
0.115
0.07
0.155
0.195
0.11
0.19
0.14
0.045
0.105
0.115
0.23
0.18
0.095
0.185
0.19
0.17
0.115
0.17
0.155
0.22
0.175
0.215
0.235
0.175
0.2
0.22
0.245
0.275
0.33
0.285
0.29
0.29
0.375
0.285
0.26
0.28
0.27
0.27
0.305
0.33
0.315
0.255
0.33
0.33
0.305
0.3
0.32
0.28
0.3
0.31
0.255
0.3
0.23
0.205
0.21
0.18
0.155
0.25
0.2
0.15
0.195
0.185
0.175
0.125
0.15
0.115
0.09
0.155
0.09
0.145
0.16
0.125
0.11
0.11
0.155
0.115
0.12
0.08
0.1
0.085
0.03
0.05
0.115
0.135
0.135
0.15
0.16
0.04
0.085
0.17
0.1
0.08
0.105
0.1
0.09
-0.045
0.085
0.085
0.13
0.125
0.115
0.055
0.025
0.125
0.075
0.05
0.04
0.05
0.09
0.115
0.085
0.095
0.07
0.02
0.07
0.155
0.1
0.075
0.09
0.07
0.09
0.115
0.15
0.09
0.075
0.12
0.085
0.1
0.07
0.09
0.125
0.03
0.17
0.04
0.065
0.125
0.155
0.225
0.155
0.11
0.085
0.085
0.11
0.115
0.12
0.12
0.04
0.015
0.1
0.09
0.09
0.12
0.095
0.08
0.17
0.095
0.11
0.04
0.085
0.11
0.095
0.105
0.125
0.115
0.075
0.155
0.095
0.06
-0.005
0.07
0.195
0.16
0.105
0.12
0.135
0.09
0.115
0.025
0.08
0.125
0.085
0.015
0.11
0.14
0.13
0.125
0.045
0.095
0.135
0.12
0.115
0.03
0.105
0.135
0.055
0.09
0.085
-0.005
0.06
0.14
0.2
0.11
0.07
0.085
0.08
0.145
0.085
0.11
0.075
0.12
0.085
0.075
0.075
0.085
0.08
0.075
0.035
0.095
0.105
0.18
0.115
0.08
0.07
0.025
0.11
0.19
0.145
0.06
0.09
0.14
0.09
0.04
0.135
0.105
0.16
0.165
0.115
0.05
0.12
0.19
0.26
0.135
0.145
0.115
0.195
0.17
0.125
0.225
0.155
0.205
0.115
0.085
0.09
0.12
0.14
0.065
0.11
0.06
0.035
0.12
0.125
0.155
0.03
0.05
0.05
0.115
0.06
0.105
0.095
0.11
0.08
0.04
0.0
0.07
0.025
-0.015
0.035
0.01
0.055
0.12
0.21
0.15
0.115
0.155
0.345
0.515
0.525
0.7
0.875
0.98
0.93
0.93
0.9
0.815
0.77
0.63
0.55
0.39
0.235
0.115
0.055
0.05
0.05
0.03
0.07
0.025
0.06
0.05
0.095
0.03
-0.015
0.045
0.045
0.095
0.03
0.055
0.14
0.165
0.13
0.07
0.095
0.11
0.08
0.08
0.1
0.03
0.015
0.045
0.11
0.015
0.03
0.025
0.09
0.135
0.12
0.125
0.105
0.075
0.075
0.11
0.095
0.08
0.07
0.13
0.08
0.12
0.085
0.075
0.015
0.075
0.145
0.12
0.09
0.1
0.115
0.17
0.1
-0.01
0.04
0.02
0.19
0.16
0.19
0.125
0.075
0.065
0.1
0.08
0.15
0.145
0.08
0.13
0.15
0.165
0.15
0.165
0.15
0.19
0.175
0.185
0.21
0.14
0.155
0.155
0.12
0.16
0.305
0.32
0.175
0.185
0.25
0.325
0.265
0.235
0.3
0.27
0.28
0.26
0.31
0.255
0.265
0.315
0.285
0.265
0.29
0.295
0.305
0.285
0.285
0.3
0.315
0.27
0.235
0.235
0.295
0.265
0.29
0.265
0.195
0.23
0.165
0.22
0.21
0.185
0.175
0.16
0.195
0.14
0.12
0.2
0.165
0.095
0.085
0.085
0.045
0.15
0.225
0.115
0.08
0.09
0.155
0.115
0.12
0.18
0.11
0.185
0.125
0.0
0.12
0.105
0.045
0.14
0.17
0.085
0.13
0.085
0.115
0.11
0.015
0.13
0.21
0.11
0.125
0.085
0.035
0.095
0.15
0.1
0.05
0.095
0.15
0.095
0.15
0.1
0.095
0.12
0.04
0.045
0.165
0.155
0.085
0.125
0.16
0.13
0.115
0.11
0.11
0.095
0.1
0.135
0.095
0.14
0.13
0.045
0.11
0.12
0.12
0.205
0.18
0.13
0.12
0.105
0.12
0.125
0.145
0.11
0.12
0.17
0.065
0.11
0.13
0.14
0.135
0.125
0.13
0.19
0.145
0.12
0.155
0.19
0.15
0.16
0.115
0.08
0.1
0.165
0.14
0.08
0.105
0.115
0.15
0.11
0.14
0.14
0.15
0.13
0.085
0.17
0.165
0.095
0.165
0.07
0.12
0.115
0.07
0.17
0.165
0.13
0.115
0.14
0.075
0.13
0.11
0.135
0.155
0.17
0.1
0.12
0.155
0.11
0.145
0.175
0.175
0.14
0.075
0.02
0.165
0.15
0.095
0.18
0.165
0.1
0.115
0.135
0.09
0.145
0.19
0.135
0.12
0.1
0.105
0.115
0.22
0.125
0.115
0.165
0.08
0.065
0.165
0.15
0.155
0.165
0.21
0.14
0.155
0.165
0.14
0.1
0.115
0.12
0.07
0.035
0.12
0.145
0.15
0.09
0.175
0.14
0.135
0.185
0.2
0.135
0.185
0.215
0.145
0.175
0.22
0.215
0.19
0.165
0.185
0.165
0.2
0.16
0.18
0.2
0.15
0.18
0.155
0.235
0.215
0.22
0.165
0.19
0.155
0.155
0.145
0.195
0.13
0.06
0.11
0.16
0.11
0.105
0.13
0.07
0.16
0.115
0.115
0.08
0.12
0.15
0.095
0.11
0.135
0.045
0.03
0.17
0.165
0.13
0.07
0.15
0.315
0.335
0.435
0.52
0.74
0.915
1.03
1.065
0.99
1.0
0.88
0.85
0.755
0.705
0.505
0.325
0.22
0.15
0.085
0.115
0.085
0.04
0.08
0.04
0.015
0.11
0.165
0.11
0.08
0.075
0.115
0.13
0.065
0.16
0.16
0.2
0.23
0.14
0.125
0.07
0.125
0.215
0.23
0.075
0.1
0.07
0.14
0.165
0.115
0.16
0.165
0.18
0.175
0.11
0.115
0.175
0.135
0.125
0.03
0.16
0.175
0.115
0.155
0.155
0.21
0.185
0.16
0.145
0.11
0.135
0.18
0.155
0.185
0.17
0.23
0.14
0.115
0.16
0.18
0.13
0.125
0.18
0.165
0.135
0.16
0.15
0.145
0.17
0.235
0.2
0.195
0.145
0.18
0.16
0.165
0.235
0.245
0.205
0.2
0.275
0.26
0.17
0.18
0.225
0.305
0.35
0.295
0.24
0.22
0.375
0.33
0.36
0.335
0.32
0.295
0.37
0.38
0.385
0.41
0.34
0.29
0.445
0.355
0.34
0.39
0.375
0.305
0.28
0.29
0.37
0.365
0.3
0.37
0.325
0.26
0.33
0.255
0.21
0.245
0.305
0.235
0.25
0.235
0.175
0.225
0.355
0.24
0.165
0.2
0.19
0.225
0.245
0.175
0.185
0.22
0.2
0.17
0.21
0.19
0.235
0.155
0.13
0.13
0.195
0.21
0.2
0.165
0.18
0.22
0.17
0.12
0.07
0.165
0.17
0.125
0.135
0.095
0.205
0.165
0.175
0.22
0.175
0.195
0.165
0.15
0.17
0.11
0.105
0.13
0.26
0.16
0.105
0.245
0.165
0.155
0.2
0.18
0.15
0.21
0.175
0.18
0.18
0.13
0.185
0.165
0.185
0.19
0.21
0.165
0.12
0.135
0.22
0.195
0.17
0.08
0.14
0.255
0.155
0.14
0.205
0.175
0.125
0.245
0.18
0.15
0.225
0.19
0.17
0.145
0.12
0.14
0.165
0.21
0.185
0.17
0.185
0.155
0.22
0.195
0.17
0.19
0.15
0.2
0.17
0.205
0.16
0.17
0.175
0.195
0.14
0.135
0.18
0.19
0.2
0.235
0.185
0.16
0.15
0.13
0.185
0.2
0.215
0.2
0.24
0.255
0.145
0.125
0.175
0.205
0.17
0.175
0.195
0.185
0.195
0.18
0.155
0.215
0.26
0.205
0.175
0.2
0.25
0.15
0.19
0.175
0.185
0.195
0.235
0.26
0.26
0.26
0.23
0.16
0.2
0.2
0.26
0.215
0.26
0.245
0.185
0.195
0.235
0.275
0.29
0.285
0.27
0.28
0.27
0.245
0.25
0.24
0.295
0.335
0.265
0.17
0.22
0.275
0.315
0.325
0.24
0.32
0.275
0.315
0.295
0.37
0.305
0.3
0.32
0.255
0.28
0.275
0.3
0.32
0.265
0.255
0.27
0.34
0.29
0.255
0.3
0.355
0.28
0.275
0.325
0.27
0.325
0.31
0.315
0.34
0.29
0.275
0.33
0.315
0.275
0.305
0.36
0.265
0.33
0.325
0.43
0.455
0.405
0.375
0.335
0.325
0.35
0.385
0.405
0.385
0.39
0.365
0.305
0.285
0.34
0.36
0.445
0.41
0.37
0.365
0.325
0.265
0.33
0.29
0.28
0.305
0.33
0.335
0.325
0.315
0.265
0.32
0.37
0.255
0.33
0.395
0.32
0.34
0.33
0.33
0.24
0.25
0.245
0.275
0.23
0.22
0.285
0.25
0.305
0.37
0.435
0.515
0.595
0.655
0.82
1.075
1.14
1.255
1.12
1.125
1.095
1.01
0.94
0.84
0.65
0.555
0.42
0.35
0.325
0.27
0.235
0.295
0.29
0.38
0.395
0.26
0.22
0.295
0.27
0.25
0.325
0.28
0.32
0.295
0.335
0.335
0.3
0.27
0.28
0.28
0.405
0.37
0.32
0.305
0.29
0.27
0.335
0.33
0.29
0.28
0.285
0.335
0.335
0.36
0.305
0.355
0.455
0.345
0.275
0.315
0.395
0.32
0.325
0.33
0.32
0.345
0.32
0.365
0.32
0.255
0.34
0.41
0.375
0.355
0.32
0.335
0.365
0.395
0.335
0.3
0.395
0.385
0.36
0.335
0.36
0.385
0.33
0.385
0.415
0.465
0.395
0.4
0.395
0.445
0.32
0.35
0.41
0.5
0.425
0.39
0.395
0.48
0.4
0.415
0.455
0.485
0.5
0.51
0.51
0.555
0.465
0.42
0.53
0.54
0.525
0.465
0.55
0.535
0.575
0.55
0.55
0.58
0.595
0.58
0.52
0.61
0.51
0.475
0.59
0.52
0.535
0.5
0.52
0.495
0.535
0.52
0.575
0.525
0.45
0.415
0.44
0.4
0.52
0.43
0.475
0.415
0.455
0.36
0.425
0.4
0.365
0.37
0.405
0.315
0.35
0.315
0.42
0.42
0.395
0.345
0.34
0.36
0.36
0.375
0.375
0.355
0.355
0.37
0.345
0.34
0.35
0.28
0.315
0.32
0.46
0.38
0.315
0.315
0.37
0.385
0.38
0.385
0.335
0.355
0.355
0.26
0.385
0.395
0.385
0.38
0.36
0.325
0.295
0.29
0.36
0.35
0.33
0.395
0.375
0.355
0.375
0.32
0.305
0.405
0.435
0.38
0.295
0.3
0.445
0.365
0.385
0.375
0.37
0.32
0.36
0.415
0.325
0.39
0.375
0.35
0.31
0.395
0.38
0.355
0.345
0.39
0.41
0.37
0.36
0.29
0.27
0.355
0.435
0.355
0.365
0.365
0.38
0.365
0.34
0.36
0.335
0.37
0.425
0.405
0.315
0.4
0.415
0.39
0.37
0.42
0.38
0.41
0.36
0.31
0.375
0.345
0.33
0.295
0.23
0.375
0.425
0.395
0.37
0.42
0.345
0.37
0.32
0.325
0.41
0.355
0.28
0.36
0.355
0.38
0.42
0.36
0.345
0.42
0.345
0.35
0.37
0.345
0.355
0.365
0.35
0.34
0.37
0.37
0.37
0.46
0.32
0.36
0.35
0.355
0.405
0.375
0.285
0.41
0.385
0.365
0.335
0.345
0.365
0.37
0.34
0.355
0.355
0.37
0.345
0.37
0.39
0.375
0.425
0.37
0.335
0.33
0.4
0.265
0.41
0.405
0.415
0.32
0.405
0.45
0.435
0.415
0.335
0.34
0.425
0.41
0.405
0.43
0.43
0.41
0.445
0.475
0.435
0.42
0.45
0.415
0.395
0.42
0.45
0.42
0.425
0.385
0.345
0.32
0.33
0.355
0.37
0.38
0.375
0.415
0.38
0.405
0.38
0.37
0.345
0.34
0.325
0.35
0.345
0.355
0.38
0.37
0.33
0.29
0.37
0.39
0.345
0.42
0.37
0.4
0.46
0.545
0.675
0.79
1.015
1.175
1.195
1.12
1.16
1.105
1.045
1.05
0.89
0.705
0.53
0.37
0.34
0.27
0.31
0.205
0.255
0.28
0.31
0.345
0.275
0.41
0.415
0.35
0.385
0.42
0.39
0.36
0.38
0.41
0.385
0.34
0.4
0.425
0.36
0.385
0.335
0.39
0.335
0.38
0.37
0.38
0.385
0.375
0.365
0.365
0.395
0.36
0.36
0.405
0.43
0.385
0.34
0.345
0.385
0.43
0.415
0.425
0.41
0.47
0.355
0.345
0.395
0.465
0.465
0.49
0.44
0.455
0.35
0.37
0.47
0.44
0.355
0.415
0.42
0.395
0.365
0.465
0.49
0.545
0.475
0.46
0.45
0.45
0.47
0.425
0.455
0.44
0.505
0.44
0.405
0.425
0.5
0.46
0.5
0.57
0.55
0.555
0.575
0.555
0.55
0.535
0.52
0.57
0.59
0.65
0.59
0.63
0.625
0.64
0.59
0.615
0.655
0.62
0.58
0.63
0.64
0.625
0.595
0.64
0.665
0.62
0.625
0.725
0.54
0.66
0.76
0.605
0.6
0.545
0.585
0.58
0.605
0.59
0.51
0.46
0.56
0.44
0.48
0.465
0.485
0.43
0.53
0.545
0.515
0.44
0.47
0.47
0.49
0.495
0.44
0.485
0.46
0.44
0.43
0.47
0.485
0.435
0.435
0.46
0.425
0.485
0.455
0.44
0.465
0.42
0.385
0.435
0.41
0.44
0.455
0.54
0.56
0.515
0.425
0.47
0.44
0.39
0.38
0.405
0.505
0.43
0.465
0.42
0.44
0.5
0.47
0.435
0.435
0.435
0.5
0.525
0.425
0.425
0.47
0.485
0.52
0.475
0.445
0.42
0.48
0.47
0.46
0.475
0.47
0.43
0.395
0.465
0.47
0.51
0.49
0.48
0.575
0.535
0.535
0.54
0.525
0.5
0.465
0.445
0.48
0.51
0.445
0.48
0.58
0.49
0.465
0.565
0.52
0.535
0.545
0.495
0.495
0.565
0.525
0.5
0.525
0.495
0.5
0.515
0.465
0.455
0.55
0.56
0.385
0.48
0.575
0.6
0.515
0.54
0.505
0.485
0.5
0.55
0.595
0.51
0.53
0.48
0.515
0.475
0.575
0.54
0.545
0.53
0.575
0.525
0.49
0.48
0.525
0.575
0.545
0.51
0.565
0.55
0.535
0.58
0.58
0.565
0.52
0.5
0.5
0.57
0.565
0.525
0.495
0.605
0.575
0.51
0.555
0.625
0.555
0.555
0.595
0.605
0.64
0.63
0.545
0.5
0.515
0.68
0.62
0.505
0.52
0.59
0.64
0.65
0.66
0.665
0.715
0.66
0.635
0.665
0.63
0.665
0.615
0.68
0.71
0.635
0.665
0.655
0.665
0.66
0.625
0.685
0.62
0.69
0.7
0.605
0.675
0.61
0.575
0.54
0.61
0.63
0.63
0.7
0.58
0.575
0.62
0.585
0.61
0.595
0.615
0.645
0.565
0.61
0.645
0.53
0.49
0.61
0.64
0.625
0.615
0.685
0.68
0.71
0.805
0.88
0.965
1.115
1.325
1.49
1.605
1.55
1.55
1.52
1.475
1.36
1.285
1.11
0.95
0.805
0.725
0.61
0.635
0.685
0.675
0.6
0.64
0.68
0.715
0.725
0.715
0.74
0.705
0.64
0.75
0.735
0.73
0.765
0.75
0.77
0.77
0.74
0.745
0.73
0.715
0.735
0.82
0.82
0.76
0.775
0.77
0.77
0.825
0.77
0.835
0.815
0.825
0.84
0.835
0.835
0.815
0.82
0.81
0.85
0.86
0.805
0.845
0.86
0.865
0.805
0.85
0.935
0.88
0.875
0.91
0.885
0.865
0.84
0.895
0.88
0.89
0.93
0.92
0.905
0.925
0.93
0.935
0.875
0.955
0.905
0.895
0.995
0.965
0.94
0.945
0.92
0.94
0.98
0.975
0.95
1.02
1.055
1.035
1.055
1.04
0.995
1.03
1.055
1.025
1.05
1.13
1.07
1.13
1.135
1.15
1.135
1.17
1.185
1.18
1.2
1.24
1.205
1.215
1.2
1.19
1.235
1.23
1.215
1.16
1.215
1.315
1.275
1.22
1.255
1.26
1.24
1.265
1.275
1.28
1.24
1.18
1.19
1.165
0.975
0.85
0.88
0.83
0.745
0.725
0.65
0.62
0.58
0.58
0.65
0.58
0.48
0.495
0.49
0.46
0.465
0.475
0.465
0.5
0.43
0.355
0.33
0.4
0.44
0.39
0.36
0.42
0.32
0.405
0.355
0.37
0.32
0.33
0.295
0.335
0.315
0.3
0.405
0.325
0.28
0.325
0.34
0.37
0.305
0.245
0.285
0.26
0.24
0.2
0.34
0.265
0.26
0.25
0.22
0.19
0.225
0.275
0.24
0.175
0.235
0.27
0.25
0.265
0.205
0.19
0.2
0.21
0.225
0.2
0.24
0.22
0.27
0.235
0.16
0.145
0.24
0.23
0.235
0.235
0.145
0.205
0.16
0.135
0.19
0.165
0.135
0.265
0.225
0.12
0.16
0.145
0.155
0.15
0.14
0.155
0.145
0.205
0.235
0.22
0.13
0.125
0.1
0.155
0.195
0.125
0.21
0.21
0.075
0.105
0.145
0.175
0.145
0.16
0.165
0.11
0.19
0.15
0.135
0.165
0.14
0.14
0.165
0.145
0.11
0.095
0.14
0.11
0.085
0.115
0.135
0.13
0.11
0.075
0.13
0.05
0.1
0.1
0.14
0.16
0.08
0.1
0.19
0.11
0.05
0.0
-0.005
0.13
0.115
0.16
0.16
0.09
0.105
0.08
0.135
0.105
0.105
0.085
0.125
0.095
0.04
0.05
0.15
0.1
0.08
0.075
0.04
0.1
0.115
0.12
0.065
0.07
0.085
0.075
0.145
0.165
0.16
0.16
0.075
0.095
0.155
0.1
0.09
0.07
0.155
0.21
0.21
0.21
0.135
0.15
0.15
0.15
0.15
0.095
0.105
0.075
0.105
0.1
0.075
0.0
0.1
0.13
0.1
0.08
0.065
0.04
0.01
0.085
0.11
0.06
0.05
0.09
0.055
0.055
0.025
-0.01
-0.09
-0.01
0.045
0.06
0.015
0.05
-0.065
0.0
0.145
0.26
0.33
0.425
0.63
0.81
0.94
1.04
1.01
0.905
0.815
0.755
0.75
0.61
0.46
0.265
0.18
0.065
0.015
0.05
0.0
0.01
-0.03
0.06
0.025
0.075
0.07
0.025
0.04
0.035
0.015
0.02
0.035
0.065
0.025
-0.01
-0.025
0.055
-0.005
0.095
0.08
0.095
0.065
0.04
0.04
-0.04
0.045
0.1
0.08
0.07
0.1
-0.045
0.08
0.16
0.095
0.115
0.025
0.015
-0.005
-0.01
0.135
0.06
0.02
0.115
0.115
0.065
-0.005
0.005
0.055
0.03
0.015
0.015
0.085
0.08
0.045
0.07
0.115
0.025
0.105
0.105
0.13
0.085
0.08
0.1
0.08
0.075
0.015
0.095
0.145
0.1
0.09
0.12
0.165
0.155
0.13
0.145
0.08
0.055
0.135
0.12
0.22
0.165
0.17
0.245
0.185
0.13
0.115
0.145
0.235
0.27
0.22
0.18
0.16
0.23
0.275
0.3
0.22
0.295
0.265
0.275
0.225
0.29
0.31
0.295
0.22
0.32
0.24
0.23
0.22
0.29
0.23
0.18
0.16
0.305
0.255
0.235
0.22
0.145
0.13
0.155
0.14
0.215
0.185
0.09
0.11
0.145
0.1
0.07
0.075
0.08
0.045
-0.005
0.08
0.08
0.11
0.05
0.115
0.14
0.08
0.05
0.1
0.07
0.06
0.05
0.03
0.05
0.08
0.07
-0.01
0.08
0.085
0.125
0.12
0.02
-0.065
0.065
0.02
0.14
0.105
0.05
0.06
0.12
0.055
0.055
0.015
-0.05
0.035
0.055
0.04
-0.005
0.075
0.06
0.07
0.035
-0.035
0.06
0.06
0.075
0.04
0.075
0.045
0.045
-0.03
0.035
0.065
-0.02
-0.01
0.075
0.055
0.105
0.05
0.12
0.055
0.02
0.055
-0.025
-0.005
-0.02
0.01
0.065
0.02
0.055
-0.015
0.04
0.07
-0.005
-0.015
0.01
0.045
0.0
-0.055
0.075
0.055
0.01
0.025
-0.005
-0.03
0.02
0.055
0.08
0.005
0.005
-0.05
-0.05
-0.065
0.07
0.04
0.01
0.04
-0.055
-0.035
-0.065
-0.005
0.03
-0.035
0.01
-0.03
-0.05
0.005
-0.04
0.05
0.055
0.05
-0.01
-0.015
-0.075
-0.065
-0.02
0.025
-0.03
-0.005
-0.025
-0.025
-0.01
0.045
-0.045
-0.065
0.055
0.025
-0.04
0.05
-0.1
-0.12
-0.125
-0.025
0.02
-0.04
-0.045
-0.055
-0.02
0.025
-0.01
0.025
-0.015
-0.04
0.02
-0.07
-0.065
0.075
-0.005
-0.05
-0.055
-0.055
-0.01
-0.045
0.005
-0.005
-0.065
-0.01
0.055
0.08
-0.02
-0.085
-0.055
-0.055
-0.105
0.025
0.03
-0.005
-0.025
0.02
0.065
-0.06
-0.01
-0.01
0.015
0.005
-0.005
-0.035
0.03
0.025
0.045
0.05
0.125
0.105
-0.035
-0.035
-0.02
0.01
-0.015
-0.02
-0.04
-0.055
-0.03
-0.03
-0.085
-0.045
-0.015
0.015
-0.07
-0.07
-0.07
-0.07
-0.06
-0.035
-0.05
-0.09
-0.045
-0.04
-0.05
-0.01
-0.125
-0.155
-0.12
-0.065
0.03
-0.075
-0.105
-0.015
0.12
0.13
0.185
0.38
0.575
0.645
0.72
0.82
0.755
0.725
0.625
0.62
0.505
0.365
0.195
0.02
-0.115
-0.105
-0.105
-0.14
-0.155
-0.205
-0.12
-0.125
-0.1
-0.01
-0.095
0.0
-0.045
-0.09
-0.1
-0.015
0.03
-0.03
-0.08
-0.07
-0.085
-0.03
-0.035
-0.04
-0.04
-0.12
-0.08
-0.02
-0.035
-0.09
0.01
-0.005
-0.095
-0.11
-0.015
-0.03
-0.06
-0.06
-0.095
-0.06
0.045
0.02
-0.025
0.03
-0.02
0.01
0.07
-0.03
0.04
-0.01
0.04
-0.09
-0.06
-0.035
0.025
0.035
0.0
0.025
0.05
0.07
-0.005
0.015
0.075
0.06
0.12
0.045
0.02
-0.025
0.02
-0.01
0.005
0.04
-0.045
0.005
0.075
-0.01
0.02
-0.005
0.155
0.145
0.1
0.13
0.105
0.18
0.165
0.16
0.09
0.155
0.225
0.21
0.205
0.195
0.225
0.25
0.24
0.23
0.22
0.215
0.225
0.25
0.275
0.275
0.275
0.335
0.37
0.335
0.275
0.295
0.245
0.21
0.28
0.29
0.31
0.37
0.295
0.36
0.32
0.235
0.2
0.3
0.3
0.335
0.32
0.32
0.25
0.22
0.21
0.205
0.245
0.26
0.225
0.2
0.255
0.305
0.2
0.23
0.17
0.15
0.225
0.18
0.145
0.165
0.24
0.21
0.265
0.25
0.215
0.255
0.22
0.115
0.175
0.215
0.27
0.245
0.205
0.155
0.17
0.12
0.17
0.225
0.18
0.125
0.15
0.18
0.155
0.17
0.035
0.045
0.125
0.09
0.135
0.105
0.06
0.2
0.13
0.065
0.185
0.14
0.115
0.03
0.17
0.115
0.04
0.075
0.065
0.165
0.125
0.12
0.15
0.105
0.08
0.155
0.08
0.105
0.145
0.15
0.16
0.13
0.13
0.115
0.08
0.095
0.19
0.17
0.175
0.175
0.135
0.18
0.145
0.16
0.12
0.065
0.16
0.22
0.18
0.17
0.24
0.11
0.2
0.15
0.145
0.145
0.205
0.195
0.18
0.1
0.125
0.185
0.16
0.22
0.195
0.11
0.165
0.205
0.155
0.19
0.225
0.125
0.07
0.25
0.21
0.17
0.235
0.155
0.25
0.185
0.12
0.17
0.195
0.21
0.22
0.21
0.21
0.18
0.275
0.255
0.175
0.235
0.235
0.31
0.23
0.255
0.245
0.295
0.27
0.22
0.25
0.2
0.28
0.245
0.25
0.285
0.27
0.27
0.26
0.31
0.355
0.3
0.255
0.325
0.305
0.325
0.365
0.375
0.385
0.385
0.345
0.35
0.405
0.415
0.355
0.37
0.395
0.44
0.385
0.34
0.315
0.375
0.335
0.335
0.385
0.39
0.445
0.325
0.37
0.365
0.28
0.31
0.415
0.32
0.25
0.355
0.345
0.34
0.35
0.395
0.39
0.385
0.36
0.37
0.295
0.275
0.305
0.37
0.395
0.355
0.31
0.355
0.4
0.475
0.485
0.605
0.775
0.835
0.995
1.155
1.265
1.275
1.235
1.24
1.1
1.09
1.06
0.91
0.72
0.545
0.455
0.31
0.26
0.235
0.48
0.435
0.41
0.425
0.405
0.43
0.44
0.43
0.465
0.445
0.505
0.55
0.5
0.52
0.55
0.505
0.54
0.5
0.495
0.545
0.51
0.54
0.575
0.485
0.475
0.505
0.555
0.545
0.6
0.545
0.49
0.55
0.575
0.53
0.565
0.585
0.54
0.565
0.555
0.565
0.58
0.61
0.665
0.635
0.545
0.565
0.565
0.55
0.58
0.59
0.62
0.685
0.6
0.665
0.615
0.7
0.66
0.62
0.69
0.705
0.63
0.66
0.705
0.72
0.73
0.645
0.56
0.66
0.68
0.645
0.66
0.67
0.735
0.625
0.715
0.745
0.65
0.7
0.68
0.665
0.67
0.57
0.66
0.635
0.575
0.615
0.65
0.635
0.555
0.555
0.56
0.66
0.605
0.56
0.69
0.7
0.655
0.67
0.735
0.74
0.665
0.67
0.62
0.705
0.645
0.695
0.635
0.69
0.725
0.65
0.64
0.665
0.65
0.635
0.655
0.705
0.66
0.62
0.61
0.685
0.63
0.59
0.6
0.595
0.545
0.535
0.59
0.605
0.49
0.465
0.565
0.625
0.53
0.615
0.59
0.565
0.615
0.62
0.655
0.555
0.655
0.66
0.635
0.57
0.6
0.58
0.625
0.64
0.63
0.605
0.6
0.595
0.605
0.52
0.47
0.475
0.49
0.47
0.425
0.38
0.385
0.395
0.38
0.29
0.25
0.27
0.34
0.325
0.325
0.335
0.375
0.235
0.24
0.24
0.175
0.19
0.165
0.2
0.245
0.275
0.23
0.235
0.21
0.21
0.24
0.17
0.14
0.285
0.335
0.33
0.315
0.31
0.27
0.28
0.315
0.33
0.33
0.325
0.39
0.38
0.45
0.475
0.38
0.395
0.485
0.465
0.4
0.39
0.415
0.435
0.41
0.405
0.365
0.385
0.395
0.42
0.3
0.375
0.475
0.435
0.36
0.365
0.36
0.41
0.425
0.415
0.4
0.355
0.36
0.335
0.345
0.31
0.33
0.315
0.395
0.425
0.44
0.42
0.33
0.3
0.39
0.41
0.475
0.53
0.42
0.51
0.405
0.485
0.48
0.44
0.465
0.37
0.345
0.32
0.41
0.44
0.425
0.365
0.37
0.375
0.395
0.33
0.47
0.435
0.35
0.38
0.36
0.34
0.33
0.32
0.385
0.34
0.34
0.325
0.35
0.325
0.385
0.38
0.405
0.465
0.45
0.445
0.445
0.485
0.47
0.505
0.56
0.43
0.375
0.515
0.445
0.48
0.53
0.455
0.475
0.435
0.455
0.485
0.585
0.565
0.515
0.5
0.52
0.51
0.535
0.505
0.495
0.54
0.53
0.52
0.595
0.575
0.505
0.57
0.54
0.61
0.565
0.625
0.665
0.615
0.62
0.61
0.56
0.55
0.585
0.65
0.645
0.525
0.595
0.52
0.58
0.59
0.525
0.515
0.525
0.55
0.59
0.575
0.535
0.605
0.62
0.585
0.555
0.54
0.605
0.545
0.485
0.53
0.52
0.545
0.56
0.495
0.45
0.555
0.505
0.52
0.505
0.6
0.57
0.69
0.78
0.83
0.86
1.085
1.295
1.37
1.5
1.5
1.42
1.405
1.38
1.28
1.225
1.17
0.92
0.775
0.675
0.57
0.58
0.605
0.58
0.515
0.59
0.665
0.67
0.625
0.575
0.575
0.605
0.59
0.605
0.58
0.635
0.63
0.58
0.585
0.545
0.645
0.645
0.615
0.595
0.6
0.61
0.6
0.62
0.61
0.635
0.625
0.74
0.72
0.68
0.615
0.64
0.65
0.715
0.69
0.65
0.56
0.63
0.685
0.81
0.68
0.725
0.62
0.66
0.725
0.76
0.69
0.66
0.73
0.74
0.78
0.8
0.67
0.67
0.675
0.8
0.79
0.77
0.8
0.82
0.885
0.88
0.82
0.815
0.825
0.82
0.89
0.915
0.86
0.885
0.925
0.925
0.92
0.86
0.895
0.92
0.895
0.91
0.945
0.825
0.855
0.955
0.925
0.88
0.93
0.97
0.95
0.96
1.0
1.05
0.965
1.045
1.05
1.105
1.04
1.055
1.055
1.085
1.135
1.18
1.045
1.065
1.12
1.07
1.045
1.03
1.075
1.095
1.08
1.025
1.04
1.06
1.055
1.06
1.035
1.055
0.95
0.95
1.01
1.0
0.98
0.965
0.975
0.935
0.89
0.965
0.975
0.95
0.97
0.875
0.92
0.875
0.905
0.92
0.89
0.87
0.89
0.945
0.975
0.93
0.93
0.92
0.99
0.9
0.97
0.95
0.89
0.955
0.965
0.98
0.93
0.94
0.98
0.895
0.875
0.81
0.84
0.83
0.805
0.815
0.905
0.94
0.835
0.84
0.83
0.865
0.785
0.735
0.805
0.865
0.89
0.885
0.845
0.86
0.835
0.835
0.855
0.835
0.76
0.825
0.81
0.87
0.93
0.88
0.85
0.89
0.845
0.82
0.86
0.83
0.87
0.88
0.88
0.865
0.94
0.915
0.91
0.92
0.925
0.915
0.905
0.94
0.93
0.95
0.91
0.925
0.96
0.93
0.88
0.905
0.83
0.88
0.89
0.935
0.99
0.875
1.03
0.985
0.96
0.88
0.935
0.95
0.945
0.88
0.955
0.97
0.905
0.985
0.955
0.92
0.88
0.97
0.945
0.905
0.895
0.96
0.935
0.985
1.03
0.88
0.95
0.97
1.02
1.025
1.0
1.03
1.025
1.035
1.11
1.11
1.085
1.045
1.065
1.145
1.09
1.095
1.14
1.215
1.22
1.18
1.155
1.21
1.16
1.205
1.185
1.135
1.14
1.11
1.275
1.24
1.315
1.26
1.31
1.26
1.21
1.235
1.34
1.305
1.27
1.22
1.23
1.255
1.215
1.185
1.29
1.235
1.28
1.24
1.255
1.19
1.17
1.265
1.205
1.21
1.23
1.33
1.195
1.285
1.305
1.21
1.255
1.3
1.225
1.245
1.29
1.26
1.325
1.28
1.34
1.285
1.305
1.22
1.265
1.34
1.42
1.39
1.42
1.385
1.395
1.39
1.39
1.345
1.345
1.295
1.315
1.385
1.415
1.365
1.395
1.36
1.415
1.44
1.485
1.48
1.435
1.43
1.435
1.34
1.455
1.425
1.5
1.415
1.435
1.395
1.38
1.405
1.35
1.385
1.4
1.375
1.415
1.38
1.4
1.43
1.45
1.535
1.48
1.38
1.395
1.395
1.295
1.345
1.36
1.325
1.28
1.245
1.35
1.395
1.44
1.38
1.255
1.41
1.415
1.405
1.405
1.52
1.52
1.51
1.46
1.515
1.485
1.445
1.435
1.515
1.525
1.455
1.5
1.51
1.66
1.59
1.57
1.62
1.65
1.63
1.605
1.61
1.585
1.625
1.545
1.635
1.68
1.69
1.655
1.635
1.615
1.65
1.655
1.64
1.62
1.575
1.615
1.68
1.675
1.655
1.665
1.61
1.63
1.65
1.64
1.635
1.67
1.7
1.645
1.65
1.7
1.85
1.905
1.975
2.095
2.435
2.65
2.875
3.145
3.235
3.19
3.2
3.16
3.135
3.18
3.085
2.58
2.025
1.9
1.73
1.775
2.095
2.215
2.295
2.44
2.445
2.5
2.495
2.635
2.61
2.725
2.715
2.74
2.86
2.77
2.865
2.96
3.02
3.01
2.995
3.03
3.01
3.085
3.04
3.12
3.17
3.215
3.165
3.305
3.34
3.43
3.41
3.455
3.49
3.53
3.71
3.805
3.82
3.855
3.86
3.945
3.92
4.005
4.015
4.01
4.025
4.085
4.18
4.15
4.205
4.205
4.245
4.27
4.27
4.27
4.34
4.33
4.265
4.295
4.315
4.415
4.415
4.465
4.48
4.44
4.44
4.575
4.55
4.495
4.48
4.56
4.61
4.595
4.58
4.565
4.605
4.585
4.605
4.63
4.7
4.645
4.665
4.68
4.83
4.845
4.765
4.745
4.735
4.7
4.855
4.87
4.91
4.855
4.88
4.925
4.87
4.975
4.99
4.95
4.925
4.975
4.94
4.96
5.03
4.985
4.97
4.915
4.93
5.0
5.025
4.955
5.045
4.98
5.095
5.045
5.01
5.015
5.045
4.99
5.025
5.0
5.05
5.065
5.055
5.045
4.96
4.925
4.97
5.01
4.94
4.895
4.93
4.915
4.91
4.86
4.93
4.965
5.04
5.005
5.01
5.05
4.965
4.965
5.06
5.065
5.07
5.035
4.96
4.975
5.08
4.92
4.945
4.955
4.91
5.0
5.025
4.99
5.04
5.035
4.91
4.945
4.985
4.955
5.1
5.15
5.175
5.22
5.21
5.27
5.235
5.32
5.335
5.395
5.41
5.375
5.34
5.43
5.415
5.345
5.415
5.49
5.51
5.485
5.435
5.41
5.42
5.5
5.485
5.545
5.495
5.47
5.475
5.445
5.535
5.445
5.555
5.52
5.565
5.43
5.61
5.625
5.65
5.71
5.695
5.685
5.695
5.79
5.805
5.795
5.82
5.895
5.925
5.95
5.94
5.9
5.83
5.9
5.925
5.98
5.97
5.99
5.95
5.965
5.96
5.84
5.9
5.9
6.03
6.05
5.95
6.015
5.995
6.025
6.055
5.945
6.005
5.98
6.055
6.17
6.105
6.105
6.075
6.125
6.035
6.025
6.15
6.105
6.125
6.145
6.15
6.125
6.12
6.12
6.095
6.115
6.055
6.125
6.08
6.08
6.11
6.06
6.165
6.2
6.185
6.15
6.125
6.11
6.155
6.17
6.16
6.16
6.14
6.11
6.175
6.18
6.195
6.21
6.215
6.19
6.135
6.165
6.23
6.245
6.295
6.26
6.27
6.185
6.2
6.3
6.36
6.28
6.315
6.365
6.355
6.31
6.42
6.355
6.41
6.38
6.47
6.405
6.4
6.415
6.405
6.34
6.365
6.455
6.475
6.46
6.5
6.49
6.57
6.515
6.49
6.53
6.515
6.52
6.55
6.51
6.48
6.505
6.52
6.645
6.585
6.575
6.54
6.655
6.595
6.63
6.535
6.67
6.64
6.515
6.71
6.64
6.655
6.57
6.595
6.59
6.65
6.7
6.7
6.665
6.655
6.675
6.675
6.68
6.71
6.745
6.73
6.705
6.64
6.755
6.635
6.595
6.58
6.605
6.595
6.685
6.645
6.64
6.605
6.74
6.855
6.805
6.89
6.915
7.0
7.22
7.38
7.445
7.51
7.525
7.56
7.475
7.38
7.36
7.29
7.19
6.98
6.875
6.865
6.865
6.815
6.76
6.78
6.765
6.88
6.93
6.97
6.92
7.04
6.86
6.91
6.905
6.895
6.925
7.02
7.015
7.04
7.015
6.955
7.01
6.965
6.955
7.015
6.99
7.015
6.985
6.945
6.95
7.015
7.085
7.03
6.995
7.04
7.15
7.11
6.995
7.035
7.095
7.125
7.105
7.07
7.015
7.12
7.105
7.15
7.13
7.12
6.98
7.13
7.14
7.12
7.135
7.14
7.145
7.16
7.195
7.155
7.145
7.115
7.175
7.125
7.14
7.195
7.205
7.265
7.23
7.235
7.245
7.23
7.22
7.23
7.205
7.225
7.19
7.165
7.185
7.24
7.255
7.275
7.315
7.305
7.32
7.35
7.275
7.31
7.325
7.32
7.335
7.385
7.335
7.36
7.395
7.395
7.34
7.455
7.475
7.415
7.365
7.435
7.395
7.295
7.475
7.51
7.515
7.49
7.48
7.415
7.435
7.51
7.47
7.545
7.57
7.475
7.48
7.465
7.485
7.42
7.385
7.42
7.465
7.48
7.48
7.385
7.42
7.405
7.46
7.375
7.335
7.43
7.475
7.365
7.365
7.33
7.34
7.54
7.45
7.34
7.45
7.4
7.34
7.34
7.365
7.33
7.28
7.255
7.295
7.39
7.305
7.315
7.275
7.225
7.22
7.265
7.26
7.32
7.26
7.23
7.275
7.395
7.33
7.32
7.33
7.335
7.35
7.35
7.405
7.375
7.38
7.365
7.435
7.495
7.51
7.515
7.5
7.53
7.545
7.455
7.47
7.525
7.555
7.6
7.62
7.625
7.605
7.62
7.69
7.685
7.67
7.7
7.67
7.625
7.74
7.675
7.685
7.66
7.67
7.725
7.68
7.735
7.715
7.63
7.63
7.625
7.665
7.71
7.71
7.645
7.69
7.71
7.685
7.775
7.77
7.65
7.615
7.805
7.795
7.76
7.69
7.65
7.645
7.75
7.735
7.69
7.745
7.82
7.7
7.645
7.71
7.8
7.765
7.75
7.755
7.71
7.715
7.75
7.64
7.67
7.69
7.67
7.755
7.705
7.625
7.63
7.735
7.72
7.69
7.695
7.645
7.65
7.75
7.655
7.655
7.67
7.72
7.715
7.74
7.83
7.685
7.75
7.7
7.715
7.675
7.775
7.74
7.745
7.675
7.795
7.785
7.735
7.815
7.755
7.765
7.685
7.7
7.825
7.885
7.865
7.83
7.895
7.905
7.86
7.91
7.85
7.845
7.955
7.93
7.99
7.97
8.025
7.995
7.925
7.995
8.07
8.02
8.0
7.995
8.075
8.025
7.995
7.915
7.94
8.06
8.02
8.03
7.975
8.025
7.95
7.955
7.995
8.0
8.005
8.015
7.945
7.955
8.01
7.99
7.945
7.935
7.94
7.995
8.03
7.965
8.155
8.135
8.23
8.275
8.23
8.35
8.47
8.615
8.775
8.875
8.81
8.89
8.86
8.75
8.75
8.69
8.55
8.395
8.325
8.305
8.125
8.13
8.225
8.215
8.28
8.245
8.34
8.295
8.31
8.35
8.34
8.38
8.415
8.355
8.365
8.26
8.44
8.455
8.425
8.425
8.465
8.415
8.43
8.485
8.52
8.43
8.52
8.5
8.525
8.44
8.46
8.46
8.54
8.51
8.5
8.555
8.575
8.58
8.55
8.49
8.44
8.46
8.53
8.505
8.485
8.52
8.575
8.625
8.655
8.65
8.64
8.63
8.67
8.62
8.66
8.68
8.705
8.645
8.74
8.72
8.685
8.68
8.675
8.65
8.75
8.775
8.705
8.685
8.62
8.745
8.665
8.72
8.73
8.78
8.83
8.815
8.75
8.745
8.825
8.9
8.77
8.73
8.72
8.81
8.785
8.775
8.875
8.87
8.805
8.88
8.88
8.91
8.965
8.96
8.945
8.93
8.985
8.955
8.955
8.93
8.96
8.955
9.0
9.04
9.005
8.93
8.88
8.025
6.695
6.135
5.73
5.545
5.215
4.95
4.745
4.495
4.3
4.205
4.03
3.9
3.76
3.64
3.455
3.455
3.31
3.18
3.07
3.03
2.885
3.12
3.615
3.735
3.79
3.76
3.51
3.225
3.105
3.01
3.01
2.87
2.795
2.565
2.605
2.46
2.48
2.435
2.285
2.275
2.44
2.09
2.2
2.16
1.96
1.985
1.915
1.755
1.75
1.79
1.69
1.685
1.79
1.875
1.84
1.75
1.76
1.745
1.6
1.65
1.59
1.595
1.555
1.555
1.58
1.51
1.425
1.37
1.31
1.285
1.29
1.295
1.225
1.265
1.25
1.215
1.34
1.235
1.25
1.305
1.31
1.35
1.33
1.315
1.335
1.35
1.205
1.175
1.245
1.34
1.4
1.315
1.35
1.235
1.31
1.39
1.425
1.405
1.33
1.34
1.295
1.33
1.44
1.34
1.34
1.3
1.265
1.24
1.185
1.305
1.225
1.265
1.285
1.245
1.31
1.27
1.295
1.26
1.24
1.325
1.365
1.325
1.4
1.445
1.43
1.465
1.465
1.49
1.46
1.41
1.445
1.53
1.51
1.445
1.39
1.515
1.405
1.36
1.345
1.255
1.19
1.17
1.19
1.215
1.31
1.29
1.255
1.21
1.22
1.3
1.27
1.195
1.22
1.23
1.27
1.31
1.325
1.375
1.48
1.47
1.515
1.48
1.47
1.6
1.63
1.575
1.575
1.62
1.73
1.735
1.705
1.745
1.79
1.75
1.745
1.84
1.86
1.74
1.7
1.75
1.81
1.54
1.475
1.495
1.56
1.445
1.36
1.25
1.235
1.155
1.005
0.915
0.735
0.465
0.35
0.285
0.2
0.145
0.13
-0.01
-0.045
-0.125
-0.22
-0.225
-0.285
-0.3
-0.28
-0.36
-0.36
-0.4
-0.35
-0.345
-0.235
-0.22
0.035
0.155
0.26
0.305
0.185
0.175
0.04
-0.06
-0.06
-0.12
-0.275
-0.515
-0.635
-0.72
-0.84
-0.9
-0.875
-0.845
-0.865
-0.955
-0.9
-1.03
-0.915
-0.955
-1.005
-1.05
-0.955
-0.975
-1.03
-1.035
-1.005
-1.045
-1.09
-1.15
-1.115
-1.07
-1.09
-1.11
-1.15
-1.14
-1.15
-1.15
-1.135
-1.185
-1.225
-1.275
-1.225
-1.18
-1.2
-1.195
-1.22
-1.32
-1.325
-1.345
-1.28
-1.245
-1.285
-1.31
-1.41
-1.285
-1.305
-1.305
-1.385
-1.335
-1.36
-1.33
-1.325
-1.31
-1.425
-1.455
-1.415
-1.405
-1.415
-1.44
-1.415
-1.49
-1.47
-1.345
-1.41
-1.445
-1.39
-1.475
-1.54
-1.465
-1.45
-1.53
-1.495
-1.49
-1.505
-1.52
-1.5
-1.485
-1.44
-1.545
-1.54
-1.445
-1.445
-1.48
-1.395
-1.385
-1.495
-1.585
-1.51
-1.545
-1.485
-1.515
-1.435
-1.465
-1.42
-1.49
-1.475
-1.465
-1.475
-1.5
-1.525
-1.465
-1.39
-1.47
-1.505
-1.52
-1.49
-1.49
-1.535
-1.495
-1.57
-1.575
-1.515
-1.605
-1.57
-1.61
-1.62
-1.59
-1.545
-1.565
-1.625
-1.665
-1.625
-1.61
-1.615
-1.715
-1.735
-1.71
-1.72
-1.775
-1.73
-1.72
-1.78
-1.76
-1.715
-1.735
-1.785
-1.81
-1.83
-1.795
-1.79
-1.815
-1.79
-1.805
-1.805
-1.75
-1.745
-1.85
-1.885
-1.82
-1.86
-1.825
-1.84
-1.775
-1.82
-1.8
-1.82
-1.805
-1.84
-1.935
-1.835
-1.775
-1.855
-1.83
-1.895
-1.915
-1.87
-1.885
-1.885
-1.805
-1.825
-1.915
-1.91
-1.9
-1.89
-1.885
-1.93
-1.89
-2.005
-2.005
-1.92
-1.875
-1.9
-1.885
-1.895
-1.855
-1.84
-1.955
-1.975
-1.975
-1.93
-1.935
-1.95
-1.94
-1.89
-1.94
-1.905
-1.96
-1.94
-1.87
-1.95
-1.865
-1.89
-1.98
-1.965
-1.94
-1.92
-1.965
-1.91
-1.895
-1.935
-1.95
-1.975
-1.92
-1.94
-1.97
-2.015
-1.975
-1.935
-1.975
-1.935
-2.02
-1.96
-1.97
-1.995
-2.01
-2.035
-1.955
-1.935
-1.965
-1.99
-1.93
-1.98
-1.975
-1.99
-2.025
-2.075
-1.96
-1.955
-2.03
-2.01
-1.975
-1.965
-1.98
-2.06
-2.0
-1.925
-2.02
-2.015
-2.015
-2.05
-2.075
-1.93
-1.965
-1.975
-1.995
-2.005
-2.055
-2.045
-2.085
-1.995
-2.03
-1.965
-1.955
-2.005
-1.98
-1.98
-2.015
-2.035
-1.98
-2.005
-2.0
-1.98
-1.975
-1.975
-2.035
-2.025
-1.88
-2.0
-2.015
-1.99
-2.01
-1.965
-1.985
-1.98
-2.015
-2.06
-1.97
-2.075
-2.045
-2.12
-2.065
-2.03
-2.06
-2.07
-2.0
-2.085
-2.09
-2.085
-2.015
-2.05
-2.01
-2.0
-2.045
-2.08
-2.055
-2.1
-2.19
-2.055
-2.105
-2.21
-2.08
-2.06
-2.06
-2.06
-2.115
-2.04
-1.975
-1.915
-1.81
-1.67
-1.55
-1.335
-1.25
-1.19
-1.175
-1.35
-1.375
-1.385
-1.51
-1.575
-1.675
-1.96
-2.065
-2.1
-2.125
-2.08
-2.07
-2.125
-2.12
-2.115
-2.165
-2.085
-2.1
-2.105
-2.065
-2.08
-2.145
-2.095
-2.145
-2.11
-2.085
-2.07
-2.07
-2.135
-2.075
-2.105
-2.095
-2.14
-2.13
-2.065
-1.995
-2.07
-2.12
-2.135
-2.075
-2.055
-2.09
-2.12
-2.11
-2.1
-2.095
-2.165
-2.095
-2.04
-2.06
-2.065
-2.125
-2.09
-2.06
-1.975
-2.025
-2.08
-2.105
-2.07
-2.1
-2.08
-2.085
-2.15
-2.1
-1.99
-2.03
-2.075
-2.02
-2.035
-2.115
-2.135
-2.075
-2.065
-2.01
-1.955
-2.145
-2.06
-2.105
-2.03
-1.995
-2.15
-2.05
-2.005
-1.99
-2.0
-1.965
-1.965
-2.055
-2.0
-2.015
-1.985
-2.01
-2.055
-2.03
-1.995
-1.875
-1.955
-1.955
-1.92
-1.955
-1.93
-1.965
-1.95
-1.875
-1.97
-1.945
-1.835
-1.87
-1.885
-1.875
-1.84
-1.865
-1.915
-1.835
-1.85
-1.875
-1.89
-1.94
-1.85
-1.855
-1.85
-1.98
-1.875
-1.895
-1.875
-1.865
-1.87
-1.9
-1.89
-1.885
-1.91
-1.895
-1.915
-1.925
-2.035
-1.87
-1.865
-1.83
-1.905
-1.935
-1.995
-1.96
-1.855
-1.955
-1.97
-1.84
-1.845
-1.855
-1.83
-1.79
-1.755
-1.835
-1.805
-1.79
-1.735
-1.785
-1.725
-1.715
-1.71
-1.67
-1.65
-1.665
-1.69
-1.715
-1.69
-1.63
-1.7
-1.695
-1.665
-1.525
-1.585
-1.62
-1.535
-1.625
-1.435
-1.63
-1.57
-1.645
-1.595
-1.585
-1.56
-1.635
-1.575
-1.61
-1.575
-1.515
-1.52
-1.51
-1.415
-1.49
-1.525
-1.455
-1.445
-1.47
-1.49
-1.435
-1.295
-1.325
-1.315
-1.345
-1.335
-1.31
-1.265
-1.23
-1.24
-1.25
-1.26
-1.295
-1.26
-1.185
-1.275
-1.34
-1.365
-1.29
-1.3
-1.275
-1.265
-1.27
-1.315
-1.335
-1.385
-1.375
-1.365
-1.335
-1.275
-1.29
-1.31
-1.27
-1.28
-1.34
-1.335
-1.18
-1.19
-1.215
-1.31
-1.255
-1.175
-1.245
-1.29
-1.255
-1.36
-1.25
-1.215
-1.185
-1.235
-1.315
-1.265
-1.24
-1.38
-1.3
-1.275
-1.26
-1.25
-1.24
-1.28
-1.21
-1.235
-1.275
-1.175
-1.275
-1.25
-1.315
-1.265
-1.14
-1.19
-1.215
-1.275
-1.325
-1.23
-1.25
-1.27
-1.18
-1.165
-1.185
-1.19
-1.085
-1.08
-1.155
-1.13
-1.01
-1.005
-0.985
-0.995
-1.025
-0.945
-0.895
-0.92
-0.955
-0.915
-0.84
-0.935
-0.84
-0.785
-0.78
-0.74
-0.775
-0.695
-0.65
-0.715
-0.71
-0.655
-0.635
-0.675
-0.635
-0.585
-0.575
-0.595
-0.66
-0.64
-0.655
-0.69
-0.64
-0.625
-0.615
-0.645
-0.635
-0.635
-0.655
-0.56
-0.595
-0.605
-0.62
-0.585
-0.59
-0.43
-0.385
-0.39
-0.345
-0.41
-0.405
-0.365
-0.46
-0.335
-0.355
-0.275
-0.265
-0.21
-0.13
-0.14
-0.04
0.025
0.195
0.35
0.68
0.78
0.795
0.67
0.61
0.545
0.5
0.455
0.38
0.255
0.03
-0.06
0.01
-0.095
-0.185
-0.165
-0.045
-0.06
-0.155
-0.2
-0.155
-0.15
-0.075
-0.135
-0.13
-0.145
-0.12
-0.16
-0.045
-0.085
-0.03
-0.06
-0.08
0.005
0.03
0.105
0.1
-0.075
0.005
0.0
0.0
0.005
-0.02
-0.055
-0.005
-0.02
-0.015
0.075
0.125
0.055
0.07
0.085
0.02
0.12
-0.005
0.005
0.09
0.165
0.245
0.32
0.205
0.175
0.14
0.13
0.05
0.1
0.1
0.035
0.04
0.03
-0.015
0.03
0.0
0.005
-0.005
0.13
0.08
0.04
0.04
0.065
0.0
0.065
0.0
0.025
0.01
-0.01
0.05
0.025
0.0
0.015
0.04
0.015
0.04
0.025
0.13
0.03
0.005
0.025
0.055
-0.01
0.0
0.03
0.02
-0.005
0.045
0.04
0.03
0.055
0.045
0.035
0.09
0.065
0.06
0.04
0.035
0.09
0.17
0.155
0.18
0.165
0.225
0.1
0.2
0.275
0.315
0.295
0.33
0.38
0.355
0.31
0.25
0.195
0.09
0.115
0.025
0.06
0.07
-0.06
0.05
0.015
0.18
0.125
0.04
0.03
0.09
-0.015
0.035
0.02
0.02
0.05
0.085
0.135
0.12
0.075
0.17
0.135
0.01
0.035
0.06
0.145
0.12
0.175
0.185
0.17
0.105
0.085
0.215
0.205
0.09
0.07
0.095
0.195
0.245
0.215
0.19
0.185
0.165
0.15
0.155
0.15
0.105
0.12
0.14
0.125
0.185
0.205
0.355
0.5
0.575
0.615
0.58
0.655
0.735
0.735
0.71
0.775
0.82
0.85
0.86
0.87
0.905
0.88
0.95
0.91
0.97
0.985
0.92
0.915
0.915
0.98
1.06
0.98
0.95
0.97
0.98
0.96
1.025
1.085
1.035
1.075
1.115
1.01
1.01
1.115
1.245
1.155
1.18
1.23
1.215
1.215
1.19
1.235
1.355
1.23
1.235
1.2
1.155
1.285
1.26
1.315
1.325
1.3
1.395
1.43
1.415
1.415
1.42
1.435
1.395
1.545
1.545
1.465
1.41
1.505
1.485
1.495
1.515
1.55
1.535
1.45
1.605
1.565
1.51
1.44
1.395
1.495
1.49
1.055
0.965
1.005
1.05
0.835
0.885
0.94
0.82
0.85
0.825
0.815
0.87
1.135
1.225
1.385
1.46
1.5
1.52
1.72
1.72
1.85
1.81
1.835
2.01
1.985
1.945
2.02
2.16
2.085
2.16
2.235
2.21
2.135
2.215
2.235
2.25
2.2
2.2
2.14
2.0
2.12
2.13
2.1
2.1
2.11
2.155
2.12
2.085
2.165
2.205
2.25
2.15
2.165
2.165
2.15
2.075
2.17
2.17
2.21
2.145
2.18
2.205
2.195
2.21
2.205
2.275
2.295
2.34
2.31
2.38
2.52
2.57
2.635
2.785
3.055
3.255
3.28
3.38
3.33
3.26
3.235
3.14
3.135
3.05
3.0
2.775
2.62
2.475
2.53
2.52
2.23
2.11
1.995
2.115
2.205
1.955
1.85
2.04
2.105
2.24
2.23
2.21
2.265
2.305
2.31
2.26
2.285
2.345
2.325
2.33
2.32
2.34
2.31
2.39
2.35
2.405
2.345
2.395
2.475
2.48
2.455
2.4
2.37
2.4
2.42
2.44
2.47
2.43
2.55
2.555
2.395
2.325
2.335
2.385
2.36
2.375
2.41
2.36
2.425
2.375
2.455
2.4
2.5
2.43
2.46
2.46
2.4
2.43
2.495
2.49
2.465
2.475
2.465
2.49
2.55
2.4
2.57
2.51
2.58
2.545
2.645
2.695
2.615
2.575
2.64
2.605
2.585
2.63
2.605
2.665
2.635
2.535
2.56
2.615
2.575
2.595
2.615
2.595
2.62
2.59
2.62
2.56
2.535
2.6
2.48
2.54
2.56
2.585
2.59
2.57
2.645
2.61
2.655
2.665
2.655
2.695
2.805
2.74
2.705
2.78
2.77
2.74
2.675
2.72
2.76
2.725
2.7
2.605
2.68
2.815
2.765
2.63
2.58
2.665
2.735
2.675
2.74
2.735
2.805
2.81
2.735
2.825
2.805
2.78
2.865
2.805
2.865
2.89
2.92
2.885
2.945
2.96
2.99
3.035
2.985
2.975
3.1
3.105
3.14
3.18
3.005
3.105
3.08
3.135
3.045
3.045
3.07
3.105
3.06
3.01
3.05
3.055
3.025
3.04
3.06
3.035
3.095
3.095
3.115
3.195
3.075
3.075
3.055
3.13
3.105
3.155
3.165
3.075
3.01
3.09
3.2
3.17
3.135
3.17
3.135
3.18
3.135
3.11
3.175
3.205
3.135
3.24
3.235
3.135
3.21
3.2
3.21
3.3
3.29
3.295
3.32
3.38
3.34
3.375
3.3
3.29
3.38
3.39
3.42
3.445
3.485
3.44
3.475
3.47
3.47
3.545
3.56
3.64
3.75
3.89
3.785
3.835
3.82
3.82
3.765
3.755
3.74
3.805
3.79
3.86
3.795
3.77
3.865
3.835
3.82
3.92
4.06
4.025
4.0
3.9
3.78
3.945
3.92
3.845
3.87
3.895
3.87
3.845
3.815
3.965
3.895
3.855
3.83
3.88
3.85
3.755
3.89
3.89
3.94
3.955
3.88
3.76
3.775
3.875
3.85
3.875
3.965
3.985
4.03
3.95
3.91
3.86
3.9
3.795
3.85
3.87
3.875
3.865
3.875
3.895
3.895
3.91
3.885
3.81
3.76
3.805
3.795
3.735
3.82
3.835
3.72
3.795
3.845
3.855
3.905
3.835
3.82
3.93
4.0
3.99
3.9
3.855
3.865
3.735
3.73
3.715
3.77
3.79
3.77
3.93
3.98
3.93
3.97
4.105
4.245
4.435
4.72
5.085
5.09
5.33
5.395
5.435
5.32
5.255
5.245
5.185
5.04
4.865
4.71
4.47
3.965
3.535
3.34
3.245
3.44
3.73
4.01
4.14
4.32
4.295
4.31
4.395
4.495
4.5
4.375
4.505
4.525
4.555
4.565
4.63
4.64
4.695
4.61
4.18
4.23
4.075
4.12
4.095
4.03
4.165
4.08
4.125
4.085
3.965
3.965
4.09
3.92
3.83
3.895
3.845
3.795
3.8
3.85
3.75
3.85
3.87
3.855
3.92
3.86
3.9
3.885
3.91
3.89
3.895
3.72
3.64
3.77
3.695
3.665
3.715
3.855
3.765
3.775
3.725
3.63
3.745
3.68
3.71
3.785
3.87
3.84
3.845
3.905
3.775
3.85
3.815
3.785
3.825
3.38
3.095
3.265
3.31
3.355
3.32
3.255
3.24
3.2
3.265
3.215
3.2
3.245
3.32
3.345
3.33
3.24
3.28
3.325
3.355
3.33
3.37
3.425
3.395
3.425
3.695
3.705
3.71
3.55
3.585
3.505
3.56
3.51
3.535
3.55
3.605
3.485
3.465
3.495
3.455
3.47
3.46
3.425
3.41
3.455
3.42
3.39
3.365
3.44
3.455
3.425
3.44
3.345
3.41
3.455
3.465
3.39
3.35
3.255
3.28
3.425
3.355
3.11
3.045
3.4
3.42
3.37
3.47
3.485
3.535
3.585
3.645
3.595
3.445
3.345
3.31
3.32
3.18
3.165
3.335
3.455
3.455
3.415
3.44
3.46
3.445
3.515
3.44
3.595
3.445
3.43
3.52
3.485
3.455
3.42
3.505
3.485
3.425
3.425
3.39
3.44
3.48
3.355
3.445
3.445
3.425
3.44
3.395
3.35
3.33
3.315
3.335
3.28
3.28
3.26
3.305
3.235
3.285
3.375
3.4
3.365
3.315
3.335
3.36
3.34
3.36
3.31
3.31
3.375
3.375
3.4
3.44
3.42
3.45
3.47
3.48
3.51
3.51
3.52
3.615
3.655
3.725
3.62
3.55
3.58
3.62
3.69
3.58
3.405
3.41
3.45
3.32
3.26
3.3
3.38
3.38
3.305
3.3
3.205
3.215
3.165
3.14
3.185
3.12
2.995
3.16
3.38
3.4
3.33
3.41
3.33
3.3
3.41
3.445
3.395
3.325
3.345
3.36
3.425
3.465
3.47
3.415
3.46
3.405
3.41
3.45
3.455
3.415
3.36
3.495
3.505
3.45
3.505
3.445
3.47
3.49
3.52
3.455
3.425
3.43
3.47
3.485
3.44
3.37
3.38
3.445
3.46
3.405
3.36
3.445
3.29
3.34
3.42
3.455
3.455
3.465
3.305
3.35
3.38
3.325
3.31
3.31
3.225
3.255
3.295
3.28
3.305
3.35
3.35
3.33
3.54
3.69
3.755
3.975
4.19
4.235
4.3
4.21
4.165
4.105
3.99
3.955
3.765
3.57
3.425
3.305
3.305
3.325
3.245
3.325
3.33
3.26
3.275
3.23
3.305
3.365
3.35
3.29
3.32
3.345
3.345
3.265
3.28
3.245
3.325
3.34
3.365
3.3
3.365
3.335
3.29
3.28
3.235
3.225
3.26
3.285
3.275
3.28
3.34
3.365
3.445
3.425
3.365
3.175
3.2
3.255
3.305
3.265
3.265
3.245
3.225
3.285
3.305
3.395
3.405
3.32
3.32
3.405
3.31
3.27
3.33
3.325
3.25
3.35
3.34
3.24
3.3
3.24
3.4
3.35
3.4
3.405
3.405
3.355
3.335
3.35
3.395
3.36
3.335
3.34
3.36
3.315
3.29
3.23
3.245
3.295
3.35
3.295
3.3
3.275
3.25
3.24
3.27
3.25
3.25
3.26
3.26
3.18
3.21
3.195
3.2
3.27
3.245
3.205
3.205
3.31
3.185
3.14
3.175
3.21
3.255
3.15
3.12
3.035
3.155
3.215
3.175
3.145
3.135
3.08
3.1
3.09
3.11
3.065
3.05
3.03
2.975
2.99
2.985
2.985
2.975
2.99
2.91
2.91
2.865
2.795
2.87
2.83
2.83
2.855
2.785
2.85
2.85
2.765
2.81
2.78
2.81
2.77
2.68
2.695
2.665
2.73
2.675
2.6
2.575
2.515
2.535
2.58
2.355
2.345
2.355
2.335
2.36
2.49
2.385
2.46
2.41
2.405
2.365
2.36
2.33
2.42
2.41
2.3
2.325
2.245
2.205
2.175
2.215
2.185
2.185
2.235
2.24
2.18
2.23
2.115
2.05
2.17
2.085
2.175
2.135
2.09
2.065
2.06
2.0
1.895
1.91
1.935
1.935
1.895
1.915
1.97
1.92
1.845
1.975
2.0
2.105
2.11
1.95
2.045
2.07
2.115
1.955
1.96
2.04
2.045
1.93
1.94
1.905
1.92
1.895
1.955
1.95
1.885
1.905
1.91
1.9
1.82
1.935
1.885
1.925
1.94
1.855
1.875
1.875
1.86
1.89
2.015
2.045
1.985
2.015
2.075
2.135
2.105
2.13
2.1
2.22
2.215
2.26
2.27
2.24
2.41
2.365
2.295
2.255
2.27
2.37
2.43
2.405
2.365
2.4
2.41
2.36
2.275
2.24
2.39
2.275
2.305
2.27
2.225
2.3
2.305
2.335
2.375
2.355
2.35
2.3
2.23
2.325
2.15
2.065
2.05
1.955
2.015
1.975
1.945
1.935
1.875
1.925
1.9
1.87
1.89
1.83
1.8
1.815
1.855
1.78
1.835
1.81
1.875
1.91
1.95
1.98
2.08
2.295
2.47
2.585
2.58
2.49
2.445
2.315
2.165
2.135
1.995
1.69
1.48
1.485
1.35
1.37
1.36
1.455
1.525
1.45
1.31
1.31
1.385
1.385
1.375
1.345
1.375
1.34
1.31
1.285
1.27
1.37
1.355
1.31
1.28
1.3
1.265
1.29
1.285
1.28
1.24
1.235
1.26
1.27
1.295
1.285
1.18
1.185
1.17
1.17
1.2
1.09
1.205
1.24
1.255
1.2
1.12
1.17
1.195
1.28
1.315
1.215
1.22
1.24
1.21
1.235
1.25
1.15
1.165
1.17
1.155
1.1
1.07
1.145
1.16
1.19
1.195
1.195
1.2
1.265
1.13
1.165
1.285
1.3
1.225
1.275
1.295
1.275
1.255
1.29
1.305
1.36
1.34
1.325
1.445
1.435
1.335
1.295
1.315
1.42
1.53
1.56
1.515
1.59
1.625
1.745
1.775
1.765
1.835
1.835
1.81
1.865
1.905
1.83
1.9
1.995
1.965
2.025
1.955
1.905
1.96
1.975
1.93
1.975
1.935
1.865
1.87
1.935
1.965
1.99
2.025
2.04
1.995
2.075
2.055
2.2
2.3
2.34
2.34
2.165
2.115
2.14
2.155
2.15
2.165
2.19
2.16
2.15
2.1
2.145
2.16
2.185
2.22
2.16
2.095
2.08
2.18
2.2
2.22
2.195
2.13
2.145
2.125
2.16
2.12
2.155
2.07
2.115
2.115
2.215
2.14
2.195
2.26
2.275
2.42
2.455
2.52
2.605
2.605
2.545
2.55
2.635
2.585
2.61
2.57
2.6
2.705
2.54
2.635
2.605
2.64
2.585
2.735
2.715
2.76
2.815
2.815
2.805
2.76
2.76
2.77
2.82
2.835
2.785
2.775
2.845
2.86
2.835
2.78
2.82
2.83
2.77
2.83
2.785
2.82
2.87
2.82
2.85
2.835
2.83
2.785
2.78
2.69
2.73
2.76
2.715
2.68
2.655
2.71
2.635
2.61
2.655
2.735
2.595
2.545
2.63
2.56
2.555
2.59
2.625
2.68
2.61
2.68
2.605
2.57
2.62
2.545
2.515
2.61
2.58
2.66
2.59
2.575
2.615
2.595
2.635
2.555
2.6
2.64
2.805
2.73
2.765
2.79
2.78
2.785
2.775
2.7
2.88
2.79
2.81
2.885
2.795
2.76
2.75
2.775
2.725
2.745
2.64
2.63
2.595
2.61
2.7
2.655
2.61
2.625
2.63
2.67
2.78
2.74
2.735
2.67
2.56
2.705
2.735
2.68
2.575
2.645
2.745
2.755
2.7
2.61
2.675
2.76
2.83
2.865
2.995
3.19
3.375
3.465
3.595
3.53
3.565
3.49
3.505
3.425
3.245
3.145
2.89
2.715
2.66
2.68
2.695
2.665
2.755
2.735
2.64
2.76
2.825
2.805
2.765
2.74
2.765
2.9
2.83
2.72
2.755
2.765
2.815
2.68
2.73
2.735
2.72
2.675
2.815
2.725
2.71
2.68
2.685
2.745
2.8
2.76
2.795
2.71
2.68
2.735
2.715
2.69
2.67
2.745
2.74
2.585
2.535
2.54
2.725
2.715
2.665
2.365
2.33
2.52
2.43
2.38
2.485
2.375
2.275
2.615
2.8
2.77
2.825
2.86
2.94
2.965
3.0
2.885
2.965
3.09
3.0
2.94
2.895
2.915
3.005
2.99
2.975
3.065
2.9
2.93
2.96
2.945
2.845
2.695
2.73
2.75
2.69
2.6
2.575
2.605
2.555
2.455
2.415
2.35
2.315
2.385
2.425
2.43
2.415
2.35
2.26
2.22
2.165
2.185
2.195
2.175
2.11
2.185
2.095
2.065
2.06
2.035
2.11
2.14
2.025
2.045
1.975
2.075
2.0
1.965
1.865
2.005
1.895
1.96
1.85
1.96
1.94
1.925
1.935
1.935
1.82
1.805
1.83
1.745
1.785
1.855
1.95
1.905
1.895
1.755
1.805
1.835
1.78
1.75
1.72
1.765
1.845
1.81
1.745
1.865
1.865
1.805
1.665
1.775
1.705
1.745
1.72
1.595
1.66
1.66
1.695
1.625
1.63
1.75
1.705
1.815
1.845
1.805
1.815
1.765
1.765
1.69
1.665
1.64
1.74
1.805
1.695
1.735
1.745
1.715
1.675
1.685
1.44
1.45
1.425
1.43
1.38
1.465
1.415
1.385
1.27
1.36
1.345
1.315
1.35
1.385
1.26
1.265
1.335
1.29
1.195
1.2
1.28
1.33
1.22
1.25
1.225
1.215
1.245
1.4
1.285
1.3
1.345
1.285
1.23
1.315
1.385
1.445
1.36
1.235
1.28
1.275
1.22
1.27
1.285
1.32
1.32
1.33
1.3
1.295
1.345
1.34
1.275
1.325
1.28
1.31
1.26
1.255
1.235
1.235
1.27
1.305
1.26
1.385
1.435
1.425
1.45
1.4
1.45
1.44
1.455
1.525
1.455
1.535
1.45
1.355
1.46
1.455
1.31
1.32
1.37
1.41
1.39
1.48
1.445
1.375
1.17
1.04
0.855
0.89
0.935
0.915
0.82
0.555
0.715
0.855
0.745
1.365
1.905
2.115
2.3
2.46
2.505
2.44
2.625
2.765
2.75
2.695
2.8
2.915
2.92
2.965
2.915
2.925
2.86
3.02
3.07
3.2
3.115
3.11
3.13
3.255
3.34
3.41
3.45
3.625
3.865
4.09
4.19
4.375
4.285
4.27
4.245
4.22
4.165
3.965
3.7
3.615
3.635
3.655
3.645
3.605
3.535
3.545
3.645
3.67
3.665
3.825
3.775
3.69
3.755
3.88
3.88
3.89
3.925
3.915
4.255
4.355
4.325
4.4
4.36
4.23
4.34
4.4
4.02
3.81
3.825
3.74
3.665
3.655
3.61
3.34
3.495
3.875
3.785
4.02
4.18
4.13
4.2
4.235
4.23
4.325
4.365
4.415
4.43
4.43
4.43
4.435
4.63
4.595
4.545
4.665
4.6
4.285
4.525
4.59
4.63
4.58
4.505
4.33
4.38
4.375
4.345
4.37
4.115
4.035
3.555
2.985
2.715
2.44
2.075
1.875
1.7
1.705
1.735
1.575
1.335
1.39
1.26
1.255
1.125
1.1
1.15
1.105
1.12
0.96
0.91
0.73
0.66
0.75
0.745
0.55
0.385
0.35
0.335
0.28
0.28
0.095
-0.09
-0.115
-0.075
-0.14
-0.17
-0.26
-0.235
-0.235
-0.305
-0.465
-0.44
-0.625
-0.6
-0.605
-0.67
-0.78
-0.745
-0.82
-0.855
-0.93
-0.94
-1.05
-1.0
-1.0
-1.07
-1.08
-1.04
-1.0
-1.05
-1.12
-1.185
-1.19
-1.235
-1.285
-1.25
-1.275
-1.355
-1.37
-1.38
-1.45
-1.45
-1.465
-1.495
-1.46
-1.395
-1.44
-1.5
-1.46
-1.57
-1.54
-1.505
-1.385
-1.34
-1.285
-1.365
-1.37
-1.32
-1.31
-1.155
-1.125
-1.155
-1.205
-1.29
-1.295
-1.26
-1.065
-1.06
-0.955
-0.915
-0.85
-0.84
-0.73
-0.735
-0.74
-0.66
-0.675
-0.62
-0.595
-0.55
-0.61
-0.535
-0.51
-0.4
-0.405
-0.53
-0.475
-0.525
-0.4
-0.795
-1.055
-0.96
-0.805
-0.835
-0.89
-0.885
-0.875
-0.835
-0.855
-0.785
-0.74
-0.79
-0.645
-0.65
-0.67
-0.7
-0.675
-0.715
-0.745
-0.755
-0.63
-0.61
-0.61
-0.73
-0.73
-0.73
-0.65
-0.625
-0.67
-0.77
-0.945
-0.93
-0.93
-0.8
-0.825
-0.77
-0.725
-0.525
-0.47
-0.39
-0.405
-0.26
-0.225
-0.24
-0.085
0.035
0.03
0.05
0.0
0.1
0.145
0.085
0.02
0.095
0.19
0.14
0.14
0.195
0.175
0.18
0.15
0.14
0.25
0.34
0.3
0.28
0.375
0.335
0.295
0.285
0.4
0.28
0.165
0.235
0.33
0.275
0.205
0.135
0.075
0.11
0.1
0.115
0.135
0.14
0.17
0.175
0.175
0.105
0.13
0.235
0.37
0.42
0.595
0.76
0.94
0.91
0.79
0.735
0.745
0.745
0.66
0.485
0.235
0.085
-0.095
-0.07
-0.135
-0.17
-0.16
-0.055
-0.315
-0.24
-0.055
-0.275
-0.235
-0.27
-0.245
-0.295
-0.285
-0.31
-0.37
-0.355
-0.255
-0.165
-0.1
-0.205
-0.195
-0.015
0.03
0.05
0.18
0.115
0.145
0.145
0.16
0.275
0.385
0.51
0.71
0.84
0.88
0.84
0.895
0.82
0.885
0.87
0.885
0.89
0.94
0.905
0.965
0.975
0.895
0.885
0.865
0.975
1.0
0.96
1.085
1.12
1.145
1.15
1.205
1.265
1.315
1.325
1.445
1.65
1.605
1.66
1.7
1.73
1.775
1.84
1.845
1.895
1.955
1.96
2.045
2.005
1.99
2.095
2.145
2.09
2.165
2.15
2.235
2.21
2.185
2.16
2.19
2.31
2.255
2.22
2.24
2.275
2.335
2.42
2.48
2.355
2.38
2.43
2.505
2.555
2.54
2.51
2.49
2.465
2.47
2.53
2.605
2.605
2.715
2.645
2.615
2.69
2.61
2.775
2.835
2.785
2.71
2.8
2.77
2.85
2.97
2.945
2.96
2.905
2.93
2.94
3.01
2.965
3.0
3.015
2.98
2.89
2.985
3.0
3.09
2.95
2.97
3.0
3.01
3.135
3.17
3.135
3.185
3.18
3.065
3.165
3.02
3.025
3.095
3.045
3.08
3.11
3.18
3.11
3.095
3.12
3.265
3.17
3.105
3.25
3.265
3.155
3.195
3.145
3.15
3.11
3.095
3.025
3.05
3.09
3.17
3.05
3.055
3.02
2.92
2.63
2.395
2.265
2.27
2.215
2.065
2.16
2.09
2.08
1.98
2.085
1.955
1.91
1.935
1.87
1.855
1.8
1.74
1.75
1.715
1.735
1.71
1.535
1.58
1.635
1.645
1.515
1.52
1.375
1.545
1.43
1.335
1.285
1.28
1.275
1.425
1.32
1.265
1.42
1.445
1.31
1.335
1.4
1.495
1.365
1.365
1.205
1.315
1.375
1.285
1.215
1.325
1.355
1.33
1.45
1.605
1.7
1.52
1.545
1.645
1.465
1.425
1.35
1.265
1.335
1.295
1.305
1.39
1.535
1.635
1.545
1.465
1.575
1.47
1.31
1.28
1.345
1.415
1.455
1.415
1.33
1.27
1.185
1.2
1.27
1.055
0.95
0.7
0.545
0.445
0.48
0.47
0.55
0.405
0.77
0.95
1.125
1.465
1.66
1.885
2.23
2.375
2.48
2.515
2.395
2.39
2.22
1.95
1.85
1.775
1.505
1.515
1.445
1.53
1.54
1.515
1.54
1.6
1.72
1.695
1.735
1.955
2.025
1.905
1.88
1.81
1.615
1.56
1.68
1.91
2.07
2.1
2.08
2.075
1.99
1.815
2.04
2.1
2.105
2.145
2.255
2.21
2.1
2.085
2.05
2.075
2.245
2.32
2.42
2.37
2.355
2.355
2.395
2.225
2.165
2.065
2.07
1.885
1.72
1.625
1.545
1.44
1.455
1.565
1.615
1.45
1.32
1.37
1.365
1.275
1.235
1.09
1.115
1.135
1.1
1.17
1.11
1.125
1.05
1.055
1.055
1.0
1.025
1.055
1.12
1.0
1.025
1.005
1.03
0.835
0.715
0.69
0.745
0.78
0.8
0.78
0.8
0.88
0.935
0.905
0.855
0.93
1.045
0.945
0.945
0.915
0.915
0.885
0.925
0.865
0.87
0.83
0.915
0.96
0.975
0.885
0.965
0.955
0.955
1.01
0.92
0.965
0.88
1.09
1.155
1.115
1.01
0.91
0.875
0.86
0.8
0.915
0.755
0.68
0.74
0.69
0.725
0.705
0.66
0.75
0.765
0.685
0.655
0.63
0.645
0.69
0.68
0.665
0.64
0.635
0.63
0.7
0.655
0.685
0.705
0.715
0.795
0.905
0.885
0.635
0.545
0.58
0.6
0.48
0.275
0.405
0.565
0.59
0.665
0.695
0.78
1.03
1.215
1.215
1.26
0.925
0.805
0.805
0.88
0.985
1.095
1.02
1.08
1.13
1.21
1.04
1.035
1.03
1.115
1.235
1.075
1.235
1.465
1.635
1.715
1.715
1.71
1.765
1.775
1.815
1.83
1.845
1.87
1.975
1.985
2.075
2.06
2.045
2.075
2.165
2.135
2.015
2.03
2.025
2.08
2.22
2.17
2.21
2.225
2.275
2.34
2.32
2.345
2.305
2.21
2.27
2.175
2.47
2.64
2.795
2.835
2.92
3.045
3.07
3.12
3.145
3.12
3.09
3.08
3.115
3.03
3.135
3.185
3.27
3.225
3.17
3.16
3.245
