# TIPE ECG 2021 - ECG-ID Database v1.0.0 par Physionet
# [N° de la personne, N° de l'enregistrement, Période d'échantillonnage, Prénom, Age, Sexe, Date de l'enregistrement]
[17, 1, 0.002, "Rose", 21, "F", "26.04.2005"]
0.055
0.055
0.09
-0.09
-0.005
-0.205
-0.2
-0.175
-0.12
-0.07
0.07
0.16
0.1
-0.035
-0.07
-0.175
-0.15
-0.1
-0.06
0.0
0.09
0.06
0.0
-0.025
-0.075
-0.175
-0.15
-0.25
-0.04
0.01
0.08
0.115
0.065
-0.015
0.035
-0.07
-0.14
-0.14
-0.07
0.055
0.155
0.205
0.07
-0.05
-0.115
-0.16
-0.16
-0.02
0.04
0.04
0.125
0.215
0.145
0.005
-0.13
-0.31
-0.17
0.125
0.105
0.065
0.235
0.255
0.165
0.06
0.17
-0.005
0.01
0.015
-0.025
0.105
0.255
0.26
0.22
0.1
0.115
-0.11
0.0
-0.01
0.055
0.235
0.385
0.395
0.245
0.235
0.15
-0.01
-0.015
0.125
0.21
0.185
0.205
0.22
0.23
0.185
0.18
0.055
-0.005
0.09
0.24
0.21
0.395
0.255
0.19
0.09
0.055
-0.15
-0.03
0.06
0.085
0.19
0.205
0.245
0.09
0.035
-0.105
-0.165
-0.115
0.0
0.02
0.04
0.065
0.04
0.195
0.06
0.01
-0.145
-0.255
-0.035
0.045
0.125
0.265
0.235
0.065
-0.03
-0.065
-0.105
-0.11
0.025
0.09
0.065
0.175
0.205
0.13
0.05
-0.08
-0.065
-0.035
-0.12
-0.035
0.125
0.31
0.375
0.275
0.025
-0.235
-0.2
-0.1
0.03
0.005
0.12
0.185
0.14
0.005
-0.115
-0.215
-0.24
-0.005
-0.03
0.165
0.185
0.205
0.21
0.22
0.135
0.025
-0.085
-0.135
0.02
0.15
0.12
0.095
0.195
0.005
0.03
-0.105
-0.075
-0.095
0.0
0.03
0.13
0.21
0.15
0.025
-0.115
0.025
0.105
-0.165
-0.085
0.015
0.18
0.25
0.165
0.05
0.045
-0.055
-0.085
-0.05
0.015
0.09
0.22
0.1
-0.025
0.025
0.105
-0.065
-0.06
-0.015
0.095
0.13
0.26
0.25
0.04
-0.08
-0.13
-0.245
-0.015
0.055
0.185
0.095
0.185
0.155
0.115
0.015
-0.03
-0.155
-0.06
-0.085
0.055
-0.035
0.2
0.245
0.17
0.09
0.015
-0.145
-0.05
-0.015
0.005
0.025
0.195
0.265
0.155
-0.1
-0.17
0.06
-0.075
-0.025
0.045
0.05
0.11
0.215
0.18
-0.025
-0.135
-0.205
-0.215
-0.03
0.075
0.235
0.295
0.18
0.095
-0.06
-0.055
-0.165
0.015
-0.015
0.045
0.21
0.22
0.2
0.06
-0.02
-0.045
-0.225
-0.18
-0.005
0.085
0.085
0.215
0.15
0.115
0.015
-0.095
-0.07
-0.05
-0.045
-0.02
-0.005
0.11
0.235
0.165
0.12
0.02
-0.03
-0.13
0.09
0.095
0.1
0.165
0.2
0.135
0.02
-0.085
-0.08
-0.015
0.035
0.08
0.12
0.27
0.28
0.19
0.115
-0.065
-0.025
0.015
0.225
0.18
0.215
0.18
0.22
0.235
0.13
-0.065
0.095
0.1
0.07
0.025
0.065
0.225
0.38
0.17
0.065
-0.045
-0.015
0.03
0.05
0.06
0.185
0.19
0.03
0.035
-0.05
-0.155
-0.125
-0.08
-0.015
0.045
0.27
0.2
0.13
0.055
-0.005
-0.08
-0.08
-0.105
0.03
0.085
0.135
0.175
0.075
0.01
-0.06
-0.315
-0.145
-0.12
-0.04
-0.025
0.16
0.275
0.425
0.45
0.5
0.54
0.705
0.99
1.24
1.35
1.5
1.575
1.335
1.195
1.07
0.925
0.69
0.335
0.245
0.125
0.015
0.19
0.105
-0.05
-0.13
-0.245
-0.175
0.005
0.01
0.11
0.21
0.205
0.15
-0.045
-0.155
-0.09
-0.075
-0.02
0.045
0.055
0.055
0.115
0.09
0.065
-0.14
-0.16
-0.12
-0.07
0.18
0.135
0.185
0.155
0.14
-0.04
-0.045
-0.035
0.04
-0.07
0.12
0.16
0.245
0.2
0.09
0.04
0.01
-0.025
0.015
-0.005
0.04
0.095
0.225
0.145
0.0
0.09
-0.02
-0.145
-0.09
0.205
0.245
0.245
0.26
0.2
0.18
-0.045
-0.045
-0.08
-0.19
0.125
0.18
0.305
0.225
0.24
0.115
0.08
-0.01
0.005
0.08
0.07
0.14
0.175
0.26
0.18
0.145
0.025
0.115
0.12
0.215
0.115
0.18
0.305
0.25
0.3
0.255
0.205
0.075
0.11
0.16
0.225
0.275
0.385
0.39
0.335
0.235
0.265
0.14
0.18
0.2
0.295
0.355
0.345
0.345
0.385
0.415
0.205
0.1
0.15
0.295
0.355
0.415
0.45
0.49
0.3
0.21
0.22
0.145
0.005
0.11
0.265
0.395
0.425
0.37
0.29
0.235
0.07
-0.07
-0.015
0.135
0.15
0.135
0.305
0.345
0.295
0.13
0.06
-0.075
-0.085
0.005
0.1
0.17
0.31
0.22
0.125
0.15
0.035
-0.095
-0.03
0.02
0.02
0.085
0.185
0.145
0.125
0.115
0.045
-0.005
-0.03
0.09
0.015
0.13
0.095
0.125
0.105
0.195
0.09
0.01
0.015
0.05
0.1
0.14
0.215
0.22
0.055
0.155
0.005
-0.065
-0.055
0.12
0.205
0.155
0.245
0.165
0.1
0.145
0.075
-0.095
-0.115
-0.025
0.07
0.32
0.245
0.185
0.155
0.135
0.0
0.06
0.09
0.075
0.09
0.17
0.105
0.16
0.26
0.005
0.005
0.07
0.085
0.185
0.205
0.34
0.255
0.235
0.215
0.185
0.01
-0.065
-0.055
0.16
0.18
0.31
0.365
0.33
0.225
0.13
0.025
0.05
0.13
0.165
0.255
0.28
0.285
0.13
0.115
0.155
0.12
0.085
0.045
0.095
0.2
0.335
0.315
0.24
0.21
0.085
0.04
0.085
0.065
0.07
0.235
0.31
0.29
0.22
0.275
0.095
-0.01
-0.005
-0.085
0.06
0.27
0.38
0.415
0.24
0.125
0.12
0.015
-0.065
-0.075
0.17
0.27
0.3
0.335
0.27
0.19
0.18
0.005
0.0
0.01
0.16
0.25
0.32
0.28
0.235
0.105
0.065
0.265
0.12
0.13
0.245
0.365
0.375
0.43
0.255
0.18
0.175
0.05
0.005
0.165
0.28
0.285
0.425
0.43
0.365
0.215
0.14
0.035
-0.065
-0.04
0.095
0.19
0.27
0.25
0.25
0.12
0.145
-0.01
0.06
0.105
0.145
0.215
0.225
0.27
0.195
0.12
0.085
-0.02
-0.105
-0.075
-0.05
0.18
0.365
0.31
0.22
0.085
-0.085
-0.17
0.045
0.0
0.04
0.05
0.175
0.235
0.195
0.105
0.11
0.175
0.345
0.465
0.66
0.85
1.195
1.395
1.455
1.385
1.13
1.0
1.115
1.18
1.125
1.06
0.785
0.565
0.295
0.075
-0.12
-0.125
-0.09
0.085
0.035
0.135
0.15
0.11
0.18
0.05
-0.07
0.045
0.085
0.045
0.05
0.225
0.25
0.27
0.175
0.11
-0.015
0.0
-0.015
0.1
0.145
0.225
0.185
0.175
0.145
0.1
0.045
0.02
-0.02
0.0
0.14
0.395
0.325
0.2
0.12
0.065
-0.02
-0.065
-0.03
0.135
0.155
0.28
0.315
0.28
0.13
0.07
-0.075
-0.115
0.1
0.235
0.225
0.29
0.27
0.245
0.1
0.06
0.025
-0.01
0.15
0.195
0.125
0.26
0.31
0.23
0.2
0.16
0.095
0.07
0.11
0.215
0.19
0.385
0.365
0.215
0.105
0.035
0.055
0.025
0.165
0.22
0.345
0.415
0.4
0.345
0.295
0.185
0.1
0.14
0.165
0.285
0.39
0.435
0.38
0.44
0.34
0.325
0.16
0.13
0.32
0.355
0.44
0.495
0.32
0.31
0.365
0.23
0.245
0.33
0.41
0.385
0.52
0.505
0.5
0.445
0.32
0.2
0.195
0.27
0.315
0.31
0.415
0.455
0.44
0.42
0.27
0.045
0.05
0.135
0.065
0.23
0.475
0.28
0.315
0.285
0.185
0.005
0.105
0.11
0.18
0.145
0.315
0.32
0.3
0.21
0.085
-0.045
-0.15
-0.01
0.205
0.215
0.355
0.32
0.31
0.145
0.045
-0.1
-0.04
0.125
0.17
0.205
0.24
0.275
0.22
0.285
0.205
-0.095
-0.065
0.045
0.12
0.275
0.34
0.33
0.23
0.04
0.105
-0.105
-0.015
0.14
0.225
0.2
0.315
0.31
0.165
0.055
0.115
-0.03
-0.025
0.06
0.11
0.18
0.26
0.335
0.245
0.235
0.13
0.025
0.075
0.05
0.095
0.18
0.245
0.23
0.165
0.095
0.09
0.04
0.015
0.04
0.135
0.295
0.34
0.37
0.33
0.165
0.095
-0.015
-0.005
0.065
0.015
0.225
0.435
0.365
0.195
0.07
-0.015
-0.135
0.095
0.215
0.28
0.26
0.345
0.305
0.25
0.16
0.085
0.02
0.0
0.085
0.07
0.115
0.39
0.38
0.235
0.16
0.095
-0.005
0.055
0.09
0.155
0.355
0.335
0.22
0.13
0.12
0.025
0.01
0.08
0.11
0.205
0.305
0.305
0.32
0.21
0.11
-0.12
-0.075
0.05
0.15
0.225
0.26
0.22
0.275
0.23
0.16
0.035
-0.005
-0.02
0.14
0.225
0.3
0.27
0.29
0.155
0.085
-0.005
0.03
0.055
0.15
0.19
0.29
0.26
0.215
0.245
0.205
0.05
0.09
0.095
0.19
0.305
0.415
0.33
0.355
0.225
0.28
0.055
0.03
0.095
0.175
0.165
0.33
0.415
0.33
0.215
0.165
0.055
0.105
0.145
0.185
0.16
0.225
0.235
0.4
0.205
0.075
0.005
-0.01
0.01
-0.01
0.08
0.165
0.35
0.245
0.145
0.075
-0.005
0.0
0.005
0.105
0.105
0.23
0.225
0.185
0.17
0.15
-0.02
-0.05
-0.065
0.03
0.095
0.205
0.16
0.06
-0.02
-0.06
-0.13
-0.12
0.015
0.17
0.395
0.725
0.945
0.92
1.01
1.115
1.185
1.26
1.49
1.505
1.4
1.395
1.305
1.18
0.94
0.475
0.325
0.25
0.225
0.125
0.11
0.26
0.36
0.31
0.125
-0.03
0.02
0.04
-0.01
0.13
0.175
0.245
0.07
0.1
0.04
-0.135
-0.07
-0.01
0.115
0.14
0.2
0.235
0.235
0.13
0.095
-0.02
-0.035
-0.035
-0.01
0.155
0.28
0.205
0.21
0.12
0.05
-0.06
-0.155
-0.205
0.045
0.13
0.32
0.245
0.245
0.105
0.02
-0.095
-0.06
0.075
0.105
0.065
0.35
0.235
0.24
0.1
0.09
-0.08
-0.04
-0.015
0.16
0.165
0.285
0.28
0.235
0.125
0.1
-0.01
-0.015
0.005
0.04
0.145
0.2
0.36
0.24
0.14
0.1
-0.085
-0.13
0.115
0.15
0.15
0.3
0.325
0.315
0.225
0.18
-0.025
-0.015
0.08
0.2
0.18
0.34
0.265
0.22
0.125
0.325
0.09
0.095
0.2
0.31
0.31
0.385
0.365
0.36
0.27
0.225
-0.005
0.17
0.235
0.255
0.32
0.44
0.425
0.305
0.29
0.165
0.1
0.1
0.165
0.265
0.365
0.425
0.42
0.28
0.155
-0.005
0.165
0.09
0.145
0.19
0.275
0.395
0.315
0.215
0.1
0.02
0.02
0.085
0.055
0.14
0.19
0.325
0.27
0.095
0.085
-0.025
-0.13
-0.02
0.05
0.27
0.26
0.25
0.255
0.195
0.055
-0.02
-0.035
-0.09
0.05
0.085
0.14
0.22
0.16
0.135
0.12
0.025
0.01
0.0
0.085
0.2
0.27
0.225
0.16
0.095
0.06
-0.065
-0.015
-0.025
0.055
0.07
0.15
0.36
0.295
0.235
0.105
-0.015
-0.025
-0.02
-0.035
0.01
0.185
0.36
0.245
0.145
0.08
-0.045
-0.09
-0.01
0.05
0.085
0.27
0.21
0.215
0.15
0.065
-0.035
0.0
0.035
0.07
0.14
0.24
0.2
0.15
0.115
0.105
-0.045
-0.08
0.005
0.03
0.08
0.265
0.255
0.295
0.15
0.1
-0.065
-0.065
-0.02
0.13
0.165
0.22
0.265
0.23
0.075
-0.025
-0.15
0.045
0.035
0.19
0.185
0.275
0.205
0.235
0.11
0.065
-0.02
-0.045
-0.03
0.095
0.18
0.16
0.195
0.19
0.09
0.085
0.08
-0.065
0.055
0.07
0.175
0.21
0.19
0.205
0.155
0.005
-0.015
-0.04
0.035
0.115
0.2
0.26
0.24
0.215
0.145
0.01
-0.07
-0.025
-0.015
0.17
0.2
0.3
0.19
0.16
0.11
0.045
0.0
-0.035
0.01
-0.065
0.055
0.34
0.255
0.205
0.095
0.01
0.0
-0.045
-0.01
0.155
0.23
0.285
0.195
0.125
0.005
-0.025
0.045
0.025
0.1
0.17
0.285
0.225
0.03
0.07
0.185
-0.03
-0.01
0.05
0.1
0.03
0.18
0.235
0.19
0.21
0.135
0.025
0.065
0.04
0.03
0.115
0.25
0.185
0.165
0.0
-0.08
0.07
0.045
-0.005
0.11
0.095
0.17
0.35
0.16
0.13
0.06
-0.105
0.02
-0.01
0.105
0.115
0.28
0.18
0.13
0.1
0.055
0.03
0.01
0.03
0.135
0.15
0.215
0.24
0.155
0.03
-0.02
-0.165
-0.05
0.025
0.25
0.23
0.325
0.35
0.225
0.13
0.08
-0.065
-0.08
0.01
0.135
0.18
0.305
0.3
0.24
0.08
0.12
0.02
0.145
0.225
0.28
0.215
0.38
0.33
0.06
0.045
0.25
0.11
0.075
0.125
0.21
0.265
0.375
0.255
0.355
0.105
0.07
-0.005
0.02
0.185
0.155
0.15
0.235
0.24
0.145
0.07
0.075
-0.02
-0.125
0.01
0.12
0.115
0.205
0.27
0.2
0.055
-0.035
-0.03
-0.02
0.065
0.13
0.2
0.165
0.21
0.15
-0.09
-0.07
-0.075
-0.175
-0.155
-0.02
0.115
0.16
0.2
0.24
0.305
0.32
0.425
0.64
0.895
1.135
1.27
1.61
1.655
1.63
1.54
1.22
1.17
1.22
1.23
1.045
0.875
0.785
0.595
0.37
0.22
-0.12
-0.12
0.0
0.08
0.095
0.225
0.285
0.235
0.175
0.055
-0.05
-0.015
0.005
0.025
0.115
0.11
0.16
0.1
0.17
0.06
-0.13
-0.115
-0.015
0.095
0.16
0.15
0.195
0.16
0.085
0.035
-0.1
-0.115
-0.11
-0.01
0.055
0.34
0.255
0.065
0.02
0.09
-0.015
-0.035
-0.01
0.035
0.15
0.28
0.295
0.235
0.09
0.08
-0.055
0.04
-0.04
-0.06
0.065
0.14
0.275
0.205
0.145
0.015
-0.01
0.01
0.015
0.105
0.195
0.325
0.295
0.245
0.085
0.035
-0.055
-0.13
0.035
0.15
0.2
0.15
0.255
0.175
0.04
0.155
0.07
0.05
0.115
0.23
0.28
0.405
0.305
0.195
-0.01
-0.045
-0.09
0.085
0.24
0.28
0.315
0.38
0.41
0.335
0.185
0.09
0.12
0.14
0.205
0.29
0.35
0.395
0.38
0.29
0.275
0.22
0.15
0.185
0.24
0.32
0.35
0.375
0.47
0.35
0.21
0.135
0.095
0.26
0.35
0.36
0.305
0.35
0.325
0.175
0.075
0.175
0.16
0.1
0.185
0.225
0.3
0.375
0.285
0.19
0.125
0.055
0.005
0.02
0.11
0.135
0.38
0.28
0.23
0.19
0.12
0.005
0.015
0.05
0.1
0.105
0.255
0.3
0.245
0.065
-0.055
-0.015
0.18
0.115
0.2
0.15
0.185
0.255
0.23
0.155
0.13
-0.065
0.02
0.065
0.095
0.15
0.305
0.275
0.21
0.115
0.035
-0.09
-0.05
0.04
0.165
0.23
0.27
0.285
0.2
0.205
0.185
-0.005
-0.005
0.03
0.12
0.165
0.285
0.24
0.135
0.075
0.05
-0.125
0.005
0.14
0.175
0.225
0.26
0.255
0.265
0.16
0.215
-0.05
-0.02
0.045
0.14
0.22
0.25
0.27
0.205
0.135
0.035
-0.14
-0.29
-0.05
0.245
0.25
0.26
0.315
0.245
0.03
0.125
-0.02
0.08
0.185
0.195
0.22
0.27
0.115
0.28
0.075
0.1
-0.015
0.01
0.13
0.195
0.205
0.325
0.265
0.185
0.125
0.045
-0.065
0.0
0.145
0.2
0.24
0.28
0.23
0.16
0.055
-0.015
-0.015
-0.035
0.105
0.16
0.195
0.295
0.3
0.19
0.085
-0.03
-0.03
0.025
0.165
0.29
0.305
0.06
0.255
0.25
0.075
-0.09
-0.02
0.08
0.085
0.085
0.19
0.2
0.185
0.185
0.175
0.0
-0.025
-0.02
0.01
0.075
0.37
0.285
0.145
0.12
0.135
0.005
-0.07
-0.03
0.14
0.17
0.33
0.3
0.25
0.195
0.155
-0.015
0.055
0.08
0.16
0.17
0.21
0.145
0.205
0.145
0.14
-0.035
-0.075
0.01
0.125
0.165
0.305
0.325
0.23
0.06
0.065
-0.045
0.045
0.08
0.16
0.155
0.255
0.285
0.185
0.17
0.115
-0.045
-0.015
0.035
0.11
0.18
0.25
0.275
0.23
0.085
0.155
-0.16
-0.07
-0.01
0.14
0.13
0.245
0.265
0.325
0.19
0.23
-0.06
-0.07
0.02
0.075
0.195
0.3
0.315
0.21
0.08
0.07
-0.025
-0.015
0.04
0.105
0.215
0.285
0.24
0.24
0.075
-0.02
-0.03
-0.035
0.065
0.15
0.28
0.27
0.08
0.105
0.26
0.105
0.005
-0.075
0.045
0.14
0.23
0.325
0.29
0.21
0.185
-0.02
-0.05
0.07
0.035
0.12
0.15
0.325
0.305
0.165
0.12
0.08
0.095
0.03
0.155
0.16
0.275
0.34
0.28
0.21
0.175
0.035
0.025
0.09
0.065
0.15
0.45
0.38
0.365
0.255
0.22
0.075
0.055
0.195
0.22
0.23
0.335
0.4
0.395
0.275
0.205
0.07
0.115
0.155
0.3
0.27
0.33
0.27
0.235
0.16
0.065
-0.145
-0.03
0.025
0.04
0.175
0.255
0.24
0.2
0.155
0.2
0.005
0.0
0.08
0.175
0.14
0.22
0.19
0.155
0.035
0.025
-0.025
0.06
0.035
0.08
0.135
0.22
0.195
0.1
0.0
-0.025
-0.19
-0.13
0.02
0.34
0.5
0.695
0.745
0.845
1.035
1.21
1.295
1.445
1.54
1.625
1.685
1.665
1.565
1.455
1.115
0.83
0.47
0.28
0.26
0.245
0.22
0.36
0.355
0.12
-0.055
0.095
0.015
0.045
0.06
0.125
0.18
0.31
0.27
0.165
0.105
0.04
-0.065
-0.105
0.03
0.085
0.185
0.265
0.3
0.29
0.105
-0.05
0.02
-0.065
-0.075
0.075
0.23
0.255
0.21
0.115
0.09
0.005
-0.045
-0.055
-0.025
0.18
0.195
0.295
0.225
0.16
0.15
0.045
0.025
0.005
0.0
0.135
0.25
0.235
0.175
0.14
0.065
-0.02
-0.02
0.035
0.125
0.265
0.3
0.2
0.175
0.165
0.03
-0.2
-0.005
0.095
0.105
0.18
0.245
0.22
0.235
0.14
0.19
0.04
0.03
0.035
0.085
0.185
0.3
0.305
0.125
0.19
0.16
0.1
0.055
0.02
0.19
0.23
0.35
0.32
0.31
0.19
0.155
0.07
0.1
0.1
0.26
0.36
0.335
0.345
0.315
0.27
0.18
0.04
0.145
0.225
0.26
0.335
0.46
0.385
0.285
0.295
0.265
0.2
0.14
0.26
0.275
0.345
0.495
0.405
0.355
0.3
0.24
0.065
0.04
0.135
0.2
0.355
0.4
0.38
0.3
0.215
0.11
-0.25
-0.04
0.255
0.25
0.265
0.35
0.28
0.175
0.215
0.135
-0.01
0.01
0.1
0.185
0.24
0.305
0.26
0.17
0.155
0.055
-0.035
-0.02
0.055
0.23
0.24
0.27
0.315
0.155
0.125
0.03
-0.04
-0.065
0.06
0.16
0.155
0.27
0.335
0.25
0.16
-0.01
0.03
-0.02
0.11
0.185
0.265
0.315
0.255
0.155
0.2
0.14
-0.005
0.03
0.075
0.2
0.315
0.28
0.285
0.245
0.12
0.06
0.015
0.06
0.14
0.19
0.18
0.285
0.33
0.21
0.145
-0.01
0.025
-0.055
0.02
0.235
0.3
0.22
0.32
0.255
0.215
0.055
-0.02
0.04
0.075
0.105
0.295
0.35
0.315
0.22
0.145
0.04
0.035
0.075
0.17
0.25
0.26
0.27
0.205
0.09
0.08
0.05
0.005
0.075
0.17
0.19
0.275
0.28
0.285
0.205
0.155
0.025
0.02
0.07
0.13
0.195
0.325
0.29
0.145
0.105
0.17
0.075
0.09
0.12
0.16
0.215
0.35
0.255
0.135
0.21
0.165
-0.01
0.05
0.09
0.14
0.2
0.255
0.215
0.125
0.235
0.135
-0.08
0.05
0.105
0.165
0.205
0.32
0.305
0.195
0.18
0.06
-0.125
-0.08
-0.07
0.145
0.27
0.36
0.34
0.22
0.15
0.125
0.055
0.11
-0.005
0.035
0.2
0.32
0.315
0.18
0.09
0.095
0.005
0.005
0.015
0.08
0.265
0.305
0.31
0.245
0.09
0.035
0.015
0.05
0.135
0.055
0.28
0.29
0.29
0.195
0.1
0.02
0.03
0.015
0.085
0.195
0.39
0.3
0.24
0.21
0.065
-0.02
-0.015
-0.06
-0.08
0.145
0.19
0.285
0.295
0.215
0.175
0.1
0.02
0.005
0.115
0.18
0.275
0.29
0.26
0.2
0.135
0.025
0.03
0.045
0.11
0.085
0.255
0.2
0.27
0.18
0.115
-0.02
-0.01
0.02
0.145
0.21
0.31
0.355
0.245
0.1
0.175
-0.055
0.03
0.05
0.17
0.24
0.315
0.26
0.235
0.22
0.26
0.06
0.145
0.15
0.245
0.3
0.435
0.39
0.31
0.175
0.155
-0.055
0.0
0.13
0.24
0.255
0.38
0.37
0.31
0.17
0.075
-0.03
-0.04
0.035
0.1
0.155
0.27
0.245
0.21
0.12
0.03
-0.03
-0.045
-0.025
0.125
0.135
0.24
0.245
0.17
0.17
0.045
-0.09
-0.005
0.035
0.065
0.135
0.22
0.17
0.11
0.03
0.0
-0.21
-0.125
-0.06
-0.06
0.0
0.185
0.195
0.21
0.11
0.28
0.365
0.62
0.85
1.03
1.225
1.635
1.8
1.65
1.5
1.31
1.145
1.13
1.085
0.895
0.65
0.495
0.395
0.18
0.06
-0.14
-0.125
-0.03
0.055
0.095
0.175
0.255
0.22
0.11
0.025
-0.075
-0.055
-0.01
0.05
0.16
0.135
0.075
0.185
0.145
0.095
-0.1
-0.065
0.025
0.01
0.09
0.22
0.23
0.215
0.085
0.005
-0.21
-0.1
0.035
0.065
0.12
0.26
0.29
0.245
0.155
0.065
-0.06
-0.03
-0.04
-0.005
0.065
0.25
0.225
0.21
0.145
0.065
-0.04
-0.05
-0.05
0.015
0.06
0.3
0.23
0.2
0.06
0.045
-0.03
-0.09
-0.055
0.065
0.245
0.265
0.225
0.25
0.18
0.085
-0.11
-0.135
0.125
0.16
0.19
0.375
0.265
0.215
0.125
0.1
-0.01
-0.02
0.07
0.155
0.24
0.305
0.245
0.22
0.17
0.135
-0.05
0.08
0.225
0.255
0.26
0.36
0.335
0.285
0.205
0.18
0.035
0.045
0.25
0.295
0.305
0.425
0.355
0.325
0.31
0.175
0.18
0.175
0.22
0.315
0.365
0.445
0.4
0.325
0.345
0.17
0.175
0.175
0.25
0.285
0.32
0.435
0.41
0.175
0.17
0.165
0.105
0.08
0.05
0.055
0.215
0.305
0.28
0.19
0.15
0.09
0.045
-0.08
0.03
0.1
0.3
0.26
0.175
0.055
0.19
0.095
0.01
0.0
0.09
0.115
0.145
0.2
0.27
0.165
0.105
0.03
0.0
0.075
0.06
0.155
0.245
0.27
0.18
0.07
0.05
0.03
0.035
0.015
0.06
0.08
0.115
0.275
0.395
0.17
-0.015
-0.07
-0.085
0.025
0.16
0.17
0.265
0.24
0.18
0.075
0.0
-0.12
0.105
0.095
0.095
0.19
0.265
0.225
0.175
0.14
0.04
-0.12
0.12
0.055
0.075
0.17
0.275
0.28
0.22
0.115
0.09
-0.01
-0.06
-0.005
0.13
0.225
0.295
0.24
0.21
0.115
0.12
-0.015
-0.065
0.05
0.115
0.175
0.36
0.3
0.205
0.11
0.0
0.04
0.075
0.075
0.175
0.135
0.295
0.325
0.255
0.14
0.115
-0.05
0.055
0.025
0.07
0.13
0.23
0.27
0.145
0.135
0.185
-0.005
0.06
0.05
0.115
0.185
0.24
0.235
0.14
0.13
0.125
0.0
-0.045
0.105
0.175
0.215
0.28
0.26
0.185
0.135
0.04
-0.05
-0.025
0.065
0.085
0.205
0.29
0.28
0.185
-0.065
0.015
-0.015
-0.02
0.05
0.095
0.16
0.22
0.21
0.11
0.085
0.09
0.02
-0.02
0.07
0.135
0.23
0.315
0.27
0.175
0.06
-0.045
-0.07
0.025
0.06
0.115
0.21
0.26
0.165
0.145
0.09
0.0
-0.005
0.025
0.08
0.135
0.205
0.23
0.26
0.15
0.03
-0.075
0.02
-0.015
0.14
0.19
0.25
0.27
0.17
0.015
-0.04
-0.04
-0.045
0.06
0.165
0.175
0.27
0.1
0.165
0.095
0.075
-0.085
-0.085
-0.045
0.085
0.145
0.22
0.245
0.195
0.09
0.025
-0.05
-0.055
-0.02
0.11
0.105
0.265
0.235
0.255
0.145
0.17
-0.085
-0.175
-0.07
0.045
0.1
0.2
0.18
0.16
0.02
0.05
-0.16
-0.185
0.0
0.195
0.17
0.27
0.27
0.22
0.125
0.125
0.09
0.025
-0.065
0.03
0.06
0.215
0.23
0.225
0.095
0.045
-0.005
-0.055
-0.02
0.11
0.24
0.335
0.375
0.32
0.195
0.085
0.03
0.03
0.195
0.255
0.1
0.005
0.24
0.26
0.18
0.115
-0.035
0.0
-0.05
0.045
0.21
0.225
0.185
0.12
0.04
-0.06
-0.115
-0.09
0.01
0.09
0.2
0.245
0.14
0.105
0.055
-0.055
-0.11
-0.12
-0.11
-0.015
0.015
-0.05
0.215
0.15
0.06
-0.06
-0.055
-0.115
-0.075
-0.055
0.02
0.105
0.055
-0.03
-0.105
-0.23
-0.135
0.05
0.235
0.51
0.695
0.825
1.11
1.305
1.405
1.425
1.44
1.4
1.345
1.35
1.405
1.285
1.01
0.535
0.45
0.28
0.23
0.07
0.08
0.11
0.265
0.19
0.2
0.16
0.2
0.015
-0.03
0.055
0.105
0.065
0.21
0.2
0.215
0.105
0.05
-0.095
-0.145
-0.095
0.015
-0.04
0.175
0.135
0.095
0.115
0.055
-0.09
-0.12
-0.035
0.04
0.055
0.16
0.01
0.09
0.045
0.045
-0.165
-0.14
-0.065
0.035
0.12
0.185
0.18
0.08
0.04
0.0
-0.105
-0.14
-0.065
-0.01
0.005
0.135
0.125
0.12
0.04
-0.045
-0.155
-0.12
-0.03
-0.055
0.11
0.18
0.19
0.16
0.015
-0.08
-0.065
-0.075
0.0
0.095
0.11
0.215
0.165
0.09
0.085
0.09
-0.14
-0.1
-0.05
0.07
0.1
0.14
0.195
0.155
0.055
0.04
-0.06
-0.085
-0.065
0.005
0.14
0.145
0.12
0.29
0.145
0.0
-0.025
-0.005
0.09
0.14
0.235
0.235
0.285
0.2
0.165
-0.01
-0.01
0.1
0.11
0.16
0.205
0.24
0.27
0.2
0.07
0.055
0.075
0.145
0.165
0.235
0.265
0.295
0.255
0.22
0.165
-0.015
-0.055
0.005
0.03
0.165
0.275
0.225
0.115
0.085
0.045
-0.085
-0.135
0.0
-0.04
0.115
0.19
0.165
-0.01
0.04
0.015
-0.15
-0.08
-0.065
-0.025
0.085
0.19
0.215
0.12
-0.05
-0.045
-0.09
-0.09
-0.145
-0.07
0.005
0.2
0.155
0.115
-0.025
-0.02
-0.145
-0.14
-0.08
0.005
0.03
0.15
0.135
0.13
0.045
-0.01
-0.18
-0.215
-0.015
-0.04
0.03
0.165
0.135
0.175
0.02
-0.055
-0.09
-0.135
-0.145
-0.055
0.02
0.11
0.08
0.15
0.055
-0.04
-0.105
-0.16
-0.115
0.07
0.03
0.125
0.16
0.125
-0.055
-0.06
-0.125
-0.19
-0.12
0.055
0.14
0.21
0.125
0.045
0.02
-0.04
-0.15
-0.09
-0.02
-0.005
0.09
0.125
0.175
0.125
0.06
-0.065
-0.16
-0.11
0.055
-0.04
0.04
0.165
0.24
0.075
-0.005
-0.06
-0.225
-0.1
-0.105
0.1
0.11
0.135
0.065
-0.015
0.095
-0.03
-0.21
-0.08
0.0
0.08
0.155
0.23
0.195
0.08
0.065
-0.085
-0.135
-0.155
-0.09
0.04
0.15
0.175
0.135
0.025
0.055
-0.095
-0.075
-0.125
-0.05
0.04
0.18
0.195
0.135
-0.02
0.005
-0.115
-0.13
-0.12
-0.135
-0.015
0.12
0.1
0.26
0.095
0.04
-0.21
-0.18
-0.055
0.005
0.09
0.17
0.155
0.125
0.05
-0.075
-0.23
-0.17
-0.015
0.075
0.005
0.19
0.135
0.155
0.05
-0.01
-0.14
-0.11
-0.1
-0.05
0.09
0.23
0.2
0.065
-0.015
-0.06
-0.08
-0.19
-0.05
0.075
0.135
0.185
0.085
0.115
0.12
0.03
-0.125
-0.09
-0.03
0.02
0.075
0.1
0.135
0.12
-0.035
-0.055
-0.04
-0.05
-0.03
0.06
0.105
0.175
0.19
0.115
0.055
0.005
-0.08
-0.055
-0.035
-0.195
-0.04
0.3
0.225
0.13
-0.02
0.04
-0.115
-0.055
-0.06
0.0
0.165
0.24
0.225
0.13
0.075
-0.05
-0.13
-0.14
-0.1
0.165
0.14
0.26
0.225
0.13
0.035
0.03
-0.06
-0.085
-0.025
0.045
0.13
0.1
0.19
0.195
0.125
0.18
0.065
0.07
0.1
0.235
0.315
0.31
0.32
0.195
0.095
-0.04
-0.095
-0.02
0.15
0.17
0.285
0.265
0.21
0.08
0.14
-0.06
-0.07
-0.105
-0.015
-0.015
0.075
0.07
0.13
0.13
0.035
-0.105
-0.1
-0.09
0.02
-0.06
0.095
0.04
0.12
0.095
0.02
-0.085
-0.105
-0.115
0.085
0.02
0.185
0.195
0.05
0.0
-0.085
-0.255
-0.24
-0.18
-0.075
-0.085
0.08
0.135
0.165
0.325
0.495
0.525
0.69
0.9
1.18
1.4
1.63
1.63
1.54
1.48
1.34
1.175
1.06
0.885
0.595
0.385
0.505
0.445
0.21
-0.08
-0.06
-0.12
-0.235
-0.03
0.065
0.05
0.17
0.2
0.1
0.05
0.025
-0.18
-0.09
-0.075
-0.09
0.0
0.165
0.11
0.145
0.03
-0.02
-0.12
-0.11
-0.16
-0.095
-0.065
0.245
0.275
0.155
-0.015
-0.095
-0.155
-0.14
-0.105
-0.03
0.05
0.16
0.2
0.135
-0.03
-0.005
-0.045
-0.09
-0.065
0.03
0.11
0.13
0.14
0.005
-0.06
-0.1
-0.185
0.005
0.055
-0.07
-0.025
0.175
0.12
0.15
0.095
-0.02
-0.05
-0.12
-0.07
0.165
0.15
0.18
0.17
0.075
0.035
-0.03
-0.065
-0.08
0.01
0.075
0.15
0.225
0.225
0.11
0.025
-0.015
-0.025
-0.02
-0.015
0.09
0.12
0.23
0.275
0.225
0.12
-0.02
-0.01
0.045
0.06
0.17
0.33
0.36
0.34
0.245
0.14
-0.045
-0.01
0.08
0.165
0.315
0.37
0.405
0.33
0.23
0.175
0.03
0.115
0.115
0.15
0.205
0.3
0.32
0.26
0.345
0.275
0.125
0.085
0.045
0.095
0.225
0.41
0.36
0.3
0.205
0.085
-0.035
0.09
0.11
0.105
0.11
0.225
0.21
0.18
0.07
0.07
-0.035
-0.045
-0.01
0.01
0.11
0.235
0.255
0.18
0.095
0.01
-0.08
-0.035
0.02
0.065
0.01
0.215
0.135
0.165
0.115
-0.01
-0.01
-0.14
0.005
0.105
0.15
0.15
0.255
0.17
0.005
0.01
-0.13
-0.17
-0.045
0.12
0.015
0.285
0.33
0.225
0.055
0.03
-0.085
-0.095
0.025
0.06
0.13
0.17
0.18
0.11
0.06
-0.015
-0.085
-0.01
-0.04
-0.005
0.14
0.28
0.27
0.195
0.055
0.015
-0.1
-0.015
0.04
0.14
0.19
0.235
0.25
0.135
0.045
0.025
-0.09
0.0
-0.025
0.03
0.095
0.24
0.225
0.16
0.01
-0.035
-0.005
-0.03
0.135
0.11
0.185
0.26
0.28
0.16
0.06
-0.005
-0.1
0.035
0.075
0.09
0.245
0.3
0.175
0.03
0.01
0.095
-0.015
0.045
0.115
0.11
0.2
0.305
0.24
0.05
-0.065
-0.105
0.045
0.09
0.03
0.095
0.29
0.265
0.225
0.17
0.025
0.02
-0.02
-0.035
0.12
0.08
0.11
0.26
0.185
0.155
0.09
-0.065
-0.08
0.07
0.085
0.175
0.29
0.27
0.065
0.09
0.035
0.0
0.015
0.02
0.06
0.01
0.32
0.245
0.13
0.005
-0.04
0.04
0.02
0.105
0.125
0.125
0.295
0.255
0.17
0.095
0.05
-0.015
0.05
-0.04
0.03
-0.005
0.19
0.31
0.18
0.15
0.025
0.015
-0.005
0.07
0.13
0.125
0.23
0.215
0.18
0.055
0.0
-0.025
-0.02
0.03
0.12
0.07
0.18
0.17
0.185
0.165
0.12
-0.11
-0.075
0.09
0.085
0.145
0.285
0.26
0.21
0.145
0.03
-0.035
0.03
-0.03
0.085
0.255
0.31
0.23
0.195
0.235
0.085
0.045
0.09
0.135
0.24
0.265
0.325
0.33
0.255
0.11
0.015
0.01
0.05
0.08
0.22
0.255
0.335
0.34
0.16
0.115
-0.09
-0.13
-0.06
0.04
0.04
0.21
0.225
0.185
0.09
0.105
-0.12
-0.165
-0.085
-0.025
0.005
0.18
0.14
0.23
0.145
0.075
-0.17
-0.145
-0.07
0.025
0.11
0.135
0.105
0.245
0.12
-0.01
-0.19
-0.235
-0.165
-0.155
-0.15
0.08
0.175
0.24
0.19
0.235
0.36
0.565
0.685
0.99
1.19
1.46
1.565
1.43
1.35
1.205
1.18
1.125
0.985
0.745
0.525
0.365
0.235
0.175
-0.025
-0.07
-0.215
-0.18
-0.125
-0.06
-0.015
0.095
0.09
0.01
0.07
0.12
-0.04
-0.115
-0.07
0.07
0.075
0.22
0.21
0.15
0.035
0.01
-0.13
-0.155
-0.09
0.02
0.085
0.155
0.145
0.17
0.165
0.03
-0.15
-0.11
-0.05
-0.05
0.06
0.17
0.275
0.245
0.145
0.04
-0.05
-0.065
-0.015
0.01
0.08
0.225
0.305
0.15
0.055
0.02
-0.07
-0.04
0.035
0.08
0.19
0.27
0.235
0.185
0.115
-0.02
-0.14
-0.025
0.005
0.155
0.195
0.315
0.25
0.25
0.085
0.035
-0.025
-0.04
0.035
0.14
0.265
0.34
0.29
0.2
0.115
-0.085
-0.02
0.16
0.21
0.245
0.275
0.4
0.28
0.23
0.13
0.025
0.135
0.195
0.21
0.265
0.325
0.38
0.31
0.315
0.2
0.165
0.12
0.165
0.29
0.295
0.41
0.465
0.285
0.45
0.39
0.205
0.21
0.2
0.375
0.365
0.495
0.48
0.47
0.355
0.34
0.18
0.145
0.25
0.28
0.27
0.39
0.445
0.415
0.26
0.215
0.015
0.04
0.05
0.17
0.285
0.335
0.36
0.255
0.13
0.11
0.02
0.06
0.1
0.115
0.15
0.25
0.205
0.17
0.13
0.105
0.02
0.035
0.07
0.18
0.18
0.32
0.3
0.185
0.1
0.1
-0.02
-0.02
0.055
0.16
0.13
0.295
0.345
0.17
0.115
0.09
-0.1
-0.105
0.045
0.18
0.14
0.195
0.245
0.27
0.19
0.0
-0.08
-0.105
0.12
0.205
0.16
0.315
0.3
0.19
0.065
0.035
-0.135
0.035
0.055
0.175
0.15
0.155
0.295
0.19
0.09
0.06
-0.07
0.02
0.07
0.19
0.2
0.22
0.225
0.07
0.065
-0.01
0.015
0.04
0.075
0.12
0.335
0.375
0.32
0.195
0.11
0.1
0.06
-0.05
0.0
0.195
0.29
0.285
0.255
0.175
0.125
0.025
0.065
0.035
0.09
0.16
0.155
0.22
0.355
0.245
0.165
0.015
-0.06
0.005
0.05
0.195
0.255
0.28
0.21
0.15
0.14
-0.015
0.01
0.005
0.18
0.215
0.3
0.3
0.205
0.17
0.095
0.03
0.045
0.015
0.015
0.035
0.325
0.25
0.165
0.14
0.085
0.01
-0.01
0.065
0.095
0.18
0.3
0.285
0.255
0.105
0.03
-0.11
-0.075
-0.02
0.075
0.225
0.31
0.35
0.285
0.195
0.115
-0.045
0.015
0.11
0.13
0.19
0.315
0.34
0.195
0.07
0.14
0.145
0.17
0.09
0.215
0.1
0.475
0.4
0.345
0.25
0.18
0.015
0.03
0.095
0.135
0.16
0.365
0.41
0.32
0.18
0.105
-0.035
-0.025
0.04
0.075
0.175
0.265
0.285
0.285
0.145
-0.01
-0.105
-0.03
0.04
0.085
0.13
0.33
0.29
0.09
-0.09
0.095
0.04
-0.005
0.045
0.11
0.045
0.26
0.3
0.13
0.045
0.04
-0.125
-0.045
-0.085
-0.035
-0.005
0.11
0.035
0.13
0.135
0.14
0.15
0.325
0.69
0.935
1.16
1.33
1.51
1.575
1.545
1.32
1.215
1.17
1.17
1.065
0.94
0.715
0.5
0.34
0.18
-0.02
-0.115
-0.12
-0.06
0.025
0.175
0.275
0.22
0.17
0.095
0.035
-0.02
-0.015
0.0
0.085
0.24
0.3
0.205
0.125
-0.01
-0.06
-0.01
0.0
0.115
0.08
0.22
0.225
0.17
0.16
0.14
-0.1
0.015
0.02
0.145
0.115
0.225
0.225
0.16
0.13
0.07
-0.065
0.015
0.07
0.085
0.12
0.26
0.235
0.245
0.205
0.03
-0.07
0.025
0.1
0.17
0.12
0.295
0.3
0.21
0.1
0.105
-0.045
-0.08
0.14
0.135
0.18
0.395
0.265
0.25
0.185
0.155
-0.035
0.015
0.0
0.185
0.205
0.285
0.35
0.29
0.245
0.185
0.035
0.0
0.05
0.24
0.21
0.295
0.33
0.355
0.285
0.225
0.17
0.105
0.105
0.265
0.305
0.445
0.35
0.345
0.28
0.26
0.07
0.265
0.275
0.305
0.32
0.445
0.515
0.375
0.405
0.28
0.105
0.205
0.265
0.405
0.46
0.535
0.53
0.4
0.335
0.27
0.165
0.13
0.245
0.345
0.46
0.57
0.46
0.4
0.29
0.08
0.125
0.13
0.12
0.19
0.31
0.37
0.39
0.275
0.23
0.08
0.025
0.07
0.12
0.285
0.27
0.33
0.255
0.305
0.22
0.035
0.125
0.045
0.14
0.225
0.285
0.28
0.21
0.275
0.275
0.045
0.095
0.075
0.145
0.27
0.36
0.265
0.265
0.25
0.195
0.01
-0.025
0.09
0.115
0.235
0.345
0.31
0.32
0.09
0.045
-0.175
-0.195
-0.24
-0.1
-0.07
0.085
0.035
0.085
0.08
0.065
-0.055
-0.11
-0.01
0.105
0.08
0.215
0.265
0.23
0.07
-0.01
-0.13
-0.03
0.025
0.195
0.12
0.295
0.365
0.285
0.185
0.14
0.02
-0.035
0.055
0.175
0.265
0.315
0.295
0.19
0.22
0.13
0.06
0.07
0.075
0.0
0.215
0.31
0.32
0.32
0.2
0.12
0.0
-0.005
0.125
0.23
0.27
0.28
0.425
0.325
0.235
0.14
0.035
0.095
0.165
0.29
0.265
0.32
0.295
0.27
0.215
0.17
0.075
0.04
0.155
0.21
0.24
0.265
0.295
0.21
0.2
0.19
0.07
0.095
0.18
0.21
0.31
0.405
0.3
0.235
0.23
0.155
0.07
0.045
0.185
0.17
0.28
0.345
0.37
0.33
0.185
0.11
0.085
0.045
0.08
0.195
0.35
0.37
0.25
0.22
0.295
0.21
0.085
0.1
0.175
0.225
0.3
0.43
0.375
0.265
0.255
0.115
0.095
0.11
0.18
0.245
0.4
0.44
0.37
0.305
0.255
0.05
0.11
0.18
0.26
0.24
0.365
0.425
0.475
0.415
0.36
0.185
0.195
0.31
0.4
0.38
0.505
0.45
0.38
0.35
0.195
0.165
0.205
0.245
0.35
0.385
0.455
0.545
0.44
0.265
0.255
0.11
0.075
0.23
0.18
0.26
0.43
0.405
0.34
0.285
0.22
0.09
0.03
0.125
0.265
0.27
0.455
0.41
0.32
0.25
0.155
0.06
-0.02
0.18
0.28
0.33
0.455
0.405
0.335
0.235
0.065
0.005
-0.015
0.065
0.205
0.2
0.29
0.49
0.625
0.595
0.715
0.82
0.92
1.19
1.41
1.7
1.81
1.97
1.795
1.55
1.55
1.305
1.125
0.92
0.765
0.68
0.745
0.685
0.395
0.345
0.255
0.155
0.155
0.2
0.325
0.4
0.5
0.4
0.25
0.315
0.31
0.105
0.095
0.195
0.275
0.335
0.465
0.4
0.36
0.335
0.225
0.175
0.225
0.235
0.245
0.3
0.46
0.35
0.41
0.325
0.125
0.105
0.18
0.33
0.365
0.465
0.53
0.455
0.415
0.33
0.18
0.225
0.235
0.32
0.405
0.48
0.405
0.43
0.33
0.32
0.155
0.21
0.21
0.25
0.395
0.555
0.6
0.49
0.33
0.37
0.255
0.275
0.285
0.26
0.415
0.51
0.49
0.49
0.395
0.28
0.4
0.41
0.31
0.405
0.44
0.55
0.515
0.55
0.49
0.375
0.245
0.27
0.34
0.39
0.485
0.645
0.675
0.595
0.505
0.35
0.405
0.4
0.295
0.38
0.51
0.67
0.76
0.69
0.565
0.56
0.385
0.385
0.49
0.58
0.59
0.78
0.83
0.685
0.585
0.53
0.385
0.415
0.63
0.6
0.67
0.795
0.75
0.69
0.575
0.59
0.475
0.365
0.43
0.58
0.67
0.825
0.765
0.625
0.465
0.515
0.425
0.42
0.435
0.475
0.46
0.745
0.715
0.605
0.505
0.395
0.285
0.37
0.46
0.58
0.6
0.67
0.63
0.535
0.405
0.43
0.345
0.325
0.42
0.48
0.54
0.7
0.665
0.65
0.495
0.35
0.27
0.265
0.5
0.57
0.66
0.705
0.615
0.56
0.47
0.415
0.3
0.35
0.47
0.525
0.64
0.675
0.66
0.56
0.415
0.415
0.35
0.44
0.465
0.485
0.58
0.67
0.64
0.5
0.51
0.28
0.35
0.47
0.475
0.545
0.665
0.66
0.565
0.525
0.47
0.37
0.4
0.44
0.455
0.51
0.565
0.625
0.53
0.48
0.495
0.385
0.405
0.395
0.535
0.535
0.625
0.68
0.625
0.545
0.52
0.335
0.325
0.395
0.425
0.48
0.615
0.67
0.655
0.6
0.51
0.365
0.35
0.47
0.48
0.57
0.605
0.625
0.605
0.465
0.45
0.305
0.365
0.435
0.45
0.55
0.64
0.655
0.63
0.545
0.475
0.36
0.265
0.365
0.44
0.485
0.705
0.71
0.59
0.435
0.53
0.375
0.34
0.4
0.42
0.555
0.7
0.67
0.58
0.535
0.39
0.265
0.38
0.395
0.45
0.46
0.605
0.57
0.515
0.545
0.305
0.435
0.4
0.525
0.545
0.545
0.645
0.63
0.535
0.415
0.35
0.39
0.375
0.44
0.495
0.565
0.6
0.565
0.58
0.51
0.365
0.3
0.355
0.455
0.5
0.595
0.615
0.62
0.565
0.52
0.435
0.33
0.35
0.405
0.545
0.545
0.62
0.62
0.565
0.45
0.335
0.365
0.38
0.475
0.56
0.6
0.59
0.59
0.505
0.495
0.36
0.35
0.375
0.48
0.53
0.6
0.665
0.62
0.52
0.485
0.31
0.345
0.38
0.46
0.465
0.57
0.63
0.575
0.645
0.48
0.45
0.38
0.36
0.485
0.565
0.66
0.725
0.595
0.51
0.48
0.385
0.415
0.395
0.495
0.55
0.78
0.86
0.71
0.605
0.69
0.37
0.49
0.52
0.62
0.66
0.75
0.73
0.6
0.555
0.485
0.28
0.33
0.57
0.64
0.605
0.76
0.615
0.61
0.545
0.435
0.25
0.36
0.385
0.48
0.425
0.495
0.525
0.57
0.505
0.47
0.34
0.32
0.375
0.49
0.56
0.56
0.63
0.565
0.44
0.345
0.33
0.29
0.4
0.435
0.37
0.485
0.62
0.395
0.325
0.335
0.27
0.3
0.385
0.515
0.79
1.065
1.195
1.28
1.3
1.5
1.77
1.78
1.93
1.965
1.97
1.92
1.78
1.49
1.425
1.15
0.82
0.745
0.685
0.63
0.49
0.515
0.655
0.61
0.56
0.345
0.29
0.37
0.405
0.525
0.57
0.58
0.615
0.45
0.41
0.27
0.35
0.39
0.46
0.525
0.625
0.55
0.635
0.605
0.43
0.4
0.305
0.3
0.45
0.45
0.57
0.56
0.58
0.525
0.51
0.29
0.32
0.35
0.45
0.56
0.615
0.65
0.565
0.53
0.46
0.355
0.355
0.41
0.505
0.4
0.62
0.605
0.565
0.54
0.485
0.38
0.315
0.32
0.485
0.615
0.67
0.715
0.665
0.56
0.5
0.38
0.36
0.44
0.5
0.525
0.71
0.66
0.61
0.56
0.545
0.38
0.37
0.405
0.525
0.615
0.545
0.695
0.66
0.5
0.535
0.39
0.45
0.535
0.575
0.685
0.74
0.76
0.735
0.635
0.555
0.46
0.415
0.525
0.615
0.64
0.76
0.745
0.765
0.725
0.7
0.515
0.495
0.62
0.745
0.7
0.77
0.83
0.79
0.695
0.715
0.595
0.5
0.645
0.505
0.695
0.795
0.86
0.82
0.735
0.565
0.565
0.615
0.585
0.595
0.725
0.705
0.76
0.69
0.585
0.56
0.5
0.455
0.48
0.495
0.645
0.725
0.67
0.605
0.595
0.455
0.41
0.375
0.42
0.515
0.67
0.73
0.65
0.625
0.58
0.49
0.37
0.405
0.505
0.615
0.575
0.695
0.62
0.565
0.55
0.44
0.345
0.385
0.425
0.595
0.71
0.725
0.655
0.57
0.54
0.5
0.45
0.435
0.45
0.45
0.71
0.63
0.61
0.64
0.545
0.445
0.415
0.43
0.535
0.51
0.675
0.74
0.695
0.555
0.485
0.35
0.47
0.465
0.535
0.56
0.63
0.62
0.625
0.62
0.495
0.39
0.38
0.425
0.56
0.595
0.645
0.665
0.595
0.49
0.435
0.28
0.225
0.355
0.595
0.645
0.72
0.675
0.615
0.54
0.445
0.4
0.275
0.36
0.475
0.585
0.755
0.625
0.555
0.575
0.45
0.44
0.39
0.415
0.465
0.525
0.66
0.655
0.6
0.485
0.56
0.365
0.335
0.425
0.675
0.665
0.645
0.605
0.56
0.505
0.365
0.38
0.395
0.475
0.52
0.69
0.685
0.64
0.56
0.485
0.47
0.4
0.42
0.49
0.58
0.51
0.655
0.665
0.65
0.57
0.47
0.385
0.325
0.32
0.52
0.605
0.67
0.66
0.55
0.5
0.465
0.505
0.38
0.485
0.53
0.585
0.65
0.54
0.625
0.535
0.395
0.385
0.43
0.52
0.495
0.625
0.715
0.565
0.57
0.53
0.405
0.405
0.43
0.395
0.57
0.6
0.69
0.65
0.515
0.53
0.48
0.37
0.425
0.47
0.57
0.645
0.66
0.635
0.585
0.525
0.35
0.3
0.22
0.28
0.67
0.765
0.715
0.68
0.565
0.51
0.385
0.38
0.435
0.49
0.535
0.665
0.65
0.635
0.53
0.45
0.385
0.44
0.405
0.485
0.52
0.6
0.575
0.545
0.47
0.54
0.375
0.365
0.44
0.52
0.505
0.565
0.565
0.565
0.675
0.47
0.415
0.37
0.42
0.415
0.415
0.59
0.755
0.665
0.525
0.51
0.445
0.41
0.44
0.535
0.5
0.55
0.545
0.67
0.645
0.51
0.395
0.385
0.4
0.535
0.645
0.755
0.74
0.645
0.54
0.545
0.44
0.435
0.4
0.55
0.705
0.845
0.81
0.735
0.67
0.64
0.405
0.42
0.415
0.53
0.72
0.75
0.68
0.65
0.59
0.585
0.42
0.455
0.465
0.56
0.57
0.63
0.585
0.61
0.53
0.45
0.415
0.4
0.44
0.455
0.58
0.57
0.615
0.635
0.48
0.46
0.32
0.365
0.375
0.545
0.645
0.7
0.535
0.605
0.53
0.435
0.335
0.26
0.32
0.315
0.435
0.54
0.49
0.43
0.325
0.32
0.615
0.75
0.87
1.06
1.335
1.53
1.755
1.855
2.015
1.935
1.95
1.83
1.765
1.825
1.775
1.575
1.26
1.005
0.8
0.585
0.48
0.41
0.37
0.4
0.56
0.73
0.665
0.595
0.56
0.39
0.27
0.44
0.435
0.485
0.56
0.67
0.565
0.42
0.41
0.245
0.34
0.36
0.465
0.47
0.66
0.645
0.575
0.525
0.415
0.285
0.34
0.335
0.465
0.52
0.64
0.63
0.545
0.485
0.385
0.27
0.33
0.355
0.415
0.38
0.745
0.7
0.67
0.435
0.49
0.355
0.305
0.42
0.53
0.52
0.545
0.395
0.535
0.565
0.55
0.355
0.29
0.49
0.5
0.5
0.68
0.59
0.615
0.475
0.5
0.415
0.375
0.415
0.445
0.515
0.65
0.72
0.695
0.535
0.49
0.37
0.36
0.38
0.52
0.66
0.705
0.715
0.695
0.49
0.42
0.445
0.475
0.485
0.63
0.67
0.735
0.775
0.695
0.565
0.525
0.43
0.475
0.46
0.655
0.73
0.78
0.82
0.7
0.68
0.67
0.585
0.525
0.64
0.72
0.74
0.87
0.78
0.78
0.675
0.695
0.515
0.425
0.54
0.705
0.87
0.86
0.8
0.775
0.695
0.545
0.45
0.47
0.55
0.62
0.745
0.685
0.62
0.595
0.625
0.475
0.46
0.475
0.54
0.59
0.645
0.595
0.63
0.545
0.405
0.405
0.37
0.455
0.425
0.55
0.705
0.75
0.635
0.54
0.485
0.38
0.4
0.435
0.45
0.515
0.64
0.65
0.615
0.505
0.525
0.465
0.345
0.49
0.49
0.55
0.69
0.665
0.63
0.57
0.47
0.335
0.35
0.4
0.41
0.395
0.66
0.66
0.66
0.58
0.455
0.355
0.39
0.48
0.56
0.475
0.655
0.675
0.62
0.47
0.52
0.36
0.34
0.46
0.51
0.51
0.69
0.625
0.58
0.55
0.43
0.405
0.38
0.355
0.435
0.55
0.725
0.62
0.49
0.38
0.495
0.45
0.44
0.44
0.53
0.55
0.595
0.59
0.555
0.53
0.375
0.445
0.45
0.465
0.51
0.6
0.67
0.595
0.55
0.465
0.385
0.295
0.315
0.45
0.535
0.57
0.645
0.61
0.595
0.505
0.43
0.35
0.35
0.43
0.5
0.57
0.655
0.62
0.56
0.47
0.42
0.295
0.35
0.42
0.495
0.535
0.54
0.65
0.645
0.475
0.345
0.33
0.42
0.41
0.445
0.56
0.62
0.535
0.455
0.56
0.425
0.35
0.38
0.405
0.5
0.61
0.645
0.535
0.525
0.38
0.28
0.355
0.395
0.49
0.49
0.6
0.58
0.59
0.425
0.455
0.315
0.315
0.305
0.46
0.5
0.57
0.595
0.55
0.49
0.4
0.22
0.305
0.415
0.38
0.375
0.535
0.505
0.585
0.465
0.38
0.27
0.335
0.355
0.445
0.475
0.535
0.58
0.58
0.45
0.425
0.31
0.325
0.36
0.295
0.375
0.56
0.62
0.635
0.37
0.415
0.315
0.26
0.22
0.32
0.355
0.545
0.61
0.675
0.505
0.395
0.285
0.325
0.29
0.465
0.475
0.635
0.63
0.55
0.48
0.435
0.325
0.36
0.4
0.545
0.595
0.655
0.66
0.62
0.49
0.36
0.31
0.33
0.365
0.395
0.485
0.67
0.675
0.565
0.485
0.38
0.23
0.24
0.265
0.35
0.435
0.525
0.47
0.38
0.38
0.325
0.15
0.235
0.275
0.355
0.395
0.445
0.525
0.44
0.335
0.245
0.195
0.27
0.35
0.39
0.435
0.57
0.4
0.425
0.285
0.175
0.055
-0.025
0.09
0.17
0.32
0.475
0.525
0.555
0.625
0.62
0.74
0.92
1.225
1.48
1.795
1.92
1.91
1.775
1.61
1.44
1.415
1.325
1.075
0.83
0.705
0.61
0.545
0.41
0.3
0.18
0.17
0.145
0.255
0.285
0.385
0.44
0.355
0.325
0.35
0.195
0.2
0.2
0.27
0.36
0.425
0.44
0.355
0.315
0.275
0.145
0.17
0.135
0.235
0.31
0.41
0.435
0.27
0.21
0.195
0.235
0.155
0.19
0.24
0.26
0.33
0.43
0.44
0.34
0.265
0.13
0.205
0.195
0.285
0.235
0.48
0.38
0.285
0.12
0.145
0.13
0.09
0.22
0.305
0.23
0.37
0.44
0.38
0.28
0.225
0.105
0.13
0.195
0.325
0.335
0.485
0.405
0.365
0.255
0.2
0.06
-0.02
0.13
0.25
0.335
0.51
0.515
0.43
0.235
0.185
0.29
0.14
0.16
0.34
0.38
0.5
0.47
0.45
0.335
0.21
0.09
0.19
0.29
0.295
0.37
0.505
0.535
0.42
0.375
0.33
0.195
0.145
0.26
0.37
0.455
0.49
0.555
0.535
0.44
0.34
0.3
0.295
0.31
0.335
0.51
0.615
0.605
0.455
0.29
0.28
0.25
0.26
0.345
0.425
0.455
0.44
0.4
0.44
0.24
0.185
0.14
0.16
0.23
0.26
0.365
0.36
0.345
0.21
0.205
0.195
0.135
0.175
0.23
0.25
0.34
0.435
0.29
0.28
0.17
0.085
-0.035
0.05
0.21
0.315
0.335
0.37
0.275
0.17
0.085
0.11
0.02
0.04
0.225
0.305
0.38
0.375
0.25
0.225
0.095
0.025
-0.025
0.195
0.255
0.3
0.39
0.375
0.265
0.21
0.1
0.01
0.03
0.1
0.155
0.23
0.5
0.385
0.32
0.25
0.075
0.025
0.135
0.155
0.21
0.275
0.46
0.375
0.33
0.3
0.215
0.02
0.08
0.15
0.235
0.32
0.44
0.375
0.34
0.335
0.335
-0.01
-0.08
0.08
0.27
0.28
0.475
0.405
0.4
0.385
0.205
0.16
0.155
0.255
0.22
0.17
0.395
0.59
0.35
0.275
0.27
0.145
0.075
0.215
0.26
0.31
0.435
0.445
0.385
0.295
0.195
0.115
0.09
0.19
0.285
0.32
0.39
0.325
0.385
0.245
0.195
0.09
0.235
0.205
0.195
0.35
0.34
0.36
0.36
0.285
0.25
0.125
0.12
0.19
0.205
0.27
0.38
0.475
0.35
0.325
0.185
0.18
0.14
0.215
0.21
0.29
0.41
0.355
0.245
0.27
0.06
0.01
0.09
0.215
0.325
0.405
0.41
0.365
0.29
0.17
0.1
0.085
0.145
0.23
0.18
0.39
0.29
0.155
0.425
0.225
0.25
0.075
0.11
0.08
0.34
0.505
0.465
0.335
0.2
0.21
0.115
0.12
0.115
0.195
0.26
0.38
0.33
0.395
0.135
0.17
0.095
0.085
0.085
0.165
0.13
0.31
0.365
0.32
0.275
0.25
0.11
0.1
0.055
0.02
0.235
0.455
0.37
0.265
0.29
0.235
0.105
0.09
0.125
0.235
0.295
0.33
0.31
0.075
0.27
0.28
-0.02
0.13
0.215
0.175
0.24
0.315
0.365
0.255
0.17
0.295
0.11
0.09
0.165
0.175
0.21
0.245
0.295
0.24
0.26
0.135
0.095
0.11
0.17
0.165
0.195
0.37
0.32
0.195
0.18
0.095
-0.02
0.07
0.105
0.29
0.32
0.335
0.395
0.26
0.27
0.19
0.12
0.11
0.18
0.255
0.28
0.405
0.345
0.25
0.175
0.16
0.09
0.095
0.13
0.13
0.175
0.365
0.26
0.27
0.2
0.05
0.015
-0.01
0.04
0.025
0.18
0.27
0.275
0.05
-0.01
-0.155
-0.12
-0.125
0.06
0.055
0.245
0.31
0.19
0.095
0.075
-0.06
-0.045
-0.1
0.07
0.005
0.185
0.125
0.135
-0.02
-0.045
-0.155
-0.225
-0.29
-0.005
0.0
0.2
0.345
0.415
0.415
0.495
0.585
0.695
0.94
1.19
1.405
1.66
1.7
1.645
1.43
1.19
1.02
1.055
0.84
0.665
0.425
0.485
0.405
0.295
0.105
0.03
-0.085
-0.065
-0.13
-0.075
-0.005
0.31
0.35
0.285
0.185
0.11
-0.1
-0.075
0.07
0.205
0.145
0.265
0.225
0.19
0.1
0.045
-0.045
-0.08
0.095
0.14
0.215
0.23
0.285
0.24
0.16
0.14
0.085
0.0
0.02
0.05
0.145
0.33
0.425
0.305
0.205
0.11
0.03
0.085
0.1
0.04
0.23
0.37
0.315
0.255
0.225
0.125
0.075
0.055
0.155
0.23
0.29
0.395
0.35
0.27
0.245
0.155
0.0
0.055
0.1
0.18
0.375
0.43
0.445
0.36
0.22
0.18
0.2
0.13
0.215
0.345
0.39
0.385
0.485
0.375
0.28
0.13
0.125
0.215
0.22
0.36
0.445
0.49
0.45
0.425
0.305
0.23
0.27
0.235
0.33
0.36
0.465
0.505
0.53
0.385
0.33
0.38
0.325
0.255
0.345
0.495
0.6
0.615
0.565
0.545
0.475
0.395
0.395
0.455
0.47
0.45
0.465
0.455
0.625
0.525
0.465
0.37
0.295
0.335
0.395
0.43
0.555
0.57
0.5
0.365
0.285
0.115
0.165
0.29
0.35
0.4
0.525
0.525
0.445
0.34
0.28
-0.005
0.12
0.225
0.345
0.28
0.375
0.425
0.36
0.365
0.295
0.06
0.14
0.05
0.32
0.335
0.43
0.405
0.34
0.26
0.195
0.065
0.01
-0.015
0.085
0.325
0.545
0.445
0.4
0.255
0.135
-0.145
0.055
0.27
0.3
0.27
0.385
0.35
0.29
0.225
0.185
0.095
0.06
0.13
0.185
0.28
0.35
0.34
0.285
0.175
0.065
0.005
0.12
0.225
0.22
0.25
0.25
0.345
0.44
0.265
0.13
0.095
0.11
0.135
0.19
0.285
0.38
0.385
0.265
0.215
0.085
-0.04
0.09
0.135
0.22
0.32
0.285
0.21
0.215
0.27
0.15
0.085
0.065
0.12
0.105
0.3
0.405
0.225
0.245
0.29
0.145
-0.05
0.095
0.12
0.165
0.285
0.325
0.255
0.29
0.255
0.12
0.09
0.15
0.155
0.17
0.36
0.34
0.325
0.32
0.19
0.1
0.11
0.095
0.165
0.215
0.28
0.375
0.305
0.145
0.095
0.195
0.14
0.11
0.205
0.235
0.265
0.28
0.265
0.3
0.22
0.105
0.085
0.075
0.135
0.305
0.275
0.36
0.3
0.215
0.1
-0.005
0.095
0.11
0.1
0.19
0.38
0.315
0.26
0.205
0.315
0.055
0.105
0.105
0.215
0.21
0.35
0.39
0.255
0.16
0.155
0.015
-0.015
0.115
0.2
0.31
0.34
0.385
0.34
0.185
0.235
0.13
0.075
0.115
0.19
0.27
0.28
0.19
0.34
0.315
0.185
0.03
0.085
0.07
0.165
0.13
0.285
0.425
0.4
0.225
0.205
0.015
-0.055
0.085
0.26
0.12
0.305
0.38
0.285
0.305
0.1
0.105
0.065
0.19
0.24
0.27
0.335
0.29
0.19
0.28
0.15
0.07
0.065
0.155
0.23
0.275
0.325
0.295
0.2
0.23
0.155
0.01
0.09
0.05
0.24
0.3
0.35
0.355
0.265
0.28
0.155
0.08
0.05
0.105
0.155
0.115
0.345
0.3
0.18
0.13
0.085
0.0
0.08
0.2
0.195
0.39
0.44
0.375
0.22
0.22
0.13
0.195
0.135
0.235
0.32
0.38
0.225
0.35
0.21
0.22
0.17
0.155
0.15
0.305
0.33
0.485
0.5
0.36
0.3
0.21
0.11
0.09
0.16
0.1
0.335
0.505
0.465
0.3
0.29
0.22
0.12
0.07
0.13
0.165
0.17
0.255
0.28
0.27
0.175
0.06
0.005
0.025
0.05
0.205
0.16
0.32
0.275
0.27
0.215
0.16
0.005
-0.035
-0.035
0.185
0.255
0.29
0.205
0.145
0.18
0.16
-0.01
-0.115
-0.005
0.055
0.115
0.235
0.295
0.345
0.36
0.495
0.495
0.655
0.8
1.135
1.37
1.675
1.725
1.675
1.68
1.55
1.25
1.31
1.14
0.94
0.69
0.385
0.51
0.535
0.365
0.13
-0.005
-0.11
0.155
0.175
0.275
0.305
0.365
0.285
0.205
0.13
0.095
-0.025
0.145
0.105
0.195
0.235
0.175
0.055
0.2
0.1
0.005
0.05
0.165
0.17
0.175
0.275
0.385
0.19
0.035
0.03
-0.15
-0.05
0.16
0.265
0.325
0.385
0.27
0.26
0.13
0.11
0.07
-0.03
0.105
0.16
0.34
0.375
0.31
0.21
0.095
0.085
0.035
0.115
0.15
0.215
0.315
0.365
0.28
0.195
0.16
0.05
-0.085
-0.015
0.02
0.345
0.445
0.3
0.35
0.25
0.215
0.045
0.095
0.085
0.25
0.3
0.365
0.335
0.355
0.22
0.235
0.145
0.15
0.14
0.25
0.295
0.355
0.415
0.27
0.21
0.23
0.175
0.1
0.225
0.32
0.305
0.465
0.435
0.43
0.305
0.27
0.125
0.095
0.105
0.32
0.43
0.51
0.355
0.445
0.44
0.375
0.28
0.305
0.215
0.375
0.435
0.55
0.56
0.48
0.32
0.33
0.125
0.165
0.165
0.34
0.39
0.495
0.48
0.475
0.34
0.295
0.22
0.205
0.18
0.31
0.26
0.36
0.355
0.175
0.365
0.24
0.125
0.125
0.11
0.295
0.37
0.4
0.315
0.155
0.22
0.12
0.05
0.03
0.125
0.225
0.255
0.335
0.39
0.295
0.155
0.17
0.055
0.105
0.135
0.205
0.265
0.31
0.38
0.29
0.085
0.205
0.1
0.005
0.15
0.19
0.22
0.355
0.365
0.255
0.115
0.125
0.18
0.105
0.18
0.255
0.38
0.36
0.36
0.305
0.245
0.065
0.05
0.02
0.125
0.17
0.215
0.36
0.31
0.29
0.245
0.14
0.06
0.22
0.24
0.27
0.31
0.385
0.365
0.25
0.13
0.095
0.045
-0.03
0.115
0.18
0.365
0.505
0.45
0.32
0.27
0.17
0.1
0.095
0.205
0.22
0.325
0.425
0.305
0.25
0.245
0.135
0.18
0.08
0.19
0.325
0.43
0.455
0.395
0.3
0.22
0.085
0.02
0.11
0.15
0.225
0.39
0.345
0.355
0.175
0.22
0.1
0.035
0.12
0.315
0.315
0.25
0.37
0.295
0.23
0.205
0.13
0.105
0.115
0.125
0.26
0.325
0.25
0.345
0.205
0.225
0.075
0.045
0.13
0.21
0.23
0.25
0.32
0.25
0.25
0.15
-0.01
-0.005
0.23
0.25
0.255
0.39
0.29
0.24
-0.075
0.13
0.085
0.025
0.155
0.21
0.255
0.405
0.355
0.255
0.2
0.145
0.035
0.03
0.04
0.04
0.225
0.21
0.445
0.385
0.225
0.225
0.135
0.04
-0.02
0.175
0.245
0.31
0.22
0.155
0.215
0.06
-0.13
0.06
0.13
0.235
0.275
0.365
0.35
0.26
0.165
0.06
-0.04
0.02
0.075
0.22
0.36
0.35
0.305
0.305
0.195
0.095
0.06
0.04
0.075
0.36
0.33
0.42
0.37
0.3
0.215
0.2
0.205
0.22
0.22
0.25
0.195
0.355
0.405
0.275
0.265
0.155
0.135
0.1
0.16
0.305
0.395
0.345
0.34
0.25
0.15
-0.055
0.03
0.04
0.155
0.19
0.215
0.43
0.21
0.115
0.135
0.055
-0.04
0.015
0.05
0.155
0.155
0.315
0.305
0.175
0.12
-0.005
0.0
0.04
0.095
0.155
0.295
0.31
0.195
-0.095
-0.055
-0.22
-0.13
-0.12
-0.12
0.085
0.31
0.345
0.425
0.56
0.605
0.705
0.815
1.025
1.325
1.6
1.785
1.8
1.595
1.46
1.335
1.085
1.065
0.755
0.56
0.43
0.455
0.28
0.285
0.17
0.08
-0.06
-0.04
0.01
0.125
0.16
0.265
0.245
0.115
0.015
0.005
-0.07
-0.045
0.02
0.07
-0.02
0.335
0.315
0.23
0.135
0.035
-0.05
-0.06
0.0
0.125
0.165
0.25
0.22
0.14
0.05
-0.04
-0.115
-0.065
0.055
0.17
0.12
0.29
0.22
0.17
0.11
0.025
-0.015
-0.03
0.055
0.14
0.21
0.27
0.225
0.095
0.04
0.01
-0.055
-0.05
0.085
0.095
0.18
0.2
0.265
0.17
0.07
0.06
-0.11
-0.06
0.11
0.21
0.305
0.275
0.27
0.09
0.13
0.0
-0.1
0.035
0.115
0.115
0.215
0.35
0.245
0.18
0.085
0.05
0.04
-0.07
0.14
0.225
0.365
0.41
0.315
0.265
0.215
0.04
0.105
0.14
0.13
0.12
0.385
0.375
0.275
0.335
0.235
0.085
0.19
0.215
0.245
0.21
0.35
0.36
0.445
0.335
0.345
0.235
0.155
0.135
0.27
0.31
0.48
0.375
0.23
0.305
0.285
0.175
0.15
0.245
0.25
0.255
0.405
0.335
0.32
0.35
0.13
0.13
0.075
0.08
0.15
0.13
0.355
0.26
0.265
0.17
0.125
0.045
0.045
0.03
0.08
0.13
0.315
0.23
0.22
0.075
0.035
0.005
-0.015
-0.02
-0.075
0.13
0.245
0.135
0.29
0.175
0.095
0.005
0.04
0.035
0.145
0.2
0.27
0.115
0.19
0.02
0.035
0.02
0.085
0.07
0.155
0.25
0.2
0.2
0.135
-0.005
0.045
0.005
-0.025
0.03
0.145
0.215
0.275
0.245
0.185
0.025
-0.075
-0.06
0.005
0.075
0.115
0.16
0.225
0.2
0.18
0.105
-0.05
-0.045
0.015
0.13
0.16
0.235
0.185
0.2
0.125
0.125
0.01
-0.05
-0.04
0.06
0.125
0.185
0.17
0.35
0.21
0.18
-0.015
-0.065
-0.055
0.025
0.17
0.305
0.24
0.21
0.175
0.125
0.03
-0.06
0.02
0.08
0.155
0.315
0.22
0.175
0.165
0.125
-0.025
-0.05
-0.06
-0.04
0.145
0.13
0.345
0.255
0.09
0.075
0.01
-0.015
-0.005
0.1
0.14
0.225
0.255
0.23
0.095
0.065
-0.09
-0.13
0.02
0.03
0.03
0.255
0.28
0.18
0.17
0.07
-0.04
-0.135
0.0
0.17
0.135
0.115
0.225
0.24
0.145
0.125
-0.05
-0.15
0.01
0.065
0.125
0.285
0.285
0.2
0.125
0.045
-0.105
-0.095
0.04
0.065
0.04
0.285
0.19
0.215
0.18
-0.035
-0.055
-0.04
0.11
0.11
0.19
0.285
0.285
0.24
0.165
0.095
0.01
0.02
0.06
0.165
0.265
0.435
0.385
0.255
0.235
0.205
0.05
0.06
0.15
0.145
0.27
0.355
0.32
0.225
0.195
0.055
0.0
0.035
0.14
0.135
0.16
0.175
0.205
0.105
0.015
-0.005
-0.07
-0.05
0.04
0.135
0.19
0.24
0.265
0.175
0.06
-0.035
-0.06
0.005
0.095
0.095
0.2
0.19
0.18
0.035
-0.01
-0.18
-0.135
-0.05
-0.02
-0.015
0.03
0.1
0.065
-0.02
-0.045
-0.045
0.075
0.305
0.49
0.79
1.0
1.225
1.37
1.465
1.55
1.52
1.5
1.42
1.31
1.32
1.255
1.085
0.755
0.55
0.34
0.1
-0.035
-0.125
-0.01
0.02
0.17
0.245
0.205
0.11
0.09
-0.025
-0.1
-0.035
0.025
0.09
0.155
0.225
0.13
0.075
-0.005
-0.1
-0.14
-0.14
-0.07
0.1
0.15
0.175
0.16
0.08
0.065
-0.055
-0.075
-0.06
-0.05
0.02
0.125
0.085
0.155
0.125
0.045
-0.095
-0.105
0.05
0.105
0.09
0.155
0.13
0.105
0.125
0.04
-0.055
-0.02
0.01
0.075
0.13
0.18
0.135
0.12
0.06
0.09
-0.085
-0.09
-0.08
0.135
0.16
0.2
0.21
0.22
0.095
-0.02
-0.14
-0.03
-0.015
0.07
0.115
0.045
0.115
0.175
0.165
0.13
0.07
0.02
0.045
0.155
0.235
0.3
0.265
0.175
0.065
0.02
-0.045
0.01
0.155
0.195
0.315
0.295
0.35
0.25
0.18
0.13
-0.03
-0.055
0.145
0.185
0.315
0.4
0.28
0.215
0.065
0.18
0.135
0.22
0.21
0.33
0.385
0.455
0.355
0.3
0.24
0.155
0.115
0.04
0.165
0.195
0.445
0.425
0.35
0.275
0.225
0.075
0.085
0.11
0.16
0.145
0.295
0.31
0.225
0.165
0.15
0.0
-0.04
-0.03
-0.05
0.065
0.3
0.27
0.14
0.13
0.075
-0.07
0.01
0.01
0.115
0.13
0.235
0.265
0.195
0.02
0.04
-0.13
-0.135
-0.1
0.025
0.135
0.39
0.245
0.135
0.12
0.055
-0.115
0.03
0.01
0.09
0.165
0.25
0.18
0.15
0.06
0.05
-0.035
-0.03
-0.035
0.06
0.175
0.285
0.17
0.155
0.12
0.06
-0.12
-0.105
-0.03
0.055
0.135
0.315
0.25
0.205
0.12
0.065
-0.035
-0.06
-0.12
-0.05
0.21
0.28
0.255
0.205
0.115
0.06
-0.095
-0.08
-0.05
0.155
0.23
0.335
0.245
0.15
0.11
0.02
-0.04
-0.005
-0.085
0.115
0.235
0.325
0.3
0.165
0.06
0.095
0.085
-0.005
0.06
0.085
0.2
0.24
0.255
0.17
0.06
-0.145
0.0
0.07
0.04
0.02
0.13
0.19
0.305
0.16
0.075
-0.05
0.0
-0.045
0.115
0.085
0.235
0.225
0.205
0.16
0.045
0.04
-0.015
-0.055
0.085
0.13
0.24
0.225
0.12
0.075
-0.015
-0.125
-0.14
-0.11
0.195
0.245
0.19
0.245
0.2
0.005
0.06
-0.03
0.06
0.03
0.1
0.105
0.185
0.21
0.15
0.115
0.08
-0.065
-0.13
-0.035
0.14
0.095
0.115
0.195
0.29
0.16
0.05
-0.025
0.06
0.1
0.145
0.105
0.18
0.23
0.23
0.195
0.095
0.045
0.045
0.12
0.16
0.185
0.385
0.375
0.325
0.155
0.145
0.07
0.08
0.065
0.12
0.145
0.355
0.31
0.205
0.095
0.075
-0.19
-0.135
0.0
0.125
0.12
0.165
0.15
0.1
0.025
0.02
-0.1
-0.145
-0.04
0.01
0.05
0.175
0.225
0.08
0.005
-0.025
-0.045
-0.05
-0.04
-0.03
0.0
0.16
0.13
0.13
0.015
-0.025
-0.12
-0.075
-0.27
-0.11
-0.07
0.015
0.095
0.135
0.12
0.155
0.195
0.305
0.62
0.82
0.995
1.355
1.575
1.565
1.55
1.405
1.195
1.14
1.1
1.015
0.9
0.62
0.42
0.3
0.045
-0.095
-0.23
-0.205
-0.09
0.02
0.11
0.165
0.14
0.105
0.08
-0.04
-0.075
-0.02
-0.08
0.005
0.15
0.195
0.175
-0.035
0.0
-0.135
-0.18
-0.195
0.065
0.11
0.19
0.185
0.205
0.09
-0.035
-0.13
-0.13
-0.03
0.065
0.055
0.205
0.175
0.115
0.095
-0.02
-0.065
-0.025
-0.035
-0.035
0.12
0.175
0.185
0.185
0.11
0.0
-0.07
-0.07
-0.03
0.025
0.02
0.26
0.23
0.225
0.045
-0.065
-0.185
-0.095
0.135
0.07
0.06
0.28
0.245
0.275
0.08
0.12
-0.05
-0.085
0.045
0.065
0.205
0.335
0.3
0.26
0.17
0.045
-0.025
-0.015
0.085
0.245
0.21
0.295
0.305
0.22
0.275
0.215
0.125
0.1
0.055
0.13
0.25
0.305
0.25
0.22
0.385
0.27
0.08
0.0
0.13
0.4
0.36
0.485
0.48
0.435
0.26
0.175
0.105
0.175
0.295
0.365
0.395
0.45
0.455
0.345
0.26
0.26
0.21
0.175
0.23
0.36
0.295
0.425
0.53
0.365
0.21
0.02
-0.005
0.2
0.175
0.255
0.29
0.24
0.26
0.255
0.15
-0.005
-0.06
0.01
0.155
0.23
0.3
0.275
0.28
0.24
0.12
0.02
0.055
0.025
0.095
0.115
0.145
0.255
0.345
0.22
0.075
0.035
0.005
-0.015
0.095
0.155
0.215
0.215
0.175
0.19
0.185
0.08
-0.065
0.02
0.1
0.13
0.235
0.21
0.105
0.125
0.155
0.0
-0.005
0.02
0.095
0.11
0.255
0.275
0.275
0.075
-0.08
-0.085
0.04
0.08
0.085
0.075
0.265
0.25
0.19
0.09
0.115
-0.025
-0.085
-0.015
0.085
0.105
0.26
0.175
0.265
0.13
0.04
-0.055
-0.015
0.045
0.085
0.105
0.205
0.24
0.265
0.155
0.005
-0.11
-0.05
-0.06
0.115
0.105
0.155
0.225
0.145
0.07
0.025
-0.065
-0.11
-0.07
0.06
0.13
0.21
0.245
0.135
0.02
0.07
-0.085
-0.125
-0.005
0.08
0.11
0.23
0.22
0.14
0.015
-0.12
-0.08
0.045
0.03
0.025
0.07
0.15
0.085
0.065
0.06
0.01
-0.205
0.0
0.005
0.11
0.185
0.16
0.17
0.05
-0.065
0.12
-0.01
-0.14
-0.08
0.115
0.23
0.29
0.27
0.17
0.07
-0.11
-0.005
-0.025
0.055
0.09
0.27
0.245
0.23
0.215
0.215
0.095
0.0
-0.05
-0.07
0.165
0.255
0.295
0.275
0.19
0.05
0.09
-0.07
-0.075
0.03
0.105
0.13
0.155
0.14
0.09
-0.045
-0.11
-0.135
-0.225
-0.025
0.055
0.255
0.215
0.105
0.02
0.01
-0.07
-0.12
-0.09
0.01
0.07
0.16
0.165
0.165
0.065
-0.045
-0.175
-0.285
-0.105
-0.05
0.085
0.075
0.04
-0.03
-0.1
-0.075
-0.275
-0.145
-0.105
0.1
0.34
0.445
0.595
0.89
0.93
1.075
1.09
1.33
1.38
1.445
1.365
1.435
1.36
1.195
0.875
0.565
0.105
0.065
-0.01
0.125
0.03
0.165
0.2
0.09
0.015
0.02
-0.09
-0.11
-0.205
-0.085
0.12
0.135
0.22
0.09
0.095
-0.035
-0.135
-0.205
-0.17
-0.16
0.075
0.2
0.21
0.15
0.02
0.045
-0.11
-0.18
-0.17
-0.095
0.035
0.21
0.155
0.15
0.055
-0.015
-0.17
-0.105
-0.04
0.02
0.055
0.095
0.06
0.055
-0.035
-0.06
-0.06
-0.145
0.01
0.055
0.14
0.215
0.185
0.08
0.015
-0.14
-0.16
-0.13
-0.015
0.055
0.04
0.185
0.23
0.135
0.02
-0.065
-0.055
-0.14
0.015
0.055
0.11
0.255
0.195
0.115
0.04
-0.12
-0.115
-0.06
-0.065
0.085
0.21
0.25
0.165
0.04
0.12
0.035
-0.035
-0.005
0.05
0.055
0.26
0.265
0.165
0.035
0.025
-0.05
0.035
0.13
0.17
0.16
0.29
0.295
0.31
0.21
0.21
0.01
-0.04
0.03
0.19
0.19
0.37
0.36
0.365
0.265
0.15
0.015
0.1
0.07
0.18
0.225
0.265
0.29
0.305
0.25
0.215
0.05
0.025
0.06
0.115
0.16
0.31
0.135
0.21
0.135
0.055
-0.07
-0.02
0.005
0.05
0.125
0.21
0.165
0.265
0.13
0.12
-0.075
-0.06
0.005
0.06
0.08
0.24
0.235
0.155
0.065
0.0
-0.11
-0.165
-0.265
0.03
0.095
0.15
0.455
0.28
0.205
0.05
-0.1
-0.075
-0.015
0.115
0.105
0.265
0.205
0.195
0.085
0.055
-0.02
-0.315
-0.115
0.08
0.215
0.255
0.225
0.17
0.05
0.06
-0.06
0.0
0.02
0.095
0.195
0.27
0.22
0.195
0.115
-0.025
-0.13
-0.125
-0.175
-0.03
0.145
0.295
0.28
0.225
0.14
0.02
-0.05
0.0
0.015
0.04
0.185
0.185
0.125
0.24
-0.01
0.09
0.09
-0.015
0.03
0.03
0.15
0.19
0.24
0.22
0.1
0.015
0.0
0.005
0.025
0.11
0.225
0.26
0.23
0.135
0.095
0.02
-0.015
-0.1
-0.14
0.025
0.175
0.21
0.25
0.115
0.075
0.005
-0.025
0.08
0.04
0.12
0.18
0.19
0.18
0.09
0.01
-0.1
-0.09
-0.01
0.15
0.155
0.275
0.155
0.12
0.09
0.06
-0.05
-0.045
-0.03
0.045
0.15
0.22
0.24
0.16
0.01
0.0
-0.105
-0.07
-0.01
0.07
0.195
0.19
0.21
0.18
0.07
0.085
-0.1
0.0
-0.01
0.085
0.07
0.24
0.19
0.235
0.195
0.045
-0.05
0.02
-0.03
0.095
0.145
0.275
0.295
0.23
0.13
0.09
0.015
-0.06
0.03
0.115
0.26
0.31
0.355
0.305
0.16
0.065
-0.075
0.06
-0.005
0.185
0.255
0.315
0.395
0.27
0.155
0.13
0.005
-0.055
-0.085
0.015
0.065
0.19
0.28
0.13
0.01
0.055
-0.04
0.0
-0.055
0.07
0.12
0.215
0.09
0.045
0.025
-0.005
-0.085
-0.08
0.015
0.04
0.175
0.165
0.155
0.105
-0.04
-0.205
-0.06
-0.045
-0.005
0.06
0.02
0.06
0.025
-0.17
-0.12
-0.185
-0.245
-0.06
0.155
0.355
0.49
0.77
0.88
1.06
1.155
1.23
1.165
1.395
1.365
1.32
1.295
1.4
1.22
0.935
0.575
0.295
0.09
0.0
0.01
0.085
0.14
0.145
0.195
0.035
-0.02
-0.16
-0.16
-0.095
0.015
0.08
0.145
0.19
0.165
0.02
-0.035
-0.155
-0.13
-0.08
0.04
-0.005
0.165
0.195
0.065
0.055
-0.035
-0.21
-0.095
-0.135
0.0
0.12
0.155
0.115
0.155
0.07
-0.015
-0.145
-0.095
-0.05
0.095
0.0
0.215
0.145
0.095
0.01
-0.01
-0.195
-0.205
-0.16
-0.025
0.065
0.215
0.185
0.145
0.065
0.07
-0.155
-0.125
-0.055
0.06
0.045
0.2
0.195
0.02
-0.07
0.105
-0.11
-0.095
-0.02
0.015
0.03
0.15
0.19
0.105
0.145
0.06
-0.13
-0.19
-0.09
0.02
0.14
0.235
0.285
0.23
0.145
-0.015
-0.045
-0.085
-0.07
0.065
0.18
0.28
0.255
0.175
0.095
0.055
0.045
0.05
-0.005
0.25
0.205
0.28
0.23
0.175
0.095
0.09
-0.015
-0.02
0.19
0.225
0.215
0.31
0.31
0.205
0.13
0.125
0.08
0.01
0.14
0.12
0.305
0.42
0.335
0.27
0.17
0.03
-0.08
0.01
0.055
0.135
0.175
0.235
0.185
0.115
0.0
-0.095
-0.035
0.01
-0.035
0.07
0.17
0.21
0.205
0.08
-0.02
-0.175
-0.08
-0.065
0.0
0.05
0.095
0.16
0.125
0.045
-0.045
-0.12
-0.125
-0.07
0.0
0.02
0.18
0.17
0.14
0.045
0.005
-0.125
-0.135
-0.145
-0.01
0.045
0.15
0.145
0.085
0.115
-0.04
-0.165
-0.11
-0.125
0.065
0.025
0.17
0.19
0.105
0.015
-0.06
-0.145
-0.16
-0.1
-0.03
-0.04
0.09
0.2
0.025
-0.045
0.06
-0.19
-0.105
-0.05
-0.04
0.065
0.17
0.155
0.11
0.04
-0.02
-0.12
-0.16
-0.035
-0.01
-0.04
0.075
0.13
0.165
-0.035
-0.185
-0.155
-0.15
-0.225
0.05
0.12
0.14
0.21
0.07
0.04
-0.07
-0.23
-0.22
-0.06
0.05
0.04
0.095
-0.05
0.105
0.085
-0.08
-0.31
-0.115
-0.14
0.015
0.085
0.17
0.16
0.115
-0.005
-0.03
-0.145
-0.22
-0.14
-0.04
0.115
0.11
0.065
-0.19
-0.075
-0.07
-0.1
-0.18
-0.02
-0.1
0.07
0.135
0.1
-0.015
-0.08
-0.18
-0.25
-0.115
-0.055
-0.105
0.065
0.15
-0.01
-0.07
-0.12
-0.12
-0.24
-0.175
-0.045
0.01
0.1
0.045
0.075
-0.01
-0.115
-0.14
-0.185
-0.2
-0.15
-0.125
0.045
0.075
0.025
0.0
-0.13
-0.11
-0.19
-0.19
-0.125
-0.01
-0.09
0.035
0.0
-0.02
-0.11
-0.26
-0.21
-0.25
-0.11
-0.04
0.055
0.03
0.0
-0.06
-0.05
-0.24
-0.26
-0.225
-0.09
-0.075
0.025
0.04
-0.04
-0.065
-0.125
-0.25
-0.25
-0.21
-0.1
-0.085
0.055
0.02
0.04
-0.045
-0.11
-0.28
-0.205
-0.195
-0.075
-0.055
0.05
0.06
-0.065
-0.135
-0.215
-0.285
-0.145
-0.105
-0.04
-0.01
0.19
0.135
0.115
-0.02
-0.06
-0.125
-0.17
-0.2
-0.055
-0.01
0.145
0.165
0.04
-0.025
-0.16
-0.225
-0.18
-0.195
-0.175
-0.075
-0.005
0.02
-0.17
-0.135
-0.17
-0.405
-0.32
-0.265
-0.105
-0.1
-0.115
-0.115
-0.08
-0.145
-0.235
-0.39
-0.29
-0.215
-0.2
-0.155
-0.105
-0.075
-0.09
-0.115
-0.295
-0.33
-0.335
-0.235
-0.215
-0.145
-0.145
-0.175
-0.325
-0.4
-0.46
-0.44
-0.25
-0.19
0.02
0.21
0.455
0.625
0.6
0.74
0.815
1.025
1.11
1.235
1.215
1.16
1.18
1.085
0.785
0.51
0.045
-0.095
-0.08
-0.12
-0.19
-0.12
0.0
-0.035
-0.245
-0.395
-0.415
-0.345
-0.275
-0.215
-0.22
-0.085
-0.095
-0.08
-0.23
-0.29
-0.38
-0.56
-0.24
-0.225
-0.265
-0.15
-0.16
-0.05
-0.195
-0.205
-0.41
-0.48
-0.34
-0.18
-0.165
-0.095
-0.19
-0.075
-0.17
-0.175
-0.37
-0.36
-0.355
-0.305
-0.27
-0.035
-0.185
-0.07
-0.175
-0.22
-0.415
-0.385
-0.35
-0.245
-0.14
-0.125
-0.125
-0.1
-0.215
-0.195
-0.42
-0.35
-0.355
-0.365
-0.265
-0.11
-0.1
-0.125
-0.135
-0.26
-0.345
-0.315
-0.315
-0.215
-0.225
-0.095
-0.12
-0.06
-0.19
-0.36
-0.355
-0.305
-0.375
-0.165
-0.18
0.005
-0.105
-0.06
-0.21
-0.25
-0.26
-0.25
-0.26
-0.165
-0.135
-0.06
-0.11
-0.165
-0.155
-0.11
-0.295
-0.185
-0.185
-0.05
-0.015
0.06
0.03
-0.11
-0.125
-0.1
-0.22
-0.255
-0.175
-0.175
-0.04
0.2
0.045
0.005
-0.04
-0.12
-0.225
-0.19
-0.07
-0.04
-0.035
0.085
0.02
-0.01
-0.195
-0.265
-0.32
-0.27
-0.185
-0.105
-0.075
0.04
-0.075
-0.065
-0.215
-0.26
-0.31
-0.295
-0.2
-0.22
-0.145
-0.195
-0.265
-0.23
-0.23
-0.24
-0.225
-0.3
-0.28
-0.175
-0.085
-0.065
-0.02
-0.205
-0.245
-0.34
-0.415
-0.33
-0.24
-0.25
-0.105
-0.175
-0.305
-0.15
-0.15
-0.39
-0.395
-0.41
-0.21
-0.135
-0.125
-0.24
-0.15
-0.205
-0.305
-0.37
-0.34
-0.4
-0.455
-0.515
-0.165
0.035
-0.095
-0.255
-0.22
-0.34
-0.315
-0.23
-0.285
-0.255
-0.065
-0.115
-0.12
-0.22
-0.315
-0.44
-0.51
-0.41
-0.295
-0.135
-0.04
-0.045
-0.175
-0.185
-0.23
-0.375
-0.36
-0.335
-0.21
-0.18
-0.09
-0.095
-0.215
-0.235
-0.335
-0.625
-0.5
-0.215
-0.205
-0.225
-0.095
-0.095
-0.13
-0.185
-0.28
-0.37
-0.385
-0.295
-0.2
-0.25
-0.18
-0.145
-0.205
-0.335
-0.32
-0.4
-0.425
-0.38
-0.295
-0.2
-0.09
-0.12
-0.195
-0.225
-0.31
-0.42
-0.435
-0.29
-0.295
-0.35
-0.3
-0.34
0.06
-0.185
-0.33
-0.42
-0.45
-0.38
-0.285
-0.19
-0.115
-0.11
-0.185
-0.22
-0.32
-0.395
-0.4
-0.365
-0.295
-0.31
-0.135
-0.22
-0.24
-0.295
-0.36
-0.455
-0.41
-0.37
-0.245
-0.165
-0.145
-0.265
-0.245
-0.43
-0.365
-0.43
-0.45
-0.395
-0.205
-0.195
-0.21
-0.21
-0.215
-0.225
-0.335
-0.43
-0.45
-0.29
-0.26
-0.175
-0.215
-0.235
-0.235
-0.255
-0.315
-0.455
-0.425
-0.32
-0.24
-0.105
-0.205
-0.165
-0.235
-0.255
-0.45
-0.365
-0.33
-0.37
-0.385
-0.175
0.155
-0.085
-0.16
-0.21
-0.39
-0.405
-0.25
-0.21
-0.145
-0.045
-0.055
-0.115
-0.215
-0.26
-0.35
-0.365
-0.37
-0.26
-0.25
-0.06
-0.18
-0.27
-0.295
-0.335
-0.485
-0.43
-0.39
-0.315
-0.285
-0.19
-0.17
-0.235
-0.26
-0.36
-0.46
-0.555
-0.415
-0.315
-0.385
-0.14
-0.095
-0.265
-0.405
-0.365
-0.405
-0.53
-0.485
-0.465
-0.355
-0.29
-0.225
-0.21
-0.345
-0.4
-0.59
-0.61
-0.565
-0.44
-0.32
-0.095
0.01
0.115
0.07
0.335
0.305
0.475
0.77
0.985
1.08
1.055
0.875
0.905
0.84
0.655
0.345
-0.085
-0.225
-0.165
-0.165
-0.28
-0.345
-0.415
-0.475
-0.595
-0.52
-0.525
-0.435
-0.395
-0.195
-0.175
-0.12
-0.205
-0.315
-0.46
-0.515
-0.535
-0.495
-0.39
-0.32
-0.105
-0.25
-0.295
-0.365
-0.47
-0.51
-0.41
-0.345
-0.285
-0.255
-0.15
-0.16
-0.295
-0.385
-0.515
-0.47
-0.465
-0.315
-0.22
-0.185
-0.195
-0.205
-0.31
-0.39
-0.495
-0.495
-0.435
-0.355
-0.285
-0.115
-0.105
-0.175
-0.335
-0.38
-0.405
-0.435
-0.355
-0.29
-0.305
-0.22
-0.2
-0.13
-0.24
-0.23
-0.44
-0.39
-0.45
-0.28
-0.315
-0.215
-0.035
-0.07
-0.225
-0.3
-0.435
-0.5
-0.375
-0.335
-0.13
-0.005
-0.085
-0.14
-0.215
-0.21
-0.365
-0.355
-0.33
-0.285
-0.14
-0.115
0.015
-0.085
-0.195
-0.32
-0.34
-0.3
-0.23
-0.19
-0.165
0.05
0.005
0.04
-0.1
-0.115
-0.215
-0.245
-0.2
-0.09
-0.06
0.06
0.05
-0.03
-0.135
-0.135
-0.28
-0.325
-0.15
-0.085
-0.055
0.07
0.015
-0.055
-0.075
-0.14
-0.26
-0.25
-0.28
-0.045
-0.215
-0.075
-0.13
-0.135
-0.175
-0.255
-0.31
-0.33
-0.275
-0.18
-0.105
-0.11
-0.15
-0.13
-0.165
-0.34
-0.45
-0.42
-0.35
-0.31
-0.2
-0.13
-0.01
-0.145
-0.24
-0.33
-0.405
-0.395
-0.315
-0.26
-0.13
-0.225
-0.2
-0.18
-0.32
-0.44
-0.43
-0.435
-0.25
-0.2
-0.15
-0.11
-0.12
-0.175
-0.265
-0.355
-0.46
-0.43
-0.4
-0.335
-0.125
-0.085
-0.1
-0.13
-0.315
-0.415
-0.305
-0.37
-0.335
-0.25
-0.13
-0.095
-0.17
-0.205
-0.27
-0.4
-0.525
-0.35
-0.26
-0.21
-0.185
-0.165
-0.115
-0.125
-0.2
-0.4
-0.365
-0.415
-0.39
-0.285
0.04
0.05
-0.075
-0.195
-0.225
-0.37
-0.375
-0.355
-0.25
