# TIPE ECG 2021 - ECG-ID Database v1.0.0 par Physionet
# [N° de la personne, N° de l'enregistrement, Période d'échantillonnage, Prénom, Age, Sexe, Date de l'enregistrement]
[17, 2, 0.002, "Rose", 21, "F", "26.04.2005"]
-0.67
-0.47
-0.42
-0.21
-0.195
-0.305
-0.36
-0.415
-0.565
-0.565
-0.585
-0.52
-0.36
-0.26
-0.275
-0.38
-0.38
-0.48
-0.58
-0.505
-0.515
-0.445
-0.435
-0.285
-0.305
-0.31
-0.51
-0.475
-0.62
-0.65
-0.47
-0.41
-0.35
-0.245
-0.185
-0.27
-0.39
-0.43
-0.645
-0.57
-0.525
-0.42
-0.36
-0.31
-0.32
-0.315
-0.33
-0.395
-0.55
-0.605
-0.5
-0.395
-0.36
-0.315
-0.22
-0.375
-0.42
-0.43
-0.54
-0.505
-0.46
-0.365
-0.365
-0.265
-0.315
-0.345
-0.455
-0.485
-0.555
-0.53
-0.475
-0.41
-0.39
-0.275
-0.22
-0.31
-0.43
-0.49
-0.62
-0.57
-0.49
-0.445
-0.35
-0.14
-0.2
-0.37
-0.525
-0.515
-0.585
-0.615
-0.48
-0.41
-0.285
-0.155
-0.275
-0.4
-0.455
-0.495
-0.57
-0.58
-0.505
-0.385
-0.37
-0.265
-0.275
-0.355
-0.395
-0.515
-0.61
-0.585
-0.495
-0.475
-0.415
-0.29
-0.265
-0.37
-0.465
-0.5
-0.66
-0.67
-0.43
-0.345
-0.3
-0.255
-0.235
-0.325
-0.435
-0.575
-0.55
-0.525
-0.495
-0.425
-0.34
-0.35
-0.295
-0.41
-0.44
-0.52
-0.53
-0.55
-0.465
-0.375
-0.275
-0.27
-0.315
-0.445
-0.505
-0.585
-0.645
-0.48
-0.415
-0.31
-0.265
-0.255
-0.31
-0.295
-0.425
-0.61
-0.595
-0.44
-0.415
-0.39
-0.255
-0.265
-0.29
-0.275
-0.385
-0.5
-0.455
-0.4
-0.335
-0.31
-0.115
-0.2
-0.305
-0.44
-0.43
-0.535
-0.475
-0.41
-0.375
-0.345
-0.22
-0.305
-0.33
-0.39
-0.465
-0.555
-0.595
-0.565
-0.415
-0.46
-0.305
-0.3
-0.365
-0.51
-0.52
-0.625
-0.69
-0.535
-0.465
-0.435
-0.485
-0.27
-0.275
-0.385
-0.525
-0.51
-0.565
-0.545
-0.45
-0.39
-0.29
-0.325
-0.425
-0.61
-0.595
-0.71
-0.76
-0.64
-0.54
-0.505
-0.35
-0.195
-0.155
-0.11
0.065
0.165
0.33
0.56
0.81
1.005
1.11
0.98
0.825
0.75
0.73
0.455
0.26
-0.035
-0.08
-0.07
-0.16
-0.27
-0.435
-0.485
-0.555
-0.615
-0.615
-0.535
-0.46
-0.4
-0.29
-0.32
-0.425
-0.51
-0.715
-0.69
-0.61
-0.46
-0.48
-0.375
-0.3
-0.39
-0.46
-0.495
-0.605
-0.645
-0.6
-0.525
-0.495
-0.375
-0.315
-0.35
-0.395
-0.435
-0.575
-0.66
-0.535
-0.52
-0.49
-0.37
-0.325
-0.31
-0.415
-0.485
-0.6
-0.63
-0.565
-0.505
-0.47
-0.37
-0.375
-0.395
-0.42
-0.425
-0.57
-0.6
-0.58
-0.63
-0.365
-0.27
-0.3
-0.355
-0.415
-0.36
-0.59
-0.65
-0.62
-0.45
-0.425
-0.27
-0.32
-0.335
-0.325
-0.47
-0.575
-0.51
-0.565
-0.445
-0.4
-0.275
-0.255
-0.325
-0.36
-0.395
-0.545
-0.525
-0.51
-0.52
-0.345
-0.25
-0.19
-0.255
-0.33
-0.42
-0.56
-0.515
-0.515
-0.4
-0.275
-0.195
-0.21
-0.25
-0.32
-0.39
-0.445
-0.515
-0.38
-0.24
-0.265
-0.18
-0.24
-0.225
-0.26
-0.37
-0.415
-0.35
-0.35
-0.235
-0.26
-0.145
-0.16
-0.215
-0.335
-0.36
-0.375
-0.415
-0.415
-0.335
-0.28
-0.215
-0.24
-0.29
-0.4
-0.56
-0.625
-0.47
-0.45
-0.42
-0.3
-0.225
-0.245
-0.43
-0.505
-0.525
-0.47
-0.53
-0.535
-0.43
-0.34
-0.305
-0.275
-0.39
-0.465
-0.56
-0.545
-0.565
-0.515
-0.415
-0.38
-0.265
-0.32
-0.54
-0.645
-0.685
-0.57
-0.44
-0.41
-0.385
-0.3
-0.225
-0.26
-0.43
-0.54
-0.705
-0.575
-0.52
-0.48
-0.46
-0.35
-0.235
-0.26
-0.475
-0.51
-0.585
-0.615
-0.635
-0.415
-0.365
-0.285
-0.32
-0.31
-0.385
-0.45
-0.605
-0.685
-0.6
-0.48
-0.425
-0.305
-0.255
-0.345
-0.395
-0.43
-0.615
-0.58
-0.555
-0.505
-0.4
-0.325
-0.335
-0.33
-0.37
-0.46
-0.59
-0.57
-0.51
-0.455
-0.43
-0.275
-0.33
-0.34
-0.415
-0.52
-0.655
-0.61
-0.515
-0.435
-0.475
-0.275
-0.265
-0.33
-0.37
-0.46
-0.605
-0.545
-0.445
-0.435
-0.42
-0.295
-0.27
-0.36
-0.415
-0.495
-0.605
-0.53
-0.53
-0.4
-0.39
-0.255
-0.245
-0.365
-0.435
-0.49
-0.64
-0.605
-0.46
-0.425
-0.355
-0.245
-0.305
-0.375
-0.49
-0.56
-0.575
-0.605
-0.47
-0.46
-0.41
-0.265
-0.245
-0.355
-0.415
-0.43
-0.545
-0.575
-0.56
-0.575
-0.425
-0.275
-0.29
-0.36
-0.41
-0.54
-0.585
-0.495
-0.445
-0.455
-0.365
-0.35
-0.33
-0.37
-0.415
-0.49
-0.56
-0.54
-0.53
-0.485
-0.35
-0.315
-0.325
-0.46
-0.49
-0.44
-0.575
-0.545
-0.435
-0.37
-0.315
-0.35
-0.375
-0.375
-0.48
-0.575
-0.585
-0.555
-0.445
-0.415
-0.485
-0.26
-0.27
-0.385
-0.535
-0.555
-0.565
-0.505
-0.43
-0.365
-0.29
-0.31
-0.33
-0.39
-0.465
-0.615
-0.55
-0.535
-0.495
-0.375
-0.285
-0.385
-0.3
-0.44
-0.48
-0.635
-0.535
-0.515
-0.405
-0.39
-0.325
-0.305
-0.33
-0.42
-0.445
-0.57
-0.51
-0.515
-0.48
-0.465
-0.42
-0.3
-0.23
-0.285
-0.44
-0.525
-0.53
-0.46
-0.365
-0.345
-0.225
-0.285
-0.235
-0.315
-0.345
-0.47
-0.45
-0.45
-0.395
-0.32
-0.24
-0.315
-0.165
-0.26
-0.405
-0.615
-0.52
-0.365
-0.37
-0.3
-0.185
-0.235
-0.27
-0.49
-0.48
-0.51
-0.635
-0.605
-0.455
-0.47
-0.265
-0.295
-0.36
-0.46
-0.52
-0.595
-0.595
-0.56
-0.415
-0.375
-0.33
-0.35
-0.41
-0.465
-0.46
-0.645
-0.56
-0.545
-0.42
-0.475
-0.37
-0.35
-0.38
-0.62
-0.66
-0.68
-0.735
-0.715
-0.585
-0.295
-0.145
-0.03
0.0
0.075
0.18
0.265
0.48
0.65
0.93
1.135
1.165
1.2
0.955
0.82
0.605
0.335
0.0
-0.19
-0.185
-0.195
-0.315
-0.335
-0.425
-0.53
-0.635
-0.64
-0.59
-0.395
-0.375
-0.315
-0.27
-0.315
-0.45
-0.52
-0.6
-0.625
-0.54
-0.5
-0.41
-0.345
-0.275
-0.33
-0.37
-0.61
-0.62
-0.605
-0.525
-0.43
-0.54
-0.385
-0.325
-0.335
-0.325
-0.485
-0.555
-0.54
-0.53
-0.47
-0.39
-0.315
-0.325
-0.375
-0.425
-0.545
-0.52
-0.545
-0.545
-0.495
-0.48
-0.23
-0.26
-0.33
-0.42
-0.405
-0.59
-0.64
-0.57
-0.51
-0.38
-0.195
-0.19
-0.375
-0.46
-0.35
-0.565
-0.52
-0.54
-0.41
-0.415
-0.27
-0.225
-0.245
-0.34
-0.425
-0.495
-0.46
-0.545
-0.48
-0.395
-0.29
-0.32
-0.29
-0.29
-0.365
-0.43
-0.435
-0.43
-0.39
-0.425
-0.275
-0.27
-0.065
-0.305
-0.335
-0.455
-0.395
-0.355
-0.24
-0.255
-0.175
-0.14
-0.255
-0.305
-0.35
-0.37
-0.355
-0.32
-0.255
-0.255
-0.075
0.0
-0.13
-0.23
-0.31
-0.32
-0.335
-0.275
-0.275
-0.185
-0.085
-0.085
-0.165
-0.3
-0.345
-0.41
-0.37
-0.275
-0.225
-0.155
-0.115
-0.205
-0.24
-0.35
-0.38
-0.455
-0.445
-0.4
-0.305
-0.265
-0.235
-0.21
-0.335
-0.505
-0.535
-0.56
-0.45
-0.415
-0.33
-0.335
-0.14
-0.23
-0.355
-0.37
-0.515
-0.535
-0.55
-0.465
-0.405
-0.35
-0.33
-0.25
-0.25
-0.37
-0.465
-0.555
-0.47
-0.41
-0.33
-0.24
-0.3
-0.31
-0.345
-0.45
-0.58
-0.5
-0.51
-0.485
-0.35
-0.24
-0.195
-0.305
-0.365
-0.435
-0.515
-0.495
-0.475
-0.39
-0.45
-0.315
-0.29
-0.26
-0.335
-0.41
-0.55
-0.485
-0.46
-0.425
-0.305
-0.315
-0.285
-0.225
-0.37
-0.38
-0.525
-0.53
-0.575
-0.47
-0.235
-0.265
-0.26
-0.295
-0.39
-0.43
-0.515
-0.51
-0.46
-0.425
-0.365
-0.2
-0.225
-0.255
-0.355
-0.405
-0.555
-0.53
-0.53
-0.4
-0.36
-0.29
-0.205
-0.28
-0.37
-0.44
-0.485
-0.4
-0.435
-0.4
-0.4
-0.25
-0.24
-0.285
-0.375
-0.455
-0.5
-0.5
-0.385
-0.33
-0.39
-0.275
-0.31
-0.455
-0.38
-0.335
-0.435
-0.485
-0.465
-0.41
-0.32
-0.225
-0.29
-0.255
-0.375
-0.455
-0.53
-0.58
-0.495
-0.395
-0.29
-0.23
-0.26
-0.295
-0.44
-0.425
-0.505
-0.525
-0.47
-0.43
-0.255
-0.275
-0.275
-0.335
-0.415
-0.505
-0.535
-0.5
-0.455
-0.38
-0.33
-0.305
-0.275
-0.435
-0.375
-0.445
-0.525
-0.535
-0.47
-0.41
-0.36
-0.23
-0.22
-0.34
-0.335
-0.435
-0.51
-0.455
-0.455
-0.375
-0.275
-0.34
-0.365
-0.31
-0.42
-0.425
-0.635
-0.555
-0.355
-0.34
-0.22
-0.265
-0.32
-0.26
-0.345
-0.595
-0.73
-0.51
-0.43
-0.27
-0.235
-0.275
-0.35
-0.37
-0.405
-0.415
-0.5
-0.55
-0.41
-0.345
-0.31
-0.27
-0.38
-0.36
-0.365
-0.495
-0.47
-0.475
-0.36
-0.33
-0.285
-0.25
-0.295
-0.395
-0.435
-0.59
-0.545
-0.41
-0.38
-0.36
-0.195
-0.29
-0.325
-0.425
-0.505
-0.655
-0.56
-0.385
-0.405
-0.335
-0.255
-0.2
-0.335
-0.37
-0.4
-0.53
-0.565
-0.45
-0.365
-0.29
-0.23
-0.15
-0.275
-0.365
-0.41
-0.49
-0.52
-0.445
-0.4
-0.185
-0.175
-0.175
-0.235
-0.355
-0.365
-0.41
-0.38
-0.325
-0.14
-0.305
-0.275
-0.11
-0.22
-0.28
-0.33
-0.42
-0.425
-0.365
-0.335
-0.375
-0.155
-0.14
-0.205
-0.33
-0.4
-0.535
-0.525
-0.51
-0.36
-0.3
-0.2
-0.24
-0.4
-0.42
-0.445
-0.585
-0.6
-0.54
-0.445
-0.365
-0.205
-0.18
-0.335
-0.485
-0.49
-0.54
-0.575
-0.435
-0.405
-0.315
-0.22
-0.265
-0.35
-0.445
-0.665
-0.74
-0.685
-0.59
-0.485
-0.365
-0.23
-0.15
-0.125
-0.065
-0.01
0.12
0.315
0.64
0.865
1.19
1.16
1.14
1.01
0.795
0.73
0.58
0.51
0.315
0.15
0.01
-0.05
-0.24
-0.445
-0.42
-0.47
-0.515
-0.54
-0.495
-0.365
-0.35
-0.205
-0.29
-0.31
-0.455
-0.5
-0.51
-0.51
-0.635
-0.445
-0.35
-0.26
-0.32
-0.32
-0.395
-0.525
-0.48
-0.48
-0.38
-0.445
-0.34
-0.235
-0.325
-0.36
-0.43
-0.54
-0.56
-0.47
-0.36
-0.345
-0.255
-0.27
-0.31
-0.38
-0.405
-0.515
-0.54
-0.445
-0.38
-0.385
-0.255
-0.24
-0.305
-0.425
-0.42
-0.57
-0.5
-0.44
-0.395
-0.33
-0.22
-0.215
-0.31
-0.42
-0.41
-0.445
-0.435
-0.425
-0.405
-0.345
-0.2
-0.18
-0.32
-0.36
-0.385
-0.415
-0.405
-0.41
-0.325
-0.25
-0.215
-0.155
-0.21
-0.405
-0.445
-0.37
-0.45
-0.39
-0.36
-0.23
-0.19
-0.12
-0.165
-0.265
-0.32
-0.355
-0.365
-0.285
-0.165
-0.225
-0.06
-0.075
-0.195
-0.19
-0.295
-0.345
-0.37
-0.26
-0.2
-0.09
0.01
-0.105
-0.115
-0.145
-0.29
-0.305
-0.26
-0.215
-0.17
-0.01
-0.02
-0.04
-0.085
-0.205
-0.37
-0.325
-0.285
-0.27
-0.26
-0.185
0.035
-0.03
-0.19
-0.17
-0.305
-0.38
-0.39
-0.305
-0.225
-0.125
-0.165
-0.15
-0.215
-0.345
-0.46
-0.445
-0.445
-0.35
-0.315
-0.215
-0.16
-0.17
-0.22
-0.33
-0.525
-0.625
-0.41
-0.325
-0.33
-0.275
-0.295
-0.295
-0.245
-0.33
-0.46
-0.415
-0.44
-0.35
-0.33
-0.175
-0.165
-0.24
-0.35
-0.4
-0.455
-0.47
-0.455
-0.3
-0.24
-0.21
-0.23
-0.255
-0.34
-0.31
-0.455
-0.525
-0.355
-0.325
-0.395
-0.35
-0.255
-0.215
-0.26
-0.31
-0.465
-0.42
-0.3
-0.32
-0.33
-0.215
-0.24
-0.29
-0.385
-0.33
-0.47
-0.46
-0.375
-0.385
-0.28
-0.23
-0.235
-0.25
-0.37
-0.31
-0.415
-0.41
-0.37
-0.23
-0.27
-0.135
-0.27
-0.26
-0.255
-0.35
-0.435
-0.445
-0.435
-0.35
-0.35
-0.32
-0.035
-0.165
-0.3
-0.345
-0.425
-0.5
-0.44
-0.335
-0.12
-0.06
-0.23
-0.255
-0.295
-0.395
-0.445
-0.37
-0.34
-0.365
-0.155
-0.13
-0.14
-0.305
-0.375
-0.455
-0.4
-0.425
-0.385
-0.36
-0.205
-0.15
-0.16
-0.235
-0.395
-0.505
-0.495
-0.39
-0.28
-0.26
-0.19
-0.145
-0.15
-0.26
-0.395
-0.5
-0.505
-0.39
-0.295
-0.335
-0.18
-0.095
-0.23
-0.295
-0.33
-0.415
-0.37
-0.36
-0.38
-0.425
-0.29
-0.21
-0.21
-0.275
-0.275
-0.41
-0.455
-0.35
-0.345
-0.24
-0.185
-0.23
-0.165
-0.28
-0.365
-0.435
-0.45
-0.485
-0.385
-0.3
-0.115
-0.155
-0.235
-0.285
-0.35
-0.425
-0.44
-0.315
-0.245
-0.28
-0.135
-0.155
-0.24
-0.305
-0.28
-0.52
-0.475
-0.47
-0.435
-0.315
-0.1
-0.125
-0.275
-0.235
-0.36
-0.405
-0.305
-0.33
-0.3
-0.28
-0.16
-0.165
-0.205
-0.28
-0.325
-0.395
-0.45
-0.44
-0.29
-0.26
-0.16
-0.17
-0.22
-0.39
-0.345
-0.385
-0.405
-0.34
-0.27
-0.25
-0.175
-0.18
-0.23
-0.28
-0.32
-0.465
-0.435
-0.345
-0.285
-0.225
-0.145
-0.095
-0.185
-0.37
-0.38
-0.47
-0.46
-0.25
-0.3
-0.2
-0.135
-0.11
-0.16
-0.24
-0.33
-0.42
-0.42
-0.37
-0.315
-0.235
-0.125
-0.185
-0.24
-0.285
-0.33
-0.435
-0.44
-0.415
-0.25
-0.125
-0.14
-0.06
-0.19
-0.31
-0.365
-0.33
-0.39
-0.35
-0.2
-0.205
-0.16
0.005
-0.04
-0.235
-0.325
-0.325
-0.26
-0.17
-0.145
-0.03
0.025
-0.045
-0.125
-0.21
-0.3
-0.345
-0.325
-0.295
-0.21
-0.01
0.025
-0.1
-0.285
-0.275
-0.325
-0.38
-0.365
-0.29
-0.21
-0.11
-0.185
-0.215
-0.335
-0.355
-0.48
-0.48
-0.435
-0.275
-0.25
-0.18
-0.15
-0.125
-0.19
-0.285
-0.465
-0.385
-0.375
-0.345
-0.29
-0.13
-0.125
-0.245
-0.375
-0.37
-0.535
-0.62
-0.525
-0.41
-0.41
-0.14
-0.16
0.025
0.025
0.095
0.225
0.43
0.57
0.845
1.135
1.31
1.315
1.215
1.11
0.97
0.675
0.535
0.375
0.23
0.15
0.09
0.035
-0.145
-0.275
-0.36
-0.51
-0.47
-0.39
-0.325
-0.305
-0.135
-0.01
-0.215
-0.285
-0.285
-0.46
-0.505
-0.455
-0.305
-0.215
-0.12
-0.115
-0.21
-0.31
-0.375
-0.505
-0.405
-0.395
-0.27
-0.235
-0.155
-0.195
-0.195
-0.285
-0.345
-0.47
-0.405
-0.315
-0.24
-0.21
-0.09
-0.155
-0.18
-0.265
-0.355
-0.455
-0.44
-0.34
-0.28
-0.205
-0.225
-0.25
-0.3
-0.295
-0.35
-0.38
-0.31
-0.255
-0.2
-0.15
-0.1
-0.135
-0.225
-0.29
-0.385
-0.415
-0.38
-0.275
-0.26
-0.095
-0.055
-0.06
-0.2
-0.32
-0.38
-0.36
-0.305
-0.265
-0.18
-0.135
-0.035
-0.11
-0.245
-0.28
-0.36
-0.33
-0.4
-0.305
-0.14
-0.02
0.025
-0.04
-0.105
-0.18
-0.28
-0.24
-0.205
-0.18
-0.27
-0.1
-0.05
0.11
-0.015
-0.135
-0.245
-0.255
-0.185
-0.08
-0.015
0.135
0.015
-0.015
-0.02
-0.11
-0.195
-0.225
-0.165
-0.1
-0.015
0.07
0.03
-0.005
0.01
-0.07
-0.19
-0.15
-0.175
-0.055
-0.035
0.055
-0.055
-0.04
-0.115
-0.195
-0.315
-0.28
-0.15
-0.205
-0.155
-0.065
0.01
-0.1
-0.19
-0.25
-0.345
-0.365
-0.28
-0.195
-0.17
-0.09
-0.095
-0.105
-0.225
-0.235
-0.33
-0.52
-0.455
-0.165
-0.15
-0.025
-0.025
-0.065
-0.19
-0.24
-0.36
-0.315
-0.34
-0.25
-0.14
-0.065
-0.13
-0.185
-0.265
-0.325
-0.405
-0.325
-0.285
-0.215
-0.18
-0.04
-0.085
-0.135
-0.23
-0.29
-0.37
-0.38
-0.285
-0.205
-0.155
-0.06
-0.06
-0.22
-0.34
-0.3
-0.315
-0.25
-0.26
-0.175
-0.14
-0.08
-0.13
-0.215
-0.215
-0.265
-0.33
-0.34
-0.31
-0.2
-0.115
-0.075
-0.115
-0.23
-0.26
-0.345
-0.365
-0.36
-0.16
-0.225
-0.205
-0.025
-0.065
-0.13
-0.23
-0.33
-0.355
-0.295
-0.245
-0.135
-0.105
-0.105
-0.11
-0.25
-0.225
-0.3
-0.325
-0.295
-0.205
-0.125
-0.08
-0.045
-0.065
-0.17
-0.275
-0.385
-0.39
-0.29
-0.265
-0.155
-0.215
0.0
-0.045
-0.15
-0.225
-0.375
-0.355
-0.34
-0.245
-0.115
-0.01
-0.055
-0.095
-0.17
-0.205
-0.345
-0.33
-0.355
-0.335
-0.185
-0.03
-0.03
-0.125
-0.21
-0.235
-0.37
-0.345
-0.29
-0.235
-0.235
-0.095
-0.155
-0.11
-0.25
-0.145
-0.31
-0.34
-0.25
-0.205
-0.16
-0.04
-0.125
-0.115
-0.145
-0.29
-0.445
-0.445
-0.235
-0.21
-0.215
-0.1
-0.035
-0.04
-0.19
-0.235
-0.37
-0.34
-0.27
-0.28
-0.22
-0.045
-0.09
-0.08
-0.13
-0.245
-0.375
-0.365
-0.32
-0.275
-0.18
-0.09
-0.055
-0.145
-0.235
-0.28
-0.29
-0.29
-0.36
-0.17
-0.14
-0.05
-0.07
-0.105
-0.185
-0.295
-0.39
-0.365
-0.27
-0.21
-0.11
-0.04
-0.02
-0.145
-0.21
-0.375
-0.4
-0.37
-0.24
-0.175
-0.1
-0.035
-0.08
-0.165
-0.205
-0.315
-0.395
-0.355
-0.275
-0.255
-0.09
0.015
-0.015
-0.145
-0.16
-0.285
-0.39
-0.34
-0.305
-0.13
-0.095
-0.06
-0.135
-0.18
-0.175
-0.27
-0.275
-0.3
-0.305
-0.21
-0.085
-0.035
-0.04
-0.175
-0.22
-0.33
-0.36
-0.34
-0.17
-0.135
-0.085
-0.05
-0.07
-0.155
-0.255
-0.36
-0.38
-0.285
-0.245
-0.155
0.02
0.05
-0.02
-0.14
-0.21
-0.29
-0.255
-0.26
-0.21
-0.11
0.04
0.035
0.07
-0.02
-0.135
-0.37
-0.275
-0.145
-0.12
-0.055
0.095
0.03
-0.015
-0.145
-0.18
-0.295
-0.285
-0.175
-0.225
-0.13
0.005
-0.11
-0.245
-0.28
-0.195
-0.31
-0.34
-0.27
-0.24
-0.14
0.005
-0.075
-0.105
-0.23
-0.24
-0.425
-0.365
-0.305
-0.25
-0.19
0.005
-0.135
-0.23
-0.22
-0.245
-0.505
-0.405
-0.365
-0.29
-0.235
-0.18
-0.19
-0.25
-0.375
-0.415
-0.425
-0.16
0.09
0.275
0.455
0.77
0.875
0.975
1.13
1.175
1.085
1.035
1.105
1.03
1.03
1.11
0.78
0.395
0.02
-0.06
-0.25
-0.41
-0.375
-0.345
-0.26
-0.08
-0.115
-0.175
-0.26
-0.39
-0.365
-0.415
-0.415
-0.135
-0.14
-0.115
-0.09
-0.17
-0.28
-0.36
-0.34
-0.435
-0.31
-0.25
-0.13
-0.095
-0.085
-0.225
-0.225
-0.425
-0.395
-0.28
-0.22
-0.185
-0.08
-0.1
-0.215
-0.22
-0.275
-0.435
-0.43
-0.33
-0.19
-0.235
0.0
-0.005
-0.1
-0.17
-0.25
-0.395
-0.4
-0.39
-0.36
-0.135
-0.08
-0.115
-0.18
-0.18
-0.19
-0.335
-0.305
-0.28
-0.295
-0.19
-0.045
-0.015
-0.11
-0.175
-0.175
-0.27
-0.265
-0.29
-0.26
-0.245
-0.005
-0.085
-0.06
-0.21
-0.19
-0.25
-0.25
-0.28
-0.195
-0.125
-0.02
-0.13
-0.02
-0.185
-0.16
-0.28
-0.27
-0.16
-0.055
-0.045
0.06
-0.02
-0.005
-0.05
-0.065
-0.205
-0.19
-0.13
-0.075
-0.015
0.1
0.13
0.03
-0.045
-0.03
-0.145
-0.165
-0.28
0.02
0.1
0.15
0.13
0.05
0.07
-0.05
-0.2
-0.1
-0.015
-0.025
0.03
0.075
0.15
0.08
-0.055
-0.1
-0.2
-0.27
-0.175
-0.11
-0.11
-0.03
-0.005
-0.065
-0.125
-0.225
-0.31
-0.21
-0.135
-0.15
-0.08
-0.005
-0.04
-0.21
-0.355
-0.385
-0.22
-0.305
-0.265
-0.08
-0.05
-0.06
-0.075
-0.205
-0.24
-0.315
-0.37
-0.23
-0.3
-0.245
-0.205
-0.09
-0.11
-0.175
-0.215
-0.3
-0.34
-0.285
-0.105
-0.17
-0.12
-0.085
-0.185
-0.095
-0.115
-0.185
-0.39
-0.425
-0.275
-0.185
-0.21
-0.2
-0.065
-0.04
-0.05
-0.155
-0.22
-0.355
-0.335
-0.195
-0.17
-0.275
-0.14
-0.15
-0.17
-0.145
-0.235
-0.355
-0.31
-0.275
-0.255
-0.125
-0.085
-0.105
-0.155
-0.195
-0.125
-0.355
-0.33
-0.27
-0.195
-0.23
-0.095
-0.025
-0.005
-0.13
-0.28
-0.385
-0.35
-0.25
-0.255
-0.185
-0.03
0.0
-0.05
-0.115
-0.2
-0.33
-0.315
-0.32
-0.14
-0.22
-0.06
0.035
-0.13
-0.175
-0.24
-0.34
-0.34
-0.285
-0.215
-0.12
-0.01
-0.135
-0.145
-0.275
-0.25
-0.335
-0.275
-0.26
-0.135
-0.17
-0.01
0.01
-0.135
-0.13
-0.275
-0.37
-0.375
-0.335
-0.27
-0.155
0.01
0.005
-0.11
-0.145
-0.265
-0.37
-0.365
-0.265
-0.21
-0.125
-0.075
-0.02
-0.165
-0.165
-0.25
-0.415
-0.345
-0.28
-0.245
-0.15
0.065
0.005
-0.09
-0.23
-0.29
-0.33
-0.295
-0.275
-0.165
-0.175
-0.06
-0.115
-0.165
-0.295
-0.315
-0.325
-0.26
-0.26
-0.2
-0.165
-0.005
-0.11
-0.15
-0.16
-0.29
-0.34
-0.305
-0.295
-0.18
-0.075
-0.04
-0.07
-0.08
-0.125
-0.32
-0.39
-0.325
-0.045
-0.025
-0.045
-0.005
0.025
-0.06
-0.135
-0.285
-0.21
-0.18
-0.16
-0.105
-0.02
-0.01
-0.005
-0.025
-0.1
-0.265
-0.235
-0.19
-0.15
-0.205
-0.055
-0.01
-0.115
-0.225
-0.285
-0.425
-0.335
-0.305
-0.18
-0.18
-0.12
-0.07
-0.06
-0.115
-0.185
-0.345
-0.28
-0.34
-0.25
-0.12
-0.095
-0.205
-0.11
-0.155
-0.145
-0.36
-0.345
-0.3
-0.26
-0.225
-0.125
-0.165
-0.29
-0.355
-0.325
-0.42
-0.355
-0.25
-0.015
0.08
0.34
0.54
0.65
0.725
0.85
0.855
1.005
1.03
1.05
1.06
1.215
1.135
0.89
0.51
0.17
-0.16
-0.27
-0.28
-0.225
-0.165
-0.05
-0.17
-0.22
-0.26
-0.305
-0.4
-0.4
-0.25
-0.215
-0.1
-0.04
-0.07
-0.15
-0.135
-0.255
-0.35
-0.36
-0.21
-0.17
-0.06
-0.085
-0.11
-0.16
-0.195
-0.25
-0.275
-0.28
-0.24
-0.25
-0.095
-0.095
-0.015
-0.04
-0.185
-0.26
-0.405
-0.375
-0.27
-0.13
-0.06
0.09
0.035
-0.105
-0.215
-0.23
-0.3
-0.235
-0.245
-0.25
-0.15
0.025
0.025
-0.05
-0.115
-0.195
-0.205
-0.255
-0.26
-0.105
0.02
0.065
-0.05
-0.14
-0.285
-0.225
-0.115
-0.115
-0.1
-0.065
0.14
0.165
-0.015
-0.055
-0.075
-0.26
-0.245
-0.24
-0.225
-0.105
0.04
0.2
0.05
-0.02
0.025
-0.125
-0.105
-0.155
-0.135
-0.13
0.235
0.215
0.13
0.02
0.125
-0.085
-0.06
-0.025
-0.06
0.01
0.22
0.275
0.205
0.06
0.015
-0.1
-0.145
0.04
0.175
0.205
0.335
0.285
0.23
0.08
0.025
0.015
0.12
0.04
0.115
0.195
0.285
0.28
0.155
0.04
0.02
-0.03
-0.06
-0.015
0.075
0.055
0.22
0.155
0.095
-0.025
-0.005
-0.135
-0.21
-0.145
-0.125
-0.055
-0.03
0.175
0.105
-0.05
-0.065
-0.165
-0.205
-0.105
-0.03
-0.055
0.055
0.09
0.025
-0.06
-0.055
-0.245
-0.15
-0.12
-0.025
-0.045
0.065
0.04
0.02
-0.065
-0.1
-0.135
-0.215
-0.16
-0.14
0.025
0.0
0.08
0.005
-0.04
-0.17
-0.315
-0.27
-0.065
0.07
0.085
0.215
0.115
0.075
-0.05
-0.14
-0.165
-0.19
-0.075
0.005
0.105
0.165
0.19
-0.015
-0.185
-0.26
-0.22
-0.095
-0.02
0.015
0.1
0.13
0.135
0.075
-0.005
-0.13
-0.12
-0.09
-0.02
0.01
0.135
0.18
0.12
-0.02
0.05
-0.17
-0.125
-0.155
0.01
0.1
0.19
0.235
0.155
0.09
0.0
-0.1
-0.075
-0.005
0.02
0.075
0.235
0.21
0.15
-0.06
-0.1
-0.18
-0.135
-0.03
0.03
0.12
0.16
0.2
0.26
0.115
0.02
-0.075
-0.05
-0.105
-0.01
0.075
0.12
0.205
0.165
0.09
0.05
-0.035
0.03
-0.065
0.015
0.105
0.215
0.14
0.045
0.105
0.045
-0.07
-0.135
-0.14
-0.04
0.205
0.27
0.28
0.205
0.18
0.035
-0.11
-0.04
0.04
0.04
0.07
0.21
0.225
0.18
0.09
0.055
-0.055
-0.11
0.015
0.07
0.145
0.28
0.18
0.155
0.155
0.005
-0.095
-0.095
-0.06
0.195
0.235
0.215
0.18
0.17
0.2
0.1
-0.015
0.0
0.155
0.285
0.33
0.345
0.355
0.295
0.225
0.07
-0.015
0.015
0.095
0.165
0.26
0.295
0.27
0.225
0.235
0.095
0.005
0.085
0.075
0.09
0.14
0.205
0.205
0.105
-0.03
-0.02
-0.015
0.015
0.05
0.115
0.2
0.26
0.27
0.15
0.08
0.03
-0.04
0.01
0.035
0.08
0.23
0.22
0.195
0.1
0.02
-0.03
-0.08
-0.04
-0.03
-0.09
0.03
0.065
0.265
0.295
0.3
0.375
0.505
0.665
0.845
1.115
1.285
1.405
1.57
1.47
1.245
1.125
1.16
1.07
1.035
0.86
0.615
0.515
0.31
0.175
0.06
-0.05
-0.04
-0.06
0.0
0.045
0.185
0.28
0.33
0.16
0.115
-0.01
0.01
0.045
0.12
0.125
0.25
0.305
0.285
0.15
0.105
-0.11
-0.09
-0.06
0.15
0.225
0.365
0.295
0.285
0.27
0.175
0.04
0.055
0.09
0.18
0.22
0.295
0.31
0.195
0.09
0.145
0.14
0.07
0.175
0.245
0.285
0.335
0.345
0.28
0.195
0.13
0.025
0.05
0.115
0.21
0.28
0.345
0.32
0.255
0.185
0.07
0.14
0.15
0.22
0.24
0.335
0.415
0.385
0.375
0.27
0.225
0.135
0.09
0.2
0.28
0.35
0.415
0.38
0.285
0.27
0.275
0.18
0.215
0.235
0.36
0.445
0.475
0.495
0.425
0.295
0.28
0.23
0.145
0.195
0.385
0.515
0.655
0.535
0.455
0.42
0.325
0.255
0.285
0.445
0.46
0.61
0.665
0.535
0.495
0.445
0.26
0.27
0.285
0.445
0.575
0.695
0.66
0.58
0.57
0.515
0.37
0.305
0.37
0.44
0.485
0.545
0.575
0.535
0.345
0.29
0.19
0.285
0.305
0.37
0.44
0.445
0.41
0.45
0.35
0.28
0.27
0.2
0.175
0.235
0.335
0.445
0.44
0.375
0.34
0.2
0.205
0.24
0.23
0.355
0.375
0.43
0.44
0.42
0.37
0.31
0.155
0.125
0.16
0.215
0.315
0.49
0.49
0.43
0.36
0.315
0.15
0.14
0.22
0.305
0.345
0.44
0.38
0.32
0.355
0.295
0.14
0.14
0.31
0.36
0.355
0.47
0.45
0.465
0.3
0.29
0.195
0.17
0.305
0.37
0.345
0.48
0.495
0.43
0.295
0.26
0.17
0.225
0.255
0.34
0.43
0.435
0.525
0.4
0.335
0.225
0.21
0.2
0.295
0.29
0.4
0.6
0.52
0.445
0.255
0.22
0.18
0.275
0.31
0.445
0.56
0.565
0.475
0.37
0.315
0.225
0.165
0.34
0.33
0.39
0.41
0.495
0.415
0.45
0.315
0.27
0.25
0.345
0.345
0.48
0.525
0.55
0.55
0.375
0.31
0.245
0.145
0.11
0.38
0.48
0.56
0.59
0.525
0.44
0.385
0.25
0.25
0.31
0.365
0.42
0.51
0.495
0.54
0.385
0.355
0.205
0.25
0.27
0.4
0.415
0.525
0.505
0.515
0.395
0.335
0.21
0.265
0.315
0.34
0.435
0.475
0.49
0.39
0.465
0.405
0.28
0.295
0.25
0.32
0.47
0.595
0.545
0.47
0.38
0.41
0.26
0.31
0.235
0.355
0.395
0.52
0.515
0.37
0.475
0.405
0.29
0.255
0.31
0.455
0.45
0.545
0.515
0.495
0.505
0.44
0.295
0.315
0.335
0.39
0.435
0.605
0.55
0.45
0.5
0.42
0.34
0.395
0.51
0.56
0.59
0.66
0.64
0.55
0.45
0.505
0.33
0.365
0.405
0.42
0.495
0.635
0.56
0.475
0.445
0.29
0.285
0.375
0.375
0.335
0.485
0.6
0.48
0.415
0.365
0.22
0.2
0.35
0.37
0.455
0.47
0.535
0.47
0.44
0.45
0.31
0.24
0.255
0.275
0.42
0.47
0.575
0.54
0.415
0.32
0.175
0.08
0.06
0.2
0.265
0.3
0.51
0.525
0.7
0.77
0.8
0.955
1.1
1.305
1.57
1.81
1.875
1.87
1.89
1.705
1.45
1.455
1.37
1.14
0.91
0.83
0.755
0.72
0.495
0.295
0.185
0.305
0.345
0.405
0.42
0.475
0.51
0.45
0.36
0.42
0.315
0.315
0.35
0.365
0.4
0.565
0.49
0.4
0.415
0.305
0.23
0.315
0.375
0.42
0.4
0.515
0.565
0.49
0.35
0.365
0.255
0.295
0.325
0.315
0.47
0.64
0.505
0.415
0.405
0.41
0.33
0.25
0.295
0.41
0.39
0.505
0.565
0.505
0.37
0.48
0.365
0.275
0.315
0.405
0.395
0.605
0.59
0.535
0.435
0.355
0.29
0.325
0.335
0.42
0.54
0.705
0.705
0.54
0.43
0.375
0.325
0.31
0.315
0.425
0.565
0.66
0.63
0.475
0.425
0.405
0.35
0.275
0.49
0.55
0.56
0.68
0.645
0.635
0.48
0.47
0.39
0.44
0.55
0.555
0.605
0.725
0.73
0.595
0.5
0.575
0.365
0.465
0.61
0.65
0.74
0.795
0.73
0.715
0.6
0.55
0.47
0.4
0.415
0.615
0.81
0.84
0.745
0.77
0.64
0.51
0.465
0.46
0.525
0.63
0.73
0.74
0.605
0.56
0.515
0.52
0.455
0.475
0.475
0.475
0.57
0.64
0.535
0.57
0.5
0.385
0.355
0.34
0.465
0.515
0.59
0.645
0.585
0.51
0.465
0.275
0.3
0.29
0.28
0.485
0.675
0.62
0.59
0.56
0.47
0.32
0.3
0.335
0.375
0.415
0.665
0.63
0.56
0.495
0.47
0.32
0.305
0.345
0.375
0.385
0.57
0.525
0.61
0.455
0.38
0.38
0.43
0.41
0.48
0.545
0.72
0.525
0.515
0.41
0.385
0.295
0.29
0.355
0.46
0.54
0.605
0.615
0.56
0.46
0.485
0.45
0.28
0.245
0.305
0.455
0.625
0.54
0.445
0.525
0.455
0.345
0.33
0.375
0.5
0.505
0.615
0.63
0.54
0.405
0.42
0.325
0.315
0.285
0.455
0.465
0.625
0.605
0.545
0.445
0.365
0.33
0.255
0.28
0.355
0.535
0.625
0.685
0.585
0.47
0.39
0.305
0.28
0.295
0.395
0.505
0.615
0.525
0.555
0.49
0.4
0.335
0.315
0.36
0.53
0.6
0.57
0.52
0.475
0.42
0.31
0.275
0.145
0.47
0.525
0.555
0.57
0.545
0.48
0.395
0.375
0.33
0.405
0.405
0.395
0.56
0.56
0.545
0.455
0.365
0.215
0.295
0.365
0.42
0.54
0.585
0.615
0.575
0.425
0.49
0.305
0.22
0.285
0.37
0.475
0.54
0.565
0.51
0.41
0.32
0.255
0.325
0.38
0.34
0.37
0.56
0.59
0.68
0.52
0.335
0.235
0.325
0.365
0.42
0.44
0.555
0.56
0.525
0.43
0.35
0.285
0.345
0.415
0.415
0.51
0.55
0.535
0.56
0.425
0.385
0.28
0.255
0.24
0.41
0.44
0.57
0.59
0.575
0.485
0.38
0.255
0.275
0.325
0.38
0.37
0.51
0.63
0.6
0.45
0.38
0.19
0.275
0.35
0.355
0.5
0.59
0.615
0.58
0.405
0.36
0.275
0.27
0.315
0.48
0.505
0.55
0.57
0.545
0.495
0.415
0.31
0.32
0.37
0.41
0.525
0.665
0.63
0.475
0.415
0.47
0.525
0.495
0.47
0.48
0.48
0.56
0.685
0.62
0.49
0.37
0.37
0.335
0.445
0.56
0.59
0.55
0.595
0.39
0.415
0.375
0.315
0.27
0.38
0.455
0.415
0.495
0.555
0.475
0.395
0.295
0.2
0.17
0.22
0.19
0.545
0.635
0.54
0.495
0.435
0.3
0.265
0.275
0.33
0.365
0.455
0.535
0.38
0.24
0.27
0.115
0.15
0.13
0.195
0.32
0.555
0.715
0.84
0.88
1.105
1.1
1.175
1.365
1.65
1.81
1.945
1.92
1.8
1.64
1.595
1.265
1.12
0.845
0.72
0.665
0.715
0.535
0.39
0.365
0.28
0.155
0.325
0.37
0.375
0.415
0.57
0.485
0.43
0.4
0.365
0.26
0.215
0.27
0.31
0.32
0.44
0.555
0.48
0.375
0.33
0.11
0.16
0.23
0.29
0.405
0.56
0.58
0.485
0.37
0.34
0.215
0.265
0.27
0.34
0.375
0.5
0.42
0.315
0.345
0.385
0.29
0.31
0.325
0.365
0.325
0.465
0.44
0.445
0.4
0.33
0.215
0.28
0.3
0.46
0.445
0.505
0.485
0.385
0.255
0.305
0.26
0.19
0.36
0.465
0.425
0.515
0.505
0.57
0.44
0.285
0.2
0.215
0.325
0.435
0.49
0.57
0.555
0.485
0.385
0.335
0.19
0.265
0.52
0.52
0.51
0.64
0.655
0.545
0.45
0.345
0.275
0.25
0.285
0.5
0.575
0.7
0.61
0.62
0.52
0.43
0.42
0.44
0.51
0.56
0.68
0.735
0.675
0.605
0.515
0.385
0.405
0.375
0.44
0.585
0.66
0.67
0.775
0.655
0.59
0.45
0.4
0.43
0.58
0.57
0.675
0.505
0.455
0.355
0.295
0.245
0.475
0.375
0.4
0.44
0.545
0.605
0.51
0.445
0.385
0.205
0.23
0.295
0.34
0.395
0.5
0.505
0.4
0.37
0.365
0.22
0.28
0.295
0.35
0.35
0.525
0.485
0.475
0.33
0.3
0.16
0.225
0.285
0.43
0.33
0.3
0.51
0.48
0.36
0.34
0.23
0.22
0.22
0.335
0.45
0.485
0.395
0.385
0.315
0.355
0.245
0.18
0.23
0.3
0.39
0.545
0.51
0.445
0.345
0.33
0.25
0.215
0.22
0.325
0.415
0.475
0.505
0.39
0.335
0.275
0.13
0.13
0.13
0.405
0.435
0.475
0.575
0.48
0.33
0.285
0.165
0.155
0.285
0.265
0.33
0.52
0.47
0.345
0.285
0.305
0.2
0.28
0.23
0.33
0.49
0.58
0.475
0.45
0.345
0.2
0.105
0.165
0.23
0.335
0.47
0.49
0.425
0.38
0.385
0.205
0.235
0.225
0.28
0.335
0.44
0.505
0.44
0.365
0.295
0.215
0.17
0.14
0.2
0.405
0.515
0.495
0.43
0.385
0.27
0.165
0.245
0.175
0.285
0.325
0.455
0.44
0.43
0.335
0.23
0.12
0.2
0.16
0.245
0.24
0.565
0.51
0.42
0.305
0.22
0.105
0.175
0.195
0.325
0.365
0.445
0.375
0.345
0.345
0.275
0.16
0.165
0.175
0.24
0.33
0.36
0.375
0.475
0.32
0.335
0.155
0.175
0.2
0.31
0.22
0.38
0.42
0.375
0.255
0.26
0.2
0.145
0.12
0.185
0.28
0.515
0.47
0.37
0.33
0.305
0.265
0.155
0.21
0.265
0.25
0.43
0.445
0.4
0.235
0.185
0.065
0.14
0.265
0.3
0.265
0.42
0.41
0.405
0.345
0.23
0.14
0.085
0.175
0.255
0.325
0.5
0.455
0.365
0.22
0.18
0.16
0.185
0.145
0.19
0.3
0.425
0.505
0.385
0.255
0.275
0.135
0.145
0.22
0.3
0.37
0.41
0.41
0.32
0.3
0.23
0.06
0.105
0.215
0.235
0.315
0.385
0.4
0.275
0.28
0.215
0.13
0.12
0.23
0.285
0.31
0.36
0.24
0.39
0.355
0.2
0.155
0.18
0.215
0.325
0.385
0.405
0.37
0.33
0.275
0.185
0.15
0.195
0.24
0.175
0.42
0.455
0.48
0.345
0.275
0.19
0.19
0.23
0.37
0.43
0.5
0.455
0.395
0.31
0.145
0.18
0.265
0.395
0.37
0.375
0.445
0.535
0.43
0.365
0.32
0.18
0.185
0.17
0.22
0.27
0.37
0.38
0.32
0.245
0.23
0.145
0.115
0.155
0.245
0.21
0.295
0.385
0.275
0.26
0.23
0.11
0.095
0.065
0.06
0.205
0.33
0.355
0.26
0.265
0.29
0.115
0.01
0.02
0.18
0.185
0.22
0.12
0.2
0.225
0.26
0.21
0.325
0.55
0.82
1.01
1.245
1.435
1.62
1.595
1.65
1.54
1.445
1.355
1.42
1.39
1.26
1.035
0.705
0.5
0.39
0.195
-0.01
0.01
0.13
0.205
0.245
0.365
0.31
0.255
0.23
0.15
0.095
0.05
0.145
0.265
0.31
0.32
0.325
0.22
0.125
-0.025
0.02
0.18
0.225
0.19
0.335
0.33
0.275
0.185
0.16
0.09
0.035
0.12
0.22
0.33
0.34
0.315
0.28
0.165
0.1
0.04
0.06
0.08
0.215
0.285
0.295
0.285
0.31
0.185
0.18
0.1
0.075
0.16
0.275
0.27
0.325
0.31
0.18
0.17
0.09
0.075
0.05
0.155
0.17
0.35
0.43
0.35
0.31
0.255
0.12
0.175
0.155
0.21
0.315
0.415
0.385
0.32
0.255
0.18
0.08
0.085
0.12
0.195
0.27
0.295
0.385
0.37
0.255
0.37
0.21
0.225
0.23
0.28
0.375
0.46
0.46
0.33
0.345
0.315
0.155
0.19
0.24
0.285
0.355
0.475
0.53
0.505
0.43
0.385
0.275
0.245
0.33
0.37
0.45
0.61
0.58
0.545
0.4
0.305
0.26
0.255
0.31
0.275
0.5
0.58
0.52
0.455
0.37
0.25
0.11
0.12
0.36
0.35
0.325
0.395
0.455
0.325
0.285
0.285
0.19
0.135
0.11
0.165
0.165
0.31
0.32
0.21
0.31
0.24
0.045
0.1
0.115
0.15
0.28
0.41
0.42
0.37
0.27
0.155
0.18
0.055
0.105
0.155
0.29
0.36
0.325
0.245
0.19
0.07
0.015
0.055
0.205
0.225
0.33
0.365
0.275
0.26
0.175
0.125
0.065
0.115
0.18
0.195
0.285
0.31
0.325
0.315
0.23
0.075
0.065
0.025
0.15
0.22
0.345
0.32
0.355
0.21
0.215
0.1
0.095
0.13
0.19
0.165
0.25
0.31
0.275
0.235
0.18
0.1
-0.03
0.055
0.215
0.245
0.27
0.33
0.25
0.22
0.195
0.03
0.095
0.165
0.21
0.15
0.225
0.34
0.265
0.275
0.16
0.105
0.115
0.1
0.175
0.205
0.35
0.31
0.3
0.195
0.18
0.035
0.08
0.125
0.25
0.285
0.35
0.32
0.315
0.205
0.205
0.07
0.055
0.115
0.135
0.105
0.39
0.37
0.36
0.27
0.17
0.03
0.04
-0.02
0.15
0.22
0.345
0.31
0.31
0.265
0.205
0.025
-0.035
-0.005
0.13
0.225
0.29
0.34
0.225
0.185
0.21
0.11
0.07
0.115
0.16
0.205
0.3
0.285
0.23
0.165
0.145
0.06
0.025
-0.05
0.125
0.225
0.29
0.35
0.275
0.14
0.085
0.09
-0.025
0.04
0.23
0.3
0.385
0.345
0.245
0.11
0.02
0.01
0.015
0.065
0.15
0.255
0.41
0.365
0.21
0.045
-0.045
0.08
-0.035
0.145
0.25
0.31
0.33
0.25
0.21
0.1
-0.05
-0.02
0.095
0.185
0.215
0.31
0.36
0.29
0.23
0.175
0.055
-0.015
0.05
0.085
0.18
0.315
0.29
0.285
0.195
0.13
0.06
-0.02
0.09
0.08
0.17
0.27
0.275
0.275
0.065
0.055
-0.095
0.06
0.105
0.23
0.185
0.245
0.36
0.31
0.215
0.1
0.04
0.01
0.08
0.17
0.245
0.29
0.24
0.23
0.175
0.105
-0.025
0.075
0.145
0.135
0.2
0.275
0.295
0.16
0.12
0.155
0.18
0.08
0.105
0.18
0.2
0.315
0.265
0.225
0.125
0.15
0.065
0.1
0.09
0.225
0.26
0.44
0.43
0.39
0.275
0.28
0.16
0.14
0.2
0.295
0.205
0.35
0.41
0.315
0.175
0.035
-0.015
0.19
0.15
0.235
0.26
0.29
0.295
0.24
0.26
0.105
-0.02
-0.04
0.07
0.125
0.105
0.235
0.255
0.16
0.0
0.035
0.01
0.025
0.035
0.165
0.165
0.34
0.315
0.235
0.125
0.025
-0.105
-0.025
0.075
0.105
0.125
0.22
0.085
0.015
-0.03
-0.115
-0.1
0.0
0.27
0.42
0.64
0.965
1.08
1.1
1.175
1.27
1.44
1.485
1.45
1.48
1.445
1.485
1.375
1.045
0.7
0.32
0.13
0.1
0.135
0.12
0.11
0.225
0.205
0.155
0.115
0.0
-0.02
-0.01
0.105
0.13
0.185
0.205
0.17
0.14
0.09
-0.05
-0.08
-0.105
0.06
0.075
0.225
0.25
0.21
0.17
0.1
0.005
-0.035
0.04
0.075
0.05
0.15
0.23
0.235
0.17
0.065
-0.055
0.05
0.065
0.09
0.125
0.21
0.235
0.24
0.095
-0.005
-0.065
-0.02
-0.01
0.12
0.175
0.32
0.265
0.17
0.06
0.125
-0.015
0.045
0.075
0.045
0.08
0.165
0.1
0.15
0.28
0.17
0.075
0.08
0.05
0.135
0.235
0.35
0.25
0.21
0.185
0.11
0.015
-0.005
0.045
0.17
0.16
0.3
0.335
0.25
0.245
0.21
0.025
0.015
0.05
0.16
0.32
0.355
0.265
0.275
0.33
0.23
0.14
0.11
0.165
0.235
0.255
0.33
0.315
0.285
0.36
0.305
0.21
0.225
0.26
0.375
0.305
0.45
0.455
0.36
0.32
0.23
0.165
0.145
0.225
0.27
0.345
0.38
0.53
0.435
0.335
0.145
0.03
0.115
0.145
0.17
0.27
0.46
0.355
0.21
0.14
0.01
-0.05
-0.01
0.125
0.125
0.17
0.3
0.295
0.2
0.06
-0.015
-0.05
-0.02
0.06
0.155
0.185
0.25
0.215
0.125
0.065
-0.005
-0.03
-0.03
-0.065
0.105
0.24
0.27
0.205
0.145
0.1
-0.08
-0.09
-0.01
0.035
0.16
0.265
0.31
0.215
0.115
0.075
-0.115
-0.125
-0.005
0.095
0.065
0.16
0.235
0.21
0.125
0.035
-0.14
-0.065
0.015
0.1
0.155
0.275
0.235
0.19
0.065
0.08
-0.14
-0.22
-0.06
0.165
0.12
0.22
0.235
0.195
0.04
-0.005
-0.005
-0.04
0.005
0.09
0.12
0.255
0.235
0.17
0.105
0.045
-0.09
-0.03
0.03
0.07
0.19
0.215
0.125
0.155
0.135
0.045
-0.13
-0.01
0.06
0.165
0.2
0.25
0.22
0.165
0.045
0.015
-0.055
-0.05
0.05
0.08
0.17
0.3
0.3
0.14
0.01
0.015
-0.05
-0.03
0.015
0.125
0.15
0.275
0.28
0.125
0.02
-0.04
-0.09
0.0
0.025
0.105
0.145
0.225
0.22
0.08
0.025
0.04
0.005
-0.055
-0.04
0.125
0.11
0.295
0.21
0.135
0.1
0.01
-0.065
-0.195
-0.02
0.115
0.185
0.225
0.065
0.1
0.06
0.105
-0.04
-0.04
0.035
0.105
0.19
0.275
0.29
0.085
-0.02
-0.065
-0.105
-0.035
-0.025
0.02
0.275
0.3
0.14
0.065
-0.005
-0.08
-0.04
-0.06
-0.025
0.06
0.13
0.245
0.205
0.075
0.14
-0.05
-0.06
-0.07
0.08
0.085
0.17
0.15
0.14
0.165
0.075
-0.045
-0.035
-0.01
0.04
0.01
0.255
0.195
0.105
0.075
0.115
-0.045
-0.105
-0.12
0.0
0.01
0.26
0.21
0.195
0.135
0.04
-0.13
-0.18
-0.16
0.045
0.11
0.26
0.245
0.125
0.125
0.115
-0.105
-0.035
0.01
0.11
0.08
0.165
0.155
0.145
0.015
-0.01
-0.14
-0.145
0.01
0.08
0.09
0.21
0.245
0.18
-0.02
-0.015
-0.125
-0.045
0.04
0.08
0.07
0.215
0.15
0.225
0.09
0.11
-0.07
-0.09
0.1
0.1
0.12
0.27
0.32
0.21
0.19
0.12
0.015
0.005
0.105
0.135
0.115
0.24
0.325
0.25
0.16
0.11
0.025
-0.01
0.035
0.02
0.14
0.315
0.26
0.155
0.075
-0.06
-0.14
-0.2
-0.07
0.085
0.135
0.3
0.215
0.115
0.06
-0.15
-0.185
-0.155
-0.055
-0.055
0.065
0.225
0.22
0.15
0.025
-0.145
-0.25
-0.01
0.02
0.02
0.11
0.095
0.055
0.075
-0.15
-0.255
-0.21
-0.17
-0.105
0.005
0.165
0.44
0.515
0.575
0.65
0.705
0.88
1.085
1.41
1.5
1.58
1.565
1.36
1.27
1.095
0.87
0.585
0.36
0.265
0.235
0.325
0.24
0.115
0.015
-0.01
-0.14
-0.075
-0.08
-0.03
-0.03
0.16
0.11
0.175
0.06
-0.015
-0.185
-0.09
-0.05
-0.005
0.025
0.17
0.135
0.065
-0.005
-0.05
-0.155
-0.155
-0.045
0.015
0.075
0.26
0.22
0.035
0.025
-0.06
-0.22
-0.185
-0.16
-0.065
0.11
0.26
0.195
0.065
-0.06
-0.01
-0.13
-0.15
-0.055
0.1
0.08
0.165
0.11
0.03
0.005
0.05
-0.035
-0.11
-0.075
0.035
0.05
0.17
0.145
0.125
0.085
-0.035
-0.095
-0.02
0.025
0.095
0.115
0.18
0.15
0.07
0.07
0.015
-0.07
-0.055
-0.05
0.06
0.14
0.215
0.18
0.165
0.01
-0.075
-0.03
0.02
-0.045
0.065
0.125
0.215
0.295
0.19
0.08
0.13
0.01
-0.015
0.06
0.075
0.2
0.44
0.34
0.18
0.135
0.135
0.045
0.02
0.095
0.205
0.305
0.4
0.375
0.265
0.19
0.04
0.025
0.005
0.165
0.26
0.26
0.32
0.43
0.3
0.15
0.0
0.005
0.11
0.125
0.195
0.33
0.285
0.2
0.145
0.085
-0.065
-0.07
-0.065
0.03
0.135
0.23
0.205
0.2
0.115
-0.06
-0.135
-0.125
-0.085
-0.005
0.0
0.18
0.16
0.085
0.015
0.035
-0.18
-0.135
-0.11
-0.04
0.04
0.18
0.145
0.09
0.125
-0.03
-0.12
-0.095
-0.095
-0.045
0.025
0.185
0.095
0.125
0.085
0.01
-0.135
-0.16
-0.07
0.025
0.035
0.2
0.11
0.055
-0.005
0.02
-0.11
-0.06
-0.07
-0.07
-0.04
0.13
0.2
0.14
0.025
0.005
-0.04
-0.065
-0.115
-0.025
0.075
0.14
0.15
0.105
0.06
-0.08
-0.19
-0.115
-0.085
0.04
0.075
0.14
0.175
0.05
-0.005
-0.1
-0.095
-0.095
-0.005
0.025
0.07
0.135
0.15
0.14
0.045
-0.03
-0.1
-0.12
-0.065
0.05
0.1
0.185
0.205
0.11
0.0
-0.06
-0.145
-0.085
-0.07
0.03
0.1
0.15
0.08
0.02
0.04
0.005
-0.05
-0.08
-0.04
0.02
0.175
0.14
0.165
0.085
-0.03
-0.145
-0.165
-0.18
-0.015
-0.005
0.085
0.185
0.2
0.125
0.0
-0.13
-0.17
-0.08
-0.035
0.015
0.115
0.145
0.115
0.07
-0.015
-0.115
-0.1
-0.125
-0.065
-0.005
0.165
0.165
0.13
0.05
-0.05
-0.1
-0.095
-0.12
-0.045
0.025
0.1
0.13
0.075
-0.035
-0.075
-0.17
-0.04
-0.01
-0.02
0.045
0.205
0.195
0.165
-0.04
-0.075
-0.185
-0.235
-0.155
0.03
0.055
0.145
0.075
0.035
0.065
0.005
-0.105
-0.1
-0.105
0.025
0.055
0.165
0.145
0.09
-0.035
0.005
-0.12
-0.135
-0.1
0.015
0.025
0.1
0.105
0.1
0.02
-0.05
-0.185
-0.065
-0.065
0.005
0.02
0.15
0.085
0.025
0.065
-0.025
-0.11
-0.105
-0.135
-0.01
0.04
0.14
0.16
0.09
-0.015
-0.09
-0.21
-0.16
-0.06
0.025
0.005
0.115
0.15
0.045
-0.025
0.005
-0.155
-0.165
-0.13
-0.065
0.045
0.225
0.15
0.035
0.015
-0.025
-0.12
-0.16
-0.1
0.115
0.11
0.15
0.17
0.06
-0.1
-0.1
-0.19
-0.005
0.04
0.13
0.15
0.195
0.19
0.13
-0.03
-0.015
-0.105
-0.115
-0.03
0.005
0.105
0.185
0.27
0.135
0.065
-0.04
-0.035
-0.07
-0.015
0.035
0.01
0.055
0.015
-0.04
-0.185
-0.16
-0.165
-0.125
-0.055
-0.04
0.09
0.12
0.055
-0.005
-0.125
-0.265
-0.225
-0.23
-0.12
-0.12
0.055
0.09
0.02
-0.085
-0.14
-0.205
-0.185
-0.185
-0.16
-0.07
-0.075
-0.14
-0.095
-0.21
-0.215
-0.275
-0.115
-0.045
0.22
0.34
0.625
0.74
0.97
1.08
1.165
1.115
1.235
1.23
1.24
1.19
1.265
1.14
0.86
0.535
0.235
-0.025
-0.135
-0.13
-0.055
-0.06
0.03
0.06
-0.075
-0.09
-0.09
-0.32
-0.415
-0.11
0.005
0.025
0.05
0.075
-0.055
-0.15
-0.13
-0.225
-0.245
-0.225
-0.15
-0.145
0.015
0.05
-0.03
-0.125
-0.14
-0.24
-0.245
-0.145
-0.085
-0.06
0.08
-0.045
-0.05
-0.1
-0.2
-0.355
-0.235
-0.15
-0.115
-0.055
0.045
-0.045
-0.015
-0.14
-0.205
-0.27
-0.145
-0.09
-0.005
-0.04
0.065
-0.015
-0.065
-0.07
-0.135
-0.225
-0.2
-0.14
-0.05
0.02
0.125
0.105
-0.15
-0.215
-0.205
-0.19
-0.15
-0.095
0.005
0.13
0.09
0.075
-0.065
-0.235
-0.335
-0.145
-0.12
-0.09
0.0
0.06
0.16
0.03
-0.055
0.03
-0.055
-0.14
-0.155
-0.06
-0.03
0.155
0.14
0.065
0.035
0.035
-0.02
-0.065
-0.02
0.09
0.08
0.18
0.26
0.26
0.17
0.15
0.035
0.005
0.17
0.205
0.38
0.55
0.525
0.435
0.365
0.275
0.13
0.115
0.075
0.145
0.18
0.35
0.285
0.325
0.255
0.15
0.03
-0.09
-0.08
0.075
0.085
0.22
0.215
0.17
0.075
0.035
-0.11
-0.18
-0.07
0.0
-0.06
0.065
0.15
0.175
-0.045
-0.055
-0.175
-0.16
-0.105
-0.04
0.025
0.125
0.04
-0.025
-0.055
-0.065
-0.25
-0.245
-0.14
-0.055
0.16
0.11
0.015
0.005
-0.08
-0.105
-0.185
-0.17
-0.095
-0.105
-0.085
0.085
0.05
-0.015
-0.035
-0.1
-0.25
-0.11
-0.145
-0.115
-0.02
0.06
0.09
-0.045
-0.075
-0.07
-0.21
-0.235
-0.1
-0.05
-0.01
0.02
0.025
-0.085
-0.09
-0.09
-0.13
-0.11
-0.11
-0.06
0.005
0.055
0.06
-0.045
-0.105
-0.2
-0.24
-0.225
-0.085
0.0
-0.025
0.04
0.03
-0.005
-0.08
-0.175
-0.28
-0.205
-0.01
-0.02
0.07
0.065
0.03
0.015
-0.025
-0.195
-0.185
-0.13
-0.1
-0.09
0.03
0.13
0.05
-0.065
-0.11
-0.25
-0.085
-0.145
-0.11
-0.05
0.025
0.115
0.055
-0.065
-0.025
-0.185
-0.14
-0.115
-0.09
-0.105
0.02
-0.015
0.07
0.02
-0.01
-0.165
-0.19
-0.18
-0.15
-0.065
0.01
0.065
0.105
-0.015
-0.075
-0.225
-0.19
-0.135
-0.09
0.01
0.065
0.12
0.05
-0.095
-0.07
-0.19
-0.15
-0.185
-0.135
-0.06
0.04
0.015
-0.045
0.035
-0.08
-0.13
-0.24
-0.17
-0.105
-0.165
0.015
0.025
0.095
0.07
-0.12
-0.285
-0.295
-0.28
-0.09
-0.065
0.045
0.06
-0.01
0.015
-0.005
-0.15
-0.25
-0.15
-0.055
-0.055
0.08
0.065
0.075
-0.085
-0.115
-0.28
-0.22
-0.145
-0.02
-0.025
0.085
0.02
-0.065
-0.07
-0.065
-0.235
-0.25
-0.175
-0.03
-0.035
0.015
-0.035
-0.125
-0.065
-0.195
-0.235
-0.135
-0.095
-0.1
0.07
0.145
0.065
-0.02
-0.045
-0.095
-0.225
-0.195
-0.11
-0.105
-0.01
0.02
0.04
-0.035
-0.02
-0.12
-0.275
-0.195
-0.165
-0.095
0.035
0.07
0.07
-0.01
-0.07
-0.18
-0.2
-0.115
-0.175
-0.19
-0.1
0.215
0.145
0.0
-0.055
-0.13
-0.225
-0.215
-0.08
0.0
0.05
0.12
0.115
-0.005
-0.115
-0.185
-0.195
-0.17
-0.025
-0.045
0.11
0.23
0.18
0.12
0.03
-0.1
-0.145
-0.115
-0.05
-0.005
0.145
0.195
0.145
0.065
-0.03
-0.245
-0.285
-0.185
0.11
0.07
0.145
0.125
0.105
0.01
-0.145
-0.24
-0.19
-0.26
-0.14
-0.09
0.095
0.03
-0.03
-0.025
-0.14
-0.32
-0.315
-0.24
-0.12
-0.07
0.06
0.06
0.03
0.01
-0.13
-0.255
-0.32
-0.33
-0.205
-0.11
0.03
-0.025
-0.11
-0.14
-0.23
-0.28
-0.205
-0.15
-0.09
0.195
0.395
0.545
0.7
0.76
0.87
1.045
1.24
1.295
1.315
1.25
1.265
1.2
1.11
0.82
0.435
0.095
-0.14
-0.1
-0.13
-0.09
0.085
0.09
-0.075
-0.25
-0.235
-0.36
-0.265
-0.25
-0.13
-0.005
0.07
0.105
0.075
-0.075
-0.185
-0.265
-0.24
-0.14
-0.09
-0.11
-0.01
-0.015
-0.155
-0.15
-0.24
-0.325
-0.15
-0.16
-0.135
0.02
0.035
-0.005
-0.05
-0.155
-0.195
-0.2
-0.21
-0.19
-0.085
-0.075
0.0
0.095
-0.025
-0.125
-0.21
-0.315
-0.265
-0.195
-0.055
0.035
0.135
0.015
-0.03
-0.1
-0.195
-0.205
-0.185
-0.165
-0.095
0.03
0.065
0.075
-0.01
-0.05
-0.185
-0.195
-0.215
-0.175
-0.115
0.12
0.075
0.09
-0.02
0.015
-0.215
-0.285
-0.235
-0.08
0.09
0.13
0.07
0.065
-0.02
-0.14
-0.205
-0.055
-0.055
-0.02
0.035
0.185
0.175
0.125
0.015
0.07
-0.135
-0.02
-0.045
-0.02
0.025
0.21
0.2
0.13
0.185
0.125
-0.095
0.015
0.01
0.11
0.14
0.305
0.265
0.225
0.12
0.075
-0.045
-0.02
-0.03
0.015
0.15
0.375
0.37
0.18
0.145
0.135
0.01
-0.005
-0.03
0.11
0.08
0.145
0.165
0.06
-0.03
-0.09
-0.205
-0.2
0.0
0.015
0.015
0.1
0.125
0.03
-0.04
-0.135
-0.15
-0.21
-0.265
-0.095
0.025
0.055
-0.005
-0.005
-0.025
-0.205
-0.27
-0.285
-0.225
-0.055
0.05
0.115
0.1
0.065
-0.085
-0.175
-0.255
-0.225
-0.155
-0.05
-0.02
-0.035
-0.06
0.01
-0.065
-0.19
-0.235
-0.23
-0.19
-0.015
0.07
0.01
0.015
-0.04
-0.09
-0.135
-0.235
-0.2
-0.155
-0.16
-0.08
-0.065
0.05
-0.05
-0.065
-0.105
-0.24
-0.195
-0.115
-0.06
0.055
0.075
-0.065
-0.185
0.0
-0.19
-0.19
-0.2
-0.095
-0.075
0.005
0.04
0.08
-0.09
-0.095
-0.205
-0.225
-0.155
-0.085
-0.04
0.01
0.045
-0.055
-0.065
-0.095
-0.25
-0.175
-0.125
-0.1
-0.055
0.035
0.025
0.1
-0.02
-0.095
-0.3
-0.29
-0.115
0.005
-0.065
0.045
0.07
-0.02
-0.06
-0.025
-0.26
-0.24
-0.2
-0.135
-0.025
0.055
0.02
-0.025
-0.09
-0.07
-0.285
-0.3
-0.19
-0.05
-0.005
-0.01
-0.005
0.01
-0.06
-0.195
-0.315
-0.34
-0.195
-0.005
-0.055
0.07
0.025
0.035
-0.025
-0.105
-0.205
-0.245
-0.275
-0.09
-0.05
0.08
0.075
-0.06
-0.19
-0.175
-0.19
-0.27
-0.21
-0.13
-0.135
0.015
0.055
0.015
-0.04
-0.12
-0.205
-0.26
-0.255
-0.175
-0.155
0.075
0.08
0.085
-0.165
-0.2
-0.21
-0.215
-0.25
-0.21
-0.105
0.105
0.115
-0.015
-0.12
-0.19
-0.225
-0.165
-0.14
-0.14
-0.08
0.055
0.005
-0.03
-0.045
-0.19
-0.26
-0.175
-0.05
-0.025
0.1
0.07
0.01
-0.015
-0.075
-0.235
-0.32
-0.225
0.0
0.01
0.1
0.155
0.115
0.03
-0.01
-0.125
-0.17
-0.19
-0.165
0.045
0.14
0.135
0.055
0.01
-0.03
-0.165
-0.2
-0.165
-0.15
-0.145
-0.035
0.04
-0.01
-0.065
-0.1
-0.27
-0.235
-0.26
-0.13
-0.11
0.02
-0.02
-0.135
-0.295
-0.34
-0.25
-0.28
-0.215
-0.045
-0.09
0.02
0.02
0.015
-0.075
-0.215
-0.35
-0.4
-0.215
-0.215
-0.21
-0.05
-0.085
-0.14
-0.175
-0.28
-0.22
-0.035
0.155
0.415
0.64
0.955
1.095
1.155
1.235
1.135
0.885
0.82
0.82
0.91
0.9
0.77
0.45
0.17
-0.07
-0.23
-0.31
-0.315
-0.345
-0.235
-0.21
-0.11
-0.055
-0.14
-0.2
-0.22
-0.345
-0.215
-0.17
-0.15
-0.14
-0.095
-0.05
-0.035
-0.065
-0.12
-0.295
-0.215
-0.225
-0.2
-0.105
-0.025
-0.055
-0.095
-0.235
-0.17
-0.25
-0.305
-0.135
-0.1
-0.115
-0.125
-0.09
-0.03
-0.05
-0.21
-0.255
-0.185
-0.175
-0.12
-0.02
0.0
-0.035
-0.135
-0.155
-0.21
-0.295
-0.21
-0.165
-0.12
-0.14
-0.09
-0.065
-0.105
-0.205
-0.155
-0.185
-0.195
-0.17
-0.015
0.01
0.065
0.015
-0.085
-0.14
-0.25
-0.315
-0.295
-0.27
-0.28
0.05
0.24
0.13
-0.045
-0.095
-0.165
-0.115
-0.13
-0.125
-0.055
0.1
0.06
0.035
-0.055
-0.11
-0.15
-0.15
-0.11
-0.025
-0.055
0.135
0.135
0.08
0.06
0.01
-0.04
-0.075
-0.06
0.01
0.025
0.165
0.23
0.17
0.125
0.05
0.0
-0.07
-0.02
0.08
0.11
0.26
0.28
0.19
0.125
0.055
-0.04
0.01
0.05
0.01
0.075
0.22
0.225
0.15
0.08
0.045
-0.12
-0.21
-0.15
-0.005
-0.015
0.13
0.115
0.07
-0.045
-0.155
-0.245
-0.275
-0.275
-0.16
-0.075
0.025
0.03
0.04
-0.035
-0.165
-0.285
-0.215
-0.225
-0.18
-0.13
0.0
0.195
0.06
-0.09
-0.19
-0.26
-0.27
-0.225
-0.17
-0.03
0.015
0.05
-0.035
-0.135
-0.2
-0.315
-0.26
-0.16
-0.085
-0.07
0.045
0.08
-0.055
-0.15
-0.21
-0.27
-0.355
-0.23
-0.14
-0.02
-0.05
-0.075
-0.075
-0.125
-0.275
-0.295
-0.235
-0.165
-0.065
-0.035
0.04
0.065
0.01
-0.135
-0.14
-0.245
-0.255
-0.16
-0.1
-0.05
0.0
-0.045
-0.115
-0.17
-0.25
-0.345
-0.205
-0.195
-0.105
0.095
0.075
0.005
-0.04
-0.075
-0.23
-0.28
-0.295
-0.275
-0.16
0.0
0.025
0.045
-0.025
-0.145
-0.205
-0.235
-0.18
-0.085
-0.05
-0.055
0.065
-0.02
-0.045
-0.095
-0.245
-0.26
-0.26
-0.16
-0.055
0.015
0.035
-0.025
-0.09
-0.17
-0.18
-0.175
-0.23
-0.155
-0.075
0.08
0.03
0.015
-0.03
-0.135
-0.24
-0.145
-0.15
-0.12
-0.125
-0.09
0.035
0.005
0.135
-0.015
-0.135
-0.125
-0.13
-0.055
0.02
0.2
0.13
0.17
0.09
-0.02
-0.095
-0.1
-0.11
-0.045
-0.11
0.105
0.12
0.09
0.035
0.0
-0.1
-0.13
-0.085
0.03
0.065
0.205
0.16
0.05
0.005
-0.075
-0.245
-0.28
-0.14
0.025
0.04
0.2
0.235
0.1
0.045
-0.015
-0.21
-0.19
-0.09
0.015
0.04
0.185
0.19
0.055
-0.005
-0.135
-0.17
-0.1
-0.115
-0.13
-0.01
0.145
0.175
0.095
0.0
-0.09
-0.21
-0.235
-0.135
-0.03
0.09
0.155
0.065
-0.115
-0.225
-0.155
-0.07
-0.095
-0.035
-0.05
0.0
0.14
0.11
-0.005
-0.05
-0.175
-0.24
-0.15
-0.12
-0.065
0.005
0.125
0.16
0.055
-0.05
0.01
-0.05
-0.09
0.03
0.0
0.09
0.125
0.145
0.055
-0.03
-0.075
-0.135
-0.085
-0.08
-0.03
0.02
0.025
-0.08
0.04
-0.04
-0.155
-0.175
-0.22
-0.2
-0.04
0.035
0.04
0.005
-0.04
-0.09
-0.235
-0.22
-0.185
-0.12
-0.16
0.025
-0.025
-0.1
-0.175
-0.19
-0.235
-0.205
-0.19
-0.15
-0.055
0.055
-0.045
-0.095
-0.21
-0.27
-0.38
-0.345
-0.295
-0.245
-0.115
0.095
0.2
0.28
0.225
0.33
0.515
0.58
0.85
1.05
1.28
1.465
1.45
1.25
1.065
0.875
0.865
0.64
0.475
0.395
0.23
0.24
0.2
0.025
-0.115
-0.155
-0.27
-0.295
-0.27
-0.1
-0.12
-0.03
-0.02
-0.07
-0.08
-0.085
-0.21
-0.245
-0.27
-0.125
0.02
0.02
-0.065
-0.105
-0.23
-0.11
-0.29
-0.25
-0.13
-0.105
-0.1
0.025
-0.01
-0.095
-0.195
-0.22
-0.335
-0.32
-0.19
-0.22
0.01
0.075
0.005
-0.105
-0.155
-0.205
-0.205
-0.23
-0.225
-0.055
-0.015
0.105
0.1
0.035
-0.15
-0.265
-0.28
-0.31
-0.275
-0.115
0.005
0.075
-0.015
0.005
-0.125
-0.245
-0.21
-0.18
-0.15
-0.05
0.015
0.02
0.04
-0.025
-0.105
-0.215
-0.285
-0.275
-0.185
-0.09
0.075
0.075
0.06
-0.055
-0.1
-0.195
-0.155
-0.145
-0.025
0.02
0.14
0.135
0.09
-0.065
-0.14
-0.285
-0.265
-0.035
0.065
0.045
0.13
0.17
0.08
0.065
0.0
-0.06
-0.115
-0.04
0.045
0.085
0.21
0.225
0.165
0.125
-0.045
-0.085
-0.045
-0.015
0.08
0.11
0.25
0.195
0.2
0.08
0.035
-0.21
-0.245
0.055
-0.025
0.07
0.24
0.22
0.135
0.035
-0.05
-0.205
-0.22
-0.16
-0.155
-0.17
0.195
0.125
0.025
-0.005
-0.13
-0.205
-0.185
-0.195
-0.115
0.0
0.075
0.075
0.035
-0.145
-0.175
-0.33
-0.35
-0.22
-0.105
0.015
0.085
0.055
-0.04
-0.095
-0.2
-0.235
-0.27
-0.265
-0.255
-0.39
-0.105
0.215
0.09
-0.04
-0.115
-0.275
-0.225
-0.185
-0.125
-0.045
0.07
0.055
-0.04
-0.125
-0.26
-0.33
-0.25
-0.18
-0.16
-0.085
-0.125
0.005
-0.04
-0.065
-0.21
-0.24
-0.265
-0.195
-0.14
-0.005
0.07
0.03
-0.065
-0.16
-0.29
-0.35
-0.23
-0.21
-0.075
-0.035
0.015
-0.01
-0.085
-0.13
-0.27
-0.265
-0.215
-0.12
-0.18
-0.005
0.07
-0.07
-0.11
-0.1
-0.23
-0.29
-0.3
-0.25
-0.165
0.01
0.055
-0.045
-0.045
-0.14
-0.25
-0.18
-0.175
-0.265
-0.195
-0.01
0.08
-0.025
-0.07
-0.1
-0.285
-0.275
-0.245
-0.2
-0.13
0.065
0.08
0.015
-0.11
-0.28
-0.245
-0.22
-0.25
-0.235
-0.16
0.09
0.025
0.0
-0.105
-0.16
-0.26
-0.25
-0.225
-0.175
-0.15
-0.035
-0.005
-0.025
-0.095
-0.195
-0.34
-0.355
-0.215
-0.14
-0.07
0.035
0.04
0.0
-0.095
-0.215
-0.425
-0.29
-0.19
-0.16
-0.12
-0.06
-0.025
-0.07
-0.09
-0.19
-0.27
-0.35
-0.23
-0.155
-0.13
-0.035
0.015
0.015
-0.06
-0.19
-0.31
-0.31
-0.24
-0.135
-0.14
-0.025
-0.015
-0.04
-0.215
-0.25
-0.29
-0.325
-0.185
-0.09
-0.125
-0.005
-0.07
-0.085
-0.11
-0.23
-0.32
-0.28
-0.21
-0.08
-0.06
-0.045
-0.045
-0.1
-0.15
-0.265
-0.34
-0.335
-0.19
-0.195
-0.045
-0.01
0.055
0.005
-0.11
-0.19
-0.35
-0.34
-0.24
-0.12
-0.05
-0.1
-0.08
-0.135
-0.21
-0.165
-0.235
-0.2
-0.155
-0.125
-0.025
0.0
-0.015
-0.09
-0.19
-0.28
-0.32
-0.32
-0.24
-0.095
-0.005
0.065
-0.035
-0.07
-0.125
-0.2
-0.205
-0.225
-0.15
-0.11
0.045
-0.005
-0.08
-0.09
-0.12
-0.16
-0.09
-0.11
-0.015
0.055
0.14
0.135
0.07
-0.01
-0.065
-0.235
-0.16
-0.175
-0.09
-0.045
0.015
0.115
0.09
0.0
-0.105
-0.23
-0.235
-0.24
-0.22
-0.185
-0.02
0.025
-0.035
-0.08
-0.01
-0.245
-0.34
-0.3
-0.275
-0.19
-0.13
0.01
-0.03
-0.045
-0.095
-0.28
-0.385
-0.36
-0.15
0.0
0.06
0.07
-0.04
-0.115
-0.245
-0.395
-0.455
-0.375
-0.29
-0.12
-0.065
0.015
0.045
0.055
0.15
0.135
0.415
0.525
0.685
1.045
1.275
1.24
1.52
1.405
1.225
1.015
0.93
0.905
0.715
0.485
0.37
0.24
0.11
-0.075
-0.22
-0.36
-0.325
-0.165
-0.05
-0.125
-0.005
0.065
-0.005
-0.1
-0.185
-0.235
-0.27
-0.13
-0.125
-0.05
-0.05
0.025
-0.08
-0.13
-0.25
-0.25
-0.21
-0.2
-0.08
-0.035
0.055
0.04
-0.055
-0.15
-0.245
-0.325
-0.15
-0.12
-0.06
0.075
0.06
-0.015
-0.065
-0.105
-0.235
-0.27
-0.275
-0.145
-0.07
-0.02
0.025
0.015
-0.01
-0.05
-0.1
-0.135
-0.165
-0.065
-0.065
0.0
0.09
0.08
-0.015
-0.21
-0.36
-0.175
-0.075
-0.07
-0.015
0.125
0.15
0.11
-0.02
-0.05
-0.13
-0.165
-0.105
-0.065
-0.055
0.105
0.095
0.08
0.03
-0.02
-0.1
-0.105
-0.07
-0.005
0.09
0.18
0.19
0.17
0.055
0.025
-0.035
-0.01
-0.055
-0.05
0.085
0.245
0.21
0.165
0.125
0.1
-0.075
0.02
0.05
0.15
0.12
0.335
0.38
0.28
0.25
0.075
-0.025
0.005
0.1
0.13
0.165
0.38
0.425
0.335
0.23
0.11
0.02
0.03
0.11
0.15
0.235
0.29
0.4
0.22
0.025
0.115
0.0
-0.105
-0.06
0.07
0.145
0.225
0.23
0.175
0.095
0.005
-0.12
-0.135
-0.09
0.055
0.145
0.125
0.21
0.11
-0.02
-0.145
-0.205
-0.045
-0.045
-0.03
0.1
0.245
0.17
0.12
0.06
0.035
-0.11
-0.125
-0.09
0.0
0.085
0.125
0.19
0.15
0.02
-0.01
-0.105
-0.095
-0.025
0.03
0.14
0.12
0.165
0.16
0.075
-0.025
-0.07
-0.095
-0.085
-0.015
0.07
0.19
0.18
0.14
0.1
-0.055
-0.15
-0.095
0.05
-0.005
0.12
0.165
0.275
0.09
0.015
-0.065
-0.085
-0.01
0.015
0.09
0.12
0.165
0.18
0.2
0.03
-0.08
-0.11
-0.025
0.075
0.05
0.205
0.22
0.19
0.075
0.04
-0.14
-0.06
0.015
0.05
0.085
0.23
0.26
0.325
0.195
0.04
-0.05
-0.15
-0.07
0.04
0.09
0.265
0.255
0.145
0.065
0.09
-0.01
0.0
0.025
0.09
0.095
0.235
0.29
0.225
0.075
0.03
-0.05
0.05
0.03
0.04
0.12
0.23
0.225
0.22
0.12
0.035
-0.105
0.005
-0.02
0.06
0.105
0.31
0.325
0.255
0.13
0.135
0.045
-0.025
0.055
0.13
0.175
0.215
0.165
0.06
0.07
0.07
-0.005
0.045
0.045
0.14
0.15
0.3
0.23
0.135
0.17
0.015
-0.07
-0.04
0.0
0.155
0.23
0.27
0.265
0.2
0.125
0.07
0.03
0.045
0.075
0.135
0.25
0.265
0.305
0.19
0.035
-0.005
-0.1
0.06
0.03
0.2
0.175
0.26
0.225
0.235
0.235
0.065
-0.015
-0.015
0.1
0.145
0.145
0.25
0.29
0.29
0.115
0.025
0.035
0.11
0.135
0.195
0.23
0.335
0.35
0.275
0.185
0.125
0.135
0.235
0.095
0.055
0.255
0.46
0.465
0.265
0.225
0.155
0.12
0.145
0.205
0.29
0.365
0.415
0.37
0.31
0.22
0.16
0.045
0.07
0.175
0.235
0.335
0.32
0.325
0.18
0.11
-0.05
-0.035
0.05
0.085
0.18
0.355
0.3
0.295
0.255
0.12
-0.065
0.02
0.05
0.13
0.22
0.32
0.235
0.265
0.15
0.115
-0.005
0.05
0.075
0.135
0.17
0.255
0.265
0.07
0.04
0.02
-0.15
0.01
0.14
0.285
0.47
0.755
0.87
1.01
1.105
1.215
1.275
1.365
1.48
1.455
1.485
1.61
1.45
1.28
0.915
0.59
0.24
0.11
0.155
0.17
0.145
0.22
0.275
0.25
0.175
0.115
0.055
0.035
0.105
0.155
0.185
0.285
0.34
0.215
0.125
0.065
0.075
0.11
0.075
0.15
0.205
0.3
0.325
0.26
0.135
0.135
0.055
0.085
0.14
0.25
0.2
0.24
0.29
0.31
0.14
0.105
0.12
0.07
0.15
0.28
0.3
0.335
0.27
0.265
0.26
0.15
0.025
0.145
0.195
0.22
0.33
0.35
0.315
0.265
0.23
0.14
0.075
0.105
0.255
0.23
0.285
0.39
0.485
0.395
0.17
0.105
0.155
0.13
0.135
0.255
0.405
0.405
0.35
0.41
0.235
0.12
0.165
0.185
0.27
0.27
0.44
0.45
0.48
0.36
0.29
0.205
0.22
0.235
0.27
0.305
0.505
0.585
0.54
0.42
0.32
0.16
0.27
0.295
0.33
0.485
0.54
0.61
0.525
0.405
0.45
0.335
0.335
0.4
0.425
0.52
0.665
0.555
0.43
0.395
0.435
0.44
0.37
0.39
0.495
0.525
0.63
0.63
0.525
0.495
0.4
0.27
0.22
0.315
0.35
0.445
0.6
0.58
0.495
0.325
0.35
0.2
0.17
0.32
0.29
0.32
0.405
0.47
0.425
0.28
0.21
0.165
0.225
0.225
0.3
0.34
0.425
0.405
0.395
0.275
0.245
0.15
0.155
0.235
0.255
0.29
0.43
0.445
0.37
0.295
0.23
0.11
0.185
0.24
0.285
0.375
0.455
0.445
0.355
0.27
0.215
0.23
0.175
0.19
0.27
0.34
0.365
0.33
0.27
0.35
0.28
0.19
0.21
0.285
0.315
0.385
0.44
0.395
0.25
0.25
0.225
0.125
0.175
0.21
0.29
0.43
0.46
0.49
0.355
0.285
0.19
0.205
0.15
0.185
0.275
0.42
0.375
0.42
0.345
0.295
0.205
0.195
0.215
0.26
0.35
0.395
0.505
0.45
0.39
0.31
0.185
0.185
0.23
0.295
0.335
0.425
0.405
0.4
0.315
0.195
0.19
0.21
0.15
0.295
0.4
0.52
0.495
0.395
0.4
0.365
0.22
0.195
0.17
0.27
0.375
0.495
0.445
0.445
0.325
0.25
0.15
0.185
0.16
0.3
0.4
0.4
0.325
0.385
0.34
0.225
0.205
0.15
0.22
0.31
0.42
0.455
0.495
0.435
0.335
0.26
0.13
0.15
0.215
0.275
0.295
0.46
0.49
0.345
0.32
0.33
0.195
0.14
0.24
0.335
0.365
0.45
0.425
0.375
0.265
0.265
0.135
0.13
0.25
0.395
0.315
0.43
0.46
0.295
0.195
0.325
0.22
0.28
0.29
0.305
0.27
0.475
0.395
0.34
0.325
0.29
0.255
0.24
0.215
0.36
0.305
0.405
0.425
0.365
0.29
0.28
0.195
0.175
0.29
0.29
0.37
0.44
0.425
0.36
0.25
0.125
0.185
0.235
0.295
0.355
0.34
0.395
0.505
0.45
0.32
0.22
0.21
0.19
0.21
0.33
0.415
0.44
0.445
0.345
0.22
0.165
0.205
0.255
0.275
0.295
0.39
0.505
0.47
0.375
0.38
0.19
0.265
0.26
0.31
0.355
0.48
0.565
0.46
0.37
0.305
0.24
0.23
0.26
0.37
0.435
0.515
0.525
0.51
0.385
0.49
0.335
0.23
0.305
0.4
0.45
0.555
0.56
0.515
0.38
0.35
0.22
0.255
0.27
0.345
0.3
0.365
0.39
0.42
0.345
0.31
0.195
0.14
0.25
0.31
0.325
0.45
0.47
0.415
0.39
0.315
0.105
0.14
0.205
0.295
0.305
0.43
0.415
0.345
0.25
0.43
0.21
0.175
0.11
0.19
0.125
0.275
0.385
0.35
0.3
0.31
0.35
0.545
0.68
0.88
1.155
1.515
1.695
1.765
1.765
1.71
1.535
1.415
1.33
1.515
1.465
1.27
0.975
0.69
0.51
0.365
0.2
0.195
0.205
0.36
0.38
0.43
0.395
0.395
0.285
0.235
0.15
0.165
0.17
0.23
0.495
0.495
0.46
0.41
0.325
0.235
0.165
0.18
0.24
0.3
0.35
0.445
0.415
0.41
0.255
0.22
0.16
0.135
0.22
0.335
0.35
0.465
0.54
0.47
0.29
0.2
0.19
0.225
0.265
0.385
0.42
0.425
0.39
0.345
0.29
0.275
0.22
0.23
0.31
0.33
0.44
0.535
0.48
0.375
0.22
0.105
0.21
0.31
0.325
0.415
0.43
0.49
0.51
0.375
0.38
0.25
0.255
0.255
0.345
0.41
0.43
0.445
0.37
0.41
0.35
0.255
0.3
0.395
0.44
0.465
0.53
0.41
0.5
0.495
0.345
0.26
0.295
0.3
0.34
0.455
0.565
0.62
0.52
0.465
0.445
0.36
0.31
0.325
0.425
0.615
0.725
0.69
0.565
0.515
0.51
0.37
0.35
0.415
0.535
0.6
0.67
0.595
0.6
0.65
0.475
0.37
0.335
0.465
0.49
0.5
0.655
0.635
0.62
0.525
0.46
0.4
0.315
0.38
0.375
0.335
0.46
0.585
0.465
0.34
0.375
0.25
0.27
0.365
0.385
0.42
0.505
0.5
0.415
0.29
0.265
0.225
0.24
0.33
0.385
0.32
0.475
0.405
0.395
0.335
0.33
0.15
0.15
0.275
0.37
0.435
0.505
0.5
0.425
0.29
0.26
0.195
0.105
0.215
0.385
0.39
0.465
0.465
0.39
0.37
0.275
0.17
0.195
0.31
0.285
0.405
0.475
0.395
0.35
0.33
0.25
0.215
0.23
0.33
0.325
0.42
0.435
0.395
0.32
0.355
0.21
0.215
0.255
0.28
0.24
0.345
0.465
0.51
0.37
0.3
0.17
0.13
0.18
0.33
0.34
0.43
0.5
0.385
0.365
0.28
0.195
0.3
0.27
0.3
0.31
0.455
0.52
0.475
0.365
0.32
0.105
0.17
0.21
0.305
0.335
0.43
0.465
0.44
0.4
0.31
0.13
0.18
0.24
0.22
0.25
0.465
0.515
0.4
0.375
0.305
0.205
0.115
0.21
0.37
0.38
0.43
0.455
0.42
0.31
0.31
0.145
0.115
0.135
0.24
0.335
0.475
0.485
0.395
0.335
0.255
0.11
0.14
0.155
0.39
0.35
0.44
0.54
0.37
0.23
0.21
0.095
0.14
0.155
0.305
0.29
0.395
0.415
0.435
0.345
0.24
0.12
0.055
0.245
0.31
0.36
0.485
0.435
0.415
0.27
0.17
0.095
-0.01
0.135
0.29
0.385
0.555
0.455
0.315
0.295
0.23
0.105
0.105
0.14
0.205
0.305
0.415
0.49
0.33
0.255
0.165
0.195
0.15
0.22
0.31
0.37
0.395
0.4
0.32
0.235
0.14
0.1
0.085
0.285
0.35
0.43
0.42
0.415
0.4
0.33
0.265
0.235
0.235
0.28
0.37
0.425
0.42
0.4
0.36
0.215
0.29
0.225
0.235
0.22
0.34
0.38
0.38
0.43
0.39
0.3
0.13
0.11
0.135
0.14
0.235
0.29
0.29
0.29
0.345
0.21
0.05
0.095
0.14
0.15
0.19
0.36
0.385
0.325
0.245
0.11
0.035
0.01
0.105
0.215
0.24
0.36
0.35
0.29
0.155
0.045
-0.18
-0.12
-0.075
0.05
0.14
0.375
0.43
0.45
0.505
0.54
0.655
0.77
1.07
1.325
1.51
1.76
1.72
1.525
1.33
1.34
1.13
0.99
0.785
0.54
0.42
0.435
0.33
0.26
0.105
0.06
-0.035
-0.035
0.01
0.175
0.16
0.295
0.32
0.29
0.225
0.2
0.025
0.07
0.145
0.13
0.135
0.315
0.255
0.24
0.16
0.055
-0.075
-0.005
0.005
0.245
0.305
0.36
0.345
0.23
0.175
0.12
0.015
-0.005
-0.02
0.115
0.265
0.29
0.33
0.27
0.145
0.075
0.035
0.03
0.16
0.24
0.22
0.34
0.265
0.175
0.16
0.06
0.045
0.07
0.115
0.19
0.29
0.38
0.265
0.09
0.09
0.145
0.115
0.105
0.165
0.2
0.24
0.405
0.37
0.25
0.075
0.03
0.115
0.09
0.175
0.25
0.335
0.41
0.415
0.23
0.18
0.07
0.01
0.105
0.19
0.245
0.39
0.445
0.425
0.305
0.25
0.07
0.09
0.035
0.225
0.42
0.45
0.405
0.315
0.345
0.26
0.205
0.215
0.25
0.355
0.405
0.49
0.51
0.335
0.305
0.29
0.275
0.275
0.315
0.345
0.4
0.47
0.515
0.485
0.36
0.235
0.245
0.27
0.185
0.27
0.295
0.39
0.455
0.27
0.27
0.31
0.135
0.17
0.16
0.19
0.23
0.34
0.31
0.275
0.195
0.065
0.005
0.105
0.1
0.115
0.18
0.24
0.315
0.295
0.175
0.12
0.025
0.045
0.045
0.12
0.175
0.32
0.335
0.2
0.11
0.06
-0.04
-0.045
-0.02
0.08
0.22
0.27
0.34
0.26
0.105
0.085
0.055
-0.075
0.015
0.18
0.245
0.255
0.35
0.25
0.175
0.01
-0.12
0.015
0.055
0.115
0.165
0.14
0.355
0.245
0.085
0.0
0.035
-0.01
0.085
0.145
0.215
0.145
0.175
0.235
0.12
0.085
0.105
-0.015
0.03
0.155
0.165
0.21
0.155
0.315
0.18
0.035
-0.015
0.02
0.065
0.155
0.125
0.265
0.35
0.26
0.19
0.075
0.015
0.065
0.025
0.09
0.28
0.35
0.265
0.16
0.12
-0.005
0.015
0.035
0.1
0.165
0.345
0.345
0.25
0.205
0.195
0.04
-0.04
0.125
0.11
0.05
0.175
0.335
0.255
0.19
0.17
-0.035
0.015
0.06
0.12
0.15
0.285
0.305
0.225
0.165
0.085
0.01
0.02
0.025
0.1
0.125
0.205
0.3
0.16
0.145
0.095
0.12
0.095
0.11
0.02
0.15
0.295
0.3
0.19
0.105
0.07
-0.1
0.005
0.13
0.1
0.16
0.285
0.255
0.23
0.155
0.11
0.025
0.025
0.045
0.115
0.07
0.155
0.195
0.24
0.195
0.065
0.045
0.03
0.06
0.09
0.19
0.27
0.345
0.215
0.075
0.005
-0.11
-0.03
0.15
0.09
0.125
0.32
0.245
0.245
0.125
0.115
0.02
0.005
0.045
0.12
0.185
0.3
0.27
0.255
0.105
0.025
0.06
0.06
0.12
0.15
0.22
0.21
0.195
0.13
0.18
0.11
-0.025
0.04
0.19
0.155
0.27
0.32
0.245
0.21
0.12
0.07
0.07
-0.025
0.09
0.105
0.235
0.345
0.3
0.31
0.265
0.145
0.145
0.13
0.225
0.33
0.39
0.425
0.315
0.25
0.17
0.125
0.1
0.135
0.18
0.21
0.26
0.32
0.22
0.235
0.16
0.095
0.09
0.075
0.145
0.175
0.3
0.265
0.23
0.12
0.09
-0.005
-0.01
-0.035
0.08
0.2
0.235
0.245
0.265
0.23
0.16
0.05
0.05
0.14
0.06
0.12
0.295
0.195
0.205
0.075
-0.015
-0.135
-0.065
-0.01
0.04
0.095
0.26
0.395
0.53
0.63
0.84
0.875
0.925
1.11
1.325
1.51
1.63
1.625
1.485
1.27
1.19
1.03
0.83
0.59
0.465
0.355
0.4
0.31
0.17
0.15
0.14
0.015
0.06
0.02
0.14
0.235
0.23
0.32
0.23
0.19
0.1
-0.005
0.025
0.14
0.105
0.14
0.345
0.28
0.21
0.165
0.175
0.06
0.03
0.115
0.175
0.155
0.25
0.28
0.25
0.17
0.095
0.01
-0.115
0.05
0.265
0.375
0.35
0.38
0.315
0.105
0.11
0.015
-0.005
0.005
0.27
0.35
0.405
0.365
0.285
0.2
0.175
0.12
0.11
0.195
0.225
0.355
0.355
0.22
0.14
0.28
0.215
0.08
0.12
0.23
0.255
0.305
0.28
0.31
0.255
0.245
0.16
0.185
0.23
0.285
0.335
0.42
0.425
0.415
0.39
0.285
0.24
0.185
0.195
0.305
0.415
0.445
0.43
0.495
0.43
0.365
0.26
0.29
0.33
0.395
0.43
0.51
0.525
0.485
0.42
0.48
0.275
0.315
0.335
0.35
0.44
0.655
0.755
0.745
0.58
0.46
0.38
0.375
0.405
0.43
0.48
0.58
0.54
0.585
0.58
0.515
0.4
0.35
0.45
0.505
0.46
0.53
0.53
0.595
0.395
0.39
0.255
0.21
0.195
0.45
0.53
0.565
0.565
0.47
0.325
0.365
0.17
0.235
0.285
0.365
0.41
0.465
0.545
0.465
0.395
0.335
0.2
0.215
0.24
0.28
0.42
0.515
0.5
0.395
0.39
0.36
0.215
0.235
0.27
0.34
0.4
0.6
0.56
0.45
0.38
0.355
0.225
0.255
0.29
0.395
0.45
0.505
0.53
0.455
0.43
0.365
0.26
0.255
0.26
0.33
0.485
0.545
0.585
0.55
0.46
0.33
0.285
0.285
0.41
0.415
0.49
0.565
0.565
0.51
0.49
0.375
0.27
0.345
0.33
0.47
0.57
0.595
0.56
0.425
0.455
0.44
0.305
0.35
0.435
0.465
0.5
0.625
0.665
0.53
0.465
0.335
0.355
0.465
0.39
0.495
0.68
0.7
0.63
0.575
0.485
0.345
0.365
0.395
0.46
0.535
0.635
0.65
0.665
0.58
0.545
0.47
0.355
0.385
0.485
0.56
0.66
0.715
0.675
0.615
0.55
0.38
0.395
0.36
0.445
0.54
0.67
0.725
0.705
0.62
0.505
0.395
0.46
0.465
0.47
0.565
0.675
0.635
0.655
0.62
0.675
0.445
0.425
0.505
0.54
0.545
0.635
0.73
0.715
0.605
0.63
0.47
0.43
0.5
0.51
0.61
0.78
0.72
0.705
0.6
0.56
0.465
0.435
0.51
0.5
0.57
0.76
0.73
0.74
0.57
0.56
0.485
0.515
0.53
0.625
0.69
0.745
0.805
0.695
0.595
0.52
0.45
0.495
0.495
0.56
0.61
0.81
0.845
0.695
0.66
0.595
0.395
0.48
0.575
0.64
0.745
0.795
0.785
0.725
0.605
0.555
0.455
0.5
0.58
0.6
0.775
0.755
0.79
0.695
0.645
0.6
0.48
0.545
0.6
0.705
0.76
0.855
0.84
0.74
0.735
0.615
0.505
0.54
0.615
0.66
0.765
0.905
0.885
0.795
0.72
0.665
0.64
0.675
0.755
0.75
0.835
0.915
0.91
0.845
0.78
0.655
0.6
0.735
0.775
0.775
0.85
0.98
0.91
0.795
0.68
0.515
0.47
0.585
0.715
0.625
0.72
0.865
0.93
0.74
0.71
0.525
0.57
0.585
0.625
0.615
0.785
0.83
0.84
0.735
0.64
0.505
0.57
0.625
0.74
0.775
0.845
0.86
0.755
0.63
0.62
0.495
0.48
0.445
0.52
0.63
0.77
0.79
0.885
0.94
1.03
1.015
1.155
1.465
1.71
1.84
2.18
2.265
2.3
2.205
2.125
1.8
1.805
1.615
1.48
1.235
1.28
1.205
0.985
0.835
0.69
0.6
0.635
0.655
0.69
0.76
0.85
0.915
0.88
0.765
0.725
0.595
0.56
0.69
0.695
0.725
0.935
0.895
0.75
0.745
0.725
0.62
0.59
0.78
0.815
0.855
0.92
0.905
0.81
0.76
0.685
0.665
0.51
0.68
0.78
0.885
0.95
0.885
0.835
0.81
0.74
0.665
0.595
0.665
0.765
0.835
0.96
0.96
0.85
0.845
0.695
0.665
0.59
0.675
0.855
0.85
0.86
0.84
0.845
0.82
0.72
0.75
0.74
0.845
0.86
0.845
1.005
1.01
0.91
0.795
0.72
0.655
0.62
0.81
0.89
1.025
1.045
0.975
0.925
0.835
0.775
0.71
0.71
0.86
0.895
0.99
1.02
1.09
1.015
0.935
0.77
0.725
0.775
0.915
0.875
1.125
1.135
1.085
1.0
0.965
0.88
0.865
0.89
0.995
1.055
1.145
1.195
1.13
1.04
0.99
0.875
0.9
0.955
1.02
1.125
1.26
1.255
1.145
1.0
1.0
0.84
0.915
0.945
0.995
1.07
1.085
1.15
1.015
1.085
1.005
0.795
0.83
0.86
0.92
0.885
1.08
1.09
0.945
0.865
0.85
0.74
0.745
0.87
0.94
0.97
1.04
1.01
0.96
0.905
0.87
0.72
0.755
0.865
0.855
0.96
1.035
1.095
1.0
0.875
0.75
0.675
0.705
0.825
0.91
0.95
1.015
1.035
1.005
0.9
0.855
0.745
0.735
0.77
0.865
0.92
1.12
1.035
1.015
0.905
0.865
0.755
0.8
0.83
0.87
0.945
1.015
0.975
0.905
0.905
0.92
0.77
0.74
0.86
0.9
0.99
1.03
1.03
1.0
0.915
0.815
0.705
0.72
0.74
0.89
0.99
1.105
1.11
1.015
0.84
0.79
0.775
0.795
0.885
0.895
0.955
1.01
1.01
0.82
0.84
0.79
0.76
0.825
0.91
0.96
1.085
1.14
1.005
1.025
0.84
0.805
0.81
0.79
0.91
0.95
1.0
1.08
0.955
0.79
0.855
0.79
0.795
0.85
0.905
1.005
1.14
1.025
0.98
0.91
0.92
0.795
0.77
0.755
0.84
0.91
0.98
0.93
0.875
1.035
0.93
0.82
0.93
0.87
0.83
0.905
1.03
0.98
1.0
0.93
0.89
0.74
0.755
0.805
0.91
0.89
0.91
0.965
0.995
0.935
0.87
0.66
0.72
0.85
0.935
0.945
1.05
1.055
1.005
0.935
0.855
0.735
0.725
0.82
0.9
0.865
0.89
0.795
0.905
1.005
0.93
0.765
0.76
0.785
0.855
0.92
1.04
1.03
1.02
0.955
0.905
0.705
0.7
0.875
0.97
0.96
1.015
0.98
0.925
0.945
0.86
0.71
0.765
0.82
0.915
0.925
0.965
0.985
0.995
0.92
0.825
0.78
0.815
0.82
0.96
0.925
0.95
0.95
0.8
0.77
0.88
0.785
0.775
0.88
1.0
1.01
1.025
1.03
0.95
0.88
0.87
0.755
0.815
0.785
0.9
1.055
1.085
1.0
0.92
0.785
0.71
0.65
0.785
0.855
0.9
0.985
1.055
1.01
0.975
0.96
0.83
0.785
0.755
0.875
0.89
0.92
1.045
0.955
0.77
0.64
0.64
0.875
0.865
1.0
1.005
1.06
1.105
0.97
0.935
