# TIPE ECG 2021 - ECG-ID Database v1.0.0 par Physionet
# [Numéro de la personne, Période d'échantillonnage, Prénom, Age, Sexe, Date de l'enregistrement]
[87, 0.002, Tammy, 16, F, 21.05.2005]
-0.215
-0.18
-0.18
-0.125
-0.12
-0.16
-0.11
-0.05
-0.075
-0.045
-0.04
-0.09
-0.035
-0.06
0.005
-0.02
0.005
-0.015
-0.02
0.01
0.045
0.105
0.05
0.05
0.085
0.125
0.125
0.17
0.175
0.14
0.04
0.06
0.085
0.09
0.115
0.125
0.125
0.145
0.09
0.095
0.08
0.08
0.105
0.105
0.08
0.065
0.13
0.1
0.075
0.06
0.105
0.13
0.15
0.09
0.065
0.08
0.115
0.065
0.025
0.055
0.035
0.01
0.015
0.045
0.05
0.005
0.06
0.005
-0.05
-0.05
-0.075
-0.09
0.0
0.015
0.01
-0.065
-0.025
-0.035
-0.015
0.01
-0.095
-0.115
-0.07
-0.09
-0.075
-0.09
-0.1
-0.105
-0.1
-0.075
-0.11
-0.115
-0.14
-0.125
-0.125
-0.15
-0.12
-0.135
-0.15
-0.13
-0.205
-0.105
-0.07
-0.125
-0.155
-0.1
-0.16
-0.22
-0.12
-0.09
-0.16
-0.17
-0.195
-0.255
-0.255
-0.245
-0.22
-0.2
-0.22
-0.12
-0.12
-0.155
-0.16
-0.145
-0.14
-0.16
-0.175
-0.14
-0.125
-0.155
-0.23
-0.22
-0.065
-0.19
-0.265
-0.225
-0.275
-0.22
-0.26
-0.255
-0.215
-0.22
-0.175
-0.25
-0.23
-0.35
-0.35
-0.29
-0.32
-0.365
-0.405
-0.345
-0.275
-0.22
-0.27
-0.31
-0.345
-0.38
-0.345
-0.36
-0.27
-0.305
-0.43
-0.385
-0.305
-0.28
-0.36
-0.345
-0.38
-0.335
-0.29
-0.315
-0.36
-0.38
-0.385
-0.435
-0.4
-0.29
-0.27
-0.28
-0.37
-0.42
-0.32
-0.26
-0.325
-0.315
-0.365
-0.4
-0.365
-0.27
-0.295
-0.345
-0.3
-0.26
-0.205
-0.175
-0.07
0.06
0.18
0.195
0.33
0.47
0.325
0.355
0.33
0.285
0.185
0.05
-0.08
-0.31
-0.31
-0.385
-0.365
-0.405
-0.43
-0.395
-0.385
-0.37
-0.355
-0.365
-0.39
-0.345
-0.3
-0.36
-0.405
-0.355
-0.28
-0.285
-0.365
-0.355
-0.35
-0.335
-0.335
-0.325
-0.365
-0.36
-0.415
-0.47
-0.415
-0.385
-0.32
-0.29
-0.295
-0.405
-0.345
-0.345
-0.43
-0.325
-0.29
-0.3
-0.375
-0.385
-0.34
-0.28
-0.31
-0.3
-0.34
-0.415
-0.405
-0.38
-0.36
-0.365
-0.36
-0.305
-0.31
-0.28
-0.285
-0.34
-0.34
-0.39
-0.29
-0.275
-0.285
-0.325
-0.285
-0.385
-0.35
-0.3
-0.285
-0.25
-0.3
-0.305
-0.265
-0.23
-0.275
-0.27
-0.305
-0.295
-0.22
-0.215
-0.265
-0.275
-0.175
-0.265
-0.205
-0.18
-0.21
-0.175
-0.19
-0.2
-0.195
-0.255
-0.19
-0.14
-0.125
-0.135
-0.14
-0.14
-0.09
-0.09
-0.175
-0.125
-0.055
-0.1
-0.135
-0.09
-0.05
0.045
0.035
-0.04
-0.07
0.025
-0.12
-0.12
-0.1
-0.075
0.015
0.025
0.03
-0.07
-0.08
0.01
-0.05
-0.085
-0.11
-0.145
-0.1
-0.1
-0.22
-0.23
-0.175
-0.185
-0.295
-0.35
-0.24
-0.265
-0.27
-0.25
-0.325
-0.325
-0.39
-0.35
-0.395
-0.37
-0.395
-0.455
-0.47
-0.39
-0.39
-0.34
-0.35
-0.41
-0.42
-0.475
-0.41
-0.38
-0.415
-0.455
-0.445
-0.41
-0.465
-0.45
-0.38
-0.4
-0.49
-0.495
-0.535
-0.505
-0.46
-0.455
-0.5
-0.445
-0.41
-0.365
-0.505
-0.47
-0.445
-0.455
-0.435
-0.455
-0.405
-0.48
-0.445
-0.48
-0.495
-0.515
-0.52
-0.52
-0.54
-0.48
-0.47
-0.4
-0.395
-0.41
-0.415
-0.425
-0.47
-0.525
-0.44
-0.415
-0.44
-0.5
-0.465
-0.55
-0.51
-0.455
-0.44
-0.39
-0.385
-0.46
-0.415
-0.455
-0.515
-0.525
-0.525
-0.41
-0.445
-0.465
-0.425
-0.405
-0.385
-0.36
-0.41
-0.48
-0.57
-0.43
-0.44
-0.425
-0.42
-0.435
-0.47
-0.455
-0.38
-0.405
-0.44
-0.455
-0.485
-0.575
-0.41
-0.4
-0.49
-0.47
-0.455
-0.435
-0.465
-0.505
-0.495
-0.43
-0.365
-0.36
-0.375
-0.435
-0.43
-0.35
-0.3
-0.52
-0.545
-0.445
-0.515
-0.43
-0.335
-0.425
-0.39
-0.405
-0.41
-0.375
-0.43
-0.4
-0.37
-0.385
-0.325
-0.34
-0.405
-0.375
-0.34
-0.37
-0.395
-0.42
-0.43
-0.47
-0.45
-0.45
-0.455
-0.445
-0.415
-0.48
-0.445
-0.475
-0.52
-0.465
-0.44
-0.47
-0.455
-0.39
-0.42
-0.505
-0.51
-0.47
-0.555
-0.535
-0.425
-0.5
-0.505
-0.465
-0.52
-0.425
-0.475
-0.445
-0.385
-0.48
-0.515
-0.52
-0.435
-0.55
-0.515
-0.445
-0.48
-0.495
-0.435
-0.385
-0.47
-0.555
-0.515
-0.425
-0.42
-0.44
-0.42
-0.46
-0.495
-0.48
-0.455
-0.435
-0.425
-0.495
-0.47
-0.41
-0.445
-0.385
-0.355
-0.24
-0.105
0.085
0.165
0.29
0.295
0.37
0.35
0.155
0.155
0.17
0.05
-0.15
-0.4
-0.455
-0.475
-0.475
-0.415
-0.43
-0.515
-0.54
-0.415
-0.405
-0.445
-0.38
-0.395
-0.4
-0.38
-0.445
-0.5
-0.465
-0.485
-0.35
-0.255
-0.28
-0.395
-0.375
-0.36
-0.455
-0.465
-0.475
-0.365
-0.385
-0.34
-0.355
-0.38
-0.35
-0.34
-0.405
-0.35
-0.305
-0.515
-0.49
-0.44
-0.37
-0.31
-0.31
-0.395
-0.45
-0.455
-0.385
-0.345
-0.37
-0.365
-0.33
-0.355
-0.36
-0.29
-0.345
-0.33
-0.38
-0.365
-0.315
-0.34
-0.32
-0.39
-0.265
-0.32
-0.385
-0.325
-0.36
-0.26
-0.335
-0.285
-0.25
-0.28
-0.3
-0.255
-0.305
-0.34
-0.29
-0.24
-0.165
-0.235
-0.295
-0.365
-0.34
-0.275
-0.14
-0.105
-0.16
-0.185
-0.145
-0.155
-0.155
-0.19
-0.195
-0.18
-0.165
-0.1
-0.085
-0.14
-0.185
-0.115
-0.11
-0.12
-0.015
0.05
0.015
-0.05
-0.07
0.03
-0.02
0.025
0.015
-0.03
-0.045
0.01
-0.03
-0.035
-0.02
0.02
-0.035
-0.065
-0.065
-0.055
-0.05
0.01
-0.04
-0.105
-0.105
-0.13
-0.105
-0.12
-0.145
-0.23
-0.23
-0.225
-0.305
-0.33
-0.26
-0.255
-0.285
-0.25
-0.325
-0.325
-0.31
-0.35
-0.325
-0.32
-0.305
-0.375
-0.39
-0.42
-0.41
-0.405
-0.405
-0.3
-0.39
-0.51
-0.425
-0.41
-0.375
-0.34
-0.38
-0.445
-0.45
-0.385
-0.44
-0.465
-0.43
-0.36
-0.35
-0.335
-0.395
-0.475
-0.425
-0.395
-0.315
-0.33
-0.405
-0.435
-0.42
-0.39
-0.445
-0.445
-0.395
-0.49
-0.405
-0.395
-0.375
-0.325
-0.375
-0.41
-0.44
-0.35
-0.325
-0.355
-0.41
-0.405
-0.415
-0.34
-0.34
-0.35
-0.39
-0.36
-0.385
-0.37
-0.38
-0.335
-0.37
-0.405
-0.39
-0.38
-0.47
-0.41
-0.4
-0.37
-0.38
-0.35
-0.325
-0.38
-0.375
-0.35
-0.33
-0.335
-0.355
-0.425
-0.405
-0.425
-0.33
-0.29
-0.305
-0.39
-0.31
-0.335
-0.31
-0.335
-0.33
-0.345
-0.34
-0.425
-0.4
-0.345
-0.37
-0.365
-0.395
-0.375
-0.375
-0.4
-0.415
-0.35
-0.375
-0.355
-0.365
-0.35
-0.405
-0.375
-0.34
-0.37
-0.4
-0.38
-0.37
-0.3
-0.26
-0.38
-0.435
-0.37
-0.29
-0.375
-0.385
-0.405
-0.345
-0.29
-0.28
-0.325
-0.34
-0.295
-0.295
-0.295
-0.24
-0.22
-0.285
-0.27
-0.23
-0.32
-0.32
-0.375
-0.29
-0.295
-0.275
-0.295
-0.335
-0.335
-0.325
-0.335
-0.295
-0.305
-0.385
-0.37
-0.38
-0.365
-0.33
-0.39
-0.38
-0.37
-0.44
-0.435
-0.37
-0.34
-0.335
-0.36
-0.4
-0.31
-0.405
-0.445
-0.415
-0.31
-0.345
-0.385
-0.4
-0.385
-0.465
-0.45
-0.395
-0.37
-0.36
-0.385
-0.345
-0.29
-0.41
-0.38
-0.365
-0.34
-0.355
-0.37
-0.345
-0.365
-0.39
-0.42
-0.325
-0.335
-0.415
-0.455
-0.315
-0.22
-0.315
-0.345
-0.395
-0.36
-0.375
-0.39
-0.37
-0.255
-0.15
-0.13
0.085
0.2
0.275
0.33
0.425
0.41
0.365
0.36
0.425
0.32
0.205
0.04
-0.19
-0.285
-0.355
-0.34
-0.28
-0.32
-0.41
-0.365
-0.275
-0.25
-0.235
-0.29
-0.32
-0.22
-0.25
-0.265
-0.31
-0.33
-0.285
-0.27
-0.245
-0.215
-0.32
-0.37
-0.275
-0.23
-0.21
-0.3
-0.28
-0.305
-0.25
-0.25
-0.23
-0.24
-0.29
-0.305
-0.275
-0.32
-0.255
-0.21
-0.285
-0.29
-0.285
-0.26
-0.2
-0.22
-0.255
-0.305
-0.245
-0.29
-0.265
-0.265
-0.29
-0.295
-0.235
-0.225
-0.23
-0.165
-0.25
-0.305
-0.22
-0.15
-0.155
-0.215
-0.24
-0.185
-0.13
-0.23
-0.235
-0.24
-0.255
-0.26
-0.2
-0.115
-0.095
-0.145
-0.135
-0.135
-0.115
-0.18
-0.16
-0.155
-0.125
-0.165
-0.16
-0.125
-0.095
-0.035
-0.095
-0.115
-0.05
-0.085
-0.075
-0.055
-0.02
-0.02
-0.01
-0.065
-0.045
0.025
0.07
0.055
0.04
0.04
0.03
0.02
0.0
0.03
0.1
0.1
0.115
0.14
0.15
0.11
0.105
0.14
0.11
0.095
0.09
0.11
0.095
0.13
0.04
0.085
0.01
-0.01
-0.04
0.0
0.02
0.005
0.03
0.025
-0.045
-0.02
-0.125
-0.095
-0.105
-0.13
-0.135
-0.18
-0.27
-0.23
-0.185
-0.185
-0.21
-0.215
-0.205
-0.23
-0.225
-0.2
-0.14
-0.22
-0.24
-0.21
-0.21
-0.265
-0.21
-0.26
-0.185
-0.295
-0.265
-0.27
-0.25
-0.23
-0.235
-0.27
-0.24
-0.195
-0.25
-0.195
-0.215
-0.215
-0.22
-0.25
-0.22
-0.245
-0.23
-0.265
-0.32
-0.255
-0.175
-0.185
-0.3
-0.24
-0.19
-0.155
-0.22
-0.28
-0.26
-0.22
-0.235
-0.22
-0.23
-0.22
-0.2
-0.25
-0.255
-0.195
-0.23
-0.215
-0.16
-0.205
-0.25
-0.27
-0.275
-0.225
-0.175
-0.23
-0.145
-0.155
-0.225
-0.2
-0.185
-0.19
-0.235
-0.24
-0.2
-0.22
-0.185
-0.185
-0.175
-0.175
-0.185
-0.225
-0.235
-0.27
-0.165
-0.18
-0.145
-0.225
-0.19
-0.205
-0.215
-0.215
-0.22
-0.215
-0.155
-0.165
-0.23
-0.235
-0.22
-0.185
-0.155
-0.155
-0.235
-0.195
-0.235
-0.23
-0.19
-0.155
-0.14
-0.2
-0.21
-0.195
-0.22
-0.21
-0.195
-0.17
-0.17
-0.25
-0.19
-0.2
-0.16
-0.195
-0.195
-0.17
-0.15
-0.185
-0.245
-0.25
-0.23
-0.19
-0.2
-0.165
-0.125
-0.185
-0.17
-0.18
-0.255
-0.245
-0.24
-0.185
-0.2
-0.21
-0.16
-0.13
-0.18
-0.175
-0.16
-0.22
-0.205
-0.215
-0.19
-0.22
-0.265
-0.175
-0.165
-0.16
-0.21
-0.085
-0.175
-0.185
-0.16
-0.205
-0.2
-0.145
-0.18
-0.15
-0.195
-0.215
-0.18
-0.09
-0.13
-0.155
-0.095
-0.125
-0.115
-0.16
-0.215
-0.08
0.005
-0.035
-0.085
-0.085
-0.1
-0.115
-0.11
-0.065
-0.09
-0.105
-0.13
-0.08
-0.135
-0.155
-0.135
-0.145
-0.2
-0.13
-0.1
-0.125
-0.115
-0.135
-0.07
-0.13
-0.235
-0.215
-0.175
-0.15
-0.2
-0.155
-0.195
-0.145
-0.17
-0.185
-0.185
-0.14
-0.15
-0.18
-0.165
-0.2
-0.205
-0.16
-0.225
-0.165
-0.18
-0.165
-0.165
-0.17
-0.12
-0.125
-0.14
-0.145
-0.165
-0.195
-0.12
-0.135
-0.13
-0.15
-0.135
-0.14
-0.13
-0.12
-0.17
-0.225
-0.135
-0.165
-0.165
-0.13
-0.145
-0.15
-0.065
-0.07
-0.07
-0.12
-0.035
-0.035
0.06
0.155
0.23
0.315
0.375
0.405
0.455
0.505
0.475
0.465
0.48
0.455
0.39
0.29
0.12
0.035
-0.065
0.005
-0.085
-0.09
-0.085
-0.045
-0.08
-0.065
-0.065
0.0
-0.055
-0.045
0.015
-0.05
-0.07
-0.06
-0.075
-0.105
-0.1
-0.13
-0.12
-0.075
0.0
-0.06
-0.06
-0.01
-0.01
0.0
-0.02
-0.115
-0.11
-0.11
-0.06
-0.03
0.015
-0.01
0.0
-0.02
-0.015
0.005
-0.025
-0.045
-0.04
-0.055
0.0
0.005
0.01
0.0
-0.025
0.015
0.04
0.015
0.015
0.015
0.015
-0.015
-0.03
0.01
0.055
0.11
0.055
-0.01
-0.015
0.035
0.05
0.065
0.025
0.065
0.105
0.075
0.08
0.115
0.04
0.05
0.095
0.11
0.045
0.065
0.135
0.15
0.095
0.14
0.19
0.14
0.25
0.1
0.13
0.155
0.145
0.195
0.2
0.195
0.19
0.245
0.295
0.27
0.275
0.215
0.26
0.235
0.26
0.29
0.315
0.34
0.345
0.335
0.385
0.28
0.305
0.315
0.375
0.35
0.355
0.36
0.32
0.355
0.375
0.335
0.335
0.43
0.375
0.35
0.345
0.345
0.285
0.275
0.255
0.285
0.315
0.3
0.265
0.2
0.195
0.245
0.225
0.18
0.14
0.16
0.16
0.13
0.115
0.1
0.07
0.09
0.125
0.1
0.115
0.1
0.08
0.08
0.095
0.045
0.01
0.055
0.07
0.035
0.035
0.06
0.07
0.03
0.05
0.04
0.07
0.065
0.025
0.055
0.025
0.01
0.08
0.12
0.09
0.03
0.095
0.1
0.07
0.065
0.07
0.07
0.105
0.11
-0.015
-0.045
0.04
0.135
0.1
0.085
0.095
0.11
0.095
0.065
0.015
0.06
0.08
0.075
0.085
0.065
0.075
0.075
0.105
0.09
0.085
0.07
0.08
0.065
0.105
0.065
0.08
0.075
0.07
0.08
0.09
0.14
0.13
0.09
0.075
0.06
0.05
0.085
0.12
0.09
0.09
0.07
0.12
0.08
0.08
0.14
0.06
0.115
0.085
0.12
0.055
0.03
0.11
0.12
0.085
0.055
0.06
0.105
0.09
0.145
0.13
0.055
0.035
0.08
0.085
0.155
0.105
0.075
0.09
0.105
0.085
0.135
0.115
0.125
0.115
0.09
0.115
0.135
0.12
0.095
0.09
0.035
0.065
0.105
0.125
0.15
0.12
0.105
0.09
0.1
0.12
0.125
0.115
0.135
0.14
0.145
0.105
0.07
0.02
0.085
0.16
0.13
0.07
0.055
0.07
0.055
0.105
0.105
0.175
0.17
0.13
0.115
0.13
0.135
0.095
0.12
0.11
0.135
0.105
0.085
0.09
0.085
0.09
0.035
0.075
0.125
0.165
0.195
0.12
0.14
0.125
0.125
0.115
0.08
0.13
0.105
0.115
0.145
0.11
0.09
0.145
0.07
0.015
0.06
0.09
0.105
0.145
0.18
0.165
0.18
0.125
0.1
0.13
0.13
0.155
0.185
0.145
0.1
0.05
0.075
0.13
0.175
0.16
0.16
0.15
0.14
0.14
0.145
0.16
0.15
0.145
0.1
0.14
0.13
0.115
0.14
0.175
0.12
0.115
0.09
0.075
0.135
0.155
0.155
0.15
0.12
0.145
0.165
0.185
0.175
0.14
0.135
0.165
0.16
0.15
0.14
0.12
0.18
0.2
0.185
0.135
0.125
0.16
0.25
0.135
0.105
0.1
0.105
0.12
0.125
0.11
0.18
0.165
0.12
0.17
0.17
0.185
0.185
0.19
0.25
0.235
0.175
0.11
0.12
0.135
0.2
0.165
0.16
0.21
0.15
0.165
0.165
0.19
0.155
0.16
0.14
0.17
0.15
0.195
0.185
0.185
0.165
0.175
0.155
0.16
0.125
0.07
0.115
0.12
0.165
0.24
0.2
0.19
0.17
0.145
0.245
0.215
0.195
0.165
0.16
0.16
0.175
0.205
0.22
0.205
0.195
0.23
0.21
0.195
0.205
0.225
0.25
0.26
0.235
0.23
0.225
0.25
0.28
0.23
0.195
0.24
0.28
0.265
0.27
0.25
0.24
0.265
0.275
0.275
0.23
0.215
0.245
0.235
0.165
0.15
0.28
0.29
0.285
0.285
0.235
0.18
0.22
0.185
0.17
0.185
0.22
0.21
0.19
0.18
0.195
0.185
0.185
0.19
0.16
0.16
0.2
0.22
0.2
0.165
0.2
0.205
0.14
0.17
0.205
0.245
0.215
0.205
0.19
0.2
0.21
0.195
0.185
0.21
0.19
0.17
0.18
0.175
0.225
0.23
0.185
0.135
0.21
0.235
0.205
0.235
0.235
0.265
0.24
0.175
0.175
0.23
0.245
0.28
0.265
0.315
0.44
0.505
0.61
0.71
0.715
0.755
0.815
0.805
0.815
0.75
0.835
0.85
0.735
0.61
0.43
0.345
0.26
0.28
0.28
0.295
0.265
0.29
0.27
0.215
0.21
0.275
0.275
0.3
0.265
0.285
0.215
0.195
0.185
0.22
0.3
0.28
0.275
0.3
0.315
0.34
0.225
0.22
0.255
0.25
0.25
0.245
0.25
0.245
0.285
0.265
0.295
0.305
0.295
0.27
0.26
0.27
0.27
0.275
0.28
0.325
0.3
0.275
0.315
0.36
0.255
0.26
0.22
0.27
0.32
0.37
0.355
0.335
0.295
0.33
0.34
0.335
0.375
0.335
0.325
0.34
0.29
0.34
0.34
0.31
0.305
0.385
0.3
0.35
0.385
0.405
0.365
0.415
0.42
0.35
0.36
0.33
0.365
0.41
0.44
0.445
0.385
0.375
0.355
0.385
0.41
0.455
0.495
0.47
0.435
0.46
0.51
0.51
0.485
0.485
0.55
0.54
0.54
0.535
0.545
0.595
0.605
0.615
0.585
0.57
0.55
0.595
0.595
0.58
0.64
0.605
0.59
0.615
0.59
0.595
0.61
0.595
0.62
0.57
0.575
0.585
0.5
0.495
0.54
0.6
0.595
0.565
0.54
0.51
0.44
0.46
0.475
0.45
0.4
0.38
0.38
0.435
0.455
0.375
0.365
0.37
0.365
0.35
0.325
0.305
0.31
0.365
0.295
0.29
0.275
0.255
0.27
0.285
0.22
0.285
0.275
0.225
0.28
0.29
0.305
0.245
0.265
0.28
0.27
0.33
0.265
0.29
0.265
0.275
0.245
0.26
0.28
0.305
0.285
0.275
0.285
0.275
0.235
0.225
0.25
0.275
0.275
0.315
0.26
0.26
0.235
0.255
0.295
0.28
0.29
0.245
0.275
0.23
0.26
0.285
0.27
0.26
0.345
0.34
0.365
0.295
0.245
0.225
0.3
0.305
0.315
0.29
0.315
0.29
0.3
0.275
0.285
0.28
0.295
0.255
0.26
0.27
0.255
0.24
0.21
0.275
0.33
0.35
0.305
0.29
0.275
0.32
0.33
0.3
0.295
0.295
0.295
0.295
0.28
0.315
0.245
0.225
0.265
0.325
0.3
0.25
0.3
0.32
0.31
0.315
0.26
0.275
0.285
0.34
0.325
0.31
0.29
0.28
0.24
0.265
0.25
0.32
0.34
0.32
0.315
0.3
0.295
0.3
0.325
0.325
0.315
0.295
0.315
0.31
0.28
0.27
0.32
0.325
0.26
0.26
0.29
0.305
0.31
0.285
0.285
0.28
0.195
0.185
0.19
0.235
0.35
0.29
0.295
0.295
0.35
0.32
0.325
0.31
0.265
0.33
0.31
0.3
0.3
0.325
0.3
0.31
0.32
0.365
0.27
0.25
0.285
0.245
0.315
0.285
0.29
0.3
0.295
0.255
0.32
0.255
0.27
0.28
0.325
0.32
0.325
0.26
0.23
0.195
0.295
0.35
0.33
0.335
0.34
0.32
0.295
0.305
0.345
0.28
0.255
0.265
0.295
0.27
0.345
0.335
0.37
0.335
0.34
0.3
0.26
0.225
0.25
0.29
0.345
0.285
0.3
0.29
0.275
0.275
0.325
0.4
0.32
0.315
0.33
0.335
0.325
0.34
0.32
0.345
0.34
0.35
0.34
0.32
0.33
0.355
0.35
0.38
0.395
0.405
0.37
0.325
0.3
0.365
0.375
0.365
0.395
0.35
0.375
0.375
0.375
0.385
0.415
0.39
0.345
0.32
0.375
0.44
0.39
0.325
0.345
0.32
0.32
0.31
0.32
0.34
0.305
0.305
0.295
0.31
0.3
0.31
0.32
0.305
0.325
0.265
0.29
0.275
0.3
0.295
0.29
0.25
0.29
0.315
0.305
0.325
0.32
0.27
0.25
0.31
0.34
0.31
0.335
0.335
0.365
0.36
0.355
0.32
0.23
0.24
0.3
0.255
0.265
0.335
0.425
0.405
0.39
0.305
0.215
0.325
0.35
0.415
0.495
0.645
0.775
0.84
0.935
0.98
0.995
0.925
0.785
0.845
0.93
0.88
0.75
0.495
0.355
0.335
0.355
0.355
0.38
0.36
0.345
0.34
0.33
0.33
0.37
0.36
0.4
0.38
0.36
0.38
0.37
0.425
0.41
0.365
0.35
0.325
0.34
0.335
0.38
0.35
0.38
0.41
0.415
0.37
0.375
0.345
0.35
0.38
0.4
0.39
0.35
0.35
0.3
0.385
0.45
0.365
0.305
0.365
0.355
0.37
0.37
0.41
0.43
0.41
0.385
0.425
0.44
0.415
0.4
0.345
0.325
0.33
0.35
0.41
0.42
0.445
0.365
0.41
0.405
0.41
0.465
0.415
0.445
0.395
0.385
0.425
0.46
0.47
0.44
0.36
0.425
0.455
0.45
0.445
0.495
0.51
0.42
0.51
0.55
0.535
0.54
0.485
0.515
0.485
0.48
0.5
0.515
0.515
0.55
0.62
0.53
0.54
0.585
0.595
0.65
0.645
0.58
0.615
0.63
0.625
0.585
0.635
0.7
0.73
0.7
0.685
0.705
0.67
0.685
0.665
0.725
0.695
0.755
0.735
0.72
0.665
0.705
0.685
0.695
0.67
0.67
0.66
0.65
0.575
0.54
0.555
0.565
0.52
0.56
0.555
0.545
0.515
0.51
0.425
0.415
0.405
0.4
0.44
0.43
0.395
0.41
0.355
0.355
0.355
0.39
0.4
0.365
0.34
0.33
0.31
0.34
0.305
0.32
0.3
0.295
0.32
0.295
0.36
0.4
0.33
0.34
0.36
0.295
0.25
0.295
0.345
0.355
0.27
0.315
0.335
0.335
0.305
0.315
0.275
0.275
0.25
0.25
0.315
0.285
0.36
0.305
0.34
0.37
0.335
0.335
0.265
0.27
0.275
0.37
0.29
0.32
0.295
0.35
0.245
0.285
0.36
0.36
0.335
0.345
0.415
0.395
0.345
0.33
0.34
0.345
0.345
0.295
0.275
0.315
0.315
0.305
0.32
0.345
0.34
0.36
0.39
0.365
0.355
0.37
0.33
0.345
0.325
0.315
0.34
0.345
0.39
0.355
0.365
0.41
0.395
0.365
0.36
0.385
0.375
0.38
0.305
0.32
0.355
0.385
0.385
0.375
0.395
0.37
0.355
0.365
0.345
0.32
0.355
0.35
0.355
0.365
0.295
0.34
0.4
0.37
0.34
0.375
0.38
0.335
0.34
0.34
0.33
0.385
0.42
0.39
0.385
0.37
0.39
0.31
0.34
0.4
0.355
0.36
0.355
0.355
0.295
0.31
0.305
0.32
0.34
0.365
0.355
0.36
0.395
0.355
0.355
0.305
0.395
0.36
0.38
0.34
0.315
0.365
0.31
0.355
0.32
0.345
0.345
0.42
0.405
0.39
0.36
0.34
0.32
0.32
0.415
0.345
0.335
0.345
0.4
0.42
0.38
0.345
0.435
0.46
0.41
0.41
0.405
0.385
0.36
0.39
0.385
0.39
0.41
0.455
0.44
0.4
0.36
0.495
0.53
0.475
0.415
0.44
0.465
0.475
0.49
0.48
0.465
0.455
0.485
0.46
0.42
0.395
0.435
0.45
0.42
0.41
0.385
0.35
0.41
0.43
0.44
0.42
0.395
0.41
0.365
0.35
0.36
0.365
0.315
0.33
0.335
0.345
0.39
0.4
0.435
0.465
0.415
0.375
0.4
0.375
0.315
0.335
0.36
0.38
0.37
0.39
0.37
0.405
0.39
0.385
0.385
0.39
0.345
0.355
0.38
0.365
0.33
0.385
0.385
0.345
0.355
0.395
0.41
0.405
0.415
0.39
0.39
0.37
0.395
0.465
0.53
0.67
0.755
0.865
1.0
1.12
1.175
1.23
1.205
1.145
1.13
1.1
0.925
0.815
0.61
0.415
0.33
0.33
0.34
0.365
0.4
0.495
0.495
0.525
0.465
0.475
0.485
0.44
0.455
0.465
0.485
0.49
0.43
0.415
0.39
0.395
0.455
0.485
0.475
0.465
0.47
0.49
0.48
0.47
0.435
0.465
0.485
0.49
0.435
0.42
0.47
0.55
0.495
0.505
0.545
0.475
0.415
0.41
0.47
0.465
0.52
0.545
0.55
0.565
0.53
0.515
0.465
0.465
0.495
0.53
0.525
0.5
0.48
0.525
0.495
0.53
0.51
0.42
0.455
0.53
0.61
0.62
0.555
0.565
0.61
0.61
0.63
0.56
0.56
0.615
0.54
0.505
0.57
0.6
0.57
0.625
0.61
0.625
0.625
0.635
0.6
0.61
0.605
0.645
0.705
0.695
0.68
0.705
0.715
0.73
0.77
0.725
0.76
0.72
0.715
0.78
0.82
0.79
0.815
0.845
0.84
0.795
0.83
0.825
0.835
0.855
0.88
0.91
0.935
0.86
0.89
0.93
0.93
0.875
0.875
0.875
0.84
0.825
0.825
0.875
0.87
0.875
0.835
0.84
0.75
0.745
0.75
0.705
0.685
0.68
0.63
0.625
0.595
0.665
0.66
0.64
0.595
0.615
0.59
0.575
0.51
0.505
0.53
0.54
0.505
0.47
0.45
0.52
0.51
0.49
0.51
0.445
0.435
0.48
0.505
0.5
0.51
0.475
0.515
0.44
0.49
0.465
0.51
0.465
0.455
0.405
0.44
0.455
0.445
0.475
0.435
0.395
0.45
0.465
0.505
0.465
0.455
0.47
0.46
0.46
0.475
0.515
0.455
0.435
0.38
0.42
0.485
0.485
0.52
0.47
0.46
0.495
0.47
0.45
0.46
0.495
0.445
0.49
0.48
0.495
0.45
0.435
0.445
0.495
0.45
0.43
0.435
0.49
0.485
0.495
0.435
0.425
0.43
0.5
0.485
0.455
0.485
0.495
0.465
0.435
0.415
0.41
0.45
0.485
0.495
0.505
0.47
0.465
0.47
0.5
0.49
0.45
0.505
0.515
0.465
0.465
0.45
0.43
0.415
0.445
0.445
0.455
0.44
0.46
0.47
0.495
0.475
0.46
0.505
0.425
0.425
0.415
0.45
0.5
0.465
0.495
0.46
0.475
0.46
0.445
0.455
0.445
0.465
0.445
0.41
0.41
0.425
0.455
0.515
0.535
0.52
0.485
0.465
0.455
0.455
0.45
0.42
0.465
0.48
0.495
0.57
0.54
0.51
0.515
0.51
0.53
0.55
0.525
0.485
0.495
0.48
0.46
0.5
0.565
0.56
0.5
0.495
0.465
0.475
0.44
0.43
0.48
0.46
0.455
0.475
0.445
0.465
0.395
0.415
0.42
0.44
0.43
0.415
0.39
0.395
0.44
0.46
0.445
0.39
0.405
0.445
0.47
0.46
0.435
0.35
0.34
0.385
0.43
0.465
0.485
0.45
0.435
0.41
0.42
0.41
0.425
0.395
0.445
0.45
0.42
0.445
0.445
0.45
0.42
0.43
0.455
0.49
0.45
0.395
0.405
0.385
0.435
0.525
0.57
0.605
0.655
0.805
0.905
1.02
1.17
1.245
1.24
1.185
1.115
1.105
1.12
1.095
0.955
0.73
0.51
0.435
0.38
0.46
0.55
0.42
0.365
0.455
0.465
0.47
0.48
0.445
0.46
0.495
0.475
0.47
0.505
0.48
0.465
0.42
0.43
0.52
0.485
0.47
0.48
0.475
0.45
0.445
0.43
0.52
0.52
0.47
0.485
0.485
0.47
0.465
0.495
0.5
0.48
0.535
0.495
0.475
0.47
0.52
0.555
0.48
0.44
0.475
0.495
0.555
0.57
0.54
0.52
0.485
0.56
0.535
0.505
0.52
0.535
0.545
0.53
0.58
0.55
0.535
0.515
0.55
0.515
0.54
0.535
0.6
0.62
0.62
0.6
0.615
0.6
0.645
0.575
0.575
0.54
0.58
0.595
0.6
0.64
0.67
0.665
0.67
0.65
0.67
0.665
0.67
0.66
0.675
0.705
0.735
0.695
0.755
0.735
0.735
0.725
0.695
0.76
0.735
0.76
0.835
0.85
0.83
0.785
0.77
0.825
0.815
0.875
0.87
0.875
0.85
0.855
0.89
0.86
0.855
0.84
0.84
0.81
0.79
0.82
0.85
0.87
0.84
0.78
0.745
0.775
0.735
0.695
0.71
0.655
0.62
0.65
0.645
0.695
0.645
0.61
0.605
0.64
0.555
0.485
0.47
0.465
0.445
0.515
0.465
0.55
0.58
0.52
0.55
0.445
0.44
0.42
0.485
0.55
0.545
0.515
0.525
0.495
0.45
0.425
0.405
0.475
0.53
0.565
0.53
0.515
0.46
0.43
0.4
0.405
0.42
0.41
0.47
0.485
0.5
0.49
0.415
0.45
0.405
0.42
0.43
0.51
0.52
0.44
0.43
0.445
0.495
0.44
0.46
0.49
0.495
0.49
0.505
0.465
0.395
0.42
0.43
0.465
0.545
0.485
0.505
0.475
0.435
0.465
0.46
0.455
0.455
0.465
0.455
0.47
0.49
0.46
0.51
0.435
0.425
0.415
0.43
0.495
0.495
0.49
0.48
0.44
0.415
0.435
0.415
0.485
0.5
0.55
0.525
0.49
0.48
0.495
0.48
0.49
0.45
0.465
0.485
0.48
0.525
0.485
0.435
0.465
0.485
0.545
0.59
0.54
0.505
0.545
0.545
0.54
0.56
0.515
0.545
0.58
0.53
0.55
0.58
0.535
0.47
0.495
0.475
0.505
0.505
0.475
0.495
0.47
0.5
0.55
0.445
0.445
0.485
0.46
0.465
0.48
0.49
0.455
0.48
0.425
0.415
0.42
0.445
0.515
0.47
0.425
0.46
0.46
0.46
0.44
0.415
0.43
0.46
0.445
0.44
0.435
0.43
0.455
0.465
0.44
0.48
0.47
0.43
0.435
0.43
0.47
0.44
0.46
0.41
0.41
0.4
0.455
0.49
0.415
0.43
0.43
0.48
0.495
0.51
0.485
0.475
0.465
0.51
0.54
0.62
0.7
0.81
0.86
0.97
1.09
1.15
1.065
1.06
0.98
1.06
1.01
0.89
0.73
0.545
0.45
0.465
0.485
0.41
0.445
0.46
0.49
0.53
0.57
0.515
0.49
0.51
0.48
0.485
0.555
0.525
0.54
0.54
0.495
0.445
0.485
0.49
0.53
0.525
0.5
0.495
0.45
0.49
0.505
0.475
0.485
0.495
0.555
0.47
0.515
0.49
0.535
0.51
0.555
0.53
0.515
0.505
0.555
0.495
0.455
0.55
0.565
0.54
0.525
0.475
0.475
0.545
0.53
0.53
0.575
0.59
0.535
0.545
0.515
0.555
0.515
0.46
0.54
0.57
0.51
0.535
0.595
0.625
0.585
0.6
0.56
0.56
0.58
0.61
0.645
0.62
0.555
0.585
0.615
0.625
0.63
0.61
0.66
0.66
0.615
0.64
0.64
0.64
0.65
0.64
0.64
0.63
0.7
0.755
0.72
0.735
0.705
0.77
0.795
0.76
0.8
0.805
0.82
0.83
0.84
0.805
0.815
0.8
0.81
0.8
0.815
0.84
0.895
0.88
0.84
0.81
0.79
0.78
0.795
0.865
0.82
0.82
0.815
0.81
0.78
0.8
0.72
0.69
0.735
0.71
0.61
0.585
0.525
0.615
0.615
0.6
0.59
0.6
0.62
0.575
0.52
0.545
0.515
0.45
0.525
0.545
0.56
0.505
0.44
0.465
0.46
0.485
0.48
0.435
0.41
0.46
0.475
0.435
0.42
0.44
0.47
0.395
0.415
0.46
0.45
0.465
0.475
0.43
0.43
0.465
0.46
0.47
0.51
0.51
0.44
0.44
0.485
0.485
0.46
0.465
0.415
0.42
0.5
0.445
0.435
0.455
0.43
0.43
0.41
0.415
0.395
0.42
0.435
0.465
0.445
0.415
0.41
0.41
0.5
0.505
0.495
0.465
0.47
0.45
0.46
0.465
0.455
0.45
0.46
0.465
0.435
0.445
0.45
0.455
0.465
0.435
0.455
0.445
0.49
0.48
0.44
0.42
0.42
0.405
0.43
0.475
0.485
0.495
0.475
0.455
0.52
0.475
0.505
0.5
0.485
0.485
0.47
0.48
0.47
0.47
0.455
0.52
0.51
0.51
0.51
0.47
0.5
0.52
0.53
0.55
0.55
0.56
0.525
0.505
0.52
0.545
0.5
0.445
0.5
0.56
0.48
0.51
0.465
0.49
0.52
0.525
0.52
0.445
0.4
0.42
0.455
0.47
0.485
0.445
0.445
0.455
0.485
0.455
0.395
0.39
0.42
0.43
0.425
0.42
0.48
0.48
0.395
0.395
0.39
0.475
0.47
0.43
0.37
0.41
0.405
0.45
0.48
0.465
0.36
0.36
0.42
0.415
0.435
0.42
0.455
0.44
0.42
0.425
0.41
0.43
0.425
0.405
0.42
0.39
0.415
0.445
0.41
0.425
0.47
0.47
0.465
0.5
0.5
0.575
0.64
0.725
0.82
0.9
0.9
0.95
1.01
0.98
0.985
0.98
1.0
0.94
0.89
0.68
0.51
0.44
0.465
0.515
0.55
0.545
0.52
0.49
0.49
0.475
0.465
0.47
0.465
0.495
0.385
0.46
0.48
0.485
0.455
0.4
0.43
0.505
0.49
0.435
0.465
0.515
0.475
0.47
0.45
0.445
0.445
0.47
0.495
0.49
0.48
0.45
0.475
0.485
0.445
0.42
0.46
0.465
0.43
0.43
0.51
0.5
0.48
0.445
0.495
0.52
0.52
0.5
0.51
0.485
0.485
0.535
0.515
0.515
0.52
0.43
0.43
0.5
0.535
0.45
0.5
0.52
0.52
0.54
0.525
0.495
0.525
0.555
0.505
0.485
0.505
0.475
0.44
0.475
0.55
0.58
0.58
0.62
0.595
0.61
0.61
0.61
0.58
0.585
0.575
0.61
0.57
0.555
0.56
0.585
0.62
0.67
0.715
0.7
0.66
0.68
0.67
0.75
0.71
0.74
0.755
0.715
0.685
0.705
0.73
0.68
0.71
0.725
0.735
0.725
0.74
0.72
0.68
0.685
0.805
0.785
0.715
0.72
0.67
0.67
0.64
0.69
0.68
0.685
0.675
0.605
0.6
0.605
0.585
0.545
0.515
0.48
0.51
0.48
0.46
0.48
0.495
0.52
0.525
0.49
0.5
0.47
0.455
0.415
0.415
0.43
0.465
0.49
0.39
0.37
0.375
0.395
0.405
0.42
0.425
0.41
0.39
0.425
0.395
0.4
0.5
0.535
0.455
0.37
0.43
0.43
0.385
0.43
0.425
0.42
0.395
0.385
0.4
0.36
0.44
0.45
0.44
0.425
0.415
0.425
0.415
0.44
0.41
0.4
0.375
0.375
0.34
0.375
0.39
0.43
0.445
0.425
0.44
0.475
0.495
0.465
0.405
0.415
0.44
0.47
0.425
0.405
0.36
0.39
0.41
0.405
0.395
0.46
0.505
0.435
0.41
0.405
0.415
0.375
0.365
0.35
0.4
0.47
0.44
0.445
0.4
0.41
0.41
0.44
0.435
0.375
0.4
0.455
0.465
0.465
0.465
0.46
0.46
0.45
0.455
0.46
0.475
0.415
0.41
0.465
0.465
0.435
0.43
0.48
0.47
0.52
0.465
0.465
0.51
0.475
0.445
0.425
0.405
0.315
0.445
0.495
0.51
0.53
0.455
0.445
0.445
0.435
0.425
0.34
0.335
0.4
0.385
0.345
0.34
0.33
0.4
0.44
0.445
0.395
0.34
0.42
0.405
0.4
0.445
0.36
0.34
0.305
0.345
0.325
0.405
0.445
0.42
0.33
0.345
0.365
0.375
0.355
0.375
0.36
0.37
0.4
0.4
0.39
0.37
0.375
0.35
0.355
0.39
0.34
0.36
0.395
0.375
0.395
0.415
0.43
0.425
0.385
0.34
0.345
0.42
0.465
0.495
0.57
0.67
0.74
0.785
0.84
0.95
0.97
0.92
0.815
0.865
0.895
0.825
0.805
0.66
0.52
0.455
0.475
0.475
0.44
0.455
0.4
0.435
0.385
0.395
0.41
0.405
0.4
0.445
0.47
0.48
0.435
0.43
0.435
0.505
0.385
0.38
0.365
0.36
0.365
0.395
0.38
0.425
0.445
0.415
0.43
0.455
0.415
0.39
0.405
0.4
0.4
0.4
0.405
0.35
0.405
0.455
0.425
0.485
0.43
0.43
0.455
0.44
0.41
0.405
0.445
0.455
0.435
0.445
0.43
0.395
0.4
0.425
0.48
0.485
0.485
0.455
0.505
0.455
0.445
0.42
0.43
0.45
0.46
0.49
0.455
0.495
0.475
0.45
0.45
0.455
0.47
0.485
0.475
0.525
0.555
0.515
0.52
0.5
0.54
0.52
0.48
0.525
0.565
0.6
0.575
0.56
0.585
0.63
0.565
0.63
0.61
0.55
0.56
0.6
0.67
0.63
0.695
0.685
0.68
0.675
0.69
0.665
0.655
0.65
0.7
0.725
0.695
0.675
0.59
0.57
0.64
0.715
0.705
0.705
0.645
0.65
0.66
0.655
0.65
0.59
0.605
0.585
0.56
0.545
0.525
0.51
0.495
0.51
0.52
0.475
0.405
0.485
0.485
0.45
0.335
0.39
0.42
0.41
0.435
0.425
0.425
0.38
0.345
0.345
0.375
0.38
0.375
0.355
0.405
0.37
0.37
0.34
0.365
0.33
0.37
0.34
0.355
0.355
0.33
0.355
0.37
0.365
0.38
0.4
0.335
0.27
0.28
0.32
0.375
0.405
0.435
0.375
0.36
0.365
0.36
0.385
0.375
0.38
0.385
0.355
0.345
0.345
0.355
0.335
0.365
0.29
0.28
0.285
0.375
0.35
0.385
0.365
0.365
0.335
0.335
0.335
0.345
0.37
0.395
0.35
0.36
0.39
0.385
0.34
0.395
0.365
0.335
0.325
0.34
0.34
0.375
0.36
0.315
0.345
0.38
0.385
0.315
0.33
0.365
0.3
0.305
0.37
0.36
0.4
0.335
0.325
0.325
0.315
0.36
0.355
0.365
0.385
0.345
0.3
0.295
0.315
0.325
0.335
0.395
0.37
0.35
0.345
0.325
0.29
0.315
0.355
0.375
0.39
0.365
0.32
0.45
0.345
0.38
0.39
0.36
0.39
0.36
0.35
0.425
0.37
0.375
0.385
0.355
0.395
0.41
0.4
0.39
0.395
0.405
0.425
0.415
0.365
0.38
0.39
0.395
0.385
0.38
0.335
0.37
0.415
0.375
0.385
0.34
0.33
0.36
0.255
0.255
0.335
0.35
0.31
0.325
0.33
0.335
0.37
0.32
0.34
0.3
0.335
0.29
0.3
0.27
0.32
0.345
0.335
0.315
0.27
0.245
0.285
0.345
0.36
0.34
0.275
0.29
0.33
0.325
0.265
0.28
0.29
0.27
0.26
0.33
0.305
0.255
0.305
0.325
0.345
0.315
0.325
0.36
0.325
0.33
0.355
0.335
0.33
0.355
0.345
0.35
0.42
0.495
0.585
0.66
0.71
0.755
0.795
0.81
0.795
0.75
0.765
0.795
0.825
0.79
0.715
0.54
0.38
0.37
0.475
0.385
0.3
0.32
0.315
0.38
0.43
0.36
0.34
0.355
0.345
0.4
0.37
0.345
0.395
0.4
0.37
0.35
0.295
0.335
0.34
0.365
0.33
0.305
0.315
0.375
0.335
0.27
0.325
0.355
0.345
0.365
0.38
0.4
0.405
0.36
0.365
0.35
0.315
0.32
0.295
0.335
0.39
0.37
0.375
0.36
0.375
0.4
0.34
0.29
0.36
0.425
0.39
0.345
0.335
0.355
0.405
0.375
0.425
0.43
0.43
0.44
0.335
0.355
0.41
0.375
0.38
0.38
0.39
0.395
0.38
0.37
0.395
0.4
0.395
0.43
0.45
0.465
0.435
0.425
0.465
0.44
0.475
0.465
0.43
0.48
0.5
0.52
0.455
0.47
0.51
0.595
0.51
0.5
0.455
0.52
0.565
0.53
0.595
0.57
0.565
0.57
0.61
0.66
0.66
0.665
0.63
0.59
0.595
0.625
0.635
0.6
0.58
0.62
0.665
0.64
0.63
0.62
0.58
0.52
0.55
0.565
0.59
0.58
0.55
0.525
0.52
0.525
0.535
0.48
0.45
0.465
0.42
0.345
0.355
0.365
0.42
0.44
0.385
0.37
0.32
0.365
0.395
0.38
0.41
0.36
0.35
0.255
0.275
0.26
0.315
0.32
0.29
0.275
0.25
0.32
0.315
0.26
0.26
0.31
0.305
0.385
0.32
0.325
0.315
0.275
0.285
0.25
0.22
0.18
0.24
0.36
0.335
0.29
0.32
0.36
0.345
0.31
0.29
0.305
0.295
0.29
0.26
0.285
0.32
0.28
0.285
0.315
0.305
0.3
0.31
0.31
0.305
0.295
0.29
0.235
0.3
0.27
0.255
0.29
0.355
0.3
0.3
0.27
0.295
0.275
0.25
0.315
0.355
0.275
0.265
0.255
0.245
0.28
0.295
0.285
0.275
0.26
0.27
0.3
0.275
0.325
0.215
0.225
0.245
0.29
0.285
0.285
0.305
0.265
0.32
0.33
0.25
0.23
0.315
0.235
0.265
0.265
0.24
0.265
0.255
0.25
0.255
0.24
0.295
0.285
0.325
0.315
0.29
0.26
0.245
0.26
0.285
0.275
0.275
0.255
0.245
0.25
0.245
0.195
0.225
0.295
0.305
0.315
0.305
0.325
0.275
0.26
0.275
0.26
0.305
0.265
0.23
0.245
0.265
0.255
0.2
0.245
0.265
0.285
0.2
0.26
0.325
0.27
0.275
0.2
0.245
0.27
0.27
0.235
0.205
0.255
0.28
0.245
0.32
0.265
0.285
0.285
0.28
0.225
0.24
0.28
0.3
0.285
0.235
0.26
0.275
0.325
0.29
0.28
0.295
0.305
0.315
0.36
0.315
0.325
0.325
0.255
0.24
0.3
0.355
0.335
0.34
0.33
0.245
0.21
0.24
0.295
0.31
0.275
0.305
0.285
0.26
0.28
0.3
0.26
0.235
0.275
0.24
0.18
0.265
0.31
0.27
0.275
0.3
0.225
0.2
0.245
0.21
0.21
0.285
0.275
0.22
0.17
0.215
0.235
0.315
0.175
0.2
0.22
0.24
0.205
0.21
0.205
0.22
0.18
0.235
0.185
0.2
0.21
0.24
0.25
0.245
0.19
0.275
0.245
0.26
0.225
0.215
0.245
0.19
0.21
0.28
0.365
0.31
0.3
0.235
0.295
0.36
0.37
0.38
0.5
0.59
0.695
0.765
0.825
0.775
0.77
0.69
0.705
0.745
0.755
0.6
0.48
0.345
0.3
0.33
0.35
0.35
0.285
0.255
0.27
0.26
0.29
0.33
0.29
0.31
0.265
0.24
0.245
0.25
0.275
0.3
0.32
0.265
0.265
0.29
0.26
0.3
0.245
0.225
0.235
0.27
0.29
0.325
0.29
0.265
0.26
0.305
0.335
0.285
0.3
0.235
0.29
0.305
0.34
0.33
0.295
0.285
0.29
0.3
0.285
0.325
0.265
0.25
0.31
0.335
0.315
0.29
0.315
0.355
0.305
0.38
0.305
0.295
0.305
0.285
0.31
0.27
0.265
0.215
0.325
0.4
0.39
0.305
0.325
0.375
0.395
0.405
0.35
0.38
0.36
0.365
0.33
0.36
0.375
0.36
0.38
0.41
0.44
0.41
0.395
0.4
0.415
0.47
0.43
0.43
0.465
0.435
0.485
0.435
0.41
0.475
0.46
0.5
0.545
0.565
0.49
0.52
0.52
0.605
0.545
0.51
0.48
0.47
0.52
0.525
0.55
0.595
0.61
0.59
0.58
0.58
0.575
0.61
0.55
0.56
0.585
0.53
0.55
0.525
0.55
0.505
0.51
0.495
0.45
0.38
0.38
0.38
0.39
0.385
0.4
0.265
0.28
0.335
0.375
0.405
0.35
0.32
0.29
0.31
0.34
0.32
0.28
0.26
0.22
0.25
0.265
0.285
0.275
0.255
0.245
0.235
0.225
0.24
0.275
0.3
0.32
0.35
0.34
0.27
0.215
0.25
0.195
0.18
0.205
0.265
0.285
0.26
0.275
0.295
0.285
0.24
0.23
0.275
0.24
0.28
0.295
0.32
0.285
0.3
0.27
0.22
0.245
0.265
0.285
0.24
0.24
0.275
0.29
0.275
0.235
0.235
0.23
0.28
0.255
0.245
0.295
0.295
0.32
0.36
0.265
0.265
0.295
0.27
0.285
0.23
0.225
0.215
0.27
0.295
0.31
0.325
0.285
0.275
0.295
0.285
0.235
0.225
0.26
0.275
0.25
0.315
0.29
0.255
0.275
0.24
0.255
0.235
0.235
0.215
0.225
0.28
0.25
0.28
0.28
0.22
0.315
0.325
0.275
0.235
0.24
0.28
0.29
0.285
0.285
0.32
0.305
0.24
0.23
0.22
0.23
0.275
0.31
0.3
0.275
0.295
0.285
0.265
0.285
0.28
0.27
0.21
0.18
0.23
0.275
0.34
0.29
0.265
0.255
0.3
0.245
0.235
0.305
0.27
0.23
0.27
0.255
0.24
0.25
0.25
0.285
0.26
0.27
0.3
0.26
0.255
0.24
0.255
0.33
0.26
0.28
0.335
0.31
0.24
0.31
0.275
0.245
0.26
0.275
0.265
0.305
0.295
0.275
0.29
0.315
0.25
0.365
0.34
0.275
0.31
0.34
0.395
0.335
0.34
0.34
0.325
0.3
0.315
0.325
0.335
0.335
0.36
0.3
0.295
0.275
0.31
0.27
0.27
0.25
0.25
0.23
0.25
0.27
0.27
0.245
0.265
0.23
0.25
0.34
0.28
0.27
0.235
0.245
0.285
0.2
0.2
0.305
0.275
0.26
0.24
0.22
0.23
0.19
0.225
0.265
0.285
0.265
0.245
0.225
0.29
0.29
0.265
0.27
0.28
0.225
0.185
0.235
0.145
0.175
0.255
0.28
0.275
0.3
0.255
0.3
0.3
0.275
0.33
0.37
0.385
0.345
0.415
0.545
0.565
0.695
0.765
0.835
0.84
0.815
0.805
0.76
0.775
0.735
0.72
0.615
0.405
0.35
0.33
0.27
0.255
0.27
0.32
0.32
0.315
0.3
0.295
0.315
0.3
0.285
0.295
0.3
0.25
0.245
0.325
0.345
0.3
0.295
0.255
0.285
0.295
0.32
0.335
0.32
0.27
0.265
0.285
0.27
0.26
0.295
0.27
0.3
0.355
0.295
0.285
0.31
0.335
0.36
0.35
0.33
0.32
0.27
0.33
0.335
0.34
0.325
0.315
0.27
0.265
0.305
0.32
0.305
0.355
0.325
0.325
0.39
0.355
0.33
0.385
0.315
0.305
0.325
0.345
0.355
0.375
0.365
0.365
0.39
0.36
0.355
0.345
0.34
0.295
0.325
0.375
0.43
0.405
0.455
0.395
0.47
0.475
0.435
0.435
0.475
0.455
0.45
0.4
0.43
0.465
0.415
0.45
0.575
0.495
0.525
0.545
0.535
0.58
0.55
0.545
0.53
0.545
0.515
0.515
0.52
0.535
0.585
0.56
0.58
0.59
0.59
0.595
0.61
0.615
0.655
0.59
0.57
0.575
0.67
0.58
0.53
0.56
0.555
0.51
0.465
0.42
0.455
0.435
0.405
0.425
0.44
0.465
0.47
0.45
0.395
0.41
0.385
0.335
0.33
0.325
0.315
0.315
0.28
0.24
0.21
0.235
0.285
0.33
0.33
0.34
0.29
0.265
0.265
0.255
0.28
0.305
0.255
0.225
0.27
0.265
0.26
0.24
0.21
0.155
0.27
0.295
0.285
0.305
0.265
0.24
0.285
0.265
0.245
0.25
0.245
0.22
0.31
0.265
0.31
0.245
0.22
0.19
0.19
0.225
0.275
0.28
0.325
0.245
0.205
0.21
0.225
0.285
0.3
0.3
0.235
0.25
0.275
0.275
0.255
0.22
0.255
0.285
0.26
0.295
0.27
0.285
0.265
0.255
0.215
0.27
0.25
0.285
0.27
0.275
0.285
0.235
0.23
0.18
0.205
0.21
0.235
0.33
0.275
0.24
0.205
0.32
0.295
0.305
0.215
0.275
0.26
0.25
0.245
0.275
0.27
0.27
0.235
0.205
0.285
0.205
0.255
0.24
0.245
0.245
0.24
0.27
0.285
0.295
0.27
0.235
0.275
0.255
0.225
0.235
0.205
0.135
0.16
0.23
0.27
0.31
0.26
0.215
0.205
0.26
0.285
0.255
0.28
0.285
0.245
0.225
0.19
0.23
0.185
0.22
0.27
0.285
0.28
0.22
0.27
0.225
0.24
0.295
0.255
0.24
0.22
0.26
0.23
0.245
0.26
0.225
0.195
0.225
0.25
0.185
0.115
0.155
0.245
0.345
0.285
0.28
0.275
0.22
0.265
0.255
0.26
0.265
0.295
0.27
0.27
0.285
0.315
0.32
0.325
0.335
0.32
0.35
0.285
0.31
0.325
0.31
0.295
0.27
0.315
0.29
0.295
0.27
0.31
0.22
0.17
0.235
0.18
0.185
0.245
0.32
0.325
0.295
0.27
0.235
0.22
0.225
0.13
0.195
0.165
0.26
0.26
0.235
0.25
0.26
0.27
0.27
0.25
0.21
0.215
0.22
0.195
0.215
0.22
0.175
0.195
0.17
0.23
0.215
0.21
0.23
0.225
0.225
0.23
0.23
0.235
0.165
0.175
0.17
0.215
0.265
0.355
0.3
0.275
0.285
0.25
0.22
0.265
0.33
0.42
0.56
0.63
0.69
0.82
0.87
0.93
0.875
0.795
0.765
0.73
0.73
0.66
0.515
0.27
0.21
0.205
0.24
0.19
0.14
0.19
0.23
0.31
0.275
0.265
0.27
0.27
0.28
0.305
0.24
0.215
0.265
0.26
0.26
0.265
0.295
0.28
0.275
0.29
0.285
0.26
0.215
0.22
0.27
0.265
0.265
0.24
0.26
0.245
0.23
0.235
0.295
0.34
0.325
0.3
0.24
0.23
0.315
0.335
0.255
0.295
0.28
0.285
0.285
0.33
0.28
0.29
0.31
0.375
0.29
0.295
0.295
0.285
0.33
0.32
0.28
0.32
0.315
0.275
0.345
0.33
0.36
0.35
0.37
0.315
0.315
0.32
0.295
0.345
0.37
0.275
0.285
0.38
0.39
0.44
0.425
0.395
0.395
0.415
0.41
0.41
0.42
0.4
0.375
0.41
0.42
0.42
0.435
0.45
0.485
0.49
0.515
0.495
0.545
0.535
0.54
0.53
0.445
0.51
0.525
0.545
0.575
0.595
0.605
0.585
0.565
0.64
0.63
0.57
0.535
0.555
0.57
0.575
0.625
0.645
0.66
0.545
0.49
0.515
0.595
0.535
0.49
0.495
0.525
0.47
0.45
0.465
0.435
0.43
0.355
0.335
0.34
0.355
0.365
0.335
0.32
0.33
0.29
0.335
0.32
0.235
0.275
0.29
0.255
0.225
0.26
0.26
0.195
0.29
0.21
0.26
0.25
0.235
0.265
0.265
0.225
0.21
0.23
0.185
0.14
0.16
0.16
0.22
0.26
0.275
0.27
0.205
0.205
0.205
0.18
0.275
0.22
0.195
0.225
0.25
0.225
0.235
0.2
0.235
0.235
0.215
0.2
0.2
0.21
0.23
0.245
0.23
0.22
0.25
0.23
0.22
0.215
0.225
0.215
0.23
0.23
0.29
0.265
0.215
0.235
0.2
0.205
0.21
0.22
0.24
0.2
0.175
0.205
0.17
0.245
0.285
0.275
0.225
0.215
0.21
0.2
0.265
0.265
0.225
0.215
0.23
0.225
0.205
0.225
0.23
0.28
0.3
0.26
0.22
0.225
0.22
0.2
0.2
0.22
0.17
0.2
0.225
0.26
0.15
0.185
0.235
0.245
0.2
0.215
0.225
0.245
0.205
0.18
0.175
0.22
0.2
0.2
0.2
0.195
0.21
0.16
0.17
0.2
0.16
0.225
0.265
0.21
0.195
0.2
0.225
0.205
0.205
0.2
0.22
0.24
0.16
0.17
0.185
0.225
0.22
0.2
0.185
0.185
0.205
0.225
0.255
0.215
0.25
0.175
0.215
0.14
0.205
0.25
0.245
0.235
0.235
0.285
0.3
0.33
0.31
0.29
0.275
0.265
0.245
0.245
0.23
0.21
0.31
0.33
0.27
0.24
0.195
0.185
0.22
0.205
0.24
0.235
0.23
0.195
0.225
0.27
0.155
0.17
0.2
0.22
0.15
0.21
0.205
0.19
0.2
0.14
0.075
0.1
0.13
0.19
0.23
0.23
0.215
0.19
0.135
0.12
0.16
0.185
0.18
0.17
0.135
0.195
0.185
0.18
0.175
0.205
0.205
0.18
0.135
0.15
0.175
0.185
0.17
0.135
0.215
0.195
0.22
0.21
0.21
0.145
0.23
0.255
0.255
0.375
0.565
0.685
0.805
0.875
0.895
0.935
0.88
0.775
0.735
0.735
0.635
0.515
0.23
0.145
0.13
0.125
0.125
0.095
0.165
0.19
0.18
0.195
0.26
0.235
0.22
0.275
0.215
0.23
0.235
0.23
0.18
0.195
0.175
0.22
0.3
0.185
0.17
0.23
0.24
0.21
0.25
0.215
0.175
0.205
0.215
0.225
0.265
0.235
0.235
0.26
0.19
0.2
0.275
0.23
0.235
0.245
0.285
0.25
0.265
0.24
0.265
0.19
0.265
0.21
0.22
0.26
0.28
0.265
0.23
0.225
0.275
0.235
0.275
0.26
0.27
0.255
0.25
0.335
0.295
0.305
0.305
0.305
0.27
0.275
0.225
0.3
0.355
0.335
0.315
0.295
0.395
0.375
0.285
0.335
0.395
0.375
0.4
0.33
0.34
0.37
0.32
0.36
0.375
0.385
0.44
0.415
0.47
0.44
0.445
0.44
0.47
0.45
0.46
0.435
0.47
0.51
0.525
0.57
0.525
0.525
0.57
0.58
0.49
0.53
0.49
0.5
0.565
0.605
0.545
0.57
0.585
0.525
0.55
0.53
0.585
0.55
0.49
0.49
0.48
0.505
0.46
0.45
0.465
0.42
0.41
0.4
0.415
0.37
0.4
0.36
0.32
0.305
0.29
0.27
0.275
0.26
0.23
0.29
0.275
0.22
0.15
0.155
0.155
0.225
0.25
0.2
0.23
0.255
0.255
0.235
0.22
0.175
0.16
0.16
0.145
0.17
0.145
0.18
0.17
0.225
0.215
0.195
0.205
0.24
0.2
0.18
0.165
0.18
0.165
0.19
0.165
0.1
0.115
0.25
0.215
0.23
0.195
0.15
0.2
0.15
0.225
0.175
0.215
0.21
0.185
0.17
0.225
0.185
0.195
0.175
0.17
0.195
0.13
0.21
0.25
0.26
0.23
0.17
0.225
0.185
0.19
0.165
0.205
0.2
0.155
0.19
0.225
0.22
0.19
0.235
0.255
0.22
0.18
0.19
0.175
0.205
0.195
0.18
0.175
0.165
0.15
0.155
0.125
0.115
0.185
0.29
0.235
0.215
0.2
0.155
0.145
0.135
0.16
0.225
0.175
0.25
0.24
0.215
0.205
0.21
0.145
0.15
0.19
0.185
0.195
0.165
0.18
0.165
0.16
0.205
0.225
0.14
0.135
0.145
0.18
0.195
0.2
0.13
0.11
0.125
0.135
0.18
0.235
0.21
0.23
0.205
0.23
0.27
0.235
0.21
0.175
0.18
0.19
0.215
0.17
0.185
0.285
0.28
0.235
0.195
0.22
0.25
0.27
0.26
0.28
0.26
0.255
0.19
0.18
0.155
0.1
0.135
0.25
0.245
0.22
0.225
0.225
0.15
0.2
0.175
0.19
0.145
0.11
0.11
0.11
0.17
0.185
0.17
0.14
0.135
0.19
0.105
0.115
0.13
0.18
0.18
0.15
0.18
0.125
0.14
0.185
0.155
0.16
0.15
0.145
0.16
0.135
0.11
0.145
0.16
0.18
0.135
0.15
0.17
0.175
0.12
0.1
0.155
0.15
0.155
0.195
0.18
0.17
0.26
0.305
0.265
0.46
0.62
0.715
0.795
0.82
0.89
0.87
0.715
0.725
0.725
0.6
0.44
0.23
0.14
0.115
0.15
0.13
0.135
0.165
0.175
0.08
0.115
0.13
0.21
0.27
0.23
0.23
0.225
0.22
0.185
0.185
0.175
0.245
0.265
0.16
0.15
0.235
0.18
0.19
0.25
0.2
0.19
0.185
0.165
0.185
0.235
0.26
0.2
0.17
0.215
0.21
0.21
0.235
0.225
0.24
0.215
0.205
0.26
0.23
0.23
0.23
0.21
0.16
0.2
0.22
0.195
0.265
0.28
0.315
0.27
0.265
0.215
0.23
0.25
0.24
0.3
0.25
0.235
0.25
0.265
0.265
0.26
0.27
0.315
0.27
0.28
0.345
0.265
0.28
0.325
0.355
0.28
0.3
0.355
0.275
0.36
0.29
0.285
0.315
0.325
0.42
0.45
0.395
0.325
0.385
0.38
0.425
0.43
0.39
0.46
0.44
0.505
0.405
0.395
0.445
0.49
0.495
0.485
0.52
0.53
0.535
0.58
0.54
0.485
0.485
0.515
0.495
0.52
0.545
0.53
0.565
0.53
0.56
0.49
0.42
0.445
0.48
0.52
0.455
0.425
0.43
0.44
0.385
0.36
0.35
0.29
0.345
0.305
0.295
0.31
0.305
0.23
0.245
0.29
0.29
0.245
0.22
0.165
0.255
0.185
0.195
0.23
0.215
0.19
0.195
0.185
0.16
0.16
0.185
0.13
0.125
0.09
0.12
0.195
0.16
0.16
0.15
0.21
0.155
0.175
0.17
0.145
0.165
0.17
0.155
0.085
0.125
0.125
0.145
0.175
0.21
0.18
0.215
0.19
0.145
0.115
0.085
0.135
0.225
0.235
0.185
0.12
0.15
0.145
0.125
0.185
0.145
0.14
0.115
0.16
0.19
0.195
0.18
0.2
0.145
0.115
0.22
0.15
0.215
0.185
0.14
0.065
0.15
0.195
0.18
0.21
0.225
0.165
0.2
0.16
0.18
0.2
0.21
0.2
0.17
0.135
0.145
0.145
0.075
0.08
0.095
0.215
0.205
0.2
0.195
0.185
0.15
0.18
0.145
0.2
0.215
0.18
0.135
0.185
0.195
0.145
0.155
0.12
0.17
0.155
0.145
0.175
0.16
0.195
0.13
0.16
0.125
0.15
0.175
0.22
0.23
0.24
0.225
0.26
0.245
0.225
0.225
0.215
0.275
0.265
0.23
0.195
0.155
0.105
0.16
0.185
0.185
0.2
0.155
0.175
0.215
0.19
0.165
0.145
0.095
0.115
0.11
0.12
0.155
0.115
0.11
0.11
0.135
0.16
0.08
0.08
0.135
0.185
0.185
0.14
0.08
0.085
0.14
0.135
0.17
0.115
0.115
0.12
0.105
0.17
0.105
0.08
0.09
0.135
0.095
0.075
0.095
0.13
0.13
0.165
0.215
0.13
0.11
0.15
0.135
0.175
0.15
0.16
0.14
0.14
0.165
0.23
0.295
0.425
0.575
0.65
0.665
0.74
0.78
0.725
0.72
0.66
0.63
0.565
0.605
0.435
0.27
0.23
0.22
0.235
0.17
0.13
0.135
0.17
0.2
0.17
0.185
0.175
0.175
0.16
0.2
0.155
0.155
0.2
0.21
0.205
0.17
0.13
0.165
0.165
0.15
0.14
0.15
0.18
0.2
0.225
0.2
0.2
0.135
0.115
0.16
0.18
0.165
0.16
0.19
0.185
0.155
0.17
0.185
0.18
0.125
0.17
0.23
0.17
0.185
0.18
0.18
0.16
0.2
0.23
0.175
0.165
0.19
0.205
0.2
0.24
0.225
0.225
0.225
0.215
0.25
0.295
0.18
0.15
0.205
0.265
0.23
0.26
0.2
0.215
0.18
0.225
0.28
0.305
0.285
0.24
0.27
0.34
0.37
0.315
0.27
0.295
0.24
0.285
0.315
0.335
0.345
0.375
0.33
0.36
0.395
0.365
0.39
0.375
0.37
0.37
0.315
0.365
0.465
0.41
0.385
0.35
0.455
0.545
0.465
0.43
0.42
0.465
0.4
0.43
0.5
0.44
0.405
0.44
0.44
0.44
0.455
0.43
0.37
0.415
0.35
0.315
0.335
0.34
0.335
0.38
0.385
0.35
0.31
0.29
0.285
0.285
0.235
0.195
0.225
0.22
0.205
0.17
0.095
0.145
0.24
0.22
0.195
0.125
0.175
0.17
0.19
0.15
0.18
0.17
0.11
0.125
0.145
0.13
0.12
0.14
0.16
0.195
0.145
0.11
0.14
0.115
0.11
0.14
0.06
0.055
0.095
0.185
0.125
0.18
0.19
0.135
0.165
0.175
0.09
0.12
0.085
0.12
0.195
0.12
0.185
0.15
0.11
0.125
0.18
0.135
0.135
0.1
0.115
0.16
0.24
0.185
0.13
0.135
0.125
0.105
0.105
0.17
0.145
0.15
0.15
0.145
0.145
0.09
0.15
0.145
0.165
0.155
0.12
0.125
0.14
0.19
0.135
0.105
0.155
0.215
0.17
0.12
0.135
0.125
0.1
0.105
0.11
0.115
0.15
0.15
0.145
0.185
0.195
0.175
0.145
0.16
0.13
0.155
0.185
0.195
0.18
0.215
0.2
0.18
0.155
0.23
0.285
0.195
0.215
0.205
0.26
0.21
0.19
0.21
0.22
0.2
0.16
0.175
0.22
0.19
0.195
0.2
0.16
0.13
0.12
0.13
0.16
0.145
0.135
0.13
0.135
0.095
0.065
0.115
0.07
0.065
0.1
0.14
0.085
0.115
0.125
0.135
0.17
0.175
0.13
0.085
0.1
0.08
0.02
0.05
0.08
0.055
0.075
0.08
0.085
0.12
0.135
0.145
0.165
0.11
0.135
0.165
0.08
0.03
0.075
0.105
0.13
0.17
0.135
0.135
0.17
0.165
0.11
0.085
0.18
0.19
0.265
0.37
0.465
0.515
0.66
0.645
0.71
0.74
0.67
0.675
0.675
0.61
0.56
0.485
0.28
0.185
0.27
0.225
0.16
0.16
0.16
0.135
0.17
0.17
0.15
0.17
0.155
0.165
0.12
0.125
0.12
0.1
0.15
0.165
0.15
0.155
0.115
0.115
0.12
0.17
0.16
0.17
0.215
0.18
0.175
0.15
0.18
0.145
0.155
0.1
0.15
0.195
0.155
0.175
0.13
0.195
0.22
0.185
0.17
0.18
0.145
0.125
0.11
0.135
0.145
0.24
0.18
0.195
0.235
0.24
0.22
0.11
0.195
0.215
0.21
0.2
0.195
0.245
0.22
0.265
0.26
0.115
0.135
0.175
0.16
0.18
0.17
0.215
0.245
0.305
0.33
0.28
0.305
0.245
0.285
0.295
0.27
0.255
0.265
0.315
0.35
0.265
0.295
0.275
0.335
0.315
0.28
0.31
0.35
0.36
0.305
0.335
0.395
0.41
0.3
0.355
0.395
0.375
0.4
0.38
0.4
0.395
0.41
0.455
0.435
0.515
0.42
0.46
0.485
0.395
0.43
0.385
0.38
0.445
0.455
0.435
0.415
0.355
0.34
0.375
0.47
0.335
0.355
0.335
0.27
0.26
0.23
0.21
0.245
0.21
0.195
0.275
0.245
0.195
0.21
0.155
0.24
0.18
0.175
0.13
0.07
0.095
0.175
0.275
0.23
0.15
0.11
0.17
0.16
0.145
0.155
0.115
0.1
0.105
0.135
0.155
0.095
0.06
0.08
0.07
0.075
0.14
0.145
0.1
0.08
0.125
0.115
0.15
0.13
0.165
0.135
0.18
0.105
0.085
0.11
0.14
0.14
0.065
0.045
0.125
0.19
0.175
0.145
0.13
0.13
0.12
0.145
0.115
0.075
0.155
0.15
0.08
0.125
0.195
0.11
0.145
0.135
0.12
0.11
0.13
0.175
0.14
0.17
0.14
0.145
0.12
0.2
0.135
0.21
0.15
0.155
0.14
0.125
0.035
0.1
0.155
0.17
0.21
0.22
0.13
0.145
0.09
0.185
0.19
0.2
0.215
0.205
0.23
0.275
0.27
0.225
0.195
0.18
0.19
0.185
0.145
0.12
0.17
0.165
0.15
0.175
0.17
0.155
0.21
0.235
0.155
0.165
0.1
0.155
0.17
0.075
0.105
0.105
0.11
0.12
0.07
0.16
0.105
0.135
0.13
0.115
0.1
0.085
0.045
0.065
0.115
0.07
0.045
0.11
0.085
0.095
0.09
0.11
0.08
0.11
0.09
0.125
0.06
0.08
0.06
0.145
0.165
0.11
0.025
0.06
0.095
0.115
0.095
0.125
0.12
0.14
0.105
0.105
0.135
0.13
0.065
0.105
0.075
0.08
0.105
0.13
0.33
0.505
0.555
0.65
0.67
0.775
0.77
0.7
0.59
0.66
0.66
0.58
0.44
0.215
0.125
0.17
0.165
0.1
0.095
0.125
0.13
0.14
0.21
0.165
0.145
0.125
0.145
0.13
0.16
0.13
0.11
0.115
0.16
0.15
0.14
0.175
0.11
0.11
0.085
0.075
0.145
0.135
0.21
0.155
0.155
0.165
0.19
0.135
0.135
0.135
0.08
0.14
0.14
0.175
0.175
0.035
0.11
0.16
0.2
0.22
0.225
0.205
0.165
0.195
0.14
0.045
0.18
0.21
0.195
0.175
0.175
0.2
0.19
0.17
0.13
0.055
0.14
0.245
0.305
0.27
0.185
0.22
0.205
0.2
0.19
0.2
0.21
0.24
0.27
0.225
0.235
0.215
0.23
0.255
0.285
0.235
0.275
0.265
0.23
0.22
0.31
0.365
0.305
0.31
0.275
0.34
0.34
0.32
0.315
0.315
0.36
0.365
0.38
0.35
0.355
0.39
0.41
0.425
0.39
0.43
0.375
0.36
0.44
0.445
0.425
0.4
0.415
0.41
0.415
0.45
0.44
0.455
0.415
0.385
0.385
0.4
0.395
0.37
0.355
0.285
0.315
0.345
0.275
0.22
0.285
0.25
0.25
0.25
0.23
0.23
0.235
0.19
0.22
0.14
0.06
0.1
0.175
0.18
0.165
0.11
0.095
0.095
0.09
0.055
0.06
0.145
0.145
0.14
0.165
0.17
0.045
0.045
0.11
0.075
0.075
0.15
0.175
0.105
0.13
0.025
0.04
0.115
0.05
0.03
0.04
0.08
0.085
0.05
0.12
0.14
0.14
0.075
0.07
0.075
0.135
0.13
0.12
0.135
0.09
0.085
0.1
0.16
0.085
0.06
0.08
0.1
0.165
0.135
0.16
0.105
0.105
0.07
0.1
0.075
0.085
0.14
0.18
0.09
0.1
0.11
0.12
0.105
0.14
0.145
0.16
0.055
0.025
0.045
0.075
0.085
0.065
0.11
0.105
0.09
0.145
0.13
0.13
0.15
0.14
0.145
0.185
0.155
0.145
0.135
0.16
0.18
0.14
0.14
0.11
0.16
0.235
0.205
0.18
0.205
0.17
0.18
0.16
0.125
0.185
0.15
0.165
0.13
0.155
0.195
0.17
0.09
0.07
0.03
0.01
0.01
0.085
0.18
0.15
0.095
0.065
0.03
0.055
0.095
0.105
0.02
0.05
0.075
0.06
0.07
0.02
0.09
0.05
0.03
0.1
0.085
-0.005
0.055
0.095
0.08
0.045
0.035
0.095
0.06
0.065
0.09
0.06
0.03
0.035
0.06
0.06
0.025
0.045
0.05
0.065
0.065
0.065
0.05
0.07
0.035
0.11
0.115
0.07
0.065
0.07
0.155
0.21
0.265
0.355
0.555
0.66
0.695
0.725
0.785
0.765
0.8
0.705
0.68
0.495
0.375
0.27
0.025
0.06
0.11
0.055
0.035
0.015
0.085
0.185
0.205
0.12
0.165
0.12
0.145
0.105
0.11
0.105
0.095
0.06
0.085
0.095
0.09
0.13
0.085
0.09
0.095
0.12
0.165
0.11
0.12
0.065
0.075
0.18
0.145
0.1
0.065
0.135
0.125
0.085
0.13
0.17
0.125
0.04
0.14
0.14
0.19
0.15
0.125
0.13
0.19
0.145
0.13
0.08
0.16
0.125
0.105
0.07
0.14
0.125
0.1
0.165
0.185
0.175
0.18
0.165
0.24
0.16
0.11
0.13
0.305
0.235
0.145
0.155
0.19
0.225
0.245
0.23
0.21
0.215
0.17
0.13
0.185
0.275
0.24
0.255
0.29
0.315
0.3
0.29
0.28
0.275
0.27
0.255
0.25
0.235
0.285
0.34
0.36
0.375
0.39
0.32
0.405
0.47
0.46
0.42
0.32
0.365
0.41
0.365
0.34
0.43
0.395
0.375
0.37
0.43
0.5
0.375
0.415
0.39
0.465
0.4
0.37
0.405
0.335
0.405
0.36
0.32
0.35
0.32
0.305
0.245
0.185
0.22
0.245
0.25
0.2
0.16
0.1
0.17
0.225
0.175
0.125
0.15
0.18
0.155
0.1
0.09
0.09
0.115
0.205
0.13
0.08
0.045
0.135
0.085
0.05
0.085
0.035
0.0
0.01
0.045
0.065
0.15
0.165
0.11
0.06
0.085
0.085
0.09
0.08
0.095
0.04
0.045
0.12
0.15
0.075
0.06
0.08
0.08
0.165
0.1
0.025
0.06
0.105
0.12
0.08
0.035
0.06
0.085
0.105
0.115
0.115
0.09
0.095
0.085
0.035
0.0
0.035
0.065
0.085
0.12
0.135
0.125
0.13
0.09
0.09
0.12
0.14
0.115
0.05
0.025
0.04
0.1
0.07
0.12
0.075
0.08
0.075
0.08
0.1
0.135
0.125
0.12
0.1
0.115
0.13
0.105
0.07
0.105
0.1
0.06
0.085
0.105
0.135
0.06
0.035
0.09
0.165
0.235
0.23
0.24
0.135
0.11
0.125
0.165
0.16
0.18
0.135
0.135
0.1
0.13
0.095
0.145
0.18
0.135
0.145
0.14
0.125
0.125
0.025
0.085
0.015
0.02
0.035
0.06
0.09
0.08
0.065
0.125
0.035
-0.015
0.045
0.04
0.035
-0.065
-0.04
0.02
0.02
0.025
0.085
0.09
0.1
0.07
0.065
0.04
0.03
0.04
0.01
0.065
0.085
0.06
0.015
0.04
0.0
0.0
0.045
0.06
0.045
0.05
0.055
0.085
0.07
0.025
0.025
0.035
0.06
0.16
0.07
-0.01
-0.035
0.035
0.1
0.155
0.255
0.225
0.32
0.41
0.585
0.775
0.87
0.82
0.76
0.74
0.685
0.66
0.58
0.39
0.15
0.07
0.085
0.125
0.1
0.065
0.065
0.095
0.1
0.145
0.085
0.11
0.15
0.135
0.085
0.07
0.055
0.06
0.075
0.04
0.09
0.055
0.09
0.065
0.055
0.08
0.085
0.09
0.075
0.095
0.135
0.145
0.115
0.135
0.115
0.145
0.085
0.09
0.145
0.115
0.125
0.14
0.11
0.105
0.12
0.135
0.13
0.125
0.07
0.13
0.12
0.12
0.14
0.12
0.095
0.1
0.14
0.145
0.155
0.17
0.155
0.14
0.14
0.175
0.235
0.185
0.195
0.16
0.14
0.125
0.15
0.19
0.19
0.18
0.2
0.27
0.27
0.255
0.2
0.19
0.215
0.185
0.18
0.24
0.295
0.255
0.21
0.22
0.245
0.235
0.3
0.235
0.265
0.365
0.32
0.335
0.35
0.365
0.365
0.32
0.3
0.33
0.38
0.38
0.39
0.37
0.38
0.38
0.4
0.35
0.37
0.41
0.425
0.42
0.405
0.4
0.38
0.385
0.355
0.38
0.4
0.315
0.34
0.415
0.39
0.41
0.34
0.315
0.25
0.28
0.32
0.23
0.225
0.27
0.25
0.23
0.145
0.175
0.14
0.175
0.155
0.135
0.13
0.145
0.14
0.105
0.145
0.085
0.075
0.1
0.1
0.09
0.115
0.085
0.045
0.055
0.125
0.14
0.15
0.12
0.06
0.085
0.05
-0.015
0.05
0.06
0.08
0.085
0.1
0.08
0.025
0.055
0.11
0.135
0.105
0.13
0.105
0.08
0.05
0.005
0.07
0.08
0.095
0.085
0.13
0.15
0.095
0.08
0.09
0.055
0.06
0.055
0.085
0.075
0.05
0.15
0.09
0.095
0.145
0.115
0.125
0.12
0.125
0.075
0.115
0.095
0.085
0.1
0.075
0.05
0.085
0.12
0.115
0.05
0.075
0.08
0.095
0.105
0.07
0.06
0.05
0.09
0.08
0.09
0.055
0.095
0.13
0.115
0.11
0.14
0.07
0.135
0.16
0.09
0.065
0.07
0.08
0.085
0.09
0.08
0.14
0.135
0.14
0.115
0.145
0.175
0.15
0.115
0.165
0.14
0.075
0.1
0.145
0.13
0.175
0.125
0.165
0.175
0.09
0.165
0.14
0.135
0.18
0.095
0.12
0.135
0.075
0.075
0.07
0.07
0.05
0.07
0.12
0.115
0.05
0.07
0.03
0.04
0.015
0.06
0.035
0.135
0.07
0.05
0.055
0.02
0.04
0.045
0.055
-0.005
-0.04
0.02
0.06
0.065
0.045
0.04
0.035
0.045
0.04
0.07
0.11
0.045
0.095
0.09
0.025
0.09
0.06
0.065
0.11
0.04
0.025
0.06
0.05
0.065
0.105
0.1
-0.005
0.01
-0.005
0.025
0.05
0.14
0.175
0.24
0.4
0.545
0.665
0.7
0.765
0.755
0.75
0.63
0.66
0.66
0.55
0.365
0.125
0.135
0.08
0.03
-0.065
0.01
0.085
0.09
0.1
0.15
0.13
0.115
0.135
0.12
0.09
0.03
0.08
0.055
0.1
0.075
0.105
0.045
0.06
0.135
0.115
0.11
0.1
0.14
0.135
0.13
0.11
0.115
0.105
0.12
0.12
0.11
0.065
0.125
0.15
0.12
0.12
0.115
0.115
0.1
0.105
0.11
0.145
0.17
0.195
0.165
0.135
0.11
0.125
0.1
0.12
0.155
0.19
0.175
0.165
0.17
0.115
0.16
0.19
0.185
0.205
0.14
0.145
0.13
0.125
0.16
0.23
0.24
0.23
0.205
0.18
0.2
0.185
0.165
0.205
0.26
0.29
0.255
0.24
0.29
0.29
0.275
0.245
0.245
0.265
0.34
0.25
0.285
0.285
0.315
0.305
0.34
0.255
0.315
0.37
0.32
0.34
0.345
0.325
0.36
0.32
0.365
0.41
0.39
0.385
0.45
0.475
0.42
0.345
0.36
0.37
0.37
0.37
0.385
0.355
0.355
0.41
0.435
0.42
0.39
0.37
0.365
0.36
0.335
0.285
0.265
0.235
0.21
0.225
0.255
0.195
0.19
0.12
0.15
0.18
0.175
0.14
0.165
0.125
0.08
0.09
0.105
0.12
0.025
0.04
0.1
0.14
0.065
0.1
0.09
0.065
0.07
0.1
0.03
0.045
0.07
0.1
0.085
0.005
0.05
0.005
0.09
0.095
0.085
0.06
0.1
0.08
0.07
0.065
0.11
0.085
-0.005
0.065
0.105
0.13
0.08
-0.015
0.04
0.09
0.105
0.075
0.07
0.04
-0.015
-0.01
-0.005
0.085
0.145
0.13
0.08
0.015
0.05
0.08
0.105
0.13
0.1
0.075
0.11
0.065
0.105
0.095
0.065
0.065
0.07
0.14
0.09
0.025
0.085
0.125
0.105
0.095
0.095
0.105
0.075
0.07
0.075
0.075
0.095
0.07
0.055
0.135
0.115
0.07
0.125
0.125
0.075
0.07
0.065
0.025
0.075
0.13
0.17
0.2
0.165
0.15
0.14
0.115
0.095
0.06
0.135
0.23
0.2
0.21
0.18
0.145
0.14
0.16
0.125
0.09
0.11
0.17
0.11
0.1
0.045
0.04
0.11
0.11
0.085
0.08
0.075
0.135
0.1
0.055
0.075
0.11
0.09
0.02
0.0
0.04
0.04
0.08
0.11
-0.04
-0.07
-0.015
0.065
0.085
0.085
0.13
0.04
0.055
0.075
0.06
0.06
0.01
0.07
0.07
0.005
0.085
0.05
0.01
0.015
0.035
0.025
0.035
0.04
0.005
-0.005
-0.025
0.04
0.095
0.05
0.035
0.12
0.13
0.05
0.065
0.075
0.105
0.105
0.18
0.255
0.375
0.48
0.6
0.61
0.685
0.65
0.55
0.585
0.645
0.67
0.54
0.45
0.215
0.13
0.095
0.17
0.115
0.12
0.095
-0.015
0.045
0.025
0.11
0.105
0.13
0.09
0.125
0.07
0.075
0.08
0.14
0.02
0.02
0.1
0.055
0.12
0.16
0.07
0.085
0.115
0.09
0.08
0.04
0.085
0.105
0.075
0.1
0.075
0.1
0.085
0.125
0.095
0.11
0.025
0.05
0.055
-0.04
0.065
0.12
0.08
0.055
0.115
0.13
0.105
0.145
0.16
0.15
0.165
0.155
0.045
0.03
0.1
0.12
0.155
0.15
0.115
0.13
0.16
0.17
0.13
0.12
0.13
0.115
0.165
0.2
0.155
0.19
0.22
0.245
0.165
0.11
0.065
0.13
0.19
0.21
0.15
0.225
0.26
0.205
0.21
0.155
0.18
0.26
0.235
0.235
0.25
0.28
0.345
0.35
0.375
0.35
0.33
0.29
0.305
0.295
0.31
0.31
0.315
0.36
0.37
0.365
0.37
0.35
0.33
0.32
0.345
0.39
0.325
0.29
0.285
0.335
0.37
0.325
0.325
0.295
0.33
0.355
0.32
0.265
0.235
0.205
0.245
0.295
0.235
0.125
0.145
0.17
0.15
0.17
0.145
0.145
0.13
0.08
0.095
0.09
0.075
0.105
0.055
0.06
0.12
0.085
0.08
0.075
0.065
0.085
0.125
0.0
-0.035
0.025
0.105
0.105
0.065
0.0
0.02
-0.01
-0.025
0.01
0.055
0.14
0.1
0.04
0.085
0.085
0.07
-0.02
0.005
0.05
0.06
0.075
0.075
0.02
0.025
0.095
0.055
0.035
0.065
0.03
0.04
0.015
0.045
0.05
0.06
0.065
0.015
0.05
0.06
0.04
0.025
0.06
0.04
-0.005
0.065
0.085
0.11
0.06
0.065
0.08
0.055
0.04
0.105
0.075
0.01
0.025
0.065
0.025
0.01
0.07
0.05
0.035
0.085
0.1
0.11
0.07
0.0
-0.015
0.015
0.025
0.08
0.08
0.01
-0.02
0.04
0.085
0.045
-0.005
0.05
0.12
0.1
0.085
0.05
0.005
0.065
-0.01
0.0
0.06
0.02
0.06
0.11
0.08
0.005
0.03
0.085
0.105
0.045
0.045
0.075
0.095
0.14
0.18
0.115
0.105
0.095
0.125
0.125
0.125
0.09
0.05
0.06
0.05
0.065
0.065
0.125
0.05
0.075
0.075
0.035
0.055
0.065
0.065
0.01
0.005
-0.06
-0.06
0.02
0.02
0.03
0.035
-0.015
0.005
0.04
0.04
0.04
0.03
0.025
-0.045
-0.04
0.0
0.06
0.03
-0.015
-0.005
-0.065
-0.09
-0.085
0.01
0.075
0.07
0.0
-0.1
-0.025
-0.015
-0.035
-0.005
0.005
0.02
0.015
0.015
-0.06
0.075
0.06
0.045
-0.005
0.025
0.065
0.01
-0.01
0.055
0.11
0.125
0.205
0.335
0.43
0.49
0.505
0.63
0.695
0.695
0.68
0.64
0.64
0.595
0.425
0.22
0.12
-0.01
0.01
-0.025
0.015
0.0
-0.005
0.055
0.065
0.04
0.04
0.06
0.04
0.115
0.07
0.025
0.005
0.015
-0.025
0.015
-0.01
0.045
0.08
0.045
0.045
0.045
-0.005
0.035
0.04
0.075
0.04
-0.01
0.025
0.05
0.065
0.075
0.09
0.045
0.03
0.07
0.075
0.055
0.03
0.025
-0.035
0.06
0.125
0.13
0.15
0.045
0.05
0.09
0.055
0.04
-0.01
0.05
0.02
0.105
0.12
0.105
0.08
0.09
0.095
0.1
0.12
0.105
0.08
0.02
0.07
0.145
0.14
0.115
0.115
0.175
0.175
0.17
0.15
0.115
0.17
0.125
0.105
0.18
0.17
0.15
0.15
0.13
0.16
0.155
0.165
0.21
0.245
0.28
0.25
0.225
0.27
0.255
0.3
0.265
0.26
0.205
0.235
0.25
0.24
0.305
0.2
0.265
0.375
0.37
0.32
0.285
0.34
0.355
0.375
0.425
0.34
0.3
0.32
0.325
0.3
0.22
0.205
0.275
0.3
0.3
0.35
0.285
0.21
0.215
0.19
0.185
0.22
0.2
0.15
0.18
0.155
0.115
0.1
0.08
0.07
0.11
0.135
0.09
0.06
0.0
0.03
0.01
0.02
0.04
0.035
0.065
0.03
-0.02
-0.005
-0.025
-0.035
0.01
0.04
0.02
-0.02
-0.065
0.025
0.045
0.045
-0.01
-0.02
0.025
0.07
0.065
0.025
0.04
0.02
-0.01
-0.04
-0.02
-0.025
-0.035
0.035
0.01
-0.045
-0.01
0.035
0.08
0.035
0.015
-0.04
-0.025
0.045
0.06
0.085
0.015
-0.05
-0.085
-0.085
-0.025
0.065
0.105
0.08
0.06
-0.005
-0.02
0.0
-0.03
-0.04
0.035
0.04
-0.01
0.03
0.015
0.015
0.005
-0.005
0.01
0.07
0.035
-0.02
0.05
0.06
-0.015
-0.02
0.015
0.025
0.03
0.02
0.025
0.065
-0.05
-0.015
-0.005
0.005
-0.01
0.01
-0.03
0.01
0.02
-0.015
0.02
-0.015
0.015
0.02
0.005
-0.01
0.005
0.015
0.005
0.005
-0.095
-0.105
-0.03
0.03
0.125
0.065
-0.005
-0.02
0.04
0.035
-0.05
-0.015
0.02
0.015
0.025
-0.025
0.025
0.08
0.14
0.135
0.135
0.045
0.115
0.08
0.015
0.08
0.085
0.085
0.005
0.04
0.035
0.055
0.03
0.035
0.035
0.06
0.055
0.005
0.005
-0.065
-0.045
-0.02
0.02
0.045
-0.01
-0.025
-0.02
-0.025
-0.015
-0.02
-0.05
0.01
-0.01
-0.085
0.005
0.015
-0.04
-0.02
0.0
-0.005
-0.04
-0.08
-0.05
0.02
-0.005
0.025
-0.015
-0.01
0.025
-0.035
-0.035
-0.03
-0.04
-0.005
-0.075
-0.055
-0.055
-0.03
-0.07
-0.09
-0.115
-0.025
0.055
0.015
-0.02
0.04
0.08
0.035
0.0
0.0
0.045
0.125
0.135
0.225
0.38
0.45
0.53
0.56
0.665
0.65
0.645
0.625
0.625
0.635
0.485
0.345
0.19
0.02
-0.035
-0.015
-0.005
-0.04
0.04
0.07
0.045
0.045
0.035
-0.015
0.04
0.065
0.065
-0.01
0.005
0.06
0.095
0.01
-0.015
-0.07
0.03
0.015
0.015
0.025
0.005
0.025
0.04
0.07
0.015
0.01
0.035
0.01
0.08
0.055
-0.03
-0.02
0.025
0.055
-0.02
0.045
0.065
0.025
0.065
0.1
0.065
0.08
-0.02
0.07
0.1
0.055
0.075
0.07
0.05
0.075
0.12
0.135
0.095
0.05
0.085
0.075
0.105
0.13
0.125
0.09
0.06
0.065
0.1
0.155
0.14
0.125
0.13
0.12
0.09
0.11
0.15
0.125
0.115
0.1
0.19
0.18
0.18
0.18
0.16
0.195
0.2
0.185
0.1
0.21
0.265
0.27
0.265
0.21
0.235
0.265
0.27
0.3
0.235
0.2
0.255
0.325
0.32
0.335
0.35
0.34
0.33
0.34
0.3
0.335
0.285
0.37
0.43
0.345
0.3
0.345
0.37
0.335
0.32
0.37
0.37
0.3
0.325
0.31
0.28
0.23
0.22
0.26
0.22
0.275
0.265
0.23
0.18
0.16
0.175
0.16
0.115
0.15
0.11
0.085
0.145
0.13
0.1
0.075
-0.02
0.04
0.07
0.095
0.105
0.015
-0.01
0.03
0.04
0.015
-0.02
0.045
0.13
0.06
0.065
0.045
-0.02
-0.01
-0.04
0.02
0.01
0.065
0.07
0.03
0.025
0.04
0.055
0.085
-0.045
-0.085
-0.015
0.025
0.045
0.05
0.055
0.05
0.08
0.015
0.02
0.01
0.015
0.055
0.045
0.01
-0.04
-0.025
0.0
0.075
0.095
0.09
0.065
0.05
-0.015
-0.065
-0.015
0.06
0.1
0.05
0.03
0.06
-0.01
-0.03
0.065
0.065
0.06
0.02
0.045
0.045
0.095
0.055
0.005
-0.055
-0.01
0.055
0.04
-0.01
0.005
0.015
0.01
0.025
0.03
0.015
0.03
0.035
0.01
0.01
0.07
0.01
0.02
0.05
-0.04
0.01
0.115
0.05
-0.015
-0.045
0.0
0.035
-0.005
0.0
0.06
0.025
0.005
0.005
0.01
-0.045
-0.025
-0.005
0.13
0.02
-0.02
0.05
0.085
0.07
0.055
0.045
0.04
0.07
0.045
0.16
0.095
0.015
-0.025
-0.01
-0.005
0.085
0.11
0.105
0.165
0.165
0.095
0.05
0.035
0.055
0.06
0.075
0.025
-0.02
0.045
0.01
0.01
0.02
-0.065
0.04
0.04
0.065
0.05
0.045
-0.03
0.035
0.005
0.01
-0.005
0.025
-0.065
-0.04
0.0
-0.02
0.085
-0.055
0.005
0.0
-0.06
-0.055
-0.015
0.0
-0.06
-0.015
0.01
-0.01
0.005
0.0
0.005
0.0
-0.015
-0.02
-0.04
0.01
0.04
0.01
0.015
-0.02
-0.02
-0.045
-0.055
0.045
0.13
0.04
0.035
-0.06
-0.005
0.01
0.035
0.08
0.12
0.2
0.305
0.45
0.48
0.595
0.715
0.725
0.72
0.57
0.555
0.57
0.43
0.365
0.13
0.025
-0.055
-0.03
-0.025
-0.07
-0.03
-0.085
-0.04
-0.005
0.05
0.025
0.065
0.085
0.155
0.07
0.065
0.02
-0.005
0.06
0.035
0.05
0.07
0.11
0.085
0.045
-0.02
-0.01
0.045
0.06
0.005
-0.005
0.085
0.05
0.105
0.1
0.095
0.05
-0.005
0.045
0.12
0.11
0.08
0.09
0.085
0.125
0.1
0.095
0.07
0.04
0.07
0.04
0.07
0.09
0.055
0.07
0.1
0.1
0.09
0.12
0.08
0.07
0.08
0.2
0.125
0.105
0.105
0.09
0.09
0.095
0.11
0.11
0.17
0.145
0.135
0.19
0.21
0.165
0.11
0.13
0.125
0.16
0.16
0.195
0.22
0.24
0.22
0.245
0.275
0.175
0.215
0.26
0.245
0.255
0.3
0.325
0.265
0.27
0.295
0.305
0.32
0.32
0.32
0.33
0.32
0.315
0.365
0.335
0.445
0.33
0.395
0.385
0.36
0.31
0.32
0.315
0.28
0.255
0.31
0.42
0.445
0.425
0.295
0.31
0.32
0.235
0.25
0.26
0.295
0.285
0.205
0.2
0.22
0.18
0.165
0.18
0.125
0.03
0.05
0.055
0.105
0.11
0.1
0.09
0.1
0.065
0.015
0.01
0.02
0.025
0.08
0.0
0.035
0.025
0.02
-0.025
0.03
0.015
0.02
0.0
0.01
0.01
0.04
0.025
0.005
0.05
0.04
0.0
-0.025
0.01
0.035
0.0
0.0
0.01
0.035
