# TIPE ECG 2021 - ECG-ID Database v1.0.0 par Physionet
# [N° de la personne, N° de l'enregistrement, Période d'échantillonnage, Prénom, Age, Sexe, Date de l'enregistrement]
[20, 2, 0.002, "Claire", 21, "F", "26.04.2005"]
0.275
0.385
0.31
0.185
-0.015
0.135
-0.025
-0.04
0.1
0.12
0.2
0.33
0.255
0.14
0.16
0.08
0.03
-0.08
0.01
0.105
0.205
0.435
0.355
0.315
0.185
0.17
0.01
0.135
0.265
0.415
0.445
0.52
0.525
0.375
0.255
0.115
-0.045
-0.1
0.055
0.11
0.175
0.17
0.04
0.065
0.01
-0.075
-0.155
0.04
0.05
-0.015
0.21
0.285
0.28
0.235
0.19
0.07
-0.045
0.045
0.06
0.175
0.255
0.295
0.35
0.235
0.075
0.13
-0.025
-0.065
-0.06
0.19
0.45
0.44
0.305
0.21
0.265
-0.005
-0.08
0.13
0.015
0.155
0.335
0.31
0.295
0.25
0.235
0.145
0.055
0.0
0.145
0.23
0.365
0.335
0.14
0.1
0.12
0.03
0.01
0.065
0.14
0.26
0.395
0.45
0.385
0.355
0.24
0.035
0.1
0.285
0.22
0.325
0.42
0.43
0.35
0.33
0.26
0.14
0.065
0.195
0.285
0.4
0.605
0.355
0.33
0.455
0.445
0.33
0.295
0.285
0.29
0.45
0.595
0.525
0.525
0.46
0.35
0.18
0.215
0.315
0.445
0.295
0.505
0.51
0.405
0.395
0.29
0.12
0.055
0.1
0.255
0.3
0.465
0.4
0.445
0.2
0.175
0.025
0.05
0.205
0.195
0.23
0.37
0.395
0.3
0.275
0.035
-0.075
0.12
0.13
0.215
0.225
0.385
0.235
0.37
0.315
0.1
0.01
0.16
0.175
0.225
0.2
0.335
0.35
0.295
0.215
0.155
0.015
-0.015
0.1
0.335
0.075
0.31
0.385
0.305
0.2
0.105
0.04
0.02
0.16
0.205
0.3
0.385
0.375
0.285
0.315
0.205
0.055
0.045
0.14
0.3
0.335
0.385
0.365
0.225
0.24
0.135
0.08
0.05
0.1
0.235
0.33
0.445
0.33
0.26
0.165
0.15
0.165
0.125
0.12
0.295
0.365
0.465
0.425
0.305
0.14
0.2
0.065
0.055
0.215
0.215
0.275
0.455
0.42
0.285
0.205
0.14
0.105
0.12
0.145
0.205
0.43
0.28
0.2
0.315
0.265
0.095
0.06
0.175
0.19
0.17
0.345
0.315
0.385
0.24
0.1
0.18
0.005
-0.015
0.19
0.295
0.37
0.36
0.38
0.33
0.235
0.16
0.07
0.125
0.2
0.4
0.45
0.59
0.675
0.525
0.3
0.075
0.095
0.06
0.08
0.14
0.33
0.27
0.225
0.115
-0.05
-0.105
-0.08
-0.055
0.085
0.225
0.28
0.425
0.365
0.275
0.15
0.075
-0.07
0.115
0.12
0.295
0.475
0.4
0.415
0.145
0.235
0.1
0.09
0.11
0.19
0.24
0.36
0.42
0.36
0.11
0.4
0.285
0.055
0.075
0.235
0.19
0.44
0.4
0.39
0.26
0.25
0.11
0.115
0.145
0.235
0.355
0.435
0.475
0.41
0.315
0.265
0.09
0.06
0.135
0.305
0.295
0.455
0.39
0.31
0.385
0.19
0.16
0.23
0.275
0.29
0.44
0.565
0.485
0.485
0.25
0.17
0.1
0.12
0.345
0.475
0.585
0.665
0.505
0.51
0.435
0.305
0.33
0.3
0.445
0.49
0.57
0.675
0.67
0.505
0.485
0.385
0.28
0.225
0.47
0.465
0.63
0.71
0.565
0.525
0.31
0.305
0.205
0.17
0.28
0.42
0.52
0.545
0.425
0.25
0.37
0.2
0.155
0.105
0.2
0.325
0.32
0.365
0.45
0.35
0.155
0.09
0.235
0.115
0.235
0.36
0.35
0.455
0.435
0.37
0.35
0.07
0.045
0.055
0.35
0.34
0.46
0.465
0.455
0.325
0.115
0.085
0.16
0.16
0.295
0.24
0.475
0.39
0.44
0.29
0.305
0.14
0.185
-0.01
0.295
0.235
0.42
0.38
0.425
0.405
0.31
0.15
0.125
0.15
0.215
0.345
0.41
0.465
0.345
0.3
0.26
0.085
0.11
0.17
0.265
0.36
0.43
0.485
0.405
0.31
0.27
0.12
0.04
0.14
0.275
0.265
0.485
0.53
0.475
0.195
0.31
0.25
0.155
0.23
0.315
0.345
0.41
0.47
0.535
0.38
0.03
0.115
0.175
0.245
0.23
0.34
0.465
0.48
0.385
0.275
0.275
0.005
0.065
0.21
0.2
0.38
0.51
0.48
0.355
0.205
0.06
0.06
0.18
0.22
0.25
0.34
0.61
0.495
0.34
0.255
0.17
0.115
0.135
0.2
0.3
0.4
0.465
0.455
0.45
0.425
0.195
0.095
0.55
0.36
0.265
0.525
0.505
0.395
0.215
0.25
0.17
-0.07
-0.04
0.06
0.235
0.355
0.29
0.29
0.305
0.195
0.14
0.07
0.16
0.26
0.265
0.405
0.495
0.43
0.275
0.28
0.155
0.105
0.175
0.285
0.3
0.475
0.45
0.395
0.355
0.245
0.085
0.13
0.085
0.205
0.275
0.53
0.55
0.45
0.325
0.25
0.12
0.25
0.175
0.245
0.37
0.515
0.335
0.415
0.405
0.32
0.225
0.165
0.205
0.09
0.21
0.52
0.48
0.515
0.45
0.355
0.24
0.225
0.215
0.295
0.305
0.5
0.5
0.455
0.415
0.43
0.21
0.165
0.17
0.365
0.42
0.635
0.6
0.585
0.505
0.39
0.265
0.305
0.345
0.48
0.495
0.52
0.465
0.63
0.55
0.61
0.4
0.465
0.435
0.495
0.495
0.64
0.72
0.65
0.495
0.445
0.345
0.35
0.355
0.455
0.495
0.525
0.525
0.485
0.355
0.375
0.215
0.145
0.22
0.36
0.425
0.525
0.49
0.34
0.305
0.05
0.105
0.195
0.3
0.345
0.37
0.51
0.535
0.455
0.33
0.195
0.22
0.145
0.335
0.24
0.33
0.525
0.465
0.425
0.3
0.145
0.095
-0.025
0.205
0.38
0.5
0.49
0.545
0.405
0.22
0.24
0.155
0.255
0.235
0.305
0.365
0.515
0.475
0.37
0.35
0.175
0.2
0.17
0.16
0.365
0.335
0.31
0.45
0.315
0.305
0.215
0.19
0.145
0.215
0.33
0.41
0.47
0.525
0.415
0.335
0.145
0.13
0.155
0.31
0.35
0.42
0.445
0.46
0.345
0.3
0.21
0.165
0.16
0.255
0.24
0.39
0.395
0.56
0.335
0.165
0.165
0.325
0.275
0.33
0.34
0.525
0.495
0.515
0.36
0.26
0.155
0.16
0.15
0.285
0.365
0.45
0.5
0.435
0.27
0.285
0.155
0.09
0.165
0.31
0.31
0.355
0.44
0.385
0.25
0.28
0.14
0.085
0.135
0.37
0.345
0.58
0.575
0.38
0.16
0.285
0.155
0.18
0.27
0.43
0.5
0.675
0.705
0.47
0.38
0.35
0.105
0.165
0.105
0.205
0.26
0.385
0.3
0.28
0.195
0.12
-0.03
0.005
0.115
0.255
0.31
0.36
0.47
0.445
0.38
0.23
0.09
0.005
0.185
0.37
0.44
0.535
0.435
0.345
0.195
0.375
0.19
0.195
0.26
0.355
0.34
0.485
0.525
0.365
0.285
0.125
0.2
0.215
0.195
0.3
0.44
0.54
0.34
0.415
0.305
0.23
0.105
0.15
0.185
0.38
0.355
0.45
0.405
0.37
0.35
0.165
0.235
0.22
0.3
0.385
0.455
0.6
0.55
0.48
0.33
0.21
0.15
0.315
0.31
0.295
0.565
0.63
0.515
0.33
0.295
0.275
0.245
0.395
0.475
0.515
0.545
0.635
0.58
0.47
0.475
0.385
0.295
0.39
0.485
0.48
0.575
0.575
0.645
0.545
0.54
0.35
0.38
0.35
0.425
0.37
0.78
0.73
0.565
0.49
0.405
0.2
0.235
0.265
0.385
0.38
0.425
0.47
0.445
0.425
0.375
0.145
0.15
0.295
0.3
0.365
0.455
0.445
0.365
0.315
0.21
0.075
0.175
0.215
0.255
0.355
0.42
0.44
0.44
0.29
0.235
0.11
-0.005
0.05
0.195
0.34
0.555
0.595
0.44
0.305
0.225
0.075
0.16
0.165
0.29
0.305
0.34
0.33
0.48
0.37
0.25
0.18
0.1
0.27
0.305
0.38
0.445
0.535
0.375
0.25
0.095
-0.095
-0.045
0.13
0.225
0.535
0.59
0.52
0.425
0.26
0.355
0.07
0.1
0.17
0.295
0.39
0.37
0.495
0.425
0.26
0.225
0.12
0.11
0.185
0.33
0.395
0.56
0.505
0.305
0.255
0.185
0.1
0.025
-0.155
0.24
0.645
0.595
0.45
0.375
0.245
0.2
0.13
0.155
0.265
0.335
0.435
0.5
0.47
0.37
0.305
0.165
0.095
0.155
0.215
0.305
0.325
0.465
0.37
0.265
0.17
-0.07
0.035
0.19
0.22
0.15
0.405
0.495
0.435
0.38
0.245
0.075
0.225
0.185
0.28
0.345
0.54
0.52
0.355
0.37
0.455
0.215
0.185
0.285
0.41
0.33
0.42
0.465
0.45
0.21
0.16
-0.085
-0.09
-0.13
0.065
0.15
0.255
0.355
0.34
0.295
0.285
0.095
0.01
0.085
0.18
0.245
0.415
0.515
0.45
0.28
0.275
0.125
0.16
0.18
0.27
0.29
0.375
0.45
0.38
0.195
0.315
0.055
0.11
0.11
0.21
0.3
0.515
0.46
0.27
0.235
0.31
0.19
0.14
0.175
0.285
0.31
0.445
0.495
0.335
0.32
0.18
0.025
0.09
0.15
0.345
0.41
0.51
0.5
0.31
0.285
0.4
0.115
0.165
0.265
0.355
0.385
0.505
0.505
0.435
0.285
0.31
0.165
0.235
0.34
0.31
0.41
0.565
0.61
0.505
0.325
0.355
0.275
0.225
0.345
0.505
0.545
0.625
0.615
0.56
0.49
0.415
0.255
0.33
0.42
0.535
0.565
0.625
0.605
0.48
0.315
0.415
0.19
0.275
0.36
0.52
0.51
0.575
0.57
0.445
0.29
0.185
0.115
0.11
0.335
0.305
0.415
0.455
0.49
0.36
0.25
0.16
0.11
0.08
0.165
0.445
0.435
0.46
0.235
0.335
0.27
0.145
0.16
0.165
0.18
0.295
0.425
0.445
0.49
0.345
0.195
0.065
0.105
0.05
0.21
0.355
0.46
0.405
0.45
0.295
0.185
0.075
0.075
0.145
0.3
0.33
0.38
0.485
0.405
0.205
0.115
0.035
0.11
0.08
0.3
0.375
0.315
0.52
0.535
0.265
0.265
0.05
0.08
0.22
0.21
0.215
0.5
0.51
0.36
0.345
0.31
0.095
0.105
0.16
0.215
0.31
0.405
0.4
0.395
0.315
0.305
0.105
0.105
0.23
0.33
0.3
0.35
0.3
0.385
0.29
0.355
0.135
0.095
0.23
0.285
0.295
0.51
0.51
0.36
0.375
0.265
0.12
0.07
0.175
0.29
0.245
0.45
0.435
0.38
0.275
0.23
0.105
0.02
0.08
0.24
0.385
0.485
0.425
0.21
0.18
0.14
-0.05
0.05
0.175
0.295
0.355
0.475
0.445
0.35
0.415
0.335
0.05
0.09
0.19
0.29
0.565
0.685
0.715
0.39
0.305
0.095
0.12
0.14
0.135
0.115
0.235
0.275
0.205
0.125
0.155
0.03
0.065
0.015
0.19
0.27
0.355
0.44
0.315
0.25
0.18
0.1
0.085
0.23
0.28
0.305
0.4
0.43
0.385
0.27
0.31
0.09
0.05
0.235
0.3
0.275
0.355
0.37
0.385
0.255
0.305
0.09
0.175
0.21
0.235
0.33
0.44
0.455
0.39
0.435
0.24
0.14
0.085
0.065
0.18
0.29
0.605
0.525
0.475
0.315
0.29
0.15
0.185
0.285
0.225
0.305
0.425
0.48
0.48
0.335
0.34
0.125
0.16
0.145
0.395
0.34
0.445
0.485
0.52
0.325
0.43
0.325
0.18
0.355
0.445
0.465
0.62
0.635
0.54
0.5
0.35
0.21
0.33
0.48
0.52
0.49
0.68
0.645
0.59
0.565
0.42
0.37
0.345
0.365
0.445
0.445
0.585
0.57
0.525
0.435
0.38
0.185
0.27
0.345
0.39
0.33
0.49
0.475
0.395
0.3
0.185
0.18
0.19
0.185
0.28
0.325
0.405
0.48
0.365
0.325
0.15
0.105
0.1
0.215
0.335
0.32
0.47
0.39
0.35
0.275
0.195
0.155
0.0
0.125
0.2
0.375
0.405
0.4
0.415
0.205
0.115
-0.02
0.025
0.135
0.3
0.47
0.535
0.42
0.3
0.255
0.115
0.05
0.155
0.285
0.345
0.495
0.43
0.385
0.33
0.255
0.21
0.18
0.16
0.26
0.25
0.4
0.485
0.39
0.315
0.15
0.145
0.09
0.095
0.11
0.38
0.365
0.425
0.31
0.385
0.23
0.1
0.03
0.085
0.315
0.33
0.44
0.52
0.505
0.395
0.25
0.19
0.165
0.19
0.26
0.34
0.425
0.46
0.385
0.305
0.21
0.09
0.245
0.175
0.22
0.3
0.515
0.34
0.225
0.19
0.26
0.13
0.02
0.09
0.235
0.26
0.475
0.13
0.335
0.39
0.24
0.025
0.105
0.21
0.195
0.35
0.51
0.48
0.335
0.29
0.31
0.14
0.05
0.155
0.285
0.345
0.515
0.675
0.65
0.45
0.315
0.16
0.155
0.135
0.2
0.32
0.29
0.275
0.155
0.075
0.035
0.015
0.01
-0.025
0.095
0.23
0.42
0.33
0.2
0.295
0.16
0.055
0.15
0.28
0.325
0.245
0.43
0.42
0.355
0.22
0.25
0.095
0.14
0.185
0.27
0.295
0.39
0.39
0.29
0.2
0.14
0.065
0.16
0.195
0.22
0.385
0.4
0.465
0.24
0.15
0.13
0.105
0.135
0.31
0.27
0.265
0.51
0.525
0.38
0.305
0.14
0.115
0.13
0.28
0.265
0.475
0.375
0.48
0.34
0.295
0.21
0.205
0.17
0.265
0.425
0.415
0.445
0.46
0.485
0.335
0.19
0.215
0.25
0.265
0.355
0.51
0.385
0.43
0.37
0.45
0.38
0.59
0.315
0.32
0.465
0.7
0.65
0.635
0.56
0.56
0.41
0.335
0.31
0.375
0.475
0.645
0.655
0.555
0.465
0.335
0.195
0.21
0.29
0.235
0.37
0.475
0.455
0.46
0.29
0.23
0.095
0.105
0.175
0.22
0.31
0.405
0.45
0.37
0.275
0.17
-0.02
-0.025
0.115
0.265
0.285
0.425
0.405
0.305
0.2
0.34
0.115
0.15
0.125
0.145
0.32
0.48
0.42
0.285
0.155
0.185
0.105
0.09
0.125
0.245
0.2
0.405
0.405
0.39
0.22
0.175
0.1
0.01
0.255
0.23
0.21
0.385
0.41
0.34
0.26
0.24
0.055
0.095
0.055
0.125
0.18
0.43
0.425
0.27
0.375
0.21
0.035
0.185
0.175
0.265
0.38
0.425
0.445
0.34
0.23
0.195
0.13
0.18
0.17
0.245
0.265
0.5
0.42
0.32
0.0
0.255
0.21
0.18
0.155
0.29
0.285
0.445
0.48
0.32
0.23
0.18
0.02
0.04
0.14
0.11
0.305
0.49
0.28
0.195
0.22
0.195
0.095
0.015
0.085
0.205
0.31
0.48
0.42
0.245
0.205
0.07
0.03
0.145
0.26
0.36
0.39
0.375
0.34
0.35
0.235
0.155
0.195
0.255
0.32
0.395
0.315
0.35
0.45
0.26
0.18
0.015
-0.03
0.04
-0.065
0.02
0.19
0.25
0.3
0.06
0.155
0.01
-0.055
0.05
0.19
0.26
0.33
0.355
0.315
0.27
0.155
-0.045
0.03
0.165
0.285
0.335
0.36
0.51
0.295
0.295
0.22
0.07
0.06
0.1
0.165
0.23
0.425
0.415
0.34
0.33
0.21
0.07
0.035
0.07
0.245
0.18
0.4
0.37
0.295
0.165
0.205
0.09
0.145
0.195
0.245
0.225
0.4
0.375
0.455
0.26
0.21
-0.03
0.095
0.15
0.15
0.185
0.345
0.39
0.25
0.095
0.25
0.23
0.135
0.085
0.185
0.43
0.565
0.59
0.495
0.35
0.345
0.24
0.22
0.33
0.37
0.48
0.535
0.56
0.53
0.335
0.46
0.245
0.21
0.295
0.475
0.59
0.62
0.6
0.45
0.335
0.245
0.245
0.235
0.26
0.28
0.37
0.49
0.535
0.38
0.19
0.12
0.03
0.045
0.23
0.285
0.24
0.32
0.325
0.28
0.24
0.2
0.025
0.015
0.16
0.265
0.335
0.345
0.315
0.25
0.17
0.03
0.01
0.11
0.085
0.17
0.325
0.415
0.37
0.16
0.12
0.065
0.04
0.04
0.075
0.25
0.355
0.29
0.335
0.26
0.185
0.005
-0.075
0.02
0.12
0.19
0.32
0.355
0.38
0.29
0.24
-0.025
-0.035
0.085
0.19
0.275
0.315
0.275
0.355
0.265
0.135
0.025
-0.015
0.09
0.17
0.2
0.4
0.38
0.295
0.22
0.105
0.025
0.085
0.11
0.175
0.235
0.315
0.335
0.3
0.26
0.08
-0.045
0.005
0.08
0.145
0.375
0.44
0.35
0.45
0.245
0.29
-0.07
-0.04
0.055
0.14
0.195
0.365
0.335
0.28
0.165
0.06
-0.115
0.1
0.14
0.075
0.185
0.35
0.39
0.225
0.115
0.11
-0.075
-0.03
0.085
0.145
0.24
0.36
0.31
0.27
0.215
0.115
-0.11
-0.145
0.065
0.245
0.315
0.52
0.56
0.435
0.215
0.195
0.08
0.07
0.05
0.15
0.13
0.23
0.06
-0.02
-0.02
-0.07
-0.12
-0.11
-0.07
0.105
0.175
0.245
0.335
0.215
0.21
0.025
-0.03
-0.015
0.07
0.1
0.275
0.26
0.325
0.155
0.085
-0.01
-0.045
0.04
0.04
0.17
0.175
0.285
0.255
0.135
0.24
0.06
-0.015
0.095
0.13
0.095
0.175
0.34
0.3
0.21
0.155
-0.04
-0.05
0.045
0.1
0.08
0.305
0.39
0.25
0.155
0.13
0.0
-0.04
0.025
0.195
0.155
0.22
0.285
0.33
0.165
0.265
0.0
0.025
0.065
0.16
0.15
0.335
0.355
0.25
0.35
0.215
0.13
0.17
0.185
0.255
0.32
0.44
0.43
0.45
0.315
0.27
0.19
0.125
0.25
0.435
0.345
0.42
0.425
0.405
0.36
0.245
0.15
0.14
0.07
0.165
0.24
0.42
0.425
0.36
0.28
0.175
0.025
0.01
-0.05
0.13
0.23
0.265
0.24
0.215
0.29
0.16
-0.015
0.04
0.125
0.14
0.1
0.315
0.285
0.225
0.125
0.085
-0.06
-0.07
-0.01
0.075
0.14
0.15
0.22
0.135
0.0
0.08
-0.06
-0.025
0.035
0.065
0.19
0.335
0.255
0.17
0.13
-0.01
-0.055
-0.065
0.01
0.06
0.16
0.27
0.27
0.185
0.095
0.01
-0.03
-0.055
-0.055
0.03
0.04
0.16
0.115
0.235
0.09
0.015
-0.125
0.01
0.06
0.105
0.18
0.28
0.195
0.185
0.11
0.035
-0.07
-0.04
0.035
0.075
0.215
0.27
0.19
0.16
0.11
-0.01
-0.065
0.04
0.13
0.195
0.225
0.25
0.29
0.27
0.095
-0.005
-0.12
-0.055
-0.11
-0.175
0.155
0.295
0.15
-0.02
0.085
-0.04
-0.145
-0.2
0.055
0.09
0.275
0.295
0.235
0.11
0.035
-0.155
-0.1
-0.07
0.065
0.06
0.16
0.205
0.18
0.135
0.095
-0.135
-0.1
-0.07
0.11
0.095
0.18
0.135
0.18
0.155
0.22
0.015
-0.005
0.04
0.13
0.15
0.235
0.22
0.22
-0.01
-0.075
-0.215
-0.33
-0.305
-0.165
-0.1
0.03
0.115
0.055
0.02
-0.01
-0.21
-0.17
-0.1
-0.02
0.03
0.195
0.225
0.175
-0.015
0.015
-0.205
-0.23
-0.105
0.015
0.2
0.01
0.175
-0.005
0.06
-0.04
-0.2
-0.22
-0.2
-0.05
0.03
0.16
0.265
0.19
0.05
0.025
-0.135
-0.115
-0.1
-0.04
-0.025
0.115
0.17
0.02
0.06
-0.075
-0.185
-0.21
-0.015
0.055
-0.08
0.1
0.235
0.19
0.08
-0.06
-0.205
-0.15
-0.015
0.07
0.14
0.295
0.3
0.125
0.1
0.04
-0.11
-0.11
-0.035
0.055
0.1
0.265
0.165
0.2
0.16
-0.045
-0.035
0.025
0.11
0.125
0.205
0.35
0.205
0.035
0.085
0.035
0.085
0.095
0.14
0.205
0.38
0.415
0.255
0.255
0.11
0.02
-0.08
-0.075
0.115
0.085
0.22
0.14
0.275
0.125
-0.045
-0.09
-0.185
-0.12
-0.06
-0.07
0.07
0.14
0.165
-0.06
-0.125
-0.12
-0.22
-0.22
-0.06
-0.175
0.12
0.18
0.105
-0.035
-0.105
-0.205
-0.235
-0.235
-0.14
0.015
0.055
0.08
0.075
-0.03
-0.115
-0.235
-0.21
-0.145
-0.13
-0.04
0.085
0.075
0.185
-0.02
-0.16
-0.27
-0.275
-0.115
-0.135
-0.11
0.005
0.02
-0.1
-0.015
-0.085
-0.305
-0.23
-0.25
-0.15
-0.115
0.075
0.155
0.08
-0.04
-0.075
-0.27
-0.265
-0.17
0.005
0.015
0.095
0.075
0.04
-0.055
-0.095
-0.155
-0.28
-0.22
-0.17
-0.065
0.005
-0.015
-0.05
-0.045
-0.165
-0.17
-0.195
-0.14
-0.05
-0.025
0.075
0.135
0.055
-0.075
-0.17
-0.2
-0.245
-0.24
-0.175
-0.065
0.055
0.025
-0.035
-0.15
-0.225
-0.31
-0.27
-0.235
-0.17
-0.09
0.0
-0.06
-0.185
-0.295
-0.09
-0.34
-0.39
-0.155
-0.085
0.0
0.085
0.05
-0.03
-0.145
-0.195
-0.23
-0.23
-0.14
0.095
0.09
0.215
0.205
0.035
-0.1
-0.15
-0.265
-0.25
-0.16
-0.21
-0.215
-0.245
-0.23
-0.305
-0.31
-0.425
-0.465
-0.45
-0.18
-0.04
-0.1
-0.04
-0.015
-0.095
-0.2
-0.315
-0.28
-0.41
-0.245
-0.125
-0.06
-0.035
-0.04
-0.135
-0.265
-0.46
-0.335
-0.355
-0.33
-0.105
0.04
-0.06
-0.125
-0.225
-0.305
-0.44
-0.25
-0.18
-0.27
-0.185
0.015
-0.04
-0.125
-0.115
-0.135
-0.285
-0.345
-0.345
-0.21
-0.245
0.015
0.015
-0.095
-0.17
-0.205
-0.405
-0.425
-0.33
-0.135
-0.095
0.035
-0.025
-0.165
-0.115
-0.165
-0.285
-0.39
-0.335
-0.27
-0.19
-0.125
-0.025
0.03
-0.125
-0.12
-0.325
-0.4
-0.2
0.02
-0.11
0.065
0.11
0.08
-0.075
-0.07
-0.23
-0.205
-0.13
-0.045
0.0
0.125
0.11
0.11
-0.085
-0.12
-0.255
-0.21
-0.145
-0.06
-0.02
0.1
0.08
-0.07
-0.115
-0.215
-0.255
-0.295
-0.23
-0.235
-0.12
-0.06
-0.17
-0.13
-0.395
-0.465
-0.385
-0.33
-0.335
-0.215
-0.13
-0.01
-0.125
-0.18
-0.245
-0.45
-0.515
-0.46
-0.34
-0.265
-0.15
-0.08
-0.07
-0.235
-0.27
-0.28
-0.42
-0.4
-0.345
-0.375
-0.155
-0.18
-0.17
-0.13
-0.15
-0.38
-0.455
-0.41
-0.31
-0.31
-0.155
-0.04
-0.125
-0.32
-0.37
-0.435
-0.405
-0.425
-0.44
-0.205
-0.12
-0.09
-0.09
-0.19
-0.33
-0.405
-0.4
-0.405
-0.275
-0.31
-0.215
-0.06
-0.165
-0.3
-0.285
-0.475
-0.545
-0.54
-0.345
-0.16
-0.165
-0.175
-0.01
-0.16
-0.275
-0.4
-0.49
-0.475
-0.43
-0.17
-0.07
-0.16
-0.15
-0.195
-0.255
-0.44
-0.46
-0.38
-0.235
-0.225
-0.175
-0.015
-0.115
-0.19
-0.235
-0.35
-0.415
-0.375
-0.355
-0.32
-0.175
-0.17
-0.39
-0.265
-0.325
-0.515
-0.53
-0.47
-0.385
-0.29
-0.035
-0.175
-0.19
-0.285
-0.31
-0.47
-0.475
-0.35
-0.31
-0.25
-0.18
-0.065
-0.155
-0.28
-0.305
-0.465
-0.45
-0.475
-0.255
-0.225
-0.09
-0.085
-0.055
-0.165
-0.14
-0.435
-0.56
-0.305
-0.315
-0.215
-0.23
-0.19
-0.225
-0.5
-0.39
-0.54
-0.495
-0.46
-0.34
-0.3
-0.12
-0.195
-0.15
-0.42
-0.455
-0.39
-0.44
-0.355
-0.3
-0.275
-0.08
-0.13
-0.17
-0.33
-0.395
-0.47
-0.385
-0.31
-0.3
-0.11
-0.2
-0.2
-0.225
-0.245
-0.395
-0.45
-0.35
-0.4
-0.28
-0.14
-0.125
-0.215
-0.355
-0.425
-0.335
-0.545
-0.48
-0.35
-0.34
-0.18
-0.125
-0.195
-0.275
-0.275
-0.41
-0.425
-0.495
-0.345
-0.295
-0.205
-0.005
-0.125
-0.255
-0.355
-0.32
-0.43
-0.41
-0.285
-0.33
-0.085
0.035
-0.21
-0.265
-0.24
-0.365
-0.455
-0.415
-0.285
-0.16
-0.095
-0.06
-0.045
0.03
-0.215
-0.365
-0.255
-0.285
-0.22
-0.16
0.105
0.06
0.01
-0.19
-0.17
-0.225
-0.31
-0.195
-0.19
-0.135
0.085
-0.025
-0.05
-0.115
-0.095
-0.31
-0.34
-0.18
-0.17
-0.155
-0.015
-0.065
-0.065
-0.175
-0.38
-0.45
-0.495
-0.515
-0.26
-0.245
-0.08
-0.065
-0.23
-0.315
-0.315
-0.39
-0.53
-0.59
-0.21
-0.26
0.01
-0.085
-0.28
-0.295
-0.31
-0.415
-0.53
-0.52
-0.365
-0.24
-0.15
-0.105
-0.16
-0.255
-0.37
-0.52
-0.47
-0.335
-0.28
-0.225
-0.18
-0.235
-0.19
-0.25
-0.325
-0.505
-0.615
-0.29
-0.34
-0.26
-0.055
-0.155
-0.205
-0.255
-0.385
-0.475
-0.415
-0.39
-0.355
-0.38
-0.11
-0.235
-0.18
-0.15
-0.185
-0.425
-0.435
-0.415
-0.345
-0.27
-0.09
-0.135
-0.185
-0.38
-0.34
-0.435
-0.435
-0.295
-0.395
-0.255
-0.125
-0.185
-0.25
-0.18
-0.275
-0.515
-0.45
-0.33
-0.33
-0.12
-0.125
-0.175
-0.05
-0.19
-0.355
-0.395
-0.36
-0.335
-0.315
-0.23
-0.11
-0.165
-0.22
-0.215
-0.425
-0.375
-0.38
-0.425
-0.26
-0.14
-0.025
-0.115
-0.1
-0.335
-0.415
-0.505
-0.44
-0.405
-0.26
-0.06
-0.135
-0.185
-0.225
-0.32
-0.475
-0.375
-0.345
-0.345
-0.31
-0.185
0.045
-0.16
-0.33
-0.33
-0.485
-0.405
-0.425
-0.35
-0.385
-0.11
-0.21
-0.07
-0.09
-0.28
-0.38
-0.375
-0.215
-0.275
-0.165
0.055
0.13
0.035
-0.3
-0.34
-0.45
-0.41
-0.325
-0.29
-0.26
-0.145
-0.215
-0.31
-0.435
-0.395
-0.48
-0.49
-0.4
-0.39
-0.305
-0.135
-0.17
-0.115
-0.225
-0.345
-0.44
-0.495
-0.455
-0.46
-0.135
-0.185
-0.165
-0.11
-0.18
-0.255
-0.355
-0.415
-0.41
-0.29
-0.2
-0.105
-0.1
-0.245
-0.295
-0.18
-0.42
-0.375
-0.455
-0.2
-0.08
-0.09
-0.08
-0.1
-0.19
-0.31
-0.395
-0.34
-0.325
-0.295
-0.225
-0.04
-0.075
-0.35
-0.23
-0.4
-0.39
-0.265
-0.285
-0.23
-0.1
-0.045
-0.1
-0.125
-0.205
-0.215
-0.39
-0.32
-0.215
-0.16
-0.085
-0.035
0.06
-0.11
-0.085
-0.205
-0.33
-0.315
-0.165
-0.06
-0.095
0.14
0.03
-0.01
-0.145
-0.09
-0.215
-0.175
-0.06
-0.035
0.075
0.26
0.175
0.02
-0.045
-0.18
-0.195
-0.215
-0.22
-0.135
0.005
0.275
0.0
0.005
-0.06
-0.135
-0.255
-0.32
-0.205
-0.07
0.015
0.025
-0.035
-0.065
-0.235
-0.5
-0.305
-0.315
-0.225
-0.12
0.005
-0.075
-0.1
-0.17
-0.195
-0.41
-0.315
-0.305
-0.235
-0.27
-0.035
-0.055
-0.125
-0.17
-0.23
-0.36
-0.405
-0.375
-0.245
-0.25
-0.065
0.04
-0.14
-0.09
-0.275
-0.45
-0.445
-0.435
-0.175
-0.13
0.015
-0.01
-0.02
-0.12
-0.175
-0.255
-0.34
-0.34
-0.25
-0.285
-0.03
-0.015
0.035
-0.19
-0.24
-0.385
-0.38
-0.315
-0.14
-0.185
-0.045
-0.07
-0.135
-0.17
-0.2
-0.33
-0.285
-0.305
-0.13
-0.06
-0.1
0.0
-0.085
-0.16
-0.17
-0.385
-0.355
-0.295
-0.14
-0.135
0.005
-0.11
-0.065
-0.145
-0.27
-0.32
-0.295
-0.235
-0.205
-0.12
-0.09
-0.065
-0.085
-0.165
-0.275
-0.355
-0.255
-0.195
-0.11
-0.04
-0.025
-0.1
-0.055
-0.12
-0.27
-0.38
-0.325
-0.19
-0.1
-0.12
0.07
0.005
-0.115
-0.205
-0.275
-0.39
-0.295
-0.19
-0.115
-0.14
0.06
-0.07
-0.135
-0.135
-0.105
-0.295
-0.295
-0.23
-0.08
0.04
0.05
-0.085
-0.08
-0.175
-0.315
-0.25
-0.26
-0.195
-0.165
-0.06
0.05
0.09
-0.205
-0.215
-0.355
-0.205
-0.28
-0.23
-0.065
-0.015
0.06
-0.05
-0.15
-0.22
-0.33
-0.29
-0.255
-0.16
-0.27
-0.24
-0.08
0.01
0.02
0.05
-0.255
-0.215
-0.185
-0.08
0.065
0.22
0.305
0.235
0.18
0.07
-0.13
-0.175
-0.14
-0.125
-0.13
0.01
-0.115
-0.22
-0.23
-0.265
-0.41
-0.455
-0.285
-0.18
-0.15
-0.07
-0.11
-0.125
0.0
-0.13
-0.285
-0.375
-0.2
-0.14
-0.045
0.115
0.08
0.025
-0.105
-0.125
-0.245
-0.305
-0.23
-0.095
-0.08
0.05
0.095
0.055
-0.08
-0.15
-0.35
-0.29
-0.305
-0.19
0.015
0.18
0.165
0.175
-0.115
-0.13
-0.205
-0.255
-0.14
-0.05
0.025
0.165
0.03
0.085
0.04
-0.135
-0.18
-0.135
-0.165
-0.125
-0.045
-0.095
0.015
0.135
0.03
-0.075
-0.23
-0.25
0.0
0.01
0.025
0.145
0.195
0.145
0.055
-0.105
-0.2
-0.18
-0.11
0.175
0.175
0.305
0.26
0.32
-0.02
-0.02
-0.035
0.03
0.07
0.16
0.275
0.42
0.29
0.14
0.18
0.055
-0.02
0.02
0.065
0.12
0.265
0.27
0.245
0.25
0.095
0.03
-0.085
-0.09
-0.045
0.005
0.165
0.17
0.085
0.1
0.01
-0.105
-0.175
-0.115
0.04
-0.03
-0.01
0.17
0.15
0.065
-0.015
-0.08
-0.21
-0.16
-0.065
-0.04
0.065
0.08
0.135
0.045
-0.125
-0.19
-0.135
-0.245
-0.175
-0.07
0.09
0.02
0.225
0.115
-0.055
-0.23
-0.095
-0.045
-0.035
0.025
0.095
0.12
0.115
0.015
0.015
-0.22
-0.17
-0.19
-0.02
0.015
0.23
0.205
0.095
0.03
-0.025
-0.085
-0.105
-0.165
-0.01
-0.02
0.135
0.175
0.13
0.06
-0.065
-0.145
-0.12
-0.175
-0.215
-0.085
0.155
0.325
0.09
0.065
0.025
-0.09
-0.03
-0.03
0.075
0.065
0.23
0.275
0.085
0.02
0.04
-0.12
-0.165
-0.105
0.035
0.04
0.08
0.135
0.18
0.075
-0.135
-0.105
-0.22
-0.01
0.09
-0.11
0.15
0.17
0.08
0.11
0.025
-0.11
-0.09
-0.005
0.03
0.145
0.175
0.205
0.14
-0.03
-0.01
-0.1
-0.11
-0.075
-0.005
0.18
0.225
0.215
-0.015
-0.115
0.02
-0.04
-0.075
0.07
0.14
0.165
0.355
0.245
0.12
0.02
-0.035
-0.06
-0.06
-0.01
0.14
0.18
0.245
0.18
0.11
-0.02
-0.19
-0.15
0.075
-0.05
0.185
0.205
0.225
0.175
0.11
0.03
-0.08
-0.13
-0.065
0.065
0.025
0.12
0.18
0.045
-0.085
0.125
-0.055
-0.02
0.03
-0.01
0.11
0.31
0.285
0.3
0.195
0.135
0.05
0.115
0.2
0.19
0.41
0.63
0.315
0.235
0.225
0.195
0.07
-0.085
-0.165
-0.11
-0.055
0.05
0.1
0.05
0.085
0.04
-0.1
-0.055
-0.015
0.01
0.045
0.27
0.305
0.17
0.04
0.065
-0.055
0.07
0.025
0.095
0.06
0.24
0.285
0.145
0.12
0.03
-0.09
-0.16
-0.02
0.13
0.2
0.235
0.21
0.285
0.17
0.005
0.0
-0.015
-0.07
0.03
0.265
0.27
0.33
0.21
0.14
0.14
0.02
0.02
0.035
0.115
0.23
0.345
0.345
0.2
0.155
0.16
0.01
0.07
0.115
0.12
0.185
0.24
0.25
0.33
0.11
0.215
0.13
0.06
0.1
0.24
0.295
0.345
0.36
0.24
0.155
0.185
0.11
0.06
0.175
0.325
0.465
0.565
0.395
0.43
0.365
0.245
0.19
0.245
0.21
0.295
0.435
0.51
0.56
0.43
0.39
0.295
0.255
0.16
0.27
0.355
0.455
0.485
0.525
0.365
0.27
0.195
0.14
0.06
-0.01
0.115
0.4
0.4
0.325
0.21
0.23
0.13
0.085
-0.04
0.045
0.19
0.36
0.4
0.42
0.275
0.1
-0.025
0.06
0.08
0.09
0.095
0.255
0.295
0.345
0.205
0.055
-0.035
0.035
0.0
0.16
0.195
0.38
0.37
0.325
0.22
0.13
0.035
0.0
-0.015
0.1
0.275
0.32
0.39
0.255
0.185
0.16
-0.015
0.06
-0.12
0.05
0.28
0.42
0.465
0.435
0.24
0.175
0.08
0.09
0.095
0.255
0.185
0.365
0.385
0.305
0.225
0.13
-0.04
0.095
0.09
0.165
0.28
0.345
0.36
0.36
0.18
0.23
0.05
0.04
0.165
0.18
0.24
0.445
0.335
0.31
0.24
0.07
0.05
-0.015
0.12
0.265
0.155
0.305
0.4
0.445
0.27
0.23
0.05
0.1
0.105
0.395
0.275
0.375
0.355
0.28
0.26
0.26
0.095
0.11
0.05
0.235
0.46
0.375
0.33
0.38
0.295
0.22
0.11
0.105
0.185
0.28
0.31
0.445
0.365
0.285
0.215
0.22
0.045
0.06
-0.035
0.165
0.37
0.43
0.385
0.34
0.26
0.17
0.12
0.095
0.14
0.26
0.315
0.405
0.365
0.33
0.18
0.13
0.05
0.035
0.33
0.295
0.385
0.465
0.515
0.36
0.295
0.205
0.275
0.25
0.38
0.6
0.61
0.72
0.56
0.49
0.33
0.22
0.12
0.05
0.14
0.06
0.11
0.275
0.235
0.205
0.135
0.125
0.125
0.065
0.185
0.23
0.37
0.395
0.425
0.385
0.245
0.105
0.175
0.14
0.25
0.29
0.355
0.415
0.38
0.27
0.155
0.035
0.105
0.235
0.29
0.37
0.455
0.495
0.415
0.345
0.375
0.09
0.11
0.255
0.35
0.295
0.24
0.45
0.475
0.36
0.325
0.235
0.2
0.21
0.315
0.345
0.45
0.51
0.41
0.27
0.415
0.06
0.145
0.335
0.375
0.275
0.59
0.42
0.415
0.365
0.305
0.24
0.2
0.255
0.425
0.4
0.53
0.58
0.605
0.505
0.415
0.235
0.265
0.39
0.445
0.525
0.695
0.56
0.55
0.52
0.365
0.295
0.5
0.49
0.625
0.595
0.66
0.68
0.57
0.615
0.505
0.385
0.365
0.505
0.54
0.68
0.725
0.565
0.6
0.435
0.36
0.13
0.265
0.345
0.415
0.58
0.535
0.515
0.525
0.385
0.32
0.18
0.155
0.235
0.325
0.43
0.38
0.325
0.39
0.46
0.255
0.21
0.2
0.35
0.425
0.395
0.5
0.525
0.515
0.39
0.24
0.22
0.185
0.295
0.395
0.455
0.415
0.46
0.47
0.36
0.26
0.185
0.16
0.275
0.385
0.385
0.52
0.46
0.43
0.37
0.26
0.22
0.215
0.36
0.405
0.48
0.485
0.37
0.405
0.345
0.275
0.205
0.345
0.37
0.45
0.52
0.59
0.51
0.34
0.345
0.16
0.24
0.27
0.37
0.51
0.525
0.64
0.485
0.315
0.38
0.22
0.28
0.325
0.32
0.325
0.6
0.665
0.625
0.385
0.365
0.2
0.29
0.3
0.37
0.365
0.59
0.545
0.485
0.38
0.485
0.19
0.295
0.245
0.385
0.435
0.59
0.615
0.57
0.47
0.43
0.275
0.32
0.325
0.4
0.535
0.545
0.595
0.56
0.455
0.355
0.17
0.255
0.305
0.405
0.375
0.54
0.525
0.555
0.44
0.355
0.175
0.205
0.29
0.325
0.47
0.565
0.555
0.505
0.34
0.2
0.16
0.2
0.3
0.455
0.375
0.505
0.675
0.665
0.55
0.425
0.365
0.37
0.395
0.465
0.735
0.95
0.91
0.755
0.52
0.415
0.29
0.305
0.385
0.42
0.385
0.42
0.38
0.24
0.15
0.24
0.065
0.28
0.295
0.375
0.455
0.52
0.53
0.49
0.455
0.35
0.245
0.22
0.3
0.435
0.6
0.665
0.555
0.495
0.435
0.29
0.225
0.285
0.365
0.475
0.6
0.6
0.665
0.55
0.505
0.26
0.23
0.31
0.385
0.555
0.62
0.56
0.6
0.525
0.38
0.235
0.405
0.375
0.355
0.465
0.625
0.405
0.595
0.415
0.48
0.36
0.44
0.405
0.45
0.47
0.685
0.63
0.56
0.605
0.44
0.305
0.325
0.375
0.5
0.61
0.68
0.69
0.65
0.585
0.54
0.44
0.405
0.495
0.44
0.51
0.77
0.82
0.76
0.66
0.675
0.43
0.4
0.49
0.73
0.895
0.95
0.8
0.76
0.655
0.565
0.545
0.57
0.635
0.545
0.7
0.825
0.815
0.815
0.645
0.475
0.415
0.395
0.425
0.53
0.62
0.645
0.69
0.72
0.51
0.435
0.355
0.305
0.44
0.45
0.56
0.665
0.655
0.565
0.465
0.395
0.315
0.35
0.285
0.545
0.535
0.705
0.655
0.615
0.46
0.435
0.22
0.3
0.315
0.455
0.525
0.59
0.615
0.565
0.465
0.35
0.225
0.3
0.33
0.39
0.525
0.725
0.675
0.61
0.5
0.455
0.155
0.32
0.24
0.315
0.525
0.72
0.615
0.635
0.455
0.42
0.295
0.31
0.37
0.455
0.595
0.645
0.6
0.555
0.465
0.42
0.35
0.405
0.45
0.425
0.61
0.685
0.655
0.57
0.42
0.34
0.265
0.335
0.46
0.49
0.615
0.695
0.665
0.515
0.5
0.405
0.36
0.455
0.485
0.47
0.6
0.73
0.64
0.375
0.455
0.26
0.255
0.4
0.49
0.535
0.755
0.66
0.625
0.59
0.53
0.365
0.38
0.42
0.52
0.585
0.69
0.635
0.585
0.53
0.34
0.255
0.275
0.41
0.41
0.395
0.615
0.59
0.655
0.505
0.415
0.35
0.33
0.395
0.495
0.565
0.64
0.635
0.665
0.52
0.41
0.25
0.28
0.405
0.5
0.56
0.74
0.715
0.66
0.585
0.51
0.41
0.615
0.625
0.73
0.7
0.79
0.755
0.58
0.5
0.415
0.44
0.32
0.205
0.295
0.24
0.57
0.535
0.5
0.465
0.37
0.345
0.28
0.34
0.395
0.42
0.605
0.715
0.655
0.465
0.415
0.355
0.32
0.375
0.505
0.605
0.69
0.7
0.55
0.45
0.45
0.335
0.395
0.445
0.45
0.465
0.63
0.7
0.505
0.425
0.32
0.335
0.395
0.455
0.495
0.58
0.565
0.685
0.605
0.525
0.46
0.38
0.385
0.455
0.55
0.66
0.625
0.705
0.505
0.425
0.475
0.385
0.395
0.355
0.395
0.66
0.905
0.815
0.665
0.585
0.425
0.325
0.365
0.545
0.565
0.765
0.77
0.66
0.52
0.57
0.465
0.435
0.44
0.625
0.73
0.805
0.865
0.835
0.79
0.705
0.61
0.595
0.625
0.705
0.725
0.895
0.885
0.785
0.7
0.615
0.445
0.45
0.55
0.66
0.685
0.91
0.94
0.755
0.665
0.63
0.405
0.385
0.46
0.54
0.54
0.67
0.67
0.605
0.535
0.51
0.315
0.29
0.445
0.32
0.53
0.695
0.59
0.695
0.585
0.475
0.285
0.34
0.385
0.44
0.48
0.615
0.615
0.655
0.535
0.41
0.35
0.35
0.495
0.475
0.55
0.61
0.64
0.7
0.495
0.45
0.34
0.285
0.245
0.46
0.62
0.685
0.725
0.62
0.48
0.405
0.3
0.37
0.43
0.44
0.49
0.735
0.69
0.57
0.48
0.47
0.32
0.355
0.34
0.515
0.625
0.75
0.71
0.57
0.52
0.45
0.35
0.265
0.465
0.435
0.49
0.595
0.765
0.695
0.515
0.32
0.31
0.37
0.42
0.5
0.63
0.74
0.71
0.58
0.535
0.45
0.39
0.4
0.395
0.455
0.615
0.74
0.61
0.52
0.485
0.375
0.405
0.445
0.505
0.565
0.64
0.795
0.79
0.56
0.5
0.44
0.395
0.41
0.525
0.57
0.66
0.69
0.655
0.555
0.47
0.285
0.33
0.38
0.495
0.52
0.65
0.655
0.63
0.485
0.46
0.315
0.305
0.3
0.435
0.555
0.695
0.59
0.61
0.525
0.615
0.37
0.35
0.385
0.29
0.445
0.765
0.735
0.745
0.67
0.54
0.485
0.53
0.61
0.68
0.74
0.81
0.72
0.66
0.555
0.55
0.32
0.22
0.24
0.255
0.32
0.545
0.535
0.55
0.44
0.49
0.32
0.325
0.34
0.44
0.485
0.645
0.665
0.64
0.495
0.41
0.3
0.21
0.37
0.48
0.455
0.65
0.57
0.615
0.495
0.485
0.375
0.375
0.41
0.48
0.585
0.715
0.73
0.62
0.475
0.435
0.27
0.31
0.41
0.46
0.555
0.615
0.715
0.595
0.465
0.415
0.275
0.23
0.45
0.435
0.575
0.78
0.705
0.625
0.56
0.435
0.35
0.34
0.385
0.485
0.535
0.76
0.83
0.66
0.575
0.425
0.395
0.375
0.5
0.51
0.56
0.745
0.72
0.63
0.58
0.465
0.485
0.535
0.52
0.635
0.75
0.79
0.75
0.645
0.675
0.625
0.62
0.59
0.715
0.695
0.725
0.93
0.77
0.75
0.675
0.64
0.505
0.565
0.52
0.615
0.75
0.805
0.745
0.735
0.615
0.485
0.49
0.42
0.48
0.58
0.645
0.69
0.655
0.58
0.465
0.3
0.365
0.28
0.44
0.51
0.755
0.655
0.615
0.4
0.395
0.325
0.32
0.485
0.46
0.41
0.675
0.545
0.585
0.565
0.45
0.28
0.24
0.305
0.44
0.505
0.635
0.6
0.53
0.48
0.455
0.255
0.315
0.33
0.405
0.495
0.645
0.64
0.575
0.44
0.42
0.22
0.245
0.3
0.47
0.495
0.66
0.68
0.605
0.465
0.355
0.39
0.345
0.28
0.395
0.495
0.68
0.62
0.545
0.42
0.43
0.345
0.26
0.315
0.4
0.475
0.6
0.595
0.525
0.395
0.32
0.335
0.18
0.29
0.545
0.575
0.565
0.62
0.54
0.505
0.43
0.25
0.275
0.345
0.515
0.47
0.625
0.655
0.555
0.42
0.46
0.25
0.16
0.395
0.455
0.51
0.595
0.66
0.58
0.54
0.445
0.23
0.32
0.375
0.43
0.565
0.655
0.57
0.495
0.4
0.385
0.26
0.2
0.24
0.3
0.385
0.55
0.55
0.46
0.47
0.365
0.265
0.35
0.295
0.255
0.595
0.605
0.65
0.455
0.41
0.29
0.285
0.28
0.335
0.365
0.565
0.635
0.57
0.49
0.445
0.44
0.375
0.43
0.54
0.47
0.83
0.705
0.61
0.48
0.415
0.405
0.3
0.285
0.315
0.255
0.445
0.51
0.455
0.32
0.275
0.19
0.205
0.255
0.265
0.475
0.545
0.51
0.595
0.595
0.415
0.205
0.29
0.25
0.405
0.41
0.53
0.555
0.555
0.44
0.365
0.265
0.27
0.24
0.32
0.42
0.565
0.54
0.35
0.235
0.17
0.345
0.29
0.42
0.52
0.405
0.56
0.66
0.57
0.42
0.46
0.32
0.23
0.33
0.38
0.445
0.61
0.59
0.455
0.38
0.29
0.245
0.195
0.19
0.435
0.545
0.66
0.69
0.62
0.515
0.455
0.255
0.25
0.4
0.42
0.535
0.7
0.665
0.56
0.55
0.51
0.33
0.255
0.415
0.545
0.625
0.68
0.75
0.69
0.64
0.535
0.405
0.425
0.575
0.525
0.61
0.755
0.74
0.645
0.59
0.58
0.55
0.435
0.48
0.55
0.605
0.585
0.62
0.61
0.655
0.455
0.295
0.35
0.33
0.585
0.54
0.67
0.585
0.505
0.375
0.285
0.295
0.255
0.37
0.495
0.52
0.51
0.535
0.455
0.35
0.22
0.26
0.205
0.365
0.345
0.41
0.59
0.525
0.445
0.41
0.235
0.205
0.14
0.375
0.45
0.605
0.54
0.505
0.4
0.21
0.105
0.195
0.235
0.39
0.425
0.515
0.525
0.485
0.43
0.335
0.215
0.155
0.345
0.485
0.425
0.52
0.49
0.52
0.4
0.285
0.19
0.275
0.315
0.26
0.325
0.485
0.415
0.455
0.59
0.39
0.3
0.325
0.315
0.385
0.445
0.44
0.415
0.54
0.515
0.35
0.22
0.275
0.28
0.33
0.285
0.515
0.625
0.495
0.375
0.36
0.22
0.26
0.2
0.33
0.38
0.535
0.595
0.575
0.43
0.3
0.125
0.135
0.31
0.445
0.495
0.545
0.55
0.47
0.385
0.385
0.325
0.23
0.34
0.4
0.44
0.63
0.545
0.37
0.37
0.355
0.245
0.17
0.175
0.35
0.365
0.495
0.425
0.335
0.07
0.125
0.125
0.37
0.32
0.265
0.29
0.555
0.67
0.465
0.385
0.28
0.25
0.22
0.345
0.335
0.39
0.505
0.565
0.55
0.42
0.27
0.18
0.33
0.485
0.59
0.725
0.755
0.615
0.48
0.315
0.27
0.235
0.125
0.135
0.315
0.345
0.34
0.365
0.355
0.275
0.185
0.105
0.15
0.21
0.365
0.405
0.46
0.43
0.255
0.055
0.075
0.075
0.345
0.35
0.38
0.555
0.65
0.535
0.39
0.45
0.23
0.21
0.235
0.315
0.365
0.43
0.515
0.525
0.41
0.285
0.255
0.29
0.22
0.23
0.25
0.415
0.465
0.52
0.42
0.315
0.21
0.245
0.125
0.38
0.375
0.53
0.595
0.45
0.35
0.375
0.245
0.22
0.285
0.37
0.405
0.52
0.535
0.49
0.4
0.2
0.125
0.315
0.33
0.41
0.47
0.62
0.605
0.49
0.31
0.45
0.355
0.355
0.365
0.405
0.5
0.62
0.605
0.59
0.62
0.555
0.415
0.365
0.445
0.49
0.58
0.745
0.655
0.68
0.575
0.54
0.395
0.505
0.435
0.53
0.52
0.62
0.715
0.65
0.515
0.375
0.37
0.32
0.34
0.39
0.475
0.61
0.56
0.44
0.365
0.315
0.155
0.26
0.24
0.345
0.37
0.495
0.52
0.42
0.315
0.235
0.17
0.15
0.165
0.245
0.325
0.47
0.435
0.425
0.41
0.265
0.005
0.155
0.17
0.36
0.52
0.57
0.435
0.42
0.335
0.22
0.19
0.14
0.23
0.315
0.415
0.445
0.335
0.41
0.335
0.235
0.11
0.18
0.175
0.35
0.405
0.43
0.49
0.36
0.305
0.22
0.195
0.095
0.12
0.285
0.375
0.515
0.545
0.42
0.275
0.205
0.16
0.175
0.175
0.45
0.52
0.43
0.445
0.2
0.27
0.2
0.185
0.15
0.195
0.305
0.53
0.495
0.46
0.37
0.33
0.15
0.135
0.26
0.27
0.325
0.475
0.495
0.42
0.405
0.235
0.205
0.12
0.15
0.305
0.34
0.47
0.44
0.565
0.365
0.27
0.175
0.175
0.2
0.23
0.41
0.505
0.465
0.395
0.305
0.345
0.105
0.29
0.285
0.235
0.39
0.5
0.42
0.475
0.275
0.255
0.095
0.17
0.15
0.205
0.265
0.41
0.545
0.46
0.325
0.26
0.14
0.07
0.26
0.24
0.36
0.36
0.44
0.475
0.365
0.345
0.12
0.16
0.25
0.445
0.51
0.66
0.65
0.55
0.44
0.295
0.095
0.085
0.15
0.185
0.29
0.425
0.3
0.305
0.235
0.11
-0.105
0.04
0.17
0.29
0.39
0.48
0.435
0.36
0.3
0.25
0.08
0.14
0.23
0.23
0.335
0.465
0.42
0.305
0.25
0.095
0.13
0.115
0.21
0.395
0.37
0.57
0.525
0.37
0.285
0.235
0.075
0.105
0.2
0.3
0.3
0.445
0.43
0.39
0.255
0.195
0.275
0.205
0.245
0.32
0.365
0.5
0.465
0.41
0.35
0.26
0.14
0.205
0.23
0.33
0.465
0.465
0.35
0.23
0.17
0.27
0.25
0.335
0.39
0.42
0.455
0.53
0.52
0.435
0.335
0.265
0.19
0.18
0.31
0.55
0.62
0.65
0.64
0.48
0.415
0.295
0.285
0.355
0.365
0.48
0.61
0.77
0.52
0.57
0.485
0.4
0.39
0.37
0.575
0.46
0.6
0.59
0.505
0.52
0.485
0.28
0.355
0.315
0.235
0.37
0.635
0.505
0.555
0.305
0.37
0.24
0.145
0.245
0.305
0.3
0.505
0.465
0.43
0.355
0.3
0.09
0.13
0.135
0.19
0.35
0.44
0.435
0.35
0.2
0.35
0.12
0.175
0.205
0.28
0.31
0.47
0.475
0.355
0.18
0.19
0.175
0.125
0.285
0.31
0.25
0.405
0.43
0.475
0.37
0.305
0.145
0.11
0.17
0.255
0.28
0.4
0.38
0.37
0.36
0.205
0.065
0.05
0.225
0.265
0.37
0.485
0.435
0.275
0.205
0.14
0.045
0.18
0.145
0.325
0.38
0.41
0.295
0.235
0.245
0.225
0.06
0.175
0.25
0.225
0.395
0.465
0.435
0.465
0.25
0.195
-0.035
0.185
0.19
0.235
0.28
0.46
0.385
0.3
0.29
0.22
0.095
0.135
0.195
0.275
0.33
0.375
0.49
0.325
0.36
0.23
0.14
0.18
0.185
0.3
0.36
0.405
0.535
0.295
0.24
-0.02
-0.04
-0.015
0.105
0.33
0.5
0.435
0.4
0.32
0.175
0.065
0.045
0.14
0.17
0.235
0.38
0.37
0.315
0.22
0.16
0.025
0.13
0.065
0.155
0.19
0.485
0.43
0.38
0.25
0.315
0.06
0.18
0.215
0.355
0.38
0.525
0.605
0.585
0.345
0.2
0.11
0.08
0.08
0.185
0.21
0.3
0.22
0.185
0.065
0.015
-0.005
0.04
-0.03
0.185
0.055
0.29
0.315
0.315
0.215
0.155
-0.02
-0.015
0.085
0.185
0.32
0.41
0.37
0.17
0.24
0.26
0.075
0.02
0.055
0.15
0.3
0.37
0.37
0.35
0.125
0.145
-0.025
-0.045
0.06
0.26
0.295
0.425
0.425
0.29
0.225
0.19
0.01
-0.015
0.075
0.04
0.245
0.35
0.275
0.42
0.265
0.21
0.06
0.13
0.145
0.075
0.26
0.405
0.395
0.43
0.17
0.065
0.145
0.1
0.145
0.32
0.315
0.355
0.465
0.445
0.22
0.16
0.06
0.17
0.2
0.29
0.34
0.52
0.38
0.345
0.36
0.18
0.005
0.25
0.275
0.355
0.47
0.56
0.505
0.4
0.45
0.215
0.2
0.24
0.275
0.355
0.445
0.47
0.475
0.355
0.175
0.06
-0.025
0.125
0.25
0.335
0.48
0.43
0.335
0.3
0.235
0.075
0.045
0.045
0.11
0.15
0.17
0.32
0.305
0.16
0.12
0.05
0.045
-0.015
0.135
0.09
0.23
0.22
0.13
0.16
0.055
-0.1
-0.16
-0.07
0.055
0.015
0.175
0.33
0.25
0.205
0.17
-0.065
0.0
-0.055
0.065
0.19
0.365
0.215
0.305
0.155
-0.01
-0.08
-0.03
-0.03
0.04
0.13
0.305
0.235
0.21
0.165
0.05
-0.075
-0.14
-0.05
-0.005
0.14
0.335
0.26
0.1
-0.06
-0.05
-0.04
-0.07
0.015
0.13
0.15
0.245
0.23
0.285
0.16
0.015
-0.125
-0.035
-0.07
0.075
0.11
0.23
0.2
0.095
0.15
0.095
-0.115
-0.08
-0.065
-0.01
0.17
0.285
0.195
0.145
0.145
0.045
-0.06
-0.145
-0.05
0.025
0.13
0.205
0.24
0.09
-0.07
-0.05
0.04
-0.03
0.075
0.13
0.17
0.27
0.185
0.13
0.015
-0.065
-0.12
-0.125
-0.015
-0.005
0.065
0.145
0.165
0.085
0.0
-0.115
-0.17
-0.135
-0.06
-0.01
0.16
0.26
0.245
0.145
0.075
-0.135
-0.235
-0.17
-0.095
0.06
0.195
0.22
0.075
0.09
-0.01
-0.06
-0.075
0.03
-0.01
0.16
0.32
0.24
0.42
0.31
0.23
-0.095
-0.1
-0.085
0.01
0.01
0.14
-0.025
-0.04
-0.22
-0.18
-0.28
-0.26
-0.195
-0.14
-0.045
0.12
0.145
0.165
0.095
0.035
-0.175
-0.265
-0.145
-0.065
0.015
0.105
0.1
0.11
0.07
-0.125
-0.2
-0.1
-0.065
-0.105
-0.025
0.225
0.1
0.23
0.055
-0.015
-0.13
-0.195
-0.115
-0.03
-0.01
0.13
0.08
0.175
-0.045
-0.215
-0.145
-0.125
-0.07
0.025
0.07
0.13
0.155
0.07
0.1
0.02
-0.22
-0.25
-0.07
0.075
-0.025
0.2
0.18
0.17
0.03
-0.005
-0.175
-0.235
-0.005
0.005
0.13
0.25
0.225
0.05
0.04
-0.04
-0.03
-0.015
-0.005
-0.02
0.07
0.42
0.36
0.125
0.175
0.14
0.03
-0.055
0.015
0.085
0.285
0.345
0.335
0.295
0.2
0.17
0.0
0.07
-0.015
0.065
0.135
0.42
0.305
0.24
0.24
0.04
-0.03
-0.035
0.04
0.075
0.165
0.255
0.2
0.05
-0.085
-0.2
-0.305
-0.135
-0.005
0.035
0.115
0.22
0.095
0.065
-0.02
-0.065
-0.23
-0.2
-0.15
0.03
0.035
0.11
0.1
0.04
-0.07
-0.255
-0.215
-0.28
-0.055
0.015
0.065
0.145
0.045
0.01
-0.115
-0.165
-0.185
-0.185
-0.04
-0.065
0.085
0.085
0.03
-0.04
0.0
-0.165
-0.18
-0.21
-0.15
0.035
0.09
0.0
0.03
0.05
-0.1
-0.22
-0.14
-0.155
-0.165
0.0
0.17
0.125
0.0
0.045
-0.01
-0.16
-0.23
-0.22
-0.155
-0.04
0.045
0.13
0.09
-0.025
-0.14
-0.2
-0.09
-0.155
-0.09
-0.05
0.085
0.26
0.03
0.0
-0.05
-0.19
-0.155
-0.125
-0.015
-0.04
0.15
0.1
0.09
0.035
-0.04
-0.225
-0.11
-0.05
-0.01
-0.01
0.095
0.025
0.005
0.04
-0.095
-0.335
-0.25
-0.04
-0.025
0.005
0.175
0.12
0.01
-0.155
-0.165
-0.225
-0.16
-0.195
-0.09
0.005
0.19
0.095
0.065
-0.075
-0.035
-0.275
-0.31
-0.215
-0.115
-0.035
0.035
0.135
0.065
-0.05
-0.07
-0.29
-0.29
-0.18
0.145
0.18
0.4
0.45
0.31
0.085
-0.105
-0.15
-0.3
-0.15
0.01
0.015
0.09
-0.115
-0.19
-0.34
-0.28
-0.355
-0.285
-0.245
-0.115
-0.02
0.01
0.055
-0.03
-0.08
-0.23
-0.25
-0.205
-0.28
-0.16
0.075
0.21
0.125
0.05
-0.115
-0.285
-0.2
-0.16
-0.13
-0.135
-0.17
0.195
0.04
0.1
0.02
-0.095
-0.205
-0.105
-0.095
-0.03
0.185
0.16
0.125
0.07
0.03
-0.2
-0.23
-0.155
0.015
-0.015
0.065
0.15
0.075
0.045
-0.055
-0.135
-0.18
-0.155
-0.01
0.035
0.145
0.125
0.07
-0.04
-0.06
-0.225
-0.175
-0.245
-0.025
-0.035
0.015
0.305
0.28
0.115
-0.125
-0.03
0.01
-0.02
0.045
0.125
0.205
0.285
0.21
0.13
0.125
-0.01
-0.015
-0.005
0.08
0.14
0.285
0.38
0.27
0.13
0.175
0.005
0.0
0.12
0.175
0.18
0.385
0.335
0.175
0.085
0.03
-0.175
-0.03
0.01
0.085
0.045
0.24
0.23
0.17
0.075
-0.06
-0.28
-0.24
-0.11
-0.065
-0.115
0.125
0.125
0.06
-0.005
-0.03
-0.115
-0.25
-0.245
-0.14
-0.165
0.09
0.18
-0.035
-0.065
-0.14
-0.2
-0.225
-0.16
-0.125
0.02
0.125
0.17
0.03
-0.03
-0.12
-0.145
-0.045
-0.21
-0.085
0.0
0.11
0.16
0.05
-0.045
-0.145
-0.16
-0.17
-0.17
-0.025
0.03
0.135
0.055
-0.015
-0.185
-0.18
-0.205
-0.285
-0.155
-0.18
0.035
0.225
0.125
-0.075
0.035
-0.05
-0.23
-0.2
-0.08
-0.055
0.0
0.185
0.225
0.125
0.005
-0.065
-0.12
-0.13
-0.135
-0.125
0.025
0.045
0.07
0.05
-0.045
0.045
-0.19
-0.135
-0.165
0.025
0.195
0.165
0.155
0.02
0.0
-0.215
-0.15
-0.17
0.0
0.065
0.135
0.22
0.15
-0.005
-0.05
-0.125
-0.28
-0.275
-0.11
-0.035
0.25
0.28
-0.015
-0.04
0.035
-0.195
-0.33
-0.145
-0.08
-0.075
0.19
0.19
0.085
-0.15
-0.135
-0.23
-0.2
-0.155
-0.06
-0.025
0.15
0.225
0.17
0.07
-0.04
-0.17
-0.205
-0.095
0.04
0.13
0.33
0.425
0.33
0.055
0.01
-0.22
-0.185
-0.095
-0.195
-0.06
0.15
0.025
-0.035
-0.255
-0.21
-0.195
-0.325
-0.215
-0.135
-0.09
0.11
0.15
0.01
-0.025
-0.125
-0.185
-0.265
-0.145
-0.06
0.1
0.155
0.22
0.075
-0.05
-0.09
-0.155
-0.21
-0.15
-0.1
-0.005
0.065
0.055
0.005
-0.165
-0.15
-0.05
-0.05
-0.145
0.03
0.135
0.13
0.165
0.085
-0.065
-0.1
-0.15
-0.15
-0.11
-0.035
0.065
0.145
0.175
0.1
-0.01
-0.115
-0.15
-0.22
-0.11
-0.1
0.05
0.34
0.215
0.165
0.03
-0.06
-0.1
-0.12
-0.015
0.075
0.125
0.23
0.175
0.03
-0.04
0.005
-0.02
-0.105
0.08
0.205
0.255
0.145
0.195
0.205
0.19
-0.07
-0.04
0.15
0.24
0.245
0.35
0.42
0.32
0.28
0.195
0.04
-0.02
0.09
0.08
0.13
0.355
0.39
0.39
0.245
0.17
0.005
-0.18
-0.195
-0.045
0.255
0.305
0.16
0.035
0.065
0.085
0.055
-0.05
-0.07
-0.05
-0.01
0.105
0.115
0.09
0.05
0.02
-0.2
-0.15
-0.055
-0.02
0.05
0.15
0.19
0.09
0.1
-0.1
-0.255
-0.08
-0.045
-0.04
0.01
0.185
0.18
0.11
-0.05
-0.13
-0.195
-0.105
-0.14
0.005
0.005
0.155
0.175
0.21
0.055
-0.02
-0.16
-0.245
-0.06
-0.085
-0.16
0.195
0.235
0.09
-0.035
-0.075
-0.17
-0.21
-0.11
0.005
0.075
0.165
0.135
0.015
0.05
0.085
-0.1
-0.095
-0.165
-0.04
0.075
0.175
0.135
0.095
0.055
-0.015
-0.185
-0.16
-0.09
0.05
0.08
0.17
0.16
0.055
0.015
-0.06
-0.095
-0.12
-0.085
0.005
0.1
0.205
0.14
0.15
0.045
-0.065
-0.175
-0.07
-0.04
0.06
0.1
0.085
0.12
0.12
-0.04
0.005
-0.025
-0.09
-0.07
0.1
0.1
0.075
0.195
0.055
0.005
0.0
-0.185
-0.12
-0.035
-0.06
0.165
0.18
0.11
0.05
-0.14
-0.205
-0.07
-0.13
-0.1
-0.015
0.15
0.255
0.18
0.045
0.04
-0.065
-0.13
-0.145
-0.125
0.1
0.245
0.275
0.16
0.36
0.345
0.015
-0.09
-0.115
-0.06
0.025
0.135
0.055
0.03
-0.175
-0.16
-0.355
-0.325
-0.19
-0.095
0.025
0.18
0.09
0.05
0.045
0.03
-0.19
-0.215
-0.14
-0.09
-0.045
0.125
0.175
0.16
0.09
0.02
-0.165
-0.12
-0.12
-0.085
-0.01
0.105
0.145
0.135
0.08
0.055
-0.18
-0.125
-0.14
-0.06
0.115
0.27
0.095
0.075
0.02
-0.065
-0.135
-0.185
-0.145
0.0
0.07
0.285
0.245
0.125
0.07
-0.065
-0.21
-0.105
-0.1
0.035
0.045
0.16
0.135
0.255
0.14
0.095
-0.11
-0.195
-0.085
0.05
0.145
0.19
0.26
0.195
0.095
0.075
-0.075
0.0
0.045
0.135
0.06
0.275
0.31
0.205
0.19
0.17
0.1
0.065
0.065
0.19
0.205
0.41
0.385
0.3
0.18
0.075
-0.08
-0.02
0.07
0.185
0.185
0.415
0.345
0.305
0.195
0.065
-0.02
0.05
0.1
0.075
0.145
0.165
0.175
0.16
0.005
-0.05
-0.135
-0.175
0.04
0.1
0.175
0.31
0.14
0.115
0.0
-0.1
-0.235
-0.08
0.065
0.145
0.145
0.14
0.02
0.01
-0.035
-0.235
-0.295
-0.13
-0.185
-0.07
0.185
0.22
0.13
-0.005
0.035
-0.14
-0.2
-0.145
-0.01
0.035
0.135
0.105
0.09
-0.005
-0.05
-0.16
-0.16
-0.15
-0.045
0.03
0.075
0.115
0.065
0.05
-0.005
-0.24
-0.11
-0.14
-0.045
-0.01
0.175
0.14
0.075
0.02
-0.045
-0.135
-0.03
-0.155
-0.1
0.0
0.15
0.115
0.12
-0.055
-0.185
-0.19
-0.07
-0.17
-0.07
-0.03
0.195
0.155
0.115
-0.09
-0.115
-0.12
-0.115
-0.19
-0.07
0.065
0.215
0.21
0.085
0.025
0.02
-0.225
-0.11
-0.125
0.015
0.035
0.175
0.185
0.135
0.015
-0.05
-0.315
-0.26
-0.21
0.015
0.11
0.115
0.215
0.055
-0.01
-0.09
-0.27
-0.215
-0.135
-0.075
0.02
0.165
0.105
0.055
-0.08
-0.085
-0.255
-0.225
-0.245
-0.02
0.05
0.18
0.065
0.105
-0.055
-0.145
-0.205
-0.13
-0.015
-0.025
0.03
0.22
0.135
0.125
0.095
0.085
-0.02
0.04
0.08
0.04
-0.09
0.29
0.225
0.065
-0.055
-0.22
-0.425
-0.305
-0.285
-0.32
-0.095
0.0
0.015
-0.055
-0.06
-0.165
-0.26
-0.195
-0.235
-0.115
-0.035
0.045
0.085
0.045
-0.105
-0.155
-0.225
-0.11
-0.19
-0.055
-0.035
0.19
0.12
-0.005
-0.135
-0.21
-0.23
-0.28
-0.115
0.025
0.045
0.115
0.15
0.045
-0.07
-0.2
-0.215
-0.17
-0.105
-0.1
0.055
0.075
0.035
0.055
-0.02
-0.05
-0.11
-0.16
-0.155
-0.065
0.08
0.13
0.115
0.085
-0.14
-0.245
-0.215
-0.045
-0.04
-0.055
0.19
0.205
0.135
0.055
-0.065
-0.25
-0.215
-0.105
0.015
0.02
0.25
0.24
0.15
0.08
-0.02
-0.11
-0.04
0.08
0.075
0.125
0.31
0.295
0.235
0.175
0.11
-0.065
-0.015
0.14
0.115
0.095
0.26
0.29
0.275
0.175
0.085
-0.07
-0.07
-0.01
0.2
0.16
0.205
0.19
0.14
0.1
0.065
-0.185
-0.11
-0.115
-0.015
0.03
0.135
0.17
0.12
-0.05
-0.07
-0.195
-0.22
-0.24
-0.12
-0.015
0.02
0.095
0.105
-0.03
-0.115
-0.21
-0.155
-0.095
-0.03
-0.015
0.085
0.0
0.05
0.0
-0.04
-0.295
-0.265
-0.03
-0.035
-0.02
0.1
0.12
-0.03
-0.11
-0.245
-0.49
-0.3
-0.11
0.02
0.17
0.155
0.045
0.035
-0.09
-0.185
-0.215
-0.16
-0.1
-0.025
0.115
0.105
0.09
0.025
-0.015
-0.1
-0.23
-0.185
-0.165
-0.055
0.085
0.025
0.1
0.035
-0.15
-0.14
-0.215
-0.175
-0.08
-0.155
0.06
0.15
0.095
0.025
-0.105
-0.135
-0.185
-0.165
-0.095
-0.055
0.075
-0.01
0.04
0.04
-0.055
-0.295
-0.14
-0.085
-0.135
-0.005
0.185
0.135
0.115
0.045
-0.01
-0.19
-0.12
-0.15
-0.01
0.035
0.07
0.08
0.11
0.015
-0.035
-0.21
-0.215
-0.2
-0.085
-0.04
0.07
0.14
0.04
-0.02
-0.02
-0.175
-0.18
-0.14
-0.075
0.015
0.155
0.115
0.125
0.005
-0.08
-0.205
-0.325
-0.185
-0.155
-0.07
0.115
0.185
0.07
-0.045
-0.025
-0.155
-0.16
-0.105
-0.045
0.03
0.245
0.175
0.16
0.24
0.23
0.03
0.005
-0.055
-0.005
0.0
0.215
0.115
-0.075
-0.135
-0.25
-0.305
-0.405
-0.345
-0.09
-0.015
0.05
0.1
0.135
-0.03
-0.035
-0.21
-0.26
-0.17
0.03
-0.03
0.06
0.115
0.0
0.04
-0.1
-0.27
-0.075
-0.115
-0.015
0.06
0.115
0.235
0.05
-0.155
-0.175
-0.105
-0.125
-0.045
0.055
0.11
0.195
0.12
0.07
0.035
-0.1
-0.19
-0.155
-0.1
0.12
0.13
0.08
0.075
0.17
0.08
-0.155
-0.15
-0.135
-0.045
0.065
0.115
0.185
0.165
0.035
-0.025
-0.07
-0.115
-0.02
-0.035
0.115
0.14
0.18
0.3
0.185
0.06
-0.08
0.0
-0.055
0.135
0.2
0.26
0.215
0.19
0.175
0.16
0.025
-0.015
-0.03
0.135
0.275
0.405
0.355
0.37
0.295
0.205
0.045
0.06
0.04
0.205
0.155
0.435
0.35
0.33
0.22
0.105
0.03
0.055
0.08
0.105
0.105
0.235
0.14
0.215
0.205
0.15
-0.105
-0.02
-0.01
0.045
0.055
0.205
0.215
0.215
0.215
0.1
-0.145
-0.045
-0.095
0.03
0.05
0.2
0.165
0.035
0.065
-0.015
-0.12
-0.135
-0.05
0.06
0.08
0.255
0.155
0.005
0.03
0.065
-0.115
-0.14
-0.13
0.01
0.06
0.21
0.275
0.165
-0.01
-0.045
-0.185
-0.13
-0.085
0.085
0.125
0.23
0.155
0.23
0.065
-0.06
-0.225
-0.06
0.025
0.05
0.1
0.24
0.25
0.18
0.1
-0.02
-0.14
-0.04
-0.075
-0.05
0.145
0.265
0.175
0.105
0.105
-0.035
-0.095
-0.1
-0.08
0.06
0.19
0.295
0.27
0.12
0.015
-0.115
-0.195
-0.08
-0.15
0.005
0.33
0.275
0.245
0.225
0.1
0.01
-0.065
-0.055
-0.005
0.11
0.145
0.275
0.28
0.165
0.065
-0.015
-0.01
0.045
-0.045
0.115
0.16
0.245
0.23
0.135
-0.03
-0.045
0.065
0.0
0.01
0.05
0.17
0.195
0.04
0.095
0.195
-0.05
-0.035
0.02
0.02
0.14
0.23
0.24
0.17
0.125
0.1
0.01
-0.14
-0.09
-0.075
0.185
0.24
0.335
0.26
0.175
0.07
-0.055
-0.025
0.09
0.165
0.115
0.24
0.35
0.47
0.285
0.29
0.14
0.005
0.05
0.005
0.12
0.225
0.19
0.25
0.03
-0.08
-0.225
-0.12
-0.16
0.04
0.035
0.13
0.285
0.205
0.125
0.105
-0.14
-0.135
-0.045
0.06
0.065
0.215
0.4
0.18
0.15
0.035
-0.02
-0.105
-0.015
0.08
0.05
0.375
0.29
0.21
0.19
0.115
-0.055
-0.09
0.1
0.1
0.22
0.365
0.265
0.285
0.145
0.09
-0.025
-0.065
0.075
0.145
0.22
0.295
0.3
0.285
0.13
0.07
-0.095
-0.035
-0.02
0.16
0.155
0.37
0.31
0.325
0.165
0.07
0.07
0.05
0.08
0.165
0.26
0.43
0.36
0.33
0.115
0.1
0.01
0.135
0.23
0.265
0.31
0.385
0.425
0.5
0.37
0.265
0.135
0.155
0.15
0.295
0.42
0.55
0.455
0.415
0.365
0.15
0.21
0.265
0.165
0.495
0.505
0.505
0.425
0.405
0.215
0.155
0.13
0.05
0.19
0.4
0.38
0.4
0.46
0.32
0.235
0.16
0.08
0.04
0.11
0.22
0.375
0.37
0.345
0.25
0.145
-0.01
0.055
-0.01
0.09
0.18
0.26
0.345
0.235
0.195
0.11
0.01
0.02
-0.04
0.135
0.185
0.165
0.245
0.27
0.165
0.015
0.1
-0.065
0.03
0.09
0.23
0.385
0.365
0.245
0.13
0.2
0.04
0.1
-0.005
0.125
0.13
0.39
0.37
0.295
0.295
0.225
0.015
-0.07
0.08
0.18
0.185
0.26
0.235
0.25
0.165
0.12
-0.04
-0.065
0.055
0.155
0.275
0.4
0.37
0.285
0.185
0.155
-0.015
0.08
0.125
0.27
0.23
0.36
0.325
0.34
0.165
0.17
0.1
0.035
0.06
0.16
0.205
0.31
0.385
0.295
0.135
0.05
-0.015
0.04
0.175
0.19
0.285
0.36
0.355
0.315
0.23
0.165
0.065
0.055
0.145
0.285
0.285
0.4
0.42
0.385
0.28
0.125
0.065
-0.04
-0.035
0.115
0.305
0.42
0.35
0.305
0.235
0.13
0.01
-0.025
0.09
0.15
0.25
0.415
0.295
0.34
0.195
0.17
0.075
-0.035
0.035
0.085
0.245
0.305
0.385
0.23
0.12
0.18
0.11
0.19
0.2
0.22
0.3
0.405
0.585
0.535
0.415
0.265
0.12
0.03
0.125
0.21
0.275
0.305
0.215
0.13
-0.015
-0.085
-0.135
-0.09
0.04
0.155
0.225
0.365
0.34
0.245
0.19
0.085
0.075
-0.08
0.04
0.2
0.27
0.315
0.315
0.335
0.18
0.05
0.065
0.145
0.125
0.28
0.36
0.34
0.295
0.14
0.07
0.03
0.11
0.105
0.15
0.235
0.27
0.285
0.39
0.25
0.22
0.035
0.06
0.055
0.205
0.245
0.39
0.28
0.41
0.305
0.1
-0.035
0.03
0.105
0.17
0.22
0.45
0.435
0.42
0.2
0.205
0.08
0.105
0.095
0.395
0.295
0.38
0.35
0.385
0.265
0.25
0.075
0.12
0.215
0.235
0.325
0.575
0.505
0.445
0.4
0.33
0.225
0.135
0.15
0.43
0.45
0.49
0.51
0.345
0.505
0.48
0.26
0.175
0.28
0.435
0.57
0.545
0.57
0.495
0.37
0.305
0.17
0.165
0.23
0.28
0.475
0.465
0.47
0.355
0.28
0.18
0.055
0.085
0.09
0.115
0.4
0.445
0.39
0.32
0.255
0.14
0.02
0.085
0.115
0.125
0.185
0.395
0.445
0.32
0.16
0.025
-0.07
0.1
0.175
0.185
0.205
0.365
0.27
0.315
0.2
0.08
0.1
0.125
0.155
0.21
0.36
0.41
0.38
0.295
0.15
0.085
-0.005
0.0
0.08
0.1
0.31
0.395
0.285
0.27
0.225
0.095
0.08
0.075
-0.12
0.195
0.49
0.455
0.39
0.26
0.115
0.0
-0.01
0.155
0.115
0.2
0.315
0.295
0.41
0.28
0.17
0.08
0.075
0.07
0.19
0.2
0.38
0.35
0.33
0.105
0.16
0.025
0.055
-0.025
0.16
0.19
0.425
0.24
0.235
0.265
0.2
-0.1
0.035
0.055
0.135
0.26
0.39
0.42
0.34
0.21
0.24
0.015
0.07
0.165
0.19
0.2
0.455
0.43
0.275
0.225
0.2
0.045
0.08
0.1
0.195
0.21
0.35
0.375
0.27
0.195
0.115
-0.015
-0.045
0.21
0.29
0.23
0.24
0.215
0.4
0.21
0.175
-0.015
-0.105
-0.035
0.035
0.245
0.5
0.365
0.285
0.17
0.1
0.105
0.055
0.22
0.265
0.34
0.485
0.405
0.38
0.34
0.28
0.235
0.28
0.355
0.28
0.275
0.405
0.495
0.305
0.185
-0.04
-0.23
-0.155
-0.085
0.0
0.165
0.275
0.26
0.205
0.16
0.09
-0.075
-0.085
0.145
0.255
0.305
0.43
0.355
0.255
0.165
0.055
0.01
0.02
0.11
0.165
0.39
0.37
0.305
0.31
0.15
0.085
0.045
0.08
0.17
0.21
0.355
0.365
0.265
0.23
0.095
0.01
-0.005
0.145
0.1
0.22
0.345
0.38
0.305
0.315
0.24
0.2
0.07
-0.055
0.215
0.355
0.255
0.425
0.37
0.28
0.23
0.1
0.09
0.12
0.17
0.295
0.495
0.345
0.375
0.36
0.255
0.085
0.075
0.245
0.285
0.36
0.535
0.55
0.32
0.265
0.31
0.19
0.075
0.28
0.355
0.35
0.465
0.545
0.53
0.575
0.545
0.15
0.295
0.27
0.47
0.49
0.565
0.51
0.515
0.5
0.415
0.205
0.27
0.275
0.33
0.35
0.565
0.545
0.505
0.41
0.28
0.145
0.1
0.16
0.215
0.285
0.445
0.46
0.355
0.265
0.185
0.065
0.075
-0.01
0.105
0.345
0.385
0.39
0.33
0.2
0.24
0.09
0.17
0.165
0.19
0.305
0.345
0.32
0.255
0.275
0.165
0.14
0.085
0.11
0.225
0.28
0.36
0.35
0.225
0.125
0.04
0.13
0.11
0.14
0.295
0.265
0.37
0.335
0.245
0.305
0.15
0.09
0.105
0.11
0.28
0.36
0.415
0.355
0.27
0.16
0.21
0.115
0.11
0.13
0.235
0.355
0.4
0.375
0.235
0.27
0.2
-0.08
0.055
0.21
0.28
0.395
0.495
0.255
0.155
0.21
0.21
0.11
0.09
0.18
0.305
0.46
0.385
0.365
0.28
0.22
0.0
0.06
0.145
0.185
0.31
0.41
0.36
0.38
0.31
0.195
0.14
0.11
0.255
0.33
0.465
0.32
0.38
0.335
0.215
0.255
0.06
-0.015
0.175
0.245
0.23
0.445
0.38
0.385
0.23
0.19
0.08
0.115
0.175
0.095
0.265
0.295
0.27
0.395
0.28
0.21
0.11
0.04
0.14
0.26
0.34
0.48
0.515
0.315
0.23
0.16
0.07
0.185
0.395
0.475
0.595
0.71
0.535
0.4
0.37
0.335
0.11
0.05
0.13
0.15
0.03
0.125
0.22
0.185
0.235
0.085
-0.08
0.09
0.035
0.15
0.15
0.305
0.38
0.295
0.385
0.3
0.155
0.125
0.115
0.27
0.345
0.435
0.39
0.33
0.19
0.185
0.105
0.11
0.17
0.11
0.355
0.6
0.57
0.385
0.285
0.12
0.12
0.12
0.215
0.29
0.39
0.49
0.53
0.315
0.245
0.14
0.155
0.09
0.255
0.31
0.335
0.365
0.475
0.42
0.215
0.175
0.155
0.305
0.245
0.34
0.37
0.565
0.505
0.375
0.315
0.34
0.115
0.105
0.195
0.39
0.445
0.605
0.56
0.435
0.37
0.305
0.34
0.275
0.34
0.485
0.47
0.56
0.605
0.375
0.47
0.425
0.34
0.42
0.535
0.575
0.645
0.645
0.63
0.375
0.46
0.47
0.295
0.365
0.45
0.455
0.565
0.655
0.63
0.495
0.42
0.24
0.29
0.295
0.33
0.35
0.545
0.45
0.385
0.44
0.325
0.095
0.215
0.195
0.235
0.305
0.465
0.46
0.345
0.33
0.23
0.09
0.28
0.25
0.245
0.33
0.445
0.47
0.425
0.315
0.32
0.1
0.15
0.185
0.295
0.365
0.51
0.47
0.4
0.315
0.275
0.13
0.07
0.065
0.23
0.37
0.57
0.54
0.4
0.355
0.255
0.125
0.15
0.23
0.295
0.3
0.46
0.43
0.44
0.305
0.235
0.175
0.29
0.225
0.325
0.295
0.43
0.56
0.445
0.305
0.26
0.11
0.1
0.23
0.455
0.42
0.44
0.47
0.445
0.295
0.245
0.175
0.145
0.18
0.35
0.45
0.58
0.575
0.435
0.34
0.25
0.145
0.15
0.205
0.315
0.42
0.65
0.58
0.425
0.425
0.395
0.17
0.21
0.29
0.325
0.43
0.45
0.52
0.445
0.285
0.21
0.205
0.185
0.215
0.33
0.325
0.555
0.365
0.31
0.4
0.3
0.235
0.185
0.295
0.315
0.435
0.475
0.475
0.33
0.21
0.295
0.16
0.2
0.43
0.31
0.4
0.505
0.63
0.5
0.49
0.325
0.37
0.445
0.52
0.51
0.555
0.51
0.55
0.42
0.28
0.09
0.095
-0.015
0.095
0.065
0.285
0.38
0.44
0.35
0.39
0.175
0.175
0.125
0.285
0.395
0.585
0.54
0.43
0.425
0.315
0.195
0.185
0.175
0.33
0.305
0.505
0.535
0.49
0.39
0.47
0.14
0.06
0.21
0.395
0.355
0.565
0.6
0.465
0.38
0.33
0.19
0.245
0.285
0.37
0.36
0.61
0.615
0.475
0.42
0.37
0.235
0.34
0.215
0.34
0.355
0.45
0.655
0.51
0.335
0.3
0.29
0.215
0.32
0.44
0.46
0.515
0.595
0.59
0.49
0.44
0.29
0.33
0.45
0.465
0.5
0.585
0.675
0.62
0.505
0.5
0.325
0.385
0.425
0.635
0.605
0.73
0.75
0.645
0.575
0.535
0.395
0.33
0.54
0.575
0.695
0.975
0.74
0.545
0.295
0.52
0.445
0.495
0.475
0.55
0.62
0.665
0.715
0.63
0.525
0.375
0.45
0.31
0.395
0.415
0.63
0.575
0.57
0.46
0.37
0.26
0.21
0.29
0.345
0.405
0.53
0.55
0.545
0.31
0.375
0.25
0.265
0.295
0.3
0.34
0.62
0.65
0.56
0.45
0.3
0.33
0.23
0.25
0.325
0.425
0.405
0.5
0.595
0.48
0.44
0.23
0.245
0.185
0.28
0.44
0.54
0.615
0.48
0.465
0.38
0.225
0.205
0.235
0.265
0.505
0.59
0.56
0.465
0.375
0.34
0.24
0.135
0.14
0.41
0.48
0.5
0.51
0.615
0.44
0.425
0.235
0.31
0.325
0.315
0.41
0.6
0.615
0.62
0.445
0.41
0.185
0.195
0.305
0.365
0.395
0.66
0.7
0.665
0.45
0.275
0.095
0.23
0.295
0.46
0.445
0.63
0.57
0.57
0.375
0.365
0.215
0.2
0.34
0.445
0.405
0.48
0.585
0.435
0.445
0.43
0.18
0.305
0.23
0.42
0.285
0.65
0.625
0.42
0.36
0.3
0.21
0.215
0.35
0.375
0.405
0.555
0.535
0.56
0.425
0.285
0.175
0.115
0.235
0.54
0.59
0.695
0.79
0.695
0.535
0.395
0.29
0.245
0.315
0.41
0.46
0.455
0.325
0.12
0.085
0.265
0.1
0.08
0.24
0.4
0.45
0.535
0.505
0.415
0.31
0.205
0.115
0.175
0.325
0.43
0.5
0.61
0.51
0.325
0.2
0.305
0.275
0.24
0.16
0.425
0.51
0.525
0.61
0.34
0.295
0.245
0.205
0.25
0.275
0.5
0.59
0.62
0.535
0.435
0.36
0.24
0.29
0.33
0.26
0.46
0.65
0.555
0.545
0.355
0.28
0.365
0.345
0.4
0.305
0.29
0.575
0.635
0.535
0.45
0.38
0.195
0.21
0.245
0.4
0.4
0.63
0.64
0.57
0.51
0.42
0.275
0.29
0.305
0.52
0.51
0.72
0.72
0.585
0.465
0.51
0.29
0.4
0.35
0.615
0.71
0.72
0.725
0.625
0.555
0.515
0.39
0.38
0.44
0.55
0.645
0.725
0.685
0.635
0.515
0.43
0.3
0.285
0.325
0.39
0.56
0.655
0.64
0.555
0.485
0.325
0.195
0.185
0.315
0.41
0.375
0.565
0.495
0.515
0.37
0.28
0.155
0.19
0.195
0.355
0.43
0.575
0.545
0.45
0.385
0.27
0.09
0.245
0.29
0.405
0.545
0.585
0.565
0.5
0.415
0.32
0.22
0.24
0.375
0.34
0.435
0.455
0.45
0.415
0.24
0.35
0.155
0.205
0.37
0.39
0.495
0.58
0.54
0.455
0.37
0.285
0.32
0.28
0.18
0.335
0.475
0.49
0.52
0.345
0.395
0.3
0.33
0.24
0.38
0.45
0.555
0.665
0.53
0.345
0.365
0.32
0.33
0.315
0.29
0.425
0.48
0.45
0.61
0.445
0.34
0.24
0.275
0.22
0.525
0.64
0.665
0.5
0.545
0.295
0.335
0.32
0.225
0.22
0.35
0.375
0.445
0.585
0.525
0.44
0.44
0.21
0.225
0.285
0.29
0.37
0.495
0.535
0.465
0.41
0.37
0.235
0.21
0.225
0.31
0.385
0.58
0.53
0.48
0.415
0.355
0.18
0.045
0.145
0.415
0.37
0.765
0.62
0.56
0.745
0.57
0.28
0.285
0.275
0.37
0.385
0.5
0.55
0.425
0.22
0.195
0.035
0.14
0.165
0.23
0.32
0.48
0.585
0.36
0.425
0.335
0.215
0.23
0.275
0.295
0.28
0.57
0.55
0.405
0.33
0.205
0.165
0.18
0.15
0.345
0.48
0.49
0.525
0.495
0.355
0.225
0.21
0.18
0.275
0.29
0.32
0.49
0.53
0.54
0.37
0.305
0.205
0.23
0.245
0.39
0.445
0.46
0.42
0.5
0.405
0.33
0.23
0.19
0.25
0.385
0.5
0.645
0.49
0.43
0.41
0.35
0.3
0.235
0.3
0.325
0.4
0.59
0.565
0.485
0.465
0.445
0.245
0.345
0.28
0.48
0.645
0.65
0.575
0.5
0.405
0.39
0.315
0.385
0.395
0.62
0.62
0.715
0.795
0.655
0.54
0.425
0.36
0.37
0.4
0.42
0.715
0.72
0.69
0.55
0.465
0.335
0.395
0.27
0.235
0.445
0.665
0.56
0.555
0.485
0.375
0.19
0.21
0.295
0.34
0.32
0.46
0.54
0.495
0.415
0.275
0.205
0.18
0.295
0.23
0.4
0.485
0.515
0.475
0.405
0.355
0.17
0.105
0.15
0.375
0.34
0.43
0.45
0.49
0.35
0.34
0.155
0.21
0.145
0.26
0.46
0.55
0.56
0.53
0.35
0.24
0.15
0.235
0.255
0.37
0.3
0.365
0.495
0.48
0.33
0.315
0.17
0.115
0.26
0.465
0.335
0.47
0.435
0.425
0.355
0.44
0.175
0.175
0.245
0.325
0.395
0.565
0.53
0.405
0.33
0.185
0.16
0.145
0.12
0.315
0.47
0.44
0.43
0.545
0.405
0.26
0.185
0.225
0.25
0.345
0.45
0.55
0.56
0.49
0.38
0.285
0.185
0.22
0.24
0.31
0.345
0.585
0.505
0.39
0.3
0.215
0.215
0.26
0.205
0.315
0.42
0.47
0.49
0.325
0.285
0.265
0.065
0.04
0.1
0.31
0.28
0.6
0.58
0.455
0.31
0.21
0.155
0.215
0.29
0.335
0.5
0.565
0.465
0.4
0.41
0.25
0.365
0.38
0.575
0.545
0.67
0.585
0.41
0.435
0.295
0.14
0.045
0.165
0.23
0.21
0.405
0.33
0.34
0.26
0.22
0.065
0.015
0.1
0.235
0.25
0.435
0.45
0.55
0.495
0.285
0.205
0.25
0.18
0.225
0.25
0.44
0.385
0.415
0.5
0.32
0.205
0.2
0.28
0.285
0.295
0.435
0.47
0.445
0.37
0.34
0.205
0.25
0.185
0.21
0.405
0.475
0.5
0.46
0.32
0.39
0.105
0.125
0.255
0.24
0.37
0.425
0.605
0.495
0.365
0.27
0.02
0.17
0.255
0.415
0.405
0.5
0.57
0.5
0.365
0.28
0.28
0.185
0.235
0.395
0.455
0.57
0.595
0.535
0.38
0.375
0.21
0.225
0.32
0.465
0.475
0.64
0.615
0.595
0.605
0.445
0.385
0.265
0.27
0.42
0.48
0.66
0.475
0.555
0.41
0.46
0.37
0.335
0.355
0.42
0.595
0.675
0.69
0.49
0.455
0.415
0.23
0.155
0.38
0.4
0.45
0.555
0.52
0.405
0.3
0.29
0.095
0.235
0.285
0.315
0.435
0.575
0.46
0.4
0.33
0.26
0.04
0.19
0.225
0.285
0.45
0.45
0.42
0.45
0.315
0.22
0.08
0.07
0.195
0.335
0.385
0.43
0.33
0.465
0.285
0.245
0.28
0.225
0.285
0.38
0.46
0.49
0.455
0.33
0.325
0.205
0.155
0.25
0.29
0.075
0.405
0.375
0.225
0.475
0.34
0.195
0.135
0.21
0.27
0.3
0.39
0.43
0.46
0.375
0.35
0.165
0.13
0.155
0.145
0.42
0.54
0.495
0.51
0.36
0.26
0.205
0.215
0.24
0.255
0.3
0.445
0.52
0.41
0.325
0.33
0.15
0.145
0.185
0.295
0.35
0.395
0.475
0.44
0.38
0.39
0.21
0.18
0.165
0.315
0.365
0.505
0.5
0.495
0.285
0.22
0.145
0.14
0.15
0.305
0.355
0.415
0.43
0.455
0.4
0.27
0.14
0.125
0.17
0.33
0.395
0.465
0.45
0.445
0.205
0.205
0.07
0.07
0.17
0.32
0.295
0.53
0.47
0.39
0.265
0.255
0.09
0.24
0.27
0.525
0.605
0.585
0.62
0.485
0.35
0.16
0.025
0.11
0.42
0.325
0.315
0.405
0.35
0.28
0.135
0.1
0.12
0.205
0.145
0.305
0.34
0.515
0.515
0.355
0.17
0.15
0.13
0.075
0.175
0.29
0.365
0.54
0.455
0.3
0.21
0.24
0.195
0.145
0.155
0.22
0.54
0.375
0.395
0.49
0.345
0.26
0.11
0.12
0.235
0.315
0.43
0.465
0.445
0.43
0.28
0.14
0.215
0.275
0.295
0.275
0.36
0.45
0.435
0.325
0.29
0.165
0.18
0.24
0.295
0.35
0.49
0.495
0.46
0.38
0.355
0.07
0.13
0.33
0.26
0.41
0.475
0.525
0.495
0.43
0.375
0.205
0.205
0.24
0.35
0.475
0.575
0.55
0.55
0.515
0.415
0.315
0.38
0.365
0.545
0.525
0.645
0.62
0.585
0.41
0.39
0.405
0.31
0.325
0.435
0.51
0.615
0.6
0.585
0.54
0.355
0.2
0.235
0.23
0.395
0.335
0.465
0.43
0.355
0.25
0.29
0.21
0.08
0.22
0.4
0.55
0.49
0.43
0.385
0.265
0.245
0.245
0.29
0.16
0.3
0.325
0.455
0.385
0.355
0.29
0.235
0.075
0.135
0.17
0.26
0.355
0.505
0.51
0.25
0.22
0.315
0.11
0.155
0.165
0.275
0.255
0.395
0.43
0.255
0.235
0.2
0.105
0.085
0.14
0.22
0.335
0.615
0.48
0.32
0.22
0.18
0.16
0.125
0.21
0.28
0.41
0.495
0.5
0.24
0.295
0.22
0.12
0.055
0.265
0.26
0.31
0.39
0.43
0.305
0.35
0.08
0.0
0.01
0.225
0.49
0.44
0.35
0.37
0.31
0.175
0.21
0.05
0.13
0.14
0.265
0.35
0.42
0.41
0.36
0.21
0.135
0.18
0.185
0.24
0.285
0.47
0.47
0.4
0.215
0.265
0.135
0.105
0.165
0.27
0.325
0.5
0.365
0.35
0.34
0.17
0.04
0.135
0.165
0.2
0.38
0.4
0.365
0.35
0.275
0.155
0.08
-0.015
0.16
0.08
0.31
0.485
0.39
0.32
0.25
0.18
-0.005
0.11
0.115
0.23
0.22
0.415
0.5
0.395
0.275
0.16
0.145
0.16
0.125
0.215
0.345
0.49
0.53
0.48
0.405
0.48
0.155
0.125
0.27
0.275
0.235
0.41
0.42
0.175
0.145
0.15
-0.015
-0.03
0.0
0.065
0.175
0.355
0.24
0.36
0.345
0.175
0.045
0.065
0.155
0.235
0.29
0.37
0.405
0.29
0.265
0.24
0.045
0.17
0.04
0.17
0.27
0.395
0.485
0.275
0.235
